##NAMES=Gamagarite
##RRUFFID=R130111
##IDEAL CHEMISTRY=Ba_2_Fe^3+^(VO_4_)_2_(OH)
##LOCALITY=Molinello mine, Graveglia Valley, Genova Province, Liguria, Italy
##OWNER=RRUFF
##SOURCE=Don Doell (Small piece), Rock Currier (Large piece)
##DESCRIPTION=Dark reddish brown massive
##STATUS=The identification of this mineral has been confirmed only by single crystal X-ray diffraction
##URL=https://www.rruff.net/odr/rruff_sample/R130111
##DIFFRACTION SAMPLE DESCRIPTION=Single crystal, powder profile is calculated
##CELL PARAMETERS=a: 9.174 b: 6.164 c: 7.882 alpha: 90 beta: 112.98 gamma: 90 volume: 410.4 crystal system: monoclinic
##FILETYPE=Raman Processed
##RAMAN WAVELENGTH=780

87.91089, 6156.813
89.83936, 6835.518
91.76782, 7474.585
93.69629, 7742.989
95.62476, 7519.609
97.55322, 7291.433
99.48169, 7086.731
101.4102, 6917.911
103.3386, 6775.079
105.2671, 6672.891
107.1956, 6610.172
109.1240, 6565.524
111.0525, 6527.659
112.9810, 6497.684
114.9094, 6473.641
116.8379, 6451.093
118.7664, 6445.125
120.6948, 6460.591
122.6233, 6482.511
124.5518, 6507.556
126.4802, 6534.123
128.4087, 6561.860
130.3372, 6589.955
132.2656, 6611.011
134.1941, 6624.542
136.1226, 6628.728
138.0510, 6615.474
139.9795, 6597.327
141.9080, 6585.625
143.8364, 6580.214
145.7649, 6579.278
147.6934, 6586.167
149.6218, 6592.743
151.5503, 6596.667
153.4788, 6600.481
155.4072, 6604.768
157.3357, 6609.870
159.2642, 6620.419
161.1926, 6641.002
163.1211, 6660.973
165.0496, 6686.925
166.9780, 6705.209
168.9065, 6703.208
170.8350, 6687.124
172.7634, 6678.627
174.6919, 6682.459
176.6204, 6685.607
178.5488, 6687.839
180.4773, 6689.184
182.4058, 6689.428
184.3342, 6688.757
186.2627, 6686.990
188.1912, 6683.026
190.1196, 6682.883
192.0481, 6687.729
193.9766, 6694.374
195.9050, 6700.339
197.8335, 6708.539
199.7620, 6722.227
201.6904, 6741.544
203.6189, 6762.792
205.5474, 6785.833
207.4758, 6810.822
209.4043, 6839.276
211.3328, 6868.479
213.2612, 6897.562
215.1897, 6926.116
217.1182, 6951.080
219.0466, 6971.014
220.9751, 6996.275
222.9036, 7029.847
224.8320, 7065.550
226.7605, 7104.878
228.6890, 7141.612
230.6174, 7165.760
232.5459, 7177.156
234.4744, 7190.190
236.4028, 7206.417
238.3313, 7221.688
240.2598, 7233.764
242.1882, 7246.245
244.1167, 7260.323
246.0452, 7276.834
247.9736, 7298.313
249.9021, 7324.553
251.8306, 7351.845
253.7590, 7380.638
255.6875, 7407.169
257.6160, 7431.065
259.5444, 7450.984
261.4729, 7464.802
263.4014, 7473.289
265.3298, 7478.798
267.2583, 7480.243
269.1868, 7485.492
271.1152, 7497.891
273.0437, 7513.642
274.9722, 7532.432
276.9006, 7552.888
278.8291, 7574.235
280.7576, 7595.844
282.6860, 7609.837
284.6145, 7609.353
286.5430, 7611.800
288.4714, 7618.144
290.3999, 7630.888
292.3284, 7655.874
294.2568, 7687.505
296.1853, 7714.153
298.1138, 7734.778
300.0422, 7758.740
301.9707, 7787.899
303.8992, 7819.290
305.8276, 7853.125
307.7561, 7888.242
309.6846, 7925.984
311.6130, 7963.923
313.5415, 7996.064
315.4700, 8021.352
317.3984, 8043.984
319.3269, 8063.000
321.2554, 8081.161
323.1838, 8095.851
325.1123, 8112.573
327.0408, 8136.997
328.9692, 8166.869
330.8977, 8195.634
332.8262, 8223.818
334.7546, 8249.779
336.6831, 8276.312
338.6116, 8297.735
340.5400, 8313.366
342.4685, 8322.491
344.3970, 8323.755
346.3254, 8318.749
348.2539, 8312.214
350.1824, 8302.475
352.1108, 8295.928
354.0393, 8291.115
355.9678, 8291.509
357.8962, 8305.879
359.8247, 8316.503
361.7532, 8313.197
363.6816, 8297.413
365.6101, 8270.469
367.5386, 8229.690
369.4670, 8194.691
371.3955, 8164.826
373.3240, 8143.356
375.2524, 8134.171
377.1809, 8130.333
379.1094, 8129.274
381.0378, 8129.494
382.9663, 8128.347
384.8948, 8125.565
386.8232, 8123.585
388.7517, 8121.696
390.6802, 8122.572
392.6086, 8127.433
394.5371, 8134.097
396.4656, 8141.803
398.3940, 8150.808
400.3225, 8160.580
402.2510, 8171.920
404.1794, 8188.840
406.1079, 8211.381
408.0364, 8232.782
409.9648, 8250.974
411.8933, 8270.829
413.8218, 8297.357
415.7502, 8322.084
417.6787, 8339.553
419.6072, 8352.264
421.5356, 8363.896
423.4641, 8374.661
425.3926, 8384.854
427.3210, 8393.682
429.2495, 8406.926
431.1780, 8433.078
433.1064, 8453.455
435.0349, 8458.939
436.9634, 8460.047
438.8918, 8464.694
440.8203, 8472.234
442.7488, 8480.896
444.6772, 8490.723
446.6057, 8501.940
448.5342, 8514.986
450.4626, 8527.866
452.3911, 8541.605
454.3196, 8553.002
456.2480, 8559.277
458.1765, 8564.089
460.1050, 8570.349
462.0334, 8578.465
463.9619, 8590.333
465.8904, 8606.205
467.8188, 8617.716
469.7473, 8619.752
471.6758, 8625.049
473.6042, 8635.449
475.5327, 8647.655
477.4612, 8661.600
479.3896, 8675.098
481.3181, 8684.754
483.2466, 8692.964
485.1750, 8704.834
487.1035, 8720.690
489.0320, 8737.829
490.9604, 8759.370
492.8889, 8776.762
494.8174, 8786.488
496.7458, 8796.424
498.6743, 8810.268
500.6028, 8824.479
502.5313, 8837.563
504.4597, 8849.081
506.3882, 8857.728
508.3167, 8863.738
510.2451, 8869.706
512.1736, 8876.177
514.1021, 8881.001
516.0305, 8881.876
517.9590, 8884.792
519.8875, 8890.547
521.8159, 8899.507
523.7444, 8914.702
525.6729, 8930.994
527.6013, 8942.538
529.5298, 8950.786
531.4583, 8960.616
533.3867, 8972.625
535.3152, 8985.344
537.2437, 8998.900
539.1721, 9013.123
541.1006, 9028.301
543.0291, 9042.517
544.9575, 9053.926
546.8860, 9064.280
548.8145, 9072.743
550.7429, 9081.690
552.6714, 9096.446
554.5999, 9115.420
556.5283, 9128.998
558.4568, 9137.436
560.3853, 9146.585
562.3137, 9157.152
564.2422, 9168.205
566.1707, 9179.919
568.0991, 9191.505
570.0276, 9203.999
571.9561, 9214.857
573.8845, 9221.233
575.8130, 9225.543
577.7415, 9228.795
579.6699, 9233.017
581.5984, 9247.326
583.5269, 9270.690
585.4553, 9289.658
587.3838, 9302.235
589.3123, 9313.728
591.2407, 9324.268
593.1692, 9335.862
595.0977, 9349.933
597.0261, 9364.716
598.9546, 9378.420
600.8831, 9393.604
602.8115, 9413.605
604.7400, 9436.749
606.6685, 9459.948
608.5969, 9482.771
610.5254, 9503.098
612.4539, 9519.849
614.3823, 9540.047
616.3108, 9563.108
618.2393, 9592.428
620.1677, 9626.232
622.0962, 9669.620
624.0247, 9729.911
625.9531, 9794.329
627.8816, 9853.196
629.8101, 9913.226
631.7385, 9986.690
633.6670, 10064.46
635.5955, 10124.34
637.5239, 10168.16
639.4524, 10224.16
641.3809, 10293.83
643.3093, 10372.51
645.2378, 10457.06
647.1663, 10555.87
649.0947, 10673.04
651.0232, 10799.07
652.9517, 10940.32
654.8801, 11076.85
656.8086, 11208.54
658.7371, 11317.35
660.6655, 11402.20
662.5940, 11447.03
664.5225, 11420.32
666.4509, 11328.59
668.3794, 11199.74
670.3079, 11029.93
672.2363, 10862.87
674.1648, 10692.79
676.0933, 10549.45
678.0217, 10436.75
679.9502, 10344.25
681.8787, 10271.11
683.8071, 10214.08
685.7356, 10175.99
687.6641, 10147.60
689.5925, 10125.40
691.5210, 10108.05
693.4495, 10094.53
695.3779, 10085.10
697.3064, 10080.56
699.2349, 10080.61
701.1633, 10085.01
703.0918, 10093.76
705.0203, 10098.04
706.9487, 10097.38
708.8772, 10106.06
710.8057, 10128.85
712.7341, 10143.31
714.6626, 10142.04
716.5911, 10139.07
718.5195, 10136.06
720.4480, 10136.01
722.3765, 10140.48
724.3049, 10147.15
726.2334, 10155.91
728.1619, 10164.61
730.0903, 10170.55
732.0188, 10175.33
733.9473, 10181.47
735.8757, 10189.04
737.8042, 10198.65
739.7327, 10209.61
741.6611, 10217.84
743.5896, 10223.12
745.5181, 10227.51
747.4465, 10230.90
749.3750, 10233.68
751.3035, 10232.25
753.2319, 10237.72
755.1604, 10257.35
757.0889, 10274.88
759.0173, 10286.40
760.9458, 10294.89
762.8743, 10298.29
764.8027, 10303.59
766.7312, 10318.22
768.6597, 10335.03
770.5881, 10345.52
772.5166, 10354.48
774.4451, 10368.98
776.3735, 10386.11
778.3020, 10399.28
780.2305, 10408.94
782.1589, 10419.21
784.0874, 10430.08
786.0159, 10439.41
787.9443, 10445.36
789.8728, 10458.31
791.8013, 10484.25
793.7297, 10507.67
795.6582, 10527.82
797.5867, 10548.89
799.5151, 10571.69
801.4436, 10595.35
803.3721, 10620.75
805.3005, 10643.40
807.2290, 10658.79
809.1575, 10672.90
811.0859, 10686.93
813.0144, 10702.95
814.9429, 10725.22
816.8713, 10747.79
818.7998, 10765.29
820.7283, 10780.05
822.6567, 10792.92
824.5852, 10806.92
826.5137, 10829.47
828.4421, 10858.46
830.3706, 10885.52
832.2991, 10910.81
834.2275, 10937.79
836.1560, 10966.67
838.0845, 10996.10
840.0129, 11026.84
841.9414, 11052.20
843.8699, 11071.97
845.7983, 11087.72
847.7268, 11099.63
849.6553, 11106.28
851.5837, 11105.30
853.5122, 11105.02
855.4407, 11108.44
857.3691, 11108.87
859.2976, 11102.54
861.2261, 11095.44
863.1545, 11085.38
865.0830, 11080.98
867.0115, 11084.16
868.9399, 11096.06
870.8684, 11123.25
872.7969, 11152.27
874.7253, 11180.78
876.6538, 11198.25
878.5823, 11192.05
880.5107, 11172.09
882.4392, 11145.09
884.3677, 11116.43
886.2961, 11090.58
888.2246, 11070.93
890.1531, 11063.36
892.0815, 11066.56
894.0100, 11078.54
895.9385, 11098.65
897.8669, 11127.52
899.7954, 11162.86
901.7239, 11198.71
903.6523, 11233.38
905.5808, 11257.21
907.5093, 11269.87
909.4377, 11263.24
911.3662, 11235.42
913.2947, 11205.00
915.2231, 11169.95
917.1516, 11145.77
919.0801, 11136.03
921.0085, 11129.27
922.9370, 11125.97
924.8655, 11124.28
926.7939, 11123.33
928.7224, 11125.51
930.6509, 11129.21
932.5793, 11140.00
934.5078, 11162.45
936.4363, 11183.20
938.3647, 11198.43
940.2932, 11214.07
942.2217, 11229.42
944.1501, 11250.29
946.0786, 11281.68
948.0071, 11310.61
949.9355, 11326.06
951.8640, 11351.43
953.7925, 11399.22
955.7209, 11454.67
957.6494, 11510.48
959.5779, 11574.25
961.5063, 11652.76
963.4348, 11736.85
965.3633, 11827.69
967.2917, 11914.88
969.2202, 11995.56
971.1487, 12066.55
973.0771, 12121.08
975.0056, 12169.90
976.9341, 12212.41
978.8625, 12260.88
980.7910, 12323.67
982.7195, 12397.26
984.6479, 12493.57
986.5764, 12582.40
988.5049, 12640.50
990.4333, 12673.07
992.3618, 12689.03
994.2903, 12678.08
996.2188, 12629.73
998.1472, 12548.75
1000.076, 12427.73
1002.004, 12290.35
1003.933, 12156.81
1005.861, 12030.82
1007.790, 11914.32
1009.718, 11810.33
1011.646, 11721.89
1013.575, 11648.14
1015.503, 11588.11
1017.432, 11541.64
1019.360, 11513.60
1021.289, 11495.08
1023.217, 11475.57
1025.146, 11457.81
1027.074, 11448.53
1029.003, 11441.44
1030.931, 11423.51
1032.860, 11406.52
1034.788, 11406.75
1036.717, 11416.46
1038.645, 11426.06
1040.573, 11437.17
1042.502, 11455.78
1044.430, 11472.72
1046.359, 11475.24
1048.287, 11470.35
1050.216, 11468.55
1052.144, 11464.34
1054.073, 11449.73
1056.001, 11431.33
1057.930, 11414.20
1059.858, 11401.21
1061.787, 11396.27
1063.715, 11395.73
1065.644, 11395.56
1067.572, 11395.46
1069.500, 11392.81
1071.429, 11391.31
1073.357, 11400.24
1075.286, 11406.70
1077.214, 11394.78
1079.143, 11379.72
1081.071, 11378.72
1083.000, 11378.94
1084.928, 11366.34
1086.857, 11354.61
1088.785, 11352.73
1090.714, 11357.94
1092.642, 11372.35
1094.571, 11386.58
1096.499, 11390.87
1098.427, 11396.37
1100.356, 11413.87
1102.284, 11428.45
1104.213, 11430.69
1106.141, 11428.90
1108.070, 11422.64
1109.998, 11420.12
1111.927, 11428.76
1113.855, 11436.28
1115.784, 11435.79
1117.712, 11438.08
1119.641, 11449.42
1121.569, 11459.60
1123.498, 11463.64
1125.426, 11470.74
1127.354, 11486.39
1129.283, 11497.54
1131.211, 11497.17
1133.140, 11502.06
1135.068, 11517.31
1136.997, 11531.07
1138.925, 11541.23
1140.854, 11550.92
1142.782, 11560.85
1144.711, 11569.76
1146.639, 11578.15
1148.568, 11584.00
1150.496, 11587.27
1152.425, 11589.14
1154.353, 11589.42
1156.281, 11595.32
1158.210, 11606.79
1160.138, 11607.24
1162.067, 11596.52
1163.995, 11584.43
1165.924, 11572.17
1167.852, 11570.58
1169.781, 11576.65
1171.709, 11577.00
1173.638, 11573.56
1175.566, 11571.24
1177.495, 11569.78
1179.423, 11566.79
1181.352, 11564.71
1183.280, 11569.03
1185.208, 11573.93
1187.137, 11569.60
1189.065, 11563.67
1190.994, 11562.48
1192.922, 11563.50
1194.851, 11567.54
1196.779, 11569.89
1198.708, 11566.97
1200.636, 11564.65
1202.565, 11564.62
1204.493, 11570.12
1206.422, 11583.42
1208.350, 11598.79
1210.279, 11615.35
1212.207, 11625.52
1214.135, 11625.31
1216.064, 11625.74
1217.992, 11629.61
1219.921, 11629.78
1221.849, 11626.23
1223.778, 11616.47
1225.706, 11601.25
1227.635, 11596.49
1229.563, 11602.16
1231.492, 11607.67
1233.420, 11613.22
1235.349, 11624.63
1237.277, 11638.47
1239.206, 11646.64
1241.134, 11649.45
1243.063, 11642.63
1244.991, 11636.48
1246.919, 11650.54
1248.848, 11667.13
1250.776, 11668.12
1252.705, 11664.20
1254.633, 11659.47
1256.562, 11658.50
1258.490, 11665.65
1260.419, 11673.73
1262.347, 11679.85
1264.276, 11686.98
1266.204, 11697.20
1268.133, 11704.61
1270.061, 11705.95
1271.990, 11714.25
1273.918, 11731.97
1275.846, 11744.46
1277.775, 11751.13
1279.703, 11751.99
1281.632, 11748.60
1283.560, 11750.36
1285.489, 11756.86
1287.417, 11767.60
1289.346, 11780.71
1291.274, 11796.08
1293.203, 11807.90
1295.131, 11806.50
1297.060, 11803.59
1298.988, 11807.13
1300.917, 11812.79
1302.845, 11818.36
1304.773, 11825.70
1306.702, 11839.06
1308.630, 11845.03
1310.559, 11836.56
1312.487, 11839.04
1314.416, 11858.25
1316.344, 11876.62
1318.273, 11893.01
1320.201, 11913.11
1322.130, 11936.27
1324.058, 11961.04
1325.987, 11986.81
1327.915, 12013.48
1329.844, 12040.00
1331.772, 12063.78
1333.700, 12088.05
1335.629, 12117.82
1337.557, 12147.41
1339.486, 12173.82
1341.414, 12198.73
1343.343, 12220.98
1345.271, 12246.97
1347.200, 12278.03
1349.128, 12315.12
1351.057, 12358.79
1352.985, 12399.63
1354.914, 12435.72
1356.842, 12457.56
1358.771, 12465.47
1360.699, 12463.51
1362.627, 12450.23
1364.556, 12421.29
1366.484, 12380.81
1368.413, 12327.33
1370.341, 12273.31
1372.270, 12228.87
1374.198, 12184.82
1376.127, 12132.14
1378.055, 12088.83
1379.984, 12059.80
1381.912, 12034.95
1383.841, 12013.81
1385.769, 11992.28
1387.698, 11970.76
1389.626, 11957.63
1391.554, 11950.15
1393.483, 11939.08
1395.411, 11927.30
1397.340, 11918.90
1399.268, 11912.06
1401.197, 11903.43
1403.125, 11898.75
1405.054, 11903.12
1406.982, 11907.67
1408.911, 11909.95
1410.839, 11912.74
1412.768, 11914.78
1414.696, 11926.70
1416.625, 11947.93
1418.553, 11961.40
1420.481, 11966.94
1422.410, 11959.78
1424.338, 11950.51
1426.267, 11959.54
1428.195, 11969.24
1430.124, 11967.54
1432.052, 11962.80
1433.981, 11957.47
1435.909, 11954.86
1437.838, 11955.78
1439.766, 11961.80
1441.695, 11973.06
1443.623, 11976.67
1445.552, 11973.77
1447.480, 11972.22
1449.408, 11971.00
1451.337, 11969.68
1453.265, 11965.36
1455.194, 11951.76
1457.122, 11938.90
1459.051, 11931.63
1460.979, 11927.05
1462.908, 11926.57
1464.836, 11921.72
1466.765, 11912.40
1468.693, 11899.62
1470.622, 11886.95
1472.550, 11889.58
1474.479, 11898.20
1476.407, 11894.23
1478.335, 11890.03
1480.264, 11899.47
1482.192, 11907.17
1484.121, 11902.14
1486.049, 11900.87
1487.978, 11907.03
1489.906, 11911.53
1491.835, 11913.97
1493.763, 11917.92
1495.692, 11920.91
1497.620, 11912.44
1499.549, 11901.57
1501.477, 11902.88
1503.406, 11901.04
1505.334, 11882.03
1507.262, 11866.42
1509.191, 11865.98
1511.119, 11858.47
1513.048, 11840.99
1514.976, 11835.14
1516.905, 11840.03
1518.833, 11853.38
1520.762, 11867.55
1522.690, 11864.98
1524.619, 11863.47
1526.547, 11877.80
1528.476, 11886.04
1530.404, 11876.94
1532.333, 11876.95
1534.261, 11892.05
1536.189, 11903.76
1538.118, 11910.92
1540.046, 11904.02
1541.975, 11890.56
1543.903, 11878.87
1545.832, 11871.84
1547.760, 11874.80
1549.689, 11874.16
1551.617, 11866.14
1553.546, 11849.82
1555.474, 11825.18
1557.403, 11809.14
1559.331, 11798.82
1561.260, 11781.66
1563.188, 11763.38
1565.116, 11752.44
1567.045, 11742.16
1568.973, 11726.01
1570.902, 11715.81
1572.830, 11714.84
1574.759, 11703.59
1576.687, 11681.74
1578.616, 11661.04
1580.544, 11641.14
1582.473, 11618.20
1584.401, 11599.35
1586.330, 11593.33
1588.258, 11590.94
1590.187, 11592.29
1592.115, 11588.39
1594.043, 11577.81
1595.972, 11569.51
1597.900, 11563.99
1599.829, 11564.92
1601.757, 11567.66
1603.686, 11568.92
1605.614, 11567.01
1607.543, 11562.14
1609.471, 11551.90
1611.400, 11533.23
1613.328, 11525.73
1615.257, 11527.96
1617.185, 11531.51
1619.114, 11533.04
1621.042, 11525.58
1622.970, 11517.00
1624.899, 11510.42
1626.827, 11504.36
1628.756, 11497.84
1630.684, 11494.00
1632.613, 11492.59
1634.541, 11495.72
1636.470, 11496.00
1638.398, 11479.50
1640.327, 11459.13
1642.255, 11438.58
1644.184, 11425.35
1646.112, 11421.44
1648.041, 11419.86
1649.969, 11417.96
1651.897, 11407.40
1653.826, 11389.34
1655.754, 11360.17
1657.683, 11333.13
1659.611, 11314.43
1661.540, 11297.08
1663.468, 11280.60
1665.397, 11274.41
1667.325, 11274.28
1669.254, 11260.93
1671.182, 11247.72
1673.111, 11252.38
1675.039, 11253.67
1676.968, 11240.83
1678.896, 11231.65
1680.824, 11226.60
1682.753, 11221.73
1684.681, 11215.38
1686.610, 11205.85
1688.538, 11194.13
1690.467, 11179.85
1692.395, 11168.66
1694.324, 11163.83
1696.252, 11154.90
1698.181, 11142.93
1700.109, 11134.23
1702.038, 11128.08
1703.966, 11123.67
1705.895, 11120.28
1707.823, 11120.42
1709.751, 11113.67
1711.680, 11099.51
1713.608, 11090.81
1715.537, 11085.21
1717.465, 11074.82
1719.394, 11066.57
1721.322, 11066.27
1723.251, 11063.37
1725.179, 11054.60
1727.108, 11041.03
1729.036, 11023.58
1730.965, 11007.22
1732.893, 10990.77
1734.822, 10972.95
1736.750, 10956.38
1738.678, 10943.54
1740.607, 10920.42
1742.535, 10888.20
1744.464, 10862.44
1746.392, 10838.44
1748.321, 10805.00
1750.249, 10778.08
1752.178, 10763.87
1754.106, 10751.06
1756.035, 10737.71
1757.963, 10728.44
1759.892, 10717.12
1761.820, 10691.10
1763.749, 10662.81
1765.677, 10637.37
1767.605, 10616.38
1769.534, 10599.84
1771.462, 10586.16
1773.391, 10573.90
1775.319, 10561.39
1777.248, 10548.52
1779.176, 10537.24
1781.105, 10521.38
1783.033, 10500.76
1784.962, 10484.60
1786.890, 10472.54
1788.819, 10465.10
1790.747, 10456.25
1792.676, 10437.14
1794.604, 10427.30
1796.532, 10428.98
1798.461, 10424.70
1800.389, 10415.09
1802.318, 10398.67
1804.246, 10384.85
1806.175, 10383.25
1808.103, 10374.15
1810.032, 10355.82
1811.960, 10338.59
1813.889, 10324.58
1815.817, 10318.51
1817.746, 10314.30
1819.674, 10309.37
1821.603, 10301.46
1823.531, 10289.87
1825.459, 10280.56
1827.388, 10270.33
1829.316, 10255.11
1831.245, 10237.63
1833.173, 10218.85
1835.102, 10206.23
1837.030, 10199.82
1838.959, 10190.79
1840.887, 10183.16
1842.816, 10184.29
1844.744, 10178.03
1846.673, 10159.50
1848.601, 10145.69
1850.530, 10134.03
1852.458, 10115.77
1854.386, 10093.22
1856.315, 10067.27
1858.243, 10041.29
1860.172, 10016.05
1862.100, 9994.649
1864.029, 9974.172
1865.957, 9946.915
1867.886, 9923.229
1869.814, 9912.061
1871.743, 9885.278
1873.671, 9845.934
1875.600, 9821.786
1877.528, 9801.571
1879.457, 9773.994
1881.385, 9747.435
1883.313, 9724.543
1885.242, 9703.433
1887.170, 9681.855
1889.099, 9653.162
1891.027, 9623.312
1892.956, 9593.282
1894.884, 9567.737
1896.813, 9546.616
1898.741, 9536.428
1900.670, 9527.547
1902.598, 9508.629
1904.527, 9492.732
1906.455, 9485.284
1908.384, 9471.183
1910.312, 9454.150
1912.240, 9446.299
1914.169, 9435.704
1916.097, 9415.366
1918.026, 9397.796
1919.954, 9383.267
1921.883, 9359.700
1923.811, 9335.341
1925.740, 9319.641
1927.668, 9301.849
1929.597, 9279.682
1931.525, 9259.182
1933.454, 9238.019
1935.382, 9209.831
1937.311, 9183.512
1939.239, 9161.995
1941.167, 9149.388
1943.096, 9140.784
1945.024, 9118.036
1946.953, 9092.611
1948.881, 9073.036
1950.810, 9049.339
1952.738, 9021.751
1954.667, 8998.218
1956.595, 8977.597
1958.524, 8959.752
1960.452, 8941.134
1962.381, 8920.761
1964.309, 8907.863
1966.238, 8897.716
1968.166, 8884.653
1970.094, 8867.127
1972.023, 8844.482
1973.951, 8820.196
1975.880, 8793.637
1977.808, 8760.871
1979.737, 8728.493
1981.665, 8698.140
1983.594, 8677.202
1985.522, 8663.571
1987.451, 8648.989
1989.379, 8632.938
1991.308, 8614.509
1993.236, 8594.629
1995.165, 8573.538
1997.093, 8553.811
1999.021, 8533.192
2000.950, 8510.435
2002.878, 8484.783
2004.807, 8456.865
2006.735, 8435.062
2008.664, 8418.257
2010.592, 8406.995
2012.521, 8393.514
2014.449, 8376.240
2016.378, 8361.088
2018.306, 8344.786
2020.235, 8320.193
2022.163, 8298.433
2024.092, 8281.649
2026.020, 8267.320
2027.948, 8252.773
2029.877, 8235.174
2031.805, 8213.333
2033.734, 8187.063
2035.662, 8161.609
2037.591, 8138.391
2039.519, 8121.665
2041.448, 8102.493
2043.376, 8078.764
2045.305, 8062.595
2047.233, 8049.624
2049.162, 8033.169
2051.090, 8013.032
2053.019, 7988.155
2054.947, 7972.164
2056.875, 7962.214
2058.804, 7956.368
2060.732, 7945.670
2062.661, 7925.249
2064.589, 7913.826
2066.518, 7905.031
2068.446, 7891.446
2070.375, 7870.115
2072.303, 7838.365
2074.232, 7816.485
2076.160, 7797.277
2078.089, 7771.111
2080.017, 7745.528
2081.946, 7722.988
2083.874, 7706.170
2085.802, 7688.344
2087.731, 7659.161
2089.659, 7631.818
2091.588, 7609.062
2093.516, 7596.567
2095.445, 7581.504
2097.373, 7550.486
2099.302, 7519.626
2101.230, 7491.586
2103.159, 7458.862
2105.087, 7432.431
2107.016, 7424.260
2108.944, 7403.799
2110.873, 7372.001
2112.801, 7352.718
2114.729, 7333.588
2116.658, 7307.377
2118.586, 7281.314
2120.515, 7257.258
2122.443, 7237.942
2124.372, 7219.867
2126.300, 7201.211
2128.229, 7184.597
2130.157, 7169.101
2132.086, 7155.783
2134.014, 7135.204
2135.943, 7104.724
2137.871, 7078.325
2139.800, 7055.460
2141.728, 7034.751
2143.656, 7019.198
2145.585, 7008.049
2147.513, 6983.320
2149.442, 6958.282
2151.370, 6945.481
2153.299, 6921.764
2155.227, 6890.908
2157.156, 6880.644
2159.084, 6867.377
2161.013, 6839.792
2162.941, 6816.767
2164.870, 6797.571
2166.798, 6779.521
2168.727, 6760.842
2170.655, 6740.726
2172.583, 6723.175
2174.512, 6706.278
2176.440, 6688.450
2178.369, 6669.453
2180.297, 6649.334
2182.226, 6629.210
2184.154, 6607.291
2186.083, 6583.047
2188.011, 6555.059
2189.940, 6528.891
2191.868, 6519.239
2193.797, 6506.982
2195.725, 6487.532
2197.654, 6460.930
2199.582, 6435.457
2201.510, 6421.141
2203.439, 6405.772
2205.367, 6388.604
2207.296, 6373.618
2209.224, 6354.740
2211.153, 6328.230
2213.081, 6306.688
2215.010, 6287.423
2216.938, 6262.849
2218.867, 6245.249
2220.795, 6235.114
2222.724, 6216.342
2224.652, 6197.982
2226.581, 6191.458
2228.509, 6167.448
2230.438, 6133.824
2232.366, 6108.914
2234.294, 6090.760
2236.223, 6078.920
2238.151, 6061.914
2240.080, 6041.433
2242.008, 6018.415
2243.937, 5996.478
2245.865, 5975.215
2247.794, 5952.019
2249.722, 5927.552
2251.651, 5902.550
2253.579, 5891.448
2255.508, 5881.373
2257.436, 5857.572
2259.365, 5839.748
2261.293, 5826.984
2263.221, 5806.789
2265.150, 5786.954
2267.078, 5769.880
2269.007, 5751.742
2270.935, 5734.778
2272.864, 5722.762
2274.792, 5709.111
2276.721, 5692.736
2278.649, 5673.919
2280.578, 5651.781
2282.506, 5626.675
2284.435, 5605.791
2286.363, 5586.609
2288.292, 5567.038
2290.220, 5547.149
2292.148, 5528.070
2294.077, 5513.477
2296.005, 5496.213
2297.934, 5474.174
2299.862, 5453.931
2301.791, 5435.061
2303.719, 5417.821
2305.648, 5400.295
2307.576, 5381.929
2309.505, 5360.292
2311.433, 5343.436
2313.362, 5331.749
2315.290, 5312.628
2317.219, 5293.035
2319.147, 5276.544
2321.075, 5257.164
2323.004, 5238.001
2324.932, 5225.022
2326.861, 5202.085
2328.789, 5171.946
2330.718, 5152.855
2332.646, 5129.876
2334.575, 5099.921
2336.503, 5086.532
2338.432, 5076.052
2340.360, 5058.313
2342.289, 5046.570
2344.217, 5035.715
2346.146, 5012.655
2348.074, 4992.464
2350.002, 4976.322
2351.931, 4959.542
2353.859, 4945.888
2355.788, 4936.581
2357.716, 4913.519
2359.645, 4887.643
2361.573, 4868.777
2363.502, 4847.992
2365.430, 4829.439
2367.359, 4823.226
2369.287, 4809.545
2371.216, 4788.410
2373.144, 4775.873
2375.073, 4763.712
2377.001, 4749.393
2378.929, 4729.938
2380.858, 4709.256
2382.786, 4689.742
2384.715, 4672.603
2386.643, 4657.307
2388.572, 4644.165
2390.500, 4624.943
2392.429, 4602.435
2394.357, 4591.517
2396.286, 4575.681
2398.214, 4551.186
2400.143, 4526.843
2402.071, 4506.808
2404.000, 4493.082
2405.928, 4472.952
2407.856, 4452.298
2409.785, 4436.938
2411.713, 4421.433
2413.642, 4404.312
2415.570, 4381.490
2417.499, 4364.140
2419.427, 4350.666
2421.356, 4330.827
2423.284, 4311.620
2425.213, 4294.076
2427.141, 4270.300
2429.070, 4250.382
2430.998, 4238.880
2432.927, 4224.634
2434.855, 4208.716
2436.783, 4191.634
2438.712, 4176.373
2440.640, 4162.291
2442.569, 4149.684
2444.497, 4129.976
2446.426, 4107.481
2448.354, 4094.987
2450.283, 4078.848
2452.211, 4058.264
2454.140, 4040.893
2456.068, 4019.695
2457.997, 3993.638
2459.925, 3977.225
2461.854, 3961.099
2463.782, 3940.604
2465.710, 3924.780
2467.639, 3909.962
2469.567, 3893.453
2471.496, 3876.149
2473.424, 3860.128
2475.353, 3847.821
2477.281, 3832.632
2479.210, 3814.728
2481.138, 3794.167
2483.067, 3775.603
2484.995, 3759.171
2486.924, 3744.213
2488.852, 3731.099
2490.781, 3716.683
2492.709, 3687.047
2494.637, 3665.745
2496.566, 3655.273
2498.494, 3638.113
2500.423, 3622.154
2502.351, 3609.486
2504.280, 3593.232
2506.208, 3576.472
2508.137, 3560.465
2510.065, 3541.695
2511.994, 3525.544
2513.922, 3517.867
2515.851, 3497.677
2517.779, 3475.205
2519.708, 3459.229
2521.636, 3449.303
2523.564, 3438.532
2525.493, 3417.659
2527.421, 3408.110
2529.350, 3401.070
2531.278, 3385.008
2533.207, 3363.993
2535.135, 3342.978
2537.064, 3328.668
2538.992, 3315.517
2540.921, 3301.809
2542.849, 3283.561
2544.778, 3272.631
2546.706, 3266.019
2548.635, 3252.407
2550.563, 3238.909
2552.491, 3225.242
2554.420, 3206.870
2556.348, 3189.179
2558.277, 3172.802
2560.205, 3156.393
2562.134, 3139.551
2564.062, 3122.555
2565.991, 3106.098
2567.919, 3090.959
2569.848, 3076.827
2571.776, 3061.551
2573.705, 3047.249
2575.633, 3033.763
2577.562, 3019.199
2579.490, 3001.351
2581.418, 2981.487
2583.347, 2971.749
2585.275, 2957.723
2587.204, 2937.019
2589.132, 2921.804
2591.061, 2910.429
2592.989, 2901.391
2594.918, 2885.456
2596.846, 2870.501
2598.775, 2857.996
2600.703, 2842.213
2602.632, 2827.274
2604.560, 2814.303
2606.489, 2799.764
2608.417, 2788.685
2610.345, 2780.630
2612.274, 2761.686
2614.202, 2745.303
2616.131, 2734.220
2618.059, 2722.843
2619.988, 2714.841
2621.916, 2707.060
2623.845, 2678.638
2625.773, 2658.701
2627.702, 2649.916
2629.630, 2634.058
2631.559, 2618.613
2633.487, 2604.299
2635.416, 2586.949
2637.344, 2573.259
2639.272, 2562.650
2641.201, 2551.212
2643.129, 2537.043
2645.058, 2521.936
2646.986, 2511.655
2648.915, 2496.090
2650.843, 2477.989
2652.772, 2465.691
2654.700, 2450.700
2656.629, 2435.727
2658.557, 2427.649
2660.486, 2411.054
2662.414, 2393.668
2664.343, 2387.569
2666.271, 2371.612
2668.199, 2353.485
2670.128, 2342.522
2672.056, 2328.425
2673.985, 2313.760
2675.913, 2300.909
2677.842, 2291.120
2679.770, 2280.145
2681.699, 2265.670
2683.627, 2251.503
2685.556, 2238.125
2687.484, 2225.461
2689.413, 2211.565
2691.341, 2197.859
2693.270, 2184.646
2695.198, 2170.411
2697.126, 2155.920
2699.055, 2142.247
2700.983, 2131.996
2702.912, 2123.268
2704.840, 2113.622
2706.769, 2097.574
2708.697, 2083.653
2710.626, 2071.583
2712.554, 2059.170
2714.483, 2048.030
2716.411, 2036.163
2718.340, 2020.496
2720.268, 2007.745
2722.197, 1996.428
2724.125, 1984.719
2726.053, 1976.120
2727.982, 1966.627
2729.910, 1954.089
2731.839, 1945.830
2733.767, 1937.091
2735.696, 1926.305
2737.624, 1913.204
2739.553, 1901.934
2741.481, 1891.160
2743.410, 1872.436
2745.338, 1861.488
2747.267, 1853.035
2749.195, 1834.532
2751.124, 1823.458
2753.052, 1815.570
2754.980, 1805.545
2756.909, 1799.195
2758.837, 1790.658
2760.766, 1777.018
2762.694, 1762.466
2764.623, 1751.815
2766.551, 1744.610
2768.480, 1732.457
2770.408, 1721.899
2772.337, 1712.466
2774.265, 1699.770
2776.194, 1686.656
2778.122, 1674.648
2780.051, 1665.862
2781.979, 1654.333
2783.907, 1642.839
2785.836, 1633.824
2787.764, 1623.328
2789.693, 1612.574
2791.621, 1602.046
2793.550, 1590.522
2795.478, 1580.518
2797.407, 1572.389
2799.335, 1565.642
2801.264, 1560.647
2803.192, 1553.899
2805.121, 1541.727
2807.049, 1529.572
2808.978, 1519.186
2810.906, 1510.617
2812.834, 1495.484
2814.763, 1483.707
2816.691, 1476.165
2818.620, 1463.242
2820.548, 1449.748
2822.477, 1438.446
2824.405, 1434.395
2826.334, 1422.834
2828.262, 1409.984
2830.191, 1401.201
2832.119, 1394.418
2834.048, 1384.705
2835.976, 1371.964
2837.905, 1364.271
2839.833, 1352.464
2841.761, 1339.546
2843.690, 1333.359
2845.618, 1328.388
2847.547, 1320.985
2849.475, 1308.217
2851.404, 1298.964
2853.332, 1290.246
2855.261, 1280.751
2857.189, 1270.078
2859.118, 1261.661
2861.046, 1253.341
2862.975, 1241.489
2864.903, 1230.234
2866.832, 1221.198
2868.760, 1214.483
2870.688, 1205.315
2872.617, 1196.934
2874.545, 1189.971
2876.474, 1184.174
2878.402, 1175.969
2880.331, 1167.143
2882.259, 1160.172
2884.188, 1146.866
2886.116, 1136.762
2888.045, 1131.855
2889.973, 1121.613
2891.902, 1113.640
2893.830, 1107.451
2895.759, 1100.165
2897.687, 1090.806
2899.615, 1080.837
2901.544, 1071.359
2903.472, 1066.480
2905.401, 1058.977
2907.329, 1049.742
2909.258, 1045.112
2911.186, 1033.738
2913.115, 1022.276
2915.043, 1016.672
2916.972, 1011.450
2918.900, 1003.373
2920.829, 993.0807
2922.757, 984.7092
2924.686, 977.7867
2926.614, 971.3262
2928.542, 964.4982
2930.471, 955.9517
2932.399, 947.7343
2934.328, 940.7337
2936.256, 935.7959
2938.185, 927.3840
2940.113, 922.3698
2942.042, 926.8562
2943.970, 917.0557
2945.899, 904.1295
2947.827, 893.5189
2949.756, 888.9454
2951.684, 882.5041
2953.613, 874.4500
2955.541, 865.8655
2957.469, 857.8218
2959.398, 851.5950
2961.326, 846.5023
2963.255, 839.8571
2965.183, 833.4415
2967.112, 826.7468
2969.040, 819.3109
2970.969, 814.6661
2972.897, 808.1041
2974.826, 800.2742
2976.754, 794.4465
2978.683, 791.9617
2980.611, 787.9092
2982.540, 779.8930
2984.468, 771.4457
2986.396, 765.3934
2988.325, 760.0160
2990.253, 752.5182
2992.182, 745.3929
2994.110, 739.3445
2996.039, 734.3824
2997.967, 730.4821
2999.896, 722.2674
3001.824, 714.7679
3003.753, 712.6756
3005.681, 713.4449
3007.610, 707.3840
3009.538, 696.3799
3011.467, 687.4713
3013.395, 684.8485
3015.323, 682.2642
3017.252, 676.4278
3019.180, 669.8298
3021.109, 663.6907
3023.037, 658.5345
3024.966, 654.8727
3026.894, 648.1065
3028.823, 641.3356
3030.751, 635.4735
3032.680, 630.1006
3034.608, 624.5536
3036.537, 619.0707
3038.465, 613.9427
3040.394, 610.5179
3042.322, 605.9629
3044.250, 600.0068
3046.179, 593.1039
3048.107, 588.2463
3050.036, 583.0320
3051.964, 577.9647
3053.893, 575.3974
3055.821, 568.7679
3057.750, 563.1820
3059.678, 559.8605
3061.607, 555.7932
3063.535, 552.2772
3065.464, 548.7844
3067.392, 544.9951
3069.321, 542.2909
3071.249, 537.7841
3073.177, 532.4628
3075.106, 527.9163
3077.034, 524.0551
3078.963, 519.6321
3080.891, 515.6616
3082.820, 514.4756
3084.748, 508.1010
3086.677, 502.5463
3088.605, 498.8091
3090.534, 491.8294
3092.462, 489.2563
3094.391, 486.1123
3096.319, 480.3429
3098.248, 478.4083
3100.176, 473.0598
3102.104, 467.1151
3104.033, 463.0287
3105.961, 458.3346
3107.890, 454.8387
3109.818, 451.7614
3111.747, 447.9302
3113.675, 443.8287
3115.604, 437.2420
3117.532, 430.9637
3119.461, 429.7901
3121.389, 425.0462
3123.318, 422.0580
3125.246, 419.8987
3127.175, 414.0108
3129.103, 411.5645
3131.031, 406.4707
3132.960, 400.2417
3134.888, 401.1972
3136.817, 397.3081
3138.745, 394.3102
3140.674, 393.2224
3142.602, 388.8545
3144.531, 386.7503
3146.459, 383.8979
3148.388, 379.1528
3150.316, 374.2650
3152.245, 370.5272
3154.173, 368.0329
3156.102, 365.7769
3158.030, 359.6238
3159.958, 357.3458
3161.887, 356.1399
3163.815, 353.4169
3165.744, 346.2631
3167.672, 344.2145
3169.601, 342.3545
3171.529, 338.0269
3173.458, 334.4047
3175.386, 331.5082
3177.315, 328.3190
3179.243, 324.2149
3181.172, 319.0688
3183.100, 314.4961
3185.029, 310.3700
3186.957, 306.6504
3188.885, 304.0414
3190.814, 299.3299
3192.742, 294.6064
3194.671, 290.9219
3196.599, 287.1719
3198.528, 283.7611
3200.456, 280.7334
3202.385, 277.7147
3204.313, 273.7276
3206.242, 268.7253
3208.170, 266.7798
3210.099, 267.2025
3212.027, 264.4357
3213.956, 261.1622
3215.884, 258.5262
3217.813, 256.0514
3219.741, 252.0759
3221.669, 249.3927
3223.598, 246.4742
3225.526, 245.2412
3227.455, 250.5974
3229.383, 244.2552
3231.312, 238.9043
3233.240, 236.0881
3235.169, 233.6751
3237.097, 230.8189
3239.026, 228.3538
3240.954, 227.7171
3242.883, 229.4984
3244.811, 228.7723
3246.740, 231.3367
3248.668, 230.0294
3250.596, 222.4826
3252.525, 220.8804
3254.453, 221.3771
3256.382, 221.5801
3258.310, 220.7766
3260.239, 219.4461
3262.167, 219.6910
3264.096, 219.7612
3266.024, 220.1732
3267.953, 222.7294
3269.881, 227.1234
3271.810, 229.6081
3273.738, 231.2760
3275.667, 234.0709
3277.595, 235.6452
3279.523, 235.1629
3281.452, 232.6883
3283.380, 228.6188
3285.309, 223.9878
3287.237, 219.6015
3289.166, 214.7039
3291.094, 209.7241
3293.023, 206.2316
3294.951, 200.1771
3296.880, 196.8267
3298.808, 195.0145
3300.737, 192.1836
3302.665, 196.0816
3304.594, 191.1617
3306.522, 185.3792
3308.450, 184.1823
3310.379, 180.9915
3312.307, 180.4872
3314.236, 179.0870
3316.164, 176.1893
3318.093, 173.4417
3320.021, 173.0409
3321.950, 172.0282
3323.878, 170.3175
3325.807, 168.5542
3327.735, 166.8105
3329.664, 165.2301
3331.592, 163.8199
3333.521, 162.0434
3335.449, 158.5077
3337.377, 158.3809
3339.306, 158.0831
3341.234, 156.8497
3343.163, 155.0750
3345.091, 153.1069
3347.020, 152.7972
3348.948, 153.1886
3350.877, 152.9352
3352.805, 150.7986
3354.734, 151.0106
3356.662, 151.1799
3358.591, 150.7556
3360.519, 150.1947
3362.448, 150.4320
3364.376, 150.4784
3366.304, 151.2868
3368.233, 152.5468
3370.161, 152.9457
3372.090, 150.1803
3374.018, 148.2243
3375.947, 147.0748
3377.875, 145.7506
3379.804, 143.3109
3381.732, 142.3487
3383.661, 139.9810
3385.589, 137.0737
3387.518, 136.1932
3389.446, 133.1632
3391.375, 130.6078
3393.303, 128.2353
3395.231, 126.2307
3397.160, 125.8399
3399.088, 124.4846
3401.017, 123.1668
3402.945, 121.6263
3404.874, 119.6760
3406.802, 118.3279
3408.731, 118.4142
3410.659, 117.3155
3412.588, 115.3980
3414.516, 114.1548
3416.445, 113.0437
3418.373, 112.2383
3420.302, 111.8374
3422.230, 111.5838
3424.158, 111.0271
3426.087, 110.4518
3428.015, 109.6788
3429.944, 108.9981
3431.872, 108.0362
3433.801, 105.3258
3435.729, 106.3880
3437.658, 105.6995
3439.586, 104.3116
3441.515, 103.7304
3443.443, 103.0910
3445.372, 100.4501
3447.300, 100.4489
3449.229, 100.7112
3451.157, 99.02135
3453.085, 99.34740
3455.014, 98.41859
3456.942, 96.30047
##END=



