##NAMES=Ganomalite
##RRUFFID=R050387
##IDEAL CHEMISTRY=Pb_9_Ca_6_(Si_2_O_7_)_4_(SiO_4_)O
##LOCALITY=Sells, Pima County, Arizona, USA
##OWNER=RRUFF
##SOURCE=University of Arizona Mineral Museum
##DESCRIPTION=Yellowish-red massive
##STATUS=The identification of this mineral has been confirmed by single-crystal X-ray diffraction
##URL=https://www.rruff.net/odr/rruff_sample/R050387
##DIFFRACTION SAMPLE DESCRIPTION=Single crystal, powder profile is calculated
##CELL PARAMETERS=a: 9.854 b: 9.854 c: 10.223 alpha: 90 beta: 90 gamma: 120 volume: 859.6 crystal system: hexagonal
##FILETYPE=Raman Processed
##RAMAN WAVELENGTH=532

100.8186, 5524.509
102.7471, 6649.291
104.6755, 7810.713
106.6040, 9040.219
108.5325, 10249.63
110.4609, 11390.50
112.3894, 12433.38
114.3179, 13563.34
116.2463, 14761.04
118.1748, 16057.35
120.1033, 17486.80
122.0317, 19129.56
123.9602, 20845.42
125.8887, 22115.06
127.8171, 22604.14
129.7456, 23225.00
131.6741, 24090.56
133.6025, 25127.48
135.5310, 26154.49
137.4595, 27225.82
139.3879, 28267.90
141.3164, 29302.28
143.2449, 30453.41
145.1733, 31298.45
147.1018, 31937.45
149.0303, 32295.31
150.9587, 32045.50
152.8872, 31012.75
154.8157, 29488.17
156.7441, 27722.63
158.6726, 25332.15
160.6011, 23078.47
162.5295, 21025.06
164.4580, 19160.34
166.3865, 17531.45
168.3149, 16171.18
170.2434, 15020.04
172.1719, 14066.93
174.1003, 13323.33
176.0288, 12715.01
177.9573, 12246.21
179.8857, 11919.76
181.8142, 11622.32
183.7427, 11350.83
185.6711, 11093.19
187.5996, 10823.20
189.5281, 10533.54
191.4565, 10242.47
193.3850, 9955.108
195.3135, 9667.749
197.2419, 9396.102
199.1704, 9153.736
201.0989, 8926.429
203.0273, 8684.387
204.9558, 8399.753
206.8843, 8121.701
208.8127, 7876.706
210.7412, 7686.832
212.6697, 7486.716
214.5981, 7257.366
216.5266, 7010.823
218.4551, 6782.414
220.3835, 6578.862
222.3120, 6389.885
224.2405, 6211.792
226.1689, 6039.341
228.0974, 5888.452
230.0259, 5774.773
231.9543, 5691.620
233.8828, 5598.499
235.8113, 5471.533
237.7397, 5353.389
239.6682, 5273.629
241.5967, 5239.521
243.5251, 5211.945
245.4536, 5180.211
247.3821, 5145.346
249.3105, 5116.680
251.2390, 5089.588
253.1675, 5071.273
255.0959, 5066.276
257.0244, 5083.548
258.9529, 5094.242
260.8813, 5088.221
262.8098, 5069.406
264.7383, 5061.413
266.6667, 5076.083
268.5952, 5092.394
270.5237, 5097.741
272.4521, 5075.483
274.3806, 5065.484
276.3091, 5076.619
278.2375, 5103.305
280.1660, 5127.232
282.0945, 5140.983
284.0229, 5156.464
285.9514, 5181.260
287.8799, 5229.355
289.8083, 5262.581
291.7368, 5268.683
293.6653, 5256.878
295.5938, 5246.999
297.5222, 5237.119
299.4507, 5231.811
301.3792, 5237.566
303.3076, 5260.271
305.2361, 5271.950
307.1646, 5267.148
309.0930, 5249.542
311.0215, 5222.029
312.9500, 5173.088
314.8784, 5126.109
316.8069, 5087.176
318.7354, 5055.325
320.6638, 5037.503
322.5923, 5044.902
324.5208, 5064.519
326.4492, 5078.621
328.3777, 5084.608
330.3062, 5087.118
332.2346, 5085.040
334.1631, 5078.773
336.0915, 5073.533
338.0200, 5073.083
339.9485, 5072.794
341.8769, 5067.300
343.8054, 5055.415
345.7339, 5040.894
347.6623, 5022.838
349.5908, 5001.667
351.5193, 4981.695
353.4477, 4968.337
355.3762, 4952.690
357.3047, 4926.230
359.2331, 4886.803
361.1616, 4847.925
363.0901, 4817.137
365.0185, 4791.479
366.9470, 4756.343
368.8755, 4704.457
370.8039, 4650.419
372.7324, 4598.459
374.6609, 4547.378
376.5893, 4504.898
378.5178, 4482.946
380.4463, 4468.136
382.3747, 4437.865
384.3032, 4376.072
386.2317, 4316.128
388.1601, 4268.698
390.0886, 4232.143
392.0171, 4194.595
393.9455, 4158.113
395.8740, 4118.547
397.8025, 4070.039
399.7309, 4005.781
401.6594, 3947.982
403.5879, 3908.544
405.5163, 3881.004
407.4448, 3845.997
409.3733, 3794.187
411.3017, 3741.634
413.2302, 3693.309
415.1587, 3648.008
417.0871, 3613.660
419.0156, 3600.695
420.9441, 3597.431
422.8725, 3588.972
424.8010, 3572.739
426.7295, 3552.677
428.6579, 3528.045
430.5864, 3498.890
432.5149, 3467.587
434.4433, 3428.993
436.3718, 3392.081
438.3003, 3362.950
440.2287, 3356.160
442.1572, 3338.602
444.0857, 3296.138
446.0141, 3245.102
447.9426, 3214.694
449.8711, 3226.359
451.7995, 3234.287
453.7280, 3221.679
455.6565, 3183.601
457.5849, 3145.515
459.5134, 3099.042
461.4419, 3058.209
463.3703, 3033.024
465.2988, 3031.984
467.2273, 3029.263
469.1557, 3020.663
471.0842, 3006.839
473.0127, 2990.558
474.9411, 2969.589
476.8696, 2948.818
478.7981, 2931.411
480.7265, 2918.444
482.6550, 2900.494
484.5835, 2874.779
486.5119, 2845.753
488.4404, 2816.122
490.3689, 2783.715
492.2973, 2757.725
494.2258, 2745.707
496.1543, 2742.794
498.0827, 2734.071
500.0112, 2714.385
501.9397, 2693.903
503.8681, 2679.442
505.7966, 2669.883
507.7251, 2649.012
509.6535, 2603.874
511.5820, 2552.274
513.5105, 2506.338
515.4390, 2471.514
517.3674, 2435.719
519.2959, 2394.532
521.2244, 2353.341
523.1528, 2320.297
525.0813, 2295.712
527.0098, 2280.645
528.9382, 2276.822
530.8667, 2285.248
532.7952, 2294.303
534.7236, 2304.612
536.6521, 2315.285
538.5806, 2323.749
540.5090, 2327.862
542.4375, 2342.233
544.3660, 2382.208
546.2944, 2429.343
548.2229, 2457.074
550.1514, 2469.651
552.0798, 2460.175
554.0083, 2417.805
555.9368, 2350.149
557.8652, 2274.473
559.7937, 2182.470
561.7222, 2090.388
563.6506, 2002.933
565.5791, 1920.728
567.5076, 1843.873
569.4360, 1774.252
571.3645, 1709.785
573.2930, 1647.505
575.2214, 1584.566
577.1499, 1532.240
579.0783, 1493.625
581.0068, 1465.201
582.9352, 1440.844
584.8637, 1422.156
586.7922, 1403.343
588.7206, 1380.464
590.6491, 1354.566
592.5776, 1334.860
594.5060, 1324.181
596.4345, 1316.966
598.3630, 1311.996
600.2914, 1309.296
602.2199, 1307.894
604.1484, 1310.345
606.0768, 1311.970
608.0053, 1309.202
609.9338, 1297.968
611.8622, 1290.080
613.7907, 1288.311
615.7192, 1289.261
617.6476, 1288.933
619.5761, 1288.673
621.5046, 1283.930
623.4330, 1271.554
625.3615, 1253.549
627.2900, 1236.436
629.2184, 1223.603
631.1469, 1208.011
633.0754, 1183.469
635.0038, 1152.687
636.9323, 1130.120
638.8608, 1123.103
640.7892, 1118.976
642.7177, 1111.884
644.6462, 1101.370
646.5746, 1088.741
648.5031, 1071.212
650.4316, 1053.618
652.3600, 1039.432
654.2885, 1028.360
656.2170, 1021.190
658.1454, 1020.903
660.0739, 1023.528
662.0024, 1024.358
663.9308, 1024.141
665.8593, 1021.215
667.7878, 1013.559
669.7162, 1003.196
671.6447, 994.0396
673.5732, 985.9217
675.5016, 979.5338
677.4301, 975.2966
679.3586, 973.0089
681.2870, 970.8448
683.2155, 971.3990
685.1440, 969.5667
687.0724, 960.6024
689.0009, 946.2083
690.9294, 936.5278
692.8578, 937.4544
694.7863, 939.5110
696.7148, 937.2082
698.6432, 927.5549
700.5717, 923.9161
702.5002, 932.8209
704.4286, 942.9261
706.3571, 944.4532
708.2856, 936.2524
710.2141, 930.8420
712.1425, 931.6921
714.0710, 936.1734
715.9995, 942.3030
717.9279, 952.3414
719.8564, 960.8839
721.7849, 967.6607
723.7133, 972.7701
725.6418, 975.8419
727.5703, 974.7194
729.4987, 976.9662
731.4272, 985.5258
733.3557, 998.3039
735.2841, 1010.876
737.2126, 1023.565
739.1411, 1035.542
741.0695, 1043.633
742.9980, 1051.222
744.9265, 1066.178
746.8549, 1093.938
748.7834, 1120.894
750.7119, 1140.290
752.6403, 1153.655
754.5688, 1174.273
756.4973, 1203.077
758.4257, 1237.042
760.3542, 1279.284
762.2827, 1327.099
764.2111, 1369.222
766.1396, 1401.090
768.0681, 1431.357
769.9965, 1464.232
771.9250, 1500.261
773.8535, 1532.773
775.7819, 1563.138
777.7104, 1589.666
779.6389, 1604.759
781.5673, 1611.216
783.4958, 1634.775
785.4243, 1691.980
787.3527, 1753.880
789.2812, 1805.479
791.2097, 1843.372
793.1381, 1884.807
795.0666, 1928.208
796.9951, 1975.828
798.9235, 2031.508
800.8520, 2094.816
802.7805, 2156.611
804.7089, 2220.655
806.6374, 2277.864
808.5659, 2324.207
810.4943, 2360.883
812.4228, 2381.006
814.3513, 2381.308
816.2797, 2369.301
818.2082, 2349.512
820.1367, 2322.440
822.0651, 2282.605
823.9936, 2215.667
825.9221, 2147.540
827.8505, 2095.488
829.7790, 2065.050
831.7075, 2032.262
833.6359, 1993.865
835.5644, 1955.168
837.4929, 1916.739
839.4213, 1877.468
841.3498, 1853.318
843.2783, 1858.419
845.2067, 1868.904
847.1352, 1867.567
849.0637, 1850.539
850.9921, 1843.258
852.9206, 1853.016
854.8491, 1867.841
856.7775, 1879.714
858.7060, 1887.602
860.6345, 1900.900
862.5629, 1923.811
864.4914, 1948.826
866.4199, 1971.604
868.3483, 1992.111
870.2768, 2012.889
872.2053, 2032.955
874.1337, 2055.009
876.0622, 2082.451
877.9907, 2116.841
879.9191, 2144.632
881.8476, 2169.268
883.7761, 2184.268
885.7045, 2183.873
887.6330, 2169.976
889.5615, 2152.654
891.4899, 2133.512
893.4184, 2110.354
895.3469, 2081.195
897.2753, 2046.074
899.2038, 2012.208
901.1323, 1977.457
903.0607, 1946.083
904.9892, 1919.995
906.9177, 1898.432
908.8461, 1879.167
910.7746, 1861.950
912.7031, 1846.547
914.6315, 1834.845
916.5600, 1825.138
918.4885, 1809.537
920.4169, 1788.820
922.3454, 1761.622
924.2739, 1724.444
926.2023, 1681.160
928.1308, 1640.716
930.0593, 1605.043
931.9877, 1568.122
933.9162, 1526.116
935.8447, 1482.164
937.7731, 1440.795
939.7016, 1403.567
941.6301, 1366.096
943.5585, 1322.067
945.4870, 1279.895
947.4155, 1252.083
949.3439, 1240.839
951.2724, 1231.277
953.2009, 1220.204
955.1293, 1210.519
957.0578, 1205.409
958.9863, 1206.051
960.9147, 1203.383
962.8432, 1193.686
964.7717, 1182.334
966.7001, 1173.712
968.6286, 1169.226
970.5571, 1156.521
972.4855, 1129.546
974.4140, 1100.269
976.3425, 1074.074
978.2709, 1050.297
980.1994, 1026.675
982.1279, 1002.301
984.0563, 979.2986
985.9848, 957.6765
987.9133, 937.8376
989.8417, 921.5087
991.7702, 913.9858
993.6987, 903.4849
995.6271, 884.8354
997.5556, 863.1437
999.4841, 847.2106
1001.413, 837.5475
1003.341, 831.1624
1005.269, 831.5256
1007.198, 832.1234
1009.126, 824.9789
1011.055, 804.9677
1012.983, 794.1399
1014.912, 804.1633
1016.840, 814.8696
1018.769, 810.6218
1020.697, 788.5021
1022.626, 775.1197
1024.554, 776.7178
1026.483, 780.5685
1028.411, 782.5186
1030.340, 782.2800
1032.268, 777.2907
1034.197, 762.9803
1036.125, 751.3645
1038.053, 746.9426
1039.982, 747.3268
1041.910, 747.1081
1043.839, 746.0574
1045.767, 744.6672
1047.696, 744.3842
1049.624, 743.0504
1051.553, 737.7560
1053.481, 728.3738
1055.410, 718.8721
1057.338, 707.9077
1059.267, 699.1819
1061.195, 695.7989
1063.124, 698.0500
1065.052, 698.0892
1066.980, 697.8387
1068.909, 692.6876
1070.837, 676.8898
1072.766, 654.1828
1074.694, 639.8929
1076.623, 637.5345
1078.551, 635.8450
1080.480, 631.9197
1082.408, 627.3639
1084.337, 624.5352
1086.265, 624.0829
1088.193, 621.6876
1090.122, 615.0474
1092.050, 607.2952
1093.979, 600.0797
1095.907, 593.4649
1097.836, 586.8610
1099.764, 578.4778
1101.693, 572.0261
1103.621, 571.3522
1105.550, 573.6874
1107.478, 569.7179
1109.407, 556.0080
1111.335, 545.1780
1113.264, 543.0893
1115.192, 544.7849
1117.120, 544.8442
1119.049, 542.5709
1120.977, 542.3264
1122.906, 548.7950
1124.834, 553.6043
1126.763, 550.6072
1128.691, 539.8135
1130.620, 533.6498
1132.548, 536.3304
1134.477, 537.9910
1136.405, 533.0629
1138.334, 526.3896
1140.262, 528.1382
1142.191, 541.6611
1144.119, 548.4716
1146.047, 537.5317
1147.976, 523.3408
1149.904, 516.0203
1151.833, 516.1283
1153.761, 518.2639
1155.690, 524.0005
1157.618, 529.7850
1159.547, 536.1866
1161.475, 541.9119
1163.404, 541.7757
1165.332, 532.1298
1167.261, 524.7837
1169.189, 523.5517
1171.118, 524.3280
1173.046, 523.1100
1174.974, 519.9457
1176.903, 517.5468
1178.831, 515.9209
1180.760, 515.8575
1182.688, 517.8171
1184.617, 521.6388
1186.545, 526.6844
1188.474, 536.9641
1190.402, 542.1963
1192.331, 537.9802
1194.259, 530.1580
1196.188, 523.6008
1198.116, 517.7018
1200.045, 517.2866
1201.973, 528.8088
1203.901, 538.9607
1205.830, 540.1177
1207.758, 535.6895
1209.687, 533.4224
1211.615, 534.3157
1213.544, 535.3026
1215.472, 534.9013
1217.401, 534.7505
1219.329, 537.1509
1221.258, 543.5343
1223.186, 544.7560
1225.115, 531.0379
1227.043, 523.3762
1228.972, 533.9351
1230.900, 555.1815
1232.828, 566.5826
1234.757, 564.6689
1236.685, 563.2421
1238.614, 567.0259
1240.542, 569.6653
1242.471, 564.2485
1244.399, 552.6147
1246.328, 545.8181
1248.256, 547.1536
1250.185, 549.1560
1252.113, 548.9377
1254.042, 547.8682
1255.970, 547.6932
1257.899, 548.2683
1259.827, 550.2435
1261.755, 555.5953
1263.684, 560.1752
1265.612, 561.6118
1267.541, 560.3456
1269.469, 558.8781
1271.398, 556.9054
1273.326, 555.2711
1275.255, 553.9492
1277.183, 553.2369
1279.112, 553.5049
1281.040, 554.7325
1282.969, 556.7098
1284.897, 559.9399
1286.826, 563.1016
1288.754, 565.9079
1290.682, 568.2187
1292.611, 569.2596
1294.539, 568.1801
1296.468, 569.4943
1298.396, 577.6029
1300.325, 584.3044
1302.253, 584.8427
1304.182, 580.5200
1306.110, 577.6431
1308.039, 573.4387
1309.967, 574.6581
1311.896, 589.0596
1313.824, 603.2531
1315.753, 604.4913
1317.681, 593.6569
1319.609, 587.0869
1321.538, 587.3542
1323.466, 587.6710
1325.395, 584.7851
1327.323, 581.3848
1329.252, 580.1801
1331.180, 581.1973
1333.109, 583.7369
1335.037, 588.8889
1336.966, 593.8683
1338.894, 599.3612
1340.823, 603.4900
1342.751, 601.5139
1344.680, 588.8616
1346.608, 583.2642
1348.536, 592.8034
1350.465, 601.7692
1352.393, 601.2747
1354.322, 594.1666
1356.250, 590.6564
1358.179, 591.8622
1360.107, 594.4155
1362.036, 602.1546
1363.964, 607.5367
1365.893, 601.9798
1367.821, 589.0243
1369.750, 585.5666
1371.678, 596.1386
1373.607, 603.7891
1375.535, 601.7924
1377.464, 596.5825
1379.392, 592.3258
1381.320, 589.0389
1383.249, 586.8407
1385.177, 585.5123
1387.106, 585.8562
1389.034, 588.0688
1390.963, 592.1208
1392.891, 599.4380
1394.820, 610.8526
1396.748, 616.5028
1398.677, 610.5933
1400.605, 606.3724
1402.534, 609.0251
1404.462, 612.6965
1406.391, 609.9802
1408.319, 599.5205
1410.247, 593.4081
1412.176, 595.0712
1414.104, 596.3779
1416.033, 595.5303
1417.961, 593.2859
1419.890, 589.4303
1421.818, 583.9606
1423.747, 582.9354
1425.675, 590.6138
1427.604, 596.1871
1429.532, 591.8041
1431.461, 585.6171
1433.389, 589.0788
1435.318, 601.5189
1437.246, 604.5012
1439.174, 588.8731
1441.103, 576.7594
1443.031, 580.2342
1444.960, 589.3680
1446.888, 594.1697
1448.817, 594.5084
1450.745, 592.8777
1452.674, 587.6148
1454.602, 583.4945
1456.531, 581.8241
1458.459, 581.9956
1460.388, 584.0883
1462.316, 588.7334
1464.245, 590.5723
1466.173, 587.6495
1468.101, 584.4305
1470.030, 579.7276
1471.958, 576.3389
1473.887, 578.0233
1475.815, 584.9241
1477.744, 589.6696
1479.672, 595.7526
1481.601, 594.7956
1483.529, 576.2546
1485.458, 557.5374
1487.386, 556.4631
1489.315, 570.2455
1491.243, 577.0607
1493.172, 573.7192
1495.100, 571.1183
1497.028, 571.5238
1498.957, 573.8187
1500.885, 578.2388
1502.814, 583.8796
1504.742, 588.8970
1506.671, 594.0946
1508.599, 594.5742
1510.528, 583.2288
1512.456, 574.4484
1514.385, 579.6956
1516.313, 592.4986
1518.242, 598.4320
1520.170, 596.2374
1522.099, 593.7518
1524.027, 591.2071
1525.955, 589.9083
1527.884, 590.9626
1529.812, 593.1988
1531.741, 595.1373
1533.669, 596.9764
1535.598, 596.9814
1537.526, 591.8202
1539.455, 589.6206
1541.383, 597.0598
1543.312, 604.9680
1545.240, 601.6297
1547.169, 586.5558
1549.097, 580.6310
1551.026, 592.5436
1552.954, 600.9053
1554.882, 601.9163
1556.811, 600.3181
1558.739, 598.2427
1560.668, 596.1470
1562.596, 596.1044
1564.525, 600.8858
1566.453, 602.5158
1568.382, 598.1503
1570.310, 593.9604
1572.239, 592.4517
1574.167, 592.9522
1576.096, 594.5720
1578.024, 597.5097
1579.953, 600.2603
1581.881, 604.3762
1583.809, 605.9443
1585.738, 599.7805
1587.666, 593.7867
1589.595, 597.6857
1591.523, 609.4664
1593.452, 614.0921
1595.380, 607.6140
1597.309, 606.0063
1599.237, 619.5848
1601.166, 631.3282
1603.094, 629.0009
1605.023, 619.5812
1606.951, 616.2434
1608.880, 619.2231
1610.808, 623.0950
1612.736, 629.7405
1614.665, 632.3877
1616.593, 623.2499
1618.522, 612.8777
1620.450, 612.9669
1622.379, 620.5399
1624.307, 622.8050
1626.236, 617.5055
1628.164, 613.8177
1630.093, 613.6380
1632.021, 615.9573
1633.950, 623.5291
1635.878, 631.7057
1637.807, 630.7838
1639.735, 620.9689
1641.663, 621.2467
1643.592, 640.8063
1645.520, 653.6671
1647.449, 642.8492
1649.377, 629.6136
1651.306, 632.1198
1653.234, 644.6537
1655.163, 648.9901
1657.091, 643.1595
1659.020, 638.8854
1660.948, 639.5275
1662.877, 639.9115
1664.805, 635.0356
1666.734, 630.7108
1668.662, 634.9714
1670.590, 646.3491
1672.519, 653.4615
1674.447, 655.3082
1676.376, 653.9858
1678.304, 643.9532
1680.233, 638.5894
1682.161, 649.4581
1684.090, 666.7911
1686.018, 674.8085
1687.947, 673.5618
1689.875, 668.1826
1691.804, 655.3930
1693.732, 647.9007
1695.661, 651.1407
1697.589, 659.0763
1699.517, 673.5692
1701.446, 688.5581
1703.374, 685.5677
1705.303, 662.4927
1707.231, 653.9653
1709.160, 672.6918
1711.088, 686.8683
1713.017, 680.9117
1714.945, 671.7479
1716.874, 672.3009
1718.802, 678.6472
1720.731, 678.2772
1722.659, 670.0135
1724.588, 665.7330
1726.516, 667.1354
1728.444, 672.2706
1730.373, 686.3114
1732.301, 698.2664
1734.230, 697.5242
1736.158, 688.3250
1738.087, 683.5357
1740.015, 683.7637
1741.944, 684.6080
1743.872, 683.7720
1745.801, 687.0178
1747.729, 702.4844
1749.658, 717.1555
1751.586, 719.8519
1753.515, 714.1439
1755.443, 709.4191
1757.371, 705.8625
1759.300, 703.3713
1761.228, 702.3719
1763.157, 701.4782
1765.085, 699.1637
1767.014, 697.8282
1768.942, 700.7413
1770.871, 705.4738
1772.799, 706.3766
1774.728, 703.2640
1776.656, 699.6676
1778.585, 694.6392
1780.513, 692.8042
1782.442, 698.2457
1784.370, 704.7266
1786.298, 710.0433
1788.227, 712.5747
1790.155, 706.4515
1792.084, 692.3246
1794.012, 688.2604
1795.941, 699.5526
1797.869, 709.6969
1799.798, 713.9908
1801.726, 716.2261
1803.655, 719.5717
1805.583, 721.6293
1807.512, 717.7454
1809.440, 708.9009
1811.369, 701.8806
1813.297, 696.3875
1815.225, 694.5566
1817.154, 699.5910
1819.082, 704.6127
1821.011, 705.1119
1822.939, 705.6675
1824.868, 713.0495
1826.796, 724.8093
1828.725, 729.5668
1830.653, 724.9859
1832.582, 723.8674
1834.510, 732.2073
1836.439, 736.3491
1838.367, 727.4025
1840.296, 719.4673
1842.224, 726.9955
1844.152, 740.3830
1846.081, 737.6370
1848.009, 716.2874
1849.938, 708.7133
1851.866, 728.0425
1853.795, 740.4419
1855.723, 741.3264
1857.652, 738.9477
1859.580, 734.7485
1861.509, 730.2719
1863.437, 726.1190
1865.366, 722.9632
1867.294, 724.9286
1869.223, 734.2179
1871.151, 739.1513
1873.079, 737.0705
1875.008, 734.6326
1876.936, 730.9382
1878.865, 730.0858
1880.793, 738.3329
1882.722, 748.3293
1884.650, 746.0817
1886.579, 734.0134
1888.507, 733.5974
1890.436, 748.7036
1892.364, 756.7357
1894.293, 749.9041
1896.221, 743.8297
1898.150, 745.8546
1900.078, 749.4819
1902.006, 750.0685
1903.935, 748.9778
1905.863, 748.2737
1907.792, 747.9920
1909.720, 747.7794
1911.649, 746.8371
1913.577, 749.3433
1915.506, 761.1405
1917.434, 768.8493
1919.363, 764.4787
1921.291, 756.7650
1923.220, 751.1396
1925.148, 748.0911
1927.077, 749.9322
1929.005, 757.2777
1930.933, 760.5034
1932.862, 756.9501
1934.790, 754.1537
1936.719, 749.0532
1938.647, 749.1738
1940.576, 764.5153
1942.504, 778.5755
1944.433, 774.4149
1946.361, 760.3792
1948.290, 755.0548
1950.218, 759.0438
1952.147, 762.1847
1954.075, 765.5280
1956.004, 763.9675
1957.932, 750.3763
1959.860, 743.0164
1961.789, 756.0477
1963.717, 768.8651
1965.646, 763.1789
1967.574, 751.2558
1969.503, 755.2492
1971.431, 771.3771
1973.360, 777.8241
1975.288, 772.5358
1977.217, 765.7827
1979.145, 755.3307
1981.074, 751.8049
1983.002, 766.7705
1984.931, 779.8749
1986.859, 775.1749
1988.787, 765.6318
1990.716, 768.9316
1992.644, 781.3626
1994.573, 786.9827
1996.501, 784.3859
1998.430, 782.1540
2000.358, 779.7768
2002.287, 778.6064
2004.215, 780.6627
2006.144, 781.2316
2008.072, 775.7385
2010.001, 770.8078
2011.929, 772.7754
2013.858, 778.5382
2015.786, 781.6159
2017.714, 782.5628
2019.643, 788.2504
2021.571, 800.4604
2023.500, 804.0171
2025.428, 792.7701
2027.357, 784.1008
2029.285, 785.6193
2031.214, 787.9774
2033.142, 785.2779
2035.071, 781.5864
2036.999, 781.7028
2038.928, 783.7938
2040.856, 782.7339
2042.785, 778.3556
2044.713, 776.7625
2046.641, 778.6628
2048.570, 781.9476
2050.499, 786.7502
2052.427, 792.8704
2054.355, 804.3245
2056.284, 812.2032
2058.212, 809.6736
2060.141, 802.8905
2062.069, 796.4709
2063.998, 791.4081
2065.926, 791.4705
2067.854, 796.3057
2069.783, 801.5353
2071.711, 807.2377
2073.640, 811.4561
2075.568, 814.6385
2077.497, 814.7122
2079.425, 808.1387
2081.354, 802.1908
2083.282, 802.6653
2085.211, 803.5604
2087.139, 796.4965
2089.068, 786.4031
2090.996, 785.2314
2092.925, 792.4404
2094.853, 795.8082
2096.781, 792.9091
2098.710, 793.3013
2100.638, 799.5834
2102.567, 804.2168
2104.495, 804.7319
2106.424, 805.3960
2108.352, 807.1989
2110.281, 810.2960
2112.209, 817.6721
2114.138, 824.2538
2116.066, 821.2681
2117.995, 812.2341
2119.923, 808.0701
2121.852, 808.9156
2123.780, 810.7833
2125.708, 813.6171
2127.637, 817.2305
2129.565, 824.2537
2131.494, 828.1456
2133.422, 824.7655
2135.351, 821.6508
2137.279, 822.0782
2139.208, 824.4261
2141.136, 828.5204
2143.065, 832.8050
2144.993, 835.0021
2146.922, 835.0189
2148.850, 831.2310
2150.779, 823.7719
2152.707, 822.1720
2154.635, 829.0714
2156.564, 831.4834
2158.492, 822.8688
2160.421, 818.6847
2162.349, 830.0693
2164.278, 838.3578
2166.206, 829.0437
2168.135, 818.9823
2170.063, 824.4700
2171.992, 836.8797
2173.920, 842.9306
2175.849, 843.9888
2177.777, 845.1882
2179.706, 846.5504
2181.634, 853.5428
2183.563, 868.2196
2185.491, 873.9733
2187.419, 865.7391
2189.348, 857.3035
2191.276, 850.3871
2193.205, 847.1550
2195.133, 850.0516
2197.062, 855.1740
2198.990, 862.9521
2200.919, 869.2712
2202.847, 868.4665
2204.776, 863.3492
2206.704, 859.1336
2208.633, 855.8876
2210.561, 855.2905
2212.490, 857.4028
2214.418, 857.8421
2216.346, 855.6497
2218.275, 855.8148
2220.203, 859.3339
2222.132, 865.0972
2224.060, 877.7384
2225.989, 885.1777
2227.917, 878.4683
2229.846, 869.8168
2231.774, 866.2418
2233.703, 865.5341
2235.631, 866.8304
2237.560, 868.4319
2239.488, 865.7783
2241.417, 860.1879
2243.345, 859.9900
2245.273, 865.0749
2247.202, 870.5244
2249.130, 876.5364
2251.059, 878.3009
2252.987, 872.9864
2254.916, 870.2193
2256.844, 873.2123
2258.773, 877.1828
2260.701, 884.5543
2262.630, 887.3837
2264.558, 875.6560
2266.487, 864.6251
2268.415, 870.8080
2270.344, 881.1285
2272.272, 875.4501
2274.200, 862.7359
2276.129, 865.6217
2278.057, 879.7983
2279.986, 886.1763
2281.914, 884.2864
2283.843, 885.2067
2285.771, 891.6255
2287.700, 892.0693
2289.628, 878.7211
2291.557, 871.7300
2293.485, 877.6553
2295.414, 882.5461
2297.342, 883.0314
2299.271, 882.5656
2301.199, 881.0541
2303.127, 880.5059
2305.056, 883.4122
2306.984, 886.5621
2308.913, 886.1905
2310.841, 884.4520
2312.770, 885.8054
2314.698, 888.6321
2316.627, 886.9188
2318.555, 881.1247
2320.484, 877.1735
2322.412, 874.7093
2324.341, 878.5508
2326.269, 890.7150
2328.198, 895.7360
2330.126, 889.8026
2332.054, 883.9870
2333.983, 879.1672
2335.911, 878.1926
2337.840, 886.4557
2339.768, 892.4550
2341.697, 890.7004
2343.625, 886.7245
2345.554, 879.3276
2347.482, 876.0117
2349.411, 890.1474
2351.339, 906.5231
2353.268, 901.7107
2355.196, 887.1854
2357.125, 885.2913
2359.053, 892.1071
2360.981, 894.2158
2362.910, 891.7191
2364.838, 887.8792
2366.767, 882.1395
2368.695, 878.6005
2370.624, 876.7641
2372.552, 880.7396
2374.481, 894.2462
2376.409, 900.9211
2378.338, 895.5710
2380.266, 890.6955
2382.195, 889.7175
2384.123, 889.7869
2386.052, 890.6657
2387.980, 890.9293
2389.908, 888.9992
2391.837, 887.1803
2393.765, 886.3103
2395.694, 887.1065
2397.622, 891.8617
2399.551, 897.4960
2401.479, 902.0112
2403.408, 903.5533
2405.336, 893.9504
2407.265, 879.9273
2409.193, 884.3295
2411.122, 904.0234
2413.050, 915.0024
2414.979, 917.1724
2416.907, 907.2814
2418.835, 882.3555
2420.764, 879.7922
2422.692, 906.0303
2424.621, 918.6653
2426.549, 907.0977
2428.478, 903.0517
2430.406, 923.1983
2432.335, 930.9651
2434.263, 905.0449
2436.192, 888.5406
2438.120, 900.6780
2440.049, 911.7695
2441.977, 911.0411
2443.906, 907.8589
2445.834, 903.6483
2447.762, 902.9019
2449.691, 913.2372
2451.619, 923.6635
2453.548, 923.3774
2455.476, 918.2149
2457.405, 915.2773
2459.333, 912.2415
2461.262, 901.0506
2463.190, 888.6360
2465.119, 894.9542
2467.047, 912.9446
2468.976, 923.0059
2470.904, 925.3468
2472.833, 922.0835
2474.761, 913.2967
2476.689, 907.7008
2478.618, 904.8658
2480.546, 909.3282
2482.475, 922.2446
2484.403, 932.1341
2486.332, 938.7092
2488.260, 935.7155
2490.189, 917.1061
2492.117, 907.9562
2494.046, 921.6450
2495.974, 929.0725
2497.903, 920.8131
2499.831, 916.2818
2501.760, 918.4490
2503.688, 925.2777
2505.616, 941.1835
2507.545, 952.0941
2509.473, 948.4966
2511.402, 943.2548
2513.330, 940.2626
2515.259, 940.3342
2517.187, 948.4811
2519.116, 954.3322
2521.044, 947.9227
2522.973, 938.9975
2524.901, 933.9830
2526.830, 931.9028
2528.758, 933.8995
2530.687, 936.4070
2532.615, 933.9454
2534.543, 929.7622
2536.472, 928.0881
2538.400, 928.9926
2540.329, 934.2644
2542.257, 941.5341
2544.186, 944.8806
2546.114, 945.4097
2548.043, 947.9643
2549.971, 950.7904
2551.900, 942.3190
2553.828, 924.6610
2555.757, 919.6309
2557.685, 926.9777
2559.614, 943.2134
2561.542, 966.6920
2563.470, 967.8488
2565.399, 944.5343
2567.327, 938.2574
2569.256, 956.2332
2571.184, 968.1869
2573.113, 976.9611
2575.041, 964.0236
2576.970, 922.1324
2578.898, 903.0688
2580.827, 915.6688
2582.755, 929.1486
2584.684, 939.3215
2586.612, 948.9763
2588.541, 963.2532
2590.469, 967.3757
2592.397, 953.1260
2594.326, 948.0349
2596.254, 962.1165
2598.183, 966.8433
2600.111, 950.0248
2602.040, 935.2808
2603.968, 924.5320
2605.897, 924.8589
2607.825, 949.4409
2609.754, 966.6917
2611.682, 967.2571
2613.611, 962.8303
2615.539, 953.8043
2617.468, 947.0848
2619.396, 943.9308
2621.324, 946.4390
2623.253, 967.2388
2625.181, 977.2764
2627.110, 946.8168
2629.038, 927.1925
2630.967, 950.5520
2632.895, 974.2805
2634.824, 974.5819
2636.752, 967.8568
2638.681, 957.9746
2640.609, 951.7654
2642.538, 958.6899
2644.466, 964.1957
2646.395, 953.6027
2648.323, 946.3681
2650.251, 961.6829
2652.180, 977.5819
2654.108, 977.8607
2656.037, 971.8556
2657.965, 963.5249
2659.894, 956.1420
2661.822, 949.8566
2663.751, 948.7952
2665.679, 963.0185
2667.608, 975.9105
2669.536, 967.6683
2671.465, 957.0197
2673.393, 961.6281
2675.322, 972.3541
2677.250, 985.1783
2679.178, 994.4427
2681.107, 993.1960
2683.035, 988.1751
2684.964, 985.9075
2686.892, 983.3600
2688.821, 974.7061
2690.749, 967.0827
2692.678, 975.1331
2694.606, 980.3220
2696.535, 953.9509
2698.463, 927.9001
2700.392, 940.0978
2702.320, 964.2701
2704.249, 977.0932
2706.177, 981.1888
2708.105, 974.2636
2710.034, 965.3968
2711.962, 959.4996
2713.891, 960.5087
2715.819, 981.7123
2717.748, 1001.879
2719.676, 993.2325
2721.605, 978.0278
2723.533, 977.3160
2725.462, 982.9401
2727.390, 992.8713
2729.319, 999.4139
2731.247, 991.8580
2733.176, 981.4694
2735.104, 977.2799
2737.032, 977.1709
2738.961, 981.5112
2740.889, 986.3392
2742.818, 989.0361
2744.746, 990.1209
2746.675, 989.0044
2748.603, 987.7022
2750.532, 989.2680
2752.460, 989.5483
2754.389, 981.1615
2756.317, 976.7214
2758.246, 990.9219
2760.174, 1004.264
2762.103, 1001.440
2764.031, 995.8354
2765.959, 997.0447
2767.888, 996.3554
2769.816, 985.4592
2771.745, 977.2696
2773.673, 981.9546
2775.602, 987.2656
2777.530, 984.4500
2779.459, 985.0202
2781.387, 1002.666
2783.316, 1008.323
2785.244, 974.9122
2787.173, 953.9525
2789.101, 975.9706
2791.030, 999.5581
2792.958, 1016.234
2794.886, 1022.010
2796.815, 1011.525
2798.743, 1001.007
2800.672, 996.0568
2802.600, 991.3144
2804.529, 983.1151
2806.457, 980.2108
2808.386, 987.7085
2810.314, 987.4203
2812.243, 970.9765
2814.171, 966.3076
2816.100, 988.5278
2818.028, 1000.257
2819.957, 995.7710
2821.885, 989.3768
2823.813, 981.4523
2825.742, 976.2849
2827.670, 974.6301
2829.599, 974.4106
2831.527, 976.2362
2833.456, 974.2260
2835.384, 967.4138
2837.313, 974.7255
2839.241, 995.8530
2841.170, 1001.891
2843.098, 991.6742
2845.027, 982.1724
2846.955, 973.8661
2848.884, 978.0609
2850.812, 991.1963
2852.740, 994.3367
2854.669, 990.7156
2856.597, 994.9559
2858.526, 1003.067
2860.454, 1001.247
2862.383, 994.1575
2864.311, 991.6700
2866.240, 992.9625
2868.168, 997.3570
2870.097, 1003.824
2872.025, 1012.649
2873.954, 1020.885
2875.882, 1027.901
2877.811, 1028.813
2879.739, 1010.337
2881.667, 995.1535
2883.596, 1010.974
2885.524, 1025.313
2887.453, 1012.644
2889.381, 995.4656
2891.310, 977.0305
2893.238, 969.9575
2895.167, 991.3770
2897.095, 1007.090
2899.024, 1000.102
2900.952, 996.1529
2902.881, 1001.911
2904.809, 1008.536
2906.738, 1018.293
2908.666, 1017.281
2910.594, 996.0878
2912.523, 987.6149
2914.451, 996.0875
2916.380, 999.6205
2918.308, 994.5378
2920.237, 996.0530
2922.165, 1006.142
2924.094, 1010.809
2926.022, 1010.044
2927.951, 999.2173
2929.879, 982.4218
2931.808, 986.6509
2933.736, 1004.183
2935.665, 1004.475
2937.593, 994.2627
2939.521, 986.8864
2941.450, 984.4121
2943.378, 995.0438
2945.307, 1007.364
2947.235, 1005.540
2949.164, 998.6675
2951.092, 993.7445
2953.021, 990.0428
2954.949, 987.5013
2956.878, 985.3521
2958.806, 982.5998
2960.735, 980.9316
2962.663, 980.4090
2964.592, 982.1931
2966.520, 987.9445
2968.448, 993.3207
2970.377, 995.6364
2972.305, 1002.541
2974.234, 1017.228
2976.162, 1017.652
2978.091, 997.3567
2980.019, 997.4019
2981.948, 1023.360
2983.876, 1029.557
2985.805, 1018.444
2987.733, 1010.886
2989.662, 1006.977
2991.590, 1002.363
2993.519, 1000.126
2995.447, 1015.839
2997.375, 1033.965
2999.304, 1022.816
3001.232, 1004.394
3003.161, 999.1642
3005.089, 1003.781
3007.018, 1026.085
3008.946, 1041.345
3010.875, 1030.536
3012.803, 1019.070
3014.732, 1018.435
3016.660, 1019.999
3018.589, 1022.481
3020.517, 1024.766
3022.446, 1027.917
3024.374, 1024.782
3026.302, 1010.910
3028.231, 998.8054
3030.159, 987.9240
3032.088, 997.3097
3034.016, 1023.965
3035.945, 1039.560
3037.873, 1044.525
3039.802, 1038.498
3041.730, 1027.425
3043.659, 1026.072
3045.587, 1028.426
3047.516, 1024.812
3049.444, 1023.379
3051.373, 1036.215
3053.301, 1049.087
3055.229, 1058.836
3057.158, 1056.762
3059.086, 1023.392
3061.015, 1005.424
3062.943, 1021.838
3064.872, 1028.642
3066.800, 1015.708
3068.729, 1010.913
3070.657, 1019.811
3072.586, 1031.039
3074.514, 1044.152
3076.443, 1042.673
3078.371, 1031.003
3080.300, 1031.754
3082.228, 1039.040
3084.156, 1036.293
3086.085, 1032.126
3088.013, 1043.202
3089.942, 1053.007
3091.870, 1044.791
3093.799, 1031.919
3095.727, 1017.816
3097.656, 1010.264
3099.584, 1015.525
3101.513, 1019.802
3103.441, 1016.467
3105.370, 1019.010
3107.298, 1028.986
3109.227, 1033.828
3111.155, 1032.203
3113.083, 1038.417
3115.012, 1049.246
3116.940, 1030.713
3118.869, 1001.300
3120.797, 1007.426
3122.726, 1027.479
3124.654, 1034.609
3126.583, 1035.476
3128.511, 1032.955
3130.440, 1031.182
3132.368, 1032.778
3134.297, 1035.140
3136.225, 1041.045
3138.154, 1036.811
3140.082, 1017.113
3142.010, 1007.898
3143.939, 1013.257
3145.867, 1029.903
3147.796, 1054.905
3149.724, 1056.232
3151.653, 1040.897
3153.581, 1025.335
3155.510, 1014.005
3157.438, 1017.621
3159.367, 1025.304
3161.295, 1032.980
3163.224, 1032.847
3165.152, 1009.181
3167.081, 997.8419
3169.009, 1012.208
3170.938, 1024.017
3172.866, 1026.662
3174.794, 1028.179
3176.723, 1028.981
3178.651, 1027.325
3180.580, 1024.054
3182.508, 1022.783
3184.437, 1023.806
3186.365, 1028.682
3188.294, 1035.185
3190.222, 1043.435
3192.151, 1047.852
3194.079, 1041.673
3196.008, 1034.970
3197.936, 1031.831
3199.865, 1026.916
3201.793, 1015.406
3203.721, 1017.269
3205.650, 1036.897
3207.578, 1041.205
3209.507, 1032.303
3211.435, 1024.935
3213.364, 1020.323
3215.292, 1023.243
3217.221, 1027.806
3219.149, 1026.115
3221.078, 1023.642
3223.006, 1021.006
3224.935, 1025.064
3226.863, 1042.838
3228.792, 1051.329
3230.720, 1043.308
3232.648, 1032.757
3234.577, 1019.523
3236.505, 1024.999
3238.434, 1042.641
3240.362, 1040.907
3242.291, 1030.505
3244.219, 1034.372
3246.148, 1039.824
3248.076, 1035.241
3250.005, 1027.426
3251.933, 1014.926
3253.862, 1011.131
3255.790, 1021.920
3257.719, 1025.803
3259.647, 1016.752
3261.575, 1018.601
3263.504, 1030.241
3265.432, 1032.167
3267.361, 1027.354
3269.289, 1020.334
3271.218, 1014.507
3273.146, 1014.823
3275.075, 1017.132
3277.003, 1019.218
3278.932, 1022.567
3280.860, 1030.509
3282.789, 1030.916
3284.717, 1021.773
3286.646, 1022.183
3288.574, 1031.709
3290.502, 1031.052
3292.431, 1025.142
3294.359, 1025.873
3296.288, 1029.963
3298.216, 1037.531
3300.145, 1041.013
3302.073, 1031.837
3304.002, 1029.983
3305.930, 1049.848
3307.859, 1059.748
3309.787, 1058.027
3311.716, 1041.460
3313.644, 1016.571
3315.573, 1023.615
3317.501, 1043.878
3319.429, 1041.212
3321.358, 1029.967
3323.286, 1015.550
3325.215, 1007.986
3327.143, 1014.737
3329.072, 1019.803
3331.000, 1019.326
3332.929, 1024.478
3334.857, 1036.008
3336.786, 1034.322
3338.714, 1026.837
3340.643, 1036.165
3342.571, 1048.163
3344.500, 1042.357
3346.428, 1035.870
3348.356, 1040.132
3350.285, 1041.045
3352.213, 1031.550
3354.142, 1029.844
3356.070, 1036.651
3357.999, 1030.295
3359.927, 1017.935
3361.856, 1040.878
3363.784, 1067.889
3365.713, 1052.030
3367.641, 1029.479
3369.570, 1019.780
3371.498, 1022.671
3373.427, 1042.983
3375.355, 1050.981
3377.283, 1040.403
3379.212, 1032.555
3381.140, 1029.266
3383.069, 1042.563
3384.997, 1059.154
3386.926, 1058.009
3388.854, 1054.515
3390.783, 1060.281
3392.711, 1061.502
3394.640, 1048.476
3396.568, 1045.057
3398.497, 1051.859
3400.425, 1048.577
3402.354, 1038.494
3404.282, 1031.197
3406.210, 1030.187
3408.139, 1046.576
3410.067, 1058.141
3411.996, 1041.123
3413.924, 1039.038
3415.853, 1063.795
3417.781, 1073.627
3419.710, 1065.123
3421.638, 1035.925
3423.567, 1003.699
3425.495, 1014.338
3427.424, 1035.656
3429.352, 1034.246
3431.281, 1035.154
3433.209, 1053.540
3435.137, 1055.818
3437.066, 1031.749
3438.994, 1024.524
3440.923, 1032.341
3442.851, 1045.290
3444.780, 1058.109
3446.708, 1062.455
3448.637, 1062.944
3450.565, 1061.817
3452.494, 1058.656
3454.422, 1053.637
3456.351, 1043.169
3458.279, 1028.407
3460.208, 1034.846
3462.136, 1050.026
3464.064, 1036.495
3465.993, 1022.427
3467.921, 1035.866
3469.850, 1049.127
3471.778, 1054.594
3473.707, 1054.216
3475.635, 1047.651
3477.564, 1040.358
3479.492, 1032.590
3481.421, 1022.204
3483.349, 1015.899
3485.278, 1024.058
3487.206, 1034.869
3489.135, 1045.158
3491.063, 1051.330
3492.991, 1052.522
3494.920, 1048.520
3496.848, 1042.513
3498.777, 1048.974
3500.705, 1058.061
3502.634, 1054.886
3504.562, 1051.514
3506.491, 1056.268
3508.419, 1056.131
3510.348, 1049.410
3512.276, 1037.259
3514.205, 1023.893
3516.133, 1029.048
3518.062, 1041.878
3519.990, 1050.022
3521.918, 1055.356
3523.847, 1062.182
3525.775, 1054.891
3527.704, 1030.229
3529.632, 1033.128
3531.561, 1055.814
3533.489, 1053.351
3535.418, 1042.630
3537.346, 1044.489
3539.275, 1043.888
3541.203, 1024.943
3543.132, 1034.133
3545.060, 1081.932
3546.989, 1084.995
3548.917, 1056.231
3550.845, 1047.438
3552.774, 1048.366
3554.702, 1052.362
3556.631, 1057.365
3558.559, 1063.618
3560.488, 1065.352
3562.416, 1061.428
3564.345, 1061.481
3566.273, 1064.727
3568.202, 1075.058
3570.130, 1077.888
3572.059, 1049.212
3573.987, 1035.925
3575.916, 1057.280
3577.844, 1075.596
3579.772, 1087.634
3581.701, 1072.328
3583.629, 1049.116
3585.558, 1053.055
3587.486, 1052.965
3589.415, 1025.788
3591.343, 1012.701
3593.272, 1023.092
3595.200, 1038.993
3597.129, 1055.558
3599.057, 1057.964
3600.986, 1053.791
3602.914, 1049.129
3604.843, 1044.578
3606.771, 1034.863
3608.699, 1043.819
3610.628, 1068.552
3612.556, 1069.101
3614.485, 1059.340
3616.413, 1069.620
3618.342, 1075.317
3620.270, 1054.803
3622.199, 1041.191
3624.127, 1038.482
3626.056, 1050.485
3627.984, 1069.173
3629.913, 1066.798
3631.841, 1058.885
3633.770, 1061.400
3635.698, 1059.312
3637.626, 1045.884
3639.555, 1038.307
3641.483, 1037.157
3643.412, 1036.349
3645.340, 1036.966
3647.269, 1040.187
3649.197, 1045.944
3651.126, 1056.411
3653.054, 1065.183
3654.983, 1071.124
3656.911, 1064.139
3658.840, 1051.295
3660.768, 1046.224
3662.697, 1046.259
3664.625, 1054.300
3666.553, 1056.302
3668.482, 1050.150
3670.410, 1058.371
3672.339, 1073.375
3674.267, 1067.270
3676.196, 1058.086
3678.124, 1060.844
3680.053, 1063.974
3681.981, 1065.300
3683.910, 1065.089
3685.838, 1063.477
3687.767, 1059.252
3689.695, 1055.777
3691.624, 1053.682
3693.552, 1059.712
3695.480, 1077.687
3697.409, 1085.591
3699.337, 1082.103
3701.266, 1063.117
3703.194, 1045.188
3705.123, 1049.680
3707.051, 1051.870
3708.980, 1040.567
3710.908, 1048.825
3712.837, 1072.962
3714.765, 1064.282
3716.694, 1048.117
3718.622, 1055.329
3720.551, 1064.542
3722.479, 1069.146
3724.407, 1069.835
3726.336, 1066.665
3728.264, 1060.057
3730.193, 1051.749
3732.121, 1040.651
3734.050, 1036.016
3735.978, 1044.141
3737.907, 1043.802
3739.835, 1035.120
3741.764, 1024.878
3743.692, 1023.117
3745.621, 1049.894
3747.549, 1068.800
3749.478, 1066.366
3751.406, 1062.756
3753.334, 1058.198
3755.263, 1039.569
3757.191, 1028.984
3759.120, 1058.833
3761.048, 1078.462
3762.977, 1072.595
3764.905, 1061.314
3766.834, 1048.176
3768.762, 1041.156
3770.691, 1039.031
3772.619, 1041.488
3774.548, 1045.389
3776.476, 1050.289
3778.405, 1052.385
3780.333, 1051.838
3782.261, 1046.945
3784.190, 1044.675
3786.118, 1050.225
3788.047, 1059.016
3789.975, 1070.519
3791.904, 1059.732
3793.832, 1042.008
3795.761, 1051.919
3797.689, 1060.710
3799.618, 1052.540
3801.546, 1045.765
3803.475, 1041.891
3805.403, 1033.874
3807.332, 1029.467
3809.260, 1045.719
3811.188, 1058.142
3813.117, 1059.389
3815.045, 1046.100
3816.974, 1025.250
3818.902, 1026.044
3820.831, 1036.996
3822.759, 1054.819
3824.688, 1061.728
3826.616, 1050.771
3828.545, 1040.146
3830.473, 1036.445
3832.402, 1064.584
3834.330, 1081.687
3836.259, 1059.856
3838.187, 1048.319
3840.115, 1052.650
3842.044, 1055.985
3843.972, 1056.934
3845.901, 1047.459
3847.829, 1051.130
3849.758, 1076.304
3851.686, 1083.664
3853.615, 1076.171
3855.543, 1066.803
3857.472, 1060.357
3859.400, 1063.368
3861.329, 1061.323
3863.257, 1053.693
3865.186, 1061.038
3867.114, 1071.722
3869.042, 1062.231
3870.971, 1061.090
3872.899, 1084.434
3874.828, 1084.330
3876.756, 1067.796
3878.685, 1060.112
3880.613, 1058.177
3882.542, 1065.416
3884.470, 1070.223
3886.399, 1069.351
3888.327, 1054.245
3890.256, 1041.101
3892.184, 1055.986
3894.113, 1063.612
3896.041, 1047.568
3897.969, 1050.101
3899.898, 1066.723
3901.826, 1073.447
3903.755, 1069.466
3905.683, 1055.125
3907.612, 1056.961
3909.540, 1071.845
3911.469, 1070.166
3913.397, 1065.456
3915.326, 1071.738
3917.254, 1073.253
3919.183, 1060.757
3921.111, 1060.476
3923.040, 1070.569
3924.968, 1066.049
3926.896, 1059.768
3928.825, 1070.796
3930.753, 1064.145
3932.682, 1040.125
3934.610, 1047.020
3936.539, 1061.443
3938.467, 1060.077
3940.396, 1062.991
3942.324, 1072.652
3944.253, 1071.139
3946.181, 1061.859
3948.110, 1067.159
3950.038, 1074.181
3951.967, 1078.087
3953.895, 1073.811
3955.823, 1063.801
3957.752, 1068.160
3959.680, 1072.585
3961.609, 1059.546
3963.537, 1046.544
3965.466, 1042.337
3967.394, 1052.610
3969.323, 1066.045
3971.251, 1066.357
3973.180, 1058.276
3975.108, 1052.291
3977.037, 1048.449
3978.965, 1050.784
3980.894, 1061.676
3982.822, 1065.341
3984.750, 1069.961
3986.679, 1078.520
3988.607, 1077.885
3990.536, 1061.498
3992.464, 1059.807
3994.393, 1067.082
3996.321, 1060.130
3998.250, 1058.586
4000.178, 1056.194
4002.107, 1055.941
4004.035, 1055.003
4005.964, 1068.768
4007.892, 1077.178
4009.821, 1048.605
4011.749, 1049.458
4013.677, 1075.897
4015.606, 1067.180
4017.534, 1054.523
4019.463, 1063.436
4021.391, 1072.676
4023.320, 1075.564
4025.248, 1053.743
4027.177, 1038.332
4029.105, 1061.364
4031.034, 1068.107
4032.962, 1056.474
4034.891, 1057.036
4036.819, 1057.323
4038.748, 1062.671
4040.676, 1071.403
4042.604, 1077.557
4044.533, 1077.821
4046.461, 1071.022
4048.390, 1063.448
4050.318, 1059.453
4052.247, 1063.796
4054.175, 1067.534
4056.104, 1072.924
4058.032, 1080.205
4059.961, 1077.987
4061.889, 1076.131
4063.818, 1067.497
4065.746, 1051.482
4067.675, 1056.098
4069.603, 1063.767
4071.531, 1066.902
4073.460, 1065.217
4075.388, 1058.604
4077.317, 1046.428
4079.245, 1043.919
4081.174, 1054.442
4083.102, 1064.984
4085.031, 1071.040
4086.959, 1068.818
4088.888, 1070.229
4090.816, 1071.653
4092.745, 1068.806
4094.673, 1064.351
4096.602, 1045.991
4098.530, 1037.927
4100.458, 1061.063
4102.387, 1064.783
4104.315, 1052.165
4106.244, 1071.034
4108.172, 1083.201
4110.101, 1056.993
4112.029, 1053.769
4113.958, 1072.043
4115.886, 1087.503
4117.814, 1095.942
4119.743, 1088.025
4121.671, 1080.012
4123.600, 1075.279
4125.528, 1067.830
4127.457, 1058.052
4129.385, 1041.811
4131.314, 1041.281
4133.242, 1054.494
4135.171, 1061.079
4137.099, 1063.895
4139.028, 1064.931
4140.956, 1065.320
4142.885, 1064.168
4144.813, 1053.222
4146.742, 1045.191
4148.670, 1049.344
4150.599, 1058.986
4152.527, 1073.060
4154.456, 1082.770
4156.384, 1084.688
4158.313, 1072.983
4160.241, 1063.724
4162.169, 1061.654
4164.098, 1062.186
4166.026, 1064.579
4167.955, 1070.178
4169.883, 1080.060
4171.812, 1091.947
4173.740, 1077.161
4175.668, 1059.908
4177.597, 1055.252
4179.525, 1062.260
4181.454, 1076.295
4183.382, 1051.087
4185.311, 1030.563
4187.239, 1053.633
4189.168, 1062.984
4191.096, 1059.665
4193.025, 1055.918
4194.953, 1056.770
4196.882, 1068.963
4198.810, 1058.134
4200.739, 1035.148
4202.667, 1033.426
4204.596, 1046.076
4206.524, 1076.406
4208.453, 1051.800
4210.381, 1007.057
4212.310, 1044.786
4214.238, 1085.026
4216.167, 1101.117
4218.095, 1080.474
4220.023, 1047.808
4221.952, 1050.658
4223.880, 1052.066
4225.809, 1042.449
4227.737, 1042.893
4229.666, 1051.500
4231.594, 1068.436
4233.522, 1076.751
4235.451, 1074.252
4237.379, 1070.216
4239.308, 1067.452
4241.236, 1069.427
4243.165, 1069.105
4245.093, 1065.562
4247.022, 1057.990
4248.950, 1051.023
4250.879, 1047.279
4252.807, 1047.277
4254.736, 1051.089
4256.664, 1064.909
4258.593, 1071.904
4260.521, 1062.904
4262.450, 1058.443
4264.378, 1056.269
4266.307, 1042.535
4268.235, 1043.648
4270.164, 1068.797
4272.092, 1070.071
4274.021, 1064.868
4275.949, 1083.459
4277.877, 1081.399
4279.806, 1052.958
4281.734, 1069.217
4283.663, 1082.453
4285.591, 1044.938
4287.520, 1038.986
4289.448, 1063.192
4291.376, 1069.467
4293.305, 1063.478
4295.233, 1044.784
4297.162, 1045.982
4299.090, 1058.524
4301.019, 1061.931
4302.947, 1066.159
4304.876, 1073.914
4306.804, 1074.833
4308.733, 1066.140
4310.661, 1032.892
4312.590, 1039.653
4314.518, 1083.473
4316.447, 1082.599
4318.375, 1068.805
4320.304, 1059.913
4322.232, 1061.600
4324.161, 1068.374
4326.089, 1067.237
4328.018, 1060.245
4329.946, 1048.455
4331.875, 1045.742
4333.803, 1047.815
4335.731, 1049.687
4337.660, 1049.611
4339.588, 1049.155
4341.517, 1061.163
4343.445, 1072.153
4345.374, 1074.459
4347.302, 1063.450
4349.230, 1050.861
4351.159, 1070.456
4353.087, 1076.682
4355.016, 1055.384
4356.944, 1060.565
4358.873, 1072.099
4360.801, 1066.900
4362.730, 1055.548
4364.658, 1044.200
4366.587, 1062.092
4368.515, 1076.284
4370.444, 1063.489
4372.372, 1064.363
4374.301, 1069.628
4376.229, 1057.126
4378.158, 1058.106
4380.086, 1077.218
4382.015, 1077.193
4383.943, 1068.162
4385.872, 1054.810
4387.800, 1042.686
4389.729, 1036.103
4391.657, 1050.665
4393.585, 1057.772
4395.514, 1050.596
4397.442, 1071.615
4399.371, 1087.680
4401.299, 1065.636
4403.228, 1042.193
4405.156, 1027.675
4407.084, 1049.589
4409.013, 1058.513
4410.941, 1037.432
4412.870, 1027.579
4414.798, 1028.989
4416.727, 1043.727
4418.655, 1053.249
4420.584, 1058.508
4422.512, 1079.824
4424.441, 1086.680
4426.369, 1058.766
4428.298, 1037.717
4430.226, 1029.092
4432.155, 1048.744
4434.083, 1053.250
4436.012, 1044.589
4437.940, 1070.589
4439.869, 1082.551
4441.797, 1059.259
4443.726, 1062.702
4445.654, 1075.330
4447.583, 1078.292
4449.511, 1058.597
4451.439, 1028.990
4453.368, 1046.042
4455.296, 1061.912
4457.225, 1056.777
4459.153, 1056.389
4461.082, 1054.744
4463.010, 1038.606
4464.938, 1036.546
4466.867, 1047.008
4468.795, 1060.071
4470.724, 1059.440
4472.652, 1036.376
4474.581, 1045.091
4476.509, 1062.645
4478.438, 1071.991
4480.366, 1063.815
4482.295, 1049.540
4484.223, 1061.563
4486.152, 1068.896
4488.080, 1065.685
4490.009, 1074.234
4491.937, 1083.966
4493.866, 1089.109
4495.794, 1082.732
4497.723, 1068.334
4499.651, 1051.212
4501.580, 1027.349
4503.508, 1002.695
4505.437, 1038.925
4507.365, 1077.821
4509.293, 1094.647
4511.222, 1079.942
4513.150, 1065.635
4515.079, 1094.858
4517.007, 1085.883
4518.936, 1053.703
4520.864, 1069.667
4522.792, 1081.804
4524.721, 1074.919
4526.649, 1081.890
4528.578, 1088.629
4530.506, 1086.751
4532.435, 1061.843
4534.363, 1037.047
4536.292, 1054.222
4538.220, 1066.501
4540.149, 1067.405
4542.077, 1057.265
4544.006, 1059.910
4545.934, 1082.053
4547.863, 1077.626
4549.791, 1065.101
4551.720, 1059.471
4553.648, 1061.006
4555.577, 1068.638
4557.505, 1089.081
4559.434, 1083.760
4561.362, 1054.797
4563.291, 1057.157
4565.219, 1057.502
4567.147, 1044.224
4569.076, 1036.317
4571.004, 1034.893
4572.933, 1040.059
4574.861, 1055.678
4576.790, 1069.416
4578.718, 1052.527
4580.646, 1043.189
4582.575, 1044.734
4584.503, 1044.501
4586.432, 1042.591
4588.360, 1039.410
4590.289, 1037.959
4592.217, 1044.462
4594.146, 1069.706
4596.074, 1057.307
4598.003, 1030.579
4599.931, 1022.697
4601.860, 1032.222
4603.788, 1052.682
4605.717, 1071.519
4607.645, 1068.294
4609.574, 1045.001
4611.502, 1048.472
4613.431, 1067.473
4615.359, 1099.342
4617.288, 1073.092
4619.216, 1034.433
4621.145, 1029.549
4623.073, 1032.529
4625.001, 1037.697
4626.930, 1040.665
4628.858, 1031.579
4630.787, 1018.119
4632.715, 1036.278
4634.644, 1045.042
4636.572, 1033.546
4638.500, 1041.680
4640.429, 1053.199
4642.357, 1060.919
4644.286, 1039.848
4646.214, 1021.550
4648.143, 1036.198
4650.071, 1038.849
4652.000, 1036.379
4653.928, 1046.856
4655.857, 1060.039
4657.785, 1068.743
4659.714, 1047.305
4661.642, 1038.472
4663.571, 1047.158
4665.499, 1025.422
4667.428, 1014.695
4669.356, 1030.338
4671.285, 1023.085
4673.213, 1023.412
4675.142, 1065.041
4677.070, 1057.434
4678.999, 1039.056
4680.927, 1056.999
4682.855, 1045.124
4684.784, 1022.256
4686.712, 1036.346
4688.641, 1045.293
4690.569, 1043.771
4692.498, 1028.954
4694.426, 1031.169
4696.354, 1051.880
4698.283, 1044.913
4700.211, 1038.761
4702.140, 1042.617
4704.068, 1028.211
4705.997, 1021.708
4707.925, 1045.714
4709.854, 1030.897
4711.782, 1012.204
4713.711, 1018.090
4715.639, 1040.892
4717.568, 1059.548
4719.496, 1038.883
4721.425, 1055.083
4723.353, 1082.738
4725.282, 1054.495
4727.210, 1032.739
4729.139, 1026.663
4731.067, 1041.991
4732.996, 1040.071
4734.924, 1021.136
4736.853, 1035.004
4738.781, 1045.769
4740.709, 1042.945
4742.638, 1043.594
4744.566, 1044.613
4746.495, 1044.078
4748.423, 1023.119
4750.352, 1011.404
4752.280, 1031.273
4754.208, 1047.403
4756.137, 1050.725
4758.065, 1032.814
4759.994, 1034.235
4761.922, 1041.594
4763.851, 1035.037
4765.779, 1038.733
4767.708, 1042.469
4769.636, 1027.919
4771.565, 1021.638
4773.493, 1021.607
4775.422, 1018.520
4777.350, 1017.713
4779.279, 1019.041
4781.207, 1020.722
4783.136, 1021.560
4785.064, 1021.746
4786.993, 1019.317
4788.921, 1028.866
4790.850, 1046.698
4792.778, 1036.371
4794.707, 1026.507
4796.635, 1023.811
4798.563, 1015.108
4800.492, 1019.743
4802.420, 1041.565
4804.349, 1041.328
4806.277, 1037.798
4808.206, 1038.871
4810.134, 1056.699
4812.063, 1054.112
4813.991, 1015.414
4815.919, 1029.863
4817.848, 1044.196
4819.776, 1026.866
4821.705, 1034.785
4823.633, 1036.531
4825.562, 1011.295
4827.490, 1005.884
4829.419, 1009.169
4831.347, 1011.675
4833.276, 1024.175
4835.204, 1031.159
4837.133, 1020.080
4839.061, 999.9581
4840.990, 989.5519
4842.918, 1006.687
4844.847, 1030.424
4846.775, 1045.409
4848.704, 1036.152
4850.632, 1037.925
4852.561, 1040.576
4854.489, 1030.035
4856.417, 1021.687
4858.346, 1020.790
4860.274, 1035.824
4862.203, 1034.702
4864.131, 1023.156
4866.060, 1007.394
4867.988, 1007.086
4869.917, 1011.564
4871.845, 1004.696
4873.773, 1013.013
4875.702, 1025.165
4877.630, 1026.679
4879.559, 1017.239
4881.487, 1006.143
4883.416, 1007.008
4885.344, 993.6951
4887.273, 976.6719
4889.201, 966.9127
4891.130, 994.0779
4893.058, 1022.954
4894.987, 1004.337
4896.915, 1010.726
4898.844, 1021.120
4900.772, 1008.734
4902.701, 996.1993
4904.629, 989.5859
4906.558, 994.0969
4908.486, 1002.721
4910.415, 1010.425
4912.343, 1012.860
4914.271, 1013.246
4916.200, 1011.539
4918.128, 1007.311
4920.057, 996.3029
4921.985, 998.8624
4923.914, 1032.733
4925.842, 1026.664
4927.771, 1001.531
4929.699, 972.5956
4931.627, 990.7627
4933.556, 1011.287
4935.484, 1005.739
4937.413, 1007.036
4939.341, 1005.259
4941.270, 995.0487
4943.198, 989.8403
4945.127, 999.3312
4947.055, 1027.962
4948.984, 1028.931
4950.912, 1026.144
4952.841, 1026.572
4954.769, 1002.793
4956.698, 990.2809
4958.626, 999.2484
4960.555, 1005.859
4962.483, 1002.922
4964.412, 993.5589
4966.340, 1005.235
4968.269, 996.3561
4970.197, 968.9693
4972.125, 961.6896
4974.054, 977.5223
4975.982, 1003.887
4977.911, 1011.237
4979.839, 1005.017
4981.768, 986.5959
4983.696, 944.7491
4985.625, 937.6104
4987.553, 953.5303
4989.481, 968.3989
4991.410, 983.3605
4993.338, 992.7552
4995.267, 988.8565
4997.195, 978.7557
4999.124, 981.4865
5001.052, 1014.859
5002.981, 1009.931
5004.909, 1007.322
5006.838, 1032.163
5008.766, 999.7678
5010.695, 977.7809
5012.623, 998.6390
5014.552, 1000.826
5016.480, 989.5125
5018.409, 972.8395
5020.337, 984.6254
5022.266, 987.1710
5024.194, 976.7180
5026.123, 975.3638
5028.051, 976.4717
5029.979, 977.7309
5031.908, 976.7730
5033.836, 977.9449
5035.765, 980.1579
5037.693, 983.7275
5039.622, 969.9318
5041.550, 966.2400
5043.479, 1001.779
5045.407, 996.7130
5047.335, 982.1415
5049.264, 982.1209
5051.192, 983.3907
5053.121, 981.0683
5055.049, 974.4476
5056.978, 986.2438
5058.906, 992.2520
5060.835, 987.0831
5062.763, 972.0442
5064.692, 973.5137
5066.620, 982.2459
5068.549, 953.9043
5070.477, 965.7095
5072.406, 989.6719
5074.334, 971.5056
5076.263, 977.9386
5078.191, 988.4410
5080.120, 974.7128
5082.048, 992.0815
5083.977, 999.4711
5085.905, 977.3576
5087.833, 946.8363
5089.762, 951.9947
5091.690, 991.6137
5093.619, 995.3623
5095.547, 965.5066
5097.476, 930.8877
5099.404, 964.5393
5101.333, 975.7529
5103.261, 969.3405
5105.189, 967.2784
5107.118, 970.8870
5109.046, 976.4550
5110.975, 982.6609
5112.903, 971.4611
5114.832, 963.6776
5116.760, 966.6895
5118.689, 970.1970
5120.617, 961.3688
5122.546, 948.1488
5124.474, 973.6383
5126.403, 983.4548
5128.331, 977.3863
5130.260, 966.5308
5132.188, 974.5400
5134.117, 980.8891
5136.045, 966.7520
5137.974, 923.9377
5139.902, 909.5947
5141.831, 945.2473
5143.759, 965.1490
5145.688, 961.7411
5147.616, 945.7206
5149.544, 950.8743
5151.473, 956.4546
5153.401, 961.4626
5155.330, 969.5948
5157.258, 974.0089
5159.187, 974.4334
5161.115, 971.3331
5163.043, 976.8149
5164.972, 963.5103
5166.900, 930.4133
5168.829, 923.6758
5170.757, 934.0416
5172.686, 950.1612
5174.614, 955.1675
5176.543, 955.8281
5178.471, 957.7557
5180.400, 965.3947
5182.328, 963.4781
5184.257, 952.4427
5186.185, 934.3241
5188.114, 914.9723
5190.042, 925.0456
5191.971, 952.7368
5193.899, 952.6729
5195.828, 961.7776
5197.756, 964.3311
5199.685, 932.7829
5201.613, 941.6117
5203.542, 951.4119
5205.470, 942.9161
5207.398, 940.7975
5209.327, 935.1794
5211.255, 929.2492
5213.184, 940.5738
5215.112, 932.8046
5217.041, 925.5773
5218.969, 950.8211
5220.897, 924.6743
5222.826, 915.5692
5224.754, 944.2722
5226.683, 937.1335
5228.611, 927.5169
5230.540, 926.7413
5232.468, 948.9871
5234.397, 943.0645
5236.325, 924.1710
5238.254, 907.5507
5240.182, 925.2783
5242.111, 944.8964
5244.039, 952.5474
5245.968, 941.4147
5247.896, 940.3619
5249.825, 942.2211
5251.753, 926.2280
5253.682, 918.0327
5255.610, 920.1158
5257.539, 932.1011
5259.467, 952.7406
5261.396, 941.3922
5263.324, 911.7328
5265.252, 923.0815
5267.181, 934.7632
5269.109, 934.0711
5271.038, 911.6287
5272.966, 914.5585
5274.895, 922.4489
5276.823, 927.3741
5278.751, 934.6223
5280.680, 924.1296
5282.608, 912.8536
5284.537, 933.2722
5286.465, 924.1298
5288.394, 908.4919
5290.322, 899.6877
5292.251, 905.3650
5294.179, 917.4476
5296.108, 925.8068
5298.036, 915.3954
5299.965, 914.5795
5301.893, 906.6353
5303.822, 881.5487
5305.750, 887.9901
5307.679, 905.4689
5309.607, 924.9548
5311.536, 943.8309
5313.464, 919.1453
5315.393, 899.1014
5317.321, 919.3802
5319.250, 930.9155
5321.178, 916.3700
5323.106, 891.5554
5325.035, 908.5389
5326.963, 913.4899
5328.892, 909.8481
5330.820, 906.4063
5332.749, 921.1443
5334.677, 929.8036
5336.605, 927.5020
5338.534, 921.0328
5340.462, 909.4871
5342.391, 901.7062
5344.319, 903.8415
5346.248, 892.9605
5348.176, 891.1173
5350.105, 900.3286
5352.033, 915.9071
5353.962, 901.9765
5355.890, 886.7896
5357.819, 892.9028
5359.747, 897.0070
5361.676, 893.9652
5363.604, 887.9338
5365.533, 889.1501
5367.461, 897.5350
5369.390, 901.4838
5371.318, 897.1838
5373.247, 915.3367
5375.175, 915.4744
5377.104, 901.2623
5379.032, 894.3473
5380.960, 875.5954
5382.889, 879.9012
5384.817, 911.4725
5386.746, 893.8334
5388.674, 886.0791
5390.603, 886.7131
5392.531, 881.2399
5394.459, 906.2413
5396.388, 904.3110
5398.316, 873.5167
5400.245, 896.2744
5402.173, 873.4732
5404.102, 846.8241
5406.030, 857.9601
5407.959, 872.7885
5409.887, 874.7379
5411.816, 870.8673
5413.744, 884.5414
5415.673, 897.2238
5417.601, 885.6841
5419.530, 847.5368
5421.458, 852.8044
5423.387, 862.5564
5425.315, 865.5016
5427.244, 858.4162
5429.172, 870.5931
5431.101, 883.9590
5433.029, 888.6875
5434.958, 874.3508
5436.886, 871.6456
5438.814, 877.4557
5440.743, 886.8405
5442.671, 890.4271
5444.600, 878.0297
5446.528, 863.7673
5448.457, 867.8911
5450.385, 840.2955
5452.313, 827.2548
5454.242, 840.9136
5456.170, 865.1003
5458.099, 866.5446
5460.027, 860.1882
5461.956, 857.6221
5463.884, 843.3607
5465.813, 847.2228
5467.741, 858.2227
5469.670, 855.5385
5471.598, 864.2706
5473.527, 866.7592
5475.455, 861.4915
5477.384, 866.8542
5479.312, 838.3856
5481.241, 828.8837
5483.169, 861.3102
5485.098, 869.9899
5487.026, 848.5654
5488.955, 836.3073
5490.883, 866.7965
5492.812, 851.1316
5494.740, 830.6757
5496.668, 821.3049
5498.597, 828.1243
5500.525, 824.3688
5502.454, 835.0002
5504.382, 856.8252
5506.311, 833.1923
5508.239, 832.6716
5510.167, 841.5745
5512.096, 845.7265
5514.024, 850.7254
5515.953, 834.0101
5517.881, 826.5489
5519.810, 858.4003
5521.738, 852.1534
5523.667, 850.4852
5525.595, 854.1591
5527.524, 842.9851
5529.452, 819.2268
5531.381, 816.7367
5533.309, 831.9954
5535.238, 825.1682
5537.166, 802.6230
5539.095, 802.5682
5541.023, 830.0897
5542.952, 824.8826
5544.880, 829.1495
5546.809, 833.1734
5548.737, 826.9945
5550.666, 821.9020
5552.594, 823.3298
5554.522, 830.4299
5556.451, 841.5941
5558.379, 804.5842
5560.308, 799.6986
5562.236, 820.2457
5564.165, 830.1097
5566.093, 819.4831
5568.021, 806.0355
5569.950, 798.3631
5571.878, 800.0982
5573.807, 812.5212
5575.735, 813.4998
5577.664, 804.7074
5579.592, 814.3147
5581.521, 838.0767
5583.449, 826.0186
5585.378, 779.4215
5587.306, 776.4772
5589.235, 785.7714
5591.163, 791.2294
5593.092, 790.0493
5595.020, 802.4478
5596.949, 800.6097
5598.877, 800.4945
5600.806, 810.8613
5602.734, 790.4598
5604.663, 794.4604
5606.591, 807.5524
5608.520, 809.1450
5610.448, 773.7578
5612.376, 776.6288
5614.305, 795.1991
5616.233, 797.9974
5618.162, 799.0677
5620.090, 802.8116
5622.019, 806.5197
5623.947, 807.0624
5625.875, 810.2755
5627.804, 794.7666
5629.732, 772.0922
5631.661, 757.2157
5633.589, 811.1139
5635.518, 803.5405
5637.446, 770.8674
5639.375, 787.2280
5641.303, 789.8101
5643.232, 772.7604
5645.160, 769.0690
5647.089, 808.4469
5649.017, 788.5637
5650.946, 774.6155
5652.874, 772.5910
5654.803, 770.3059
5656.731, 775.6437
5658.660, 777.2265
5660.588, 773.2700
5662.517, 764.9474
5664.445, 751.4733
5666.374, 773.7399
5668.302, 791.5815
5670.230, 758.2116
5672.159, 779.2220
5674.087, 779.1763
5676.016, 775.9557
5677.944, 794.3555
5679.873, 747.4998
5681.801, 739.7743
5683.729, 748.5562
5685.658, 741.2542
5687.586, 764.7783
5689.515, 770.3946
5691.443, 775.1259
5693.372, 793.4086
5695.300, 772.6401
5697.229, 764.0643
5699.157, 762.4478
5701.086, 759.6277
5703.014, 762.6666
5704.943, 767.5384
5706.871, 755.4896
5708.800, 732.0253
5710.728, 750.6505
5712.657, 757.6068
5714.585, 752.1937
5716.514, 745.6653
5718.442, 762.7576
5720.371, 752.2379
5722.299, 739.5455
5724.228, 734.7669
5726.156, 729.1160
5728.084, 761.6140
5730.013, 780.3791
5731.941, 774.1351
5733.870, 752.9445
5735.798, 707.1870
5737.727, 716.1816
5739.655, 740.6467
5741.583, 722.2612
5743.512, 729.2096
5745.440, 726.9662
5747.369, 720.6448
5749.297, 719.0037
5751.226, 711.4828
5753.154, 727.8622
5755.083, 749.2793
5757.011, 757.4069
5758.940, 730.1019
5760.868, 725.4030
5762.797, 733.9337
5764.725, 736.3895
5766.654, 694.8511
5768.582, 710.3348
5770.511, 718.3556
5772.439, 714.9797
5774.368, 724.5551
5776.296, 720.4839
5778.225, 731.6257
5780.153, 729.6274
5782.082, 696.2288
5784.010, 713.1182
5785.938, 711.6314
5787.867, 696.5029
5789.795, 686.6963
5791.724, 714.2184
5793.652, 709.4929
5795.581, 706.8894
5797.509, 709.6459
5799.438, 690.8147
5801.366, 701.5932
5803.294, 711.6031
5805.223, 711.4113
5807.151, 702.6785
5809.080, 729.1173
5811.008, 716.3859
5812.937, 693.8076
5814.865, 691.7329
5816.794, 722.2308
5818.722, 734.0501
5820.651, 721.2767
5822.579, 696.6160
5824.508, 679.3871
5826.436, 670.4467
5828.365, 670.8474
5830.293, 677.1293
5832.222, 685.8265
5834.150, 699.0184
5836.079, 698.4482
5838.007, 694.6755
5839.936, 697.0231
5841.864, 713.5936
5843.792, 702.5535
5845.721, 700.5541
5847.649, 702.2724
5849.578, 684.6766
5851.506, 686.8196
5853.435, 696.9849
5855.363, 697.5272
5857.292, 686.0028
5859.220, 691.7061
5861.148, 682.7806
5863.077, 672.6772
5865.005, 673.7738
5866.934, 692.8494
5868.862, 675.5943
5870.791, 673.0321
5872.719, 674.0297
5874.648, 668.7507
5876.576, 683.9122
5878.505, 698.4533
5880.433, 687.1826
5882.362, 666.7330
5884.290, 670.7037
5886.219, 666.9293
5888.147, 667.1902
5890.076, 665.7302
5892.004, 658.2332
5893.933, 647.6908
5895.861, 661.7704
5897.790, 661.9572
5899.718, 654.6432
5901.646, 667.7950
5903.575, 649.3530
5905.503, 639.2416
5907.432, 640.6780
5909.360, 651.3951
5911.289, 685.5247
5913.217, 638.2939
5915.146, 627.4341
5917.074, 645.9362
5919.002, 645.6675
5920.931, 661.8040
5922.859, 634.0762
5924.788, 634.0190
5926.716, 665.0163
5928.645, 662.8960
5930.573, 658.3000
5932.502, 641.2197
5934.430, 638.7242
5936.359, 660.2741
5938.287, 657.0828
5940.216, 650.0198
5942.144, 639.8168
5944.073, 630.4468
5946.001, 629.4841
5947.930, 665.1622
5949.858, 665.6722
5951.787, 643.1031
5953.715, 628.3091
5955.644, 649.5829
5957.572, 631.9564
5959.500, 621.2722
5961.429, 627.7845
5963.357, 639.8874
5965.286, 619.9811
5967.214, 621.8717
5969.143, 633.0090
5971.071, 635.2204
5973.000, 621.7809
5974.928, 625.1885
5976.856, 630.6824
5978.785, 641.0003
5980.713, 649.4422
5982.642, 645.0933
5984.570, 636.4196
5986.499, 640.2045
5988.427, 636.3105
5990.356, 627.3526
5992.284, 642.9045
5994.213, 630.2636
5996.141, 611.6924
5998.070, 614.6234
5999.998, 627.2668
6001.927, 584.3992
6003.855, 604.0265
6005.784, 609.6699
6007.712, 596.0335
6009.641, 584.0148
6011.569, 600.5616
6013.498, 632.2780
6015.426, 602.6233
6017.354, 570.3303
6019.283, 588.3093
6021.211, 585.5707
6023.140, 596.4800
6025.068, 582.0693
6026.997, 569.0041
6028.925, 581.3321
6030.854, 548.7240
6032.782, 579.4781
6034.710, 606.7656
6036.639, 605.9736
6038.567, 586.3976
6040.496, 574.9387
6042.424, 566.8123
6044.353, 585.9741
6046.281, 602.6013
6048.210, 585.8469
6050.138, 579.6476
6052.067, 575.7800
6053.995, 582.5769
6055.924, 589.2646
6057.852, 583.9213
6059.781, 580.0522
6061.709, 564.8582
6063.638, 587.3024
6065.566, 613.5041
6067.495, 597.3301
6069.423, 560.9659
6071.352, 567.6425
6073.280, 577.0375
6075.208, 577.5042
6077.137, 574.1569
6079.065, 567.3868
6080.994, 565.4175
6082.922, 586.4806
6084.851, 593.7349
6086.779, 565.8286
6088.708, 547.8518
6090.636, 558.6090
6092.564, 563.9241
6094.493, 565.5681
6096.421, 567.0084
6098.350, 554.2017
6100.278, 559.4945
6102.207, 573.6862
6104.135, 576.6495
6106.064, 567.2235
6107.992, 564.8644
6109.921, 533.0184
6111.849, 554.9692
6113.778, 572.6605
6115.706, 567.4144
6117.635, 569.0952
6119.563, 528.7128
6121.492, 550.5977
6123.420, 575.2993
6125.349, 564.2043
6127.277, 528.9300
6129.206, 570.6436
6131.134, 544.4115
6133.063, 550.0257
6134.991, 571.3594
6136.919, 569.9108
6138.848, 574.6387
6140.776, 537.4538
6142.705, 534.2906
6144.633, 532.8287
6146.562, 525.7201
6148.490, 555.5993
6150.418, 531.4795
6152.347, 526.0550
6154.275, 517.4018
6156.204, 522.3701
6158.132, 562.8065
6160.061, 529.9427
6161.989, 541.5676
6163.918, 541.8691
6165.846, 529.9817
6167.775, 526.7549
6169.703, 538.4536
6171.632, 515.0814
6173.560, 521.9005
6175.489, 535.4899
6177.417, 536.9169
6179.346, 531.3926
6181.274, 515.7758
6183.203, 517.3998
6185.131, 540.3485
6187.060, 544.8528
6188.988, 515.8626
6190.917, 514.7835
6192.845, 509.3609
6194.773, 490.4823
6196.702, 515.8116
6198.630, 549.5096
6200.559, 508.0840
6202.487, 532.6497
6204.416, 494.8499
6206.344, 503.8560
6208.272, 530.4834
6210.201, 520.5980
6212.129, 503.0133
6214.058, 532.5201
6215.986, 510.0107
6217.915, 492.3278
6219.843, 492.8246
6221.772, 488.9659
6223.700, 530.6409
6225.629, 543.0124
6227.557, 514.5872
6229.486, 493.9803
6231.414, 500.3975
6233.343, 504.7280
6235.271, 496.5196
6237.200, 491.8083
6239.128, 495.7162
6241.057, 507.7449
6242.985, 517.0134
6244.914, 495.0248
6246.842, 498.9148
6248.771, 511.0092
6250.699, 520.7101
6252.627, 509.5297
6254.556, 476.6660
6256.484, 511.9958
6258.413, 520.1667
6260.341, 499.4533
6262.270, 484.6372
6264.198, 479.3800
6266.126, 466.3954
6268.055, 499.8057
6269.983, 481.7162
6271.912, 488.5490
6273.840, 488.1192
6275.769, 480.7973
6277.697, 515.2121
6279.626, 475.9469
6281.554, 473.5129
6283.483, 484.5403
6285.411, 481.3867
6287.340, 472.8942
6289.268, 488.2260
6291.197, 476.8641
6293.125, 460.8395
6295.054, 468.5208
6296.982, 475.2953
6298.911, 474.7749
6300.839, 491.4933
6302.768, 480.4211
6304.696, 465.8831
6306.625, 467.5100
6308.553, 465.1754
6310.481, 453.9869
6312.410, 455.0666
6314.338, 448.3717
6316.267, 463.3352
6318.195, 461.1792
6320.124, 471.9283
6322.052, 486.0886
6323.980, 450.9770
6325.909, 484.0417
6327.837, 492.1497
6329.766, 468.6643
6331.694, 447.0211
6333.623, 440.1278
6335.551, 438.9275
6337.480, 456.6585
6339.408, 429.9774
6341.337, 434.7146
6343.265, 450.0765
6345.194, 467.0973
6347.122, 485.5457
6349.051, 439.0293
6350.979, 449.0286
6352.908, 458.8904
6354.836, 453.4421
6356.765, 458.5133
6358.693, 471.5686
6360.622, 437.3071
6362.550, 460.0826
6364.479, 451.4962
6366.407, 452.2578
6368.335, 459.8617
6370.264, 461.0799
6372.192, 457.2443
6374.121, 438.0611
6376.049, 439.2270
6377.978, 455.3029
6379.906, 435.7143
6381.834, 413.3584
6383.763, 440.7043
6385.691, 466.4527
6387.620, 448.8664
6389.548, 425.9935
6391.477, 419.6922
6393.405, 423.3832
6395.334, 427.3609
6397.262, 432.5382
6399.191, 448.6124
6401.119, 416.9440
6403.048, 438.9401
6404.976, 439.2271
6406.905, 421.2065
6408.833, 431.6965
6410.762, 424.3831
6412.690, 447.0675
6414.619, 432.6167
6416.547, 426.1010
6418.476, 430.4549
6420.404, 428.2885
6422.333, 417.6964
6424.261, 431.7889
6426.189, 435.5359
6428.118, 417.7730
6430.046, 415.1661
6431.975, 414.7169
6433.903, 405.9324
6435.832, 418.0594
6437.760, 431.6624
6439.688, 389.5344
6441.617, 397.8522
6443.545, 419.1418
6445.474, 429.0002
6447.402, 433.1226
6449.331, 427.0762
6451.259, 420.0506
6453.188, 403.2847
6455.116, 417.6178
6457.045, 425.7118
6458.973, 411.8790
6460.902, 394.7954
6462.830, 392.4072
6464.759, 402.0553
6466.687, 413.4212
6468.616, 405.0104
6470.544, 413.2340
6472.473, 410.4951
6474.401, 375.1245
6476.330, 411.3330
6478.258, 399.5996
6480.187, 414.5032
6482.115, 414.2794
6484.043, 393.2533
6485.972, 388.3522
6487.900, 411.1259
6489.829, 413.4874
6491.757, 386.1538
6493.686, 394.7868
6495.614, 387.4534
6497.542, 391.7822
6499.471, 399.6309
6501.399, 390.1336
6503.328, 377.0235
6505.256, 394.5425
6507.185, 393.5034
6509.113, 398.3625
6511.042, 389.7765
6512.970, 373.3586
6514.899, 369.1344
6516.827, 381.7911
6518.756, 376.7526
6520.684, 392.1815
6522.613, 407.6834
6524.541, 406.9721
6526.470, 393.8043
6528.398, 381.4343
6530.327, 382.8551
6532.255, 398.9554
6534.184, 387.6227
6536.112, 392.6912
6538.041, 392.6060
6539.969, 374.9706
6541.897, 356.5846
6543.826, 355.0729
6545.754, 371.2469
6547.683, 387.0158
6549.611, 396.0303
6551.540, 373.0529
6553.468, 367.5745
6555.396, 374.8432
6557.325, 389.5999
6559.253, 402.1906
6561.182, 386.9462
6563.110, 378.0037
6565.039, 373.6339
6566.967, 368.3861
6568.896, 362.7414
6570.824, 369.2789
6572.753, 373.8784
6574.681, 365.8881
6576.610, 383.1287
6578.538, 363.5279
6580.467, 370.5950
6582.395, 383.2718
6584.324, 377.9704
6586.252, 361.8978
6588.181, 352.2970
6590.109, 354.5539
6592.038, 358.4565
6593.966, 388.9248
6595.895, 386.6758
6597.823, 375.7942
6599.751, 347.3754
6601.680, 350.8102
6603.608, 369.2002
6605.537, 357.2300
6607.465, 359.6700
6609.394, 365.2740
6611.322, 370.4572
6613.250, 374.1933
6615.179, 354.2046
6617.107, 339.0658
6619.036, 352.8131
6620.964, 371.9211
6622.893, 346.9258
6624.821, 348.8279
6626.750, 359.0541
##END=



