##NAMES=Gatumbaite
##RRUFFID=R070388
##IDEAL CHEMISTRY=CaAl_2_(PO_4_)_2_(OH)_2_·H_2_O
##LOCALITY=Buranga pegmatite, Gatumba District, Gisenyi Province, Rwanda
##OWNER=RRUFF
##SOURCE=Michael Scott
##DESCRIPTION=Radial aggregate of colorless acicular crystals on trolleite associated with wardite
##STATUS=The identification of this mineral has been confirmed by single-crystal X-ray diffraction
##URL=https://www.rruff.net/odr/rruff_sample/R070388
##DIFFRACTION SAMPLE DESCRIPTION=Single crystal, powder profile is calculated
##CELL PARAMETERS=a: 6.916 b: 5.113 c: 10.771 alpha: 90 beta: 91.09 gamma: 90 volume: 380.8 crystal system: monoclinic
##FILETYPE=Raman RAW
##RAMAN WAVELENGTH=785

197.5413, 1049.296
199.4697, 1064.903
201.3982, 1078.196
203.3267, 1088.852
205.2551, 1100.046
207.1836, 1112.792
209.1121, 1126.368
211.0405, 1139.203
212.9690, 1151.837
214.8975, 1171.047
216.8259, 1198.852
218.7544, 1216.731
220.6829, 1217.060
222.6113, 1213.340
224.5398, 1207.276
226.4683, 1202.720
228.3967, 1206.262
230.3252, 1215.083
232.2537, 1215.986
234.1821, 1207.072
236.1106, 1202.030
238.0391, 1209.932
239.9675, 1213.619
241.8960, 1205.548
243.8245, 1196.655
245.7529, 1196.439
247.6814, 1198.706
249.6099, 1196.351
251.5383, 1192.010
253.4668, 1189.678
255.3953, 1187.816
257.3237, 1184.882
259.2522, 1182.619
261.1807, 1178.833
263.1091, 1167.959
265.0376, 1154.629
266.9661, 1149.056
268.8945, 1154.596
270.8230, 1156.967
272.7515, 1152.070
274.6799, 1147.140
276.6084, 1143.457
278.5369, 1142.335
280.4653, 1147.009
282.3938, 1150.091
284.3223, 1142.046
286.2507, 1124.286
288.1792, 1116.903
290.1077, 1124.692
292.0361, 1128.139
293.9646, 1121.558
295.8931, 1112.352
297.8215, 1104.430
299.7500, 1097.548
301.6785, 1090.981
303.6069, 1085.356
305.5354, 1078.337
307.4639, 1067.698
309.3923, 1064.239
311.3208, 1071.570
313.2493, 1079.776
315.1777, 1086.078
317.1062, 1092.201
319.0347, 1099.894
320.9631, 1105.757
322.8916, 1104.399
324.8201, 1099.674
326.7485, 1102.276
328.6770, 1111.598
330.6055, 1119.531
332.5339, 1125.875
334.4624, 1131.332
336.3909, 1134.852
338.3193, 1140.517
340.2478, 1154.330
342.1763, 1165.653
344.1047, 1161.535
346.0332, 1148.816
347.9617, 1145.237
349.8901, 1154.970
351.8186, 1162.509
353.7471, 1162.884
355.6756, 1164.323
357.6040, 1174.025
359.5325, 1180.408
361.4610, 1172.206
363.3894, 1158.063
365.3179, 1148.338
367.2464, 1143.116
369.1748, 1137.948
371.1033, 1132.197
373.0318, 1124.443
374.9602, 1115.723
376.8887, 1105.494
378.8172, 1092.525
380.7456, 1077.763
382.6741, 1059.528
384.6026, 1043.835
386.5310, 1036.841
388.4595, 1036.557
390.3880, 1035.534
392.3164, 1033.127
394.2449, 1031.245
396.1734, 1030.620
398.1018, 1029.328
400.0303, 1023.251
401.9588, 1022.206
403.8872, 1032.864
405.8157, 1046.004
407.7442, 1056.387
409.6726, 1065.223
411.6011, 1073.905
413.5296, 1081.884
415.4580, 1079.744
417.3865, 1063.694
419.3150, 1057.919
421.2434, 1076.838
423.1719, 1090.618
425.1004, 1088.530
427.0288, 1084.045
428.9573, 1084.004
430.8858, 1086.484
432.8142, 1089.866
434.7427, 1092.675
436.6712, 1091.801
438.5996, 1087.152
440.5281, 1082.097
442.4566, 1073.673
444.3850, 1071.768
446.3135, 1086.325
448.2420, 1093.485
450.1704, 1079.005
452.0989, 1063.451
454.0274, 1061.412
455.9558, 1064.439
457.8843, 1065.430
459.8128, 1063.924
461.7412, 1055.333
463.6697, 1037.419
465.5982, 1028.613
467.5266, 1032.993
469.4551, 1031.447
471.3836, 1017.702
473.3120, 1007.881
475.2405, 1012.069
477.1690, 1016.262
479.0974, 1012.452
481.0259, 1003.411
482.9544, 992.5096
484.8828, 980.9002
486.8113, 969.6652
488.7398, 958.0885
490.6682, 946.8438
492.5967, 935.7869
494.5252, 931.0801
496.4536, 937.1833
498.3821, 939.1841
500.3106, 928.0296
502.2390, 916.7368
504.1675, 910.4932
506.0960, 908.5109
508.0244, 908.3802
509.9529, 911.8847
511.8814, 922.7214
513.8098, 935.0791
515.7383, 940.3860
517.6667, 940.5406
519.5952, 939.0305
521.5237, 934.7963
523.4521, 931.1332
525.3806, 930.6584
527.3091, 927.3290
529.2375, 918.7411
531.1660, 912.5270
533.0945, 911.9804
535.0229, 911.0274
536.9514, 906.2387
538.8799, 899.2979
540.8083, 890.9088
542.7368, 882.8554
544.6653, 880.8043
546.5938, 884.1086
548.5222, 887.8225
550.4507, 894.6430
552.3792, 900.0870
554.3076, 901.4937
556.2361, 898.0266
558.1646, 888.4611
560.0930, 881.1902
562.0215, 881.4139
563.9500, 886.7921
565.8784, 891.9762
567.8069, 894.3524
569.7354, 900.7758
571.6638, 908.4612
573.5923, 907.0043
575.5208, 900.4638
577.4492, 898.7274
579.3777, 900.0223
581.3062, 902.5417
583.2346, 907.1910
585.1631, 913.4576
587.0916, 922.4008
589.0200, 922.6657
590.9485, 905.5842
592.8770, 895.0693
594.8054, 902.4903
596.7339, 910.1301
598.6624, 910.4526
600.5909, 911.2573
602.5193, 915.1112
604.4478, 916.7795
606.3763, 915.2928
608.3047, 913.0591
610.2332, 911.9254
612.1617, 910.7482
614.0901, 904.9124
616.0186, 893.5630
617.9471, 883.5540
619.8755, 879.6719
621.8040, 871.0598
623.7325, 841.7811
625.6609, 820.1089
627.5894, 823.1187
629.5179, 821.8622
631.4464, 802.1553
633.3748, 780.1631
635.3033, 767.5775
637.2318, 758.0137
639.1602, 749.9578
641.0887, 748.7393
643.0172, 743.9321
644.9456, 733.4572
646.8741, 728.1967
648.8026, 729.1235
650.7310, 728.8066
652.6595, 726.3378
654.5880, 722.9767
656.5164, 718.5758
658.4449, 716.3762
660.3734, 717.3467
662.3018, 714.3588
664.2303, 702.4773
666.1588, 687.2659
668.0872, 677.2510
670.0157, 672.8592
671.9442, 669.9366
673.8726, 668.2803
675.8011, 667.4577
677.7296, 664.5918
679.6580, 661.3568
681.5865, 660.6611
683.5150, 660.1714
685.4434, 656.6799
687.3719, 648.2036
689.3004, 641.4789
691.2288, 646.8835
693.1573, 656.1271
695.0858, 654.2119
697.0142, 645.7628
698.9427, 642.4640
700.8712, 642.2371
702.7996, 639.3766
704.7281, 636.9324
706.6566, 636.5825
708.5850, 635.9196
710.5135, 635.1629
712.4420, 634.1262
714.3704, 633.8993
716.2989, 632.7625
718.2274, 625.0844
720.1558, 615.3315
722.0843, 609.9631
724.0128, 608.9238
725.9412, 610.5171
727.8697, 609.3245
729.7982, 606.4931
731.7266, 608.6714
733.6551, 611.6260
735.5836, 610.4623
737.5120, 608.4568
739.4405, 609.1695
741.3690, 608.5970
743.2974, 601.5904
745.2259, 592.5259
747.1544, 588.1039
749.0828, 589.3524
751.0113, 591.8370
752.9398, 590.1924
754.8682, 588.3840
756.7967, 595.1312
758.7252, 605.0377
760.6536, 604.2285
762.5821, 594.9573
764.5106, 591.8481
766.4390, 594.6511
768.3675, 593.3213
770.2960, 587.3131
772.2244, 585.0597
774.1529, 589.7636
776.0814, 592.9084
778.0098, 590.4932
779.9383, 585.7936
781.8668, 583.8334
783.7952, 585.3633
785.7237, 579.2413
787.6522, 566.3331
789.5806, 563.1948
791.5091, 568.2261
793.4376, 572.3382
795.3660, 576.2357
797.2945, 573.8011
799.2230, 564.4081
801.1514, 563.3299
803.0799, 570.8658
805.0084, 572.2559
806.9368, 568.4554
808.8653, 569.5741
810.7938, 575.8003
812.7222, 576.3155
814.6507, 566.4216
816.5792, 561.2566
818.5076, 570.0269
820.4361, 574.4214
822.3646, 563.6530
824.2930, 555.4965
826.2215, 559.4896
828.1500, 562.7650
830.0784, 560.0123
832.0069, 555.1606
833.9354, 546.9647
835.8638, 541.9471
837.7923, 547.0035
839.7208, 551.4667
841.6492, 545.3054
843.5777, 538.7265
845.5062, 542.4429
847.4346, 548.0128
849.3631, 548.1965
851.2916, 546.1200
853.2200, 542.8091
855.1485, 539.0938
857.0770, 539.8375
859.0054, 543.3400
860.9339, 545.3098
862.8624, 547.4774
864.7908, 545.5883
866.7193, 540.5573
868.6478, 543.8435
870.5762, 552.5127
872.5047, 555.9495
874.4332, 554.6381
876.3616, 553.0421
878.2901, 551.8123
880.2186, 551.7159
882.1470, 553.2645
884.0755, 553.2240
886.0040, 550.0470
887.9324, 543.7382
889.8609, 536.4226
891.7894, 534.4066
893.7178, 535.9982
895.6463, 535.5989
897.5748, 534.7391
899.5032, 538.0699
901.4317, 543.3439
903.3602, 541.5867
905.2886, 534.7009
907.2171, 535.9460
909.1456, 544.4816
911.0740, 543.0222
913.0025, 531.4863
914.9310, 528.4340
916.8594, 534.6188
918.7879, 536.9050
920.7164, 534.6946
922.6448, 532.4803
924.5733, 530.0814
926.5018, 529.7556
928.4302, 532.3344
930.3587, 535.8492
932.2872, 539.8806
934.2156, 539.4391
936.1441, 533.0632
938.0726, 537.2546
940.0010, 555.3446
941.9295, 565.1441
943.8580, 563.4726
945.7864, 568.1078
947.7149, 582.0815
949.6434, 588.5585
951.5718, 584.6639
953.5003, 585.5914
955.4288, 591.2054
957.3572, 603.4014
959.2857, 625.0975
961.2142, 641.3917
963.1426, 650.5272
965.0711, 658.0502
966.9996, 662.6509
968.9280, 676.5175
970.8565, 703.8755
972.7850, 714.3651
974.7134, 702.2128
976.6419, 711.4322
978.5704, 746.3494
980.4988, 767.2175
982.4273, 771.9429
984.3558, 776.4910
986.2842, 782.5817
988.2127, 790.7789
990.1412, 801.5213
992.0696, 815.0183
993.9981, 829.1181
995.9266, 841.6586
997.8550, 854.3843
999.7835, 868.0852
1001.712, 882.1475
1003.640, 916.8173
1005.569, 972.4281
1007.497, 1021.950
1009.426, 1061.178
1011.354, 1095.607
1013.283, 1127.603
1015.211, 1147.928
1017.140, 1155.044
1019.068, 1162.278
1020.997, 1170.242
1022.925, 1159.128
1024.854, 1131.401
1026.782, 1097.728
1028.710, 1055.022
1030.639, 994.9020
1032.567, 923.6152
1034.496, 862.0861
1036.424, 810.8752
1038.353, 770.6580
1040.281, 738.0357
1042.210, 709.3505
1044.138, 687.1602
1046.067, 669.4879
1047.995, 654.5164
1049.924, 639.5400
1051.852, 624.5266
1053.781, 611.4248
1055.709, 604.8217
1057.637, 609.8561
1059.566, 612.1219
1061.494, 599.5604
1063.423, 586.2899
1065.351, 580.9166
1067.280, 578.5050
1069.208, 579.3663
1071.137, 577.7669
1073.065, 563.4443
1074.994, 548.6773
1076.922, 551.1072
1078.851, 555.9045
1080.779, 542.9252
1082.708, 528.3506
1084.636, 527.9584
1086.564, 529.7886
1088.493, 528.2160
1090.421, 529.1699
1092.350, 531.3915
1094.278, 529.6522
1096.207, 526.4271
1098.135, 526.2271
1100.064, 526.1885
1101.992, 527.9275
1103.921, 535.2435
1105.849, 536.1234
1107.778, 528.9363
1109.706, 526.3555
1111.635, 525.7763
1113.563, 522.1907
1115.492, 516.6619
1117.420, 509.7142
1119.349, 503.0299
1121.277, 504.9831
1123.205, 511.3038
1125.134, 514.8558
1127.062, 522.6116
1128.991, 521.2816
1130.919, 506.0217
1132.848, 497.9257
1134.776, 501.6653
1136.705, 511.0114
1138.633, 516.7618
1140.562, 513.3630
1142.490, 509.9003
1144.419, 508.3662
1146.347, 506.2370
1148.276, 506.4389
1150.204, 504.5354
1152.132, 496.6816
1154.061, 492.9785
1155.989, 499.8763
1157.918, 506.1987
1159.846, 501.1144
1161.775, 495.8963
1163.703, 503.4732
1165.632, 517.2499
1167.560, 526.8185
1169.489, 525.1210
1171.417, 520.6121
1173.346, 520.7690
1175.274, 514.8757
1177.203, 507.3558
1179.131, 507.0173
1181.059, 509.2356
1182.988, 511.1550
1184.916, 510.7699
1186.845, 509.5891
1188.773, 507.6333
1190.702, 503.3985
1192.630, 495.1477
1194.559, 485.4554
1196.487, 482.3302
1198.416, 480.6577
1200.344, 471.4785
1202.273, 460.6389
1204.201, 452.3423
1206.130, 448.4762
1208.058, 456.6964
1209.986, 462.3673
1211.915, 453.5894
1213.843, 443.0652
1215.772, 435.4173
1217.700, 433.9148
1219.629, 439.5767
1221.557, 440.2629
1223.486, 432.8613
1225.414, 430.4973
1227.343, 435.1092
1229.271, 434.7552
1231.200, 429.7066
1233.128, 425.7245
1235.057, 423.9539
1236.985, 427.9088
1238.913, 433.9464
1240.842, 439.3424
1242.770, 442.8688
1244.699, 441.7228
1246.627, 439.9770
1248.556, 437.6751
1250.484, 435.0301
1252.413, 433.7939
1254.341, 432.6678
1256.270, 433.2230
1258.198, 434.6043
1260.127, 432.8543
1262.055, 431.3189
1263.984, 432.0727
1265.912, 431.0102
1267.840, 429.0319
1269.769, 430.6316
1271.697, 432.3919
1273.626, 425.1816
1275.554, 416.5508
1277.483, 423.5372
1279.411, 434.3875
1281.340, 430.1226
1283.268, 422.5807
1285.197, 426.0540
1287.125, 431.0500
1289.054, 430.6522
1290.982, 426.1015
1292.911, 414.1694
1294.839, 408.5393
1296.767, 418.0970
1298.696, 422.2014
1300.624, 415.6481
1302.553, 416.3599
1304.481, 424.6915
1306.410, 422.2433
1308.338, 412.1447
1310.267, 413.9179
1312.195, 421.5621
1314.124, 417.4884
1316.052, 410.9475
1317.981, 413.2915
1319.909, 417.1133
1321.838, 419.2313
1323.766, 419.3213
1325.694, 415.9712
1327.623, 414.9286
1329.551, 417.8293
1331.480, 422.3204
1333.408, 429.0139
1335.337, 426.2505
1337.265, 415.8997
1339.194, 414.4447
1341.122, 417.7847
1343.051, 414.7903
1344.979, 411.2988
1346.908, 418.0204
1348.836, 423.0083
1350.765, 413.5995
1352.693, 410.1185
1354.621, 424.9353
1356.550, 429.7753
1358.478, 415.8842
1360.407, 407.2391
1362.335, 406.7422
1364.264, 417.2975
1366.192, 434.1774
1368.121, 429.8236
1370.049, 415.6865
1371.978, 414.6928
1373.906, 417.9991
1375.835, 418.5956
1377.763, 416.4810
1379.692, 409.2261
1381.620, 404.0986
1383.548, 402.5289
1385.477, 406.2461
1387.405, 415.6410
1389.334, 420.5849
1391.262, 419.9220
1393.191, 407.8409
1395.119, 391.8490
1397.048, 388.4870
1398.976, 392.0312
1400.905, 399.7654
1402.833, 405.5070
1404.762, 402.1447
1406.690, 402.6042
1408.619, 412.5522
1410.547, 415.6007
1412.475, 409.8066
1414.404, 409.3954
1416.332, 413.0321
1418.261, 409.5704
1420.189, 402.0611
1422.118, 393.7411
1424.046, 388.5917
1425.975, 392.9656
1427.903, 397.6310
1429.832, 395.1470
1431.760, 398.6818
1433.689, 414.8297
1435.617, 417.1220
1437.546, 405.0396
1439.474, 400.7458
1441.402, 402.4778
1443.331, 404.4566
1445.259, 406.2334
1447.188, 409.5984
1449.116, 409.0312
1451.045, 396.1126
1452.973, 387.8064
1454.902, 391.9619
1456.830, 394.3917
1458.759, 393.9447
1460.687, 399.4207
1462.616, 407.2523
1464.544, 396.0449
1466.473, 381.4892
1468.401, 386.4531
1470.329, 395.2259
1472.258, 399.1760
1474.186, 402.1231
1476.115, 406.8937
1478.043, 403.9084
1479.972, 391.1004
1481.900, 389.6987
1483.829, 395.8910
1485.757, 394.3445
1487.686, 390.5379
1489.614, 392.2702
1491.543, 393.6340
1493.471, 390.3382
1495.400, 390.9576
1497.328, 399.7693
1499.256, 398.5383
1501.185, 386.3870
1503.113, 383.4302
1505.042, 386.6494
1506.970, 392.0684
1508.899, 394.1471
1510.827, 382.2671
1512.756, 375.0537
1514.684, 381.1295
1516.613, 381.1285
1518.541, 370.9672
1520.470, 382.1947
1522.398, 408.1271
1524.327, 411.1479
1526.255, 403.1171
1528.183, 398.5270
1530.112, 395.8480
1532.040, 394.9183
1533.969, 393.3430
1535.897, 390.2508
1537.826, 393.1798
1539.754, 400.5747
1541.683, 393.4309
1543.611, 381.3298
1545.540, 382.8791
1547.468, 388.2116
1549.397, 391.4949
1551.325, 392.2621
1553.254, 389.8638
1555.182, 388.3346
1557.110, 387.9885
1559.039, 387.8268
1560.967, 388.2706
1562.896, 392.1732
1564.824, 394.3038
1566.753, 386.8006
1568.681, 382.7389
1570.610, 386.5388
1572.538, 393.6573
1574.467, 402.5655
1576.395, 394.3114
1578.324, 378.8186
1580.252, 376.2196
1582.181, 378.9057
1584.109, 382.4743
1586.037, 386.1070
1587.966, 390.6237
1589.894, 391.2858
1591.823, 388.3516
1593.751, 388.4192
1595.680, 388.5335
1597.608, 379.4388
1599.537, 374.4225
1601.465, 388.5805
1603.394, 396.6300
1605.322, 388.9090
1607.251, 386.0838
1609.179, 387.4106
1611.108, 387.0166
1613.036, 386.9995
1614.964, 392.4617
1616.893, 394.2339
1618.821, 383.5724
1620.750, 381.9404
1622.678, 394.8776
1624.607, 398.0051
1626.535, 393.0747
1628.464, 381.6917
1630.392, 371.4153
1632.321, 368.3209
1634.249, 368.0071
1636.178, 369.6181
1638.106, 371.1606
1640.035, 372.1954
1641.963, 366.5022
1643.891, 361.8378
1645.820, 377.6388
1647.748, 387.2762
1649.677, 374.9681
1651.605, 371.0142
1653.534, 381.1782
1655.462, 385.4208
1657.391, 384.2814
1659.319, 376.4645
1661.248, 371.3047
1663.176, 378.9894
1665.105, 384.4659
1667.033, 384.5027
1668.962, 377.8454
1670.890, 367.6163
1672.818, 369.9052
1674.747, 374.0046
1676.675, 364.2697
1678.604, 358.3632
1680.532, 362.5736
1682.461, 363.2465
1684.389, 360.4007
1686.318, 366.1831
1688.246, 373.2224
1690.175, 369.1311
1692.103, 364.3986
1694.032, 363.4976
1695.960, 364.6442
1697.889, 366.9343
1699.817, 360.4543
1701.745, 351.9785
1703.674, 353.0354
1705.602, 357.3007
1707.531, 364.0802
1709.459, 365.3810
1711.388, 360.8754
1713.316, 357.7093
1715.245, 357.1647
1717.173, 365.1970
1719.102, 368.6217
1721.030, 351.8478
1722.959, 347.8759
1724.887, 359.8420
1726.816, 361.7914
1728.744, 357.8827
1730.672, 355.7075
1732.601, 354.5067
1734.529, 353.7773
1736.458, 353.9147
1738.386, 354.8319
1740.315, 361.9468
1742.243, 368.5186
1744.172, 360.4413
1746.100, 351.3686
1748.029, 346.0455
1749.957, 350.3431
1751.886, 363.7749
1753.814, 355.9707
1755.743, 342.7505
1757.671, 349.9160
1759.599, 355.2832
1761.528, 348.0020
1763.456, 345.4131
1765.385, 347.8088
1767.313, 346.2789
1769.242, 344.0226
1771.170, 344.3674
1773.099, 346.0467
1775.027, 348.9229
1776.956, 351.6833
1778.884, 353.5920
1780.813, 349.9565
1782.741, 347.5933
1784.670, 354.3385
1786.598, 353.5987
1788.526, 341.6230
1790.455, 341.2552
1792.383, 348.2180
1794.312, 355.1120
1796.240, 357.4153
1798.169, 352.0820
1800.097, 347.9153
1802.026, 345.9900
1803.954, 343.9957
1805.883, 343.0916
1807.811, 347.6031
1809.740, 347.3641
1811.668, 338.6263
1813.597, 339.7005
1815.525, 347.3674
1817.453, 344.1051
1819.382, 342.0967
1821.310, 357.9294
1823.239, 357.4994
1825.167, 339.2564
1827.096, 335.2999
1829.024, 340.0136
1830.953, 349.4893
1832.881, 351.5089
1834.810, 339.8452
1836.738, 328.0795
1838.667, 319.9264
1840.595, 325.0395
1842.524, 333.3785
1844.452, 339.2724
1846.380, 339.8066
1848.309, 335.7527
1850.237, 333.3538
1852.166, 331.2921
1854.094, 327.7074
1856.023, 327.8374
1857.951, 334.4669
1859.880, 341.0171
1861.808, 344.9553
1863.737, 335.4634
1865.665, 326.6515
1867.594, 328.4449
1869.522, 327.3714
1871.451, 322.9578
1873.379, 322.6368
1875.307, 327.6282
1877.236, 343.1506
1879.164, 345.7101
1881.093, 327.4091
1883.021, 329.0895
1884.950, 337.9693
1886.878, 332.9129
1888.807, 328.9769
1890.735, 332.0136
1892.664, 325.6295
1894.592, 315.6609
1896.521, 327.7517
1898.449, 337.4910
1900.378, 330.4976
1902.306, 324.6157
1904.234, 321.7099
1906.163, 325.7215
1908.091, 329.2935
1910.020, 323.4330
1911.948, 320.3752
1913.877, 322.7688
1915.805, 320.3336
1917.734, 316.6914
1919.662, 317.9872
1921.591, 317.8474
1923.519, 315.4493
1925.448, 317.9802
1927.376, 322.3310
1929.305, 323.5855
1931.233, 323.1275
1933.161, 320.7246
1935.090, 317.5766
1937.018, 315.6464
1938.947, 319.0649
1940.875, 320.5135
1942.804, 318.1854
1944.732, 317.8555
1946.661, 318.7790
1948.589, 321.4936
1950.518, 323.8056
1952.446, 323.7589
1954.375, 320.2582
1956.303, 316.7438
1958.232, 320.5577
1960.160, 321.3311
1962.089, 312.5197
1964.017, 307.7285
1965.945, 306.4608
1967.874, 313.7930
1969.802, 319.6665
1971.731, 315.3815
1973.659, 317.1839
1975.588, 322.4161
1977.516, 318.8922
1979.445, 313.3213
1981.373, 311.1655
1983.302, 308.1476
1985.230, 304.4696
1987.159, 308.3862
1989.087, 311.0197
1991.016, 303.6310
1992.944, 298.1930
1994.872, 297.7981
1996.801, 304.6196
1998.729, 308.8492
2000.658, 307.0731
2002.586, 304.1187
2004.515, 299.9406
2006.443, 306.2807
2008.372, 310.6752
2010.300, 304.8341
2012.229, 301.5384
2014.157, 299.9875
2016.086, 297.3148
2018.014, 294.7839
2019.943, 295.0439
2021.871, 292.8547
2023.799, 289.8758
2025.728, 305.4249
2027.656, 312.2031
2029.585, 297.4918
2031.513, 289.3225
2033.442, 288.8654
2035.370, 298.9341
2037.299, 306.5596
2039.227, 308.1710
2041.156, 311.5883
2043.084, 312.2447
2045.013, 301.4308
2046.941, 292.8146
2048.869, 288.4523
2050.798, 285.9519
2052.726, 287.4892
2054.655, 301.2519
2056.583, 302.2090
2058.512, 291.5078
2060.440, 299.8219
2062.369, 307.3067
2064.297, 290.7039
2066.226, 295.0765
2068.154, 312.8017
2070.083, 303.7261
2072.011, 292.7345
2073.939, 295.4921
2075.868, 291.4847
2077.796, 284.8693
2079.725, 284.0524
2081.654, 285.6843
2083.582, 289.1551
2085.510, 292.1087
2087.439, 294.8601
2089.367, 298.9342
2091.296, 296.9077
2093.224, 287.7888
2095.153, 298.0416
2097.081, 305.1761
2099.010, 283.7564
2100.938, 277.6013
2102.867, 285.0640
2104.795, 281.0100
2106.724, 277.0121
2108.652, 279.5735
2110.581, 278.3466
2112.509, 276.5151
2114.438, 281.3150
2116.366, 285.7513
2118.294, 287.9399
2120.223, 293.9592
2122.151, 296.3340
2124.080, 287.2665
2126.008, 282.2260
2127.937, 282.9649
2129.865, 291.9715
2131.794, 291.6075
2133.722, 273.3424
2135.651, 271.9846
2137.579, 278.1996
2139.508, 272.0407
2141.436, 269.3286
2143.365, 273.4409
2145.293, 282.3537
2147.221, 284.4779
2149.150, 269.4761
2151.078, 264.4917
2153.007, 269.1710
2154.935, 277.6343
2156.864, 279.6371
2158.792, 273.0925
2160.721, 269.0454
2162.649, 269.7632
2164.578, 282.7341
2166.506, 282.0421
2168.435, 271.6806
2170.363, 278.6165
2172.292, 283.2508
2174.220, 276.2069
2176.148, 268.1783
2178.077, 264.5825
2180.005, 273.1821
2181.934, 271.0183
2183.862, 261.9019
2185.791, 266.2491
2187.719, 270.3676
2189.648, 269.3896
2191.576, 269.1751
2193.505, 268.0091
2195.433, 265.1967
2197.362, 267.0231
2199.290, 273.0738
2201.219, 267.3692
2203.147, 259.8981
2205.075, 253.7785
2207.004, 262.0842
2208.932, 274.0417
2210.861, 269.5600
2212.789, 268.9647
2214.718, 274.1020
2216.646, 268.2235
2218.575, 264.9834
2220.503, 270.2577
2222.432, 269.4882
2224.360, 265.0480
2226.289, 259.6837
2228.217, 257.7666
2230.146, 259.2709
2232.074, 268.0841
2234.002, 268.1613
2235.931, 253.1753
2237.859, 256.5514
2239.788, 268.8580
2241.716, 271.6403
2243.645, 271.7167
2245.573, 272.7899
2247.502, 267.3809
2249.430, 259.4042
2251.359, 250.7021
2253.287, 254.6985
2255.216, 261.8891
2257.144, 259.9601
2259.073, 256.5445
2261.001, 255.1946
2262.929, 252.3958
2264.858, 250.5872
2266.786, 249.5484
2268.715, 252.3430
2270.643, 256.6495
2272.572, 256.3450
2274.500, 255.6494
2276.429, 257.7544
2278.357, 254.8102
2280.286, 253.2796
2282.214, 255.1051
2284.143, 256.2221
2286.071, 256.8735
2288.000, 252.1138
2289.928, 244.8870
2291.856, 242.6414
2293.785, 252.2155
2295.713, 250.5820
2297.642, 240.7163
2299.570, 245.9520
2301.499, 250.4540
2303.427, 249.3756
2305.356, 248.9131
2307.284, 244.4033
2309.213, 239.6142
2311.141, 242.5549
2313.070, 242.8841
2314.998, 238.8140
2316.927, 239.1803
2318.855, 243.0991
2320.783, 244.8264
2322.712, 243.9818
2324.640, 246.5335
2326.569, 250.8094
2328.497, 246.5230
2330.426, 240.3269
2332.354, 246.9809
2334.283, 244.6218
2336.211, 234.4304
2338.140, 240.4107
2340.068, 243.1384
2341.997, 232.8850
2343.925, 235.1589
2345.854, 240.3428
2347.782, 242.7203
2349.710, 242.7686
2351.639, 234.4711
2353.567, 227.4610
2355.496, 226.6380
2357.424, 226.7228
2359.353, 234.7959
2361.281, 240.2889
2363.210, 238.1652
2365.138, 234.1152
2367.067, 232.0816
2368.995, 236.1816
2370.924, 240.5554
2372.852, 240.3873
2374.781, 234.8759
2376.709, 228.9181
2378.637, 226.7492
2380.566, 233.4480
2382.494, 229.2146
2384.423, 221.1841
2386.351, 224.1697
2388.280, 225.0499
2390.208, 223.7090
2392.137, 229.8352
2394.065, 231.2762
2395.994, 223.7003
2397.922, 221.2169
2399.851, 225.5417
2401.779, 227.8668
2403.708, 220.7323
2405.636, 221.6963
2407.564, 224.1975
2409.493, 226.1397
2411.421, 226.4069
2413.350, 219.2139
2415.278, 219.9955
2417.207, 224.3811
2419.135, 221.1291
2421.064, 213.4117
2422.992, 212.6201
2424.921, 212.0105
2426.849, 215.5784
2428.778, 219.5816
2430.706, 215.8401
2432.635, 214.6265
2434.563, 215.6570
2436.491, 211.3537
2438.420, 215.3030
2440.348, 219.2296
2442.277, 211.9431
2444.205, 214.1926
2446.134, 219.1001
2448.062, 207.2477
2449.991, 204.9198
2451.919, 211.3807
2453.848, 210.7112
2455.776, 207.1835
2457.705, 203.2094
2459.633, 204.9383
2461.562, 208.2259
2463.490, 209.6051
2465.418, 207.8946
2467.347, 202.4457
2469.275, 195.2631
2471.204, 203.5553
2473.132, 210.2643
2475.061, 208.9223
2476.989, 209.0977
2478.918, 207.9553
2480.846, 209.8717
2482.775, 207.0077
2484.703, 200.9053
2486.632, 200.4397
2488.560, 202.9151
2490.489, 203.8331
2492.417, 206.0386
2494.345, 205.0171
2496.274, 201.0081
2498.202, 197.5723
2500.131, 195.7341
2502.059, 195.5155
2503.988, 198.3031
2505.916, 198.4438
2507.845, 195.0659
2509.773, 190.0220
2511.702, 184.7284
2513.630, 183.3972
2515.559, 191.7982
2517.487, 195.5353
2519.416, 192.3494
2521.344, 187.7558
2523.272, 188.5142
2525.201, 190.8267
2527.129, 191.2725
2529.058, 192.0727
2530.986, 189.8862
2532.915, 183.1580
2534.843, 182.3754
2536.772, 184.6133
2538.700, 180.9948
2540.629, 183.8204
2542.557, 190.1493
2544.486, 187.2834
2546.414, 184.8811
2548.343, 184.8225
2550.271, 176.7758
2552.199, 180.1514
2554.128, 188.0865
2556.056, 184.6118
2557.985, 182.5330
2559.913, 179.6707
2561.842, 172.3852
2563.770, 175.0671
2565.699, 180.2346
2567.627, 174.9809
2569.556, 175.1082
2571.484, 177.2741
2573.413, 175.9319
2575.341, 177.4300
2577.270, 178.7712
2579.198, 177.6995
2581.126, 179.1672
2583.055, 180.2536
2584.983, 178.4376
2586.912, 171.8326
2588.840, 168.3262
2590.769, 175.3055
2592.697, 173.3217
2594.626, 169.4624
2596.554, 170.2064
2598.483, 172.6648
2600.411, 173.2268
2602.340, 169.9753
2604.268, 162.4651
2606.197, 164.7626
2608.125, 181.7355
2610.053, 174.0968
2611.982, 164.9063
2613.910, 165.1658
2615.839, 167.3986
2617.767, 169.5881
2619.696, 170.1066
2621.624, 168.2319
2623.553, 163.6384
2625.481, 157.1708
2627.410, 158.3347
2629.338, 159.0972
2631.267, 157.6877
2633.195, 156.6127
2635.124, 160.5425
2637.052, 165.0497
2638.980, 160.1757
2640.909, 161.1096
2642.837, 162.9412
2644.766, 155.8620
2646.694, 151.4535
2648.623, 151.7586
2650.551, 160.1752
2652.480, 158.5490
2654.408, 156.5615
2656.337, 161.6692
2658.265, 154.1382
2660.194, 147.3522
2662.122, 150.2817
2664.051, 149.6492
2665.979, 150.7045
2667.907, 156.3183
2669.836, 157.6439
2671.764, 153.9421
2673.693, 147.6998
2675.621, 149.6526
2677.550, 150.2634
2679.478, 148.0959
2681.407, 150.8154
2683.335, 152.1069
2685.264, 150.3486
2687.192, 147.4082
2689.121, 148.4914
2691.049, 148.6276
2692.978, 144.7818
2694.906, 144.8359
2696.834, 146.7978
2698.763, 147.7722
2700.691, 145.4010
2702.620, 139.7621
2704.548, 135.2157
2706.477, 143.9018
2708.405, 143.3572
2710.334, 138.2540
2712.262, 137.5476
2714.191, 134.3758
2716.119, 135.9462
2718.048, 136.4733
2719.976, 136.5914
2721.905, 134.5427
2723.833, 131.2064
2725.761, 132.3195
2727.690, 132.6491
2729.618, 132.6367
2731.547, 127.2774
2733.475, 126.1850
2735.404, 134.5328
2737.332, 137.0042
2739.261, 135.1059
2741.189, 132.6762
2743.118, 127.8340
2745.046, 126.2658
2746.975, 126.4628
2748.903, 121.2309
2750.832, 121.8854
2752.760, 122.9936
2754.688, 122.6259
2756.617, 117.9788
2758.545, 117.5789
2760.474, 121.2640
2762.402, 125.1004
2764.331, 125.2408
2766.259, 124.2268
2768.188, 117.7608
2770.116, 119.6900
2772.045, 123.7988
2773.973, 120.8752
2775.902, 120.2847
2777.830, 118.9616
2779.759, 122.0327
2781.687, 118.3108
2783.615, 114.5590
2785.544, 115.6216
2787.472, 118.3136
2789.401, 118.3634
2791.329, 114.0403
2793.258, 110.0085
2795.186, 107.9132
2797.115, 112.3085
2799.043, 120.6752
2800.972, 117.0424
2802.900, 112.1292
2804.829, 107.7972
2806.757, 107.8131
2808.686, 108.2609
2810.614, 110.9569
2812.542, 109.4058
2814.471, 102.6685
2816.399, 104.8238
2818.328, 107.3012
2820.256, 103.6488
2822.185, 99.37036
2824.113, 102.0310
2826.042, 100.2493
2827.970, 102.4405
2829.899, 101.4093
2831.827, 98.48587
2833.756, 97.78014
2835.684, 100.3642
2837.613, 106.4842
2839.541, 104.9055
2841.469, 100.4203
2843.398, 98.99416
2845.326, 95.78705
2847.255, 95.98264
2849.183, 96.06496
2851.112, 94.24861
2853.040, 93.91884
2854.969, 96.08327
2856.897, 96.03239
2858.826, 93.93035
2860.754, 94.49742
2862.683, 91.17304
2864.611, 92.29574
2866.540, 96.40189
2868.468, 96.50220
2870.396, 88.01255
2872.325, 86.47102
2874.253, 93.88479
2876.182, 98.17800
2878.110, 83.01508
2880.039, 82.16265
2881.967, 89.97192
2883.896, 84.65049
2885.824, 87.40276
2887.753, 85.61708
2889.681, 86.17571
2891.610, 85.25674
2893.538, 81.40644
2895.467, 80.28798
2897.395, 79.55885
2899.323, 82.55537
2901.252, 80.92267
2903.180, 77.20069
2905.109, 76.00100
2907.037, 78.60895
2908.966, 82.27436
2910.894, 79.66675
2912.823, 79.27134
2914.751, 79.13338
2916.680, 84.55671
2918.608, 83.06444
2920.537, 78.90533
2922.465, 76.27687
2924.394, 77.63404
2926.322, 68.18246
2928.250, 66.66503
2930.179, 76.33614
2932.107, 71.91475
2934.036, 71.14656
2935.964, 73.68836
2937.893, 72.46864
2939.821, 76.10651
2941.750, 79.05349
2943.678, 78.56313
2945.607, 68.90826
2947.535, 69.76031
2949.464, 68.81927
2951.392, 65.75864
2953.321, 65.90465
2955.249, 65.56476
2957.177, 68.57763
2959.106, 68.60015
2961.034, 67.92672
2962.963, 64.61286
2964.891, 60.83672
2966.820, 64.27789
2968.748, 63.44376
2970.677, 62.82584
2972.605, 64.05608
2974.534, 64.14969
2976.462, 62.37588
2978.391, 60.04622
2980.319, 59.27449
2982.248, 61.95537
2984.176, 60.72537
2986.104, 58.71867
2988.033, 57.64649
2989.961, 57.45452
2991.890, 59.54216
2993.818, 57.56232
2995.747, 57.24807
2997.675, 53.80355
2999.604, 49.48394
3001.532, 51.35068
3003.461, 57.02315
3005.389, 58.82279
3007.318, 57.65004
3009.246, 55.34840
3011.175, 55.52888
3013.103, 54.34492
3015.031, 52.67038
3016.960, 51.07119
3018.888, 50.62786
3020.817, 49.83727
3022.745, 49.89217
3024.674, 52.53760
3026.602, 50.88642
3028.531, 46.60151
3030.459, 44.22549
3032.388, 49.17508
3034.316, 53.01516
3036.245, 53.12001
3038.173, 50.67989
3040.102, 43.88529
3042.030, 40.76092
3043.958, 42.92546
3045.887, 49.96976
3047.815, 51.58510
3049.744, 47.89714
3051.672, 41.57349
3053.601, 46.82661
3055.529, 48.64483
3057.458, 47.69542
3059.386, 45.92390
3061.315, 46.78229
3063.243, 42.18308
3065.172, 38.49285
3067.100, 44.86226
3069.029, 43.37435
3070.957, 43.67213
3072.885, 44.63614
3074.814, 39.91323
3076.742, 42.05931
3078.671, 41.10605
3080.599, 38.13784
3082.528, 40.95208
3084.456, 43.38009
3086.385, 43.31310
3088.313, 40.46952
3090.242, 34.35560
3092.170, 38.06192
3094.099, 40.56131
3096.027, 38.06266
3097.956, 36.14323
3099.884, 34.94857
3101.813, 35.32755
3103.741, 35.88073
3105.669, 30.76424
3107.598, 32.82446
3109.526, 33.37796
3111.455, 28.59085
3113.383, 32.74117
3115.312, 33.55408
3117.240, 34.20587
3119.169, 35.72309
3121.097, 30.39504
3123.026, 34.04263
3124.954, 35.46131
3126.883, 29.48376
3128.811, 28.06253
3130.740, 23.67799
3132.668, 22.95587
3134.596, 28.04011
3136.525, 28.50646
3138.453, 27.40764
3140.382, 30.75201
3142.310, 36.51587
3144.239, 27.12006
3146.167, 27.47698
3148.096, 27.34836
3150.024, 22.69917
3151.953, 24.76490
3153.881, 24.98643
3155.810, 26.47829
3157.738, 28.37895
3159.667, 22.11506
3161.595, 25.84343
3163.523, 29.56988
3165.452, 27.27676
3167.380, 27.33862
3169.309, 31.83694
3171.237, 26.12100
3173.166, 16.92457
3175.094, 25.11447
3177.023, 24.47739
3178.951, 21.92907
3180.880, 24.04540
3182.808, 30.53242
3184.737, 25.03711
3186.665, 23.00807
3188.594, 23.47631
3190.522, 20.92091
3192.450, 19.21957
3194.379, 21.64598
3196.307, 24.41692
3198.236, 23.62505
3200.164, 25.03540
3202.093, 24.52187
3204.021, 24.39748
3205.950, 25.53736
3207.878, 23.29146
3209.807, 16.50103
3211.735, 15.08058
3213.664, 21.14909
3215.592, 19.43186
3217.521, 20.73398
3219.449, 21.34017
3221.377, 21.43318
3223.306, 23.01378
3225.234, 19.37425
3227.163, 22.18300
3229.091, 26.40162
3231.020, 22.66961
3232.948, 22.63390
3234.877, 22.69490
3236.805, 22.04094
3238.734, 20.18444
3240.662, 19.28834
3242.591, 22.37254
3244.519, 22.62839
3246.448, 20.72455
3248.376, 26.62097
3250.304, 21.80669
3252.233, 17.62842
3254.161, 18.36649
3256.090, 20.25483
3258.018, 20.66311
3259.947, 20.12451
3261.875, 19.83489
3263.804, 19.81250
3265.732, 19.63663
3267.661, 20.96485
3269.589, 22.97907
3271.518, 22.85932
3273.446, 19.74631
3275.375, 19.38685
3277.303, 20.44390
3279.231, 19.35307
3281.160, 16.72608
3283.088, 22.02082
3285.017, 17.86104
3286.945, 14.04617
3288.874, 16.13297
3290.802, 21.41866
3292.731, 16.82769
3294.659, 11.89639
3296.588, 12.53315
3298.516, 16.32030
3300.445, 24.43083
3302.373, 21.21364
3304.302, 14.67039
3306.230, 11.88548
3308.158, 18.59502
3310.087, 13.79602
3312.015, 12.48843
3313.944, 14.40435
3315.872, 15.57543
3317.801, 13.67863
3319.729, 15.05082
3321.658, 15.59504
3323.586, 14.06252
3325.515, 12.84627
3327.443, 18.61109
3329.372, 16.63068
3331.300, 14.05288
3333.229, 16.49769
3335.157, 18.45815
3337.085, 14.17978
3339.014, 15.25321
3340.942, 18.98596
3342.871, 16.12429
3344.799, 15.62166
3346.728, 12.58370
3348.656, 10.13053
3350.585, 9.078527
3352.513, 8.466748
3354.442, 9.096091
3356.370, 7.790601
3358.299, 8.975410
3360.227, 13.28253
3362.156, 15.07299
3364.084, 12.70632
3366.012, 12.43030
3367.941, 12.01693
3369.869, 8.564260
3371.798, 10.73258
3373.726, 8.336125
3375.655, 6.583375
3377.583, 8.832061
3379.512, 14.05481
3381.440, 10.51203
3383.369, 5.706244
3385.297, 6.465120
3387.226, 11.15226
3389.154, 10.49198
3391.083, 15.37458
3393.011, 15.28599
3394.939, 13.35354
3396.868, 12.77068
3398.796, 9.642161
3400.725, 10.47461
3402.653, 5.984225
3404.582, 3.033165
3406.510, 6.280519
3408.439, 4.166305
3410.367, 10.21490
3412.296, 14.01905
3414.224, 14.16794
3416.153, 12.74510
3418.081, 11.11190
3420.010, 11.93062
3421.938, 10.12216
3423.866, 8.726093
3425.795, 10.77744
3427.723, 7.334393
3429.652, 11.55369
3431.580, 12.72747
3433.509, 10.21162
3435.437, 8.199072
3437.366, 12.46489
3439.294, 15.06316
3441.223, 10.59301
3443.151, 9.061793
3445.080, 14.88781
3447.008, 6.606427
3448.937, 10.83928
3450.865, 9.724727
3452.793, 8.613599
3454.722, 12.38674
3456.650, 8.272289
3458.579, 5.915547
3460.507, 10.94907
3462.436, 9.139216
3464.364, -1.0091700E-02
3466.293, 6.060721
3468.221, 8.164131
3470.150, 6.544807
3472.078, 8.355371
3474.007, 12.42461
3475.935, 10.43893
3477.864, 9.388152
3479.792, 9.591300
3481.720, 7.482025
3483.649, 6.282645
3485.577, 10.65219
3487.506, 9.665794
3489.434, 8.509350
3491.363, 8.623944
3493.291, 8.978286
3495.220, 9.062078
3497.148, 12.83374
3499.077, 7.742041
3501.005, 9.883286
3502.934, 14.23601
3504.862, 13.70656
3506.791, 7.776134
3508.719, 11.38596
3510.647, 13.22838
3512.576, 12.22808
3514.504, 9.884475
3516.433, 7.553875
3518.361, 8.118992
3520.290, 8.082383
3522.218, 9.017507
3524.147, 10.40159
3526.075, 11.07554
3528.004, 10.45966
3529.932, 8.650189
3531.861, 9.210910
3533.789, 11.03261
3535.718, 10.49167
3537.646, 5.054389
3539.574, 7.579715
3541.503, 8.683266
3543.431, 5.777766
3545.360, 8.968827
3547.288, 16.61242
3549.217, 6.337628
3551.145, 3.963359
3553.074, 2.422602
3555.002, 8.231507
3556.931, 14.07753
3558.859, 9.736632
3560.788, 8.353268
3562.716, 2.260516
3564.645, 4.345873
3566.573, 6.975940
3568.501, 6.965029
3570.430, 9.310913
3572.358, 5.986741
3574.287, 7.208986
3576.215, 12.38501
3578.144, 16.06120
3580.072, 14.72491
3582.001, 9.860274
3583.929, 10.99670
3585.858, 10.68118
3587.786, 6.888833
3589.715, 5.812720
3591.643, 10.21833
3593.572, 11.55634
3595.500, 7.102888
3597.428, 5.749493
3599.357, 4.714514
3601.285, 5.752915
3603.214, 10.18908
3605.142, 8.795254
3607.071, 8.405143
3608.999, 3.535551
3610.928, 4.440592
3612.856, 8.482322
3614.785, 8.511480
3616.713, 8.644139
3618.642, 7.842828
3620.570, 1.933467
3622.499, 3.453840
3624.427, 6.757623
3626.355, 3.023485
3628.284, 2.007189
3630.212, 1.892154
3632.141, 1.229748
3634.069, 4.455817
3635.998, 7.348353
3637.926, 5.727428
3639.855, 3.458734
3641.783, -1.433689
3643.712, 1.653354
3645.640, 4.312618
3647.569, 2.029485
3649.497, -4.1469231E-02
3651.426, 6.253264
3653.354, 3.396665
3655.282, 4.341920
3657.211, 2.694536
3659.139, 6.388035
3661.068, 11.47878
3662.996, 6.931983
3664.925, 6.673330
3666.853, 6.250688
3668.782, 9.103981
3670.710, 9.654217
3672.639, 8.905446
3674.567, 9.557175
3676.496, 7.966517
3678.424, 6.254522
3680.353, 4.535960
3682.281, 7.917987
3684.209, 7.289955
3686.138, 1.915616
3688.066, 1.916433
3689.995, 1.917250
3691.923, 1.486345
3693.852, 4.354710
3695.780, 5.370826
3697.709, 2.664881
3699.637, 0.5105065
3701.566, 5.412868
3703.494, 3.904638
3705.423, -1.429750
3707.351, 3.083970
3709.280, 5.290042
3711.208, 3.050516
3713.136, 3.893367
3715.065, 4.118642
3716.993, 1.149787
3718.922, -2.321540
3720.850, -1.301476
3722.779, 2.219294
3724.707, 3.272863
3726.636, 0.1308756
3728.564, -1.051646
3730.493, 1.161375
3732.421, 2.662826
3734.350, 2.435325
3736.278, 2.183287
3738.207, 1.520332
3740.135, -0.8826078
3742.063, -1.454778
3743.992, 4.455928
3745.920, 4.577723
3747.849, 3.455875
3749.777, 5.531745
3751.706, 7.264841
3753.634, 4.005301
3755.563, 3.148214
3757.491, 1.195428
3759.420, 2.154039
3761.348, 3.099220
3763.277, 4.968408
3765.205, 6.970713
3767.134, 6.834444
3769.062, 4.450824
3770.990, -1.942307
3772.919, -1.090147
3774.847, 0.6571293
3776.776, 4.127594
3778.704, 5.101419
3780.633, 0.1139187
3782.561, -5.571790
3784.490, -0.3622157
3786.418, 5.460691
3788.347, 1.191606
3790.275, 0.9585183
3792.204, 0.5490167
3794.132, -1.755881
3796.061, -1.079539
3797.989, -1.144235
3799.917, 1.532011
3801.846, 0.1532628
3803.774, 7.736362
3805.703, 7.012784
3807.631, 4.141146
3809.560, 5.136934
3811.488, 1.966797
3813.417, 6.674052
3815.345, 2.648329
3817.274, 4.349813
3819.202, 3.024696
3821.131, 3.011597
3823.059, 3.205886
3824.988, 2.263454
3826.916, 4.819695
3828.844, 5.014647
3830.773, 4.451921
3832.701, 1.079219
3834.630, 5.707433
3836.558, 4.485883
3838.487, 2.015564
3840.415, 5.216436
3842.344, 5.852353
3844.272, 2.560113
3846.201, -0.6144537
3848.129, -4.6243049E-02
3850.058, 3.467225
3851.986, 5.066216
3853.915, 2.391335
3855.843, -1.244889
3857.771, -0.6397976
3859.700, 3.741226
3861.628, 2.463213
3863.557, 0.8175992
3865.485, -2.629076
3867.414, 0.7782230
3869.342, 0.4616745
3871.271, 5.5041209E-02
3873.199, 3.063355
3875.128, -2.824516
3877.056, -2.287170
3878.985, 0.3597223
3880.913, 1.829520
3882.842, 1.633179
3884.770, -0.7476083
3886.698, 1.732663
3888.627, 5.704521
3890.555, 3.767468
3892.484, 2.107082
3894.412, 8.700787
3896.341, 3.571581
3898.269, 0.4599962
3900.198, 0.8479415
3902.126, -0.2059360
3904.055, -0.1820949
3905.983, 0.4180819
3907.912, 0.5842300
3909.840, 5.923702
3911.769, 7.689204
3913.697, -3.502331
3915.625, 9.552571
3917.554, 2.804291
3919.482, -1.133415
3921.411, 3.651171
3923.339, 6.742728
3925.268, 4.299963
3927.196, 2.568556
3929.125, 8.103303
3931.053, 0.2609175
3932.982, -0.6853433
3934.910, -3.573735
3936.839, -1.507439
3938.767, -1.265287
3940.696, 2.336877
3942.624, 4.054742
3944.552, -2.009783
3946.481, -1.083592
3948.409, 3.037640
3950.338, -3.227507
3952.266, -2.913545
3954.195, 0.5301893
3956.123, 2.997043
3958.052, 5.285156
3959.980, 5.545590
3961.909, 3.573084
3963.837, 2.150731
3965.766, 1.683428
3967.694, -0.9832918
3969.623, 7.304079
3971.551, 4.710413
3973.479, 5.690601
3975.408, 6.447351
3977.336, -0.5861825
3979.265, 2.821147
3981.193, 4.564733
3983.122, -1.170646
3985.050, 3.434323
3986.979, 5.994267
3988.907, 2.284411
3990.836, 3.636407
3992.764, 5.834332
3994.693, 5.667706
3996.621, 4.351368
3998.550, 0.7930198
4000.478, -0.6951485
4002.406, -3.5371680E-02
4004.335, 2.400302
4006.263, 4.248830
4008.192, -3.932789
4010.120, 1.479654
4012.049, 6.135744
4013.977, 1.086423
4015.906, 0.9872483
4017.834, -0.2128917
4019.763, -1.504652
4021.691, -3.143778
4023.620, -0.4882608
4025.548, -0.3499555
4027.477, -2.319006
4029.405, 4.537753
4031.333, 1.363093
4033.262, 2.262410
4035.190, -2.813829
4037.119, 1.775818
4039.047, -4.058901
4040.976, -1.512138
4042.904, 2.997060
4044.833, 8.749242
4046.761, 4.195323
4048.690, -3.649591
4050.618, -1.423761
4052.547, 2.419376
4054.475, -0.9810506
4056.404, 0.7920020
4058.332, 6.166170
4060.260, -0.2654874
4062.189, 1.242754
4064.117, 3.955720
4066.046, 1.577934
4067.974, 3.640856
4069.903, 4.571907
4071.831, 4.965445
4073.760, 4.435390
4075.688, 1.046793
4077.617, -0.3187097
4079.545, 3.014169
4081.474, 0.8156045
4083.402, -3.009936
4085.331, 6.062361
4087.259, -3.906014
4089.188, 0.3475196
4091.116, -4.153617
4093.044, -2.144695
4094.973, 1.874550
4096.901, 3.279532
4098.830, 2.796225
4100.758, 1.622658
4102.687, 0.9332172
4104.615, 3.326012
4106.544, 7.088756
4108.472, 5.288942
4110.401, 4.300064
4112.329, 2.362094
4114.258, 0.3159280
4116.186, -0.6958449
4118.115, -3.147571
4120.043, -0.1766806
4121.972, 1.652992
4123.900, 3.028868
4125.829, 1.389347
4127.757, 3.536016
4129.686, 7.609271
4131.614, 4.370479
4133.542, 1.654746
4135.471, 4.860381
4137.399, 1.641476
4139.328, -0.9292274
4141.256, 1.207345
4143.185, 5.243400
4145.113, -0.6648397
4147.042, 1.858231
4148.970, 0.5636929
4150.898, -2.482730
4152.827, 3.471689
4154.755, 4.720413
4156.684, 4.095510
4158.612, 0.4433805
4160.541, -0.5661682
4162.469, 3.970087
4164.398, 4.702697
4166.326, 2.730771
4168.255, 0.1875867
4170.183, -3.757994
4172.112, -0.9103553
4174.040, 1.455986
4175.969, 3.675152
4177.897, -4.798217
4179.826, 2.565314
4181.754, 6.561131
4183.683, -0.4446148
4185.611, 2.506854
4187.540, 3.115666
4189.468, 4.275316
4191.396, 2.995243
4193.325, 0.3207433
4195.253, 1.656550
4197.182, 5.885950
4199.110, 2.681079
4201.039, 0.5727328
4202.967, 4.601287
4204.896, 4.487795
4206.824, 1.002630
4208.752, -1.276850
4210.681, -2.368836
4212.609, 1.595847
4214.538, 2.873194
4216.466, -6.4322583E-02
4218.395, 4.2430721E-02
4220.323, 4.188255
4222.252, 7.427552
4224.180, 6.736233
4226.109, 2.704196
4228.037, -7.6394871E-02
4229.966, 4.135015
4231.894, -0.2950403
4233.823, 0.6275429
4235.751, 1.203339
4237.680, 0.4158563
4239.608, -1.140256
4241.537, 0.9462457
4243.465, 2.731342
4245.394, 3.140184
4247.322, 9.346747
4249.250, 5.783184
4251.179, -3.270991
4253.107, -2.769830
4255.036, -0.8980793
4256.964, -2.182273
4258.893, -3.079699
4260.821, 0.8017619
4262.750, 7.722927
4264.678, 7.672121
4266.606, 5.513610
4268.535, 2.956430
4270.463, 7.595949
4272.392, 8.060101
4274.320, 9.131850
4276.249, 0.3752921
4278.177, 3.545890
4280.106, 8.232222
4282.034, -2.572089
4283.963, 2.921453
4285.891, 1.338499
4287.820, -9.8568708E-02
4289.748, 3.137549
4291.677, 0.3628418
4293.605, 1.114039
4295.534, -0.8325453
4297.462, -0.5175761
4299.391, 3.010062
4301.319, 1.290348
4303.248, -5.046975
4305.176, 0.3736178
4307.104, 1.281622
4309.033, 1.643530
4310.961, 3.623779
4312.890, 5.834335
4314.818, 1.427959
4316.747, 2.158428
4318.675, 3.055798
4320.604, 5.466650
4322.532, 1.191973
4324.460, 0.9473832
4326.389, 1.463937
4328.317, 1.590087
4330.246, 2.945405
4332.174, 2.488569
4334.103, 3.753822
4336.031, 3.055040
##END=



