##NAMES=Gehlenite
##RRUFFID=R060841
##IDEAL CHEMISTRY=Ca_2_Al(SiAl)O_7_
##LOCALITY=Monzoni, Tyrol, Italy
##OWNER=RRUFF
##SOURCE=Michael Scott
##DESCRIPTION=Brown rectangular prism
##STATUS=The identification of this mineral has been confirmed by X-ray diffraction and chemical analysis
##URL=https://www.rruff.net/odr/rruff_sample/R060841
##MEASURED CHEMISTRY=(Ca_1.92_Na_0.07_K_0.01_)(Al_0.62_Mg_0.25_Fe^2+^_0.13_)(Si_1.46_Al_0.54_)O_7_ ; = lighter phase, and the darker phase is calcite
##DIFFRACTION SAMPLE DESCRIPTION=Powder
##CELL PARAMETERS=a: 7.7398 b: 7.7398 c: 5.0454 alpha: 90 beta: 90 gamma: 90 volume: 302.24 crystal system: tetragonal
##FILETYPE=Raman RAW
##RAMAN WAVELENGTH=785

188.9917, 1402.707
190.9202, 1426.325
192.8486, 1441.057
194.7771, 1452.992
196.7056, 1477.062
198.6340, 1512.782
200.5625, 1539.437
202.4910, 1550.041
204.4194, 1557.140
206.3479, 1564.029
208.2764, 1569.151
210.2048, 1568.014
212.1333, 1563.919
214.0618, 1566.751
215.9902, 1576.609
217.9187, 1595.045
219.8472, 1631.461
221.7756, 1665.564
223.7041, 1685.742
225.6326, 1701.192
227.5610, 1727.104
229.4895, 1761.187
231.4180, 1790.456
233.3464, 1814.528
235.2749, 1830.821
237.2034, 1838.580
239.1318, 1839.754
241.0603, 1831.545
242.9888, 1818.849
244.9172, 1811.804
246.8457, 1810.345
248.7742, 1806.920
250.7026, 1799.024
252.6311, 1791.606
254.5596, 1786.638
256.4880, 1781.664
258.4165, 1777.440
260.3450, 1770.856
262.2734, 1752.985
264.2019, 1722.138
266.1304, 1699.224
268.0588, 1691.935
269.9873, 1687.327
271.9158, 1683.429
273.8442, 1680.640
275.7727, 1680.661
277.7012, 1681.804
279.6296, 1679.390
281.5581, 1672.538
283.4866, 1668.463
285.4150, 1661.717
287.3435, 1667.151
289.2720, 1697.590
291.2004, 1733.294
293.1289, 1754.173
295.0574, 1768.160
296.9858, 1795.046
298.9143, 1837.978
300.8428, 1871.361
302.7712, 1887.742
304.6997, 1899.482
306.6282, 1914.157
308.5566, 1919.965
310.4851, 1903.842
312.4136, 1873.236
314.3420, 1844.190
316.2705, 1817.938
318.1990, 1776.007
320.1274, 1690.363
322.0559, 1628.520
323.9844, 1618.658
325.9128, 1615.329
327.8413, 1589.358
329.7697, 1551.760
331.6982, 1515.909
333.6267, 1482.428
335.5551, 1461.873
337.4836, 1464.347
339.4121, 1460.994
341.3405, 1441.585
343.2690, 1425.014
345.1975, 1424.596
347.1259, 1427.908
349.0544, 1420.927
350.9829, 1406.111
352.9113, 1391.603
354.8398, 1377.063
356.7683, 1365.340
358.6967, 1359.339
360.6252, 1351.881
362.5537, 1336.444
364.4821, 1323.334
366.4106, 1324.411
368.3391, 1331.468
370.2675, 1331.122
372.1960, 1323.042
374.1245, 1313.854
376.0529, 1303.245
377.9814, 1292.825
379.9099, 1280.156
381.8383, 1270.972
383.7668, 1270.718
385.6953, 1272.710
387.6237, 1268.983
389.5522, 1262.364
391.4807, 1262.246
393.4091, 1270.876
395.3376, 1276.699
397.2661, 1276.651
399.1945, 1277.922
401.1230, 1283.369
403.0515, 1288.093
404.9799, 1287.591
406.9084, 1286.104
408.8369, 1288.318
410.7654, 1293.680
412.6938, 1299.265
414.6223, 1304.781
416.5508, 1311.425
418.4792, 1318.616
420.4077, 1327.907
422.3362, 1342.280
424.2646, 1355.846
426.1931, 1364.426
428.1216, 1370.879
430.0500, 1378.619
431.9785, 1387.188
433.9070, 1393.903
435.8354, 1399.297
437.7639, 1400.949
439.6924, 1396.357
441.6208, 1392.631
443.5493, 1393.799
445.4778, 1392.561
447.4062, 1380.498
449.3347, 1368.025
451.2632, 1364.530
453.1916, 1369.147
455.1201, 1380.185
457.0486, 1400.212
458.9770, 1413.284
460.9055, 1417.145
462.8340, 1418.579
464.7624, 1413.195
466.6909, 1413.274
468.6194, 1433.163
470.5478, 1450.788
472.4763, 1443.616
474.4048, 1426.164
476.3332, 1427.921
478.2617, 1448.672
480.1902, 1460.427
482.1186, 1460.607
484.0471, 1457.287
485.9756, 1450.359
487.9040, 1439.659
489.8325, 1424.426
491.7610, 1406.196
493.6894, 1382.147
495.6179, 1358.845
497.5464, 1342.651
499.4748, 1332.353
501.4033, 1324.475
503.3318, 1319.131
505.2602, 1316.484
507.1887, 1317.435
509.1172, 1317.576
511.0456, 1312.454
512.9741, 1315.575
514.9026, 1339.214
516.8311, 1361.138
518.7595, 1367.065
520.6880, 1365.268
522.6165, 1362.956
524.5449, 1359.833
526.4734, 1356.117
528.4019, 1352.269
530.3303, 1339.131
532.2588, 1314.062
534.1873, 1291.354
536.1157, 1268.286
538.0442, 1258.817
539.9727, 1277.730
541.9011, 1294.606
543.8296, 1290.595
545.7581, 1279.575
547.6865, 1269.874
549.6150, 1262.693
551.5435, 1260.805
553.4719, 1263.959
555.4004, 1269.945
557.3289, 1279.479
559.2573, 1286.452
561.1858, 1289.636
563.1143, 1294.444
565.0427, 1303.507
566.9712, 1311.160
568.8997, 1315.921
570.8281, 1317.280
572.7566, 1310.718
574.6851, 1304.391
576.6135, 1307.698
578.5419, 1318.148
580.4704, 1328.077
582.3989, 1338.068
584.3273, 1359.409
586.2558, 1392.867
588.1843, 1425.344
590.1127, 1452.959
592.0412, 1490.897
593.9697, 1540.203
595.8981, 1605.760
597.8266, 1692.572
599.7551, 1792.901
601.6835, 1900.149
603.6120, 2021.397
605.5405, 2161.248
607.4689, 2321.437
609.3974, 2520.378
611.3259, 2746.538
613.2543, 2939.605
615.1828, 3100.850
617.1113, 3171.961
619.0397, 3141.836
620.9682, 3078.617
622.8967, 2986.754
624.8251, 2883.008
626.7536, 2761.729
628.6821, 2647.181
630.6105, 2552.807
632.5390, 2462.893
634.4675, 2363.504
636.3959, 2266.882
638.3244, 2186.759
640.2529, 2119.815
642.1813, 2047.478
644.1098, 1980.800
646.0383, 1976.989
647.9667, 2033.811
649.8952, 2122.166
651.8237, 2242.310
653.7521, 2378.865
655.6806, 2549.755
657.6091, 2666.918
659.5375, 2703.823
661.4660, 2689.499
663.3945, 2618.046
665.3229, 2520.853
667.2514, 2407.924
669.1799, 2281.203
671.1083, 2127.631
673.0368, 1972.920
674.9653, 1854.473
676.8937, 1762.350
678.8222, 1670.863
680.7507, 1582.928
682.6791, 1511.350
684.6076, 1456.147
686.5361, 1417.253
688.4645, 1396.199
690.3930, 1373.514
692.3215, 1346.737
694.2499, 1316.907
696.1784, 1277.186
698.1069, 1247.572
700.0353, 1237.297
701.9638, 1231.336
703.8923, 1225.429
705.8207, 1220.070
707.7492, 1219.959
709.6777, 1216.136
711.6061, 1194.662
713.5346, 1167.303
715.4631, 1149.839
717.3915, 1141.070
719.3200, 1140.031
721.2485, 1144.652
723.1769, 1145.644
725.1054, 1143.875
727.0339, 1155.229
728.9623, 1182.835
730.8908, 1189.633
732.8193, 1165.552
734.7477, 1145.255
736.6762, 1136.764
738.6047, 1125.791
740.5331, 1110.149
742.4616, 1091.611
744.3901, 1064.814
746.3185, 1043.308
748.2470, 1035.019
750.1755, 1030.953
752.1039, 1029.028
754.0324, 1025.132
755.9609, 1013.531
757.8893, 999.8077
759.8178, 989.9033
761.7463, 982.9567
763.6747, 977.5894
765.6032, 973.8156
767.5317, 972.1207
769.4601, 972.0627
771.3886, 972.0629
773.3171, 972.0692
775.2455, 971.6269
777.1740, 970.4422
779.1025, 973.1240
781.0309, 980.9517
782.9594, 988.9716
784.8879, 994.6071
786.8163, 1005.534
788.7448, 1027.694
790.6733, 1045.427
792.6017, 1054.294
794.5302, 1062.594
796.4587, 1070.171
798.3871, 1080.625
800.3156, 1103.460
802.2441, 1118.123
804.1725, 1107.885
806.1010, 1094.180
808.0295, 1092.214
809.9579, 1091.163
811.8864, 1081.686
813.8149, 1068.852
815.7433, 1054.970
817.6718, 1043.243
819.6003, 1039.738
821.5287, 1040.082
823.4572, 1035.532
825.3857, 1028.956
827.3141, 1026.983
829.2426, 1029.820
831.1711, 1040.535
833.0995, 1057.955
835.0280, 1066.578
836.9565, 1065.851
838.8849, 1070.600
840.8134, 1081.219
842.7419, 1095.472
844.6703, 1117.195
846.5988, 1127.364
848.5273, 1119.168
850.4557, 1117.530
852.3842, 1127.019
854.3127, 1130.564
856.2411, 1120.778
858.1696, 1121.828
860.0981, 1144.168
862.0266, 1158.818
863.9550, 1158.882
865.8835, 1154.652
867.8120, 1146.522
869.7404, 1139.225
871.6689, 1131.615
873.5974, 1130.822
875.5258, 1141.101
877.4543, 1155.767
879.3828, 1169.530
881.3112, 1190.810
883.2397, 1223.320
885.1682, 1265.664
887.0966, 1320.856
889.0251, 1380.049
890.9536, 1436.878
892.8820, 1496.217
894.8105, 1561.181
896.7390, 1630.318
898.6674, 1707.073
900.5959, 1782.686
902.5244, 1855.443
904.4528, 1916.410
906.3813, 1960.363
908.3098, 1982.700
910.2382, 1972.968
912.1667, 1941.839
914.0952, 1897.259
916.0236, 1846.753
917.9521, 1795.948
919.8806, 1752.520
921.8090, 1734.835
923.7375, 1732.497
925.6660, 1728.458
927.5944, 1720.589
929.5229, 1705.874
931.4514, 1682.489
933.3798, 1643.479
935.3083, 1592.434
937.2368, 1537.434
939.1652, 1480.143
941.0937, 1423.563
943.0222, 1370.064
944.9506, 1329.245
946.8791, 1299.950
948.8076, 1281.628
950.7360, 1270.429
952.6645, 1245.976
954.5930, 1211.835
956.5214, 1187.905
958.4499, 1172.158
960.3784, 1153.790
962.3068, 1132.782
964.2353, 1106.074
966.1638, 1076.075
968.0922, 1061.860
970.0207, 1059.898
971.9492, 1042.198
973.8776, 1013.152
975.8061, 1006.152
977.7346, 1016.426
979.6630, 1010.592
981.5915, 991.3132
983.5200, 976.9264
985.4484, 967.2117
987.3769, 958.9401
989.3054, 952.2388
991.2338, 949.2079
993.1623, 948.8995
995.0908, 945.6558
997.0192, 940.0244
998.9477, 935.0112
1000.876, 930.8033
1002.805, 929.6033
1004.733, 929.7039
1006.662, 920.4113
1008.590, 905.4638
1010.518, 903.0855
1012.447, 910.1320
1014.375, 914.2448
1016.304, 914.9548
1018.232, 910.4789
1020.161, 902.1276
1022.089, 893.2170
1024.018, 884.5167
1025.946, 878.9249
1027.875, 875.1689
1029.803, 868.6848
1031.732, 861.5163
1033.660, 860.1661
1035.589, 861.9330
1037.517, 858.8303
1039.446, 854.7599
1041.374, 861.6155
1043.302, 871.1801
1045.231, 865.5803
1047.159, 853.2551
1049.088, 847.8588
1051.016, 846.2237
1052.945, 845.7932
1054.873, 844.0134
1056.802, 834.7465
1058.730, 824.6064
1060.659, 822.7100
1062.587, 823.7598
1064.516, 822.9464
1066.444, 820.5855
1068.373, 814.8307
1070.301, 810.2005
1072.229, 813.1494
1074.158, 815.9497
1076.086, 811.1549
1078.015, 805.4039
1079.943, 803.8777
1081.872, 802.3444
1083.800, 796.3548
1085.729, 792.3019
1087.657, 796.1014
1089.586, 798.7542
1091.514, 797.3813
1093.443, 791.9720
1095.371, 775.6527
1097.299, 767.1212
1099.228, 778.1980
1101.156, 786.9611
1103.085, 787.9811
1105.013, 786.7462
1106.942, 782.9772
1108.870, 779.4609
1110.799, 774.9559
1112.727, 774.2203
1114.656, 779.9747
1116.584, 783.3599
1118.513, 783.5551
1120.441, 783.2210
1122.370, 782.5297
1124.298, 779.9813
1126.226, 775.2388
1128.155, 773.0608
1130.083, 773.4963
1132.012, 775.2576
1133.940, 777.8002
1135.869, 773.8707
1137.797, 766.5110
1139.726, 771.7264
1141.654, 782.6972
1143.583, 777.9276
1145.511, 767.3458
1147.440, 769.7642
1149.368, 778.9817
1151.297, 790.1033
1153.225, 798.9134
1155.153, 798.9843
1157.082, 797.1990
1159.010, 800.1913
1160.939, 801.4731
1162.867, 795.0823
1164.796, 789.8861
1166.724, 788.9510
1168.653, 793.4979
1170.581, 808.7480
1172.510, 814.8668
1174.438, 801.6325
1176.367, 795.9401
1178.295, 806.3929
1180.224, 809.1362
1182.152, 798.4756
1184.080, 797.7687
1186.009, 810.1843
1187.937, 817.6586
1189.866, 819.2473
1191.794, 816.0061
1193.723, 808.9080
1195.651, 804.5259
1197.580, 803.0023
1199.508, 805.1315
1201.437, 810.3591
1203.365, 821.5301
1205.294, 831.0588
1207.222, 825.6450
1209.151, 814.5191
1211.079, 803.5471
1213.007, 796.2723
1214.936, 797.4631
1216.864, 799.8629
1218.793, 799.7265
1220.721, 800.4049
1222.650, 804.8191
1224.578, 804.5179
1226.507, 795.7017
1228.435, 790.7899
1230.364, 792.3631
1232.292, 791.3847
1234.221, 786.9847
1236.149, 791.0443
1238.078, 802.0215
1240.006, 796.3724
1241.934, 779.5859
1243.863, 777.0038
1245.791, 784.2692
1247.720, 797.0305
1249.648, 807.1870
1251.577, 798.4291
1253.505, 786.1664
1255.434, 785.8724
1257.362, 788.0695
1259.291, 785.9090
1261.219, 785.3705
1263.148, 788.5706
1265.076, 795.1927
1267.005, 811.2172
1268.933, 812.3605
1270.861, 790.8367
1272.790, 785.3429
1274.718, 798.9584
1276.647, 798.3908
1278.575, 785.1915
1280.504, 780.2568
1282.432, 781.3148
1284.361, 778.7971
1286.289, 777.1586
1288.218, 784.0729
1290.146, 795.2403
1292.075, 812.3611
1294.003, 822.6788
1295.932, 811.0823
1297.860, 800.8010
1299.788, 804.6495
1301.717, 805.8314
1303.645, 793.8533
1305.574, 794.9103
1307.502, 815.3162
1309.431, 824.1407
1311.359, 820.6752
1313.288, 818.7568
1315.216, 818.9067
1317.145, 827.3340
1319.073, 835.0399
1321.002, 816.7899
1322.930, 796.8688
1324.859, 802.6523
1326.787, 813.1636
1328.715, 816.5466
1330.644, 817.2474
1332.572, 813.1090
1334.501, 815.3938
1336.429, 832.5488
1338.358, 838.6311
1340.286, 829.6036
1342.215, 827.4415
1344.143, 831.5783
1346.072, 833.4476
1348.000, 835.7933
1349.929, 849.2910
1351.857, 865.3424
1353.786, 872.0134
1355.714, 876.3365
1357.642, 883.0496
1359.571, 888.7320
1361.499, 892.4089
1363.428, 893.1625
1365.356, 890.4905
1367.285, 885.5195
1369.213, 877.5378
1371.142, 878.2612
1373.070, 884.8994
1374.999, 871.9516
1376.927, 849.2571
1378.856, 838.3970
1380.784, 833.3019
1382.713, 828.2932
1384.641, 824.4933
1386.569, 825.0629
1388.498, 819.3745
1390.426, 800.7475
1392.355, 793.3003
1394.283, 803.1068
1396.212, 797.0759
1398.140, 774.9100
1400.069, 766.9052
1401.997, 767.8096
1403.926, 764.2637
1405.854, 757.9987
1407.783, 747.0276
1409.711, 740.8376
1411.640, 750.5877
1413.568, 756.4545
1415.496, 751.3443
1417.425, 749.7972
1419.353, 754.5403
1421.282, 750.4177
1423.210, 738.2838
1425.139, 733.5657
1427.067, 735.3348
1428.996, 743.6339
1430.924, 753.7280
1432.853, 765.3472
1434.781, 768.4722
1436.710, 748.2852
1438.638, 736.9701
1440.567, 743.3475
1442.495, 742.2816
1444.423, 731.9409
1446.352, 739.9396
1448.280, 759.1740
1450.209, 756.4304
1452.137, 744.7845
1454.066, 743.5170
1455.994, 744.0326
1457.923, 740.0615
1459.851, 735.2372
1461.780, 729.4342
1463.708, 726.9661
1465.637, 728.4744
1467.565, 726.8579
1469.494, 723.0296
1471.422, 724.7313
1473.350, 727.8238
1475.279, 724.1268
1477.207, 719.9869
1479.136, 724.0738
1481.064, 723.3937
1482.993, 705.7466
1484.921, 699.7005
1486.850, 709.5068
1488.778, 711.8147
1490.707, 707.7533
1492.635, 707.0676
1494.564, 708.0875
1496.492, 707.9977
1498.421, 708.1047
1500.349, 710.3530
1502.277, 711.2866
1504.206, 706.8372
1506.134, 708.5131
1508.063, 717.9848
1509.991, 723.3710
1511.920, 724.6650
1513.848, 720.4800
1515.777, 714.1558
1517.705, 706.9930
1519.634, 704.1815
1521.562, 713.4820
1523.491, 715.7893
1525.419, 701.6013
1527.348, 698.1866
1529.276, 705.1539
1531.204, 709.7099
1533.133, 711.4630
1535.061, 708.5937
1536.990, 703.8296
1538.918, 698.6818
1540.847, 693.1863
1542.775, 686.1525
1544.704, 684.5662
1546.632, 689.6593
1548.561, 688.2095
1550.489, 683.9404
1552.418, 691.0255
1554.346, 698.6992
1556.275, 696.7054
1558.203, 689.7468
1560.131, 676.7245
1562.060, 672.9904
1563.988, 682.2260
1565.917, 677.2589
1567.845, 663.6383
1569.774, 664.0454
1571.702, 670.5373
1573.631, 675.2131
1575.559, 679.8976
1577.488, 686.7358
1579.416, 685.9611
1581.345, 675.5587
1583.273, 674.4741
1585.202, 680.1180
1587.130, 681.5570
1589.058, 681.7235
1590.987, 683.4675
1592.915, 687.2359
1594.844, 695.9552
1596.772, 692.8535
1598.701, 676.1855
1600.629, 668.9906
1602.558, 669.3776
1604.486, 669.2607
1606.415, 670.7831
1608.343, 677.2260
1610.272, 684.3958
1612.200, 692.6344
1614.129, 691.4999
1616.057, 681.2310
1617.985, 673.2609
1619.914, 671.7020
1621.842, 691.9385
1623.771, 709.4526
1625.699, 700.7433
1627.628, 692.7985
1629.556, 690.9432
1631.485, 692.2104
1633.413, 694.6481
1635.342, 688.2052
1637.270, 679.1009
1639.199, 674.2997
1641.127, 672.1749
1643.056, 675.0502
1644.984, 671.6517
1646.912, 660.9109
1648.841, 659.9311
1650.769, 664.9042
1652.698, 666.4335
1654.626, 666.1235
1656.555, 664.9901
1658.483, 662.9964
1660.412, 659.9081
1662.340, 656.9899
1664.269, 654.0056
1666.197, 648.7697
1668.126, 643.5754
1670.054, 640.4222
1671.983, 639.6173
1673.911, 644.3085
1675.839, 643.5118
1677.768, 636.7105
1679.696, 633.5137
1681.625, 632.0676
1683.553, 628.2499
1685.482, 625.8580
1687.410, 628.4691
1689.339, 628.8373
1691.267, 625.5653
1693.196, 620.2322
1695.124, 614.3221
1697.053, 612.2463
1698.981, 611.3585
1700.910, 608.7975
1702.838, 611.0627
1704.766, 621.6013
1706.695, 622.9716
1708.623, 617.8653
1710.552, 617.0590
1712.480, 615.2261
1714.409, 605.6975
1716.337, 602.4210
1718.266, 610.4051
1720.194, 614.9741
1722.123, 614.2601
1724.051, 597.4766
1725.980, 581.4996
1727.908, 581.8903
1729.837, 588.5696
1731.765, 600.3072
1733.693, 598.6385
1735.622, 587.1716
1737.550, 584.1577
1739.479, 582.2947
1741.407, 573.4605
1743.336, 566.4841
1745.264, 563.4620
1747.193, 557.4793
1749.121, 551.6459
1751.050, 563.5381
1752.978, 573.4846
1754.907, 560.1581
1756.835, 545.4909
1758.764, 532.9741
1760.692, 532.5618
1762.620, 537.3739
1764.549, 523.6693
1766.477, 512.2476
1768.406, 526.6205
1770.334, 528.2635
1772.263, 513.2751
1774.191, 515.3840
1776.120, 524.5622
1778.048, 517.6478
1779.977, 508.5314
1781.905, 503.1525
1783.834, 506.1400
1785.762, 515.7863
1787.691, 506.7111
1789.619, 493.7621
1791.547, 501.6501
1793.476, 506.6133
1795.404, 498.3989
1797.333, 486.8458
1799.261, 475.4163
1801.190, 483.5459
1803.118, 494.3828
1805.047, 493.0486
1806.975, 485.9764
1808.904, 472.8413
1810.832, 476.5363
1812.761, 487.6886
1814.689, 481.5238
1816.618, 474.6390
1818.546, 480.1163
1820.474, 479.2090
1822.403, 470.6294
1824.331, 467.1111
1826.260, 466.6571
1828.188, 467.0854
1830.117, 467.9379
1832.045, 469.9863
1833.974, 467.1196
1835.902, 461.3159
1837.831, 460.5786
1839.759, 458.2965
1841.688, 446.1359
1843.616, 449.7636
1845.545, 472.2584
1847.473, 467.1972
1849.401, 451.5084
1851.330, 445.0070
1853.258, 446.7366
1855.187, 458.8585
1857.115, 458.2174
1859.044, 448.4098
1860.972, 439.3649
1862.901, 435.0187
1864.829, 439.3457
1866.758, 436.7616
1868.686, 426.6976
1870.615, 432.6568
1872.543, 439.0706
1874.472, 424.6014
1876.400, 414.0114
1878.328, 412.7888
1880.257, 413.1100
1882.185, 413.4141
1884.114, 409.8288
1886.042, 408.8212
1887.971, 413.5009
1889.899, 414.5494
1891.828, 411.7557
1893.756, 405.1054
1895.685, 402.0283
1897.613, 412.1506
1899.542, 410.3585
1901.470, 396.1267
1903.399, 389.0588
1905.327, 387.0078
1907.255, 389.4987
1909.184, 390.1445
1911.112, 387.7072
1913.041, 383.8170
1914.969, 380.9413
1916.898, 384.0739
1918.826, 384.1382
1920.755, 377.0921
1922.683, 381.6917
1924.612, 392.6774
1926.540, 396.6486
1928.469, 393.3230
1930.397, 377.4535
1932.326, 379.3441
1934.254, 390.4037
1936.182, 374.6031
1938.111, 360.4698
1940.039, 372.3841
1941.968, 372.5062
1943.896, 361.0670
1945.825, 356.7095
1947.753, 357.6608
1949.682, 363.1092
1951.610, 365.4556
1953.539, 365.3611
1955.467, 368.0474
1957.396, 369.9931
1959.324, 369.6808
1961.253, 363.0017
1963.181, 349.7603
1965.109, 351.3149
1967.038, 355.8887
1968.966, 350.5406
1970.895, 347.5038
1972.823, 348.4206
1974.752, 349.3545
1976.680, 345.9092
1978.609, 328.6206
1980.537, 325.5683
1982.466, 344.4785
1984.394, 340.8029
1986.323, 330.1025
1988.251, 334.2129
1990.180, 337.0543
1992.108, 334.4404
1994.036, 330.3398
1995.965, 328.4031
1997.893, 335.3319
1999.822, 335.5591
2001.750, 327.1341
2003.679, 323.3330
2005.607, 324.4043
2007.536, 331.1413
2009.464, 325.0768
2011.393, 306.7938
2013.321, 311.6812
2015.250, 322.9333
2017.178, 321.9819
2019.107, 318.1718
2021.035, 313.2015
2022.964, 308.5269
2024.892, 305.4040
2026.820, 306.2399
2028.749, 304.9376
2030.677, 303.3436
2032.606, 299.3854
2034.534, 296.7527
2036.463, 304.3605
2038.391, 307.4456
2040.320, 305.3225
2042.248, 313.2452
2044.177, 316.0653
2046.105, 293.5201
2048.034, 294.1850
2049.962, 308.8295
2051.891, 302.4537
2053.819, 298.6388
2055.748, 307.7291
2057.676, 306.2824
2059.604, 298.3815
2061.533, 293.7498
2063.461, 292.4185
2065.390, 289.4483
2067.318, 291.6820
2069.247, 296.0528
2071.175, 291.7614
2073.104, 286.1418
2075.032, 279.7567
2076.960, 277.0152
2078.889, 270.9485
2080.817, 280.1524
2082.746, 285.2095
2084.674, 286.3430
2086.603, 271.8001
2088.531, 277.4999
2090.460, 275.0873
2092.388, 272.3422
2094.317, 280.8908
2096.245, 268.6282
2098.174, 279.2646
2100.102, 270.7916
2102.031, 273.9901
2103.959, 281.5680
2105.887, 280.3618
2107.816, 277.2523
2109.744, 271.7832
2111.673, 267.8270
2113.601, 268.5499
2115.530, 272.2861
2117.458, 265.0224
2119.387, 251.7014
2121.315, 251.1136
2123.244, 256.8261
2125.172, 266.0950
2127.101, 259.1230
2129.029, 248.7245
2130.958, 250.8756
2132.886, 249.5915
2134.814, 245.0351
2136.743, 253.0688
2138.671, 260.0178
2140.600, 252.3679
2142.528, 248.0807
2144.457, 251.1615
2146.385, 249.4846
2148.314, 248.5593
2150.242, 252.8786
2152.171, 248.7724
2154.099, 240.6975
2156.028, 249.6772
2157.956, 254.5105
2159.885, 255.4197
2161.813, 240.6530
2163.741, 245.8894
2165.670, 236.0626
2167.598, 236.7438
2169.527, 240.2179
2171.455, 240.4008
2173.384, 243.6930
2175.312, 247.8083
2177.241, 244.7939
2179.169, 243.0417
2181.098, 245.2562
2183.026, 237.7076
2184.955, 228.8530
2186.883, 234.2456
2188.812, 234.8820
2190.740, 229.1919
2192.668, 233.5200
2194.597, 234.2890
2196.525, 226.3868
2198.454, 225.1786
2200.382, 228.5499
2202.311, 228.8553
2204.239, 225.7724
2206.168, 223.1231
2208.096, 223.7804
2210.025, 222.0636
2211.953, 216.8677
2213.882, 217.5081
2215.810, 221.2248
2217.739, 217.3613
2219.667, 217.0312
2221.595, 221.4303
2223.524, 218.1855
2225.452, 214.9259
2227.381, 215.6230
2229.309, 214.9325
2231.238, 210.9146
2233.166, 206.6798
2235.095, 208.3810
2237.023, 215.2667
2238.952, 208.2420
2240.880, 201.6148
2242.809, 209.2238
2244.737, 204.4144
2246.666, 191.9196
2248.594, 193.2659
2250.522, 198.4068
2252.451, 200.0255
2254.379, 192.7658
2256.308, 190.3272
2258.236, 197.4144
2260.165, 200.0285
2262.093, 197.9073
2264.022, 192.3268
2265.950, 191.7526
2267.879, 195.7141
2269.807, 198.6883
2271.736, 197.2798
2273.664, 191.7842
2275.593, 189.2263
2277.521, 188.7370
2279.449, 193.0359
2281.378, 196.1481
2283.306, 194.0133
2285.235, 187.5096
2287.163, 186.2546
2289.092, 189.0113
2291.020, 188.2464
2292.949, 185.4477
2294.877, 184.9798
2296.806, 182.3739
2298.734, 179.8256
2300.663, 179.0526
2302.591, 181.3953
2304.520, 185.5194
2306.448, 184.2130
2308.376, 184.0036
2310.305, 184.9260
2312.233, 177.9388
2314.162, 175.3859
2316.090, 179.1818
2318.019, 182.5538
2319.947, 182.8756
2321.876, 176.6429
2323.804, 174.9565
2325.733, 174.9074
2327.661, 172.9452
2329.590, 178.9187
2331.518, 186.2065
2333.447, 174.4579
2335.375, 166.4948
2337.303, 167.1569
2339.232, 168.3834
2341.160, 171.4353
2343.089, 175.1650
2345.017, 166.3709
2346.946, 158.8636
2348.874, 165.1303
2350.803, 162.5536
2352.731, 156.2610
2354.660, 158.7469
2356.588, 157.6945
2358.517, 154.1259
2360.445, 158.1866
2362.374, 161.7023
2364.302, 162.7500
2366.230, 158.6985
2368.159, 157.6945
2370.087, 164.3122
2372.016, 162.1175
2373.944, 158.3102
2375.873, 161.1541
2377.801, 156.7988
2379.730, 152.1339
2381.658, 159.1371
2383.587, 161.7386
2385.515, 158.9261
2387.444, 147.4249
2389.372, 146.2884
2391.301, 155.5391
2393.229, 156.4425
2395.157, 154.3310
2397.086, 152.2171
2399.014, 146.8261
2400.943, 144.8689
2402.871, 153.0473
2404.800, 151.7257
2406.728, 147.1442
2408.657, 145.2092
2410.585, 148.0795
2412.514, 150.0880
2414.442, 144.9422
2416.371, 148.6002
2418.299, 155.0800
2420.228, 146.7954
2422.156, 140.1250
2424.084, 138.5901
2426.013, 139.4188
2427.941, 136.9557
2429.870, 131.8697
2431.798, 134.2133
2433.727, 138.8712
2435.655, 139.0850
2437.584, 133.8788
2439.512, 134.0112
2441.441, 137.0693
2443.369, 131.7641
2445.298, 129.1869
2447.226, 133.8586
2449.155, 132.7859
2451.083, 129.0574
2453.011, 128.0584
2454.940, 127.2306
2456.868, 127.8209
2458.797, 134.1734
2460.725, 125.6915
2462.654, 114.3582
2464.582, 117.9955
2466.511, 125.0501
2468.439, 131.2592
2470.368, 128.5506
2472.296, 124.8821
2474.225, 117.5810
2476.153, 112.5099
2478.082, 115.6106
2480.010, 120.7997
2481.938, 124.1215
2483.867, 122.3370
2485.795, 119.2332
2487.724, 115.5583
2489.652, 118.7411
2491.581, 128.6020
2493.509, 122.8356
2495.438, 115.8464
2497.366, 115.2417
2499.295, 119.2147
2501.223, 118.1184
2503.152, 112.1125
2505.080, 115.0369
2507.009, 118.4846
2508.937, 113.8332
2510.865, 112.3059
2512.794, 110.6094
2514.722, 106.4772
2516.651, 112.6086
2518.579, 118.5324
2520.508, 120.1786
2522.436, 117.7370
2524.365, 107.3453
2526.293, 103.2500
2528.222, 108.3182
2530.150, 110.4747
2532.079, 104.9605
2534.007, 106.7049
2535.936, 110.6479
2537.864, 106.4063
2539.792, 105.6439
2541.721, 104.9314
2543.649, 98.72087
2545.578, 98.14159
2547.506, 103.8017
2549.435, 106.9528
2551.363, 106.7791
2553.292, 99.32624
2555.220, 94.08290
2557.149, 96.58380
2559.077, 93.15247
2561.006, 89.50765
2562.934, 92.40034
2564.863, 96.26682
2566.791, 99.84121
2568.719, 99.14207
2570.648, 101.7628
2572.576, 102.9249
2574.505, 101.6985
2576.433, 99.71054
2578.362, 94.15954
2580.290, 84.75447
2582.219, 82.63154
2584.147, 90.31948
2586.076, 98.89727
2588.004, 96.75154
2589.933, 98.25891
2591.861, 97.25742
2593.790, 93.42667
2595.718, 97.35664
2597.646, 95.14365
2599.575, 89.88187
2601.503, 92.36790
2603.432, 93.89049
2605.360, 91.23363
2607.289, 88.85723
2609.217, 91.72913
2611.146, 91.25455
2613.074, 91.59736
2615.003, 88.76776
2616.931, 87.07703
2618.860, 84.56682
2620.788, 83.75547
2622.717, 85.02034
2624.645, 84.64897
2626.573, 85.23086
2628.502, 79.61559
2630.430, 79.08492
2632.359, 77.43118
2634.287, 76.27837
2636.216, 83.90892
2638.144, 82.58408
2640.073, 79.90747
2642.001, 77.47327
2643.930, 73.00154
2645.858, 78.49032
2647.787, 81.14324
2649.715, 75.38477
2651.644, 77.33031
2653.572, 79.95045
2655.500, 80.92098
2657.429, 80.23608
2659.357, 83.84709
2661.286, 84.98145
2663.214, 84.26797
2665.143, 81.42299
2667.071, 73.53381
2669.000, 69.65029
2670.928, 69.74879
2672.857, 73.56522
2674.785, 76.97301
2676.714, 71.72607
2678.642, 73.71545
2680.571, 74.59626
2682.499, 66.91320
2684.427, 69.63732
2686.356, 71.26056
2688.284, 70.93889
2690.213, 74.19245
2692.141, 72.22326
2694.070, 66.36601
2695.998, 65.82062
2697.927, 68.57891
2699.855, 70.00378
2701.784, 64.66140
2703.712, 72.35765
2705.641, 76.22900
2707.569, 65.27802
2709.498, 71.58326
2711.426, 75.93185
2713.354, 69.53321
2715.283, 61.23863
2717.211, 62.73860
2719.140, 68.70260
2721.068, 67.30980
2722.997, 63.33031
2724.925, 56.79748
2726.854, 65.43356
2728.782, 66.64442
2730.711, 61.54888
2732.639, 61.76285
2734.568, 59.28806
2736.496, 61.08206
2738.425, 64.14181
2740.353, 63.76211
2742.281, 63.21475
2744.210, 59.58731
2746.138, 57.20644
2748.067, 54.09740
2749.995, 47.67797
2751.924, 54.05353
2753.852, 55.94087
2755.781, 55.04325
2757.709, 62.37915
2759.638, 59.12145
2761.566, 56.07444
2763.495, 59.77834
2765.423, 61.38151
2767.352, 62.31846
2769.280, 60.17210
2771.208, 56.05401
2773.137, 53.44565
2775.065, 50.61230
2776.994, 53.67641
2778.922, 52.31942
2780.851, 51.96246
2782.779, 54.62646
2784.708, 55.89233
2786.636, 55.71046
2788.565, 53.17766
2790.493, 50.35924
2792.422, 44.77306
2794.350, 44.30892
2796.279, 52.32046
2798.207, 56.12343
2800.135, 55.05956
2802.064, 48.85754
2803.992, 46.72061
2805.921, 48.67861
2807.849, 50.71725
2809.778, 46.94668
2811.706, 51.97231
2813.635, 57.86826
2815.563, 52.01841
2817.492, 51.14333
2819.420, 49.28373
2821.349, 43.79205
2823.277, 47.47786
2825.206, 50.58912
2827.134, 50.52226
2829.063, 49.04762
2830.991, 46.29435
2832.919, 45.30914
2834.848, 48.28136
2836.776, 40.99357
2838.705, 36.89452
2840.633, 40.10778
2842.562, 44.84497
2844.490, 41.63304
2846.419, 35.85066
2848.347, 37.87386
2850.276, 39.28845
2852.204, 37.51013
2854.133, 33.42846
2856.061, 45.92585
2857.990, 49.12460
2859.918, 43.04028
2861.846, 43.84513
2863.775, 43.10072
2865.703, 40.97223
2867.632, 40.52075
2869.560, 37.94612
2871.489, 31.52416
2873.417, 25.43143
2875.346, 32.69969
2877.274, 38.10057
2879.203, 38.99641
2881.131, 36.50828
2883.060, 38.16552
2884.988, 37.64611
2886.917, 35.48851
2888.845, 30.34326
2890.773, 31.16878
2892.702, 33.85263
2894.630, 36.73671
2896.559, 39.00906
2898.487, 36.86567
2900.416, 32.09125
2902.344, 34.60472
2904.273, 39.48454
2906.201, 39.48800
2908.130, 28.88163
2910.058, 31.96865
2911.987, 34.76239
2913.915, 33.17505
2915.844, 38.20169
2917.772, 40.96732
2919.700, 38.41306
2921.629, 36.31817
2923.557, 36.03125
2925.486, 32.35297
2927.414, 28.99166
2929.343, 31.47769
2931.271, 34.21696
2933.200, 34.32488
2935.128, 33.18276
2937.057, 31.37633
2938.985, 31.76260
2940.914, 27.41508
2942.842, 26.96229
2944.771, 31.21754
2946.699, 29.06717
2948.627, 22.82450
2950.556, 28.45583
2952.484, 28.15815
2954.413, 24.96296
2956.341, 31.14438
2958.270, 34.12019
2960.198, 32.19637
2962.127, 29.96016
2964.055, 25.34155
2965.984, 25.68276
2967.912, 23.35152
2969.841, 16.92057
2971.769, 20.15395
2973.698, 21.61380
2975.626, 23.14351
2977.554, 29.09704
2979.483, 27.42158
2981.411, 23.52375
2983.340, 24.43694
2985.268, 17.41981
2987.197, 23.75617
2989.125, 29.02709
2991.054, 20.42730
2992.982, 23.86685
2994.911, 26.29493
2996.839, 23.38267
2998.768, 19.41714
3000.696, 26.58179
3002.625, 30.17262
3004.553, 30.10186
3006.481, 26.09820
3008.410, 24.01858
3010.338, 31.17619
3012.267, 34.81215
3014.195, 27.49306
3016.124, 22.36289
3018.052, 20.58356
3019.981, 22.40994
3021.909, 21.02831
3023.838, 20.08302
3025.766, 26.33383
3027.695, 25.88866
3029.623, 24.02688
3031.552, 21.80376
3033.480, 16.57048
3035.408, 14.27838
3037.337, 19.62996
3039.265, 21.30269
3041.194, 10.31958
3043.122, 13.67083
3045.051, 20.25215
3046.979, 21.52324
3048.908, 21.79202
3050.836, 18.65763
3052.765, 19.61622
3054.693, 20.72484
3056.622, 18.71701
3058.550, 15.06702
3060.479, 11.62477
3062.407, 11.29941
3064.335, 11.28831
3066.264, 14.36558
3068.192, 11.07845
3070.121, 8.547653
3072.049, 12.56293
3073.978, 15.21755
3075.906, 17.18086
3077.835, 17.03551
3079.763, 12.86005
3081.692, 17.47133
3083.620, 21.39788
3085.549, 17.61584
3087.477, 15.97345
3089.406, 19.62597
3091.334, 21.19539
3093.262, 20.25455
3095.191, 17.41140
3097.119, 16.36197
3099.048, 13.54160
3100.976, 14.50168
3102.905, 16.12294
3104.833, 13.70435
3106.762, 11.85671
3108.690, 23.26183
3110.619, 24.69940
3112.547, 16.67647
3114.476, 8.869636
3116.404, 12.88428
3118.333, 13.85288
3120.261, 11.12331
3122.189, 10.98311
3124.118, 13.12830
3126.046, 12.37292
3127.975, 12.43232
3129.903, 12.46272
3131.832, 17.18107
3133.760, 13.80094
3135.689, 9.674404
3137.617, 10.09267
3139.546, 3.137765
3141.474, 8.411504
3143.403, 11.58555
3145.331, 9.476970
3147.260, 13.78241
3149.188, 5.161573
3151.116, -0.7122178
3153.045, 4.280758
3154.973, 6.949004
3156.902, 8.871813
3158.830, 11.11926
3160.759, 12.68149
3162.687, 15.28375
3164.616, 10.99702
3166.544, 8.146724
3168.473, 8.656177
3170.401, 14.61055
3172.330, 15.79970
3174.258, 12.36795
3176.187, 9.713110
3178.115, 12.41158
3180.043, 10.94275
3181.972, 14.40286
3183.900, 17.13586
3185.829, 6.779366
3187.757, 7.606507
3189.686, 10.18587
3191.614, 11.83149
3193.543, 13.95874
3195.471, 12.02348
3197.400, 8.930895
3199.328, 8.726416
3201.257, 12.37544
3203.185, 9.457951
3205.114, 9.633601
3207.042, 12.78387
3208.970, 17.79693
3210.899, 17.69980
3212.827, 3.666332
3214.756, 0.5042078
3216.684, 12.41366
3218.613, 5.0164810E-03
3220.541, 6.687259
3222.470, 12.76082
3224.398, 8.117250
3226.327, -5.534830
3228.255, 0.8638647
3230.184, 2.076259
3232.112, -0.7592343
3234.041, 1.725542
3235.969, 8.081275
3237.897, 16.48318
3239.826, 20.45327
3241.754, 16.77975
3243.683, 11.46421
3245.611, 7.995205
3247.540, 8.728776
3249.468, 9.544950
3251.397, -1.343636
3253.325, 1.699125
3255.254, 5.105351
3257.182, 5.176748
3259.111, 5.295414
3261.039, 15.68970
3262.968, 12.76797
3264.896, 5.484031
3266.824, 4.870957
3268.753, 12.42147
3270.681, 13.85225
3272.610, 11.37987
3274.538, 10.85370
3276.467, 19.64234
3278.395, 12.95208
3280.324, 9.289268
3282.252, 11.38175
3284.181, 15.63826
3286.109, 21.76791
3288.038, 24.59907
3289.966, 16.70867
3291.895, 3.831369
3293.823, 9.445927
3295.751, 11.86982
3297.680, 10.23227
3299.608, 8.033804
3301.537, 10.55446
3303.465, 11.23350
3305.394, 9.565103
3307.322, 12.92020
3309.251, 17.49508
3311.179, -2.209688
3313.108, -2.389208
3315.036, 1.282950
3316.965, 3.270529
3318.893, 4.822383
3320.822, 4.760503
3322.750, 7.945762
3324.678, 3.064442
3326.607, -7.597614
3328.535, -1.842643
3330.464, 8.161443
3332.392, 4.993889
3334.321, -0.8739992
3336.249, 1.283760
3338.178, 0.8616456
3340.106, 2.160233
3342.035, 6.366543
3343.963, 10.29747
3345.892, 5.933208
3347.820, -0.8033136
3349.749, 11.38786
3351.677, 19.12954
3353.605, 10.30360
3355.534, 9.794478
3357.462, 8.809456
3359.391, 8.033950
3361.319, 6.178802
3363.248, 0.5292302
3365.176, 8.760222
3367.105, 7.258303
3369.033, 9.350040
3370.962, 13.96590
3372.890, 9.143351
3374.819, 11.17083
3376.747, 6.599297
3378.676, 5.106431
3380.604, 9.698558
3382.532, 10.53256
3384.461, 6.036512
3386.389, -3.637323
3388.318, -3.133940
3390.246, 9.291896
3392.175, 1.051213
3394.103, -2.868012
3396.032, -3.924055
3397.960, -1.260406
3399.889, 3.732620
3401.817, -0.2550884
3403.746, -0.1414233
3405.674, 4.236748
3407.603, 4.891018
3409.531, -2.036791
3411.459, 0.5267472
3413.388, 6.1281830E-02
3415.316, 5.293827
3417.245, 10.98911
3419.173, 7.099534
3421.102, 4.078197
3423.030, 8.293846
3424.959, 0.2426233
3426.887, -9.068577
3428.816, 2.698786
3430.744, 1.508765
3432.673, 4.852561
3434.601, 0.4515027
3436.530, -5.904070
3438.458, 0.4945013
3440.386, 2.541240
3442.315, -1.016822
3444.243, 6.429290
3446.172, 18.10023
3448.100, 17.11512
3450.029, 14.10419
3451.957, 11.72146
3453.886, 9.881219
3455.814, 7.186008
3457.743, 2.912064
3459.671, 1.532802
3461.600, 10.37382
3463.528, 6.177371
3465.457, 0.3922559
3467.385, 8.220384
3469.313, 4.787437
3471.242, 2.780875
3473.170, 9.952706
3475.099, 8.630990
3477.027, -6.618279
3478.956, -1.504162
3480.884, 0.3768821
3482.813, 8.833808
3484.741, 12.66856
3486.670, 8.138487
3488.598, 7.335233
3490.527, -0.1880651
3492.455, -1.915317
3494.384, -1.733732
3496.312, -0.8642339
3498.240, 3.365089
3500.169, 6.265066
3502.097, -3.180220
3504.026, -1.984709
3505.954, 5.046741
3507.883, 4.102802
3509.811, 0.8817825
3511.740, 7.751755
3513.668, 7.260738
3515.597, 10.68996
3517.525, 19.41138
3519.454, 5.322783
3521.382, 8.792507
3523.311, 15.76167
3525.239, 16.93797
3527.167, 12.67457
3529.096, 7.500352
3531.024, -4.738595
3532.953, -1.991409
3534.881, 6.066347
3536.810, 15.89078
3538.738, 23.15568
3540.667, 13.81634
3542.595, 8.233524
3544.524, 5.454791
3546.452, 6.189304
3548.381, 9.773104
3550.309, 14.17650
3552.238, 16.65879
3554.166, 18.88060
3556.094, 16.39719
3558.023, 9.655559
3559.951, 2.748719
3561.880, 1.175863
3563.808, 3.578558
3565.737, 10.40603
3567.665, 7.149456
3569.594, 2.387345
3571.522, 7.561686
3573.451, 9.025967
3575.379, 8.910585
3577.308, 4.139529
3579.236, 0.5127293
3581.165, 4.982299
3583.093, 16.51885
3585.021, 7.953055
3586.950, -0.9059863
3588.878, 2.527456
3590.807, 0.2501059
3592.735, -4.100815
3594.664, 11.68880
3596.592, 4.302104
3598.521, 4.210209
3600.449, 4.732110
3602.378, 6.804753
3604.306, 8.702120
3606.235, 1.857567
3608.163, 4.643147
3610.092, 4.878721
3612.020, 2.845968
3613.948, 1.720295
3615.877, 1.244154
3617.805, -3.860592
3619.734, -1.225386
3621.662, 10.98532
3623.591, 12.31585
3625.519, 3.414460
3627.448, -3.364913
3629.376, 4.495420
3631.305, 2.937387
3633.233, 3.426006
3635.162, 10.49181
3637.090, 10.37319
3639.019, 3.847921
3640.947, 9.568930
3642.875, 1.103793
3644.804, 5.725163
3646.732, 8.223193
3648.661, 4.992511
3650.589, 1.405742
3652.518, 3.860491
3654.446, 13.09332
3656.375, 5.453359
3658.303, 5.993880
3660.232, 2.458046
3662.160, -0.1036125
3664.089, 5.984262
3666.017, -8.067724
3667.946, -1.170343
3669.874, 0.3709568
3671.802, -0.7775961
3673.731, 4.710380
3675.659, 14.18106
3677.588, 11.87290
3679.516, -7.714306
3681.445, -0.8123444
3683.373, -8.452392
3685.302, -10.38257
3687.230, 0.7213550
3689.159, 6.193884
3691.087, 6.382110
3693.016, 18.18803
3694.944, 23.26706
3696.873, 12.48058
3698.801, 4.429487
3700.729, 7.719001
3702.658, 0.3662711
3704.586, 6.392962
3706.515, 11.35762
3708.443, 4.359136
3710.372, -3.195796
3712.300, 0.3937175
3714.229, 10.89066
3716.157, 2.556103
3718.086, -0.8752576
3720.014, -0.1416093
3721.943, -1.319606
3723.871, -2.621834
3725.800, -2.898198
3727.728, -2.455905
3729.656, 3.199098
3731.585, 3.770906
3733.513, -2.346855
3735.442, -5.545553
3737.370, -3.975929
3739.299, -3.732527
3741.227, -7.315283
3743.156, 0.2027645
3745.084, 0.7053428
3747.013, -1.630345
3748.941, -8.806402
3750.870, -3.103679
3752.798, 4.266982
3754.727, -10.00730
3756.655, -0.1258693
3758.583, 1.686111
3760.512, -2.275204
3762.440, 2.374546
3764.369, 5.072546
3766.297, 1.916431
3768.226, 2.393108
3770.154, 15.43804
3772.083, 11.11125
3774.011, 3.544127
3775.940, 1.682521
3777.868, 4.631174
3779.797, 2.768269
3781.725, -5.048043
3783.654, -2.961637
3785.582, 7.011154
3787.510, 7.459363
3789.439, 1.640203
3791.367, -1.308143
3793.296, -0.1893309
3795.224, -1.482912
3797.153, -7.733893
3799.081, 1.350093
3801.010, 1.006644
3802.938, 5.081789
3804.867, 4.351092
3806.795, 2.127125
3808.724, 1.123599
3810.652, 4.5695598E-03
3812.581, -2.206944
3814.509, -8.502048
3816.438, -3.471976
3818.366, -6.151695
3820.294, -7.259048
3822.223, -1.036785
3824.151, -1.624185
3826.080, -10.02702
3828.008, 5.208534
3829.937, 5.316760
3831.865, 4.591083
3833.794, 0.5531592
3835.722, -0.8115422
3837.651, -3.696681
3839.579, -1.942557
3841.508, 7.097143
3843.436, -0.9186267
3845.365, 5.188417
3847.293, 8.163777
3849.221, 12.84012
3851.150, 10.78166
3853.078, -2.799021
3855.007, -5.442257
3856.935, 6.865508
3858.864, -2.138314
3860.792, -7.936730
3862.721, 2.026877
3864.649, 9.884193
3866.578, -3.286866
3868.506, -5.547456
3870.435, 3.655027
3872.363, 4.273246
3874.292, -4.572685
3876.220, -0.8021312
3878.148, 6.371062
3880.077, 9.924965
3882.005, 1.214455
3883.934, 4.247082
3885.862, 10.47350
3887.791, 5.968073
3889.719, -4.722582
3891.648, -5.412792
3893.576, 13.63766
3895.505, -0.5448016
3897.433, 3.957220
3899.362, 9.174853
3901.290, 0.2386243
3903.219, -5.825141
3905.147, -3.743143
3907.075, -0.7862244
3909.004, 4.980338
3910.932, 7.759303
3912.861, 3.902023
3914.789, -1.500195
3916.718, -1.542839
3918.646, 2.148810
3920.575, 9.213236
3922.503, 5.028705
3924.432, -5.117336
3926.360, 4.976479
3928.289, 6.644805
3930.217, 8.355634
3932.146, 3.773789
3934.074, 3.476953
3936.002, 5.646298
3937.931, 1.116328
3939.859, 3.498010
3941.788, 3.768838
3943.716, -8.416793
3945.645, -1.658265
3947.573, 2.536994
3949.502, 0.3323980
3951.430, 1.054089
3953.359, 1.389714
3955.287, 1.049378
3957.216, 4.723717
3959.144, -2.191140
3961.073, -16.45286
3963.001, -17.43736
3964.929, -8.756984
3966.858, 0.2302336
3968.786, 6.839247
3970.715, 0.3953319
3972.643, 5.0681692E-02
3974.572, -1.305726
3976.500, -10.14361
3978.429, -9.371242
3980.357, -3.595103
3982.286, -5.456139
3984.214, -4.296033
3986.143, -2.966754
3988.071, 2.297400
3990.000, 2.337315
3991.928, -4.791577
3993.856, -2.103583
3995.785, 14.62024
3997.713, 10.62551
3999.642, -0.6214080
4001.570, -1.349414
4003.499, -7.475925
4005.427, 2.701144
4007.356, 8.731933
4009.284, 10.83854
4011.213, -2.730597
4013.141, 3.942453
4015.070, 2.503523
4016.998, 5.710528
4018.927, -0.9647405
4020.855, 2.174174
4022.783, 10.60750
4024.712, 9.773741
4026.640, 6.836003
4028.569, -12.72667
4030.497, 6.320484
4032.426, -8.545918
4034.354, -2.518703
4036.283, 4.656313
4038.211, 4.456856
4040.140, -8.358843
4042.068, -0.3752726
4043.997, 5.059938
4045.925, -6.172988
4047.854, -12.34118
4049.782, -7.961356
4051.710, -4.924284
4053.639, -11.12523
4055.567, -6.565695
4057.496, -4.243755
4059.424, 6.627803
4061.353, -4.816737
4063.281, -5.188026
4065.210, 3.916447
4067.138, 5.394348
4069.067, 2.086533
4070.995, 1.938867
4072.924, 4.940744
4074.852, 9.691468
4076.781, 12.64157
4078.709, -2.411747
4080.637, 6.589123
4082.566, 2.563125
4084.494, -2.183343
4086.423, 9.691460
4088.351, 1.699828
4090.280, -2.024126
4092.208, -1.446523
4094.137, -1.137296
4096.065, -3.753353
4097.994, -0.7703888
4099.922, 10.24218
4101.851, 4.923917
4103.779, -19.43113
4105.708, 2.901402
4107.636, 4.769628
4109.564, -1.531981
4111.493, -8.592628
4113.421, -0.1025198
4115.350, -4.065973
4117.278, -4.930291
4119.207, 2.207284
4121.135, 6.165825
4123.063, 4.528965
4124.992, 3.735427
4126.920, 0.6786018
4128.849, -6.798919
4130.777, -10.46140
4132.706, -10.27388
4134.634, -4.760817
4136.563, 14.01095
4138.491, 0.9795465
4140.420, 6.443011
4142.348, 5.543728
4144.277, 10.22580
4146.205, 13.74503
4148.134, 7.252844
4150.062, 3.516195
4151.991, 9.816639
4153.919, 5.621594
4155.848, 1.755419
4157.776, 0.3850502
4159.705, 2.632195
4161.633, 5.027892
4163.562, -4.799288
4165.490, 3.624189
4167.418, 8.380385
4169.347, 3.199365
4171.275, -1.198955
4173.204, -1.194959
4175.132, -5.702039
4177.061, -1.817939
4178.989, 8.362679
4180.917, -1.176945
4182.846, -3.850983
4184.774, -0.5793273
4186.703, 5.367632
4188.631, 7.8797312E-03
4190.560, -3.989662
4192.488, -1.018559
4194.417, -2.298064
4196.345, -6.676066
4198.274, -2.961611
4200.202, 0.8313929
4202.131, -2.294681
4204.059, 4.283194
4205.988, -7.902153
4207.916, 2.519429
4209.845, 5.956773
4211.773, 7.716460
4213.702, -7.906017
4215.630, -2.012016
4217.559, 9.691363
4219.487, 14.52160
4221.416, 13.13495
4223.344, 8.447805
4225.272, -1.876088
4227.201, 5.762850
4229.129, 12.00630
4231.058, 8.864841
4232.986, 3.449666
4234.915, 1.139729
4236.843, 3.474759
4238.771, 1.486086
4240.700, 0.6403915
4242.628, 1.871660
4244.557, -3.141338
4246.485, -4.418084
4248.414, -2.549935
4250.342, -10.75258
4252.271, -14.23022
4254.199, -1.641551
4256.128, -16.97945
4258.056, -7.192184
4259.985, -2.422637
4261.913, -24.07359
4263.842, -8.927920
4265.770, -5.877416
4267.699, -11.40181
4269.627, 7.599753
4271.556, -4.608282
4273.484, -9.675948
4275.413, -14.83521
4277.341, 0.3500935
4279.270, 17.20183
4281.198, 2.770415
4283.126, -3.674036
4285.055, 0.3573353
4286.983, 8.735812
4288.912, -1.928252
4290.840, 1.459653
4292.769, 5.495490
4294.697, 3.721664
4296.625, -4.806964
4298.554, 5.465166
4300.482, 12.43615
4302.411, -1.905677
4304.339, -3.715779
4306.268, -1.503893
4308.196, -6.472222
4310.125, -4.884664
4312.053, 1.052763
4313.982, -0.5091545
4315.910, -12.29995
4317.839, -17.05742
4319.767, -11.36702
4321.696, -6.897764
4323.624, -16.48108
4325.553, -5.922178
4327.481, -1.472523
4329.410, -9.125651
4331.338, -8.957728
4333.267, -5.561931
4335.195, -1.840345
4337.124, -9.485721
4339.052, -16.64144
4340.980, -0.4415921
4342.909, -8.716817
4344.837, 1.273566
4346.766, -1.805087
##END=



