##NAMES=Gehlenite
##RRUFFID=R070478
##IDEAL CHEMISTRY=Ca_2_Al(SiAl)O_7_
##LOCALITY=Durham Ranch, South of Gillette, Sublette County, Wyoming, USA
##OWNER=RRUFF
##SOURCE=Michael Scott
##DESCRIPTION=Brown short, tetragonal prismatic crystals, associated with esseneite R061123
##STATUS=The identification of this mineral is confirmed by single-crystal X-ray diffraction and chemical analysis
##URL=https://www.rruff.net/odr/rruff_sample/R070478
##MEASURED CHEMISTRY=(Ca_1.65_Na_0.34_K_0.01_)(Al_0.64_Mg_0.21_Fe^3+^_0.15_)(Si_1.56_Al_0.44_)O_7_ ; = gray phase. The light phase is esseneite: (Ca_0.97_Na_0.03_)(Fe^3+^_0.72_Mg_0.23_Ti_0.05_)(Al_0.79_Si_0.21_)Si_1.00_O_6_ (esseneite)
##DIFFRACTION SAMPLE DESCRIPTION=Single crystal, powder profile is calculated
##CELL PARAMETERS=a: 7.724 b: 7.724 c: 5.066 alpha: 90 beta: 90 gamma: 90 volume: 302.23 crystal system: tetragonal
##FILETYPE=Raman RAW
##RAMAN WAVELENGTH=785

178.0471, 62627.59
179.9756, 62565.19
181.9040, 62517.05
183.8325, 62590.68
185.7610, 62818.00
187.6894, 63011.09
189.6179, 63114.19
191.5464, 63189.89
193.4748, 63266.65
195.4033, 63336.45
197.3318, 63390.84
199.2602, 63440.46
201.1887, 63467.07
203.1172, 63454.79
205.0456, 63408.93
206.9741, 63292.52
208.9025, 63198.37
210.8310, 63187.62
212.7595, 63217.13
214.6879, 63222.56
216.6164, 63210.39
218.5449, 63161.56
220.4733, 63039.45
222.4018, 62955.09
224.3303, 62954.97
226.2587, 62965.06
228.1872, 62931.82
230.1157, 62877.01
232.0441, 62840.76
233.9726, 62825.71
235.9011, 62803.64
237.8295, 62756.72
239.7580, 62698.79
241.6865, 62636.65
243.6149, 62558.40
245.5434, 62431.74
247.4719, 62301.25
249.4003, 62217.37
251.3288, 62160.20
253.2573, 62094.00
255.1857, 62044.36
257.1142, 61977.35
259.0427, 61879.94
260.9711, 61789.71
262.8996, 61725.80
264.8281, 61668.93
266.7565, 61629.55
268.6850, 61621.63
270.6135, 61586.25
272.5419, 61492.66
274.4704, 61429.81
276.3989, 61433.26
278.3273, 61427.30
280.2558, 61346.49
282.1843, 61264.78
284.1127, 61256.04
286.0412, 61295.16
287.9697, 61308.95
289.8981, 61296.66
291.8266, 61291.54
293.7551, 61300.09
295.6835, 61305.34
297.6120, 61278.49
299.5405, 61267.82
301.4689, 61336.47
303.3974, 61422.52
305.3259, 61413.36
307.2543, 61335.05
309.1828, 61299.30
311.1113, 61316.11
313.0397, 61329.44
314.9682, 61358.11
316.8967, 61335.73
318.8251, 61200.95
320.7536, 61048.91
322.6821, 60931.27
324.6105, 60858.52
326.5390, 60855.16
328.4675, 60909.48
330.3959, 60911.76
332.3244, 60851.16
334.2529, 60747.00
336.1813, 60571.82
338.1098, 60398.65
340.0383, 60252.73
341.9667, 60114.73
343.8952, 59974.00
345.8237, 59830.22
347.7521, 59678.99
349.6806, 59519.91
351.6091, 59348.50
353.5375, 59167.56
355.4660, 58965.98
357.3945, 58728.42
359.3229, 58493.56
361.2514, 58281.44
363.1799, 58078.00
365.1083, 57882.28
367.0368, 57686.62
368.9653, 57453.73
370.8937, 57182.06
372.8222, 57010.62
374.7507, 56965.73
376.6791, 56883.79
378.6076, 56713.34
380.5361, 56531.77
382.4645, 56356.48
384.3930, 56191.14
386.3215, 56038.60
388.2499, 55895.87
390.1784, 55757.47
392.1069, 55620.41
394.0353, 55488.87
395.9638, 55364.74
397.8923, 55268.26
399.8207, 55239.68
401.7492, 55181.17
403.6777, 55037.09
405.6061, 54885.15
407.5346, 54762.54
409.4631, 54685.88
411.3915, 54705.14
413.3200, 54763.30
415.2484, 54726.71
417.1769, 54595.00
419.1054, 54491.53
421.0338, 54424.70
422.9623, 54358.33
424.8908, 54302.72
426.8192, 54260.18
428.7477, 54255.54
430.6762, 54234.87
432.6046, 54142.07
434.5331, 54040.70
436.4616, 53991.28
438.3900, 53966.77
440.3185, 53899.57
442.2470, 53782.46
444.1754, 53743.19
446.1039, 53799.89
448.0324, 53830.92
449.9608, 53822.81
451.8893, 53784.92
453.8178, 53671.88
455.7462, 53565.07
457.6747, 53558.52
459.6032, 53580.84
461.5316, 53505.79
463.4601, 53362.32
465.3886, 53288.91
467.3170, 53280.39
469.2455, 53259.93
471.1740, 53226.69
473.1024, 53185.38
475.0309, 53151.59
476.9594, 53081.65
478.8878, 52915.36
480.8163, 52741.13
482.7448, 52634.51
484.6732, 52590.46
486.6017, 52569.21
488.5302, 52523.13
490.4586, 52431.76
492.3871, 52309.35
494.3156, 52163.93
496.2440, 51983.86
498.1725, 51814.44
500.1010, 51668.84
502.0294, 51553.20
503.9579, 51467.48
505.8864, 51398.53
507.8148, 51360.39
509.7433, 51343.46
511.6718, 51314.86
513.6002, 51268.09
515.5287, 51188.56
517.4572, 51077.44
519.3856, 50989.73
521.3141, 50940.70
523.2426, 50874.96
525.1710, 50776.32
527.0995, 50685.48
529.0280, 50619.67
530.9564, 50568.89
532.8849, 50512.51
534.8134, 50450.25
536.7418, 50379.36
538.6703, 50314.98
540.5988, 50284.13
542.5272, 50256.74
544.4557, 50205.61
546.3842, 50151.92
548.3126, 50102.46
550.2411, 50044.45
552.1696, 49990.48
554.0980, 49949.81
556.0265, 49942.05
557.9550, 49990.57
559.8834, 50027.73
561.8119, 49994.55
563.7404, 49901.95
565.6688, 49767.08
567.5973, 49718.06
569.5258, 49793.88
571.4542, 49856.36
573.3827, 49811.30
575.3112, 49725.69
577.2396, 49731.36
579.1681, 49810.05
581.0966, 49812.64
583.0250, 49723.20
584.9535, 49700.39
586.8820, 49811.71
588.8104, 49955.41
590.7389, 50086.85
592.6674, 50204.23
594.5958, 50258.18
596.5243, 50290.96
598.4528, 50383.59
600.3812, 50527.44
602.3097, 50664.09
604.2382, 50738.63
606.1666, 50726.93
608.0951, 50698.96
610.0236, 50733.68
611.9520, 50777.55
613.8805, 50731.04
615.8090, 50632.75
617.7374, 50623.61
619.6659, 50699.89
621.5944, 50662.20
623.5228, 50451.65
625.4513, 50241.16
627.3798, 50092.92
629.3082, 50002.36
631.2367, 49924.65
633.1652, 49726.30
635.0936, 49365.55
637.0221, 49068.29
638.9506, 48986.73
640.8790, 48876.49
642.8075, 48592.44
644.7360, 48292.02
646.6644, 48104.68
648.5929, 47966.26
650.5214, 47796.76
652.4498, 47568.75
654.3783, 47276.64
656.3068, 46997.45
658.2352, 46791.30
660.1637, 46595.89
662.0922, 46379.52
664.0206, 46166.59
665.9491, 45951.30
667.8776, 45688.48
669.8060, 45374.52
671.7345, 45096.69
673.6630, 44926.19
675.5914, 44807.59
677.5199, 44651.17
679.4484, 44468.46
681.3768, 44332.74
683.3053, 44237.64
685.2338, 44107.93
687.1622, 43937.98
689.0907, 43810.28
691.0192, 43745.82
692.9476, 43681.84
694.8761, 43607.16
696.8046, 43550.88
698.7330, 43507.29
700.6615, 43465.37
702.5900, 43450.83
704.5184, 43444.53
706.4469, 43415.41
708.3754, 43390.45
710.3038, 43387.70
712.2323, 43419.15
714.1608, 43410.52
716.0892, 43332.34
718.0177, 43310.01
719.9462, 43339.31
721.8746, 43317.86
723.8031, 43263.48
725.7316, 43193.89
727.6600, 43081.73
729.5885, 42970.73
731.5170, 42896.94
733.4454, 42772.93
735.3739, 42545.41
737.3024, 42287.50
739.2308, 42038.27
741.1593, 41836.77
743.0878, 41694.89
745.0162, 41522.08
746.9447, 41259.64
748.8732, 41016.95
750.8016, 40886.43
752.7301, 40762.59
754.6586, 40547.30
756.5870, 40336.07
758.5155, 40174.61
760.4440, 39995.06
762.3724, 39848.84
764.3009, 39764.51
766.2294, 39610.43
768.1578, 39412.19
770.0863, 39329.68
772.0148, 39331.21
773.9432, 39276.96
775.8717, 39151.70
777.8002, 39010.10
779.7286, 38889.89
781.6571, 38850.87
783.5856, 38856.95
785.5140, 38788.05
787.4425, 38663.02
789.3710, 38598.64
791.2994, 38582.54
793.2279, 38506.21
795.1564, 38372.34
797.0848, 38276.55
799.0133, 38228.57
800.9418, 38174.72
802.8702, 38103.95
804.7987, 38036.61
806.7272, 37989.21
808.6556, 37924.91
810.5841, 37832.30
812.5126, 37722.94
814.4410, 37565.64
816.3695, 37458.21
818.2980, 37466.40
820.2264, 37456.15
822.1549, 37372.48
824.0833, 37278.58
826.0118, 37187.15
827.9402, 37109.43
829.8687, 37061.14
831.7972, 37009.50
833.7256, 36938.77
835.6541, 36876.47
837.5826, 36820.39
839.5110, 36779.20
841.4395, 36786.58
843.3680, 36790.27
845.2964, 36739.77
847.2249, 36670.80
849.1534, 36636.07
851.0818, 36608.76
853.0103, 36513.25
854.9388, 36419.56
856.8672, 36466.74
858.7957, 36554.18
860.7242, 36500.39
862.6526, 36367.26
864.5811, 36271.99
866.5096, 36204.04
868.4380, 36136.20
870.3665, 36075.55
872.2950, 36037.35
874.2234, 36018.09
876.1519, 36011.73
878.0804, 36012.71
880.0089, 36014.93
881.9373, 36020.96
883.8658, 36000.81
885.7943, 35967.32
887.7227, 36028.37
889.6512, 36159.89
891.5797, 36206.34
893.5081, 36191.78
895.4366, 36324.44
897.3651, 36578.43
899.2935, 36645.24
901.2220, 36524.06
903.1505, 36417.33
905.0789, 36340.18
907.0074, 36275.08
908.9359, 36221.34
910.8643, 36187.51
912.7928, 36174.15
914.7213, 36153.01
916.6497, 36116.39
918.5782, 36022.79
920.5067, 35871.74
922.4351, 35756.08
924.3636, 35682.96
926.2921, 35597.38
928.2205, 35491.85
930.1490, 35402.33
932.0775, 35320.15
934.0059, 35201.47
935.9344, 35074.76
937.8629, 34994.47
939.7913, 34947.89
941.7198, 34861.78
943.6483, 34723.81
945.5767, 34616.91
947.5052, 34557.50
949.4337, 34494.06
951.3621, 34424.75
953.2906, 34368.31
955.2191, 34307.77
957.1475, 34233.31
959.0760, 34159.89
961.0045, 34089.82
962.9329, 34021.25
964.8614, 33951.22
966.7899, 33860.77
968.7183, 33788.39
970.6468, 33776.10
972.5753, 33766.80
974.5037, 33724.79
976.4322, 33654.81
978.3607, 33568.00
980.2891, 33511.45
982.2176, 33471.68
984.1461, 33450.06
986.0745, 33488.86
988.0030, 33479.46
989.9315, 33387.96
991.8599, 33328.58
993.7884, 33311.92
995.7169, 33262.52
997.6453, 33160.16
999.5738, 33086.00
1001.502, 33063.73
1003.431, 33037.00
1005.359, 33008.81
1007.288, 32960.11
1009.216, 32859.53
1011.145, 32760.20
1013.073, 32689.88
1015.002, 32637.00
1016.930, 32615.91
1018.858, 32586.59
1020.787, 32501.17
1022.715, 32436.67
1024.644, 32443.86
1026.572, 32434.52
1028.501, 32371.40
1030.429, 32358.53
1032.358, 32416.80
1034.286, 32393.00
1036.215, 32262.35
1038.143, 32222.34
1040.072, 32318.18
1042.000, 32375.10
1043.928, 32331.53
1045.857, 32287.75
1047.785, 32270.79
1049.714, 32253.73
1051.642, 32263.69
1053.571, 32260.02
1055.499, 32227.87
1057.428, 32250.81
1059.356, 32297.59
1061.285, 32271.41
1063.213, 32218.47
1065.142, 32231.23
1067.070, 32300.07
1068.999, 32375.22
1070.927, 32429.92
1072.855, 32443.17
1074.784, 32451.14
1076.712, 32511.99
1078.641, 32590.62
1080.569, 32655.56
1082.498, 32731.54
1084.426, 32813.92
1086.355, 32900.21
1088.283, 33028.87
1090.212, 33176.49
1092.140, 33289.03
1094.069, 33400.14
1095.997, 33548.74
1097.926, 33711.66
1099.854, 33848.39
1101.782, 33988.73
1103.711, 34151.71
1105.639, 34352.48
1107.568, 34628.45
1109.496, 34901.66
1111.425, 35149.04
1113.353, 35349.42
1115.282, 35496.55
1117.210, 35675.65
1119.139, 35884.78
1121.067, 36136.97
1122.996, 36422.65
1124.924, 36739.26
1126.853, 37102.15
1128.781, 37439.68
1130.709, 37757.93
1132.638, 38116.59
1134.566, 38510.34
1136.495, 38839.94
1138.423, 39104.29
1140.352, 39458.95
1142.280, 39888.81
1144.209, 40260.58
1146.137, 40576.96
1148.066, 40895.46
1149.994, 41215.81
1151.923, 41529.33
1153.851, 41832.55
1155.780, 42128.29
1157.708, 42398.72
1159.636, 42596.89
1161.565, 42749.00
1163.493, 42917.26
1165.422, 43074.10
1167.350, 43162.23
1169.279, 43250.30
1171.207, 43407.23
1173.136, 43480.67
1175.064, 43382.81
1176.993, 43320.91
1178.921, 43348.21
1180.850, 43373.55
1182.778, 43382.16
1184.707, 43366.26
1186.635, 43349.71
1188.563, 43391.62
1190.492, 43459.33
1192.420, 43417.64
1194.349, 43303.30
1196.277, 43310.32
1198.206, 43384.40
1200.134, 43360.04
1202.063, 43265.29
1203.991, 43136.52
1205.920, 43027.54
1207.848, 43036.69
1209.777, 43040.10
1211.705, 42918.94
1213.634, 42735.66
1215.562, 42504.42
1217.490, 42304.95
1219.419, 42164.06
1221.347, 42033.41
1223.276, 41930.42
1225.204, 41729.76
1227.133, 41378.69
1229.061, 41094.52
1230.990, 40918.99
1232.918, 40726.63
1234.847, 40505.84
1236.775, 40311.96
1238.704, 40127.95
1240.632, 39857.88
1242.561, 39566.77
1244.489, 39432.21
1246.417, 39367.57
1248.346, 39249.06
1250.274, 39110.10
1252.203, 38924.38
1254.131, 38813.72
1256.060, 38912.50
1257.988, 39017.81
1259.917, 39036.20
1261.845, 39057.83
1263.774, 39085.58
1265.702, 39193.27
1267.631, 39409.02
1269.559, 39603.63
1271.488, 39765.11
1273.416, 39856.61
1275.344, 39912.69
1277.273, 40204.05
1279.201, 40656.36
1281.130, 41005.34
1283.058, 41313.82
1284.987, 41686.39
1286.915, 42091.36
1288.844, 42519.58
1290.772, 42934.75
1292.701, 43259.21
1294.629, 43656.45
1296.558, 44235.96
1298.486, 44813.61
1300.415, 45379.98
1302.343, 45866.38
1304.271, 46241.59
1306.200, 46719.41
1308.128, 47302.93
1310.057, 47925.95
1311.985, 48576.84
1313.914, 49224.69
1315.842, 49888.69
1317.771, 50588.36
1319.699, 51338.68
1321.628, 52135.43
1323.556, 53009.70
1325.485, 54009.63
1327.413, 55040.43
1329.342, 56054.68
1331.270, 57130.55
1333.198, 58278.22
1335.127, 59479.08
1337.055, 60724.81
1338.984, 62129.36
1340.912, 63641.09
1342.841, 64947.35
1344.769, 66172.39
1346.698, 67636.87
1348.626, 69066.23
1350.555, 70200.16
1352.483, 71223.35
1354.412, 72298.70
1356.340, 73125.27
1358.269, 73573.66
1360.197, 73873.00
1362.125, 74063.66
1364.054, 74071.15
1365.982, 73889.84
1367.911, 73303.84
1369.839, 72390.71
1371.768, 71381.23
1373.696, 70269.98
1375.625, 69078.41
1377.553, 67729.02
1379.482, 66059.10
1381.410, 64429.18
1383.339, 62986.48
1385.267, 61537.30
1387.196, 60036.18
1389.124, 58549.09
1391.052, 57085.29
1392.981, 55637.06
1394.909, 54246.91
1396.838, 53122.23
1398.766, 52126.64
1400.695, 50998.00
1402.623, 49940.34
1404.552, 49133.09
1406.480, 48438.23
1408.409, 47823.45
1410.337, 47253.00
1412.266, 46715.81
1414.194, 46239.88
1416.123, 45835.65
1418.051, 45642.27
1419.979, 45576.00
1421.908, 45405.76
1423.836, 45206.33
1425.765, 45054.66
1427.693, 44951.84
1429.622, 44893.00
1431.550, 44899.79
1433.479, 44991.61
1435.407, 45083.27
1437.336, 45164.68
1439.264, 45245.39
1441.193, 45332.54
1443.121, 45453.22
1445.050, 45603.18
1446.978, 45801.72
1448.906, 45984.92
1450.835, 46061.79
1452.763, 46169.37
1454.692, 46386.51
1456.620, 46582.75
1458.549, 46744.91
1460.477, 46881.98
1462.406, 47004.45
1464.334, 47201.27
1466.263, 47398.18
1468.191, 47412.68
1470.120, 47420.76
1472.048, 47540.65
1473.977, 47744.24
1475.905, 48059.80
1477.833, 48368.17
1479.762, 48672.89
1481.690, 48856.23
1483.619, 48939.57
1485.547, 49080.25
1487.476, 49276.87
1489.404, 49582.04
1491.333, 49860.27
1493.261, 50016.09
1495.190, 50133.03
1497.118, 50217.08
1499.047, 50370.13
1500.975, 50619.64
1502.904, 50736.54
1504.832, 50783.41
1506.760, 51047.52
1508.689, 51334.88
1510.617, 51385.93
1512.546, 51374.93
1514.474, 51340.46
1516.403, 51407.76
1518.331, 51633.97
1520.260, 51715.66
1522.188, 51658.99
1524.117, 51660.08
1526.045, 51702.19
1527.974, 51788.73
1529.902, 51839.19
1531.831, 51769.56
1533.759, 51707.75
1535.688, 51690.13
1537.616, 51629.63
1539.544, 51516.86
1541.473, 51432.89
1543.401, 51380.55
1545.330, 51400.75
1547.258, 51410.57
1549.187, 51331.11
1551.115, 51211.59
1553.044, 51035.78
1554.972, 51002.83
1556.901, 51128.51
1558.829, 51235.40
1560.758, 51316.30
1562.686, 51365.48
1564.615, 51423.16
1566.543, 51550.82
1568.471, 51673.56
1570.400, 51757.38
1572.328, 51870.73
1574.257, 52019.47
1576.185, 52165.66
1578.114, 52315.52
1580.042, 52525.66
1581.971, 52700.07
1583.899, 52672.44
1585.828, 52716.93
1587.756, 53003.49
1589.685, 53190.02
1591.613, 53264.58
1593.542, 53302.59
1595.470, 53352.10
1597.398, 53529.91
1599.327, 53715.20
1601.255, 53784.95
1603.184, 53874.30
1605.112, 54043.43
1607.041, 54172.00
1608.969, 54260.49
1610.898, 54333.30
1612.826, 54386.73
1614.755, 54381.30
1616.683, 54410.55
1618.612, 54576.64
1620.540, 54671.23
1622.469, 54627.89
1624.397, 54638.75
1626.325, 54697.33
1628.254, 54807.37
1630.182, 54902.36
1632.111, 54915.49
1634.039, 54901.25
1635.968, 54860.44
1637.896, 54875.46
1639.825, 54946.79
1641.753, 55002.28
1643.682, 55006.87
1645.610, 54850.62
1647.538, 54688.14
1649.467, 54614.73
1651.395, 54523.57
1653.324, 54396.59
1655.252, 54255.29
1657.181, 54110.15
1659.109, 53989.83
1661.038, 53857.98
1662.966, 53663.45
1664.895, 53478.20
1666.823, 53322.26
1668.752, 53067.82
1670.680, 52734.74
1672.609, 52583.46
1674.537, 52454.18
1676.465, 52121.63
1678.394, 51760.39
1680.322, 51430.28
1682.251, 51119.47
1684.179, 50833.16
1686.108, 50658.14
1688.036, 50497.37
1689.965, 50161.59
1691.893, 49816.18
1693.822, 49538.22
1695.750, 49310.07
1697.679, 49125.46
1699.607, 48881.54
1701.536, 48596.45
1703.464, 48279.61
1705.392, 47987.92
1707.321, 47753.32
1709.249, 47569.85
1711.178, 47431.48
1713.106, 47242.36
1715.035, 46983.09
1716.963, 46606.26
1718.892, 46204.18
1720.820, 45806.23
1722.749, 45499.09
1724.677, 45297.08
1726.606, 45073.54
1728.534, 44808.91
1730.463, 44448.16
1732.391, 44076.50
1734.319, 43715.39
1736.248, 43432.17
1738.176, 43236.54
1740.105, 42979.70
1742.033, 42668.14
1743.962, 42320.14
1745.890, 41934.34
1747.819, 41479.71
1749.747, 41055.50
1751.676, 40664.02
1753.604, 40382.03
1755.533, 40122.07
1757.461, 39750.16
1759.390, 39341.10
1761.318, 38925.85
1763.246, 38508.96
1765.175, 38099.53
1767.103, 37720.66
1769.032, 37369.62
1770.960, 37036.98
1772.889, 36731.98
1774.817, 36460.68
1776.746, 36157.50
1778.674, 35826.29
1780.603, 35512.57
1782.531, 35201.45
1784.460, 34869.39
1786.388, 34586.82
1788.317, 34376.18
1790.245, 34113.34
1792.173, 33807.27
1794.102, 33454.54
1796.030, 33128.88
1797.959, 32859.71
1799.887, 32674.63
1801.816, 32560.36
1803.744, 32346.73
1805.673, 32071.17
1807.601, 31718.04
1809.530, 31490.33
1811.458, 31464.19
1813.387, 31249.96
1815.315, 30902.53
1817.244, 30727.00
1819.172, 30592.37
1821.100, 30403.65
1823.029, 30195.36
1824.957, 29972.31
1826.886, 29711.10
1828.814, 29451.85
1830.743, 29251.98
1832.671, 29070.85
1834.600, 28921.97
1836.528, 28610.87
1838.457, 28207.68
1840.385, 28027.49
1842.314, 27877.78
1844.242, 27601.38
1846.171, 27295.00
1848.099, 26971.86
1850.027, 26720.98
1851.956, 26470.34
1853.884, 26104.67
1855.813, 25754.51
1857.741, 25459.85
1859.670, 25252.17
1861.598, 25077.58
1863.527, 24754.08
1865.455, 24417.29
1867.384, 24156.90
1869.312, 23838.47
1871.241, 23464.32
1873.169, 23217.85
1875.098, 23003.59
1877.026, 22739.78
1878.954, 22427.35
1880.883, 22058.64
1882.811, 21800.30
1884.740, 21589.33
1886.668, 21315.69
1888.597, 21073.22
1890.525, 20909.96
1892.454, 20649.06
1894.382, 20315.37
1896.311, 20014.54
1898.239, 19733.06
1900.168, 19465.61
1902.096, 19255.52
1904.025, 19087.35
1905.953, 18878.00
1907.881, 18638.69
1909.810, 18377.59
1911.738, 18144.46
1913.667, 17937.77
1915.595, 17762.28
1917.524, 17595.56
1919.452, 17384.10
1921.381, 17173.29
1923.309, 16967.04
1925.238, 16745.24
1927.166, 16549.08
1929.095, 16466.95
1931.023, 16353.66
1932.952, 16171.72
1934.880, 16015.94
1936.808, 15873.51
1938.737, 15746.31
1940.665, 15600.09
1942.594, 15392.96
1944.522, 15228.96
1946.451, 15110.68
1948.379, 15005.27
1950.308, 14896.32
1952.236, 14799.38
1954.165, 14652.70
1956.093, 14469.92
1958.022, 14335.78
1959.950, 14228.43
1961.879, 14113.65
1963.807, 14008.90
1965.735, 13925.90
1967.664, 13845.44
1969.592, 13756.32
1971.521, 13662.42
1973.449, 13552.88
1975.378, 13434.00
1977.306, 13380.60
1979.235, 13337.59
1981.163, 13258.99
1983.092, 13187.93
1985.020, 13134.39
1986.949, 13031.05
1988.877, 12916.38
1990.806, 12808.92
1992.734, 12722.06
1994.662, 12650.94
1996.591, 12569.02
1998.519, 12482.66
2000.448, 12406.99
2002.376, 12290.17
2004.305, 12154.76
2006.233, 12121.90
2008.162, 12082.55
2010.090, 11979.46
2012.019, 11888.06
2013.947, 11823.64
2015.876, 11801.33
2017.804, 11800.09
2019.733, 11800.68
2021.661, 11718.78
2023.589, 11599.24
2025.518, 11469.28
2027.446, 11365.07
2029.375, 11299.53
2031.303, 11261.11
2033.232, 11238.14
2035.160, 11167.43
2037.089, 11088.35
2039.017, 11027.97
2040.946, 10997.57
2042.874, 10963.74
2044.803, 10910.69
2046.731, 10829.46
2048.659, 10728.10
2050.588, 10743.59
2052.516, 10776.26
2054.445, 10684.58
2056.373, 10579.50
2058.302, 10501.50
2060.230, 10470.51
2062.159, 10437.50
2064.087, 10398.07
2066.016, 10324.19
2067.944, 10234.43
2069.873, 10205.29
2071.801, 10167.42
2073.729, 10046.56
2075.658, 9984.038
2077.586, 9971.244
2079.515, 9929.226
2081.443, 9871.567
2083.372, 9806.357
2085.300, 9780.162
2087.229, 9768.008
2089.157, 9735.980
2091.086, 9674.090
2093.014, 9602.434
2094.943, 9528.520
2096.871, 9459.366
2098.800, 9436.622
2100.728, 9395.679
2102.656, 9341.886
2104.585, 9307.044
2106.513, 9261.666
2108.442, 9201.429
2110.370, 9182.651
2112.299, 9160.495
2114.227, 9047.386
2116.156, 8984.896
2118.084, 9000.957
2120.013, 8917.122
2121.941, 8847.911
2123.870, 8891.226
2125.798, 8869.862
2127.727, 8795.260
2129.655, 8751.312
2131.583, 8715.813
2133.512, 8676.933
2135.440, 8642.945
2137.369, 8611.194
2139.297, 8574.945
2141.226, 8541.408
2143.154, 8507.701
2145.083, 8438.580
2147.011, 8388.895
2148.940, 8395.739
2150.868, 8384.688
2152.797, 8349.795
2154.725, 8273.167
2156.654, 8182.421
2158.582, 8092.461
2160.510, 8092.070
2162.439, 8107.887
2164.367, 8077.078
2166.296, 8019.174
2168.224, 7952.845
2170.153, 7942.157
2172.081, 7920.808
2174.010, 7863.985
2175.938, 7829.389
2177.867, 7805.763
2179.795, 7788.097
2181.724, 7738.576
2183.652, 7669.555
2185.581, 7657.162
2187.509, 7652.725
2189.438, 7637.099
2191.366, 7582.735
2193.294, 7519.404
2195.223, 7474.657
2197.151, 7433.822
2199.080, 7394.659
2201.008, 7351.882
2202.937, 7323.968
2204.865, 7320.569
2206.794, 7267.257
2208.722, 7217.308
2210.651, 7233.112
2212.579, 7205.348
2214.508, 7144.902
2216.436, 7133.364
2218.365, 7132.575
2220.293, 7125.847
2222.221, 7076.401
2224.150, 7021.759
2226.078, 6982.973
2228.007, 6944.089
2229.935, 6916.332
2231.864, 6928.506
2233.792, 6931.658
2235.721, 6917.965
2237.649, 6890.053
2239.578, 6861.543
2241.506, 6839.860
2243.435, 6820.151
2245.363, 6796.475
2247.292, 6722.759
2249.220, 6672.214
2251.148, 6669.274
2253.077, 6682.004
2255.005, 6657.268
2256.934, 6567.805
2258.862, 6533.055
2260.791, 6533.482
2262.719, 6533.304
2264.648, 6525.987
2266.576, 6502.976
2268.505, 6417.146
2270.433, 6352.661
2272.362, 6304.176
2274.290, 6336.376
2276.219, 6357.940
2278.147, 6222.813
2280.075, 6173.824
2282.004, 6169.300
2283.932, 6191.483
2285.861, 6178.646
2287.789, 6137.077
2289.718, 6069.378
2291.646, 6000.745
2293.575, 5954.412
2295.503, 5950.287
2297.432, 5943.279
2299.360, 5901.474
2301.289, 5888.532
2303.217, 5882.106
2305.146, 5842.769
2307.074, 5818.336
2309.002, 5794.904
2310.931, 5782.621
2312.859, 5761.874
2314.788, 5725.753
2316.716, 5700.159
2318.645, 5652.938
2320.573, 5601.762
2322.502, 5557.859
2324.430, 5544.932
2326.359, 5563.437
2328.287, 5543.141
2330.216, 5490.431
2332.144, 5456.128
2334.073, 5460.338
2336.001, 5461.365
2337.929, 5406.819
2339.858, 5361.528
2341.786, 5340.124
2343.715, 5314.158
2345.643, 5279.431
2347.572, 5235.734
2349.500, 5207.749
2351.429, 5190.785
2353.357, 5181.075
2355.286, 5155.104
2357.214, 5117.714
2359.143, 5114.059
2361.071, 5095.690
2363.000, 5038.870
2364.928, 5039.715
2366.856, 5028.371
2368.785, 4975.666
2370.713, 4977.218
2372.642, 4973.261
2374.570, 4938.945
2376.499, 4919.270
2378.427, 4890.666
2380.356, 4857.523
2382.284, 4831.826
2384.213, 4816.816
2386.141, 4816.461
2388.070, 4769.357
2389.998, 4728.953
2391.927, 4706.800
2393.855, 4673.227
2395.783, 4658.400
2397.712, 4647.004
2399.640, 4636.296
2401.569, 4629.537
2403.497, 4598.652
2405.426, 4567.326
2407.354, 4545.994
2409.283, 4521.979
2411.211, 4520.678
2413.140, 4510.556
2415.068, 4461.192
2416.997, 4415.743
2418.925, 4409.461
2420.854, 4378.216
2422.782, 4322.398
2424.710, 4319.692
2426.639, 4312.860
2428.567, 4290.803
2430.496, 4259.116
2432.424, 4257.521
2434.353, 4253.496
2436.281, 4205.317
2438.210, 4202.211
2440.138, 4200.712
2442.067, 4150.435
2443.995, 4124.562
2445.924, 4132.010
2447.852, 4098.439
2449.781, 4057.266
2451.709, 4035.778
2453.637, 4015.823
2455.566, 4023.110
2457.494, 4034.025
2459.423, 4015.042
2461.351, 3984.696
2463.280, 3952.027
2465.208, 3903.083
2467.137, 3850.971
2469.065, 3854.734
2470.994, 3839.506
2472.922, 3823.586
2474.851, 3843.187
2476.779, 3840.905
2478.708, 3803.697
2480.636, 3760.385
2482.564, 3749.468
2484.493, 3734.692
2486.421, 3710.150
2488.350, 3711.261
2490.278, 3688.329
2492.207, 3629.125
2494.135, 3619.795
2496.064, 3623.671
2497.992, 3615.689
2499.921, 3595.113
2501.849, 3562.684
2503.778, 3536.156
2505.706, 3515.291
2507.635, 3482.053
2509.563, 3438.720
2511.491, 3430.027
2513.420, 3453.454
2515.348, 3431.179
2517.277, 3408.376
2519.205, 3396.631
2521.134, 3359.437
2523.062, 3320.539
2524.991, 3317.563
2526.919, 3356.646
2528.848, 3330.811
2530.776, 3283.478
2532.705, 3247.449
2534.633, 3238.313
2536.562, 3239.708
2538.490, 3231.381
2540.418, 3199.177
2542.347, 3173.974
2544.275, 3200.484
2546.204, 3277.191
2548.132, 3339.738
2550.061, 3194.244
2551.989, 3113.187
2553.918, 3094.564
2555.846, 3056.703
2557.775, 3025.408
2559.703, 3011.326
2561.632, 3012.692
2563.560, 2983.191
2565.489, 2945.210
2567.417, 2934.114
2569.345, 2923.807
2571.274, 2906.498
2573.202, 2888.810
2575.131, 2892.747
2577.059, 2891.220
2578.988, 2870.772
2580.916, 2840.639
2582.845, 2820.627
2584.773, 2811.309
2586.702, 2779.888
2588.630, 2753.102
2590.559, 2742.770
2592.487, 2731.045
2594.416, 2720.874
2596.344, 2718.443
2598.272, 2719.169
2600.201, 2716.941
2602.129, 2707.901
2604.058, 2676.753
2605.986, 2650.123
2607.915, 2633.505
2609.843, 2598.008
2611.772, 2591.242
2613.700, 2609.794
2615.629, 2589.126
2617.557, 2566.510
2619.486, 2547.386
2621.414, 2529.957
2623.343, 2509.922
2625.271, 2484.495
2627.199, 2459.741
2629.128, 2448.340
2631.056, 2450.010
2632.985, 2458.486
2634.913, 2439.432
2636.842, 2414.972
2638.770, 2417.561
2640.699, 2403.764
2642.627, 2380.735
2644.556, 2367.227
2646.484, 2370.694
2648.413, 2357.194
2650.341, 2312.445
2652.270, 2284.738
2654.198, 2272.328
2656.126, 2273.950
2658.055, 2262.226
2659.983, 2257.557
2661.912, 2249.626
2663.840, 2190.816
2665.769, 2177.212
2667.697, 2201.722
2669.626, 2186.088
2671.554, 2184.904
2673.483, 2181.865
2675.411, 2157.529
2677.340, 2122.319
2679.268, 2093.768
2681.197, 2098.840
2683.125, 2091.601
2685.053, 2075.179
2686.982, 2040.256
2688.910, 2036.442
2690.839, 2048.031
2692.767, 2028.016
2694.696, 2003.362
2696.624, 1983.857
2698.553, 1979.419
2700.481, 1986.255
2702.410, 1962.779
2704.338, 1925.163
2706.267, 1947.995
2708.195, 1938.599
2710.124, 1915.827
2712.052, 1904.682
2713.980, 1880.201
2715.909, 1869.408
2717.837, 1888.336
2719.766, 1854.837
2721.694, 1829.802
2723.623, 1841.145
2725.551, 1830.063
2727.480, 1800.096
2729.408, 1769.378
2731.337, 1761.486
2733.265, 1774.331
2735.194, 1781.920
2737.122, 1747.693
2739.051, 1731.507
2740.979, 1735.643
2742.907, 1741.044
2744.836, 1720.156
2746.764, 1712.471
2748.693, 1703.552
2750.621, 1681.496
2752.550, 1663.040
2754.478, 1666.998
2756.407, 1645.564
2758.335, 1626.778
2760.264, 1636.658
2762.192, 1624.541
2764.121, 1587.547
2766.049, 1562.644
2767.978, 1560.428
2769.906, 1557.219
2771.834, 1538.069
2773.763, 1533.318
2775.691, 1523.147
2777.620, 1526.576
2779.548, 1536.637
2781.477, 1507.593
2783.405, 1489.017
2785.334, 1470.670
2787.262, 1449.339
2789.191, 1447.659
2791.119, 1450.430
2793.048, 1446.003
2794.976, 1455.654
2796.905, 1427.660
2798.833, 1409.321
2800.761, 1402.020
2802.690, 1396.340
2804.618, 1382.800
2806.547, 1377.875
2808.475, 1362.820
2810.404, 1357.756
2812.332, 1351.645
2814.261, 1338.041
2816.189, 1353.239
2818.118, 1340.642
2820.046, 1335.522
2821.975, 1336.560
2823.903, 1296.033
2825.832, 1285.099
2827.760, 1312.976
2829.688, 1329.384
2831.617, 1299.959
2833.545, 1266.707
2835.474, 1273.950
2837.402, 1284.380
2839.331, 1265.137
2841.259, 1227.032
2843.188, 1204.675
2845.116, 1224.640
2847.045, 1206.531
2848.973, 1190.125
2850.902, 1187.879
2852.830, 1163.377
2854.759, 1167.960
2856.687, 1191.910
2858.615, 1169.369
2860.544, 1146.699
2862.472, 1136.654
2864.401, 1122.107
2866.329, 1105.268
2868.258, 1102.360
2870.186, 1111.137
2872.115, 1101.504
2874.043, 1099.531
2875.972, 1103.326
2877.900, 1101.411
2879.829, 1082.309
2881.757, 1058.805
2883.686, 1071.071
2885.614, 1061.125
2887.542, 1051.198
2889.471, 1051.745
2891.399, 1035.183
2893.328, 1038.862
2895.256, 1042.908
2897.185, 1031.273
2899.113, 1001.326
2901.042, 998.7220
2902.970, 987.5371
2904.899, 996.0163
2906.827, 982.8826
2908.756, 968.1382
2910.684, 967.2762
2912.613, 945.6188
2914.541, 950.6005
2916.469, 967.4952
2918.398, 954.2806
2920.326, 945.8963
2922.255, 924.3344
2924.183, 907.8270
2926.112, 948.4066
2928.040, 952.2897
2929.969, 925.0545
2931.897, 918.3712
2933.826, 899.1979
2935.754, 903.1382
2937.683, 931.8609
2939.611, 897.3137
2941.540, 880.0955
2943.468, 882.6093
2945.396, 878.5745
2947.325, 876.9461
2949.253, 867.2485
2951.182, 854.9119
2953.110, 844.3239
2955.039, 831.8835
2956.967, 832.6625
2958.896, 846.4817
2960.824, 834.2094
2962.753, 825.5486
2964.681, 817.1894
2966.610, 783.1522
2968.538, 785.4374
2970.467, 797.4875
2972.395, 793.5718
2974.323, 794.2642
2976.252, 795.9715
2978.180, 791.1922
2980.109, 777.1680
2982.037, 769.5687
2983.966, 774.4455
2985.894, 779.6372
2987.823, 764.2992
2989.751, 765.5380
2991.680, 772.7034
2993.608, 775.9598
2995.537, 775.0540
2997.465, 766.1495
2999.394, 755.6719
3001.322, 746.7949
3003.250, 746.5670
3005.179, 751.6768
3007.107, 750.9930
3009.036, 737.6163
3010.964, 724.9525
3012.893, 724.4734
3014.821, 735.2283
3016.750, 733.9553
3018.678, 716.0723
3020.607, 709.7786
3022.535, 718.8892
3024.464, 713.5111
3026.392, 704.5572
3028.321, 689.5153
3030.249, 666.0121
3032.177, 668.3328
3034.106, 689.2593
3036.034, 707.8972
3037.963, 696.7604
3039.891, 696.3055
3041.820, 694.2693
3043.748, 690.5941
3045.677, 699.1243
3047.605, 686.4440
3049.534, 684.8774
3051.462, 700.7025
3053.391, 707.4915
3055.319, 702.1656
3057.248, 696.4088
3059.176, 697.2184
3061.104, 704.5456
3063.033, 698.6033
3064.961, 695.2004
3066.890, 707.2133
3068.818, 697.1450
3070.747, 699.5342
3072.675, 705.9213
3074.604, 699.2285
3076.532, 691.3123
3078.461, 687.3576
3080.389, 688.1470
3082.318, 700.5452
3084.246, 693.0597
3086.175, 671.9276
3088.103, 657.6807
3090.031, 685.1004
3091.960, 693.5779
3093.888, 678.2101
3095.817, 660.5616
3097.745, 678.5673
3099.674, 655.3478
3101.602, 639.2482
3103.531, 641.6309
3105.459, 625.0202
3107.388, 616.6519
3109.316, 606.2036
3111.245, 599.9671
3113.173, 626.1293
3115.102, 619.1318
3117.030, 614.1544
3118.958, 620.1754
3120.887, 599.6002
3122.815, 585.3254
3124.744, 582.4269
3126.672, 582.8142
3128.601, 563.6719
3130.529, 576.3935
3132.458, 591.3492
3134.386, 583.7725
3136.315, 552.7338
3138.243, 557.3776
3140.172, 557.5638
3142.100, 547.1104
3144.029, 560.2642
3145.957, 552.4925
3147.885, 549.9843
3149.814, 561.5399
3151.742, 532.2029
3153.671, 537.1925
3155.599, 569.0223
3157.528, 600.7889
3159.456, 587.8920
3161.385, 569.7953
3163.313, 550.5800
3165.242, 542.3195
3167.170, 563.3000
3169.099, 554.9807
3171.027, 563.9855
3172.956, 571.8043
3174.884, 558.9745
3176.813, 562.6827
3178.741, 581.4084
3180.669, 596.6960
3182.598, 581.9858
3184.526, 607.5408
3186.455, 600.8225
3188.383, 591.1062
3190.312, 619.4916
3192.240, 624.4284
3194.169, 612.5657
3196.097, 609.6750
3198.026, 621.2255
3199.954, 638.3278
3201.883, 643.2949
3203.811, 625.2123
3205.740, 608.9930
3207.668, 666.4064
3209.596, 689.8954
3211.525, 683.8523
3213.453, 663.8661
3215.382, 655.9071
3217.310, 721.2431
3219.239, 759.5544
3221.167, 768.1058
3223.096, 765.8836
3225.024, 774.4372
3226.953, 782.6191
3228.881, 794.0335
3230.810, 797.2867
3232.738, 815.0659
3234.667, 846.0005
3236.595, 874.8355
3238.523, 888.5809
3240.452, 905.1106
3242.380, 906.7657
3244.309, 932.1198
3246.237, 977.9073
3248.166, 1014.868
3250.094, 1051.031
3252.023, 1082.247
3253.951, 1117.088
3255.880, 1162.014
3257.808, 1224.863
3259.737, 1279.557
3261.665, 1325.967
3263.594, 1380.868
3265.522, 1495.077
3267.450, 1523.632
3269.379, 1557.598
3271.307, 1612.438
3273.236, 1647.370
3275.164, 1714.166
3277.093, 1774.609
3279.021, 1816.856
3280.950, 1853.025
3282.878, 1857.652
3284.807, 1847.467
3286.735, 1859.305
3288.664, 1867.595
3290.592, 1840.557
3292.520, 1773.396
3294.449, 1725.820
3296.377, 1686.819
3298.306, 1640.240
3300.234, 1560.980
3302.163, 1525.898
3304.091, 1469.967
3306.020, 1399.498
3307.948, 1386.379
3309.876, 1303.332
3311.805, 1260.055
3313.733, 1228.064
3315.662, 1166.421
3317.590, 1122.975
3319.519, 1076.231
3321.447, 1025.046
3323.376, 990.6739
3325.304, 971.2354
3327.233, 921.1836
3329.161, 882.6949
3331.090, 881.9680
3333.018, 894.5724
3334.947, 827.3442
3336.875, 776.0538
3338.803, 759.0649
3340.732, 747.8195
3342.660, 721.7448
3344.589, 728.4241
3346.517, 718.7014
3348.446, 696.0129
3350.374, 680.3362
3352.303, 677.2128
3354.231, 685.3699
3356.160, 652.8236
3358.088, 623.6177
3360.017, 615.1826
3361.945, 598.2317
3363.874, 625.1854
3365.802, 625.9907
3367.730, 622.1132
3369.659, 638.0967
3371.587, 606.8341
3373.516, 625.3097
3375.444, 622.7373
3377.373, 593.1464
3379.301, 570.9774
3381.230, 581.1865
3383.158, 601.0187
3385.087, 594.4843
3387.015, 570.4739
3388.944, 567.2773
3390.872, 554.5974
3392.801, 574.4151
3394.729, 576.9531
3396.657, 554.1558
3398.586, 550.1060
3400.514, 546.0651
3402.443, 550.5516
3404.371, 540.4052
3406.300, 522.3407
3408.228, 555.2708
3410.157, 587.4233
3412.085, 567.3373
3414.014, 554.3597
3415.942, 575.2913
3417.871, 569.3887
3419.799, 556.9727
3421.728, 563.9852
3423.656, 579.1074
3425.584, 588.5701
3427.513, 588.4617
3429.441, 565.7346
3431.370, 595.0249
3433.298, 610.4647
3435.227, 578.5794
3437.155, 566.9127
3439.084, 603.2505
3441.012, 615.0053
3442.941, 593.7468
3444.869, 566.5002
3446.798, 576.8787
3448.726, 601.1190
3450.655, 595.1392
3452.583, 586.0791
3454.511, 595.1298
3456.440, 615.9225
3458.368, 604.5003
3460.297, 566.0958
3462.225, 565.7897
3464.154, 595.6673
3466.082, 591.8171
3468.011, 556.5031
3469.939, 564.1038
3471.868, 545.3157
3473.796, 509.4835
3475.725, 506.9408
3477.653, 497.5800
3479.582, 516.7288
3481.510, 498.8419
3483.438, 468.6284
3485.367, 467.0825
3487.295, 468.1261
3489.224, 436.7688
3491.152, 466.4420
3493.081, 465.7753
3495.009, 401.1292
3496.938, 407.5374
3498.866, 435.6332
3500.795, 417.3262
3502.723, 406.6512
3504.652, 400.9108
3506.580, 347.1735
3508.509, 393.2260
3510.437, 388.0921
3512.365, 369.6180
3514.294, 351.1682
3516.222, 335.5308
3518.151, 366.6999
3520.079, 355.4694
3522.008, 344.7591
3523.936, 337.1619
3525.865, 329.4579
3527.793, 326.4058
3529.722, 320.8007
3531.650, 315.8966
3533.579, 309.2256
3535.507, 304.9128
3537.436, 304.4518
3539.364, 294.2611
3541.292, 284.4182
3543.221, 291.7902
3545.149, 294.9231
3547.078, 287.0716
3549.006, 280.0327
3550.935, 268.6187
3552.863, 256.6028
3554.792, 257.2119
3556.720, 256.7411
3558.649, 249.2830
3560.577, 257.7201
3562.506, 254.9798
3564.434, 238.4184
3566.363, 213.6904
3568.291, 210.0962
3570.219, 237.9960
3572.148, 220.6487
3574.076, 216.9931
3576.005, 216.9052
3577.933, 215.7529
3579.862, 214.6399
3581.790, 214.4143
3583.719, 192.6279
3585.647, 206.8623
3587.576, 197.7835
3589.504, 179.5123
3591.433, 175.5121
3593.361, 187.7263
3595.290, 184.5602
3597.218, 179.2347
3599.146, 174.4116
3601.075, 187.3549
3603.003, 204.0416
3604.932, 177.9102
3606.860, 138.0878
3608.789, 169.2820
3610.717, 175.2439
3612.646, 170.7856
3614.574, 171.6829
3616.503, 143.3951
3618.431, 151.2475
3620.360, 165.0848
3622.288, 168.9457
3624.217, 163.3491
3626.145, 162.0553
3628.073, 174.2685
3630.002, 137.8281
3631.930, 162.0369
3633.859, 155.3604
3635.787, 140.7712
3637.716, 149.3242
3639.644, 168.8603
3641.573, 168.9957
3643.501, 153.2605
3645.430, 167.0797
3647.358, 148.7145
3649.287, 110.5700
3651.215, 112.4141
3653.144, 146.2794
3655.072, 159.9321
3657.000, 142.3002
3658.929, 130.5716
3660.857, 119.3568
3662.786, 105.7066
3664.714, 136.0668
3666.643, 143.2211
3668.571, 127.0744
3670.500, 130.7098
3672.428, 133.9285
3674.357, 129.1857
3676.285, 137.6380
3678.214, 132.8738
3680.142, 123.2455
3682.071, 124.6620
3683.999, 137.2032
3685.927, 134.7718
3687.856, 106.4596
3689.784, 86.55825
3691.713, 80.44507
3693.641, 94.78506
3695.570, 95.92676
3697.498, 101.9474
3699.427, 107.7959
3701.355, 93.87098
3703.284, 104.2150
3705.212, 132.7805
3707.141, 121.8490
3709.069, 112.2591
3710.998, 100.5867
3712.926, 83.80059
3714.854, 84.98218
3716.783, 91.85707
3718.711, 74.79869
3720.640, 96.34808
3722.568, 90.26447
3724.497, 80.05187
3726.425, 91.85722
3728.354, 76.04311
3730.282, 87.79170
3732.211, 89.54042
3734.139, 80.34660
3736.068, 86.13039
3737.996, 70.88014
3739.925, 42.62086
3741.853, 92.22463
3743.781, 68.30701
3745.710, 74.83669
3747.638, 84.24426
3749.567, 76.30814
3751.495, 68.27946
3753.424, 79.92424
3755.352, 102.6748
3757.281, 83.06621
3759.209, 99.64818
3761.138, 96.27419
3763.066, 91.06859
3764.995, 95.01232
3766.923, 95.24736
3768.852, 85.46687
3770.780, 101.8799
3772.708, 62.52171
3774.637, 73.64275
3776.565, 74.68244
3778.494, 63.39178
3780.422, 68.46996
3782.351, 83.94881
3784.279, 62.36045
3786.208, 73.22938
3788.136, 77.34959
3790.065, 67.28802
3791.993, 58.51211
3793.922, 71.21155
3795.850, 93.41882
3797.779, 92.63751
3799.707, 73.68905
3801.635, 81.05798
3803.564, 73.39763
3805.492, 89.66286
3807.421, 98.44644
3809.349, 87.79588
3811.278, 74.85410
3813.206, 71.71609
3815.135, 74.44044
3817.063, 62.92733
3818.992, 77.03793
3820.920, 73.70399
3822.849, 82.75607
3824.777, 77.33692
3826.706, 52.48434
3828.634, 83.07441
3830.563, 82.97782
3832.491, 71.58971
3834.419, 80.75748
3836.348, 83.77117
3838.276, 85.31516
3840.205, 87.82232
3842.133, 88.80746
3844.062, 87.85444
3845.990, 57.50736
3847.919, 78.10075
3849.847, 62.30292
3851.776, 60.22697
3853.704, 56.98688
3855.633, 62.03391
3857.561, 84.30732
3859.490, 95.31285
3861.418, 42.14316
3863.346, 41.12812
3865.275, 60.66120
3867.203, 77.10616
3869.132, 53.41354
3871.060, 49.46959
3872.989, 75.44186
3874.917, 85.37903
3876.846, 61.53506
3878.774, 51.15835
3880.703, 78.53671
3882.631, 81.99884
3884.560, 59.51392
3886.488, 53.98246
3888.417, 57.17030
3890.345, 32.88871
3892.273, 13.96957
3894.202, 78.37188
3896.130, 80.71311
3898.059, 68.01542
3899.987, 56.97893
3901.916, 72.48546
3903.844, 84.83208
3905.773, 71.68517
3907.701, 71.53654
3909.630, 88.72832
3911.558, 59.58330
3913.487, 67.64961
3915.415, 60.58849
3917.344, 36.53766
3919.272, 59.95979
3921.200, 66.88564
3923.129, 54.85350
3925.057, 65.81716
3926.986, 77.83412
3928.914, 54.88668
3930.843, 86.18562
3932.771, 67.79659
3934.700, 36.40572
3936.628, 48.26415
3938.557, 61.19625
3940.485, 64.76056
3942.414, 68.29128
3944.342, 62.78794
3946.271, 47.59156
3948.199, 43.38100
3950.127, 45.99073
3952.056, 63.68886
3953.984, 48.60089
3955.913, 59.04321
3957.841, 48.25219
3959.770, 62.95029
3961.698, 63.27291
3963.627, 50.83723
3965.555, 59.67984
3967.484, 70.22618
3969.412, 51.24652
3971.341, 46.48574
3973.269, 38.57272
3975.198, 68.54667
3977.126, 41.46908
3979.054, 44.12350
3980.983, 48.91024
3982.911, 36.46679
3984.840, 36.04540
3986.768, 51.05767
3988.697, 53.42043
3990.625, 58.45656
3992.554, 46.55212
3994.482, 41.34227
3996.411, 47.24972
3998.339, 39.95333
4000.268, 54.27356
4002.196, 47.01865
4004.125, 59.04804
4006.053, 61.24799
4007.981, 28.01909
4009.910, 35.50006
4011.838, 59.14730
4013.767, 7.817556
4015.695, 56.49614
4017.624, 47.05469
4019.552, 55.65887
4021.481, 48.23011
4023.409, 66.24288
4025.338, 68.77607
4027.266, 60.19812
4029.195, 51.89637
4031.123, 39.89835
4033.052, 47.55442
4034.980, 63.38614
4036.908, 46.39836
4038.837, 35.25294
4040.765, 49.40057
4042.694, 78.12811
4044.622, 65.44406
4046.551, 57.50763
4048.479, 59.55583
4050.408, 51.79821
4052.336, 39.51268
4054.265, 48.19832
4056.193, 72.94131
4058.122, 75.29678
4060.050, 73.04639
4061.979, 60.50059
4063.907, 55.91930
4065.835, 44.54922
4067.764, 71.34963
4069.692, 37.23851
4071.621, 43.05758
4073.549, 37.55481
4075.478, 23.59968
4077.406, 30.20068
4079.335, 48.40854
4081.263, 66.39178
4083.192, 74.88845
4085.120, 52.40211
4087.049, 42.32640
4088.977, 73.77666
4090.906, 79.56662
4092.834, 46.34537
4094.762, 36.71910
4096.691, 40.98212
4098.619, 52.92626
4100.548, 19.22492
4102.476, 54.43209
4104.405, 75.60661
4106.333, 61.37551
4108.262, 65.89661
4110.190, 57.41058
4112.119, 47.71472
4114.047, 73.90546
4115.976, 88.97713
4117.904, 43.99921
4119.833, 71.41064
4121.761, 49.37775
4123.689, 41.16751
4125.618, 56.54793
4127.546, 53.98260
4129.475, 67.56779
4131.403, 45.32470
4133.332, 56.36459
4135.260, 72.09896
4137.188, 62.10036
4139.117, 60.13429
4141.045, 61.75026
4142.974, 42.37894
4144.902, 26.76602
4146.831, 65.41985
4148.759, 65.28156
4150.688, 71.09270
4152.616, 69.58916
4154.545, 65.46001
4156.473, 93.95101
4158.402, 28.89777
4160.330, 23.38890
4162.259, 45.53711
4164.187, 40.40273
4166.116, 36.67789
4168.044, 45.46548
4169.973, 40.64141
4171.901, 51.84686
4173.830, 45.23893
4175.758, 35.56407
4177.687, 59.75569
4179.615, 45.25294
4181.543, 56.96957
4183.472, 28.95300
4185.400, 24.09691
4187.329, 21.35215
4189.257, 25.73582
4191.186, 71.89700
4193.114, 67.84898
4195.042, 30.46091
4196.971, 46.98471
4198.899, 31.60772
4200.828, 25.64215
4202.756, 39.37456
4204.685, 49.74527
4206.613, 55.84587
4208.542, 58.08097
4210.470, 34.28512
4212.399, 41.25064
4214.327, 60.84075
4216.256, 43.01715
4218.184, 42.55043
4220.113, 54.91457
4222.041, 47.93825
4223.970, 69.57538
4225.898, 42.02058
4227.827, 48.83453
4229.755, 58.42064
4231.684, 57.26698
4233.612, 66.25792
4235.541, 50.47260
4237.469, 79.81165
4239.397, 47.66193
4241.326, 42.48603
4243.254, 54.73308
4245.183, 53.56133
4247.111, 70.84220
4249.040, 40.42188
4250.968, 9.354704
4252.896, 38.09040
4254.825, 42.62625
4256.753, 47.36503
4258.682, 54.85516
4260.610, 53.57096
4262.539, 50.66382
4264.467, 45.97348
4266.396, 48.30639
4268.324, 56.70086
4270.253, 59.45525
4272.181, 57.64088
4274.110, 54.55876
4276.038, 49.96218
4277.967, 53.67764
4279.895, 55.79419
4281.824, 41.82272
4283.752, 42.10140
4285.681, 49.46859
4287.609, 54.93595
4289.538, 66.53219
4291.466, 66.50617
4293.395, 38.94134
4295.323, 54.41964
4297.251, 49.72944
4299.180, 68.26434
4301.108, 55.70267
4303.037, 75.52544
4304.965, 35.73361
4306.894, 67.22749
4308.822, 48.46751
4310.750, 68.64258
4312.679, 34.64294
4314.607, 57.76239
4316.536, 54.08330
4318.464, 35.62105
4320.393, 73.81464
4322.321, 30.94814
4324.250, 34.21927
4326.178, 78.04493
4328.107, 48.79731
4330.035, 62.43217
4331.964, 64.87675
4333.892, 76.02763
4335.821, 29.13769
4337.749, 35.53804
4339.678, 71.90111
4341.606, 64.49559
4343.535, 56.79828
4345.463, 45.21435
4347.392, 54.96093
4349.320, 41.45085
4351.249, 46.69405
4353.177, 42.06180
4355.105, 68.04425
4357.034, 36.93661
4358.962, 48.81065
4360.891, 53.56688
4362.819, 45.23397
4364.748, 59.89255
4366.676, 48.64012
4368.604, 35.79016
4370.533, 24.14362
4372.461, 48.25735
4374.390, 70.71053
4376.318, 61.31380
4378.247, 41.45375
4380.175, 48.29868
4382.104, 21.31732
##END=



