##NAMES=Georgerobinsonite
##RRUFFID=R110148
##IDEAL CHEMISTRY=Pb_4_(CrO_4_)_2_(OH)_2_FCl
##LOCALITY=Mammoth mine, Tiger, Pinal County, Arizona, USA
##OWNER=RRUFF
##SOURCE=The University of Arizona Mineral Museum
##DESCRIPTION=Red tabular crystal, resembling wulfenite, associated with quartz, cerussite, caledonite, and matlockite (R140538).
##STATUS=The identification of this mineral has been confirmed only by single crystal X-ray diffraction
##URL=https://www.rruff.net/odr/rruff_sample/R110148
##DIFFRACTION SAMPLE DESCRIPTION=Single crystal, powder profile is calculated
##CELL PARAMETERS=a: 7.631 b: 11.634 c: 6.915 alpha: 90 beta: 90 gamma: 90 volume: 613.9 crystal system: orthorhombic
##FILETYPE=Raman Processed
##RAMAN WAVELENGTH=780

80.73486, 83.43685
82.66333, 95.65029
84.59180, 124.9188
86.52026, 161.1848
88.44873, 203.8829
90.37720, 255.7918
92.30566, 318.6389
94.23413, 369.4857
96.16260, 419.8671
98.09106, 466.7120
100.0195, 494.2733
101.9480, 507.6952
103.8765, 499.9830
105.8049, 463.3017
107.7334, 418.3834
109.6619, 361.8753
111.5903, 303.3488
113.5188, 252.9119
115.4473, 209.3190
117.3757, 175.7312
119.3042, 156.2067
121.2327, 140.9097
123.1611, 128.6352
125.0896, 118.5476
127.0181, 109.4869
128.9465, 101.3827
130.8750, 94.73486
132.8035, 89.85951
134.7319, 86.05201
136.6604, 83.39259
138.5889, 81.64452
140.5173, 80.55945
142.4458, 80.11545
144.3743, 80.05789
146.3027, 80.63963
148.2312, 81.23725
150.1597, 81.66541
152.0881, 82.15882
154.0166, 82.95406
155.9451, 84.00639
157.8735, 84.92941
159.8020, 86.49435
161.7305, 86.75805
163.6589, 85.07067
165.5874, 82.50893
167.5159, 79.37724
169.4443, 75.92348
171.3728, 73.06225
173.3013, 70.86349
175.2297, 69.22460
177.1582, 68.34905
179.0867, 67.79070
181.0151, 67.41755
182.9436, 67.16713
184.8721, 66.97256
186.8005, 66.88954
188.7290, 66.63836
190.6575, 66.17469
192.5859, 65.63347
194.5144, 65.12758
196.4429, 64.52178
198.3713, 63.64977
200.2998, 62.50175
202.2283, 61.30857
204.1567, 59.98753
206.0852, 58.86256
208.0137, 58.17086
209.9421, 57.54657
211.8706, 56.73411
213.7991, 55.79790
215.7275, 54.97136
217.6560, 54.24947
219.5845, 53.64270
221.5129, 53.22166
223.4414, 52.80472
225.3699, 52.28084
227.2983, 51.73261
229.2268, 51.25228
231.1553, 50.84491
233.0837, 50.54846
235.0122, 50.36274
236.9407, 50.29281
238.8691, 50.46735
240.7976, 50.63266
242.7261, 50.55278
244.6545, 50.34130
246.5830, 50.40490
248.5115, 50.75964
250.4399, 51.01222
252.3684, 51.09067
254.2969, 51.04469
256.2253, 50.68463
258.1538, 50.35838
260.0823, 50.54882
262.0107, 51.15894
263.9392, 51.74902
265.8677, 52.33311
267.7961, 52.75523
269.7246, 52.90323
271.6531, 52.97371
273.5815, 52.92031
275.5100, 52.91378
277.4385, 53.26528
279.3669, 53.94684
281.2954, 54.70176
283.2239, 55.55924
285.1523, 56.37793
287.0808, 56.89577
289.0093, 57.59399
290.9377, 58.85778
292.8662, 60.54389
294.7947, 62.33775
296.7231, 64.21467
298.6516, 66.40186
300.5801, 68.85318
302.5085, 71.73930
304.4370, 74.83534
306.3655, 78.61752
308.2939, 83.46142
310.2224, 89.30959
312.1509, 96.14687
314.0793, 103.8600
316.0078, 113.0847
317.9363, 123.3221
319.8647, 135.6223
321.7932, 149.7647
323.7217, 166.6000
325.6501, 186.7643
327.5786, 209.9903
329.5071, 235.4688
331.4355, 262.0201
333.3640, 294.5211
335.2925, 331.6442
337.2209, 375.9654
339.1494, 425.3085
341.0779, 485.5857
343.0063, 569.9301
344.9348, 667.3027
346.8633, 744.4388
348.7917, 812.2178
350.7202, 815.5363
352.6487, 729.6265
354.5771, 629.7452
356.5056, 519.4109
358.4341, 423.8938
360.3625, 357.1884
362.2910, 316.8989
364.2195, 299.8759
366.1479, 309.6725
368.0764, 328.7227
370.0049, 368.3403
371.9333, 386.2588
373.8618, 362.2994
375.7903, 324.1447
377.7188, 280.5486
379.6472, 237.7067
381.5757, 204.6113
383.5042, 181.6516
385.4326, 168.4828
387.3611, 165.1019
389.2896, 170.2619
391.2180, 185.8926
393.1465, 206.6165
395.0750, 228.6813
397.0034, 255.3135
398.9319, 292.3961
400.8604, 337.1932
402.7888, 385.1160
404.7173, 438.4478
406.6458, 447.7379
408.5742, 394.5130
410.5027, 327.0991
412.4312, 245.3034
414.3596, 173.1815
416.2881, 125.7123
418.2166, 96.62936
420.1450, 78.05614
422.0735, 68.75346
424.0020, 62.04399
425.9304, 57.91692
427.8589, 54.70050
429.7874, 52.17002
431.7158, 50.34430
433.6443, 49.67321
435.5728, 49.28479
437.5012, 48.61668
439.4297, 47.60512
441.3582, 46.05341
443.2866, 44.00815
445.2151, 42.01263
447.1436, 40.02601
449.0720, 38.38380
451.0005, 37.27511
452.9290, 36.32153
454.8574, 35.38630
456.7859, 34.53646
458.7144, 33.84229
460.6428, 33.28514
462.5713, 32.83112
464.4998, 32.47893
466.4282, 32.27073
468.3567, 32.33585
470.2852, 32.30877
472.2136, 32.05758
474.1421, 31.83208
476.0706, 31.73638
477.9990, 31.70967
479.9275, 31.70923
481.8560, 31.72836
483.7844, 31.77234
485.7129, 31.84834
487.6414, 31.83579
489.5698, 31.67923
491.4983, 31.51126
493.4268, 31.39421
495.3552, 31.18695
497.2837, 30.72088
499.2122, 30.27319
501.1406, 30.08283
503.0691, 30.03305
504.9976, 29.95878
506.9260, 29.85914
508.8545, 29.58906
510.7830, 29.03791
512.7114, 28.58226
514.6399, 28.26845
516.5684, 27.95789
518.4968, 27.58527
520.4253, 27.24050
522.3538, 27.07269
524.2822, 26.88449
526.2107, 26.37932
528.1392, 25.66779
530.0676, 25.18431
531.9961, 24.95652
533.9246, 24.83130
535.8530, 24.87352
537.7815, 24.75067
539.7100, 24.30731
541.6384, 23.88072
543.5669, 23.62777
545.4954, 23.43304
547.4238, 23.23583
549.3523, 23.04884
551.2808, 22.88055
553.2092, 22.73706
555.1377, 22.67100
557.0662, 22.68196
558.9946, 22.67822
560.9231, 22.67645
562.8516, 22.54107
564.7800, 22.12847
566.7085, 21.77654
568.6370, 21.60227
570.5654, 21.52855
572.4939, 21.58257
574.4224, 21.65322
576.3508, 21.54904
578.2793, 21.32501
580.2078, 21.19649
582.1362, 21.15549
584.0647, 21.07699
585.9932, 20.93608
587.9216, 20.82891
589.8501, 20.78632
591.7786, 20.76291
593.7070, 20.75397
595.6355, 20.75315
597.5640, 20.73088
599.4924, 20.73866
601.4209, 20.89576
603.3494, 21.09437
605.2778, 21.09794
607.2063, 20.94740
609.1348, 20.85125
611.0632, 20.82490
612.9917, 20.81226
614.9202, 20.78247
616.8486, 20.81754
618.7771, 21.01303
620.7056, 21.14657
622.6340, 21.16271
624.5625, 21.07726
626.4910, 20.80695
628.4194, 20.51758
630.3479, 20.40957
632.2764, 20.40854
634.2048, 20.33483
636.1333, 20.20524
638.0618, 20.28860
639.9902, 20.69558
641.9187, 20.93208
643.8472, 20.89517
645.7756, 20.85009
647.7041, 20.76573
649.6326, 20.74819
651.5610, 20.87333
653.4895, 21.01346
655.4180, 21.11849
657.3464, 21.18027
659.2749, 21.14389
661.2034, 21.09172
663.1318, 21.19569
665.0603, 21.41611
666.9888, 21.54809
668.9172, 21.59428
670.8457, 21.48787
672.7742, 21.12134
674.7026, 21.05189
676.6311, 21.45483
678.5596, 21.71584
680.4880, 21.59524
682.4165, 21.52326
684.3450, 21.79884
686.2734, 22.01054
688.2019, 21.79449
690.1304, 21.55260
692.0588, 21.71865
693.9873, 22.06418
695.9158, 22.17643
697.8442, 22.12965
699.7727, 22.20611
701.7012, 22.40768
703.6296, 22.72766
705.5581, 23.17981
707.4866, 23.44972
709.4150, 23.44603
711.3435, 23.60255
713.2720, 24.08055
715.2004, 24.54703
717.1289, 24.87125
719.0574, 25.19950
720.9858, 25.50685
722.9143, 25.93142
724.8428, 26.66200
726.7712, 27.46081
728.6997, 28.08263
730.6282, 28.60270
732.5566, 29.11133
734.4851, 29.63297
736.4136, 30.22328
738.3420, 30.88375
740.2705, 31.65221
742.1990, 32.52716
744.1274, 33.31760
746.0559, 33.93652
747.9844, 34.83490
749.9128, 36.12470
751.8413, 37.59968
753.7698, 39.10238
755.6982, 40.97432
757.6267, 43.22179
759.5552, 45.97010
761.4836, 49.41592
763.4121, 53.21491
765.3406, 57.19276
767.2690, 61.34522
769.1975, 65.93963
771.1260, 70.49689
773.0544, 74.62756
774.9829, 78.12105
776.9114, 80.54989
778.8398, 81.91617
780.7683, 82.05254
782.6968, 80.89922
784.6252, 80.18804
786.5537, 79.83067
788.4822, 80.36410
790.4106, 81.74368
792.3391, 84.17204
794.2676, 87.59553
796.1960, 92.17577
798.1245, 97.76355
800.0530, 104.8355
801.9814, 112.9578
803.9099, 123.5242
805.8384, 135.7638
807.7668, 152.6854
809.6953, 174.1057
811.6238, 203.4536
813.5522, 238.9963
815.4807, 287.2950
817.4092, 353.0428
819.3376, 436.8025
821.2661, 540.5945
823.1946, 662.2929
825.1230, 803.1302
827.0515, 957.6202
828.9800, 1114.453
830.9084, 1269.171
832.8369, 1381.034
834.7654, 1449.762
836.6938, 1427.639
838.6223, 1311.593
840.5508, 1155.969
842.4792, 958.5233
844.4077, 773.6984
846.3362, 605.1431
848.2646, 468.6516
850.1931, 370.1306
852.1216, 293.5338
854.0500, 238.7283
855.9785, 196.4793
857.9070, 167.1011
859.8354, 144.5860
861.7639, 128.5253
863.6924, 116.4016
865.6208, 107.9943
867.5493, 102.1822
869.4778, 98.72289
871.4063, 97.13935
873.3347, 97.29332
875.2632, 98.92639
877.1917, 101.7329
879.1201, 105.9466
881.0486, 112.4736
882.9771, 120.0974
884.9055, 128.9732
886.8340, 136.4709
888.7625, 138.4263
890.6909, 134.9003
892.6194, 123.7747
894.5479, 107.7157
896.4763, 93.58748
898.4048, 81.74538
900.3333, 73.33742
902.2617, 68.07024
904.1902, 63.22210
906.1187, 58.69038
908.0471, 54.57198
909.9756, 50.91341
911.9041, 47.17015
913.8325, 43.15216
915.7610, 39.80005
917.6895, 37.32351
919.6179, 35.02484
921.5464, 32.75817
923.4749, 30.94796
925.4033, 29.77330
927.3318, 28.70164
929.2603, 27.62568
931.1887, 26.82638
933.1172, 26.40482
935.0457, 26.11930
936.9741, 25.94701
938.9026, 25.86224
940.8311, 25.93748
942.7595, 25.90197
944.6880, 25.52334
946.6165, 25.36652
948.5449, 25.78349
950.4734, 26.16299
952.4019, 26.28515
954.3303, 26.25420
956.2588, 26.30091
958.1873, 25.87516
960.1157, 24.35893
962.0442, 22.81439
963.9727, 21.80095
965.9011, 20.94489
967.8296, 19.99956
969.7581, 19.19915
971.6865, 18.69262
973.6150, 18.37643
975.5435, 18.34058
977.4719, 18.27061
979.4004, 17.75431
981.3289, 17.30648
983.2573, 17.51162
985.1858, 17.81034
987.1143, 17.61435
989.0427, 17.34906
990.9712, 17.45929
992.8997, 17.68848
994.8281, 17.77876
996.7566, 17.82681
998.6851, 17.93448
1000.614, 18.06572
1002.542, 18.24899
1004.470, 18.36208
1006.399, 18.22132
1008.327, 17.95405
1010.256, 17.67776
1012.184, 17.41357
1014.113, 17.23550
1016.041, 17.04402
1017.970, 16.66967
1019.898, 16.23495
1021.827, 15.91128
1023.755, 15.62550
1025.684, 15.23202
1027.612, 14.85571
1029.541, 14.70495
1031.469, 14.63950
1033.397, 14.46606
1035.326, 14.26419
1037.254, 14.12773
1039.183, 14.03792
1041.111, 14.03146
1043.040, 14.00247
1044.968, 13.76072
1046.897, 13.47036
1048.825, 13.29203
1050.754, 13.22908
1052.682, 13.37613
1054.611, 13.55383
1056.539, 13.51434
1058.468, 13.41074
1060.396, 13.41562
1062.324, 13.46399
1064.253, 13.52851
1066.181, 13.54842
1068.110, 13.42790
1070.038, 13.25989
1071.967, 13.11367
1073.895, 12.99875
1075.824, 12.88717
1077.752, 12.85414
1079.681, 13.09710
1081.609, 13.29895
1083.538, 13.10335
1085.466, 12.84917
1087.395, 12.84004
1089.323, 12.83884
1091.251, 12.62704
1093.180, 12.41518
1095.108, 12.29737
1097.037, 12.29373
1098.965, 12.53008
1100.894, 12.72634
1102.822, 12.74020
1104.751, 12.65215
1106.679, 12.42186
1108.608, 12.21882
1110.536, 12.06480
1112.465, 12.03339
1114.393, 12.30542
1116.322, 12.45326
1118.250, 12.23850
1120.178, 12.06009
1122.107, 12.02080
1124.035, 12.05174
1125.964, 12.19817
1127.892, 12.27694
1129.821, 12.21407
1131.749, 12.17274
1133.678, 12.19991
1135.606, 12.19251
1137.535, 12.10583
1139.463, 12.09145
1141.392, 12.19867
1143.320, 12.23934
1145.249, 12.17602
1147.177, 12.16675
1149.105, 12.24039
1151.034, 12.20670
1152.962, 12.04056
1154.891, 12.03041
1156.819, 12.18764
1158.748, 12.30925
1160.676, 12.38948
1162.605, 12.45515
1164.533, 12.50021
1166.462, 12.43761
1168.390, 12.32019
1170.319, 12.42849
1172.247, 12.66354
1174.176, 12.71678
1176.104, 12.65878
1178.032, 12.60001
1179.961, 12.57357
1181.889, 12.67003
1183.818, 12.79382
1185.746, 12.84376
1187.675, 12.83971
1189.603, 12.79340
1191.532, 12.70982
1193.460, 12.52776
1195.389, 12.41102
1197.317, 12.51099
1199.246, 12.60907
1201.174, 12.61500
1203.103, 12.55300
1205.031, 12.40090
1206.959, 12.27613
1208.888, 12.24567
1210.816, 12.13226
1212.745, 11.86515
1214.673, 11.64604
1216.602, 11.50770
1218.530, 11.45067
1220.459, 11.47886
1222.387, 11.53723
1224.316, 11.61882
1226.244, 11.57904
1228.173, 11.42980
1230.101, 11.39740
1232.030, 11.46228
1233.958, 11.51702
1235.886, 11.54727
1237.815, 11.49480
1239.743, 11.39823
1241.672, 11.29665
1243.600, 11.23701
1245.529, 11.32152
1247.457, 11.43927
1249.386, 11.51237
1251.314, 11.52222
1253.243, 11.40898
1255.171, 11.29846
1257.100, 11.23734
1259.028, 11.22770
1260.957, 11.32668
1262.885, 11.37179
1264.813, 11.27641
1266.742, 11.24164
1268.670, 11.31242
1270.599, 11.35783
1272.527, 11.37192
1274.456, 11.33574
1276.384, 11.24958
1278.313, 11.20958
1280.241, 11.21622
1282.170, 11.31111
1284.098, 11.41516
1286.027, 11.17836
1287.955, 10.86729
1289.884, 11.05268
1291.812, 11.33221
1293.740, 11.30060
1295.669, 11.13562
1297.597, 10.90315
1299.526, 10.69717
1301.454, 10.55352
1303.383, 10.48309
1305.311, 10.51925
1307.240, 10.54997
1309.168, 10.56470
1311.097, 10.50080
1313.025, 10.32168
1314.954, 10.24278
1316.882, 10.28339
1318.811, 10.24281
1320.739, 10.13901
1322.667, 10.12345
1324.596, 10.15226
1326.524, 10.08249
1328.453, 9.980363
1330.381, 9.970309
1332.310, 9.965433
1334.238, 9.839079
1336.167, 9.740797
1338.095, 9.792665
1340.024, 9.841258
1341.952, 9.821152
1343.881, 9.843435
1345.809, 9.946857
1347.738, 10.03423
1349.666, 10.09643
1351.594, 9.939155
1353.523, 9.593241
1355.451, 9.549640
1357.380, 9.737342
1359.308, 9.827560
1361.237, 9.850704
1363.165, 9.855792
1365.094, 9.845662
1367.022, 9.825939
1368.951, 9.788084
1370.879, 9.659659
1372.808, 9.621317
1374.736, 9.876853
1376.665, 9.985534
1378.593, 9.766404
1380.521, 9.706143
1382.450, 9.874125
1384.378, 9.869999
1386.307, 9.707047
1388.235, 9.747361
1390.164, 9.927371
1392.092, 10.11915
1394.021, 10.19845
1395.949, 9.853921
1397.878, 9.495667
1399.806, 9.446216
1401.735, 9.551093
1403.663, 9.887876
1405.592, 10.02363
1407.520, 9.711622
1409.448, 9.526677
1411.377, 9.579974
1413.305, 9.601008
1415.234, 9.589938
1417.162, 9.521332
1419.091, 9.442036
1421.019, 9.545710
1422.948, 9.717919
1424.876, 9.852493
1426.805, 9.873605
1428.733, 9.604435
1430.662, 9.471508
1432.590, 9.724331
1434.519, 9.875880
1436.447, 9.795233
1438.375, 9.716307
1440.304, 9.667411
1442.232, 9.472342
1444.161, 9.193986
1446.089, 9.194452
1448.018, 9.343286
1449.946, 9.417877
1451.875, 9.456831
1453.803, 9.495573
1455.732, 9.516329
1457.660, 9.498586
1459.589, 9.480430
1461.517, 9.454244
1463.446, 9.548337
1465.374, 9.768522
1467.302, 9.806628
1469.231, 9.687380
1471.159, 9.581468
1473.088, 9.474210
1475.016, 9.279382
1476.945, 9.143269
1478.873, 9.257517
1480.802, 9.379147
1482.730, 9.366743
1484.659, 9.400679
1486.587, 9.526935
1488.516, 9.628411
1490.444, 9.695982
1492.373, 9.634319
1494.301, 9.493089
1496.229, 9.409794
1498.158, 9.371216
1500.086, 9.404395
1502.015, 9.402493
1503.943, 9.251389
1505.872, 9.133017
1507.800, 9.065684
1509.729, 9.156994
1511.657, 9.468164
1513.586, 9.480319
1515.514, 9.267393
1517.443, 9.256495
1519.371, 9.327728
1521.300, 9.275606
1523.228, 9.225191
1525.156, 9.286939
1527.085, 9.291180
1529.013, 9.130935
1530.942, 9.138043
1532.870, 9.397369
1534.799, 9.417280
1536.727, 9.248854
1538.656, 9.162717
1540.584, 9.160560
1542.513, 9.342635
1544.441, 9.461198
1546.370, 9.292560
1548.298, 9.150776
1550.227, 9.130753
1552.155, 9.070818
1554.083, 8.953909
1556.012, 9.057041
1557.940, 9.275284
1559.869, 9.184199
1561.797, 8.996887
1563.726, 8.997611
1565.654, 9.019222
1567.583, 8.933791
1569.511, 8.921546
1571.440, 9.026171
1573.368, 9.094529
1575.297, 9.114968
1577.225, 9.102755
1579.154, 9.059121
1581.082, 8.932462
1583.010, 8.852659
1584.939, 8.989386
1586.867, 9.112890
1588.796, 9.107837
1590.724, 9.157800
1592.653, 9.280712
1594.581, 9.258129
1596.510, 9.124767
1598.438, 8.946119
1600.367, 8.835242
1602.295, 8.994960
1604.224, 9.126476
1606.152, 9.027413
1608.081, 8.983539
1610.009, 9.069061
1611.938, 9.035060
1613.866, 8.922546
1615.794, 9.017979
1617.723, 9.172828
1619.651, 9.206521
1621.580, 9.165035
1623.508, 9.016250
1625.437, 8.982771
1627.365, 9.157821
1629.294, 9.156810
1631.222, 9.010787
1633.151, 8.968187
1635.079, 8.990859
1637.008, 9.065229
1638.936, 9.098786
1640.865, 9.006330
1642.793, 9.025284
1644.721, 9.214585
1646.650, 9.396886
1648.578, 9.534513
1650.507, 9.449099
1652.435, 9.315569
1654.364, 9.393472
1656.292, 9.489573
1658.221, 9.552058
1660.149, 9.475451
1662.078, 9.244971
1664.006, 9.022109
1665.935, 8.850805
1667.863, 8.879071
1669.792, 8.935684
1671.720, 8.758309
1673.648, 8.708245
1675.577, 9.007432
1677.505, 9.049871
1679.434, 8.809108
1681.362, 8.640001
1683.291, 8.528660
1685.219, 8.387957
1687.148, 8.313485
1689.076, 8.414174
1691.005, 8.535844
1692.933, 8.683169
1694.862, 8.607522
1696.790, 8.371207
1698.719, 8.369992
1700.647, 8.453153
1702.575, 8.487994
1704.504, 8.436900
1706.432, 8.181524
1708.361, 8.116338
1710.289, 8.286251
1712.218, 8.213090
1714.146, 8.046988
1716.075, 8.220762
1718.003, 8.335484
1719.932, 8.074222
1721.860, 7.892530
1723.789, 7.926192
1725.717, 7.877082
1727.646, 7.785522
1729.574, 7.904983
1731.502, 8.033726
1733.431, 7.969145
1735.359, 7.840223
1737.288, 7.657675
1739.216, 7.648386
1741.145, 7.809221
1743.073, 7.994725
1745.002, 8.126579
1746.930, 8.071613
1748.859, 7.949513
1750.787, 7.797896
1752.716, 7.632390
1754.644, 7.462571
1756.573, 7.313348
1758.501, 7.255753
1760.429, 7.554202
1762.358, 7.741287
1764.286, 7.487710
1766.215, 7.347808
1768.143, 7.375242
1770.072, 7.407101
1772.000, 7.423701
1773.929, 7.376901
1775.857, 7.354574
1777.786, 7.447790
1779.714, 7.490691
1781.643, 7.468414
1783.571, 7.551647
1785.500, 7.631330
1787.428, 7.449985
1789.356, 7.245626
1791.285, 7.147426
1793.213, 7.124713
1795.142, 7.175900
1797.070, 7.203852
1798.999, 7.186896
1800.927, 7.004473
1802.856, 6.916310
1804.784, 7.161376
1806.713, 7.253987
1808.641, 7.133878
1810.570, 7.173293
1812.498, 7.272280
1814.427, 7.289275
1816.355, 7.196160
1818.283, 6.915251
1820.212, 6.820841
1822.140, 6.941166
1824.069, 7.058737
1825.997, 7.133748
1827.926, 7.072342
1829.854, 7.010934
1831.783, 6.998681
1833.711, 6.920508
1835.640, 6.797225
1837.568, 6.833740
1839.497, 6.891120
1841.425, 6.794523
1843.354, 6.711225
1845.282, 6.674782
1847.210, 6.724030
1849.139, 6.821384
1851.067, 6.901972
1852.996, 6.893271
1854.924, 6.654180
1856.853, 6.506376
1858.781, 6.498560
1860.710, 6.938359
1862.638, 7.416650
1864.567, 7.182726
1866.495, 6.808306
1868.424, 6.481621
1870.352, 6.398303
1872.281, 6.508837
1874.209, 6.487752
1876.137, 6.433167
1878.066, 6.421960
1879.994, 6.471210
1881.923, 6.602700
1883.851, 6.634565
1885.780, 6.583578
1887.708, 6.471402
1889.637, 6.361691
1891.565, 6.283570
1893.494, 6.247671
1895.422, 6.247243
1897.351, 6.163005
1899.279, 6.096340
1901.208, 6.172973
1903.136, 6.233577
1905.064, 6.232190
1906.993, 6.146247
1908.921, 6.033822
1910.850, 6.055589
1912.778, 6.109210
1914.707, 6.162463
1916.635, 6.122853
1918.564, 6.010959
1920.492, 6.079461
1922.421, 6.153832
1924.349, 6.042282
1926.278, 5.942480
1928.206, 5.895362
1930.135, 5.878412
1932.063, 5.897870
1933.991, 6.014914
1935.920, 6.076680
1937.848, 6.021929
1939.777, 6.023592
1941.705, 6.071088
1943.634, 6.111931
1945.562, 6.080988
1947.491, 5.882673
1949.419, 5.754243
1951.348, 5.711604
1953.276, 5.712066
1955.205, 5.719904
1957.133, 5.692491
1959.062, 5.685019
1960.990, 5.706635
1962.918, 5.650331
1964.847, 5.571585
1966.775, 5.529025
1968.704, 5.570938
1970.632, 5.759460
1972.561, 5.812809
1974.489, 5.768248
1976.418, 5.704089
1978.346, 5.656379
1980.275, 5.638969
1982.203, 5.673944
1984.132, 5.738059
1986.060, 5.744850
1987.989, 5.682407
1989.917, 5.504802
1991.845, 5.410774
1993.774, 5.412879
1995.702, 5.470616
1997.631, 5.514653
1999.559, 5.484689
2001.488, 5.467264
2003.416, 5.473320
2005.345, 5.384171
2007.273, 5.296250
2009.202, 5.325314
2011.130, 5.359185
2013.059, 5.371020
2014.987, 5.290827
2016.916, 5.184108
2018.844, 5.137945
2020.772, 5.101724
2022.701, 5.067223
2024.629, 5.101688
2026.558, 5.151967
2028.486, 5.116471
2030.415, 5.133192
2032.343, 5.231596
2034.272, 5.125677
2036.200, 4.987240
2038.129, 5.158471
2040.057, 5.280929
2041.986, 5.263657
2043.914, 5.141168
2045.843, 5.036177
2047.771, 5.203906
2049.699, 5.296293
2051.628, 5.207263
2053.556, 5.049354
2055.485, 4.941475
2057.413, 5.132819
2059.342, 5.241351
2061.270, 5.136549
2063.199, 4.964958
2065.127, 4.804261
2067.056, 4.759729
2068.984, 4.789676
2070.913, 4.902848
2072.841, 4.849597
2074.770, 4.739873
2076.698, 4.715974
2078.626, 4.719219
2080.555, 4.736696
2082.483, 4.668890
2084.412, 4.603765
2086.340, 4.664004
2088.269, 4.690747
2090.197, 4.649665
2092.126, 4.601824
2094.054, 4.553532
2095.983, 4.483555
2097.911, 4.562388
2099.840, 4.768010
2101.768, 4.670941
2103.697, 4.524457
2105.625, 4.536158
2107.553, 4.510989
2109.482, 4.436610
2111.410, 4.343773
2113.339, 4.309355
2115.267, 4.394864
2117.196, 4.449839
2119.124, 4.463255
2121.053, 4.437684
2122.981, 4.404480
2124.910, 4.378175
2126.838, 4.311335
2128.767, 4.258636
2130.695, 4.354495
2132.624, 4.405681
2134.552, 4.360121
2136.480, 4.287953
2138.409, 4.254555
2140.337, 4.404866
2142.266, 4.400560
2144.194, 4.217158
2146.123, 4.237552
2148.051, 4.320009
2149.980, 4.394243
2151.908, 4.323240
2153.837, 4.169934
2155.765, 4.279685
2157.694, 4.325712
2159.622, 4.129472
2161.551, 4.093141
2163.479, 4.154803
2165.407, 4.189414
2167.336, 4.187723
2169.264, 4.143960
2171.193, 4.020059
2173.121, 3.941012
2175.050, 4.038809
2176.978, 4.210975
2178.907, 4.377565
2180.835, 4.186378
2182.764, 3.986457
2184.692, 3.951962
2186.621, 3.934099
2188.549, 3.937090
2190.478, 4.040362
2192.406, 4.068641
2194.334, 3.989625
2196.263, 3.963805
2198.191, 3.949275
2200.120, 3.895590
2202.048, 3.828952
2203.977, 3.774274
2205.905, 3.825429
2207.834, 3.879165
2209.762, 3.888045
2211.691, 3.860137
2213.619, 3.816574
2215.548, 3.792348
2217.476, 3.756294
2219.405, 3.703063
2221.333, 3.583543
2223.261, 3.527524
2225.190, 3.673183
2227.118, 3.767304
2229.047, 3.794718
2230.975, 3.741671
2232.904, 3.641000
2234.832, 3.497143
2236.761, 3.601948
2238.689, 3.729264
2240.618, 3.690406
2242.546, 3.636290
2244.475, 3.595644
2246.403, 3.638659
2248.332, 3.575985
2250.260, 3.349829
2252.188, 3.500904
2254.117, 3.698983
2256.045, 3.585781
2257.974, 3.514958
2259.902, 3.513033
2261.831, 3.489274
2263.759, 3.521316
2265.688, 3.626729
2267.616, 3.547621
2269.545, 3.423816
2271.473, 3.424792
2273.402, 3.384583
2275.330, 3.320750
2277.259, 3.350558
2279.187, 3.358531
2281.115, 3.310455
2283.044, 3.361539
2284.972, 3.414369
2286.901, 3.351267
2288.829, 3.303896
2290.758, 3.295059
2292.686, 3.395639
2294.615, 3.416147
2296.543, 3.307126
2298.472, 3.288557
2300.400, 3.287256
2302.329, 3.229263
2304.257, 3.266598
2306.186, 3.330743
2308.114, 3.272860
2310.042, 3.222813
2311.971, 3.206329
2313.899, 3.173000
2315.828, 3.199638
2317.756, 3.342905
2319.685, 3.303079
2321.613, 3.154434
2323.542, 2.944622
2325.470, 3.032377
2327.399, 3.294958
2329.327, 3.086196
2331.256, 2.939934
2333.184, 3.007707
2335.113, 3.055078
2337.041, 3.082131
2338.969, 3.094455
2340.898, 3.074664
2342.826, 3.073104
2344.755, 3.253788
2346.683, 3.224352
2348.612, 3.014987
2350.540, 3.014752
2352.469, 3.009245
2354.397, 2.922805
2356.326, 2.856633
2358.254, 2.852186
2360.183, 2.995968
2362.111, 3.028741
2364.040, 2.980157
2365.968, 2.898447
2367.896, 2.852430
2369.825, 2.850730
2371.753, 2.921402
2373.682, 2.941062
2375.610, 2.854347
2377.539, 2.955407
2379.467, 3.012998
2381.396, 2.808020
2383.324, 2.812393
2385.253, 2.906966
2387.181, 2.910851
2389.110, 2.882627
2391.038, 2.836321
2392.967, 2.758162
2394.895, 2.728407
2396.823, 2.760098
2398.752, 2.732965
2400.680, 2.715258
2402.609, 2.738476
2404.537, 2.712837
2406.466, 2.714641
2408.394, 2.840256
2410.323, 2.712012
2412.251, 2.490604
2414.180, 2.503076
2416.108, 2.582627
2418.037, 2.663103
2419.965, 2.571626
2421.894, 2.576213
2423.822, 2.703016
2425.750, 2.679559
2427.679, 2.605108
2429.607, 2.527848
2431.536, 2.510871
2433.464, 2.538283
2435.393, 2.634201
2437.321, 2.581948
2439.250, 2.491197
2441.178, 2.540549
2443.107, 2.508065
2445.035, 2.425029
2446.964, 2.396805
2448.892, 2.406699
2450.821, 2.428985
2452.749, 2.342690
2454.677, 2.307847
2456.606, 2.369174
2458.534, 2.481175
2460.463, 2.543193
2462.391, 2.503185
2464.320, 2.372914
2466.248, 2.300002
2468.177, 2.383782
2470.105, 2.423180
2472.034, 2.391586
2473.962, 2.258859
2475.891, 2.247622
2477.819, 2.319200
2479.748, 2.425000
2481.676, 2.403676
2483.604, 2.297683
2485.533, 2.235659
2487.461, 2.209878
2489.390, 2.215390
2491.318, 2.262108
2493.247, 2.236283
2495.175, 2.149387
2497.104, 2.205142
2499.032, 2.231579
2500.961, 2.184385
2502.889, 2.205913
2504.818, 2.226347
2506.746, 2.211849
2508.675, 2.178628
2510.603, 2.142352
2512.531, 2.102216
2514.460, 2.167393
2516.388, 2.232932
2518.317, 2.197746
2520.245, 2.162153
2522.174, 2.148561
2524.102, 2.191470
2526.031, 2.143368
2527.959, 2.063106
2529.888, 2.030976
2531.816, 2.022051
2533.745, 2.002694
2535.673, 1.911791
2537.602, 1.903040
2539.530, 1.966403
2541.458, 2.074966
2543.387, 2.111930
2545.315, 2.087248
2547.244, 2.035777
2549.172, 2.071100
2551.101, 2.154977
2553.029, 2.129669
2554.958, 2.047555
2556.886, 1.965399
2558.815, 2.054426
2560.743, 2.091106
2562.672, 2.047190
2564.600, 1.993692
2566.529, 1.973271
2568.457, 1.973958
2570.385, 1.892712
2572.314, 1.873148
2574.242, 1.926862
2576.171, 1.969695
2578.099, 1.964246
2580.028, 1.909034
2581.956, 1.812908
2583.885, 1.759444
2585.813, 1.770117
2587.742, 1.849529
2589.670, 1.932821
2591.599, 1.989030
2593.527, 1.888658
2595.456, 1.812340
2597.384, 1.805140
2599.313, 1.811929
2601.241, 1.771818
2603.169, 1.681945
2605.098, 1.633626
2607.026, 1.674063
2608.955, 1.786997
2610.883, 1.793536
2612.812, 1.745348
2614.740, 1.682536
2616.669, 1.748277
2618.597, 1.760966
2620.526, 1.699791
2622.454, 1.687688
2624.383, 1.722863
2626.311, 1.771159
2628.240, 1.706988
2630.168, 1.669708
2632.096, 1.662585
2634.025, 1.582011
2635.953, 1.540482
2637.882, 1.561424
2639.810, 1.666901
2641.739, 1.728163
2643.667, 1.733324
2645.596, 1.703191
2647.524, 1.655732
2649.453, 1.595079
2651.381, 1.485446
2653.310, 1.552974
2655.238, 1.674004
2657.167, 1.622126
2659.095, 1.600914
2661.023, 1.566123
2662.952, 1.408984
2664.880, 1.548480
2666.809, 1.714469
2668.737, 1.622129
2670.666, 1.467627
2672.594, 1.393939
2674.523, 1.485515
2676.451, 1.623478
2678.380, 1.663369
2680.308, 1.548407
2682.237, 1.582549
2684.165, 1.564360
2686.094, 1.427759
2688.022, 1.460093
2689.950, 1.511064
2691.879, 1.521599
2693.807, 1.513407
2695.736, 1.449172
2697.664, 1.361215
2699.593, 1.423531
2701.521, 1.343632
2703.450, 1.198148
2705.378, 1.320974
2707.307, 1.394406
2709.235, 1.417715
2711.164, 1.476975
2713.092, 1.485145
2715.021, 1.455492
2716.949, 1.395280
2718.877, 1.435017
2720.806, 1.436482
2722.734, 1.261635
2724.663, 1.256648
2726.591, 1.299160
2728.520, 1.319169
2730.448, 1.251390
2732.377, 1.275488
2734.305, 1.403954
2736.234, 1.298406
2738.162, 1.233330
2740.091, 1.240733
2742.019, 1.237977
2743.948, 1.215272
2745.876, 1.202946
2747.804, 1.259789
2749.733, 1.271483
2751.661, 1.213753
2753.590, 1.068463
2755.518, 1.088893
2757.447, 1.154418
2759.375, 1.194416
2761.304, 1.291224
2763.232, 1.300409
2765.161, 1.216310
2767.089, 1.184996
2769.018, 1.253348
2770.946, 1.342614
2772.875, 1.275552
2774.803, 1.102410
2776.731, 0.9753234
2778.660, 1.116147
2780.588, 1.139428
2782.517, 1.114701
2784.445, 1.102483
2786.374, 1.146795
2788.302, 1.156879
2790.231, 1.111338
2792.159, 1.136787
2794.088, 1.139678
2796.016, 1.120390
2797.945, 1.132191
2799.873, 1.103506
2801.802, 1.069042
2803.730, 1.074027
2805.658, 1.073162
2807.587, 1.080140
2809.515, 1.101952
2811.444, 1.126614
2813.372, 1.125429
2815.301, 1.088884
2817.229, 0.9856121
2819.158, 1.024588
2821.086, 1.105565
2823.015, 0.9856252
2824.943, 0.9340618
2826.872, 0.9392508
2828.800, 0.9803063
2830.729, 0.9817035
2832.657, 0.9578131
2834.585, 0.9286547
2836.514, 0.9599529
2838.442, 0.9902678
2840.371, 0.9896107
2842.299, 0.9099852
2844.228, 0.9561380
2846.156, 0.9789639
2848.085, 0.8369071
2850.013, 0.7763640
2851.942, 0.8163090
2853.870, 0.9113789
2855.799, 0.7998406
2857.727, 0.8274443
2859.656, 0.9453290
2861.584, 1.012798
2863.512, 0.8948973
2865.441, 0.7901477
2867.369, 0.8124131
2869.298, 0.8924223
2871.226, 0.9334738
2873.155, 0.9007483
2875.083, 0.7071288
2877.012, 0.8103918
2878.940, 0.9800718
2880.869, 0.9270222
2882.797, 0.8459926
2884.726, 0.8189619
2886.654, 0.8478082
2888.583, 0.8026361
2890.511, 0.8090279
2892.439, 0.8272880
2894.368, 0.7351395
2896.296, 0.7355477
2898.225, 0.7510183
2900.153, 0.7273573
2902.082, 0.7457432
2904.010, 0.6936222
2905.939, 0.6168457
2907.867, 0.6745632
2909.796, 0.7047930
2911.724, 0.7377675
2913.653, 0.8102145
2915.581, 0.9148425
2917.510, 0.9031441
2919.438, 0.7882480
2921.366, 0.7275341
2923.295, 0.7087972
2925.223, 0.7478943
2927.152, 0.8473595
2929.080, 0.7863146
2931.009, 0.7622895
2932.937, 0.8145880
2934.866, 0.8547147
2936.794, 0.7766975
2938.723, 0.7011654
2940.651, 0.7421609
2942.580, 0.5878791
2944.508, 0.6033819
2946.437, 0.7637922
2948.365, 0.6488598
2950.293, 0.6167627
2952.222, 0.6656317
2954.150, 0.7587982
2956.079, 0.7836096
2958.007, 0.7037560
2959.936, 0.5962963
2961.864, 0.7003266
2963.793, 0.6683721
2965.721, 0.6089262
2967.650, 0.6343800
2969.578, 0.7351872
2971.507, 0.7297289
2973.435, 0.6477396
2975.364, 0.6337464
2977.292, 0.5578972
2979.220, 0.5515366
2981.149, 0.6577443
2983.077, 0.5779640
2985.006, 0.5518734
2986.934, 0.5824145
2988.863, 0.6076722
2990.791, 0.6207825
2992.720, 0.6301416
2994.648, 0.6290343
2996.577, 0.5691229
2998.505, 0.5589365
3000.434, 0.5880110
3002.362, 0.6310444
3004.291, 0.6253557
3006.219, 0.5870358
3008.147, 0.5453087
3010.076, 0.5458583
3012.004, 0.5311088
3013.933, 0.5255881
3015.861, 0.5413084
3017.790, 0.5582074
3019.718, 0.5771685
3021.647, 0.5693244
3023.575, 0.5010813
3025.504, 0.6963705
3027.432, 0.7102502
3029.361, 0.5274808
3031.289, 0.3979480
3033.218, 0.4182993
3035.146, 0.4847052
3037.074, 0.5259307
3039.003, 0.4752540
3040.931, 0.5375187
3042.860, 0.5879892
3044.788, 0.5080206
3046.717, 0.5412909
3048.645, 0.4818726
3050.574, 0.3706465
3052.502, 0.3762575
3054.431, 0.4014120
3056.359, 0.4597951
3058.288, 0.5461019
3060.216, 0.6602799
3062.145, 0.5728298
3064.073, 0.4683966
3066.001, 0.4710514
3067.930, 0.3864273
3069.858, 0.3276034
3071.787, 0.3271553
3073.715, 0.4010125
3075.644, 0.4788940
3077.572, 0.4811338
3079.501, 0.4234225
3081.429, 0.3604124
3083.358, 0.4327438
3085.286, 0.4580137
3087.215, 0.4178133
3089.143, 0.4817149
3091.072, 0.5041088
3093.000, 0.4792138
3094.928, 0.4305795
3096.857, 0.4377145
3098.785, 0.4203286
3100.714, 0.4064743
3102.642, 0.4218961
3104.571, 0.4626661
3106.499, 0.4586535
3108.428, 0.4259118
3110.356, 0.3977015
3112.285, 0.4272053
3114.213, 0.4329657
3116.142, 0.4199295
3118.070, 0.4273645
3119.999, 0.3520615
3121.927, 0.3676740
3123.855, 0.4396166
3125.784, 0.4233940
3127.712, 0.4512529
3129.641, 0.3706859
3131.569, 0.2308713
3133.498, 0.2536629
3135.426, 0.3536289
3137.355, 0.3457519
3139.283, 0.2537414
3141.212, 0.3423490
3143.140, 0.3461332
3145.069, 0.3383712
3146.997, 0.3647201
3148.926, 0.4110156
3150.854, 0.4445111
3152.782, 0.3845872
3154.711, 0.2629947
3156.639, 0.3429990
3158.568, 0.3016061
3160.496, 0.2962329
3162.425, 0.3675304
3164.353, 0.2758681
3166.282, 0.2997243
3168.210, 0.3893953
3170.139, 0.4461993
3172.067, 0.2353566
3173.996, 0.3011051
3175.924, 0.3834506
3177.853, 0.3238267
3179.781, 0.2876314
3181.709, 0.3080746
3183.638, 0.2974584
3185.566, 0.2415778
3187.495, 0.2966354
3189.423, 0.3175987
3191.352, 0.3152595
3193.280, 0.3062995
3195.209, 0.2881766
3197.137, 0.2832360
3199.066, 0.2758486
3200.994, 0.2848327
3202.923, 0.4053460
3204.851, 0.2869377
3206.780, 0.2079175
3208.708, 0.2391541
3210.636, 0.2222097
3212.565, 0.2176899
3214.493, 0.2480792
3216.422, 0.3009359
3218.350, 0.3563007
3220.279, 0.2490067
3222.207, 0.1659706
3224.136, 0.1777159
3226.064, 3.5812211E-04
3227.993, 3.966717
3229.921, 3.744200
3231.850, 1.085427
3233.778, 0.3609029
3235.707, 0.2010565
3237.635, 0.1974273
3239.563, 0.2244549
3241.492, 0.2514940
3243.420, 0.2793056
3245.349, 0.1974197
3247.277, 0.1226530
3249.206, 0.1431760
3251.134, 0.2893531
3253.063, 0.2166353
3254.991, 0.2022156
3256.920, 0.2964430
3258.848, 0.2378318
3260.777, 0.1297174
3262.705, 0.1545372
3264.634, 0.2483080
3266.562, 0.2218905
3268.490, 0.2471246
3270.419, 0.2383293
3272.347, 0.2083337
3274.276, 0.1921314
3276.204, 0.1204872
3278.133, 0.1877474
3280.061, 0.2432175
3281.990, 0.1900534
3283.918, 0.1632178
3285.847, 0.1776411
3287.775, 0.1950205
3289.704, 0.2243388
3291.632, 0.3199648
3293.561, 0.2113626
3295.489, 0.2467270
3297.417, 0.3225460
3299.346, 0.2259129
3301.274, 0.1583697
3303.203, 0.2954785
3305.131, 0.3703517
3307.060, 0.2554281
3308.988, 0.1791095
3310.917, 0.1595619
3312.845, 0.1997543
3314.774, 0.2549738
3316.702, 0.2556055
3318.631, 0.1268080
3320.559, 0.2467822
3322.488, 0.3706847
3324.416, 0.2477801
3326.344, 0.1799248
3328.273, 0.1535677
3330.201, 0.1465469
3332.130, 0.1615823
3334.058, 0.2373567
3335.987, 0.1667618
3337.915, 0.1055383
3339.844, 0.1530205
3341.772, 0.3118929
3343.701, 0.1372127
3345.629, 0.2099841
3347.558, 0.2839583
3349.486, 0.2398774
3351.415, 0.2075754
3353.343, 0.2346626
3355.271, 0.2017917
3357.200, 0.1935845
3359.128, 0.2735102
3361.057, 0.1572050
3362.985, 0.2236196
3364.914, 0.2295745
3366.842, 0.1256978
3368.771, 5.9501689E-02
3370.699, 0.2318098
3372.628, 0.2203203
3374.556, 0.1657264
3376.485, 0.2176475
3378.413, 0.1544322
3380.342, 0.1397709
3382.270, 0.1682724
3384.198, 0.1952111
3386.127, 0.1758604
3388.055, 0.1604920
3389.984, 0.2430112
3391.912, 0.2769850
3393.841, 0.1925345
3395.769, 5.5030800E-02
3397.698, 0.1773719
3399.626, 0.1817889
3401.555, 0.2112062
3403.483, 0.3582183
3405.412, 0.1582401
3407.340, 8.9164473E-02
3409.269, 0.1250426
3411.197, 0.1458536
3413.125, 8.0212601E-02
3415.054, 0.2089175
3416.982, 0.1491043
3418.911, 0.1117397
3420.839, 0.1494242
3422.768, 0.1313542
3424.696, 0.2570817
3426.625, 0.1984779
3428.553, 0.1470125
3430.482, 0.1976908
3432.410, 0.1930333
3434.339, 0.1584853
3436.267, 0.1823531
3438.196, 0.1825089
3440.124, 0.1350511
3442.052, 0.1905269
3443.981, 0.1818608
3445.909, 0.1803403
3447.838, 0.2417529
3449.766, 0.3277348
3451.695, 0.2022374
3453.623, 0.1099463
3455.552, 0.1315056
##END=



