##NAMES=Gerdtremmelite
##RRUFFID=R100224
##IDEAL CHEMISTRY=ZnAl_2_(AsO_4_)(OH)_5_
##LOCALITY=Tsumeb, Namibia
##OWNER=RRUFF
##SOURCE=William Pinch
##DESCRIPTION=Spherical aggregrates of tabular brown crystals with white pyrophyllite on scorodite. This is a portion of the type sample.
##STATUS=The identification of this mineral is not yet confirmed
##URL=https://www.rruff.net/odr/rruff_sample/R100224
##FILETYPE=Raman RAW
##RAMAN WAVELENGTH=532

177.8867, 65.95965
179.8152, 67.07039
181.7437, 68.39867
183.6721, 70.07395
185.6006, 72.06544
187.5291, 73.98656
189.4576, 75.83225
191.3860, 77.76926
193.3145, 79.77872
195.2430, 82.10642
197.1714, 84.09196
199.0999, 85.57944
201.0284, 86.58733
202.9568, 87.52480
204.8853, 88.48096
206.8138, 89.36037
208.7422, 90.06181
210.6707, 90.41481
212.5992, 90.75412
214.5276, 91.13478
216.4561, 91.57291
218.3846, 92.06413
220.3130, 92.75134
222.2415, 93.34388
224.1700, 93.54539
226.0984, 93.14063
228.0269, 93.02946
229.9554, 93.71049
231.8838, 95.01636
233.8123, 95.73333
235.7408, 95.67592
237.6692, 95.30124
239.5977, 94.77635
241.5262, 94.14331
243.4546, 93.16029
245.3831, 91.66967
247.3116, 89.77953
249.2400, 88.10644
251.1685, 86.86763
253.0970, 85.72745
255.0254, 84.49143
256.9539, 83.04887
258.8824, 81.81788
260.8108, 80.94245
262.7393, 80.28410
264.6678, 79.49512
266.5962, 78.40469
268.5247, 77.31999
270.4532, 76.40222
272.3816, 75.71460
274.3101, 75.05107
276.2386, 74.19100
278.1670, 73.50581
280.0955, 73.31142
282.0240, 73.96251
283.9524, 74.61893
285.8809, 75.03564
287.8094, 75.24348
289.7378, 75.80878
291.6663, 77.11843
293.5948, 78.52166
295.5232, 79.53444
297.4517, 79.33256
299.3802, 79.67483
301.3086, 80.81451
303.2371, 82.59937
305.1656, 84.61948
307.0940, 87.37500
309.0225, 90.19944
310.9510, 92.60305
312.8794, 94.33740
314.8079, 96.05952
316.7364, 97.63235
318.6648, 99.22076
320.5933, 101.2028
322.5218, 104.4106
324.4502, 107.5776
326.3787, 110.2346
328.3072, 112.3426
330.2356, 113.9994
332.1641, 115.0136
334.0926, 115.6177
336.0210, 115.9457
337.9495, 115.8136
339.8780, 115.5104
341.8064, 115.2452
343.7349, 115.0288
345.6634, 114.6952
347.5918, 114.3254
349.5203, 113.7194
351.4488, 112.6107
353.3772, 110.7983
355.3057, 109.0145
357.2342, 107.5937
359.1626, 106.4755
361.0911, 105.5254
363.0196, 104.6485
364.9480, 103.6949
366.8765, 102.6598
368.8050, 101.5670
370.7334, 100.3988
372.6619, 98.98794
374.5904, 97.58121
376.5188, 96.36686
378.4473, 95.45804
380.3758, 94.74992
382.3042, 94.21928
384.2327, 93.85125
386.1612, 93.66303
388.0896, 93.68446
390.0181, 93.81348
391.9466, 94.06234
393.8750, 94.46496
395.8035, 94.85241
397.7320, 95.17342
399.6604, 95.66837
401.5889, 96.54594
403.5174, 97.56877
405.4458, 98.61478
407.3743, 99.84944
409.3028, 101.5097
411.2312, 103.6468
413.1597, 106.1473
415.0882, 108.4605
417.0166, 110.4214
418.9451, 112.2451
420.8736, 113.8891
422.8020, 115.1693
424.7305, 116.4222
426.6590, 117.9759
428.5874, 119.8720
430.5159, 121.4499
432.4444, 122.4728
434.3728, 123.1404
436.3013, 124.0812
438.2298, 125.3607
440.1582, 126.5825
442.0867, 127.5905
444.0152, 128.3603
445.9436, 129.1372
447.8721, 130.1369
449.8006, 131.1448
451.7290, 131.8709
453.6575, 132.2711
455.5860, 132.7233
457.5144, 133.1351
459.4429, 133.5844
461.3714, 134.4654
463.2998, 136.1742
465.2283, 138.1619
467.1568, 140.3798
469.0852, 142.5313
471.0137, 144.3874
472.9422, 145.5182
474.8706, 146.4474
476.7991, 147.4277
478.7276, 149.1109
480.6560, 151.0823
482.5845, 153.3189
484.5130, 155.1686
486.4414, 156.3016
488.3699, 156.4776
490.2984, 156.6379
492.2268, 156.8436
494.1553, 157.1357
496.0838, 157.6050
498.0122, 158.7542
499.9407, 159.6340
501.8692, 159.7600
503.7976, 158.6031
505.7261, 157.5028
507.6546, 156.7783
509.5830, 156.0918
511.5115, 155.2991
513.4399, 154.0901
515.3684, 151.9813
517.2969, 148.7274
519.2253, 145.0214
521.1538, 141.6833
523.0823, 138.9128
525.0107, 136.0382
526.9392, 132.8876
528.8677, 129.5027
530.7961, 125.7770
532.7246, 121.3014
534.6531, 116.8717
536.5815, 112.7414
538.5100, 108.9305
540.4385, 105.5741
542.3669, 102.9932
544.2954, 100.7415
546.2239, 98.51796
548.1523, 95.57588
550.0808, 93.23879
552.0093, 91.99132
553.9377, 91.40810
555.8662, 90.46329
557.7947, 88.83020
559.7231, 87.52950
561.6516, 86.81747
563.5801, 86.58482
565.5085, 86.71866
567.4370, 87.43415
569.3655, 88.02824
571.2939, 88.00383
573.2224, 87.63723
575.1509, 87.83289
577.0793, 89.48734
579.0078, 90.91739
580.9363, 91.19337
582.8647, 90.09476
584.7932, 89.06616
586.7217, 88.29152
588.6501, 87.71732
590.5786, 87.25600
592.5071, 86.90113
594.4355, 86.08067
596.3640, 84.46247
598.2925, 82.63136
600.2209, 81.18779
602.1494, 80.22317
604.0779, 79.13173
606.0063, 77.62216
607.9348, 76.07645
609.8633, 74.66721
611.7917, 73.18930
613.7202, 71.71816
615.6487, 70.23502
617.5771, 68.81639
619.5056, 67.73141
621.4341, 67.55618
623.3625, 67.11987
625.2910, 65.74901
627.2195, 63.21075
629.1479, 61.04902
631.0764, 59.43781
633.0049, 58.06808
634.9333, 56.73189
636.8618, 55.35062
638.7903, 54.10172
640.7188, 53.15477
642.6472, 52.36066
644.5757, 51.35341
646.5042, 49.84050
648.4326, 48.59591
650.3611, 47.87831
652.2896, 47.41744
654.2180, 46.94172
656.1465, 46.47475
658.0750, 45.99381
660.0034, 45.36576
661.9319, 44.66283
663.8604, 44.24796
665.7888, 44.24599
667.7173, 44.22100
669.6458, 44.02285
671.5742, 43.68484
673.5027, 43.34612
675.4312, 42.78332
677.3596, 42.49801
679.2881, 42.76902
681.2166, 43.35915
683.1450, 43.62644
685.0735, 43.45319
687.0020, 43.12604
688.9304, 42.68622
690.8589, 42.14483
692.7874, 41.75224
694.7158, 41.42051
696.6443, 41.29770
698.5728, 41.66356
700.5012, 42.38462
702.4297, 42.68763
704.3582, 42.20161
706.2866, 41.60890
708.2151, 41.21055
710.1436, 41.05629
712.0720, 40.89010
714.0005, 40.65804
715.9290, 40.41461
717.8574, 40.27076
719.7859, 40.31465
721.7144, 40.48632
723.6428, 40.82146
725.5713, 41.14048
727.4998, 41.42417
729.4282, 41.63576
731.3567, 42.05050
733.2852, 42.90680
735.2136, 43.80444
737.1421, 44.35502
739.0706, 44.47073
740.9990, 44.72257
742.9275, 45.28553
744.8560, 46.02328
746.7844, 46.85627
748.7129, 47.94545
750.6414, 48.93739
752.5698, 49.56854
754.4983, 50.16346
756.4268, 51.12135
758.3552, 52.51734
760.2837, 54.25144
762.2122, 56.44467
764.1406, 58.73506
766.0691, 60.81738
767.9976, 62.42053
769.9260, 64.39558
771.8545, 67.11726
773.7830, 70.25698
775.7114, 73.23443
777.6399, 75.80825
779.5684, 78.53358
781.4968, 81.59948
783.4253, 85.21756
785.3538, 89.03745
787.2822, 92.96848
789.2107, 96.99585
791.1392, 101.1661
793.0676, 105.6584
794.9961, 110.3655
796.9246, 115.6235
798.8530, 120.0347
800.7815, 123.0788
802.7100, 125.1391
804.6384, 127.0179
806.5669, 128.8010
808.4954, 130.3939
810.4238, 131.5440
812.3523, 132.2870
814.2808, 133.5473
816.2092, 135.8021
818.1377, 138.2652
820.0662, 140.3193
821.9946, 141.9025
823.9231, 144.0651
825.8516, 147.2005
827.7800, 151.0183
829.7085, 155.1835
831.6370, 159.8297
833.5654, 165.1277
835.4939, 171.1608
837.4224, 177.6733
839.3508, 184.5585
841.2793, 191.9996
843.2078, 199.6051
845.1362, 207.0462
847.0647, 215.6031
848.9932, 225.9968
850.9216, 237.2698
852.8501, 249.1536
854.7786, 261.7440
856.7070, 275.7357
858.6355, 291.7930
860.5640, 308.9516
862.4924, 326.6122
864.4209, 344.8407
866.3494, 360.3707
868.2778, 372.9073
870.2063, 382.0126
872.1348, 386.4051
874.0632, 386.1598
875.9917, 381.1596
877.9202, 369.7199
879.8486, 354.6918
881.7771, 337.7286
883.7056, 318.3196
885.6340, 298.7508
887.5625, 279.4250
889.4910, 260.8074
891.4194, 243.4781
893.3479, 227.8373
895.2764, 213.2082
897.2048, 199.5810
899.1333, 186.3106
901.0618, 172.8235
902.9902, 160.2030
904.9187, 149.0782
906.8472, 139.2905
908.7756, 130.1776
910.7041, 121.9347
912.6326, 115.6155
914.5610, 110.0928
916.4895, 105.1519
918.4180, 100.4798
920.3464, 96.27235
922.2749, 92.22208
924.2034, 88.73215
926.1318, 86.13087
928.0603, 83.81798
929.9888, 81.04058
931.9172, 79.11529
933.8457, 76.41026
935.7742, 75.24589
937.7026, 73.89180
939.6311, 72.08134
941.5596, 70.37757
943.4880, 68.57495
945.4165, 66.61302
947.3450, 64.72739
949.2734, 63.04814
951.2019, 61.37677
953.1304, 59.80714
955.0588, 58.58879
956.9873, 57.50465
958.9158, 56.40747
960.8442, 55.36058
962.7727, 54.31286
964.7012, 52.80305
966.6296, 51.02186
968.5581, 49.16987
970.4866, 47.71568
972.4150, 46.90345
974.3435, 46.46615
976.2720, 45.74345
978.2004, 44.63568
980.1289, 43.48172
982.0574, 42.81317
983.9858, 42.52439
985.9143, 42.09204
987.8428, 41.44674
989.7712, 40.71254
991.6997, 40.01264
993.6282, 39.56228
995.5566, 39.39083
997.4851, 39.17778
999.4136, 38.66806
1001.342, 37.87589
1003.271, 37.13660
1005.199, 36.76312
1007.127, 36.25451
1009.056, 35.61731
1010.984, 35.15157
1012.913, 35.48847
1014.841, 35.68214
1016.770, 35.10087
1018.698, 34.27307
1020.627, 33.69942
1022.555, 33.48014
1024.484, 33.39999
1026.412, 33.35175
1028.341, 33.05616
1030.269, 32.61470
1032.198, 32.26095
1034.126, 32.37530
1036.054, 32.39121
1037.983, 32.05308
1039.911, 31.83651
1041.840, 31.80474
1043.768, 31.61185
1045.697, 30.96241
1047.625, 30.16496
1049.554, 29.54041
1051.482, 29.24110
1053.411, 29.03061
1055.339, 28.61987
1057.268, 28.14641
1059.196, 28.52632
1061.125, 29.02725
1063.053, 29.01388
1064.981, 28.34872
1066.910, 27.68257
1068.838, 26.79088
1070.767, 26.21032
1072.695, 26.14957
1074.624, 26.29258
1076.552, 26.23705
1078.481, 26.19302
1080.409, 26.11606
1082.338, 25.87215
1084.266, 25.65574
1086.195, 25.40399
1088.123, 24.88426
1090.052, 24.25811
1091.980, 23.91935
1093.908, 23.68237
1095.837, 23.44188
1097.765, 23.27696
1099.694, 23.24540
1101.622, 23.03139
1103.551, 22.69460
1105.479, 22.79391
1107.408, 23.21002
1109.336, 23.35483
1111.265, 22.94604
1113.193, 22.73401
1115.122, 22.97451
1117.050, 23.13202
1118.979, 22.91142
1120.907, 22.18877
1122.835, 21.76682
1124.764, 21.55854
1126.692, 21.49886
1128.621, 21.55862
1130.549, 21.58287
1132.478, 21.44032
1134.406, 21.28965
1136.335, 21.42517
1138.263, 21.42825
1140.192, 21.12786
1142.120, 20.78259
1144.049, 20.52484
1145.977, 20.55123
1147.906, 20.90053
1149.834, 21.04606
1151.762, 20.83487
1153.691, 20.21766
1155.619, 19.82654
1157.548, 19.69454
1159.476, 19.95741
1161.405, 20.35105
1163.333, 20.42820
1165.262, 20.23672
1167.190, 19.90632
1169.119, 19.70506
1171.047, 19.52205
1172.976, 19.44995
1174.904, 19.37658
1176.833, 19.23933
1178.761, 19.04746
1180.689, 18.74299
1182.618, 18.65948
1184.546, 19.01721
1186.475, 19.66175
1188.403, 19.98985
1190.332, 19.78107
1192.260, 19.63451
1194.189, 19.58932
1196.117, 19.61166
1198.046, 19.69720
1199.974, 19.79647
1201.903, 19.70444
1203.831, 19.30535
1205.760, 18.99846
1207.688, 18.87995
1209.616, 18.88917
1211.545, 18.91904
1213.473, 18.95783
1215.402, 19.03235
1217.330, 19.30500
1219.259, 19.58355
1221.187, 19.47381
1223.116, 18.78713
1225.044, 18.46198
1226.973, 18.82371
1228.901, 19.25537
1230.830, 19.51156
1232.758, 19.57055
1234.687, 19.65125
1236.615, 19.83337
1238.543, 19.98406
1240.472, 20.03840
1242.400, 19.85517
1244.329, 19.47573
1246.257, 18.99877
1248.186, 18.87292
1250.114, 19.32691
1252.043, 19.75493
1253.971, 20.08085
1255.900, 20.20568
1257.828, 20.10344
1259.757, 19.68823
1261.685, 19.28256
1263.614, 18.61007
1265.542, 18.15778
1267.470, 18.44126
1269.399, 19.31184
1271.327, 19.68498
1273.256, 19.29991
1275.184, 18.99427
1277.113, 19.14484
1279.041, 19.43792
1280.970, 19.55807
1282.898, 19.53976
1284.827, 19.51053
1286.755, 19.43987
1288.684, 19.35046
1290.612, 19.32369
1292.541, 19.36381
1294.469, 19.38508
1296.397, 19.35670
1298.326, 19.37024
1300.254, 19.43070
1302.183, 19.49822
1304.111, 19.60901
1306.040, 19.81014
1307.968, 19.90326
1309.897, 19.78087
1311.825, 19.73621
1313.754, 19.92016
1315.682, 20.14348
1317.611, 20.29832
1319.539, 20.39229
1321.468, 20.32041
1323.396, 19.90483
1325.324, 19.66605
1327.253, 20.10488
1329.181, 20.65942
1331.110, 20.52046
1333.038, 19.49199
1334.967, 19.10919
1336.895, 20.34588
1338.824, 21.33149
1340.752, 21.22490
1342.681, 20.49543
1344.609, 20.19152
1346.538, 20.80178
1348.466, 20.90407
1350.395, 19.84512
1352.323, 18.94978
1354.251, 19.13455
1356.180, 20.05694
1358.108, 20.52607
1360.037, 20.49974
1361.965, 20.20543
1363.894, 19.27482
1365.822, 18.47745
1367.751, 18.39786
1369.679, 18.82106
1371.608, 19.35624
1373.536, 20.18812
1375.465, 20.76551
1377.393, 20.66518
1379.322, 20.32379
1381.250, 20.15354
1383.178, 20.20387
1385.107, 20.11081
1387.035, 19.57075
1388.964, 19.32689
1390.892, 20.00034
1392.821, 20.74195
1394.749, 20.55452
1396.678, 19.35189
1398.606, 18.72412
1400.535, 19.04823
1402.463, 19.23281
1404.392, 18.91596
1406.320, 18.48441
1408.249, 18.28071
1410.177, 18.34568
1412.105, 18.49674
1414.034, 18.77648
1415.962, 18.92763
1417.891, 18.73115
1419.819, 18.55326
1421.748, 18.75108
1423.676, 19.19218
1425.605, 19.42493
1427.533, 19.28498
1429.462, 19.23511
1431.390, 19.56305
1433.319, 20.02544
1435.247, 20.20135
1437.176, 19.98852
1439.104, 19.98435
1441.032, 20.51908
1442.961, 20.82556
1444.889, 20.36707
1446.818, 19.83908
1448.746, 19.97184
1450.675, 20.83061
1452.603, 21.11503
1454.532, 20.33916
1456.460, 19.63382
1458.389, 19.34942
1460.317, 19.24867
1462.246, 18.94528
1464.174, 18.24656
1466.103, 18.00940
1468.031, 18.71672
1469.959, 19.32963
1471.888, 19.63010
1473.816, 19.74230
1475.745, 19.65294
1477.673, 19.23553
1479.602, 19.11398
1481.530, 19.61173
1483.459, 19.99910
1485.387, 19.90927
1487.316, 19.66217
1489.244, 19.49244
1491.173, 19.50897
1493.101, 19.87851
1495.030, 20.62215
1496.958, 21.18725
1498.886, 21.45395
1500.815, 21.59157
1502.743, 21.67456
1504.672, 21.70803
1506.600, 21.46838
1508.529, 20.66259
1510.457, 20.09761
1512.386, 20.32851
1514.314, 20.59597
1516.243, 20.16569
1518.171, 19.42373
1520.100, 19.82252
1522.028, 21.95905
1523.957, 22.91107
1525.885, 20.82236
1527.813, 19.19424
1529.742, 19.80536
1531.670, 21.61819
1533.599, 22.70687
1535.527, 22.83556
1537.456, 23.03679
1539.384, 23.54891
1541.313, 23.77319
1543.241, 23.29744
1545.170, 22.68325
1547.098, 22.52899
1549.027, 22.75593
1550.955, 23.08276
1552.884, 24.00976
1554.812, 24.61795
1556.740, 24.34556
1558.669, 23.89106
1560.597, 23.93912
1562.526, 24.49538
1564.454, 24.83411
1566.383, 24.75460
1568.311, 24.58124
1570.240, 24.38189
1572.168, 24.19710
1574.097, 23.84972
1576.025, 23.51492
1577.954, 23.72741
1579.882, 24.58473
1581.811, 25.20400
1583.739, 25.46670
1585.667, 25.42872
1587.596, 24.94202
1589.524, 24.31163
1591.453, 23.71581
1593.381, 23.26365
1595.310, 23.37638
1597.238, 24.15605
1599.167, 24.89637
1601.095, 25.81204
1603.024, 26.25001
1604.952, 25.18159
1606.881, 23.55372
1608.809, 23.44338
1610.738, 25.01768
1612.666, 25.78196
1614.594, 24.84836
1616.523, 24.01422
1618.451, 24.29809
1620.380, 24.84945
1622.308, 24.75124
1624.237, 24.13884
1626.165, 23.80747
1628.094, 23.76935
1630.022, 24.14126
1631.951, 25.62383
1633.879, 26.70318
1635.808, 26.16004
1637.736, 24.76460
1639.665, 24.09201
1641.593, 24.20040
1643.521, 24.21652
1645.450, 23.88743
1647.378, 23.75326
1649.307, 24.28222
1651.235, 24.85125
1653.164, 24.83841
1655.092, 24.40786
1657.021, 24.47437
1658.949, 25.28212
1660.878, 25.62167
1662.806, 24.69202
1664.735, 24.07603
1666.663, 24.92541
1668.592, 26.13365
1670.520, 26.00763
1672.448, 24.59949
1674.377, 24.17947
1676.305, 25.41863
1678.234, 26.20080
1680.162, 25.63118
1682.091, 24.92284
1684.019, 24.72692
1685.948, 24.81134
1687.876, 24.65045
1689.805, 24.19423
1691.733, 24.08887
1693.662, 24.73911
1695.590, 25.04172
1697.519, 24.41242
1699.447, 23.62208
1701.375, 23.02051
1703.304, 22.67423
1705.232, 22.89690
1707.161, 23.82207
1709.089, 24.49618
1711.018, 24.80177
1712.946, 24.87682
1714.875, 24.80444
1716.803, 24.49236
1718.732, 23.55532
1720.660, 22.27504
1722.589, 22.05284
1724.517, 23.17341
1726.446, 23.91267
1728.374, 23.91138
1730.302, 23.74889
1732.231, 23.37145
1734.159, 23.13480
1736.088, 23.48381
1738.016, 24.27119
1739.945, 24.77110
1741.873, 24.95900
1743.802, 24.95538
1745.730, 24.68208
1747.659, 24.37372
1749.587, 23.83652
1751.516, 23.53718
1753.444, 24.29006
1755.373, 25.65459
1757.301, 25.62160
1759.229, 23.87242
1761.158, 22.71890
1763.086, 22.79492
1765.015, 22.94552
1766.943, 22.60499
1768.872, 22.29122
1770.800, 22.53971
1772.729, 23.12793
1774.657, 23.30643
1776.586, 22.99592
1778.514, 23.11282
1780.443, 24.06509
1782.371, 24.81513
1784.300, 24.98907
1786.228, 24.81570
1788.156, 24.19708
1790.085, 23.45111
1792.013, 23.37930
1793.942, 23.99447
1795.870, 24.12767
1797.799, 23.34628
1799.727, 22.93485
1801.656, 23.66825
1803.584, 24.44717
1805.513, 24.70893
1807.441, 24.49688
1809.370, 23.57021
1811.298, 22.07309
1813.227, 21.72475
1815.155, 23.12556
1817.083, 23.94449
1819.012, 23.02540
1820.940, 22.25913
1822.869, 22.78529
1824.797, 23.72509
1826.726, 24.09948
1828.654, 23.98279
1830.583, 23.78250
1832.511, 23.43568
1834.440, 23.27557
1836.368, 23.43842
1838.297, 23.64777
1840.225, 23.93288
1842.154, 24.13318
1844.082, 24.19335
1846.010, 24.05672
1847.939, 23.42555
1849.867, 22.10783
1851.796, 21.64728
1853.724, 22.66710
1855.653, 23.51810
1857.581, 24.11153
1859.510, 24.44775
1861.438, 24.38401
1863.367, 24.16775
1865.295, 24.15150
1867.224, 24.27873
1869.152, 24.05870
1871.081, 23.19012
1873.009, 22.89980
1874.938, 23.78923
1876.866, 24.41283
1878.794, 24.09066
1880.723, 23.79462
1882.651, 24.57910
1884.580, 25.58421
1886.508, 24.97543
1888.437, 22.87148
1890.365, 21.78986
1892.294, 22.03528
1894.222, 22.39588
1896.151, 22.82932
1898.079, 23.03738
1900.008, 22.60363
1901.936, 22.18986
1903.865, 22.44764
1905.793, 23.04233
1907.721, 23.28912
1909.650, 23.19907
1911.578, 23.17572
1913.507, 23.30872
1915.435, 23.26782
1917.364, 22.83319
1919.292, 22.41362
1921.221, 22.12351
1923.149, 21.98512
1925.078, 22.11638
1927.006, 22.40076
1928.935, 22.51395
1930.863, 22.43378
1932.792, 22.39850
1934.720, 22.29780
1936.648, 22.44342
1938.577, 23.28953
1940.505, 23.82508
1942.434, 23.43834
1944.362, 22.78617
1946.291, 22.55821
1948.219, 22.50994
1950.148, 21.81493
1952.076, 20.26396
1954.005, 19.79560
1955.933, 20.81475
1957.862, 21.85325
1959.790, 23.02100
1961.719, 23.68488
1963.647, 23.12263
1965.575, 22.47126
1967.504, 22.56468
1969.432, 23.12842
1971.361, 23.84217
1973.289, 24.61844
1975.218, 24.73268
1977.146, 24.02287
1979.075, 23.46660
1981.003, 23.38934
1982.932, 23.15780
1984.860, 22.20996
1986.789, 21.42173
1988.717, 21.48427
1990.646, 21.94249
1992.574, 22.16324
1994.502, 22.21095
1996.431, 22.45990
1998.359, 22.95063
2000.288, 23.48681
2002.216, 24.56590
2004.145, 24.90228
2006.073, 23.68189
2008.002, 22.58562
2009.930, 22.31499
2011.859, 22.44493
2013.787, 22.68528
2015.716, 23.01298
2017.644, 23.48324
2019.573, 24.06081
2021.501, 24.04244
2023.429, 23.24237
2025.358, 22.83351
2027.286, 23.14448
2029.215, 23.50135
2031.143, 23.73847
2033.072, 23.88240
2035.000, 24.04127
2036.929, 24.04609
2038.857, 23.45347
2040.786, 22.59351
2042.714, 22.59100
2044.643, 23.56035
2046.571, 23.86107
2048.500, 23.01785
2050.428, 22.48110
2052.356, 22.39701
2054.285, 22.51052
2056.213, 22.88100
2058.142, 23.28952
2060.070, 23.92499
2061.999, 24.28814
2063.927, 23.34925
2065.856, 21.68551
2067.784, 21.47958
2069.713, 22.68216
2071.641, 23.50764
2073.570, 23.80359
2075.498, 23.94559
2077.427, 23.89040
2079.355, 23.93487
2081.283, 24.33142
2083.212, 24.67317
2085.140, 24.78663
2087.069, 24.68528
2088.997, 24.25854
2090.926, 23.66494
2092.854, 23.32217
2094.783, 23.23137
2096.711, 23.06414
2098.640, 22.73592
2100.568, 22.55457
2102.497, 22.53798
2104.425, 22.64986
2106.354, 23.01023
2108.282, 23.32577
2110.210, 23.52755
2112.139, 23.59277
2114.067, 23.52026
2115.996, 23.28617
2117.924, 22.53199
2119.853, 21.60182
2121.781, 21.98353
2123.710, 23.75094
2125.638, 24.59502
2127.567, 24.02615
2129.495, 23.55007
2131.424, 23.44944
2133.352, 23.31292
2135.281, 22.99043
2137.209, 22.68049
2139.137, 22.33744
2141.066, 22.19306
2142.994, 22.78782
2144.923, 23.57415
2146.851, 23.33866
2148.780, 22.30832
2150.708, 21.60226
2152.637, 21.24442
2154.565, 21.74716
2156.494, 23.51301
2158.422, 24.42193
2160.351, 23.55504
2162.279, 22.77075
2164.208, 22.88879
2166.136, 22.91784
2168.064, 22.03919
2169.993, 21.17278
2171.921, 21.24946
2173.850, 21.83640
2175.778, 22.23152
2177.707, 22.48119
2179.635, 22.84020
2181.564, 23.31119
2183.492, 23.81663
2185.421, 24.44248
2187.349, 24.42523
2189.278, 23.34009
2191.206, 22.53986
2193.135, 22.60017
2195.063, 22.72120
2196.991, 22.53203
2198.920, 22.33746
2200.848, 22.29014
2202.777, 22.39981
2204.705, 22.93365
2206.634, 23.53646
2208.562, 23.08989
2210.491, 23.39698
2212.419, 23.54601
2214.348, 23.07410
2216.276, 23.71166
2218.205, 23.33042
2220.133, 23.06536
2222.062, 23.18670
2223.990, 23.23807
2225.918, 23.08281
2227.847, 22.82918
2229.775, 22.28690
2231.704, 21.93519
2233.632, 22.29048
2235.561, 22.84903
2237.489, 22.91861
2239.418, 22.81831
2241.346, 23.43496
2243.275, 24.57212
2245.203, 24.80454
2247.132, 24.15179
2249.060, 23.38432
2250.989, 22.48521
2252.917, 22.05985
2254.845, 22.34376
2256.774, 22.66126
2258.702, 22.88888
2260.631, 23.08179
2262.559, 23.44695
2264.488, 23.53368
2266.416, 23.01767
2268.345, 22.22914
2270.273, 20.99372
2272.202, 19.98905
2274.130, 20.33982
2276.059, 21.52332
2277.987, 22.50001
2279.916, 23.21699
2281.844, 23.34828
2283.772, 22.88153
2285.701, 22.68361
2287.629, 22.93395
2289.558, 22.97582
2291.486, 22.40414
2293.415, 22.24375
2295.343, 22.80078
2297.272, 23.44128
2299.200, 24.31374
2301.129, 24.83843
2303.057, 24.63613
2304.986, 24.18164
2306.914, 23.67706
2308.843, 23.18810
2310.771, 22.68469
2312.699, 22.30497
2314.628, 22.35195
2316.556, 22.70690
2318.485, 22.95989
2320.413, 23.12234
2322.342, 23.50199
2324.270, 24.14456
2326.199, 24.49180
2328.127, 24.47201
2330.056, 24.52923
2331.984, 24.79485
2333.913, 24.82806
2335.841, 24.27902
2337.770, 24.00016
2339.698, 24.63868
2341.626, 25.04131
2343.555, 24.41134
2345.483, 23.82322
2347.412, 24.14475
2349.340, 24.55768
2351.269, 24.24409
2353.197, 23.69824
2355.126, 23.38575
2357.054, 23.37225
2358.983, 24.07975
2360.911, 23.89905
2362.840, 24.00384
2364.768, 24.33184
2366.697, 24.03299
2368.625, 24.43209
2370.553, 24.80406
2372.482, 25.18376
2374.410, 25.38419
2376.339, 25.36109
2378.267, 25.30367
2380.196, 25.30076
2382.124, 25.08837
2384.053, 24.11904
2385.981, 23.73715
2387.910, 25.02205
2389.838, 26.15695
2391.767, 26.39375
2393.695, 26.07027
2395.624, 24.88811
2397.552, 23.79443
2399.480, 23.82638
2401.409, 24.28638
2403.337, 24.31888
2405.266, 24.19118
2407.194, 24.46796
2409.123, 24.27467
2411.051, 24.29700
2412.980, 24.04884
2414.908, 24.22845
2416.837, 24.10697
2418.765, 24.12961
2420.694, 24.67085
2422.622, 24.61978
2424.551, 25.64490
2426.479, 26.24082
2428.407, 26.03877
2430.336, 26.05128
2432.264, 26.85644
2434.193, 27.19569
2436.121, 26.50840
2438.050, 25.91956
2439.978, 25.85435
2441.907, 25.67713
2443.835, 24.99787
2445.764, 24.44226
2447.692, 24.34160
2449.621, 24.47127
2451.549, 24.94504
2453.478, 25.29120
2455.406, 24.95397
2457.334, 24.38156
2459.263, 23.95281
2461.191, 23.74294
2463.120, 24.06851
2465.048, 24.60364
2466.977, 24.57229
2468.905, 24.21153
2470.834, 24.16343
2472.762, 24.39444
2474.691, 24.72645
2476.619, 25.15538
2478.548, 25.66401
2480.476, 25.67532
2482.405, 25.66129
2484.333, 25.65596
2486.261, 25.18302
2488.190, 25.00347
2490.118, 24.76287
2492.047, 24.38083
2493.975, 24.07666
2495.904, 23.53347
2497.832, 23.72771
2499.761, 25.52437
2501.689, 26.49500
2503.618, 25.88074
2505.546, 25.25349
2507.475, 25.09822
2509.403, 24.96518
2511.332, 24.49404
2513.260, 24.25468
2515.188, 24.87373
2517.117, 25.28638
2519.045, 24.45719
2520.974, 23.78917
2522.902, 24.51896
2524.831, 25.38730
2526.759, 25.66188
2528.688, 25.45687
2530.616, 24.41085
2532.545, 23.39039
2534.473, 23.50925
2536.402, 24.21423
2538.330, 24.92004
2540.259, 25.50411
2542.187, 25.69937
2544.115, 25.62432
2546.044, 25.49579
2547.972, 25.30552
2549.901, 24.96506
2551.829, 24.54979
2553.758, 24.28481
2555.686, 24.20729
2557.615, 24.84521
2559.543, 24.43483
2561.472, 25.86504
2563.400, 24.53469
2565.329, 24.20246
2567.257, 24.98526
2569.186, 25.43332
2571.114, 25.45325
2573.042, 25.55902
2574.971, 25.80646
2576.899, 25.72377
2578.828, 25.21888
2580.756, 25.29979
2582.685, 25.11908
2584.613, 24.86977
2586.542, 25.25532
2588.470, 24.68691
2590.399, 25.27668
2592.327, 25.68476
2594.256, 25.79024
2596.184, 25.88435
2598.113, 26.04267
2600.041, 26.09091
2601.969, 26.07355
2603.898, 25.74059
2605.826, 24.40866
2607.755, 23.83970
2609.683, 24.99670
2611.612, 25.72936
2613.540, 25.35521
2615.469, 25.06120
2617.397, 25.26757
2619.326, 25.55462
2621.254, 25.95634
2623.183, 26.12026
2625.111, 25.64602
2627.040, 25.34423
2628.968, 25.63899
2630.896, 25.90580
2632.825, 25.83056
2634.753, 25.76129
2636.682, 26.02063
2638.610, 26.11199
2640.539, 25.33797
2642.467, 24.93343
2644.396, 26.35946
2646.324, 27.22344
2648.253, 25.58046
2650.181, 24.09196
2652.110, 24.66758
2654.038, 25.59234
2655.967, 25.86405
2657.895, 25.95324
2659.823, 26.29311
2661.752, 26.41383
2663.680, 25.71092
2665.609, 25.08246
2667.537, 25.25825
2669.466, 25.64434
2671.394, 26.00982
2673.323, 26.12129
2675.251, 25.56478
2677.180, 24.94596
2679.108, 24.70780
2681.037, 24.65130
2682.965, 24.54700
2684.894, 24.65979
2686.822, 25.55533
2688.750, 26.37109
2690.679, 26.05725
2692.607, 25.64241
2694.536, 26.14933
2696.464, 26.78202
2698.393, 26.90759
2700.321, 26.86567
2702.250, 27.04393
2704.178, 27.09332
2706.107, 26.24047
2708.035, 25.65020
2709.964, 26.94865
2711.892, 28.22178
2713.821, 27.79248
2715.749, 26.82704
2717.677, 26.11108
2719.606, 25.56846
2721.534, 24.76634
2723.463, 24.55637
2725.391, 26.37965
2727.320, 28.09236
2729.248, 27.82619
2731.177, 27.08233
2733.105, 26.93267
2735.034, 26.94344
2736.962, 26.84104
2738.891, 26.68478
2740.819, 26.32523
2742.748, 26.18206
2744.676, 27.00724
2746.604, 27.53794
2748.533, 26.42710
2750.461, 25.35250
2752.390, 25.34790
2754.318, 25.80837
2756.247, 26.83458
2758.175, 27.58438
2760.104, 27.57739
2762.032, 27.13655
2763.961, 25.67011
2765.889, 24.96408
2767.818, 26.58634
2769.746, 27.86478
2771.675, 27.27331
2773.603, 26.59061
2775.531, 26.62964
2777.460, 26.73417
2779.388, 26.68045
2781.317, 26.59163
2783.245, 26.34958
2785.174, 26.44441
2787.102, 27.46497
2789.031, 28.08601
2790.959, 27.41325
2792.888, 27.17170
2794.816, 28.14396
2796.745, 28.40668
2798.673, 27.19336
2800.602, 26.32733
2802.530, 26.50957
2804.458, 26.60888
2806.387, 26.22163
2808.315, 26.38854
2810.244, 27.43653
2812.172, 27.91097
2814.101, 27.37742
2816.029, 27.31835
2817.958, 28.38223
2819.886, 28.83636
2821.815, 28.60332
2823.743, 27.98055
2825.672, 26.93360
2827.600, 26.70105
2829.529, 27.49518
2831.457, 28.27599
2833.385, 29.10139
2835.314, 28.88577
2837.242, 29.30104
2839.171, 29.17500
2841.099, 28.93579
2843.028, 28.90711
2844.956, 29.02356
2846.885, 29.03537
2848.813, 29.22247
2850.742, 29.38796
2852.670, 29.04669
2854.599, 29.33414
2856.527, 29.26252
2858.456, 29.77785
2860.384, 29.35208
2862.313, 29.17385
2864.241, 29.28075
2866.169, 30.02046
2868.098, 30.76982
2870.026, 30.74558
2871.955, 30.33656
2873.883, 29.68661
2875.812, 29.19633
2877.740, 29.54471
2879.669, 29.71113
2881.597, 28.48599
2883.526, 27.51836
2885.454, 28.00207
2887.383, 28.78234
2889.311, 29.48524
2891.240, 30.10660
2893.168, 30.89934
2895.096, 31.13729
2897.025, 29.98031
2898.953, 29.36020
2900.882, 29.86187
2902.810, 30.08570
2904.739, 29.62512
2906.667, 29.49503
2908.596, 30.04272
2910.524, 30.60538
2912.453, 31.25348
2914.381, 31.34116
2916.310, 30.82716
2918.238, 30.30999
2920.167, 29.82425
2922.095, 29.76449
2924.023, 29.66977
2925.952, 30.17041
2927.880, 30.08666
2929.809, 30.50554
2931.737, 31.10533
2933.666, 30.84420
2935.594, 30.16134
2937.523, 29.74356
2939.451, 29.78515
2941.380, 31.11191
2943.308, 32.41653
2945.237, 31.99949
2947.165, 31.16859
2949.094, 30.90705
2951.022, 30.97084
2952.950, 31.36978
2954.879, 31.75591
2956.807, 31.78263
2958.736, 32.03188
2960.664, 33.10078
2962.593, 33.67439
2964.521, 33.35417
2966.450, 32.88860
2968.378, 32.22403
2970.307, 32.07182
2972.235, 32.69237
2974.164, 32.92195
2976.092, 32.70067
2978.021, 31.58515
2979.949, 31.98245
2981.877, 32.23143
2983.806, 32.09868
2985.734, 33.39267
2987.663, 33.83335
2989.591, 33.95316
2991.520, 33.91729
2993.448, 34.24734
2995.377, 34.46179
2997.305, 33.28231
2999.234, 32.16157
3001.162, 32.83198
3003.091, 33.77465
3005.019, 33.64518
3006.948, 33.60850
3008.876, 34.42416
3010.804, 35.22319
3012.733, 35.89164
3014.661, 36.04515
3016.590, 35.09185
3018.518, 34.57073
3020.447, 34.68584
3022.375, 34.91740
3024.304, 35.21578
3026.232, 35.45004
3028.161, 35.59077
3030.089, 36.01470
3032.018, 36.63546
3033.946, 36.86946
3035.875, 36.74092
3037.803, 36.13684
3039.731, 35.45482
3041.660, 35.67282
3043.588, 36.16459
3045.517, 36.09761
3047.445, 36.01008
3049.374, 36.35604
3051.302, 36.88402
3053.231, 37.63338
3055.159, 38.17856
3057.088, 38.28279
3059.016, 38.32740
3060.945, 38.03681
3062.873, 38.69231
3064.802, 38.87098
3066.730, 39.03289
3068.658, 39.97480
3070.587, 39.68688
3072.515, 40.49753
3074.444, 41.25239
3076.372, 41.83452
3078.301, 41.61434
3080.229, 40.98148
3082.158, 40.59455
3084.086, 40.38887
3086.015, 39.90364
3087.943, 40.06625
3089.872, 42.27515
3091.800, 44.34939
3093.729, 45.19086
3095.657, 45.22139
3097.585, 44.20585
3099.514, 43.59019
3101.442, 43.78632
3103.371, 44.31147
3105.299, 45.25397
3107.228, 45.65429
3109.156, 45.55011
3111.085, 45.86622
3113.013, 46.50769
3114.942, 46.79817
3116.870, 46.97834
3118.799, 47.88862
3120.727, 48.77587
3122.656, 48.29543
3124.584, 47.94645
3126.512, 49.76630
3128.441, 50.86332
3130.369, 49.29248
3132.298, 48.28852
3134.226, 49.29079
3136.155, 50.49101
3138.083, 51.80138
3140.012, 52.74770
3141.940, 53.27678
3143.869, 53.30040
3145.797, 52.94439
3147.726, 53.49894
3149.654, 54.64048
3151.583, 55.85035
3153.511, 56.70771
3155.439, 55.88945
3157.368, 55.37554
3159.296, 57.27888
3161.225, 59.38294
3163.153, 61.27840
3165.082, 61.74220
3167.010, 59.47423
3168.939, 58.31860
3170.867, 58.78908
3172.796, 59.59488
3174.724, 60.60262
3176.653, 62.61303
3178.581, 65.09303
3180.510, 64.08427
3182.438, 65.78622
3184.366, 63.74792
3186.295, 66.57678
3188.223, 66.53745
3190.152, 66.57400
3192.080, 68.99684
3194.009, 71.15761
3195.937, 71.95580
3197.866, 72.32763
3199.794, 72.26679
3201.723, 72.55042
3203.651, 73.31591
3205.580, 74.01677
3207.508, 74.71288
3209.437, 76.01412
3211.365, 77.64295
3213.293, 79.23973
3215.222, 80.54777
3217.150, 80.79704
3219.079, 81.28291
3221.007, 83.25214
3222.936, 84.86604
3224.864, 85.09846
3226.793, 85.45916
3228.721, 86.04030
3230.650, 87.44086
3232.578, 89.78653
3234.507, 91.44112
3236.435, 92.44656
3238.364, 92.58250
3240.292, 92.60262
3242.220, 93.85410
3244.149, 95.51765
3246.077, 96.61269
3248.006, 98.15253
3249.934, 101.2597
3251.863, 103.5749
3253.791, 104.0537
3255.720, 105.0763
3257.648, 106.8267
3259.577, 107.7785
3261.505, 108.1229
3263.434, 110.4244
3265.362, 111.2911
3267.291, 114.1312
3269.219, 114.2548
3271.147, 115.8250
3273.076, 117.4334
3275.004, 118.1624
3276.933, 119.1701
3278.861, 120.8325
3280.790, 122.9251
3282.718, 125.5472
3284.647, 127.0614
3286.575, 127.5322
3288.504, 127.6794
3290.432, 127.8391
3292.361, 128.6922
3294.289, 130.0923
3296.218, 132.4967
3298.146, 134.3551
3300.074, 134.5679
3302.003, 134.2780
3303.931, 133.4059
3305.860, 133.7686
3307.788, 135.9113
3309.717, 136.2273
3311.645, 135.1804
3313.574, 135.0035
3315.502, 134.9156
3317.431, 133.0775
3319.359, 131.4071
3321.288, 131.5647
3323.216, 131.9833
3325.145, 132.1497
3327.073, 132.0421
3329.001, 131.6425
3330.930, 130.9604
3332.858, 130.0131
3334.787, 129.0366
3336.715, 128.3173
3338.644, 129.1413
3340.572, 130.1441
3342.501, 129.5608
3344.429, 129.1903
3346.358, 130.2069
3348.286, 130.9256
3350.215, 130.8211
3352.143, 130.7003
3354.072, 130.6111
3356.000, 130.7761
3357.928, 131.1868
3359.857, 131.7764
3361.785, 132.5388
3363.714, 133.6905
3365.642, 134.6794
3367.571, 134.6596
3369.499, 135.4514
3371.428, 137.6225
3373.356, 140.1858
3375.285, 143.0070
3377.213, 144.2122
3379.142, 144.1636
3381.070, 144.1834
3382.999, 144.2387
3384.927, 143.8068
3386.855, 144.1788
3388.784, 146.5081
3390.712, 149.2228
3392.641, 152.2695
3394.569, 154.2961
3396.498, 155.1915
3398.426, 156.1494
3400.355, 157.1044
3402.283, 157.5858
3404.212, 158.2896
3406.140, 160.7648
3408.069, 162.6521
3409.997, 161.9900
3411.926, 162.2325
3413.854, 164.1606
3415.782, 165.7874
3417.711, 167.0002
3419.639, 167.8322
3421.568, 168.5320
3423.496, 169.6104
3425.425, 170.9265
3427.353, 172.0617
3429.282, 174.0585
3431.210, 175.9591
3433.139, 177.7899
3435.067, 180.3565
3436.996, 181.5140
3438.924, 183.3740
3440.853, 184.3654
3442.781, 184.7132
3444.709, 183.6478
3446.638, 183.8658
3448.566, 187.3216
3450.495, 190.8753
3452.423, 194.3546
3454.352, 194.8977
3456.280, 192.8595
3458.209, 192.0119
3460.137, 192.3111
3462.066, 194.4445
3463.994, 196.3611
3465.923, 196.1019
3467.851, 196.1994
3469.780, 198.1035
3471.708, 199.2487
3473.636, 199.5732
3475.565, 200.4577
3477.493, 201.7034
3479.422, 203.2221
3481.350, 203.9598
3483.279, 201.5226
3485.207, 200.8052
3487.136, 204.9093
3489.064, 207.7867
3490.993, 208.7527
3492.921, 208.0505
3494.850, 206.5948
3496.778, 208.3919
3498.707, 210.7242
3500.635, 209.6899
3502.563, 209.8677
3504.492, 213.7286
3506.420, 216.5995
3508.349, 217.4649
3510.277, 217.5276
3512.206, 217.2034
3514.134, 217.8418
3516.063, 219.5133
3517.991, 223.5757
3519.920, 226.4805
3521.848, 226.2658
3523.777, 226.6062
3525.705, 228.3951
3527.634, 227.9769
3529.562, 226.5006
3531.490, 228.5897
3533.419, 230.8802
3535.347, 228.9647
3537.276, 226.9515
3539.204, 227.1978
3541.133, 226.1533
3543.061, 223.5944
3544.990, 219.7930
3546.918, 215.5534
3548.847, 213.4071
3550.775, 211.5222
3552.704, 208.1044
3554.632, 204.7954
3556.561, 201.9958
3558.489, 200.3615
3560.417, 199.7686
3562.346, 197.8842
3564.274, 195.2959
3566.203, 192.5544
3568.131, 191.0632
3570.060, 191.8884
3571.988, 194.6234
3573.917, 194.4830
3575.845, 200.5461
3577.774, 198.1893
3579.702, 201.3096
3581.631, 206.0511
3583.559, 207.4655
3585.488, 207.9984
3587.416, 209.0869
3589.344, 208.9779
3591.273, 207.3820
3593.201, 203.8407
3595.130, 198.7343
3597.058, 193.2105
3598.987, 186.6967
3600.915, 178.0714
3602.844, 169.4213
3604.772, 161.3455
3606.701, 152.7513
3608.629, 143.5754
3610.558, 133.8811
3612.486, 124.1038
3614.415, 114.3398
3616.343, 105.7805
3618.271, 99.31022
3620.200, 92.92738
3622.128, 86.23461
3624.057, 80.19533
3625.985, 75.09605
3627.914, 72.08002
3629.842, 69.51128
3631.771, 65.75685
3633.699, 62.68540
3635.628, 60.98137
3637.556, 58.01658
3639.485, 54.24872
3641.413, 54.15949
3643.342, 54.95064
3645.270, 53.54918
3647.198, 51.49197
3649.127, 48.88574
3651.055, 47.99422
3652.984, 48.92651
3654.912, 49.65698
3656.841, 50.07150
3658.769, 50.31342
3660.698, 49.50200
3662.626, 46.73209
3664.555, 45.16699
3666.483, 45.51374
3668.412, 45.37643
3670.340, 44.91164
3672.269, 44.42689
3674.197, 43.90224
3676.125, 43.60001
3678.054, 43.25130
3679.982, 43.01709
3681.911, 42.91080
3683.839, 42.67452
3685.768, 42.87939
3687.696, 43.00187
3689.625, 42.59090
3691.553, 41.96168
3693.482, 41.11491
3695.410, 40.23914
3697.339, 39.49396
3699.267, 39.71419
3701.196, 39.99383
3703.124, 39.31842
3705.052, 38.63326
3706.981, 38.06526
3708.909, 38.36990
3710.838, 39.24129
3712.766, 39.10131
3714.695, 38.76054
3716.623, 39.35524
3718.552, 39.35380
3720.480, 38.11055
3722.409, 37.46824
3724.337, 37.42671
3726.266, 37.76965
3728.194, 38.13552
3730.123, 38.24439
3732.051, 38.04069
3733.979, 37.45563
3735.908, 36.69927
3737.836, 35.95311
3739.765, 36.23479
3741.693, 36.77509
3743.622, 37.01936
3745.550, 36.88667
3747.479, 36.27060
3749.407, 35.99664
3751.336, 35.96748
3753.264, 35.56855
3755.193, 35.22390
3757.121, 35.33858
3759.050, 35.65852
3760.978, 36.21914
3762.906, 35.41708
3764.835, 34.02019
3766.763, 34.54905
3768.692, 35.59415
3770.620, 36.42062
3772.549, 36.83863
3774.477, 36.79211
3776.406, 36.44540
3778.334, 35.98298
3780.263, 35.66070
3782.191, 35.64770
3784.120, 36.43019
3786.048, 36.03460
3787.977, 34.41290
3789.905, 36.29152
3791.833, 34.89704
3793.762, 36.14826
3795.690, 34.21984
3797.619, 35.38103
3799.547, 35.78268
3801.476, 35.30744
3803.404, 35.27242
3805.333, 35.24278
3807.261, 34.28976
3809.190, 34.51220
3811.118, 34.26945
3813.047, 36.31941
3814.975, 34.49802
3816.904, 35.04305
3818.832, 35.80474
3820.760, 35.02183
3822.689, 34.80195
3824.617, 35.35210
3826.546, 35.45520
3828.474, 35.30033
3830.403, 35.02178
3832.331, 35.04272
3834.260, 35.88167
3836.188, 35.93500
3838.117, 35.29264
3840.045, 34.38219
3841.974, 34.03677
3843.902, 35.55451
3845.831, 36.63224
3847.759, 36.62695
3849.688, 36.03974
3851.616, 35.27602
3853.544, 35.03854
3855.473, 35.40130
3857.401, 36.66419
3859.330, 36.90819
3861.258, 36.03541
3863.187, 35.59646
3865.115, 35.53813
3867.044, 36.08504
3868.972, 36.31777
3870.901, 35.97661
3872.829, 35.95771
3874.758, 36.28253
3876.686, 37.33661
3878.615, 37.90329
3880.543, 37.97890
3882.471, 36.49272
3884.400, 37.80524
3886.328, 37.66050
3888.257, 37.12621
3890.185, 37.76768
3892.114, 37.32866
3894.042, 35.25529
3895.971, 34.80560
3897.899, 35.71436
3899.828, 38.11391
3901.756, 39.57201
3903.685, 38.13871
3905.613, 37.59287
3907.542, 37.91961
3909.470, 38.10898
3911.398, 38.07091
3913.327, 37.66024
3915.255, 37.23487
3917.184, 36.92730
3919.112, 36.99496
3921.041, 37.17876
3922.969, 37.92767
3924.898, 38.36855
3926.826, 38.12838
3928.755, 37.62242
3930.683, 37.12930
3932.612, 37.48376
3934.540, 37.56080
3936.469, 36.71792
3938.397, 36.55210
3940.325, 36.99733
3942.254, 37.44935
3944.182, 37.62310
3946.111, 37.56421
3948.039, 37.50441
3949.968, 37.09533
3951.896, 37.09904
3953.825, 36.84026
3955.753, 36.91887
3957.682, 36.82210
3959.610, 37.25349
3961.539, 36.96693
3963.467, 38.22925
3965.396, 38.65837
3967.324, 38.98523
3969.252, 39.55531
3971.181, 38.71630
3973.109, 38.81271
3975.038, 38.61956
3976.966, 37.97918
3978.895, 37.95969
3980.823, 37.52019
3982.752, 36.76609
3984.680, 37.07159
3986.609, 37.78138
3988.537, 38.60611
3990.466, 38.34101
3992.394, 38.68901
3994.323, 38.49100
3996.251, 38.37172
3998.179, 37.87834
4000.108, 37.33617
4002.036, 37.09544
4003.965, 37.11247
4005.893, 37.33433
4007.822, 37.85686
4009.750, 38.40593
4011.679, 38.99400
4013.607, 38.78600
4015.536, 39.34822
4017.464, 38.95035
4019.393, 39.68596
4021.321, 39.54212
4023.250, 39.21072
4025.178, 38.98254
4027.106, 38.85765
4029.035, 38.64485
4030.963, 38.50019
4032.892, 38.46716
4034.820, 38.33299
4036.749, 38.15725
4038.677, 38.22115
4040.606, 37.98590
4042.534, 37.97110
4044.463, 38.44611
4046.391, 37.19050
4048.320, 36.21754
4050.248, 36.68154
4052.177, 36.79660
4054.105, 37.49179
4056.033, 38.00232
4057.962, 38.03101
4059.890, 38.72532
4061.819, 38.38097
4063.747, 37.95959
4065.676, 38.54540
4067.604, 39.34698
4069.533, 38.47131
4071.461, 38.57014
4073.390, 39.83370
4075.318, 39.58264
4077.247, 38.25267
4079.175, 37.09967
4081.104, 36.83037
4083.032, 36.86462
4084.960, 38.66672
4086.889, 38.07010
4088.817, 38.99669
4090.746, 39.76746
4092.674, 39.75342
4094.603, 39.42592
4096.531, 38.48564
4098.460, 37.82623
4100.388, 37.28109
4102.317, 37.34692
4104.245, 37.08015
4106.174, 36.39565
4108.102, 37.06799
4110.031, 38.31042
4111.959, 39.50134
4113.888, 39.50494
4115.816, 39.73370
4117.745, 39.87075
4119.673, 38.95113
4121.602, 39.22152
4123.530, 38.70385
4125.458, 37.63743
4127.387, 38.68244
4129.315, 39.89928
4131.244, 39.15059
4133.172, 38.85126
4135.101, 39.06075
4137.029, 38.61691
4138.958, 38.79835
4140.886, 38.85748
4142.814, 38.39554
4144.743, 37.92480
4146.671, 37.60362
4148.600, 38.27555
4150.528, 38.82802
4152.457, 38.82489
4154.385, 39.46885
4156.314, 39.82091
4158.242, 39.80947
4160.171, 40.49543
4162.099, 40.10125
4164.028, 39.56213
4165.956, 37.10418
4167.885, 38.17719
4169.813, 38.17025
4171.742, 38.27337
4173.670, 39.37791
4175.599, 40.16140
4177.527, 40.55213
4179.456, 40.53906
4181.384, 40.34830
4183.313, 40.36003
4185.241, 39.97696
4187.169, 39.34319
4189.098, 40.39591
4191.026, 40.88387
4192.955, 39.26626
4194.883, 39.85891
4196.812, 41.45610
4198.740, 40.00341
4200.668, 40.05100
4202.597, 42.90356
4204.525, 44.00550
4206.454, 43.46048
4208.382, 41.21192
4210.311, 40.14154
4212.239, 40.78040
4214.168, 40.65676
4216.096, 40.39040
4218.025, 40.85236
4219.953, 40.71869
4221.882, 40.08632
4223.810, 40.93930
4225.739, 41.71990
4227.667, 41.27822
4229.596, 41.58294
4231.524, 42.42262
4233.453, 42.09732
4235.381, 41.96035
4237.310, 43.05636
4239.238, 43.18061
4241.167, 42.38008
4243.095, 40.30435
4245.023, 39.64560
4246.952, 42.15948
4248.880, 44.24209
4250.809, 45.28668
4252.737, 43.55551
4254.666, 41.95194
4256.594, 41.25155
4258.522, 41.76859
4260.451, 42.49283
4262.379, 41.99802
4264.308, 41.72904
4266.236, 41.79763
4268.165, 41.75421
4270.093, 41.94497
4272.022, 41.58700
4273.950, 42.79329
4275.879, 41.64408
4277.807, 42.57684
4279.736, 43.50094
4281.664, 43.18212
4283.593, 42.91551
4285.521, 42.67764
4287.450, 42.24719
4289.378, 41.98959
4291.307, 42.00750
4293.235, 42.63468
4295.164, 43.41452
4297.092, 43.90654
4299.021, 43.94506
4300.949, 43.52023
4302.877, 42.61394
4304.806, 42.13134
4306.734, 43.30700
4308.663, 42.26160
4310.591, 42.33349
4312.520, 41.05172
4314.448, 42.03032
4316.376, 41.62855
4318.305, 42.26534
4320.233, 43.11900
4322.162, 42.90816
4324.090, 42.46895
4326.019, 41.98464
4327.947, 42.15419
4329.876, 42.22202
4331.804, 41.52199
4333.733, 41.35725
4335.661, 41.61071
4337.590, 41.45787
4339.518, 41.63808
4341.447, 42.43852
4343.375, 42.32056
4345.304, 42.18891
4347.232, 43.49379
4349.161, 44.49072
4351.089, 44.87545
4353.018, 44.43660
4354.946, 43.73688
4356.875, 43.05382
4358.803, 42.96780
4360.731, 42.92710
4362.660, 42.91085
4364.588, 43.02831
4366.517, 43.11040
4368.445, 43.46627
4370.374, 43.11338
4372.302, 43.53442
4374.230, 44.10572
4376.159, 44.52869
4378.087, 43.97864
4380.016, 43.21937
4381.944, 42.45085
4383.873, 43.12622
4385.801, 44.17388
4387.730, 44.04277
4389.658, 43.77631
4391.587, 43.55319
4393.515, 43.33455
4395.444, 43.46595
4397.372, 44.28745
4399.301, 44.87382
4401.229, 45.20720
4403.158, 45.14888
4405.086, 45.55207
4407.015, 46.44441
4408.943, 44.32933
4410.872, 42.55724
4412.800, 43.34027
4414.729, 43.91121
4416.657, 44.01149
4418.585, 43.24810
4420.514, 43.15266
4422.442, 43.91459
4424.371, 44.03284
4426.299, 44.42749
4428.228, 44.13332
4430.156, 44.14308
4432.084, 43.58837
4434.013, 43.90995
4435.941, 44.50057
4437.870, 44.81546
4439.798, 44.64691
4441.727, 44.61267
4443.655, 45.24974
4445.584, 46.08295
4447.512, 46.80079
4449.441, 46.69103
4451.369, 46.54333
4453.298, 46.52083
4455.226, 46.16577
4457.155, 45.77370
4459.083, 45.51673
4461.012, 45.32780
4462.940, 45.31800
4464.869, 44.89211
4466.797, 45.76906
4468.726, 44.35118
4470.654, 44.41290
4472.583, 44.59157
4474.511, 43.63247
4476.439, 44.63451
4478.368, 46.26953
4480.296, 46.81451
4482.225, 46.06152
4484.153, 44.36592
4486.082, 43.78486
4488.010, 43.12373
4489.938, 41.89705
4491.867, 43.89012
4493.795, 46.25793
4495.724, 45.99485
4497.652, 45.46470
4499.581, 45.26280
4501.509, 45.48069
4503.438, 47.04876
4505.366, 46.16584
4507.295, 46.69221
4509.223, 47.03957
4511.152, 45.74578
4513.080, 45.13918
4515.009, 45.00722
4516.937, 44.98886
4518.866, 44.51271
4520.794, 43.89726
4522.723, 46.18388
4524.651, 47.35314
4526.580, 45.97969
4528.508, 46.28136
4530.437, 47.01437
4532.365, 46.66468
4534.293, 46.80058
4536.222, 47.12954
4538.150, 46.48597
4540.079, 46.27229
4542.007, 46.72028
4543.936, 47.06878
4545.864, 46.93788
4547.792, 46.10160
4549.721, 46.86577
4551.649, 47.73642
4553.578, 46.90750
4555.506, 45.83363
4557.435, 45.04544
4559.363, 45.56737
4561.292, 46.21658
4563.220, 46.62809
4565.149, 45.68802
4567.077, 44.83240
4569.006, 44.77913
4570.934, 44.59652
4572.863, 45.25446
4574.791, 45.27422
4576.720, 45.99768
4578.648, 46.12481
4580.577, 47.26900
4582.505, 48.24399
4584.434, 48.29628
4586.362, 47.74313
4588.291, 46.98921
4590.219, 46.17142
4592.147, 46.41442
4594.076, 46.79285
4596.004, 46.52724
4597.933, 46.21653
4599.861, 46.19779
4601.790, 46.27108
4603.718, 47.38464
4605.646, 46.90921
4607.575, 48.07322
4609.503, 48.91831
4611.432, 48.84594
4613.360, 49.04455
4615.289, 49.21551
4617.217, 48.33506
4619.146, 48.91306
4621.074, 48.52464
4623.003, 47.70941
4624.931, 45.90719
4626.860, 44.25301
4628.788, 45.54929
4630.717, 47.08591
4632.645, 48.24734
4634.574, 48.21444
4636.502, 48.47685
4638.431, 49.31371
4640.359, 48.30878
4642.288, 47.33899
4644.216, 47.74824
4646.145, 48.54937
4648.073, 49.27794
4650.001, 49.52655
4651.930, 49.06026
4653.858, 48.21877
4655.787, 47.14276
4657.715, 47.56058
4659.644, 48.95726
4661.572, 49.29544
4663.500, 47.88865
4665.429, 45.11956
4667.357, 49.36868
4669.286, 51.81657
4671.214, 49.18867
4673.143, 49.19288
4675.071, 49.62642
4677.000, 48.26985
4678.928, 49.63182
4680.857, 50.94757
4682.785, 48.03639
4684.714, 48.67422
4686.642, 51.17626
4688.571, 51.80252
4690.499, 50.72210
4692.428, 48.76667
4694.356, 47.76592
4696.285, 48.12402
4698.213, 49.58808
4700.142, 49.27964
4702.070, 49.52319
4703.999, 50.86545
4705.927, 49.49773
4707.855, 48.74194
4709.784, 50.98285
4711.712, 49.78354
4713.641, 48.19187
4715.569, 49.00098
4717.498, 48.06164
4719.426, 47.05709
4721.354, 48.54162
4723.283, 48.92637
4725.211, 48.63309
4727.140, 49.34203
4729.068, 48.58099
4730.997, 47.24063
4732.925, 48.95220
4734.854, 50.53161
4736.782, 51.16282
4738.711, 49.69574
4740.639, 49.47773
4742.568, 51.11412
4744.496, 49.65631
4746.425, 49.72907
4748.353, 52.45756
4750.282, 49.49990
4752.210, 47.07008
4754.139, 48.93237
4756.067, 48.90312
4757.996, 48.67402
4759.924, 49.47454
4761.853, 50.63612
4763.781, 51.31530
4765.709, 50.66000
4767.638, 50.45578
4769.566, 50.54998
4771.495, 50.76241
4773.423, 50.01513
4775.352, 49.37422
4777.280, 50.68238
4779.208, 52.51959
4781.137, 53.88009
4783.065, 52.95530
4784.994, 51.52999
4786.922, 50.46477
4788.851, 52.31105
4790.779, 51.09050
4792.708, 47.91711
4794.636, 50.23491
4796.565, 50.60247
4798.493, 48.64897
4800.422, 52.16838
4802.350, 54.23698
4804.279, 53.64289
4806.207, 53.12177
4808.136, 52.52024
4810.064, 51.77811
4811.993, 52.07529
4813.921, 50.60322
4815.850, 52.51570
4817.778, 52.82916
4819.707, 52.56852
4821.635, 52.23301
4823.563, 52.15888
4825.492, 51.97609
4827.420, 51.52559
4829.349, 50.70757
4831.277, 50.43172
4833.206, 51.34423
4835.134, 51.96875
4837.063, 52.10456
4838.991, 51.65860
4840.919, 51.54993
4842.848, 51.88869
4844.776, 52.78745
4846.705, 52.76260
4848.633, 54.72018
4850.562, 53.22174
4852.490, 53.23006
4854.419, 53.19656
4856.347, 51.01302
4858.276, 52.49422
4860.204, 54.16851
4862.133, 53.43506
4864.061, 53.56786
4865.990, 53.98375
4867.918, 54.16876
4869.847, 53.29107
4871.775, 52.23163
4873.704, 51.64765
4875.632, 51.44721
4877.561, 52.16833
4879.489, 52.35564
4881.417, 54.10440
4883.346, 53.18525
4885.274, 55.05252
4887.203, 54.32142
4889.131, 53.59663
4891.060, 55.67687
4892.988, 54.58200
4894.917, 53.57848
4896.845, 55.14893
4898.773, 55.22478
4900.702, 55.00964
4902.630, 55.60872
4904.559, 54.77053
4906.487, 54.41984
4908.416, 55.93817
4910.344, 54.36342
4912.273, 52.57071
4914.201, 52.42992
4916.130, 54.31175
4918.058, 55.75254
4919.987, 55.29917
4921.915, 55.06579
4923.844, 54.27040
4925.772, 52.72279
4927.701, 54.09175
4929.629, 55.07358
4931.558, 54.07904
4933.486, 54.08649
4935.415, 54.44853
4937.343, 54.93567
4939.271, 56.24667
4941.200, 55.95624
4943.128, 53.64372
4945.057, 53.30482
4946.985, 54.84295
4948.914, 57.14822
4950.842, 54.96826
4952.771, 53.62634
4954.699, 53.91099
4956.627, 52.84295
4958.556, 53.95251
4960.484, 56.45445
4962.413, 55.36164
4964.341, 55.85621
4966.270, 57.53054
4968.198, 57.88182
4970.127, 56.66842
4972.055, 55.31511
4973.984, 56.56250
4975.912, 56.12801
4977.841, 55.11939
4979.769, 55.80542
4981.698, 54.97219
4983.626, 54.92381
4985.555, 54.60804
4987.483, 54.42577
4989.412, 55.08741
4991.340, 54.43313
4993.269, 56.29451
4995.197, 57.76497
4997.125, 56.83443
4999.054, 55.96075
5000.982, 56.28105
5002.911, 57.94404
5004.839, 57.86873
5006.768, 57.96037
5008.696, 58.58911
5010.625, 56.13923
5012.553, 55.77337
5014.481, 57.49923
5016.410, 56.10281
5018.338, 56.61054
5020.267, 58.65384
5022.195, 60.01276
5024.124, 57.96571
5026.052, 55.38933
5027.981, 57.35905
5029.909, 58.10312
5031.838, 58.11561
5033.766, 58.91794
5035.695, 57.03337
5037.623, 55.68692
5039.552, 57.16546
5041.480, 58.76826
5043.409, 59.01690
5045.337, 57.56901
5047.266, 58.34011
5049.194, 58.79889
5051.123, 58.22829
5053.051, 58.28263
5054.979, 57.25537
5056.908, 57.20550
5058.836, 55.84711
5060.765, 56.63464
5062.693, 57.39201
5064.622, 57.06163
5066.550, 58.16178
5068.479, 59.54013
5070.407, 59.81673
5072.335, 59.66128
5074.264, 59.27567
5076.192, 58.85659
5078.121, 54.81162
5080.049, 53.28439
5081.978, 56.21689
5083.906, 58.43014
5085.835, 59.34898
5087.763, 59.23203
5089.692, 58.96631
5091.620, 59.62996
5093.549, 60.40955
5095.477, 59.17805
5097.406, 61.20652
5099.334, 62.16389
5101.263, 61.10572
5103.191, 58.14341
5105.120, 60.10404
5107.048, 58.48628
5108.977, 59.01648
5110.905, 60.61121
5112.833, 62.29219
5114.762, 61.09743
5116.690, 60.63414
5118.619, 61.04347
5120.547, 60.84473
5122.476, 61.09799
5124.404, 60.90769
5126.333, 58.91768
5128.261, 59.58228
5130.189, 60.14899
5132.118, 58.73292
5134.046, 62.06436
5135.975, 62.38706
5137.903, 58.24109
5139.832, 59.72218
5141.760, 60.87616
5143.689, 60.72966
5145.617, 61.81534
5147.546, 60.55704
5149.474, 62.21423
5151.403, 62.55725
5153.331, 61.51398
5155.260, 60.71782
5157.188, 61.02029
5159.117, 61.96247
5161.045, 62.38813
5162.974, 62.45400
5164.902, 64.54755
5166.831, 64.88009
5168.759, 63.54948
5170.688, 61.30889
5172.616, 61.81763
5174.544, 62.50194
5176.473, 61.29985
5178.401, 61.25880
5180.330, 61.28699
5182.258, 61.02590
5184.187, 61.24754
5186.115, 61.92677
5188.043, 62.40664
5189.972, 61.21867
5191.900, 62.61937
5193.829, 64.03754
5195.757, 62.65345
5197.686, 63.20772
5199.614, 64.16294
5201.543, 64.55104
5203.471, 61.86045
5205.400, 62.87513
5207.328, 65.31621
5209.257, 61.38212
5211.185, 60.97461
5213.114, 62.82488
5215.042, 65.71242
5216.971, 64.42140
5218.899, 62.87571
5220.828, 62.37386
5222.756, 61.66816
5224.685, 60.68932
5226.613, 60.45560
5228.542, 63.28821
5230.470, 64.36480
5232.398, 64.39487
5234.327, 64.09877
5236.255, 64.36826
5238.184, 64.21136
5240.112, 63.40107
5242.041, 61.73216
5243.969, 61.81534
5245.897, 63.34084
5247.826, 66.37741
5249.754, 63.21194
5251.683, 61.71423
5253.611, 64.78028
5255.540, 63.87317
5257.468, 63.50446
5259.397, 64.11720
5261.325, 64.40920
5263.254, 64.83350
5265.182, 65.22244
5267.111, 65.42663
5269.039, 65.28905
5270.968, 66.24008
5272.896, 65.70695
5274.825, 66.83208
5276.753, 65.56372
5278.682, 64.90381
5280.610, 65.75482
5282.539, 66.73338
5284.467, 66.70107
5286.396, 65.59838
5288.324, 65.93124
5290.252, 64.22297
5292.181, 62.56517
5294.109, 65.39659
5296.038, 64.63816
5297.966, 64.18540
5299.895, 66.02884
5301.823, 65.98457
5303.751, 65.33315
5305.680, 65.40031
5307.608, 68.19144
5309.537, 68.80105
5311.465, 68.01960
5313.394, 66.72016
5315.322, 66.52415
5317.251, 66.21043
5319.179, 65.91550
5321.108, 66.15038
5323.036, 66.32979
5324.965, 65.98220
5326.893, 66.97352
5328.822, 64.49904
5330.750, 64.57503
5332.679, 66.71800
5334.607, 65.59262
5336.536, 67.07738
5338.464, 68.32947
5340.393, 67.31915
5342.321, 67.37350
5344.250, 66.56738
5346.178, 65.52886
5348.106, 66.55851
5350.035, 69.07713
5351.963, 70.05050
5353.892, 67.84135
5355.820, 67.62398
5357.749, 67.45082
5359.677, 67.64629
5361.605, 67.34602
5363.534, 67.32609
5365.462, 67.56987
5367.391, 67.45489
5369.319, 68.75788
5371.248, 69.67859
5373.176, 69.59282
5375.105, 67.99303
5377.033, 68.07417
5378.962, 68.17303
5380.890, 67.64526
5382.819, 67.76382
5384.747, 66.14193
5386.676, 65.39256
5388.604, 69.08728
5390.533, 70.13943
5392.461, 69.03088
5394.390, 67.26481
5396.318, 68.39844
5398.247, 70.25621
5400.175, 70.88155
5402.104, 69.33174
5404.032, 68.68949
5405.960, 67.88548
5407.889, 66.99707
5409.817, 66.45638
5411.746, 66.58817
5413.674, 66.22662
5415.603, 67.46896
5417.531, 66.79189
5419.459, 67.48266
5421.388, 68.92089
5423.316, 70.41585
5425.245, 70.39192
5427.173, 70.54726
5429.102, 71.26529
5431.030, 72.34245
5432.959, 70.78902
5434.887, 69.60088
5436.816, 70.35307
5438.744, 67.92787
5440.673, 66.56758
5442.601, 67.38042
5444.530, 70.69971
5446.458, 70.10884
5448.387, 70.76102
5450.315, 72.89580
5452.244, 70.03335
5454.172, 70.91288
5456.101, 71.53940
5458.029, 69.27175
5459.958, 69.97640
5461.886, 71.06023
5463.814, 71.16494
5465.743, 71.57966
5467.671, 70.84119
5469.600, 72.13223
5471.528, 72.43523
5473.457, 73.50923
5475.385, 73.26115
5477.313, 72.11312
5479.242, 70.77750
5481.170, 71.30834
5483.099, 69.84059
5485.027, 69.60851
5486.956, 68.92539
5488.884, 69.22715
5490.813, 70.57478
5492.741, 71.62919
5494.670, 71.60184
5496.598, 70.76844
5498.527, 71.75030
5500.455, 73.72862
##END=



