##NAMES=Germanite
##RRUFFID=R050439
##IDEAL CHEMISTRY=Cu_13_Fe_2_Ge_2_S_16_
##LOCALITY=Tsumeb mine, Tsumeb, Otavi District, Oshikoto, Namibia
##OWNER=RRUFF
##SOURCE=University of Arizona Mineral Museum
##DESCRIPTION=Black with purple hints, massive
##STATUS=The identification of this mineral has been confirmed by X-ray diffraction and chemical analysis
##URL=https://www.rruff.net/odr/rruff_sample/R050439
##MEASURED CHEMISTRY=(Cu_11.61_Fe^2+^_0.87_Zn_0.52_)Fe_2.00_(Ge_1.71_As_0.29_)S_16.00_ ; = dark-gray phase. (Cu_10.59_Zn_0.41_)Fe_4.00_(Ge_1.46_As_0.54_)S_16.00_ = lighter-gray phase. Lightest phase is PbS.
##DIFFRACTION SAMPLE DESCRIPTION=Powder, with minor tennantite (cubic: a=10.24)
##CELL PARAMETERS=a: 10.611 b: 10.611 c: 10.611 alpha: 90 beta: 90 gamma: 90 volume: 1194.7 crystal system: cubic
##FILETYPE=Raman RAW
##RAMAN WAVELENGTH=532

86.91748, 31.45055
88.84595, 33.72325
90.77441, 36.85953
92.70288, 36.85065
94.63135, 30.07202
96.55981, 21.30913
98.48828, 16.75493
100.4167, 18.39621
102.3452, 22.91667
104.2737, 30.04656
106.2021, 41.02262
108.1306, 50.22802
110.0591, 55.78851
111.9875, 59.01535
113.9160, 62.62111
115.8445, 66.68544
117.7729, 70.98727
119.7014, 74.68155
121.6299, 76.78553
123.5583, 82.57748
125.4868, 94.87760
127.4153, 112.4155
129.3438, 127.2355
131.2722, 136.2773
133.2007, 138.0451
135.1292, 136.4148
137.0576, 128.3476
138.9861, 123.0205
140.9146, 122.2490
142.8430, 124.6694
144.7715, 126.1226
146.7000, 125.0000
148.6284, 123.8604
150.5569, 124.5264
152.4854, 128.9518
154.4138, 131.7470
156.3423, 131.0253
158.2708, 127.5871
160.1992, 124.9946
162.1277, 124.1017
164.0562, 123.7569
165.9846, 122.8961
167.9131, 121.5251
169.8416, 119.4690
171.7700, 115.8085
173.6985, 110.2800
175.6270, 108.2914
177.5554, 115.0219
179.4839, 121.7738
181.4124, 121.6736
183.3408, 108.6490
185.2693, 98.36620
187.1978, 96.00101
189.1262, 101.7572
191.0547, 104.4974
192.9832, 100.6172
194.9116, 95.32967
196.8401, 92.93952
198.7686, 97.32271
200.6970, 100.6245
202.6255, 101.2645
204.5540, 100.0071
206.4824, 99.21278
208.4109, 99.31181
210.3394, 99.79079
212.2678, 100.6931
214.1963, 102.6990
216.1248, 103.7312
218.0532, 102.3605
219.9817, 98.73377
221.9102, 96.90729
223.8386, 98.00375
225.7671, 100.0321
227.6956, 101.2926
229.6240, 101.2041
231.5525, 102.2847
233.4810, 105.9542
235.4094, 111.8033
237.3379, 115.9420
239.2664, 117.0801
241.1948, 117.7598
243.1233, 118.9068
245.0518, 120.2440
246.9802, 122.1165
248.9087, 124.8065
250.8372, 129.0108
252.7656, 134.1531
254.6941, 140.7863
256.6226, 147.1371
258.5510, 152.7758
260.4795, 157.4456
262.4080, 161.5324
264.3364, 164.5571
266.2649, 167.8664
268.1934, 172.0635
270.1218, 178.2400
272.0503, 183.9479
273.9788, 188.1795
275.9072, 190.4041
277.8357, 192.2903
279.7642, 194.6711
281.6926, 197.3569
283.6211, 199.3069
285.5496, 199.6175
287.4780, 199.7398
289.4065, 200.1706
291.3350, 201.3086
293.2634, 202.8311
295.1919, 205.3827
297.1204, 206.3218
299.0488, 205.5728
300.9773, 202.9255
302.9058, 201.6977
304.8342, 200.2528
306.7627, 197.6066
308.6912, 194.5180
310.6196, 190.9497
312.5481, 189.3159
314.4766, 189.8834
316.4050, 192.4186
318.3335, 195.5228
320.2620, 199.7811
322.1904, 203.6097
324.1189, 206.3851
326.0474, 208.1459
327.9758, 211.4257
329.9043, 214.3789
331.8328, 215.9472
333.7612, 215.9435
335.6897, 214.8312
337.6182, 215.5287
339.5467, 220.6738
341.4751, 231.5294
343.4036, 243.3350
345.3321, 253.8056
347.2605, 262.1018
349.1890, 266.8860
351.1175, 268.5743
353.0459, 270.1884
354.9744, 270.9252
356.9029, 270.2990
358.8313, 264.6520
360.7598, 251.9179
362.6883, 235.8888
364.6167, 222.9608
366.5452, 215.4002
368.4737, 210.1957
370.4021, 205.9652
372.3306, 201.8033
374.2591, 195.8494
376.1875, 188.1229
378.1160, 181.2578
380.0445, 176.1337
381.9729, 172.8289
383.9014, 166.3260
385.8299, 154.3305
387.7583, 141.0950
389.6868, 132.5004
391.6153, 129.9999
393.5437, 126.1404
395.4722, 120.5106
397.4007, 114.2592
399.3291, 109.9501
401.2576, 107.5604
403.1861, 106.1002
405.1145, 105.0880
407.0430, 105.1367
408.9715, 102.9758
410.8999, 98.25861
412.8284, 93.47578
414.7569, 91.72665
416.6853, 92.48362
418.6138, 93.16464
420.5423, 94.36530
422.4707, 96.35915
424.3992, 96.75159
426.3277, 94.09352
428.2561, 91.56842
430.1846, 90.85723
432.1131, 92.67710
434.0415, 92.00135
435.9700, 89.34325
437.8985, 86.52801
439.8269, 85.40955
441.7554, 85.34631
443.6839, 84.75706
445.6123, 83.64812
447.5408, 82.46297
449.4693, 82.27763
451.3977, 83.74884
453.3262, 84.03247
455.2547, 81.55014
457.1831, 75.87344
459.1116, 73.05486
461.0401, 74.66994
462.9685, 78.21559
464.8970, 79.64468
466.8255, 76.92424
468.7539, 73.51328
470.6824, 72.34088
472.6109, 74.20545
474.5393, 76.55257
476.4678, 77.10721
478.3963, 76.96891
480.3247, 77.00505
482.2532, 77.52962
484.1817, 77.07453
486.1101, 73.75146
488.0386, 70.78567
489.9671, 71.20665
491.8955, 77.47173
493.8240, 81.74706
495.7525, 82.22601
497.6809, 80.60578
499.6094, 79.57267
501.5379, 79.74314
503.4663, 79.70028
505.3948, 79.06152
507.3233, 78.04047
509.2517, 77.40971
511.1802, 76.30266
513.1086, 75.24930
515.0371, 74.85133
516.9656, 76.06493
518.8940, 76.15907
520.8225, 74.20262
522.7510, 72.16615
524.6794, 72.30096
526.6079, 74.64579
528.5364, 77.32092
530.4648, 79.04772
532.3933, 78.96126
534.3218, 76.74476
536.2502, 73.75139
538.1787, 71.71749
540.1072, 71.43410
542.0356, 72.66445
543.9641, 74.76491
545.8926, 75.61588
547.8210, 75.54304
549.7495, 74.83298
551.6780, 74.28094
553.6064, 73.58023
555.5349, 73.56452
557.4634, 74.19100
559.3918, 75.21056
561.3203, 75.35146
563.2488, 75.32365
565.1772, 75.50204
567.1057, 75.93565
569.0342, 76.61957
570.9626, 76.16302
572.8911, 75.13206
574.8196, 74.82314
576.7480, 76.63494
578.6765, 77.83882
580.6050, 73.27457
582.5335, 69.56298
584.4620, 69.40825
586.3904, 72.96203
588.3189, 76.12088
590.2474, 78.78271
592.1758, 80.28098
594.1043, 80.12521
596.0328, 77.53720
597.9612, 75.75243
599.8897, 74.85919
601.8182, 75.28023
603.7466, 77.99427
605.6751, 81.46729
607.6036, 83.20801
609.5320, 83.38844
611.4605, 83.92113
613.3890, 84.91693
615.3174, 84.50136
617.2459, 84.15163
619.1744, 83.93584
621.1028, 84.02743
623.0313, 84.85110
624.9598, 87.27612
626.8882, 89.12475
628.8167, 89.77699
630.7452, 90.14220
632.6736, 90.97399
634.6021, 91.23433
636.5306, 91.18198
638.4590, 91.19677
640.3875, 92.79300
642.3160, 93.28879
644.2444, 91.77387
646.1729, 90.27557
648.1014, 89.73299
650.0298, 88.69289
651.9583, 87.96647
653.8868, 87.90030
655.8152, 88.58990
657.7437, 89.47662
659.6722, 91.14510
661.6006, 92.19190
663.5291, 91.92360
665.4576, 91.22188
667.3860, 91.26838
669.3145, 91.99684
671.2430, 91.85694
673.1714, 89.30478
675.0999, 87.14442
677.0284, 86.36429
678.9568, 84.58277
680.8853, 84.50244
682.8138, 88.42495
684.7422, 93.37637
686.6707, 95.43738
688.5992, 93.48525
690.5276, 91.46545
692.4561, 89.84851
694.3846, 89.26938
696.3130, 89.62595
698.2415, 91.85506
700.1700, 93.52732
702.0984, 94.06540
704.0269, 93.27408
705.9554, 92.17587
707.8839, 90.62978
709.8123, 89.67204
711.7408, 89.59467
713.6693, 89.95715
715.5977, 89.98650
717.5262, 90.33578
719.4547, 90.23166
721.3831, 88.38325
723.3116, 85.64412
725.2401, 84.96861
727.1685, 88.96483
729.0970, 91.49891
731.0255, 90.73537
732.9539, 88.54771
734.8824, 87.17007
736.8109, 86.78662
738.7393, 86.65144
740.6678, 86.23688
742.5963, 85.83147
744.5247, 86.62057
746.4532, 91.35030
748.3817, 94.16861
750.3101, 92.72867
752.2386, 88.39890
754.1671, 86.00699
756.0955, 86.43385
758.0240, 87.60894
759.9525, 89.30971
761.8809, 90.83880
763.8094, 91.23020
765.7379, 89.34525
767.6663, 87.58202
769.5948, 85.35458
771.5233, 83.39475
773.4517, 84.60458
775.3802, 92.08061
777.3087, 97.53621
779.2371, 96.42307
781.1656, 89.94257
783.0941, 86.55999
785.0225, 88.43724
786.9510, 90.90873
788.8795, 93.17126
790.8079, 94.97277
792.7364, 96.07698
794.6649, 96.34665
796.5933, 95.82682
798.5218, 94.39166
800.4503, 92.58404
802.3787, 90.94609
804.3072, 88.79007
806.2357, 87.47610
808.1641, 87.87135
810.0926, 89.66515
812.0211, 91.06500
813.9495, 91.70390
815.8780, 91.99702
817.8065, 92.37698
819.7349, 93.06431
821.6634, 93.23264
823.5919, 92.16961
825.5203, 91.08122
827.4488, 90.39211
829.3773, 91.20594
831.3057, 92.11475
833.2342, 92.56838
835.1627, 92.39868
837.0911, 91.47289
839.0196, 91.00799
840.9481, 91.96095
842.8765, 96.83871
844.8050, 99.50516
846.7335, 97.82082
848.6619, 94.46962
850.5904, 92.56602
852.5189, 92.34151
854.4473, 93.15235
856.3758, 96.77202
858.3043, 99.94129
860.2327, 99.42687
862.1612, 90.77743
864.0897, 86.26293
866.0181, 91.33231
867.9466, 100.5679
869.8751, 103.1929
871.8035, 98.42022
873.7320, 94.48637
875.6605, 94.34646
877.5889, 94.10024
879.5174, 93.01193
881.4459, 91.71704
883.3743, 91.62965
885.3028, 92.12470
887.2313, 91.74028
889.1597, 92.87103
891.0882, 98.66612
893.0167, 102.9657
894.9451, 102.6517
896.8736, 98.73473
898.8021, 96.52009
900.7305, 99.04322
902.6590, 102.0321
904.5875, 104.3342
906.5159, 102.1680
908.4444, 98.17242
910.3729, 95.39854
912.3013, 94.18245
914.2298, 94.95414
916.1583, 95.74366
918.0867, 94.47638
920.0152, 91.92902
921.9437, 92.08968
923.8721, 98.84237
925.8006, 104.2451
927.7291, 105.3084
929.6575, 103.6574
931.5860, 102.2244
933.5145, 101.5113
935.4429, 100.3301
937.3714, 96.53092
939.2999, 91.88530
941.2283, 91.00940
943.1568, 95.02695
945.0853, 99.24955
947.0137, 103.4616
948.9422, 107.9279
950.8707, 109.1692
952.7991, 105.0154
954.7276, 100.7029
956.6561, 98.58115
958.5845, 98.91151
960.5130, 98.30957
962.4415, 96.44551
964.3699, 95.91729
966.2984, 98.81696
968.2269, 101.8769
970.1553, 103.9896
972.0838, 105.8723
974.0123, 106.8320
975.9407, 106.1526
977.8692, 104.9147
979.7977, 104.9075
981.7261, 106.4896
983.6546, 108.3950
985.5831, 111.2524
987.5115, 113.5863
989.4400, 113.3365
991.3685, 109.0333
993.2969, 104.7967
995.2254, 103.3344
997.1539, 104.5130
999.0823, 106.9954
1001.011, 108.2228
1002.939, 107.6571
1004.868, 106.8347
1006.796, 106.5986
1008.725, 106.8588
1010.653, 105.7354
1012.582, 103.2656
1014.510, 100.1194
1016.439, 99.18811
1018.367, 102.0270
1020.295, 105.5747
1022.224, 107.1378
1024.152, 109.6675
1026.081, 111.4433
1028.009, 109.7299
1029.938, 105.3935
1031.866, 104.0620
1033.795, 108.1577
1035.723, 110.1766
1037.652, 107.7296
1039.580, 103.4047
1041.509, 100.5204
1043.437, 102.4057
1045.365, 106.8690
1047.294, 112.1464
1049.222, 115.7529
1051.151, 116.5199
1053.079, 114.4563
1055.008, 112.5424
1056.936, 112.4015
1058.865, 113.4880
1060.793, 114.8747
1062.722, 115.2030
1064.650, 114.0960
1066.579, 113.2899
1068.507, 111.8049
1070.436, 110.4026
1072.364, 110.6934
1074.292, 112.9820
1076.221, 114.6291
1078.150, 113.7458
1080.078, 110.5879
1082.006, 108.2390
1083.935, 108.8544
1085.863, 113.4478
1087.792, 118.2242
1089.720, 120.1526
1091.649, 118.8469
1093.577, 116.2386
1095.506, 114.5287
1097.434, 113.8948
1099.363, 113.7331
1101.291, 115.2161
1103.220, 116.4156
1105.148, 116.0677
1107.077, 115.2327
1109.005, 117.4034
1110.933, 122.1188
1112.862, 124.8808
1114.790, 124.1011
1116.719, 120.3437
1118.647, 114.6375
1120.576, 111.7765
1122.504, 112.1498
1124.433, 112.3302
1126.361, 111.9365
1128.290, 111.6620
1130.218, 111.7673
1132.147, 111.4571
1134.075, 112.4013
1136.004, 114.9634
1137.932, 116.0713
1139.860, 114.4278
1141.789, 111.1133
1143.717, 112.3276
1145.646, 116.0653
1147.574, 117.2652
1149.503, 116.2087
1151.431, 114.9361
1153.360, 116.1149
1155.288, 116.7284
1157.217, 117.3167
1159.145, 120.8702
1161.074, 124.9868
1163.002, 125.1868
1164.931, 120.4268
1166.859, 115.9540
1168.787, 115.9163
1170.716, 118.5857
1172.644, 120.3647
1174.573, 120.6150
1176.501, 121.0443
1178.430, 120.6259
1180.358, 121.3537
1182.287, 124.4240
1184.215, 127.4154
1186.144, 128.3134
1188.072, 127.6560
1190.001, 127.7709
1191.929, 129.3062
1193.858, 131.2869
1195.786, 131.0478
1197.714, 129.2221
1199.643, 129.4228
1201.571, 132.6512
1203.500, 134.2046
1205.428, 132.5989
1207.357, 128.1058
1209.285, 125.4866
1211.214, 127.1596
1213.142, 130.0672
1215.071, 132.0484
1216.999, 133.0230
1218.928, 132.0569
1220.856, 129.1921
1222.785, 128.7763
1224.713, 133.4596
1226.641, 136.0749
1228.570, 133.6438
1230.498, 130.1001
1232.427, 132.2148
1234.355, 141.2732
1236.284, 147.1028
1238.212, 144.6533
1240.141, 141.5298
1242.069, 139.6270
1243.998, 137.3191
1245.926, 134.6503
1247.855, 132.4109
1249.783, 132.4625
1251.712, 134.5414
1253.640, 136.4804
1255.568, 137.2949
1257.497, 137.0760
1259.425, 137.9655
1261.354, 140.6378
1263.282, 142.8364
1265.211, 142.9332
1267.139, 139.7557
1269.068, 137.8430
1270.996, 139.0388
1272.925, 140.3500
1274.853, 137.6055
1276.782, 133.8019
1278.710, 133.1665
1280.639, 135.4966
1282.567, 138.2150
1284.495, 141.7923
1286.424, 144.6087
1288.352, 146.0719
1290.281, 146.2439
1292.209, 145.7476
1294.138, 144.6585
1296.066, 144.5436
1297.995, 144.6657
1299.923, 144.7276
1301.852, 147.1457
1303.780, 152.1734
1305.709, 154.6113
1307.637, 153.0556
1309.566, 151.4659
1311.494, 151.5084
1313.422, 152.3282
1315.351, 153.0521
1317.279, 153.3007
1319.208, 152.1685
1321.136, 148.7288
1323.065, 147.1799
1324.993, 150.5970
1326.922, 154.3171
1328.850, 154.9442
1330.779, 152.1309
1332.707, 151.4916
1334.636, 155.3723
1336.564, 158.6559
1338.493, 160.4199
1340.421, 160.3968
1342.349, 158.4870
1344.278, 153.2785
1346.206, 150.4492
1348.135, 150.9221
1350.063, 153.3542
1351.992, 158.2281
1353.920, 162.6175
1355.849, 162.5450
1357.777, 157.0748
1359.706, 154.0354
1361.634, 156.3691
1363.563, 159.7313
1365.491, 161.6104
1367.420, 162.2197
1369.348, 162.6394
1371.276, 162.6776
1373.205, 163.9248
1375.133, 168.8912
1377.062, 173.0311
1378.990, 172.8174
1380.919, 168.6995
1382.847, 165.6905
1384.776, 163.5335
1386.704, 163.2619
1388.633, 165.7424
1390.561, 169.2687
1392.490, 173.7239
1394.418, 178.8264
1396.347, 180.1071
1398.275, 173.6964
1400.203, 169.7474
1402.132, 172.6176
1404.060, 176.1326
1405.989, 173.4502
1407.917, 165.8147
1409.846, 163.6462
1411.774, 169.8244
1413.703, 175.4660
1415.631, 176.6204
1417.560, 177.0080
1419.488, 181.6120
1421.417, 189.2133
1423.345, 189.6662
1425.274, 177.4132
1427.202, 168.9132
1429.130, 174.5411
1431.059, 182.7333
1432.987, 182.8275
1434.916, 175.0556
1436.844, 172.0207
1438.773, 177.7411
1440.701, 181.8178
1442.630, 180.3027
1444.558, 177.9884
1446.487, 179.0253
1448.415, 183.5416
1450.344, 187.5181
1452.272, 191.1839
1454.201, 193.5498
1456.129, 195.4001
1458.057, 195.2073
1459.986, 189.6023
1461.914, 179.3780
1463.843, 175.3150
1465.771, 180.5943
1467.700, 185.8200
1469.628, 189.7507
1471.557, 192.7939
1473.485, 195.1627
1475.414, 196.5070
1477.342, 197.1231
1479.271, 197.0942
1481.199, 195.6422
1483.128, 191.0455
1485.056, 186.9716
1486.984, 185.1058
1488.913, 185.4788
1490.841, 188.2454
1492.770, 193.2688
1494.698, 198.7775
1496.627, 206.8299
1498.555, 212.7668
1500.484, 213.1253
1502.412, 209.7177
1504.341, 206.1428
1506.269, 201.8487
1508.198, 198.5889
1510.126, 196.0894
1512.055, 195.7666
1513.983, 199.5855
1515.911, 205.3421
1517.840, 208.8429
1519.768, 209.2337
1521.697, 209.8913
1523.625, 213.0991
1525.554, 213.7549
1527.482, 206.4596
1529.411, 198.4433
1531.339, 199.4150
1533.268, 210.8331
1535.196, 218.5017
1537.125, 221.1282
1539.053, 221.7506
1540.982, 217.8171
1542.910, 214.3782
1544.839, 217.6495
1546.767, 225.9408
1548.695, 226.9465
1550.624, 215.3366
1552.552, 209.5054
1554.481, 215.2253
1556.409, 222.5139
1558.338, 227.8858
1560.266, 231.2450
1562.195, 230.3542
1564.123, 223.7581
1566.052, 219.3826
1567.980, 220.4418
1569.909, 221.3467
1571.837, 218.1491
1573.766, 214.1638
1575.694, 214.9172
1577.622, 220.1071
1579.551, 222.6709
1581.479, 220.7462
1583.408, 219.4760
1585.336, 220.6313
1587.265, 222.6861
1589.193, 225.2903
1591.122, 227.9879
1593.050, 228.8536
1594.979, 227.5457
1596.907, 227.9745
1598.836, 231.8143
1600.764, 235.5517
1602.693, 237.7450
1604.621, 238.5958
1606.549, 237.8815
1608.478, 236.0073
1610.406, 235.5131
1612.335, 237.2564
1614.263, 238.6488
1616.192, 237.1059
1618.120, 236.4643
1620.049, 242.0286
1621.977, 250.9320
1623.906, 251.2528
1625.834, 239.8385
1627.763, 233.9559
1629.691, 240.0764
1631.620, 247.0818
1633.548, 251.6229
1635.476, 253.8244
1637.405, 253.2509
1639.333, 249.9672
1641.262, 246.8788
1643.190, 243.6532
1645.119, 241.8627
1647.047, 242.2802
1648.976, 243.7943
1650.904, 246.2547
1652.833, 249.2797
1654.761, 252.5368
1656.690, 256.5691
1658.618, 257.0365
1660.547, 248.9700
1662.475, 245.0278
1664.403, 251.9390
1666.332, 261.1407
1668.260, 265.7167
1670.189, 266.3907
1672.117, 267.1906
1674.046, 268.2331
1675.974, 268.8965
1677.903, 267.9893
1679.831, 267.9901
1681.760, 269.6424
1683.688, 272.6223
1685.617, 278.1164
1687.545, 286.0619
1689.474, 286.7410
1691.402, 274.3129
1693.330, 268.3012
1695.259, 278.2043
1697.187, 287.0975
1699.116, 287.3803
1701.044, 282.3412
1702.973, 275.0389
1704.901, 264.4984
1706.830, 263.2045
1708.758, 278.4989
1710.687, 288.6207
1712.615, 286.0943
1714.544, 281.8148
1716.472, 281.9576
1718.401, 284.0049
1720.329, 282.0155
1722.257, 274.6903
1724.186, 274.9695
1726.114, 289.0151
1728.043, 299.5312
1729.971, 301.2284
1731.900, 300.7061
1733.828, 300.1119
1735.757, 300.4111
1737.685, 305.0409
1739.614, 315.1294
1741.542, 318.3011
1743.471, 310.4376
1745.399, 303.0388
1747.328, 296.8723
1749.256, 293.8184
1751.184, 296.1979
1753.113, 301.9263
1755.041, 307.6080
1756.970, 313.3644
1758.898, 315.4792
1760.827, 310.9715
1762.755, 309.2731
1764.684, 316.7835
1766.612, 322.9970
1768.541, 320.3801
1770.469, 314.1302
1772.398, 313.5905
1774.326, 318.5300
1776.255, 319.6100
1778.183, 313.7238
1780.111, 312.3144
1782.040, 323.3365
1783.968, 332.1533
1785.897, 327.4108
1787.825, 318.9283
1789.754, 320.1503
1791.682, 329.4294
1793.611, 335.9063
1795.539, 338.8336
1797.468, 339.8832
1799.396, 338.4449
1801.325, 336.8107
1803.253, 335.4286
1805.182, 334.9044
1807.110, 336.6609
1809.038, 339.6496
1810.967, 339.8073
1812.895, 336.5075
1814.824, 336.0646
1816.752, 339.9766
1818.681, 345.5916
1820.609, 355.7981
1822.538, 363.5862
1824.466, 361.0249
1826.395, 353.3298
1828.323, 351.8087
1830.252, 356.3741
1832.180, 358.1537
1834.109, 355.1548
1836.037, 352.9497
1837.965, 351.0054
1839.894, 352.2597
1841.822, 362.3450
1843.751, 373.6523
1845.679, 375.2734
1847.608, 368.6133
1849.536, 364.7766
1851.465, 363.9446
1853.393, 365.1676
1855.322, 370.1322
1857.250, 374.7014
1859.179, 379.2269
1861.107, 381.4507
1863.036, 376.4113
1864.964, 368.7851
1866.892, 370.5834
1868.821, 383.6408
1870.749, 390.0105
1872.678, 384.1705
1874.606, 381.4251
1876.535, 385.8378
1878.463, 389.8576
1880.392, 388.6787
1882.320, 387.2827
1884.249, 392.4536
1886.177, 401.7997
1888.106, 404.6050
1890.034, 399.7234
1891.963, 396.2997
1893.891, 395.0104
1895.819, 395.1496
1897.748, 396.6399
1899.676, 399.5462
1901.605, 405.2379
1903.533, 411.4438
1905.462, 416.2295
1907.390, 419.2544
1909.319, 417.6604
1911.247, 410.5463
1913.176, 409.5172
1915.104, 418.9213
1917.033, 427.6244
1918.961, 434.6270
1920.890, 436.6786
1922.818, 426.2927
1924.746, 413.3482
1926.675, 412.1779
1928.603, 420.8610
1930.532, 427.2582
1932.460, 430.4179
1934.389, 435.6960
1936.317, 447.6569
1938.246, 455.5247
1940.174, 453.0883
1942.103, 450.8574
1944.031, 457.4064
1945.960, 465.8803
1947.888, 465.8339
1949.817, 458.8628
1951.745, 455.5364
1953.673, 456.0599
1955.602, 459.7000
1957.530, 470.7485
1959.459, 477.0277
1961.387, 472.4958
1963.316, 467.4203
1965.244, 466.7227
1967.173, 467.4666
1969.101, 465.0901
1971.030, 461.8438
1972.958, 466.7650
1974.887, 479.8692
1976.815, 485.2235
1978.744, 478.6201
1980.672, 474.9824
1982.600, 478.9488
1984.529, 484.5062
1986.457, 490.2801
1988.386, 495.1828
1990.314, 498.3608
1992.243, 500.0414
1994.171, 500.1799
1996.100, 498.8961
1998.028, 499.0120
1999.957, 501.0102
2001.885, 503.1937
2003.814, 504.4121
2005.742, 507.4742
2007.671, 514.8068
2009.599, 521.9529
2011.527, 526.6171
2013.456, 529.6359
2015.384, 532.2563
2017.313, 534.0465
2019.241, 531.6779
2021.170, 524.5654
2023.098, 526.3641
2025.027, 541.4759
2026.955, 551.2814
2028.884, 550.8155
2030.812, 547.2892
2032.741, 539.4847
2034.669, 534.3784
2036.598, 539.9071
2038.526, 549.1290
2040.454, 551.8654
2042.383, 549.6863
2044.311, 549.8951
2046.240, 552.8292
2048.168, 555.1833
2050.097, 556.2066
2052.025, 557.6241
2053.954, 559.7192
2055.882, 562.0307
2057.811, 561.9341
2059.739, 564.7737
2061.667, 579.7172
2063.596, 596.7076
2065.525, 598.9241
2067.453, 589.0567
2069.382, 582.2886
2071.310, 578.5366
2073.239, 578.8328
2075.167, 583.4262
2077.095, 591.5792
2079.024, 608.1136
2080.952, 617.9199
2082.881, 609.0168
2084.809, 598.2781
2086.738, 593.7571
2088.666, 595.7119
2090.595, 610.2198
2092.523, 630.8527
2094.452, 634.9785
2096.380, 620.9729
2098.309, 609.9755
2100.237, 597.2458
2102.166, 597.4362
2104.094, 623.6080
2106.022, 642.1016
2107.951, 641.9807
2109.879, 638.8471
2111.808, 638.0063
2113.736, 638.4340
2115.665, 639.6202
2117.593, 641.2903
2119.522, 642.7835
2121.450, 644.2541
2123.379, 647.0138
2125.307, 651.2309
2127.236, 652.8558
2129.164, 648.7445
2131.093, 649.9604
2133.021, 664.8995
2134.949, 675.5372
2136.878, 673.5525
2138.806, 670.1963
2140.735, 670.4430
2142.663, 673.4614
2144.592, 680.7272
2146.520, 689.1153
2148.449, 691.8056
2150.377, 689.3984
2152.306, 683.8195
2154.234, 674.8456
2156.163, 676.3002
2158.091, 693.2592
2160.020, 704.5424
2161.948, 702.6584
2163.876, 700.2571
2165.805, 702.0999
2167.733, 703.5806
2169.662, 699.4825
2171.590, 696.6544
2173.519, 703.6398
2175.447, 715.2867
2177.376, 722.6575
2179.304, 726.3288
2181.233, 729.4831
2183.161, 732.0754
2185.090, 732.7652
2187.018, 729.9928
2188.947, 735.1370
2190.875, 753.9322
2192.803, 768.9515
2194.732, 775.9855
2196.660, 777.1658
2198.589, 768.0704
2200.517, 759.7216
2202.446, 758.2228
2204.374, 762.6849
2206.303, 776.0405
2208.231, 792.9943
2210.160, 800.2184
2212.088, 798.6660
2214.017, 800.0081
2215.945, 804.6865
2217.874, 801.7621
2219.802, 787.5872
2221.730, 784.3582
2223.659, 801.9617
2225.587, 813.4580
2227.516, 800.6512
2229.444, 794.9875
2231.373, 819.4356
2233.301, 842.9385
2235.230, 840.2841
2237.158, 830.2688
2239.087, 835.7797
2241.015, 847.5128
2242.944, 844.5566
2244.872, 830.5392
2246.801, 827.2431
2248.729, 834.1818
2250.657, 843.5342
2252.586, 855.8111
2254.514, 859.1951
2256.443, 847.9191
2258.371, 841.0699
2260.300, 840.0755
2262.228, 848.1115
2264.157, 877.4682
2266.085, 900.7065
2268.014, 901.6440
2269.942, 895.5480
2271.871, 890.7657
2273.799, 887.8773
2275.728, 886.0718
2277.656, 887.4120
2279.584, 900.7238
2281.513, 920.5566
2283.441, 923.8338
2285.370, 910.6694
2287.298, 905.1905
2289.227, 909.3749
2291.155, 916.7218
2293.084, 931.9345
2295.012, 941.6556
2296.941, 943.2359
2298.869, 942.9601
2300.798, 939.3371
2302.726, 938.3446
2304.655, 942.2297
2306.583, 949.4420
2308.511, 963.1119
2310.440, 975.4974
2312.368, 977.8926
2314.297, 976.0886
2316.225, 977.3869
2318.154, 981.3098
2320.082, 986.3616
2322.011, 992.7859
2323.939, 1003.517
2325.868, 1018.791
2327.796, 1029.139
2329.725, 1033.997
2331.653, 1037.570
2333.582, 1040.602
2335.510, 1040.019
2337.438, 1032.110
2339.367, 1027.584
2341.295, 1028.917
2343.224, 1034.327
2345.152, 1049.238
2347.081, 1060.257
2349.009, 1056.382
2350.938, 1051.589
2352.866, 1057.380
2354.795, 1065.551
2356.723, 1067.378
2358.652, 1066.726
2360.580, 1067.634
2362.509, 1070.957
2364.437, 1080.358
2366.365, 1094.447
2368.294, 1105.543
2370.222, 1113.808
2372.151, 1112.410
2374.079, 1097.989
2376.008, 1101.418
2377.936, 1128.812
2379.865, 1145.108
2381.793, 1142.800
2383.722, 1139.699
2385.650, 1141.070
2387.579, 1139.857
2389.507, 1123.824
2391.436, 1120.195
2393.364, 1152.675
2395.292, 1180.930
2397.221, 1177.703
2399.149, 1171.083
2401.078, 1182.802
2403.006, 1197.179
2404.935, 1194.759
2406.863, 1191.384
2408.792, 1216.801
2410.720, 1250.956
2412.649, 1250.307
2414.577, 1225.366
2416.506, 1210.305
2418.434, 1205.070
2420.363, 1214.066
2422.291, 1235.925
2424.219, 1240.891
2426.148, 1227.354
2428.076, 1226.777
2430.005, 1244.361
2431.933, 1261.591
2433.862, 1281.150
2435.790, 1290.816
2437.719, 1281.112
2439.647, 1276.920
2441.576, 1285.151
2443.504, 1290.025
2445.433, 1284.033
2447.361, 1280.522
2449.290, 1286.982
2451.218, 1294.296
2453.146, 1296.368
2455.075, 1299.794
2457.003, 1310.038
2458.932, 1322.098
2460.860, 1332.191
2462.789, 1341.615
2464.717, 1353.050
2466.646, 1363.581
2468.574, 1366.726
2470.503, 1367.997
2472.431, 1378.962
2474.360, 1394.754
2476.288, 1402.270
2478.217, 1403.230
2480.145, 1404.382
2482.073, 1405.977
2484.002, 1412.146
2485.930, 1422.638
2487.859, 1435.747
2489.787, 1451.281
2491.716, 1462.195
2493.644, 1467.664
2495.573, 1470.168
2497.501, 1468.547
2499.430, 1467.334
2501.358, 1465.767
2503.287, 1467.710
2505.215, 1474.291
2507.144, 1481.700
2509.072, 1488.202
2511.000, 1497.349
2512.929, 1512.446
2514.857, 1526.080
2516.786, 1538.941
2518.714, 1546.111
2520.643, 1540.437
2522.571, 1537.202
2524.500, 1539.826
2526.428, 1549.993
2528.357, 1581.544
2530.285, 1604.022
2532.214, 1584.441
2534.142, 1564.419
2536.071, 1581.310
2537.999, 1606.315
2539.927, 1612.546
2541.856, 1614.078
2543.784, 1628.747
2545.713, 1644.404
2547.641, 1645.484
2549.570, 1639.718
2551.498, 1636.121
2553.427, 1635.089
2555.355, 1638.590
2557.284, 1644.742
2559.212, 1646.961
2561.141, 1649.035
2563.069, 1666.287
2564.998, 1691.850
2566.926, 1700.815
2568.854, 1696.837
2570.783, 1696.398
2572.711, 1700.064
2574.640, 1720.780
2576.568, 1756.888
2578.497, 1761.247
2580.425, 1737.089
2582.354, 1736.849
2584.282, 1763.106
2586.211, 1778.470
2588.139, 1779.438
2590.068, 1781.166
2591.996, 1783.245
2593.925, 1789.280
2595.853, 1800.422
2597.781, 1804.160
2599.710, 1797.957
2601.638, 1795.985
2603.567, 1799.126
2605.495, 1809.417
2607.424, 1832.392
2609.352, 1850.612
2611.281, 1863.796
2613.209, 1871.434
2615.138, 1871.964
2617.066, 1874.243
2618.995, 1877.781
2620.923, 1890.093
2622.852, 1923.389
2624.780, 1945.818
2626.708, 1947.579
2628.637, 1951.833
2630.565, 1966.528
2632.494, 1970.102
2634.422, 1945.354
2636.351, 1936.724
2638.279, 1969.904
2640.208, 2000.285
2642.136, 2016.450
2644.065, 2030.131
2645.993, 2048.729
2647.922, 2053.078
2649.850, 2023.753
2651.779, 2007.273
2653.707, 2027.540
2655.635, 2053.827
2657.564, 2086.009
2659.492, 2106.585
2661.421, 2105.108
2663.349, 2100.963
2665.278, 2101.069
2667.206, 2099.658
2669.135, 2083.610
2671.063, 2081.667
2672.992, 2124.343
2674.920, 2154.906
2676.849, 2136.779
2678.777, 2124.525
2680.706, 2140.588
2682.634, 2163.774
2684.563, 2194.388
2686.491, 2214.306
2688.419, 2205.426
2690.348, 2198.673
2692.276, 2209.556
2694.205, 2222.881
2696.133, 2234.179
2698.062, 2243.716
2699.990, 2252.681
2701.919, 2258.017
2703.847, 2249.486
2705.776, 2250.251
2707.704, 2281.673
2709.633, 2307.817
2711.561, 2309.802
2713.490, 2312.563
2715.418, 2331.853
2717.346, 2348.734
2719.275, 2348.163
2721.203, 2353.016
2723.132, 2379.646
2725.060, 2400.290
2726.989, 2402.691
2728.917, 2400.859
2730.846, 2395.901
2732.774, 2396.683
2734.703, 2410.442
2736.631, 2425.269
2738.560, 2439.310
2740.488, 2449.887
2742.417, 2452.721
2744.345, 2458.175
2746.273, 2474.624
2748.202, 2486.632
2750.130, 2479.872
2752.059, 2485.280
2753.987, 2517.738
2755.916, 2543.282
2757.844, 2546.906
2759.773, 2553.720
2761.701, 2573.661
2763.630, 2593.508
2765.558, 2614.247
2767.487, 2626.812
2769.415, 2628.505
2771.344, 2624.149
2773.272, 2605.658
2775.200, 2605.409
2777.129, 2644.569
2779.057, 2674.988
2780.986, 2693.910
2782.914, 2701.532
2784.843, 2694.511
2786.771, 2694.165
2788.700, 2703.250
2790.628, 2723.569
2792.557, 2765.721
2794.485, 2777.359
2796.414, 2748.783
2798.342, 2756.990
2800.271, 2815.196
2802.199, 2840.458
2804.127, 2815.470
2806.056, 2812.598
2807.984, 2835.490
2809.913, 2837.760
2811.841, 2820.418
2813.770, 2832.881
2815.698, 2876.834
2817.627, 2889.094
2819.555, 2871.309
2821.484, 2865.754
2823.412, 2871.774
2825.341, 2887.572
2827.269, 2911.064
2829.198, 2938.659
2831.126, 2965.022
2833.054, 2963.735
2834.983, 2948.161
2836.911, 2962.901
2838.840, 2993.106
2840.768, 3009.038
2842.697, 3016.353
2844.625, 3017.847
2846.554, 3023.778
2848.482, 3060.158
2850.411, 3101.594
2852.339, 3117.406
2854.268, 3120.946
2856.196, 3119.046
2858.125, 3118.951
2860.053, 3127.422
2861.981, 3139.968
2863.910, 3155.909
2865.838, 3169.875
2867.767, 3173.862
2869.695, 3181.192
2871.624, 3203.966
2873.552, 3223.763
2875.481, 3230.828
2877.409, 3239.112
2879.338, 3258.518
2881.266, 3268.490
2883.195, 3245.171
2885.123, 3245.408
2887.052, 3292.044
2888.980, 3321.908
2890.908, 3321.714
2892.837, 3326.900
2894.765, 3347.890
2896.694, 3356.634
2898.622, 3344.362
2900.551, 3355.360
2902.479, 3391.100
2904.408, 3435.516
2906.336, 3486.427
2908.265, 3491.934
2910.193, 3455.796
2912.122, 3447.386
2914.050, 3462.727
2915.979, 3485.025
2917.907, 3513.399
2919.835, 3555.353
2921.764, 3595.065
2923.692, 3588.421
2925.621, 3561.857
2927.549, 3552.089
2929.478, 3555.015
2931.406, 3571.114
2933.335, 3591.822
2935.263, 3609.862
2937.192, 3628.226
2939.120, 3652.286
2941.049, 3672.708
2942.977, 3687.764
2944.906, 3693.034
2946.834, 3672.269
2948.762, 3666.037
2950.691, 3682.879
2952.619, 3719.095
2954.548, 3789.811
2956.476, 3830.181
2958.405, 3810.615
2960.333, 3799.760
2962.262, 3798.157
2964.190, 3828.354
2966.119, 3893.605
2968.047, 3906.740
2969.976, 3866.489
2971.904, 3876.029
2973.833, 3923.756
2975.761, 3936.979
2977.689, 3930.965
2979.618, 3957.264
2981.546, 3992.913
2983.475, 3984.002
2985.403, 3962.111
2987.332, 3966.884
2989.260, 3986.377
2991.189, 4018.585
2993.117, 4049.237
2995.046, 4069.462
2996.974, 4080.669
2998.903, 4070.095
3000.831, 4078.895
3002.760, 4148.186
3004.688, 4194.132
3006.616, 4188.057
3008.545, 4184.551
3010.473, 4187.642
3012.402, 4213.936
3014.330, 4276.658
3016.259, 4298.028
3018.187, 4273.240
3020.116, 4271.993
3022.044, 4290.132
3023.973, 4299.305
3025.901, 4305.723
3027.830, 4341.879
3029.758, 4384.955
3031.687, 4373.555
3033.615, 4355.378
3035.543, 4392.925
3037.472, 4443.275
3039.400, 4480.794
3041.329, 4497.550
3043.257, 4476.759
3045.186, 4461.815
3047.114, 4479.730
3049.043, 4491.922
3050.971, 4470.931
3052.900, 4489.022
3054.828, 4562.296
3056.757, 4608.736
3058.685, 4611.287
3060.614, 4630.903
3062.542, 4669.252
3064.470, 4687.419
3066.399, 4691.686
3068.327, 4708.184
3070.256, 4729.153
3072.184, 4735.599
3074.113, 4733.611
3076.041, 4714.929
3077.970, 4713.731
3079.898, 4780.483
3081.827, 4845.398
3083.755, 4864.602
3085.684, 4867.584
3087.612, 4856.533
3089.541, 4852.059
3091.469, 4858.636
3093.397, 4879.388
3095.326, 4919.061
3097.254, 4944.670
3099.183, 4954.678
3101.111, 4955.665
3103.040, 4951.801
3104.968, 4977.015
3106.897, 5019.217
3108.825, 5049.876
3110.754, 5065.998
3112.682, 5049.784
3114.611, 5033.266
3116.539, 5048.433
3118.468, 5076.572
3120.396, 5117.732
3122.324, 5150.684
3124.253, 5156.109
3126.181, 5177.594
3128.110, 5231.484
3130.038, 5239.090
3131.967, 5177.469
3133.895, 5192.544
3135.824, 5288.045
3137.752, 5346.554
3139.681, 5370.849
3141.609, 5357.449
3143.538, 5332.521
3145.466, 5345.500
3147.395, 5371.984
3149.323, 5394.006
3151.251, 5406.264
3153.180, 5389.582
3155.108, 5390.122
3157.037, 5439.159
3158.965, 5472.239
3160.894, 5469.465
3162.822, 5496.453
3164.751, 5576.178
3166.679, 5610.928
3168.608, 5604.771
3170.536, 5583.818
3172.465, 5565.082
3174.393, 5604.792
3176.322, 5667.701
3178.250, 5711.151
3180.178, 5729.070
3182.107, 5687.090
3184.035, 5665.866
3185.964, 5736.989
3187.892, 5786.416
3189.821, 5782.752
3191.749, 5783.157
3193.678, 5795.604
3195.606, 5833.254
3197.535, 5894.131
3199.463, 5897.940
3201.392, 5870.006
3203.320, 5916.807
3205.249, 5987.954
3207.177, 5988.573
3209.105, 5972.659
3211.034, 5982.833
3212.962, 6002.157
3214.891, 6020.910
3216.819, 6051.501
3218.748, 6101.712
3220.676, 6142.426
3222.605, 6169.689
3224.533, 6163.385
3226.462, 6127.223
3228.390, 6154.141
3230.319, 6217.590
3232.247, 6244.287
3234.176, 6253.016
3236.104, 6266.415
3238.032, 6284.225
3239.961, 6306.933
3241.889, 6333.982
3243.818, 6364.834
3245.746, 6400.891
3247.675, 6443.651
3249.603, 6471.997
3251.532, 6480.355
3253.460, 6519.316
3255.389, 6575.633
3257.317, 6574.437
3259.246, 6549.538
3261.174, 6546.673
3263.103, 6562.577
3265.031, 6600.269
3266.959, 6643.999
3268.888, 6706.128
3270.816, 6729.176
3272.745, 6687.157
3274.673, 6672.249
3276.602, 6692.461
3278.530, 6732.777
3280.459, 6786.791
3282.387, 6830.426
3284.316, 6861.907
3286.244, 6875.856
3288.173, 6881.499
3290.101, 6879.778
3292.030, 6885.195
3293.958, 6904.995
3295.886, 6928.622
3297.815, 6954.719
3299.743, 6984.587
3301.672, 7018.313
3303.600, 7042.862
3305.529, 7062.116
3307.457, 7092.180
3309.386, 7125.300
3311.314, 7150.925
3313.243, 7171.519
3315.171, 7184.104
3317.100, 7202.415
3319.028, 7238.140
3320.957, 7255.088
3322.885, 7243.881
3324.813, 7263.411
3326.742, 7311.534
3328.670, 7325.514
3330.599, 7329.382
3332.527, 7374.799
3334.456, 7432.322
3336.384, 7483.834
3338.313, 7514.977
3340.241, 7512.668
3342.170, 7504.837
3344.098, 7489.886
3346.027, 7512.021
3347.955, 7568.375
3349.884, 7584.791
3351.812, 7578.421
3353.740, 7605.473
3355.669, 7641.364
3357.597, 7650.732
3359.526, 7670.081
3361.454, 7727.196
3363.383, 7790.059
3365.311, 7857.201
3367.240, 7903.234
3369.168, 7925.202
3371.097, 7943.351
3373.025, 7955.608
3374.954, 7942.814
3376.882, 7937.575
3378.811, 7997.113
3380.739, 8055.210
3382.667, 8077.660
3384.596, 8096.450
3386.524, 8125.598
3388.453, 8129.099
3390.381, 8110.333
3392.310, 8147.376
3394.238, 8213.242
3396.167, 8218.578
3398.095, 8222.903
3400.024, 8296.952
3401.952, 8373.650
3403.881, 8434.881
3405.809, 8442.683
3407.738, 8380.909
3409.666, 8383.534
3411.594, 8451.809
3413.523, 8481.499
3415.451, 8492.101
3417.380, 8521.193
3419.308, 8552.551
3421.237, 8558.882
3423.165, 8588.711
3425.094, 8675.670
3427.022, 8705.459
3428.951, 8643.418
3430.879, 8660.721
3432.808, 8734.732
3434.736, 8789.469
3436.665, 8826.526
3438.593, 8834.191
3440.521, 8849.000
3442.450, 8902.766
3444.378, 8942.408
3446.307, 8954.395
3448.235, 8963.920
3450.164, 8972.961
3452.092, 8989.686
3454.021, 9015.405
3455.949, 9067.462
3457.878, 9111.650
3459.806, 9109.738
3461.735, 9119.535
3463.663, 9162.205
3465.592, 9193.394
3467.520, 9206.665
3469.448, 9238.004
3471.377, 9281.602
3473.305, 9325.388
3475.234, 9362.971
3477.162, 9379.398
3479.091, 9402.658
3481.019, 9446.513
3482.948, 9482.162
3484.876, 9502.574
3486.805, 9537.903
3488.733, 9582.313
3490.662, 9619.050
3492.590, 9643.521
3494.519, 9645.168
3496.447, 9635.920
3498.375, 9597.951
3500.304, 9621.918
3502.232, 9730.179
3504.161, 9788.591
3506.089, 9810.624
3508.018, 9868.516
3509.946, 9936.393
3511.875, 10002.54
3513.803, 10029.13
3515.732, 9963.739
3517.660, 9928.141
3519.589, 9933.876
3521.517, 10013.56
3523.446, 10128.64
3525.374, 10106.08
3527.302, 10054.21
3529.231, 10090.65
3531.159, 10152.18
3533.088, 10224.58
3535.016, 10280.20
3536.945, 10316.50
3538.873, 10350.82
3540.802, 10385.73
3542.730, 10436.38
3544.659, 10478.32
3546.587, 10474.55
3548.516, 10480.90
3550.444, 10521.87
3552.373, 10534.65
3554.301, 10510.94
3556.229, 10572.77
3558.158, 10665.60
3560.086, 10634.35
3562.015, 10608.40
3563.943, 10732.72
3565.872, 10806.40
3567.800, 10765.34
3569.729, 10782.43
3571.657, 10861.56
3573.586, 10931.75
3575.514, 10983.01
3577.443, 10978.12
3579.371, 10989.46
3581.300, 11063.24
3583.228, 11122.35
3585.156, 11147.53
3587.085, 11161.00
3589.013, 11166.13
3590.942, 11155.27
3592.870, 11171.79
3594.799, 11316.94
3596.727, 11397.46
3598.656, 11298.98
3600.584, 11318.01
3602.513, 11458.01
3604.441, 11528.84
3606.370, 11556.80
3608.298, 11573.50
3610.227, 11598.08
3612.155, 11653.17
3614.083, 11676.46
3616.012, 11649.05
3617.940, 11651.71
3619.869, 11686.29
3621.797, 11780.66
3623.726, 11847.85
3625.654, 11768.35
3627.583, 11728.32
3629.511, 11819.48
3631.440, 11902.60
3633.368, 11977.02
3635.297, 12069.20
3637.225, 12149.25
3639.154, 12152.79
3641.082, 12155.47
3643.010, 12195.79
3644.939, 12232.61
3646.867, 12262.31
3648.796, 12269.87
3650.724, 12278.81
3652.653, 12345.37
3654.581, 12427.06
3656.510, 12521.52
3658.438, 12557.04
3660.367, 12519.79
3662.295, 12534.70
3664.224, 12583.15
3666.152, 12589.41
3668.081, 12598.34
3670.009, 12652.54
3671.938, 12699.32
3673.866, 12719.51
3675.794, 12769.56
3677.723, 12838.04
3679.651, 12868.86
3681.580, 12887.31
3683.508, 12916.24
3685.437, 12951.08
3687.365, 12993.82
3689.294, 13027.90
3691.222, 13056.29
3693.151, 13103.94
3695.079, 13150.90
3697.008, 13172.70
3698.936, 13187.53
3700.865, 13191.20
3702.793, 13228.73
3704.721, 13292.79
3706.650, 13327.17
3708.578, 13352.27
3710.507, 13392.25
3712.435, 13442.31
3714.364, 13505.72
3716.292, 13575.79
3718.221, 13643.29
3720.149, 13641.02
3722.078, 13621.01
3724.006, 13668.43
3725.935, 13695.93
3727.863, 13622.04
3729.792, 13675.39
3731.720, 13828.18
3733.648, 13851.74
3735.577, 13828.86
3737.505, 13856.18
3739.434, 13897.80
3741.362, 13944.15
3743.291, 13982.43
3745.219, 14017.51
3747.148, 14080.08
3749.076, 14156.84
3751.005, 14251.77
3752.933, 14315.55
3754.862, 14321.59
3756.790, 14300.46
3758.719, 14274.23
3760.647, 14349.15
3762.575, 14434.59
3764.504, 14435.02
3766.432, 14442.07
3768.361, 14479.23
3770.289, 14549.35
3772.218, 14637.35
3774.146, 14710.00
3776.075, 14758.11
3778.003, 14766.13
3779.932, 14780.18
3781.860, 14811.05
3783.789, 14844.05
3785.717, 14881.14
3787.646, 14926.10
3789.574, 14970.85
3791.502, 15001.66
3793.431, 15078.31
3795.359, 15206.17
3797.288, 15242.87
3799.216, 15233.48
3801.145, 15210.93
3803.073, 15243.83
3805.002, 15367.08
3806.930, 15424.23
3808.859, 15415.16
3810.787, 15401.01
3812.716, 15403.86
3814.644, 15456.00
3816.573, 15514.41
3818.501, 15572.00
3820.429, 15607.47
3822.358, 15638.49
3824.286, 15728.79
3826.215, 15813.33
3828.143, 15842.10
3830.072, 15870.54
3832.000, 15901.40
3833.929, 15900.54
3835.857, 15909.98
3837.786, 16018.32
3839.714, 16099.63
3841.643, 16092.32
3843.571, 16120.99
3845.500, 16178.56
3847.428, 16223.92
3849.356, 16250.29
3851.285, 16237.34
3853.213, 16252.45
3855.142, 16305.55
3857.070, 16388.67
3858.999, 16487.51
3860.927, 16608.98
3862.856, 16673.06
3864.784, 16626.13
3866.713, 16612.71
3868.641, 16635.89
3870.570, 16662.93
3872.498, 16704.93
3874.427, 16783.98
3876.355, 16842.64
3878.283, 16867.13
3880.212, 16939.04
3882.140, 17007.40
3884.069, 16961.82
3885.997, 16937.78
3887.926, 16989.53
3889.854, 17053.29
3891.783, 17115.70
3893.711, 17211.29
3895.640, 17303.65
3897.568, 17351.44
3899.497, 17363.51
3901.425, 17355.66
3903.354, 17384.24
3905.282, 17433.65
3907.210, 17561.05
3909.139, 17629.57
3911.067, 17553.78
3912.996, 17575.72
3914.924, 17666.17
3916.853, 17687.48
3918.781, 17695.73
3920.710, 17759.04
3922.638, 17816.63
3924.567, 17843.82
3926.495, 17885.15
3928.424, 17936.45
3930.352, 17937.11
3932.281, 17973.13
3934.209, 18094.07
3936.137, 18156.66
3938.066, 18180.10
3939.994, 18194.57
3941.923, 18230.81
3943.851, 18311.20
3945.780, 18362.78
3947.708, 18372.11
3949.637, 18419.09
3951.565, 18473.29
3953.494, 18480.34
3955.422, 18533.50
3957.351, 18612.99
3959.279, 18638.27
3961.208, 18643.32
3963.136, 18657.47
3965.064, 18672.20
3966.993, 18689.60
3968.921, 18720.88
3970.850, 18739.32
3972.778, 18791.29
3974.707, 18816.26
3976.635, 18826.32
3978.564, 18910.58
3980.492, 18955.10
3982.421, 18934.58
3984.349, 18983.02
3986.278, 19108.75
3988.206, 19210.13
3990.135, 19252.49
3992.063, 19236.02
3993.991, 19227.09
3995.920, 19288.43
3997.848, 19365.27
3999.777, 19431.27
4001.705, 19548.87
4003.634, 19599.96
4005.562, 19514.75
4007.491, 19535.49
4009.419, 19652.59
4011.348, 19717.89
4013.276, 19730.34
4015.205, 19717.28
4017.133, 19767.25
4019.062, 19854.20
4020.990, 19892.33
4022.918, 19918.01
4024.847, 19933.11
4026.775, 20041.52
4028.704, 20209.62
4030.632, 20278.30
4032.561, 20299.51
4034.489, 20297.38
4036.418, 20299.49
4038.346, 20317.84
4040.275, 20331.93
4042.203, 20344.03
4044.132, 20388.80
4046.060, 20436.89
4047.989, 20467.96
4049.917, 20507.83
4051.845, 20550.19
4053.774, 20575.13
4055.702, 20611.70
4057.631, 20660.72
4059.559, 20743.77
4061.488, 20829.42
4063.416, 20872.88
4065.345, 20898.98
4067.273, 20917.64
4069.202, 20983.99
4071.130, 21060.39
4073.059, 21101.22
4074.987, 21109.65
4076.916, 21083.19
4078.844, 21166.60
4080.772, 21285.86
4082.701, 21310.89
4084.629, 21308.52
4086.558, 21284.23
4088.486, 21336.78
4090.415, 21427.72
4092.343, 21497.06
4094.272, 21565.12
4096.200, 21645.66
4098.129, 21701.16
4100.057, 21723.16
4101.986, 21677.61
4103.914, 21710.73
4105.843, 21854.34
4107.771, 21915.37
4109.700, 21935.39
4111.628, 22006.60
4113.557, 22046.19
4115.485, 22017.51
4117.414, 22063.79
4119.342, 22175.89
4121.271, 22201.98
4123.199, 22206.90
4125.127, 22291.44
4127.056, 22376.29
4128.984, 22428.80
4130.913, 22432.67
4132.841, 22430.59
4134.770, 22417.89
4136.698, 22518.92
4138.626, 22701.60
4140.555, 22786.49
4142.483, 22791.73
4144.412, 22743.67
4146.340, 22784.69
4148.269, 22871.15
4150.197, 22941.71
4152.126, 22979.83
4154.054, 22983.94
4155.983, 23005.79
4157.911, 23039.17
4159.840, 23126.13
4161.768, 23212.44
4163.697, 23247.72
4165.625, 23302.25
4167.554, 23351.08
4169.482, 23332.61
4171.411, 23363.87
4173.339, 23468.61
4175.268, 23514.28
4177.196, 23509.73
4179.125, 23489.04
4181.053, 23528.92
4182.981, 23664.56
4184.910, 23725.37
4186.838, 23737.85
4188.767, 23759.51
4190.695, 23788.92
4192.624, 23830.70
4194.552, 23884.74
4196.480, 23968.43
4198.409, 24033.92
4200.337, 24058.33
4202.266, 24037.69
4204.194, 24070.62
4206.123, 24126.11
4208.051, 24167.77
4209.980, 24212.84
4211.908, 24265.41
4213.837, 24343.87
4215.765, 24421.54
4217.694, 24412.96
4219.622, 24460.93
4221.551, 24665.01
4223.479, 24684.14
4225.408, 24621.42
4227.336, 24688.22
4229.265, 24745.44
4231.193, 24754.67
4233.122, 24717.98
4235.050, 24705.81
4236.979, 24823.66
4238.907, 24915.51
4240.835, 24969.02
4242.764, 25147.70
4244.692, 25253.85
4246.621, 25039.62
4248.549, 24960.59
4250.478, 25036.68
4252.406, 25221.37
4254.334, 25361.29
4256.263, 25349.94
4258.191, 25379.10
4260.120, 25445.40
4262.048, 25522.85
4263.977, 25574.72
4265.905, 25581.42
4267.834, 25676.04
4269.762, 25791.40
4271.691, 25823.90
4273.619, 25830.04
4275.548, 25829.51
4277.476, 25875.60
4279.405, 25945.48
4281.333, 26005.22
4283.262, 26094.56
4285.190, 26199.94
4287.119, 26242.95
4289.047, 26278.50
4290.976, 26354.06
4292.904, 26409.49
4294.833, 26434.58
4296.761, 26387.02
4298.689, 26367.64
4300.618, 26413.52
4302.546, 26526.19
4304.475, 26640.42
4306.403, 26644.49
4308.332, 26669.29
4310.260, 26738.93
4312.188, 26863.09
4314.117, 26942.01
4316.045, 26843.04
4317.974, 26825.40
4319.902, 26901.35
4321.831, 27067.77
4323.759, 27208.06
4325.688, 27262.76
4327.616, 27240.74
4329.545, 27207.99
4331.473, 27278.07
4333.402, 27375.94
4335.330, 27486.26
4337.259, 27636.61
4339.187, 27737.11
4341.116, 27671.26
4343.044, 27663.68
4344.973, 27718.90
4346.901, 27807.17
4348.830, 27874.91
4350.758, 27894.48
4352.687, 27912.46
4354.615, 27965.91
4356.543, 28150.37
4358.472, 28231.28
4360.400, 28178.04
4362.329, 28102.66
4364.257, 28098.40
4366.186, 28253.82
4368.114, 28251.62
4370.042, 28182.34
4371.971, 28309.13
4373.899, 28454.98
4375.828, 28567.39
4377.756, 28627.21
4379.685, 28643.09
4381.613, 28602.06
4383.542, 28619.38
4385.470, 28698.96
4387.399, 28832.60
4389.327, 28936.00
4391.256, 28969.67
4393.184, 29040.40
4395.113, 29097.35
4397.041, 29015.44
4398.970, 29088.38
4400.898, 29308.51
4402.827, 29366.66
4404.755, 29350.62
4406.684, 29276.98
4408.612, 29278.81
4410.541, 29342.59
4412.469, 29483.13
4414.397, 29551.90
4416.326, 29535.34
4418.254, 29602.92
4420.183, 29679.36
4422.111, 29723.26
4424.040, 29762.01
4425.968, 29795.16
4427.896, 29798.00
4429.825, 29849.27
4431.753, 29948.96
4433.682, 30012.15
4435.610, 30050.63
4437.539, 30067.23
4439.467, 30098.50
4441.396, 30160.90
4443.324, 30314.24
4445.253, 30401.22
4447.181, 30395.13
4449.110, 30363.19
4451.038, 30374.54
4452.967, 30493.12
4454.895, 30564.06
4456.824, 30586.62
4458.752, 30526.42
4460.681, 30600.81
4462.609, 30808.09
4464.538, 30787.46
4466.466, 30759.91
4468.395, 30837.24
4470.323, 30848.47
4472.251, 30863.25
4474.180, 31022.69
4476.108, 31108.58
4478.037, 31100.96
4479.965, 31023.97
4481.894, 31053.28
4483.822, 31336.15
4485.750, 31323.44
4487.679, 31250.34
4489.607, 31373.32
4491.536, 31499.26
4493.464, 31594.84
4495.393, 31624.97
4497.321, 31626.29
4499.250, 31614.55
4501.178, 31680.00
4503.107, 31752.91
4505.035, 31786.20
4506.964, 31772.30
4508.892, 31766.52
4510.821, 31899.81
4512.749, 31978.16
4514.678, 31975.44
4516.606, 31950.69
4518.535, 31979.07
4520.463, 32099.51
4522.392, 32259.00
4524.320, 32372.68
4526.249, 32340.13
4528.177, 32292.85
4530.105, 32284.19
4532.034, 32446.00
4533.962, 32552.34
4535.891, 32551.97
4537.819, 32618.57
4539.748, 32708.02
4541.676, 32800.68
4543.604, 32835.36
4545.533, 32867.07
4547.461, 33005.99
4549.390, 33016.50
4551.318, 32923.61
4553.247, 32898.89
4555.175, 32966.23
4557.104, 33114.78
4559.032, 33124.08
4560.961, 33132.16
4562.889, 33256.14
4564.818, 33397.14
4566.746, 33500.84
4568.675, 33449.50
4570.603, 33466.41
4572.532, 33558.28
4574.460, 33695.20
4576.389, 33727.25
4578.317, 33641.14
4580.246, 33659.70
4582.174, 33722.76
4584.103, 33800.09
4586.031, 33830.52
4587.959, 33833.91
4589.888, 33826.92
4591.816, 33810.40
4593.745, 33827.13
4595.673, 34050.99
4597.602, 34213.26
4599.530, 34267.34
4601.458, 34280.01
4603.387, 34276.60
4605.315, 34258.11
4607.244, 34442.09
4609.172, 34605.77
4611.101, 34495.11
4613.029, 34508.00
4614.958, 34569.90
4616.886, 34476.44
4618.815, 34536.54
4620.743, 34703.95
4622.672, 34642.66
4624.600, 34597.94
4626.529, 34645.93
4628.457, 34713.79
4630.386, 34790.19
4632.314, 34872.70
4634.243, 34879.13
4636.171, 34897.19
4638.100, 35022.93
4640.028, 35057.08
4641.957, 35080.72
4643.885, 35313.55
4645.813, 35403.23
4647.742, 35343.05
4649.670, 35262.31
4651.599, 35282.45
4653.527, 35418.23
4655.456, 35515.29
4657.384, 35543.61
4659.313, 35492.19
4661.241, 35524.21
4663.169, 35573.30
4665.098, 35590.39
4667.026, 35523.59
4668.955, 35488.09
4670.883, 35648.36
4672.812, 35796.04
4674.740, 35906.38
4676.669, 35985.40
4678.597, 36051.96
4680.526, 36108.28
4682.454, 36122.07
4684.383, 36183.46
4686.311, 36306.56
4688.240, 36323.90
4690.168, 36372.93
4692.097, 36512.78
4694.025, 36490.60
4695.954, 36458.22
4697.882, 36556.46
4699.811, 36640.23
4701.739, 36703.76
4703.667, 36738.56
4705.596, 36810.81
4707.524, 36874.82
4709.453, 36789.27
4711.381, 36886.52
4713.310, 37101.73
4715.238, 37113.41
4717.167, 37105.39
4719.095, 37108.00
4721.023, 37069.65
4722.952, 37064.97
4724.880, 37112.89
4726.809, 37162.84
4728.737, 37170.09
4730.666, 37110.18
4732.594, 37158.12
4734.523, 37212.66
4736.451, 37207.03
4738.380, 37391.34
4740.308, 37581.14
4742.237, 37564.00
4744.165, 37575.56
4746.094, 37599.75
4748.022, 37594.32
4749.951, 37754.61
4751.879, 37953.77
4753.808, 37964.18
4755.736, 37901.38
4757.665, 37811.86
4759.593, 37713.70
4761.521, 37852.54
4763.450, 38132.51
4765.378, 38103.89
4767.307, 38054.82
4769.235, 38053.42
4771.164, 38089.79
4773.092, 38093.70
4775.021, 38051.69
4776.949, 37950.60
4778.877, 38043.29
4780.806, 38387.75
4782.734, 38466.68
4784.663, 38447.00
4786.591, 38409.72
4788.520, 38571.12
4790.448, 38657.29
4792.377, 38518.27
4794.305, 38589.30
4796.234, 38736.04
4798.162, 38864.06
4800.091, 38810.82
4802.019, 38783.20
4803.948, 38962.62
4805.876, 39020.26
4807.805, 39034.19
4809.733, 39114.89
4811.662, 39189.45
4813.590, 39235.77
4815.519, 39233.34
4817.447, 39183.29
4819.375, 39161.76
4821.304, 39327.97
4823.232, 39318.04
4825.161, 39262.18
4827.089, 39414.03
4829.018, 39590.82
4830.946, 39698.05
4832.875, 39533.94
4834.803, 39615.43
4836.731, 39822.22
4838.660, 39791.45
4840.588, 39724.30
4842.517, 39701.74
4844.445, 39860.38
4846.374, 39938.68
4848.302, 39945.40
4850.231, 39979.22
4852.159, 40141.08
4854.088, 40310.23
4856.016, 40056.37
4857.945, 40051.80
4859.873, 40261.85
4861.802, 40247.65
4863.730, 40256.69
4865.659, 40329.91
4867.587, 40480.41
4869.516, 40606.42
4871.444, 40658.05
4873.373, 40482.17
4875.301, 40386.19
4877.229, 40430.34
4879.158, 40692.98
4881.086, 40735.55
4883.015, 40587.27
4884.943, 40535.39
4886.872, 40616.25
4888.800, 40749.99
4890.729, 40674.82
4892.657, 40616.94
4894.585, 40647.78
4896.514, 40915.22
4898.442, 41045.64
4900.371, 41022.02
4902.299, 40945.82
4904.228, 40895.41
4906.156, 40899.29
4908.085, 41021.89
4910.013, 41123.29
4911.942, 41190.30
4913.870, 41241.38
4915.799, 41207.66
4917.727, 41178.50
4919.656, 41345.39
4921.584, 41538.33
4923.513, 41667.17
4925.441, 41599.57
4927.370, 41581.85
4929.298, 41616.67
4931.227, 41695.27
4933.155, 41622.56
4935.083, 41537.57
4937.012, 41644.07
4938.940, 41735.44
4940.869, 41800.87
4942.797, 41857.65
4944.726, 41765.38
4946.654, 41732.58
4948.583, 42006.60
4950.511, 42058.00
4952.439, 41998.59
4954.368, 41928.30
4956.296, 42178.49
4958.225, 42408.12
4960.153, 42350.11
4962.082, 42239.22
4964.010, 42173.32
4965.939, 42200.04
4967.867, 42337.33
4969.796, 42388.30
4971.724, 42279.72
4973.653, 42489.16
4975.581, 42529.74
4977.510, 42321.69
4979.438, 42621.16
4981.367, 42640.78
4983.295, 42325.12
4985.224, 42398.45
4987.152, 42550.00
4989.081, 42661.63
4991.009, 42560.71
4992.938, 42594.32
4994.866, 42713.23
4996.794, 42668.26
4998.723, 42772.24
5000.651, 42895.16
5002.580, 42753.93
5004.508, 42852.20
5006.437, 42982.85
5008.365, 42843.14
5010.293, 42870.29
5012.222, 42940.61
5014.150, 42923.87
5016.079, 42955.22
5018.007, 43019.57
5019.936, 43102.87
5021.864, 43182.64
5023.793, 43089.69
5025.721, 42794.49
5027.650, 43016.83
5029.578, 43252.16
5031.507, 43345.35
5033.435, 43309.95
5035.364, 43244.64
5037.292, 43205.33
5039.221, 43328.09
5041.149, 43263.18
5043.078, 43142.17
5045.006, 43255.60
5046.935, 43371.15
5048.863, 43462.07
5050.792, 43543.95
5052.720, 43429.36
5054.648, 43354.56
5056.577, 43501.06
5058.505, 43498.25
5060.434, 43463.02
5062.362, 43458.52
5064.291, 43536.82
5066.219, 43615.63
5068.147, 43670.03
5070.076, 43730.63
5072.004, 43704.65
5073.933, 43643.32
5075.861, 43711.29
5077.790, 43759.00
5079.718, 43775.00
5081.647, 43747.04
5083.575, 43800.73
5085.504, 43855.48
5087.432, 43843.09
5089.361, 43837.34
5091.289, 43843.74
5093.218, 43868.20
5095.146, 43973.52
5097.075, 43972.26
5099.003, 43855.64
5100.932, 43822.79
5102.860, 43855.27
5104.789, 43927.56
5106.717, 44005.38
5108.646, 44101.32
5110.574, 44182.36
5112.502, 44206.68
5114.431, 44204.74
5116.359, 44191.99
5118.288, 44180.01
5120.216, 44205.80
5122.145, 44262.66
5124.073, 44326.78
5126.001, 44225.46
5127.930, 44263.34
5129.858, 44387.98
5131.787, 44319.09
5133.715, 44384.56
5135.644, 44431.78
5137.572, 44204.38
5139.501, 44333.88
5141.429, 44528.39
5143.358, 44581.54
5145.286, 44604.58
5147.215, 44579.77
5149.143, 44529.56
5151.072, 44576.68
5153.000, 44618.56
5154.929, 44617.10
5156.857, 44475.92
5158.786, 44577.37
5160.714, 44725.90
5162.643, 44718.60
5164.571, 44750.65
5166.500, 44781.27
5168.428, 44793.82
5170.356, 44895.43
5172.285, 44885.20
5174.213, 44809.22
5176.142, 44944.70
5178.070, 44942.05
5179.999, 44851.34
5181.927, 44772.37
5183.855, 44817.36
5185.784, 44923.71
5187.712, 45050.08
5189.641, 45195.82
5191.569, 45165.25
5193.498, 44998.25
5195.426, 44939.75
5197.355, 45078.91
5199.283, 45249.55
5201.212, 45224.93
5203.140, 45169.69
5205.069, 45154.29
5206.997, 45215.32
5208.926, 45326.17
5210.854, 45301.09
5212.783, 45181.79
5214.711, 45238.17
5216.640, 45108.10
5218.568, 45010.43
5220.497, 45350.34
5222.425, 45260.19
5224.354, 45136.84
5226.282, 45168.50
5228.210, 45083.56
5230.139, 45218.13
5232.067, 45451.36
5233.996, 45305.26
5235.924, 45195.38
5237.853, 45172.29
5239.781, 45243.37
5241.709, 45475.94
5243.638, 45450.93
5245.566, 45162.77
5247.495, 45311.80
5249.423, 45341.73
5251.352, 45301.64
5253.280, 45473.77
5255.209, 45431.78
5257.137, 45311.91
5259.066, 45228.64
5260.994, 45350.77
5262.923, 45404.16
5264.851, 45371.51
5266.780, 45391.06
5268.708, 45402.04
5270.637, 45378.51
5272.565, 45295.59
5274.494, 45362.41
5276.422, 45443.89
5278.351, 45473.21
5280.279, 45368.15
5282.208, 45351.30
5284.136, 45339.76
5286.064, 45129.88
5287.993, 45299.14
5289.921, 45487.96
5291.850, 45526.89
5293.778, 45487.77
5295.707, 45480.06
5297.635, 45482.15
5299.563, 45425.47
5301.492, 45355.41
5303.420, 45396.59
5305.349, 45598.93
5307.277, 45665.68
5309.206, 45633.62
5311.134, 45534.88
5313.063, 45387.54
5314.991, 45456.07
5316.920, 45554.14
5318.848, 45554.25
5320.777, 45676.29
5322.705, 45651.92
5324.634, 45529.75
5326.562, 45572.18
5328.491, 45474.16
5330.419, 45497.40
5332.348, 45766.50
5334.276, 45616.90
5336.205, 45611.27
5338.133, 45727.45
5340.062, 45574.15
5341.990, 45490.48
5343.918, 45463.73
5345.847, 45467.50
5347.775, 45589.45
5349.704, 45548.17
5351.632, 45433.51
5353.561, 45532.54
5355.489, 45617.46
5357.417, 45587.84
5359.346, 45421.96
5361.274, 45459.98
5363.203, 45407.30
5365.131, 45302.20
5367.060, 45299.03
5368.988, 45419.28
5370.917, 45525.75
5372.845, 45552.34
5374.774, 45536.30
5376.702, 45372.95
5378.631, 45249.00
5380.559, 45457.11
5382.488, 45502.46
5384.416, 45470.01
5386.345, 45424.87
5388.273, 45456.58
5390.202, 45471.60
5392.130, 45526.22
5394.059, 45667.39
5395.987, 45505.19
5397.916, 45379.00
5399.844, 45361.30
5401.772, 45380.97
5403.701, 45384.27
5405.629, 45362.31
5407.558, 45323.46
5409.486, 45386.67
5411.415, 45248.98
5413.343, 45139.95
5415.271, 45462.52
5417.200, 45457.51
5419.128, 45426.80
5421.057, 45454.61
5422.985, 45278.86
5424.914, 45395.77
5426.842, 45554.95
5428.771, 45526.90
5430.699, 45540.66
5432.628, 45348.51
5434.556, 45128.64
5436.485, 45312.80
5438.413, 45349.38
5440.342, 45276.93
5442.270, 45166.48
5444.199, 45206.18
5446.127, 45108.61
5448.056, 45007.07
5449.984, 45047.64
5451.913, 45260.80
5453.841, 45319.86
5455.770, 45242.21
5457.698, 45189.71
5459.626, 45182.81
5461.555, 45189.93
5463.483, 45181.35
5465.412, 45074.36
5467.340, 45091.77
5469.269, 45131.54
5471.197, 45112.87
5473.125, 45283.50
5475.054, 45222.27
5476.982, 45012.11
5478.911, 44869.69
5480.839, 44902.13
5482.768, 44952.37
5484.696, 44991.07
5486.625, 45170.30
5488.553, 44989.73
5490.482, 44881.97
5492.410, 45051.77
5494.339, 45036.71
5496.267, 45012.22
5498.196, 45029.77
5500.124, 45101.85
5502.053, 45163.81
5503.981, 45187.68
5505.910, 45150.92
5507.838, 45026.70
5509.767, 44854.88
5511.695, 44774.04
5513.624, 44802.89
5515.552, 44864.89
5517.480, 44852.32
5519.409, 44849.64
5521.337, 44893.24
5523.266, 44879.95
5525.194, 44951.29
5527.123, 45018.22
5529.051, 44992.49
5530.979, 44785.71
5532.908, 44662.51
5534.836, 44675.44
5536.765, 44804.42
5538.693, 44589.04
5540.622, 44613.78
5542.550, 44749.16
5544.479, 44498.77
5546.407, 44509.46
5548.336, 44586.97
5550.264, 44673.24
5552.193, 44931.81
5554.121, 44975.12
5556.050, 44874.32
5557.978, 44724.18
5559.907, 44698.78
5561.835, 44588.44
5563.764, 44571.81
5565.692, 44704.89
5567.621, 44490.61
5569.549, 44458.61
5571.478, 44570.21
5573.406, 44700.58
5575.334, 44587.27
5577.263, 44537.74
5579.191, 44471.28
5581.120, 44213.60
5583.048, 44441.94
5584.977, 44454.64
5586.905, 44263.68
5588.833, 44118.87
5590.762, 44215.22
5592.690, 44339.04
5594.619, 44354.89
5596.547, 44157.97
5598.476, 44365.39
5600.404, 44330.99
5602.333, 44116.21
5604.261, 44365.36
5606.190, 44188.87
5608.118, 44098.18
5610.047, 44161.65
5611.975, 44091.59
5613.904, 43903.70
5615.832, 43981.48
5617.761, 44214.89
5619.689, 44030.27
5621.618, 44014.97
5623.546, 43967.33
5625.475, 43875.00
5627.403, 44073.09
5629.332, 43933.96
5631.260, 43710.48
5633.188, 43568.61
5635.117, 43585.48
5637.045, 43725.39
5638.974, 43678.70
5640.902, 43497.33
5642.831, 43713.18
5644.759, 43588.53
5646.688, 43595.16
5648.616, 43779.54
5650.544, 43571.11
5652.473, 43452.85
5654.401, 43495.09
5656.330, 43615.27
5658.258, 43524.00
5660.187, 43571.56
5662.115, 43593.56
5664.044, 43550.05
5665.972, 43547.05
5667.901, 43713.20
5669.829, 43726.32
5671.758, 43582.77
5673.686, 43552.55
5675.615, 43548.34
5677.543, 43392.36
5679.472, 43171.81
5681.400, 43152.22
5683.329, 43232.99
5685.257, 43196.76
5687.186, 43131.47
5689.114, 43331.34
5691.042, 43291.71
5692.971, 43320.09
5694.899, 43363.50
5696.828, 43187.19
5698.756, 43087.83
5700.685, 43029.21
5702.613, 42920.73
5704.542, 42699.09
5706.470, 42757.75
5708.398, 42698.14
5710.327, 42588.57
5712.255, 42571.64
5714.184, 42589.18
5716.112, 42936.42
5718.041, 43104.59
5719.969, 42796.91
5721.898, 42665.62
5723.826, 42725.14
5725.755, 42776.65
5727.683, 42726.84
5729.612, 42650.74
5731.540, 42688.90
5733.469, 42665.37
5735.397, 42545.32
5737.326, 42454.07
5739.254, 42297.82
5741.183, 42260.60
5743.111, 42295.21
5745.040, 42230.35
5746.968, 42268.98
5748.896, 42321.78
5750.825, 42284.92
5752.753, 42100.06
5754.682, 41990.56
5756.610, 42104.64
5758.539, 42153.09
5760.467, 41949.30
5762.396, 41957.38
5764.324, 41811.85
5766.252, 41758.71
5768.181, 41873.91
5770.109, 41871.82
5772.038, 42004.09
5773.966, 41975.85
5775.895, 41782.89
5777.823, 41630.34
5779.752, 41652.06
5781.680, 41712.88
5783.609, 41703.76
5785.537, 41571.07
5787.466, 41474.77
5789.394, 41328.43
5791.323, 41319.77
5793.251, 41509.14
5795.180, 41548.73
5797.108, 41415.50
5799.037, 41376.04
5800.965, 41434.20
5802.894, 41291.86
5804.822, 41232.67
5806.750, 41210.54
5808.679, 41204.94
5810.607, 41209.17
5812.536, 41159.66
5814.464, 41188.46
5816.393, 41138.38
5818.321, 40943.73
5820.250, 40843.41
5822.178, 40939.36
5824.106, 40859.23
5826.035, 40665.65
5827.963, 40737.54
5829.892, 40589.04
5831.820, 40550.51
5833.749, 40544.87
5835.677, 40451.05
5837.606, 40596.97
5839.534, 40594.87
5841.463, 40588.11
5843.391, 40590.37
5845.320, 40289.97
5847.248, 40136.64
5849.177, 40229.89
5851.105, 40382.59
5853.034, 40342.79
5854.962, 40253.75
5856.891, 40020.08
5858.819, 39927.24
5860.748, 40030.01
5862.676, 39927.35
5864.604, 39929.36
5866.533, 39978.15
5868.461, 39987.04
5870.390, 39897.61
5872.318, 39763.25
5874.247, 39808.62
5876.175, 39999.03
5878.104, 40135.30
5880.032, 39781.09
5881.960, 39768.50
5883.889, 39787.55
5885.817, 39707.98
5887.746, 39563.78
5889.674, 39612.85
5891.603, 39549.85
5893.531, 39409.93
5895.460, 39304.57
5897.388, 39427.06
5899.317, 39442.40
5901.245, 39458.38
5903.174, 39437.98
5905.102, 39328.30
5907.031, 39420.80
5908.959, 39332.05
5910.888, 39272.28
5912.816, 39261.68
5914.745, 39091.09
5916.673, 39135.07
5918.602, 39198.30
5920.530, 39113.35
5922.458, 38907.71
5924.387, 39040.14
5926.315, 38918.09
5928.244, 38792.88
5930.172, 38848.59
5932.101, 39088.80
5934.029, 38864.16
5935.958, 38774.04
5937.886, 38813.24
5939.814, 38852.68
5941.743, 38767.39
5943.671, 38747.96
5945.600, 38623.14
5947.528, 38587.04
5949.457, 38723.96
5951.385, 38689.12
5953.314, 38449.27
5955.242, 38381.02
5957.171, 38392.99
5959.099, 38270.88
5961.028, 38333.53
5962.956, 38373.20
5964.885, 38207.77
5966.813, 38011.61
5968.742, 38214.03
5970.670, 38168.99
5972.599, 38040.73
5974.527, 37963.13
5976.456, 37977.24
5978.384, 38044.81
5980.313, 38205.73
5982.241, 38375.75
5984.169, 38325.56
5986.098, 37995.77
5988.026, 37639.34
5989.955, 37734.39
5991.883, 37734.17
5993.812, 37669.92
5995.740, 37700.80
5997.668, 37636.45
5999.597, 37545.62
6001.525, 37533.57
6003.454, 37531.05
6005.382, 37461.18
6007.311, 37547.87
6009.239, 37513.55
6011.168, 37546.37
6013.096, 37539.07
6015.025, 37300.49
6016.953, 37258.23
6018.882, 37224.27
6020.810, 37224.90
6022.739, 37222.43
6024.667, 37151.11
6026.596, 37232.97
6028.524, 37067.55
6030.453, 37044.52
6032.381, 37159.06
6034.310, 37087.98
6036.238, 36995.91
6038.167, 36990.23
6040.095, 36907.26
6042.023, 36727.43
6043.952, 36577.93
6045.880, 36673.16
6047.809, 36608.81
6049.737, 36701.88
6051.666, 36897.55
6053.594, 36826.52
6055.522, 36575.52
6057.451, 36602.54
6059.379, 36505.85
6061.308, 36333.56
6063.236, 36464.66
6065.165, 36443.64
6067.093, 36344.64
6069.022, 36396.11
6070.950, 36489.03
6072.879, 36369.90
6074.807, 36297.14
6076.736, 36202.70
6078.664, 36065.30
6080.593, 35973.38
6082.521, 36009.44
6084.450, 35949.43
6086.378, 36045.75
6088.307, 35969.46
6090.235, 35855.33
6092.164, 35926.76
6094.092, 35939.50
6096.021, 35967.39
6097.949, 35823.02
6099.877, 35648.86
6101.806, 35622.10
6103.734, 35838.21
6105.663, 35776.02
6107.591, 35686.55
6109.520, 35623.38
6111.448, 35574.24
6113.376, 35540.18
6115.305, 35599.67
6117.233, 35564.67
6119.162, 35534.75
6121.090, 35483.97
6123.019, 35250.58
6124.947, 35340.64
6126.876, 35240.28
6128.804, 35169.77
6130.733, 35179.95
6132.661, 35176.30
6134.590, 35072.47
6136.518, 35135.36
6138.447, 35147.00
6140.375, 35155.81
6142.304, 35195.31
6144.232, 35051.52
6146.161, 34864.47
6148.089, 34947.03
6150.018, 35094.26
6151.946, 35106.23
6153.875, 34911.61
6155.803, 34904.45
6157.731, 34873.64
6159.660, 34775.55
6161.588, 34653.82
6163.517, 34565.93
6165.445, 34562.23
6167.374, 34365.64
6169.302, 34431.47
6171.230, 34596.89
6173.159, 34652.68
6175.087, 34568.43
6177.016, 34619.99
6178.944, 34406.72
6180.873, 34358.63
6182.801, 34455.55
6184.730, 34429.94
6186.658, 34201.74
6188.587, 34243.78
6190.515, 34156.08
6192.444, 34087.47
6194.372, 34110.49
6196.301, 34016.59
6198.229, 33970.87
6200.158, 33778.53
6202.086, 33881.26
6204.015, 34047.44
6205.943, 33952.17
6207.872, 33959.92
6209.800, 33814.36
6211.729, 33844.11
6213.657, 34080.14
6215.585, 34190.62
6217.514, 33855.17
6219.442, 33940.26
6221.371, 33819.84
6223.299, 33777.54
6225.228, 33891.67
6227.156, 34017.28
6229.084, 33918.50
6231.013, 33688.50
6232.941, 33594.16
6234.870, 33520.89
6236.798, 33471.69
6238.727, 33495.02
6240.655, 33520.80
6242.584, 33363.86
6244.512, 33389.18
6246.441, 33293.00
6248.369, 33159.91
6250.298, 33258.67
6252.226, 33217.37
6254.155, 33208.77
6256.083, 33222.04
6258.012, 33200.94
6259.940, 33243.82
6261.869, 33421.70
6263.797, 33025.25
6265.726, 32988.91
6267.654, 32794.16
6269.583, 32596.27
6271.511, 32632.22
6273.439, 32843.10
6275.368, 32734.56
6277.296, 32732.36
6279.225, 32830.38
6281.153, 32725.34
6283.082, 32495.08
6285.010, 32653.37
6286.938, 32487.63
6288.867, 32482.51
6290.795, 32455.65
6292.724, 32571.58
6294.652, 32739.31
6296.581, 32404.80
6298.509, 32476.76
6300.438, 32354.63
6302.366, 32345.89
6304.295, 32318.30
6306.223, 32197.22
6308.152, 32186.97
6310.080, 32007.11
6312.009, 32054.95
6313.937, 32072.58
6315.866, 32167.70
6317.794, 32208.34
6319.723, 31874.62
6321.651, 32015.88
6323.580, 31914.34
6325.508, 31917.34
6327.437, 31814.33
6329.365, 31663.75
6331.293, 31745.22
6333.222, 31797.45
6335.150, 31762.63
6337.079, 31578.42
6339.007, 31475.69
6340.936, 31489.35
6342.864, 31557.50
6344.792, 31778.98
6346.721, 31633.20
6348.649, 31659.85
6350.578, 31591.68
6352.506, 31385.33
6354.435, 31196.93
6356.363, 31150.34
6358.292, 31100.26
6360.220, 31178.14
6362.149, 31109.45
6364.077, 31050.63
6366.006, 31059.28
6367.934, 30990.01
6369.863, 31107.32
6371.791, 30909.26
6373.720, 30832.75
6375.648, 30890.85
6377.577, 30835.12
6379.505, 30644.80
6381.434, 30826.89
6383.362, 30574.80
6385.291, 30668.20
6387.219, 30658.77
6389.147, 30631.62
6391.076, 30661.80
6393.004, 30584.66
6394.933, 30592.71
6396.861, 30447.58
6398.790, 30329.88
6400.718, 30376.70
6402.646, 30287.41
6404.575, 30035.96
6406.503, 30327.88
6408.432, 30208.15
6410.360, 30316.46
6412.289, 30180.91
6414.217, 30019.47
6416.146, 29981.82
6418.074, 29943.26
6420.003, 29829.93
6421.931, 30036.97
6423.860, 29848.16
6425.788, 29761.13
6427.717, 29734.61
6429.645, 29649.21
6431.574, 29627.79
6433.502, 29644.01
6435.431, 29587.44
6437.359, 29646.95
6439.288, 29554.04
6441.216, 29407.57
6443.145, 29381.38
6445.073, 29393.25
6447.001, 29188.56
6448.930, 29415.63
6450.858, 29222.83
6452.787, 29118.60
6454.715, 29092.34
6456.644, 28996.82
6458.572, 29106.61
6460.500, 29011.42
6462.429, 29083.57
6464.357, 28915.10
6466.286, 28783.44
6468.214, 28778.33
6470.143, 28792.21
6472.071, 28773.79
6474.000, 28841.43
6475.928, 28678.64
6477.857, 28700.47
6479.785, 28630.55
6481.714, 28630.29
6483.642, 28746.21
6485.571, 28658.50
6487.499, 28564.90
6489.428, 28402.07
6491.356, 28407.13
6493.285, 28433.53
6495.213, 28363.71
6497.142, 28282.27
6499.070, 28310.40
6500.999, 28285.20
6502.927, 28014.01
6504.855, 28010.44
6506.784, 28061.85
6508.712, 28079.06
6510.641, 28019.33
6512.569, 27890.25
6514.498, 27815.88
6516.426, 27820.85
6518.354, 27784.63
6520.283, 27752.64
6522.211, 27654.38
6524.140, 27501.42
6526.068, 27368.74
6527.997, 27336.72
6529.925, 27515.47
6531.854, 27334.63
6533.782, 27307.34
6535.711, 27271.83
6537.639, 27184.95
6539.568, 27139.71
6541.496, 27190.56
6543.425, 27274.47
6545.353, 27187.97
6547.282, 27123.33
6549.210, 27012.82
6551.139, 27057.57
6553.067, 26997.65
6554.996, 26893.87
6556.924, 27048.49
6558.853, 27057.00
6560.781, 26913.25
6562.709, 26747.64
6564.638, 26868.72
6566.566, 26828.56
6568.495, 26644.53
6570.423, 26615.48
6572.352, 26746.33
6574.280, 26519.08
6576.208, 26403.48
6578.137, 26443.80
6580.065, 26462.01
6581.994, 26374.30
6583.922, 26397.86
6585.851, 26480.79
6587.779, 26333.25
6589.708, 26343.32
6591.636, 26246.74
6593.565, 26289.79
6595.493, 26086.79
6597.422, 26026.08
6599.350, 26083.72
6601.279, 26035.01
6603.207, 25961.30
6605.136, 26192.40
6607.064, 26225.24
6608.993, 25916.38
6610.921, 25831.20
6612.850, 25838.12
6614.778, 25705.66
6616.707, 25589.96
6618.635, 25662.77
6620.563, 25641.64
6622.492, 25719.57
6624.420, 25353.75
6626.349, 25366.51
6628.277, 25434.15
6630.206, 25477.09
##END=



