##NAMES=Gillulyite
##RRUFFID=R070433
##IDEAL CHEMISTRY=Tl_2_As_7.5_Sb_0.3_S_13_
##LOCALITY=Mercur Gold mine, Mercur District (Camp Floyd District), Oquirrh Mountains, Tooele County, Utah, USA
##OWNER=RRUFF
##SOURCE=Michael Scott
##DESCRIPTION=Aggregate of vitreous dark red platy crystals associated with colorless barite and calcite
##STATUS=The identification of this mineral has been confirmed by single-crystal X-ray diffraction
##URL=https://www.rruff.net/odr/rruff_sample/R070433
##DIFFRACTION SAMPLE DESCRIPTION=Single crystal, powder profile is calculated
##CELL PARAMETERS=a: 9.576 b: 5.675 c: 21.486 alpha: 90 beta: 100.08 gamma: 90 volume: 1149 crystal system: monoclinic
##FILETYPE=Raman RAW
##RAMAN WAVELENGTH=785

114.4575, 945.6307
116.3860, 1183.677
118.3144, 1532.582
120.2429, 1991.434
122.1714, 2562.082
124.0998, 3281.537
126.0283, 4080.412
127.9568, 4954.274
129.8852, 5875.750
131.8137, 6739.571
133.7422, 7541.703
135.6706, 8343.783
137.5991, 9145.903
139.5276, 9964.279
141.4560, 10846.80
143.3845, 11724.33
145.3130, 12544.00
147.2414, 13291.80
149.1699, 13857.48
151.0984, 14230.21
153.0268, 14401.86
154.9553, 14283.58
156.8838, 14074.65
158.8122, 13835.96
160.7407, 13609.74
162.6692, 13479.99
164.5976, 13457.09
166.5261, 13424.88
168.4546, 13350.90
170.3830, 13310.79
172.3115, 13328.83
174.2400, 13377.28
176.1684, 13436.80
178.0969, 13504.53
180.0254, 13573.14
181.9538, 13666.34
183.8823, 13692.34
185.8108, 13658.29
187.7392, 13542.60
189.6677, 13314.70
191.5962, 13015.58
193.5246, 12666.16
195.4531, 12268.18
197.3816, 11866.39
199.3100, 11473.62
201.2385, 11058.45
203.1670, 10613.68
205.0954, 10173.21
207.0239, 9736.267
208.9524, 9323.074
210.8808, 8943.815
212.8093, 8602.288
214.7378, 8319.872
216.6662, 8091.179
218.5947, 7892.613
220.5232, 7733.329
222.4516, 7601.026
224.3801, 7466.536
226.3086, 7359.950
228.2370, 7311.381
230.1655, 7330.447
232.0940, 7426.643
234.0224, 7604.553
235.9509, 7824.875
237.8794, 8067.606
239.8078, 8366.604
241.7363, 8726.425
243.6648, 9163.072
245.5932, 9685.372
247.5217, 10293.53
249.4502, 10987.69
251.3786, 11763.43
253.3071, 12651.94
255.2356, 13640.85
257.1640, 14758.99
259.0925, 16038.46
261.0210, 17441.46
262.9494, 18954.98
264.8779, 20558.29
266.8064, 22236.92
268.7348, 23990.30
270.6633, 25802.15
272.5918, 27697.50
274.5202, 29579.35
276.4487, 31499.11
278.3772, 33365.73
280.3056, 35118.36
282.2341, 36733.70
284.1626, 38210.57
286.0910, 39526.55
288.0195, 40554.14
289.9480, 41254.94
291.8764, 41805.41
293.8049, 42272.34
295.7334, 42565.17
297.6618, 42658.08
299.5903, 42593.17
301.5188, 42344.30
303.4472, 41943.04
305.3757, 41493.27
307.3042, 40998.44
309.2326, 40490.43
311.1611, 39972.87
313.0896, 39467.55
315.0180, 38980.78
316.9465, 38540.23
318.8750, 38162.51
320.8034, 37813.70
322.7319, 37412.74
324.6604, 37021.34
326.5888, 36860.70
328.5173, 36949.85
330.4458, 37093.30
332.3742, 37228.53
334.3027, 37434.91
336.2312, 37713.37
338.1596, 38042.42
340.0881, 38403.13
342.0166, 38844.36
343.9450, 39405.63
345.8735, 40100.63
347.8020, 40849.86
349.7304, 41778.95
351.6589, 42626.78
353.5874, 43284.31
355.5158, 43806.59
357.4443, 44120.98
359.3728, 44274.56
361.3012, 44299.50
363.2297, 44225.93
365.1582, 44119.89
367.0866, 44021.78
369.0151, 43838.21
370.9436, 43643.53
372.8720, 43552.77
374.8005, 43634.54
376.7290, 43843.59
378.6574, 44177.89
380.5859, 44656.11
382.5144, 45381.46
384.4428, 46121.81
386.3713, 46804.49
388.2998, 47233.37
390.2282, 47057.68
392.1567, 46016.59
394.0852, 44422.97
396.0136, 42229.54
397.9421, 39712.23
399.8706, 37036.83
401.7990, 34223.48
403.7275, 31157.59
405.6560, 28022.40
407.5844, 24692.94
409.5129, 21316.68
411.4414, 18331.74
413.3698, 15658.58
415.2983, 13456.76
417.2268, 11756.99
419.1552, 10257.43
421.0837, 8929.982
423.0122, 7739.893
424.9406, 6669.361
426.8691, 5736.028
428.7976, 4965.095
430.7260, 4335.305
432.6545, 3848.845
434.5830, 3476.887
436.5114, 3173.721
438.4399, 2940.432
440.3684, 2749.994
442.2968, 2612.277
444.2253, 2490.081
446.1538, 2378.222
448.0822, 2282.217
450.0107, 2211.935
451.9392, 2150.281
453.8676, 2084.541
455.7961, 2021.267
457.7246, 1971.751
459.6530, 1930.639
461.5815, 1876.161
463.5100, 1805.160
465.4384, 1756.364
467.3669, 1734.089
469.2954, 1707.207
471.2238, 1672.631
473.1523, 1638.279
475.0808, 1606.653
477.0092, 1572.668
478.9377, 1530.979
480.8662, 1492.210
482.7946, 1466.945
484.7231, 1449.699
486.6516, 1431.055
488.5800, 1410.800
490.5085, 1377.028
492.4370, 1327.904
494.3654, 1292.942
496.2939, 1281.692
498.2224, 1266.446
500.1508, 1231.235
502.0793, 1202.499
504.0078, 1193.716
505.9362, 1188.928
507.8647, 1177.428
509.7932, 1162.677
511.7216, 1148.745
513.6501, 1135.995
515.5786, 1125.689
517.5070, 1117.449
519.4355, 1107.026
521.3640, 1092.750
523.2924, 1082.127
525.2209, 1079.539
527.1494, 1075.955
529.0778, 1067.806
531.0063, 1061.009
532.9348, 1061.041
534.8632, 1060.411
536.7917, 1049.647
538.7202, 1037.516
540.6486, 1035.407
542.5771, 1040.207
544.5056, 1042.531
546.4340, 1042.113
548.3625, 1046.193
550.2910, 1057.054
552.2194, 1066.023
554.1479, 1073.622
556.0764, 1080.482
558.0048, 1085.865
559.9333, 1087.335
561.8618, 1080.134
563.7902, 1077.803
565.7187, 1093.227
567.6472, 1112.255
569.5756, 1123.085
571.5041, 1127.917
573.4326, 1126.940
575.3610, 1120.698
577.2895, 1121.692
579.2180, 1129.977
581.1464, 1130.760
583.0749, 1124.484
585.0034, 1121.087
586.9318, 1121.141
588.8603, 1120.949
590.7888, 1119.603
592.7172, 1119.846
594.6457, 1125.555
596.5742, 1130.925
598.5026, 1126.930
600.4311, 1120.654
602.3596, 1124.935
604.2880, 1134.670
606.2165, 1139.049
608.1450, 1144.745
610.0734, 1159.859
612.0019, 1177.840
613.9304, 1185.146
615.8588, 1183.054
617.7873, 1185.045
619.7158, 1193.784
621.6442, 1199.724
623.5727, 1193.901
625.5012, 1195.155
627.4296, 1214.354
629.3581, 1230.989
631.2866, 1236.452
633.2150, 1238.406
635.1435, 1242.115
637.0720, 1246.723
639.0004, 1254.408
640.9289, 1260.981
642.8574, 1254.251
644.7858, 1242.831
646.7143, 1244.276
648.6428, 1253.302
650.5712, 1252.990
652.4997, 1244.254
654.4282, 1242.347
656.3566, 1248.376
658.2851, 1248.268
660.2136, 1242.795
662.1420, 1238.524
664.0705, 1231.935
665.9990, 1222.434
667.9274, 1215.256
669.8559, 1208.781
671.7844, 1199.517
673.7128, 1186.836
675.6413, 1173.793
677.5698, 1169.176
679.4982, 1174.570
681.4267, 1179.172
683.3552, 1172.869
685.2836, 1155.865
687.2121, 1137.488
689.1406, 1126.929
691.0690, 1121.932
692.9975, 1117.240
694.9260, 1115.138
696.8544, 1114.958
698.7829, 1107.781
700.7114, 1093.114
702.6398, 1085.638
704.5683, 1090.845
706.4968, 1093.349
708.4252, 1085.155
710.3537, 1078.633
712.2822, 1077.070
714.2106, 1069.432
716.1391, 1058.344
718.0676, 1049.823
719.9960, 1043.559
721.9245, 1037.854
723.8530, 1032.926
725.7814, 1028.304
727.7099, 1019.903
729.6384, 1007.286
731.5668, 994.0286
733.4953, 976.9631
735.4238, 954.0607
737.3522, 934.0885
739.2807, 915.1698
741.2092, 890.4503
743.1376, 868.9768
745.0661, 851.2064
746.9946, 825.6808
748.9230, 794.7260
750.8515, 765.8378
752.7800, 741.3947
754.7084, 724.2593
756.6369, 707.1822
758.5654, 681.7429
760.4938, 657.1134
762.4223, 643.2195
764.3508, 634.9500
766.2792, 622.3990
768.2077, 605.6553
770.1362, 592.8105
772.0646, 584.4263
773.9931, 570.3383
775.9216, 551.0961
777.8500, 542.5083
779.7785, 542.2792
781.7070, 534.6284
783.6354, 523.9251
785.5639, 515.0951
787.4924, 506.5103
789.4208, 503.2950
791.3493, 504.7501
793.2778, 499.8693
795.2062, 484.5695
797.1347, 469.3196
799.0632, 462.0182
800.9916, 458.9530
802.9201, 457.2763
804.8486, 455.7198
806.7770, 451.8537
808.7055, 448.5767
810.6340, 447.1337
812.5624, 441.1671
814.4909, 431.8098
816.4194, 425.4445
818.3478, 421.6089
820.2763, 421.5808
822.2048, 425.7520
824.1332, 426.4678
826.0617, 423.0018
827.9902, 416.9997
829.9186, 406.5988
831.8471, 398.9548
833.7756, 396.0179
835.7040, 394.1413
837.6325, 396.1902
839.5610, 398.2243
841.4894, 399.3811
843.4179, 400.4137
845.3464, 393.7224
847.2748, 384.6545
849.2033, 381.8436
851.1318, 382.5649
853.0602, 380.8283
854.9887, 377.6801
856.9172, 380.2728
858.8456, 384.7855
860.7741, 382.4708
862.7026, 377.4726
864.6310, 373.3593
866.5595, 366.1513
868.4880, 360.0361
870.4164, 360.3090
872.3449, 363.5887
874.2734, 365.2511
876.2018, 364.5338
878.1303, 366.3086
880.0588, 367.8193
881.9872, 365.4047
883.9157, 366.3647
885.8442, 369.2757
887.7726, 369.5195
889.7011, 366.7428
891.6296, 357.7243
893.5580, 348.2703
895.4865, 346.6087
897.4150, 348.4161
899.3434, 349.3867
901.2719, 351.7490
903.2004, 353.4248
905.1288, 351.2968
907.0573, 347.6081
908.9858, 345.3102
910.9142, 346.7581
912.8427, 349.3759
914.7712, 347.1977
916.6996, 343.6230
918.6281, 342.9296
920.5566, 342.2870
922.4850, 342.4561
924.4135, 343.7310
926.3420, 344.3200
928.2704, 345.1708
930.1989, 345.1095
932.1274, 344.5519
934.0558, 345.8178
935.9843, 347.5553
937.9128, 346.3406
939.8412, 342.0590
941.7697, 339.4612
943.6982, 340.4942
945.6266, 342.7686
947.5551, 344.2453
949.4836, 347.2808
951.4120, 352.8920
953.3405, 351.6360
955.2690, 342.5477
957.1974, 335.5680
959.1259, 332.2319
961.0544, 334.0501
962.9828, 340.0893
964.9113, 340.2789
966.8398, 334.9535
968.7682, 333.3131
970.6967, 334.7000
972.6252, 334.1356
974.5536, 331.9061
976.4821, 327.4604
978.4106, 322.2887
980.3391, 324.5309
982.2675, 332.5994
984.1960, 338.7018
986.1245, 342.5188
988.0529, 343.8805
989.9814, 343.1700
991.9099, 341.3008
993.8383, 338.8109
995.7668, 338.6037
997.6953, 339.2017
999.6237, 332.8766
1001.552, 322.5904
1003.481, 320.2149
1005.409, 323.1946
1007.338, 323.1882
1009.266, 320.5098
1011.195, 314.6967
1013.123, 308.3507
1015.051, 309.4552
1016.980, 314.7899
1018.908, 318.8180
1020.837, 320.6889
1022.765, 314.5444
1024.694, 305.9810
1026.622, 307.8129
1028.551, 313.6920
1030.479, 312.7620
1032.408, 307.5401
1034.336, 302.0933
1036.265, 300.9101
1038.193, 308.6366
1040.121, 315.9950
1042.050, 313.1450
1043.978, 307.4049
1045.907, 307.5799
1047.835, 309.7793
1049.764, 306.1120
1051.692, 302.8763
1053.621, 311.7593
1055.549, 317.7088
1057.478, 306.1525
1059.406, 295.4011
1061.335, 295.4749
1063.263, 297.8973
1065.192, 300.0069
1067.120, 300.7928
1069.048, 298.8769
1070.977, 299.9327
1072.905, 308.6558
1074.834, 312.5587
1076.762, 304.7706
1078.691, 297.4238
1080.619, 294.3680
1082.548, 293.7645
1084.476, 295.9956
1086.405, 296.9690
1088.333, 294.8542
1090.262, 293.7918
1092.190, 296.8169
1094.119, 298.2551
1096.047, 294.7301
1097.975, 292.9547
1099.904, 294.2597
1101.832, 295.3172
1103.761, 296.5406
1105.689, 302.9236
1107.618, 312.0830
1109.546, 309.7829
1111.475, 299.9386
1113.403, 293.1516
1115.332, 286.4544
1117.260, 283.3672
1119.189, 287.4134
1121.117, 289.8436
1123.046, 286.6906
1124.974, 283.2052
1126.902, 281.0260
1128.831, 281.0845
1130.759, 285.2562
1132.688, 291.6490
1134.616, 292.5027
1136.545, 286.2449
1138.473, 281.1130
1140.402, 280.0993
1142.330, 280.6638
1144.259, 278.5883
1146.187, 276.8216
1148.116, 282.5032
1150.044, 285.4084
1151.973, 275.4839
1153.901, 271.0514
1155.829, 280.6491
1157.758, 286.9247
1159.686, 285.7089
1161.615, 283.6894
1163.543, 282.5384
1165.472, 283.3049
1167.400, 284.3514
1169.329, 281.0612
1171.257, 274.5173
1173.186, 276.2672
1175.114, 286.6816
1177.043, 289.5453
1178.971, 283.8694
1180.900, 279.5353
1182.828, 277.2891
1184.756, 276.4596
1186.685, 276.2754
1188.613, 272.9293
1190.542, 269.0876
1192.470, 271.6632
1194.399, 275.4383
1196.327, 272.2138
1198.256, 268.6673
1200.184, 273.1369
1202.113, 276.1797
1204.041, 268.4884
1205.970, 263.6272
1207.898, 271.3629
1209.827, 276.2851
1211.755, 267.9757
1213.683, 266.1207
1215.612, 279.8930
1217.540, 286.6012
1219.469, 284.5036
1221.397, 278.5757
1223.326, 265.1302
1225.254, 261.4831
1227.183, 269.0770
1229.111, 271.1006
1231.040, 269.2059
1232.968, 267.8359
1234.897, 265.5006
1236.825, 267.6114
1238.754, 269.4914
1240.682, 260.6546
1242.610, 254.4471
1244.539, 258.6464
1246.467, 263.5222
1248.396, 270.9645
1250.324, 274.7592
1252.253, 269.6442
1254.181, 262.2875
1256.110, 249.5153
1258.038, 244.6492
1259.967, 254.9913
1261.895, 260.5788
1263.824, 258.8744
1265.752, 259.3010
1267.681, 262.6202
1269.609, 263.0503
1271.537, 260.9622
1273.466, 257.4039
1275.394, 254.3557
1277.323, 253.3274
1279.251, 253.4071
1281.180, 256.1744
1283.108, 261.2451
1285.037, 270.8471
1286.965, 275.4245
1288.894, 268.1236
1290.822, 264.6177
1292.751, 270.4641
1294.679, 271.0464
1296.608, 263.9932
1298.536, 263.2738
1300.464, 267.6095
1302.393, 260.6194
1304.321, 248.3123
1306.250, 251.4019
1308.178, 260.5807
1310.107, 260.6217
1312.035, 257.8264
1313.964, 257.9367
1315.892, 256.6916
1317.821, 249.9612
1319.749, 247.2485
1321.678, 254.0223
1323.606, 254.9168
1325.535, 244.3963
1327.463, 246.7484
1329.391, 264.9847
1331.320, 266.0784
1333.248, 252.1578
1335.177, 250.6228
1337.105, 255.2010
1339.034, 251.7061
1340.962, 247.0466
1342.891, 251.2195
1344.819, 253.3678
1346.748, 241.1873
1348.676, 234.5794
1350.605, 244.4399
1352.533, 248.4963
1354.462, 241.1597
1356.390, 242.8540
1358.318, 255.1151
1360.247, 252.2093
1362.175, 237.9389
1364.104, 241.5056
1366.032, 252.4173
1367.961, 248.4788
1369.889, 239.7603
1371.818, 236.7151
1373.746, 234.5862
1375.675, 228.7999
1377.603, 226.1425
1379.532, 230.6338
1381.460, 233.2820
1383.389, 233.1871
1385.317, 231.4757
1387.245, 228.5645
1389.174, 225.9174
1391.102, 225.4653
1393.031, 236.2336
1394.959, 246.4254
1396.888, 239.4108
1398.816, 230.8078
1400.745, 232.4965
1402.673, 232.3022
1404.602, 221.8393
1406.530, 219.1676
1408.459, 228.5261
1410.387, 230.2033
1412.316, 224.8663
1414.244, 224.8375
1416.172, 227.7117
1418.101, 226.1533
1420.029, 225.8028
1421.958, 236.0291
1423.886, 242.7494
1425.815, 236.3600
1427.743, 229.0988
1429.672, 223.6400
1431.600, 218.7921
1433.529, 213.8099
1435.457, 218.2424
1437.386, 229.1415
1439.314, 233.3210
1441.243, 233.0656
1443.171, 229.7110
1445.099, 226.9252
1447.028, 227.2295
1448.956, 228.6358
1450.885, 231.7527
1452.813, 229.8652
1454.742, 220.6012
1456.670, 217.6725
1458.599, 220.4041
1460.527, 224.5693
1462.456, 227.7719
1464.384, 222.6079
1466.313, 218.3327
1468.241, 223.1481
1470.170, 229.0600
1472.098, 234.6314
1474.026, 234.6969
1475.955, 228.0697
1477.883, 221.6829
1479.812, 216.4443
1481.740, 216.6671
1483.669, 218.4529
1485.597, 213.3304
1487.526, 208.7323
1489.454, 211.2733
1491.383, 214.4329
1493.311, 216.6620
1495.240, 219.3596
1497.168, 222.5613
1499.097, 220.6207
1501.025, 214.8137
1502.953, 207.5260
1504.882, 203.5894
1506.810, 214.2453
1508.739, 223.3591
1510.667, 219.6749
1512.596, 215.5261
1514.524, 212.7263
1516.453, 211.0661
1518.381, 210.5295
1520.310, 211.7816
1522.238, 213.6066
1524.167, 214.5469
1526.095, 213.5468
1528.024, 207.8393
1529.952, 203.3220
1531.880, 201.8813
1533.809, 202.3071
1535.737, 204.4629
1537.666, 205.8967
1539.594, 207.2201
1541.523, 211.6622
1543.451, 215.5261
1545.380, 212.5758
1547.308, 211.6521
1549.237, 220.3422
1551.165, 224.3363
1553.094, 222.1768
1555.022, 213.3529
1556.951, 201.9325
1558.879, 207.0220
1560.807, 216.6798
1562.736, 217.7600
1564.664, 216.4392
1566.593, 213.2634
1568.521, 214.4357
1570.450, 222.0676
1572.378, 228.1460
1574.307, 232.4551
1576.235, 233.3375
1578.164, 232.3176
1580.092, 230.1089
1582.021, 229.2066
1583.949, 233.5024
1585.878, 230.7625
1587.806, 216.7632
1589.734, 211.3817
1591.663, 212.3125
1593.591, 211.1336
1595.520, 209.5814
1597.448, 209.9455
1599.377, 209.4732
1601.305, 207.2959
1603.234, 202.4221
1605.162, 194.4216
1607.091, 193.3391
1609.019, 196.3569
1610.948, 196.0778
1612.876, 195.8362
1614.805, 198.6288
1616.733, 201.2945
1618.661, 203.3650
1620.590, 200.4731
1622.518, 193.4582
1624.447, 194.5750
1626.375, 198.8576
1628.304, 198.8144
1630.232, 196.8687
1632.161, 194.0070
1634.089, 190.3407
1636.018, 185.8745
1637.946, 184.0265
1639.875, 184.3864
1641.803, 187.0309
1643.732, 188.3925
1645.660, 182.4720
1647.589, 179.3271
1649.517, 182.1484
1651.445, 182.3772
1653.374, 179.9777
1655.302, 180.3260
1657.231, 182.1936
1659.159, 184.0627
1661.088, 186.0773
1663.016, 190.3709
1664.945, 187.2273
1666.873, 176.1933
1668.802, 168.9390
1670.730, 166.3769
1672.659, 171.3306
1674.587, 176.9298
1676.516, 179.3000
1678.444, 177.5264
1680.372, 170.9903
1682.301, 167.9532
1684.229, 168.5016
1686.158, 173.8494
1688.086, 178.2756
1690.015, 173.6300
1691.943, 172.7973
1693.872, 180.5667
1695.800, 187.5817
1697.729, 192.2872
1699.657, 185.2606
1701.586, 177.0626
1703.514, 181.1230
1705.443, 182.5087
1707.371, 170.4624
1709.299, 171.8454
1711.228, 183.8031
1713.156, 176.8572
1715.085, 166.3221
1717.013, 170.9785
1718.942, 173.5583
1720.870, 165.5323
1722.799, 160.0953
1724.727, 157.9731
1726.656, 162.7290
1728.584, 168.5857
1730.513, 168.6579
1732.441, 168.8941
1734.370, 172.8704
1736.298, 167.6431
1738.226, 155.9260
1740.155, 164.2372
1742.083, 173.9111
1744.012, 162.9509
1745.940, 151.3431
1747.869, 144.3881
1749.797, 146.0832
1751.726, 153.9359
1753.654, 158.7046
1755.583, 160.5678
1757.511, 158.6569
1759.440, 156.7804
1761.368, 155.7337
1763.297, 158.8391
1765.225, 163.0687
1767.153, 157.2427
1769.082, 150.4168
1771.010, 150.2544
1772.939, 145.8663
1774.867, 135.7170
1776.796, 140.9599
1778.724, 152.3365
1780.653, 149.7865
1782.581, 144.1471
1784.510, 139.1569
1786.438, 143.0143
1788.367, 153.9650
1790.295, 146.6697
1792.224, 135.5011
1794.152, 141.4476
1796.080, 149.5047
1798.009, 155.7529
1799.937, 155.5960
1801.866, 151.2200
1803.794, 152.4318
1805.723, 153.7309
1807.651, 147.4365
1809.580, 147.0071
1811.508, 154.4853
1813.437, 162.3512
1815.365, 165.0345
1817.294, 147.9624
1819.222, 134.6218
1821.151, 140.8911
1823.079, 144.5363
1825.007, 145.5645
1826.936, 150.1958
1828.864, 153.7336
1830.793, 151.0216
1832.721, 146.8112
1834.650, 141.3936
1836.578, 145.0602
1838.507, 151.7708
1840.435, 148.5377
1842.364, 143.8199
1844.292, 140.6667
1846.221, 140.4710
1848.149, 142.7053
1850.078, 141.6764
1852.006, 141.3198
1853.934, 146.4028
1855.863, 148.7011
1857.791, 146.5251
1859.720, 143.8981
1861.648, 140.8210
1863.577, 137.3995
1865.505, 137.1635
1867.434, 141.9227
1869.362, 146.1789
1871.291, 148.3319
1873.219, 142.0965
1875.148, 135.3629
1877.076, 132.7227
1879.005, 131.2548
1880.933, 130.1989
1882.861, 132.2474
1884.790, 135.2748
1886.718, 136.0992
1888.647, 134.6198
1890.575, 131.9181
1892.504, 127.3441
1894.432, 122.6686
1896.361, 124.1874
1898.289, 123.7219
1900.218, 119.1475
1902.146, 124.1403
1904.075, 133.4403
1906.003, 128.8759
1907.932, 125.1033
1909.860, 131.8407
1911.788, 133.4223
1913.717, 129.2410
1915.645, 129.1404
1917.574, 131.1890
1919.502, 132.7818
1921.431, 133.6618
1923.359, 132.9230
1925.288, 127.8234
1927.216, 124.3317
1929.145, 127.6039
1931.073, 128.0698
1933.002, 125.1891
1934.930, 129.8371
1936.859, 135.0972
1938.787, 127.7073
1940.715, 126.4102
1942.644, 136.4250
1944.572, 136.7570
1946.501, 131.3968
1948.429, 126.4125
1950.358, 122.4798
1952.286, 119.2979
1954.215, 120.0426
1956.143, 122.5028
1958.072, 124.1367
1960.000, 125.0244
1961.929, 124.2481
1963.857, 124.6385
1965.786, 125.7622
1967.714, 129.8816
1969.642, 128.2696
1971.571, 114.8642
1973.499, 108.7519
1975.428, 107.8299
1977.356, 113.2836
1979.285, 118.5098
1981.213, 118.3084
1983.142, 113.4769
1985.070, 106.3883
1986.999, 99.72355
1988.927, 98.68545
1990.856, 107.4920
1992.784, 113.2066
1994.713, 114.0458
1996.641, 104.8801
1998.569, 102.1880
2000.498, 112.8577
2002.426, 113.1188
2004.355, 107.6834
2006.283, 105.4446
2008.212, 104.0318
2010.140, 104.0996
2012.069, 104.9033
2013.997, 105.8572
2015.926, 108.5791
2017.854, 105.7087
2019.783, 94.98720
2021.711, 99.62360
2023.640, 109.3602
2025.568, 102.3101
2027.496, 98.95293
2029.425, 104.6535
2031.353, 103.4035
2033.282, 98.55381
2035.210, 93.87929
2037.139, 94.92333
2039.067, 101.7609
2040.996, 100.8057
2042.924, 98.53439
2044.853, 106.1834
2046.781, 106.4464
2048.709, 98.38705
2050.638, 92.20822
2052.566, 88.99442
2054.495, 91.83788
2056.423, 94.16207
2058.352, 95.49640
2060.280, 101.0895
2062.209, 104.7355
2064.137, 100.7847
2066.066, 99.43711
2067.994, 99.04314
2069.923, 95.04498
2071.851, 90.93911
2073.780, 87.74532
2075.708, 86.50206
2077.636, 87.69447
2079.565, 92.93330
2081.493, 98.18848
2083.422, 102.8431
2085.350, 95.21474
2087.279, 89.75195
2089.207, 105.3290
2091.136, 101.4640
2093.064, 79.48131
2094.993, 84.36493
2096.921, 91.74532
2098.850, 86.86880
2100.778, 86.06499
2102.707, 87.53069
2104.635, 81.12097
2106.563, 78.25128
2108.492, 83.32140
2110.420, 79.26921
2112.349, 73.44533
2114.277, 77.63755
2116.206, 77.77288
2118.134, 72.50278
2120.063, 81.34622
2121.991, 88.28680
2123.920, 82.05184
2125.848, 76.63794
2127.777, 74.63328
2129.705, 81.15591
2131.634, 83.75721
2133.562, 78.43563
2135.490, 78.18089
2137.419, 79.91594
2139.347, 76.21803
2141.276, 77.57516
2143.204, 83.87610
2145.133, 76.21500
2147.061, 69.94757
2148.990, 74.45021
2150.918, 80.88394
2152.847, 86.64318
2154.775, 85.45341
2156.704, 84.66040
2158.632, 86.43529
2160.561, 84.13810
2162.489, 80.12224
2164.417, 76.41051
2166.346, 76.75941
2168.274, 79.17505
2170.203, 80.32472
2172.131, 80.29736
2174.060, 77.37875
2175.988, 77.05880
2177.917, 78.02842
2179.845, 76.95389
2181.774, 77.47447
2183.702, 78.95203
2185.631, 76.70258
2187.559, 72.17007
2189.488, 64.46813
2191.416, 64.47292
2193.344, 68.86403
2195.273, 72.55043
2197.201, 71.77542
2199.130, 68.45882
2201.058, 71.99386
2202.987, 74.27177
2204.915, 68.38487
2206.844, 67.27720
2208.772, 69.23144
2210.701, 65.63873
2212.629, 61.74999
2214.558, 59.50391
2216.486, 63.58590
2218.415, 66.30041
2220.343, 65.07672
2222.271, 71.02415
2224.200, 73.41273
2226.128, 66.22771
2228.057, 67.45736
2229.985, 71.93012
2231.914, 65.90325
2233.842, 63.41730
2235.771, 67.23528
2237.699, 66.38876
2239.628, 65.79800
2241.556, 70.68864
2243.485, 72.57787
2245.413, 73.30090
2247.342, 77.37987
2249.270, 71.55094
2251.198, 58.73679
2253.127, 59.63011
2255.055, 64.74788
2256.984, 71.29910
2258.912, 74.53077
2260.841, 72.66410
2262.769, 63.45160
2264.698, 59.26706
2266.626, 59.94456
2268.555, 60.49650
2270.483, 62.86311
2272.412, 68.41556
2274.340, 64.10770
2276.269, 58.03522
2278.197, 62.75372
2280.125, 66.39837
2282.054, 67.60358
2283.982, 62.75777
2285.911, 58.70528
2287.839, 62.48662
2289.768, 67.75973
2291.696, 69.91483
2293.625, 65.40523
2295.553, 60.87178
2297.482, 63.26244
2299.410, 70.25061
2301.339, 64.34797
2303.267, 54.34507
2305.196, 54.11470
2307.124, 56.14264
2309.052, 58.28322
2310.981, 54.62273
2312.909, 50.04113
2314.838, 48.35549
2316.766, 48.61349
2318.695, 50.36074
2320.623, 52.17651
2322.552, 52.60027
2324.480, 55.36891
2326.409, 58.35732
2328.337, 56.85382
2330.266, 55.73042
2332.194, 59.13942
2334.123, 58.98994
2336.051, 56.14583
2337.979, 52.66216
2339.908, 50.96175
2341.836, 52.61981
2343.765, 48.06446
2345.693, 45.66344
2347.622, 55.44068
2349.550, 57.74420
2351.479, 53.30347
2353.407, 53.85708
2355.336, 55.49664
2357.264, 50.67672
2359.193, 48.93563
2361.121, 49.05260
2363.050, 44.85892
2364.978, 45.95536
2366.906, 50.63850
2368.835, 59.87111
2370.763, 52.90962
2372.692, 45.09368
2374.620, 50.90778
2376.549, 52.74514
2378.477, 50.27260
2380.406, 48.56419
2382.334, 47.44733
2384.263, 45.67874
2386.191, 45.95856
2388.120, 50.26009
2390.048, 50.74967
2391.977, 54.47710
2393.905, 57.35617
2395.833, 52.18273
2397.762, 43.73476
2399.690, 43.24028
2401.619, 51.49653
2403.547, 53.81880
2405.476, 52.71349
2407.404, 53.67681
2409.333, 49.90550
2411.261, 43.28045
2413.190, 41.53282
2415.118, 39.57508
2417.047, 39.87777
2418.975, 50.08236
2420.904, 46.84245
2422.832, 42.00499
2424.760, 49.07272
2426.689, 47.43827
2428.617, 43.84605
2430.546, 49.97210
2432.474, 48.89906
2434.403, 41.08796
2436.331, 41.33629
2438.260, 44.95292
2440.188, 49.18384
2442.117, 43.91558
2444.045, 39.32140
2445.974, 39.10075
2447.902, 43.00129
2449.831, 41.80978
2451.759, 38.05843
2453.688, 40.52792
2455.616, 43.64520
2457.544, 49.47087
2459.473, 42.36264
2461.401, 39.06436
2463.330, 46.78765
2465.258, 44.70395
2467.187, 39.08918
2469.115, 35.43361
2471.044, 38.52517
2472.972, 45.40331
2474.901, 44.03867
2476.829, 44.59764
2478.758, 50.02953
2480.686, 44.43692
2482.615, 38.91863
2484.543, 37.94283
2486.471, 37.62179
2488.400, 33.86880
2490.328, 30.94591
2492.257, 37.20613
2494.185, 43.67006
2496.114, 45.85185
2498.042, 38.12194
2499.971, 36.79143
2501.899, 38.26398
2503.828, 34.01985
2505.756, 33.26596
2507.685, 34.44612
2509.613, 44.38152
2511.542, 43.92657
2513.470, 35.14814
2515.398, 27.48505
2517.327, 32.88881
2519.255, 39.48037
2521.184, 33.10287
2523.112, 32.53513
2525.041, 35.86753
2526.969, 31.37263
2528.898, 31.14504
2530.826, 35.59173
2532.755, 33.51721
2534.683, 36.71872
2536.612, 41.86693
2538.540, 29.46766
2540.469, 30.68826
2542.397, 38.99680
2544.325, 34.09814
2546.254, 33.89584
2548.182, 35.93928
2550.111, 32.04433
2552.039, 31.57567
2553.968, 33.25151
2555.896, 33.94778
2557.825, 36.31395
2559.753, 37.41267
2561.682, 34.51568
2563.610, 34.89935
2565.539, 35.19328
2567.467, 33.47303
2569.396, 32.22594
2571.324, 32.71255
2573.252, 37.62344
2575.181, 34.94638
2577.109, 31.91421
2579.038, 36.91276
2580.966, 32.31337
2582.895, 25.63711
2584.823, 24.54521
2586.752, 24.76589
2588.680, 25.86789
2590.609, 28.26514
2592.537, 29.10909
2594.466, 29.20865
2596.394, 29.29583
2598.323, 30.57547
2600.251, 33.04585
2602.179, 35.96395
2604.108, 28.32785
2606.036, 25.08494
2607.965, 31.71175
2609.893, 31.99707
2611.822, 33.99221
2613.750, 38.71798
2615.679, 27.01289
2617.607, 22.38214
2619.536, 29.00756
2621.464, 28.49328
2623.393, 26.12230
2625.321, 24.56153
2627.250, 27.41048
2629.178, 25.42459
2631.106, 20.01680
2633.035, 19.25151
2634.963, 22.87717
2636.892, 28.11262
2638.820, 29.39536
2640.749, 29.27366
2642.677, 28.61927
2644.606, 26.94179
2646.534, 26.53251
2648.463, 27.26741
2650.391, 29.72091
2652.320, 30.88404
2654.248, 30.24448
2656.177, 31.88752
2658.105, 29.65513
2660.033, 28.09870
2661.962, 29.34070
2663.890, 31.82244
2665.819, 29.30174
2667.747, 23.26619
2669.676, 23.97948
2671.604, 26.07447
2673.533, 28.66962
2675.461, 27.90672
2677.390, 31.41735
2679.318, 34.26008
2681.247, 25.69722
2683.175, 20.04484
2685.104, 18.00855
2687.032, 22.71115
2688.960, 28.61708
2690.889, 27.55621
2692.817, 24.02580
2694.746, 26.77182
2696.674, 28.02384
2698.603, 23.92591
2700.531, 24.89679
2702.460, 25.79762
2704.388, 21.40887
2706.317, 22.97866
2708.245, 26.27046
2710.174, 24.72331
2712.102, 18.91596
2714.031, 23.12785
2715.959, 28.15891
2717.887, 28.28472
2719.816, 28.76022
2721.744, 23.96150
2723.673, 20.69916
2725.601, 20.55776
2727.530, 19.46680
2729.458, 28.25888
2731.387, 26.30242
2733.315, 20.50812
2735.244, 24.02670
2737.172, 27.47257
2739.101, 31.35938
2741.029, 33.61786
2742.958, 27.26716
2744.886, 23.43678
2746.814, 18.57404
2748.743, 14.35236
2750.671, 19.87878
2752.600, 27.50012
2754.528, 27.35623
2756.457, 20.16070
2758.385, 19.93795
2760.314, 26.93089
2762.242, 25.27603
2764.171, 21.05698
2766.099, 19.81532
2768.028, 21.42030
2769.956, 21.89393
2771.885, 23.47436
2773.813, 28.31246
2775.741, 26.01033
2777.670, 21.57506
2779.598, 21.85362
2781.527, 23.03851
2783.455, 22.42819
2785.384, 25.74809
2787.312, 22.88821
2789.241, 16.72442
2791.169, 17.88584
2793.098, 23.65754
2795.026, 18.19173
2796.955, 17.08959
2798.883, 25.41633
2800.812, 23.73628
2802.740, 17.51227
2804.668, 17.18486
2806.597, 18.15726
2808.525, 9.532863
2810.454, 5.742654
2812.382, 15.37216
2814.311, 14.12443
2816.239, 12.02711
2818.168, 17.35045
2820.096, 15.08667
2822.025, 14.49473
2823.953, 16.26827
2825.882, 12.45215
2827.810, 9.324660
2829.739, 10.21949
2831.667, 14.60252
2833.595, 11.32897
2835.524, 11.96520
2837.452, 20.73967
2839.381, 17.25092
2841.309, 16.51490
2843.238, 20.49951
2845.166, 16.52901
2847.095, 19.50149
2849.023, 22.35925
2850.952, 20.35387
2852.880, 18.82142
2854.809, 19.75282
2856.737, 19.82722
2858.666, 26.17246
2860.594, 22.01824
2862.522, 15.35701
2864.451, 15.29026
2866.379, 20.96589
2868.308, 24.92068
2870.236, 17.74095
2872.165, 15.08127
2874.093, 14.20230
2876.022, 16.67825
2877.950, 17.03831
2879.879, 15.27936
2881.807, 12.62745
2883.736, 10.87336
2885.664, 14.33553
2887.593, 15.60288
2889.521, 14.93910
2891.449, 12.21537
2893.378, 9.282598
2895.306, 12.85719
2897.235, 19.93273
2899.163, 21.99700
2901.092, 13.87705
2903.020, 11.97315
2904.949, 13.98988
2906.877, 11.86432
2908.806, 9.630412
2910.734, 11.36213
2912.663, 9.937615
2914.591, 13.67644
2916.520, 15.07849
2918.448, 16.28547
2920.376, 13.85325
2922.305, 9.243333
2924.233, 15.73316
2926.162, 20.00391
2928.090, 13.93480
2930.019, 7.510003
2931.947, 9.842188
2933.876, 11.39819
2935.804, 17.61757
2937.733, 22.04088
2939.661, 21.19400
2941.590, 15.54326
2943.518, 14.66609
2945.447, 7.280842
2947.375, 10.42923
2949.303, 17.38486
2951.232, 18.61881
2953.160, 20.09598
2955.089, 21.59278
2957.017, 22.41824
2958.946, 17.44925
2960.874, 17.70021
2962.803, 19.95037
2964.731, 17.25566
2966.660, 10.99611
2968.588, 8.523638
2970.517, 11.45516
2972.445, 16.30643
2974.374, 8.695826
2976.302, 11.30944
2978.230, 12.14833
2980.159, 5.753170
2982.087, 3.783570
2984.016, 8.455329
2985.944, 19.44031
2987.873, 19.06135
2989.801, 12.83433
2991.730, 8.814159
2993.658, 8.941585
2995.587, 10.78752
2997.515, 7.452677
2999.444, 3.982905
3001.372, 3.340545
3003.301, 10.42707
3005.229, 9.941211
3007.157, 4.502392
3009.086, 7.560367
3011.014, 20.16582
3012.943, 20.65005
3014.871, 12.82364
3016.800, 9.943169
3018.728, 14.20788
3020.657, 14.00337
3022.585, 9.293059
3024.514, 17.76098
3026.442, 18.02090
3028.371, 14.72817
3030.299, 6.921879
3032.228, 6.942213
3034.156, 8.724915
3036.084, 11.41864
3038.013, 15.77391
3039.941, 11.57087
3041.870, 13.96258
3043.798, 18.05054
3045.727, 10.20210
3047.655, 8.159762
3049.584, 11.68383
3051.512, 15.69118
3053.441, 8.136690
3055.369, 9.854168
3057.298, 13.40256
3059.226, 11.79472
3061.155, 10.51362
3063.083, 8.197221
3065.011, 6.759583
3066.940, 7.240912
3068.868, 9.869266
3070.797, 10.28055
3072.725, 4.071502
3074.654, -11.47604
3076.582, 2.483229
3078.511, 9.537937
3080.439, 5.288951
3082.368, -2.380570
3084.296, 3.574872
3086.225, 0.9836705
3088.153, -4.073198
3090.082, 3.130701
3092.010, 10.35563
3093.938, 11.92928
3095.867, 8.779105
3097.795, 5.734467
3099.724, 3.156039
3101.652, 4.288493
3103.581, 10.36077
3105.509, 21.90575
3107.438, 10.48394
3109.366, 2.356774
3111.295, 7.930676
3113.223, 25.36418
3115.152, 16.89465
3117.080, 4.901427
3119.009, 2.675980
3120.937, 16.32956
3122.865, 16.54644
3124.794, 9.243550
3126.722, 2.700927
3128.651, 6.775424
3130.579, 9.394116
3132.508, 10.89483
3134.436, 12.70950
3136.365, 24.00000
3138.293, 13.20387
3140.222, 7.285069
3142.150, 10.55959
3144.079, 9.802450
3146.007, 11.18034
3147.936, 12.36635
3149.864, 12.61312
3151.792, 10.18262
3153.721, 15.86308
3155.649, 16.16903
3157.578, 10.76324
3159.506, 3.705256
3161.435, 6.905987
3163.363, 6.223706
3165.292, 2.330854
3167.220, 3.861157
3169.149, 7.836640
3171.077, 5.234741
3173.006, 3.333216
3174.934, 12.85514
3176.863, 8.732721
3178.791, 8.508403
3180.719, 11.63846
3182.648, 9.871473
3184.576, 4.814628
3186.505, 13.09732
3188.433, 19.69868
3190.362, 12.19554
3192.290, 7.801328
3194.219, 10.06891
3196.147, 11.95300
3198.076, 10.50548
3200.004, 14.62836
3201.933, 14.00576
3203.861, 15.16350
3205.790, 20.09127
3207.718, 10.77433
3209.646, 4.508931
3211.575, 6.153988
3213.503, 7.810301
3215.432, 4.481660
3217.360, 13.56706
3219.289, 21.09169
3221.217, 23.28145
3223.146, 13.16363
3225.074, 6.601452
3227.003, 13.27242
3228.931, 17.12517
3230.860, 12.20662
3232.788, 17.48769
3234.717, 8.268579
3236.645, 6.578037
3238.573, 12.11046
3240.502, -1.454936
3242.430, 4.132561
3244.359, 11.47730
3246.287, 8.068194
3248.216, -4.193295
3250.144, 10.49197
3252.073, 11.41020
3254.001, 4.180627
3255.930, 1.298424
3257.858, 12.24629
3259.787, 13.81718
3261.715, 16.87984
3263.644, 18.41829
3265.572, 6.176542
3267.500, 6.134785
3269.429, 5.704433
3271.357, 0.5618353
3273.286, -1.721488
3275.214, 0.8680984
3277.143, -3.240906
3279.071, 1.153278
3281.000, 12.42433
3282.928, 2.744608
3284.857, 11.40084
3286.785, 14.68843
3288.714, 9.678640
3290.642, 7.445839
3292.571, 9.806460
3294.499, 8.572112
3296.427, 7.953276
3298.356, 11.48138
3300.284, 21.76273
3302.213, 12.60108
3304.141, 7.262914
3306.070, 12.80531
3307.998, 19.75090
3309.927, 11.80062
3311.855, 11.34201
3313.784, 19.12196
3315.712, 24.28856
3317.641, 20.40894
3319.569, 16.83987
3321.498, 8.024600
3323.426, 2.992678
3325.354, 13.19568
3327.283, 4.108880
3329.211, 12.61302
3331.140, 4.224518
3333.068, -12.82590
3334.997, 6.001219
3336.925, 1.523162
3338.854, -1.886745
3340.782, -3.423270
3342.711, -1.421721
3344.639, 7.105513
3346.568, 4.563440
3348.496, 0.8537141
3350.425, 2.594000
3352.353, 10.20822
3354.281, 1.794443
3356.210, -4.796270
3358.138, -2.671282
3360.067, 5.426150
3361.995, 12.13124
3363.924, -3.130238
3365.852, -2.780326
3367.781, 8.245605
3369.709, 18.06910
3371.638, 24.24822
3373.566, 20.08929
3375.495, 6.739884
3377.423, -2.990729
3379.352, -0.2710288
3381.280, 8.540570
3383.208, 4.242302
3385.137, 6.634286
3387.065, 14.22434
3388.994, 16.75224
3390.922, 15.47382
3392.851, 16.24776
3394.779, 12.82453
3396.708, 8.396273
3398.636, 13.37937
3400.565, 16.46327
3402.493, 4.010250
3404.422, 3.725969
3406.350, 17.49586
3408.279, 24.49805
3410.207, 11.06178
3412.135, 8.590058
3414.064, 3.955025
3415.992, -2.211446
3417.921, 8.783031
3419.849, 5.618530
3421.778, 3.638508
3423.706, 4.101469
3425.635, 7.111160
3427.563, 12.85961
3429.492, 1.034082
3431.420, 2.724048
3433.349, 10.76607
3435.277, 11.89720
3437.206, -0.9932813
3439.134, 9.359061
3441.063, 13.89701
3442.991, 14.44720
3444.919, 8.520895
3446.848, -9.465156
3448.776, 10.27725
3450.705, 16.34775
3452.633, 18.62367
3454.562, 18.99248
3456.490, 8.937745
3458.419, -0.3542233
3460.347, 12.44843
3462.276, 14.52076
3464.204, 9.385548
3466.133, 15.85490
3468.061, 15.14807
3469.990, 19.91564
3471.918, 16.02294
3473.846, 16.19083
3475.775, 29.71155
3477.703, 19.19127
3479.632, 20.84762
3481.560, 20.13475
3483.489, 19.95767
3485.417, 19.97602
3487.346, 0.5665316
3489.274, 10.72378
3491.203, 17.15225
3493.131, 11.48226
3495.060, 2.167862
3496.988, 3.790261
3498.917, -0.7886492
3500.845, -1.096742
3502.773, 2.698013
3504.702, 9.892606
3506.630, 17.87440
3508.559, 12.94887
3510.487, 7.334728
3512.416, 6.795379
3514.344, 4.472981
3516.273, 0.1336640
3518.201, 4.757680
3520.130, -16.72069
3522.058, 2.773536
3523.987, 10.00651
3525.915, 1.828317
3527.844, 11.26176
3529.772, 13.21648
3531.700, 4.870810
3533.629, -3.367871
3535.557, -2.485214
3537.486, 7.492993
3539.414, 16.18807
3541.343, 9.469156
3543.271, 11.34889
3545.200, 4.659962
3547.128, -1.867623
3549.057, 8.419007
3550.985, 14.65929
3552.914, 2.375421
3554.842, 1.708270
3556.771, 6.935759
3558.699, 11.72000
3560.627, 21.51431
3562.556, 20.15425
3564.484, 14.24079
3566.413, 11.88129
3568.341, 18.79467
3570.270, 28.51347
3572.198, 13.90141
3574.127, 7.006049
3576.055, 0.7029293
3577.984, 2.217088
3579.912, 4.009618
3581.841, -0.5340507
3583.769, 10.70418
3585.698, 15.78965
3587.626, 18.80619
3589.554, 10.95586
3591.483, 0.8233025
3593.411, 1.825496
3595.340, -11.02811
3597.268, -11.34383
3599.197, -2.290308
3601.125, 4.676305
3603.054, 4.372748
3604.982, 1.600126
3606.911, 17.05895
3608.839, 17.86742
3610.768, 8.618685
3612.696, 6.208296
3614.625, 7.203482
3616.553, -1.946531
3618.481, -10.35112
3620.410, 7.907837
3622.338, 3.565042
3624.267, 2.750986
3626.195, 12.07300
3628.124, 13.06987
3630.052, 17.18395
3631.981, 10.91697
3633.909, 8.034811
3635.838, 13.55453
3637.766, 16.08789
3639.695, 7.808939
3641.623, 12.21464
3643.552, 17.11280
3645.480, 11.64312
3647.408, 6.629033
3649.337, 7.696256
3651.265, 12.54950
3653.194, 15.36142
3655.122, -5.631564
3657.051, 6.822229
3658.979, 6.420639
3660.908, 4.673600
3662.836, 9.973590
3664.765, -0.1881398
3666.693, 9.652021
3668.622, -0.3929215
3670.550, 4.929677
3672.479, 8.653734
3674.407, 4.660959
3676.335, 2.517465
3678.264, -1.876597
3680.192, 16.35973
3682.121, 0.2585803
3684.049, 3.521820
3685.978, 17.57900
3687.906, 15.55595
3689.835, 3.463475
3691.763, 10.00459
3693.692, 3.428227
3695.620, 8.671005
3697.549, 5.635691
3699.477, 4.056803
3701.406, 15.71573
3703.334, 5.712161
3705.262, 9.120426
3707.191, 5.554522
3709.119, 9.759930
3711.048, 9.121478
3712.976, 3.034397
3714.905, 4.686339
3716.833, 8.684032
3718.762, 1.712640
3720.690, 14.17272
3722.619, 15.04057
3724.547, 8.475911
3726.476, 7.337453
3728.404, 10.25996
3730.333, 5.404192
3732.261, 16.73289
3734.189, 8.818300
3736.118, 10.27409
3738.046, 13.14686
3739.975, 5.215475
3741.903, -4.116231
3743.832, 0.2853926
3745.760, 0.4427643
3747.689, -3.044087
3749.617, 5.887453
3751.546, 14.66162
3753.474, 8.509584
3755.403, -8.006892
3757.331, -8.691623
3759.260, 0.6487879
3761.188, 9.279619
3763.116, 6.541773
3765.045, 3.184183
3766.973, 3.970799
3768.902, 4.660093
3770.830, 5.769499
3772.759, 23.25803
3774.687, 3.054177
3776.616, -3.507623
3778.544, 5.223720
3780.473, 10.05568
3782.401, 9.984345
3784.330, 21.19160
3786.258, 12.30180
3788.187, 10.24357
3790.115, 5.975128
3792.043, 21.40632
3793.972, 17.33322
3795.900, -5.2638538E-03
3797.829, 8.288280
3799.757, 19.01304
3801.686, 13.05224
3803.614, 3.311574
3805.543, 13.93547
3807.471, 12.21811
3809.400, 3.752821
3811.328, 8.564058
3813.257, 23.87862
3815.185, 24.96357
3817.114, 20.67279
3819.042, 21.68850
3820.970, 8.525561
3822.899, 10.59774
3824.827, 9.626414
3826.756, -1.550780
3828.684, 6.616573
3830.613, 13.08638
3832.541, 16.03177
3834.470, 6.101790
3836.398, -6.461378
3838.327, -0.1876187
3840.255, 10.66587
3842.184, 13.00214
3844.112, 14.82964
3846.041, 18.46432
3847.969, 20.17430
3849.897, 16.24500
3851.826, 15.52594
3853.754, 12.14780
3855.683, 11.11010
3857.611, 12.52771
3859.540, 12.16986
3861.468, 15.71935
3863.397, 16.34784
3865.325, 11.77816
3867.254, 12.51971
3869.182, 17.00199
3871.111, 14.60958
3873.039, 11.39348
3874.968, 16.06315
3876.896, 18.12216
3878.824, -5.817680
3880.753, 5.241171
3882.681, 10.91560
3884.610, 13.94894
3886.538, 7.253551
3888.467, 1.113821
3890.395, 1.363144
3892.324, 8.481899
3894.252, 18.62436
3896.181, 5.019575
3898.109, -7.135105
3900.038, 0.4574447
3901.966, -4.086135
3903.895, -5.023312
3905.823, -8.146075
3907.751, -14.51254
3909.680, -13.91593
3911.608, -4.125242
3913.537, 3.526361
3915.465, -0.2260753
3917.394, 7.008100
3919.322, 10.29596
3921.251, 4.112526
3923.179, -7.362136
3925.108, 2.199117
3927.036, 18.57965
3928.965, 11.37987
3930.893, 7.786643
3932.822, -4.371047
3934.750, 15.26313
3936.678, 9.832999
3938.607, 8.225661
3940.535, 4.360451
3942.464, 10.45622
3944.392, 15.41288
3946.321, 9.256337
3948.249, 6.204959
3950.178, 8.817762
3952.106, 17.69900
3954.035, -1.176042
3955.963, 10.96010
3957.892, 13.82273
3959.820, 4.936786
3961.749, 3.275342
3963.677, 5.474829
3965.605, 7.885571
3967.534, 12.91444
3969.462, 8.353102
3971.391, 6.514448
3973.319, 2.907967
3975.248, 8.8801183E-02
3977.176, -5.431077
3979.105, 3.284122
3981.033, 9.160895
3982.962, -3.966166
3984.890, -19.55448
3986.819, -11.94082
3988.747, 8.769267
3990.676, -4.077474
3992.604, 10.58461
3994.532, 16.22121
3996.461, -6.096297
3998.389, -9.914454
4000.318, 11.09932
4002.246, 13.30370
4004.175, 9.499942
4006.103, 10.74004
4008.032, 15.25128
4009.960, 13.50383
4011.889, -20.63959
4013.817, -4.216262
4015.746, 9.542246
4017.674, 23.46987
4019.603, 16.20025
4021.531, 22.30128
4023.459, 15.70027
4025.388, 5.724408
4027.316, 17.93723
4029.245, 27.51371
4031.173, 14.98677
4033.102, 9.927068
4035.030, 16.21696
4036.959, 10.11612
4038.887, 5.184299
4040.816, -0.5516865
4042.744, 2.515431
4044.673, 5.034449
4046.601, 14.60502
4048.530, 13.88704
4050.458, 4.714318
4052.386, -2.526220
4054.315, -5.306745
4056.243, -2.994645
4058.172, -0.7158044
4060.100, -5.954892
4062.029, 26.86640
4063.957, 2.569052
4065.886, 13.91695
4067.814, 6.432968
4069.743, 7.043220
4071.671, 14.05805
4073.600, 13.38293
4075.528, 4.421967
4077.457, 1.561174
4079.385, 10.15537
4081.313, 9.889000
4083.242, -1.727295
4085.170, 17.99706
4087.099, 8.993379
4089.027, 15.15098
4090.956, 15.42593
4092.884, 7.452363
4094.813, 18.85081
4096.741, 13.22726
4098.669, 12.15013
4100.598, 16.81584
4102.526, 11.04540
4104.455, 3.968430
4106.383, 10.56032
4108.312, 14.91180
4110.240, 5.865963
4112.169, 7.743304
4114.097, 15.15944
4116.026, 8.621821
4117.954, 11.94934
4119.883, 1.586198
4121.811, -2.738478
4123.740, 5.980440
4125.668, 12.45574
4127.597, -6.427290
4129.525, -0.4122059
4131.454, 0.9948431
4133.382, 6.870953
4135.311, 8.045243
4137.239, -2.553724
4139.167, -6.524977
4141.096, 2.094590
4143.024, 7.779830
4144.953, -1.544666
4146.881, 19.49417
4148.810, 9.318529
4150.738, 15.56123
4152.667, 13.62107
4154.595, 5.978701
4156.523, 20.32670
4158.452, 22.61669
4160.380, 9.741589
4162.309, 9.728148
4164.237, 18.86246
4166.166, 12.52025
4168.094, 9.162916
4170.023, 18.18572
4171.951, 15.49097
4173.880, 4.447405
4175.808, 5.445951
4177.737, 12.24020
4179.665, 16.47862
4181.594, 9.565198
4183.522, 4.019728
4185.451, -7.035340
4187.379, 8.118492
4189.308, 20.93546
4191.236, 14.98521
4193.165, -9.800469
4195.093, -4.299399
4197.021, -3.183603
4198.950, 3.415970
4200.878, 19.72207
4202.807, 0.1836646
4204.735, 6.877878
4206.664, -3.305462
4208.592, -3.014930
4210.521, -0.2614947
4212.449, 12.51107
4214.377, 12.33714
4216.306, 2.608832
4218.234, 13.69548
4220.163, 6.174961
4222.091, 2.786515
4224.020, 16.97729
4225.948, 5.365351
4227.877, 4.235430
4229.805, 4.484016
4231.734, 24.80876
4233.662, 14.94119
4235.591, 22.72425
4237.519, 7.585182
4239.448, 14.66534
4241.376, 19.97905
4243.305, 10.21145
4245.233, 15.13686
4247.162, 4.180470
4249.090, 8.292245
4251.019, 25.66085
4252.947, 15.82281
4254.875, 18.94890
4256.804, 5.913689
4258.732, 3.449179
4260.661, -9.467647
4262.589, -12.87560
4264.518, 3.800946
4266.446, 13.12550
4268.375, 15.18896
4270.303, 5.008447
4272.231, -6.185432
4274.160, -3.641619
4276.088, -2.133747
4278.017, 0.1574331
4279.945, 4.417190
4281.874, 15.55838
4283.802, 9.714497
4285.731, 5.576017
4287.659, 0.7866920
4289.588, 10.78228
4291.516, 16.07559
4293.445, -0.3397151
4295.373, 4.548047
4297.302, 16.00595
4299.230, 1.385370
4301.159, 11.23405
4303.087, 38.14557
4305.016, 10.12614
4306.944, 16.57869
4308.873, 18.68322
4310.801, 6.942925
4312.729, -19.04039
4314.658, 16.61078
4316.586, 14.56626
4318.515, 16.58364
4320.443, 0.7070951
4322.372, 19.63811
##END=



