##NAMES=Gilmarite
##RRUFFID=R130688
##IDEAL CHEMISTRY=Cu^2+^_3_(AsO_4_)(OH)_3_
##LOCALITY=El Guanaco mine, Guanaco, Santa Catalina, Antofagasta Province, Antofagasta Region, Chile
##OWNER=RRUFF
##SOURCE=Bob Jenkins
##DESCRIPTION=Lozenge-shaped blue crystals
##STATUS=The identification of this mineral has been confirmed by single-crystal X-ray diffraction
##URL=https://www.rruff.net/odr/rruff_sample/R130688
##DIFFRACTION SAMPLE DESCRIPTION=Single crystal, powder profile is calculated
##CELL PARAMETERS=a: 5.455 b: 5.879 c: 5.112 alpha: 114.91 beta: 93.26 gamma: 92.03 volume: 148.13 crystal system: triclinic
##FILETYPE=Raman Processed
##RAMAN WAVELENGTH=780

99.77075, 4847.959
101.6992, 4860.860
103.6277, 4850.996
105.5562, 4830.742
107.4846, 4800.406
109.4131, 4763.144
111.3416, 4730.604
113.2700, 4698.087
115.1985, 4668.933
117.1270, 4640.169
119.0554, 4610.425
120.9839, 4573.610
122.9124, 4532.244
124.8408, 4498.090
126.7693, 4471.792
128.6978, 4448.986
130.6262, 4429.618
132.5547, 4411.620
134.4832, 4393.570
136.4116, 4375.464
138.3401, 4357.945
140.2686, 4340.815
142.1970, 4324.217
144.1255, 4307.598
146.0540, 4291.998
147.9824, 4278.899
149.9109, 4266.908
151.8394, 4253.247
153.7678, 4236.666
155.6963, 4223.214
157.6248, 4215.697
159.5532, 4206.995
161.4817, 4190.983
163.4102, 4173.737
165.3386, 4163.146
167.2671, 4160.200
169.1956, 4154.843
171.1240, 4146.698
173.0525, 4136.643
174.9810, 4123.994
176.9094, 4110.253
178.8379, 4095.506
180.7664, 4080.301
182.6948, 4069.646
184.6233, 4064.441
186.5518, 4060.352
188.4802, 4056.621
190.4087, 4053.540
192.3372, 4051.491
194.2656, 4050.021
196.1941, 4047.446
198.1226, 4043.376
200.0510, 4041.185
201.9795, 4044.420
203.9080, 4043.932
205.8364, 4033.207
207.7649, 4018.883
209.6934, 4010.005
211.6218, 4006.161
213.5503, 4003.206
215.4788, 4001.569
217.4072, 3999.624
219.3357, 3996.750
221.2642, 3993.842
223.1926, 3991.592
225.1211, 3989.682
227.0496, 3987.337
228.9780, 3984.437
230.9065, 3980.615
232.8350, 3974.630
234.7634, 3968.708
236.6919, 3963.147
238.6204, 3958.237
240.5488, 3955.221
242.4773, 3953.636
244.4058, 3950.274
246.3342, 3944.585
248.2627, 3937.873
250.1912, 3927.966
252.1196, 3919.656
254.0481, 3916.591
255.9766, 3916.835
257.9051, 3917.270
259.8335, 3917.738
261.7620, 3918.294
263.6905, 3920.164
265.6189, 3920.421
267.5474, 3917.989
269.4759, 3914.185
271.4043, 3911.207
273.3328, 3908.020
275.2613, 3899.934
277.1897, 3882.289
279.1182, 3870.003
281.0467, 3866.427
282.9751, 3864.286
284.9036, 3861.603
286.8321, 3858.660
288.7605, 3855.979
290.6890, 3853.542
292.6175, 3849.657
294.5459, 3841.984
296.4744, 3837.828
298.4029, 3841.706
300.3313, 3843.309
302.2598, 3833.667
304.1883, 3820.867
306.1167, 3815.019
308.0452, 3816.335
309.9737, 3816.558
311.9021, 3815.868
313.8306, 3813.725
315.7591, 3808.339
317.6875, 3804.050
319.6160, 3803.746
321.5445, 3805.298
323.4729, 3806.802
325.4014, 3808.109
327.3299, 3803.610
329.2583, 3791.425
331.1868, 3781.943
333.1153, 3780.465
335.0437, 3778.256
336.9722, 3769.666
338.9007, 3759.163
340.8291, 3753.087
342.7576, 3751.215
344.6861, 3748.777
346.6145, 3745.964
348.5430, 3741.428
350.4715, 3734.811
352.3999, 3726.177
354.3284, 3712.564
356.2569, 3699.298
358.1853, 3692.930
360.1138, 3692.634
362.0423, 3694.548
363.9707, 3699.434
365.8992, 3700.141
367.8277, 3691.938
369.7561, 3684.241
371.6846, 3679.436
373.6131, 3676.095
375.5415, 3674.478
377.4700, 3672.622
379.3985, 3665.280
381.3269, 3652.221
383.2554, 3642.713
385.1839, 3640.108
387.1123, 3637.716
389.0408, 3635.029
390.9693, 3631.810
392.8977, 3627.344
394.8262, 3622.823
396.7547, 3620.805
398.6831, 3620.544
400.6116, 3616.015
402.5401, 3602.834
404.4685, 3595.127
406.3970, 3598.951
408.3255, 3600.992
410.2539, 3593.451
412.1824, 3584.889
414.1109, 3585.191
416.0393, 3589.480
417.9678, 3584.984
419.8963, 3568.685
421.8247, 3558.872
423.7532, 3559.210
425.6817, 3560.771
427.6101, 3566.416
429.5386, 3568.666
431.4671, 3560.888
433.3955, 3549.782
435.3240, 3541.771
437.2525, 3536.512
439.1809, 3531.895
441.1094, 3527.428
443.0379, 3525.275
444.9664, 3526.479
446.8948, 3527.501
448.8233, 3528.897
450.7518, 3527.672
452.6802, 3520.063
454.6087, 3510.641
456.5372, 3506.261
458.4656, 3506.117
460.3941, 3501.966
462.3226, 3493.097
464.2510, 3485.998
466.1795, 3482.302
468.1080, 3476.703
470.0364, 3464.628
471.9649, 3453.044
473.8934, 3445.058
475.8218, 3439.723
477.7503, 3437.348
479.6788, 3436.875
481.6072, 3432.563
483.5357, 3424.565
485.4642, 3416.507
487.3926, 3409.172
489.3211, 3401.468
491.2496, 3393.340
493.1780, 3384.729
495.1065, 3375.595
497.0350, 3366.035
498.9634, 3355.255
500.8919, 3344.269
502.8204, 3336.472
504.7488, 3331.410
506.6773, 3324.146
508.6058, 3312.946
510.5342, 3304.454
512.4627, 3301.438
514.3912, 3299.439
516.3196, 3299.831
518.2481, 3298.033
520.1766, 3288.700
522.1050, 3276.220
524.0335, 3268.024
525.9620, 3262.656
527.8904, 3253.955
529.8189, 3240.849
531.7474, 3231.802
533.6758, 3230.664
535.6043, 3228.984
537.5328, 3226.241
539.4612, 3222.111
541.3897, 3214.603
543.3182, 3207.306
545.2466, 3204.389
547.1751, 3203.282
549.1036, 3200.957
551.0320, 3197.097
552.9605, 3187.868
554.8890, 3167.948
556.8174, 3157.818
558.7459, 3166.608
560.6744, 3169.738
562.6028, 3158.990
564.5313, 3148.821
566.4598, 3147.675
568.3882, 3147.795
570.3167, 3142.655
572.2452, 3134.858
574.1736, 3129.020
576.1021, 3124.872
578.0306, 3119.338
579.9590, 3110.831
581.8875, 3108.896
583.8160, 3117.596
585.7444, 3120.344
587.6729, 3110.432
589.6014, 3101.653
591.5298, 3101.786
593.4583, 3102.744
595.3868, 3098.827
597.3152, 3093.241
599.2437, 3091.159
601.1722, 3090.615
603.1006, 3083.769
605.0291, 3070.531
606.9576, 3063.159
608.8860, 3062.595
610.8145, 3060.305
612.7430, 3054.380
614.6714, 3049.414
616.5999, 3048.094
618.5284, 3046.126
620.4568, 3040.753
622.3853, 3035.322
624.3138, 3031.940
626.2422, 3030.158
628.1707, 3030.384
630.0992, 3031.422
632.0276, 3029.295
633.9561, 3024.368
635.8846, 3019.578
637.8130, 3015.071
639.7415, 3010.923
641.6700, 3008.380
643.5984, 3003.029
645.5269, 2989.414
647.4554, 2979.641
649.3839, 2980.686
651.3123, 2983.016
653.2408, 2980.573
655.1693, 2976.281
657.0977, 2974.250
659.0262, 2972.147
660.9547, 2964.752
662.8831, 2953.650
664.8116, 2945.090
666.7401, 2939.287
668.6685, 2936.850
670.5970, 2940.101
672.5255, 2940.306
674.4539, 2935.016
676.3824, 2929.589
678.3109, 2923.875
680.2393, 2919.562
682.1678, 2919.853
684.0963, 2919.044
686.0247, 2910.950
687.9532, 2902.334
689.8817, 2900.991
691.8101, 2902.747
693.7386, 2898.589
695.6671, 2890.061
697.5955, 2887.753
699.5240, 2892.555
701.4525, 2891.638
703.3809, 2882.175
705.3094, 2875.152
707.2379, 2871.736
709.1663, 2868.241
711.0948, 2863.437
713.0233, 2860.894
714.9517, 2864.082
716.8802, 2866.142
718.8087, 2861.684
720.7371, 2856.855
722.6656, 2856.123
724.5941, 2856.528
726.5225, 2855.047
728.4510, 2852.072
730.3795, 2846.993
732.3079, 2841.034
734.2364, 2842.559
736.1649, 2850.925
738.0933, 2845.571
740.0218, 2825.714
741.9503, 2815.361
743.8787, 2818.439
745.8072, 2818.522
747.7357, 2811.920
749.6641, 2805.447
751.5926, 2801.165
753.5211, 2797.242
755.4495, 2791.013
757.3780, 2787.632
759.3065, 2792.509
761.2349, 2797.177
763.1634, 2794.340
765.0919, 2788.792
767.0203, 2785.942
768.9488, 2783.833
770.8773, 2779.542
772.8057, 2773.287
774.7342, 2763.977
776.6627, 2753.391
778.5911, 2749.802
780.5196, 2752.915
782.4481, 2754.270
784.3765, 2753.353
786.3050, 2751.203
788.2335, 2747.438
790.1619, 2744.570
792.0904, 2743.629
794.0189, 2742.582
795.9473, 2740.069
797.8758, 2739.105
799.8043, 2739.622
801.7327, 2742.516
803.6612, 2750.999
805.5897, 2757.877
807.5181, 2758.659
809.4466, 2756.472
811.3751, 2751.411
813.3036, 2747.129
815.2321, 2748.625
817.1605, 2752.126
819.0890, 2750.991
821.0175, 2748.367
822.9459, 2752.769
824.8744, 2761.989
826.8029, 2766.019
828.7313, 2765.081
830.6598, 2763.741
832.5883, 2761.967
834.5167, 2759.342
836.4452, 2756.219
838.3737, 2749.885
840.3021, 2739.827
842.2306, 2728.575
844.1591, 2715.736
846.0875, 2704.578
848.0160, 2696.270
849.9445, 2687.509
851.8729, 2676.928
853.8014, 2667.522
855.7299, 2660.659
857.6583, 2654.288
859.5868, 2647.161
861.5153, 2640.795
863.4437, 2636.538
865.3722, 2632.131
867.3007, 2625.714
869.2291, 2619.394
871.1576, 2615.357
873.0861, 2611.574
875.0145, 2605.655
876.9430, 2599.487
878.8715, 2597.109
880.7999, 2594.720
882.7284, 2583.926
884.6569, 2570.147
886.5853, 2564.829
888.5138, 2564.908
890.4423, 2562.414
892.3707, 2558.506
894.2992, 2557.765
896.2277, 2558.806
898.1561, 2555.072
900.0846, 2547.290
902.0131, 2542.149
903.9415, 2539.734
905.8700, 2538.215
907.7985, 2537.625
909.7269, 2534.399
911.6554, 2528.105
913.5839, 2522.894
915.5123, 2520.390
917.4408, 2514.495
919.3693, 2501.349
921.2977, 2494.260
923.2262, 2498.137
925.1547, 2499.718
927.0831, 2496.679
929.0116, 2493.522
930.9401, 2489.391
932.8685, 2486.926
934.7970, 2490.664
936.7255, 2488.466
938.6539, 2471.574
940.5824, 2461.236
942.5109, 2468.392
944.4393, 2473.598
946.3678, 2467.951
948.2963, 2463.862
950.2247, 2467.722
952.1532, 2471.487
954.0817, 2472.055
956.0101, 2470.226
957.9386, 2464.542
959.8671, 2459.417
961.7955, 2458.157
963.7240, 2456.782
965.6525, 2451.936
967.5809, 2447.532
969.5094, 2446.879
971.4379, 2446.289
973.3663, 2442.230
975.2948, 2438.886
977.2233, 2441.092
979.1517, 2443.272
981.0802, 2440.579
983.0087, 2436.049
984.9371, 2429.527
986.8656, 2425.457
988.7941, 2430.121
990.7225, 2437.142
992.6510, 2441.523
994.5795, 2443.247
996.5079, 2441.610
998.4364, 2438.147
1000.365, 2432.323
1002.293, 2427.913
1004.222, 2433.374
1006.150, 2438.986
1008.079, 2428.708
1010.007, 2415.034
1011.936, 2414.694
1013.864, 2419.988
1015.793, 2421.750
1017.721, 2422.305
1019.650, 2425.550
1021.578, 2428.756
1023.506, 2428.464
1025.435, 2425.662
1027.363, 2420.124
1029.292, 2414.246
1031.220, 2410.895
1033.149, 2409.448
1035.077, 2409.847
1037.006, 2411.015
1038.934, 2411.501
1040.863, 2411.995
1042.791, 2413.377
1044.720, 2415.153
1046.648, 2418.288
1048.577, 2419.923
1050.505, 2414.032
1052.433, 2407.414
1054.362, 2408.641
1056.290, 2413.005
1058.219, 2418.140
1060.147, 2420.510
1062.076, 2412.911
1064.004, 2404.002
1065.933, 2402.260
1067.861, 2404.384
1069.790, 2410.324
1071.718, 2414.824
1073.647, 2409.660
1075.575, 2404.531
1077.504, 2411.408
1079.432, 2418.071
1081.360, 2412.357
1083.289, 2404.696
1085.217, 2401.748
1087.146, 2401.856
1089.074, 2406.733
1091.003, 2410.480
1092.931, 2406.543
1094.860, 2403.880
1096.788, 2412.173
1098.717, 2416.940
1100.645, 2403.440
1102.574, 2394.352
1104.502, 2406.865
1106.431, 2416.620
1108.359, 2410.616
1110.287, 2404.420
1112.216, 2402.673
1114.144, 2403.728
1116.073, 2410.119
1118.001, 2414.260
1119.930, 2413.196
1121.858, 2411.280
1123.787, 2407.362
1125.715, 2406.561
1127.644, 2410.638
1129.572, 2415.773
1131.501, 2422.299
1133.429, 2427.433
1135.358, 2430.954
1137.286, 2432.911
1139.214, 2432.975
1141.143, 2432.772
1143.071, 2431.625
1145.000, 2434.787
1146.928, 2443.590
1148.857, 2449.576
1150.785, 2452.178
1152.714, 2453.691
1154.642, 2454.083
1156.571, 2455.516
1158.499, 2458.025
1160.428, 2462.860
1162.356, 2469.697
1164.285, 2477.146
1166.213, 2484.020
1168.141, 2483.303
1170.070, 2478.259
1171.998, 2477.850
1173.927, 2480.427
1175.855, 2482.966
1177.784, 2485.488
1179.712, 2486.854
1181.641, 2489.215
1183.569, 2497.487
1185.498, 2505.301
1187.426, 2505.164
1189.355, 2503.961
1191.283, 2506.850
1193.212, 2510.574
1195.140, 2514.301
1197.068, 2516.980
1198.997, 2516.894
1200.925, 2518.472
1202.854, 2522.999
1204.782, 2531.088
1206.711, 2545.754
1208.639, 2552.642
1210.568, 2545.721
1212.496, 2546.353
1214.425, 2559.527
1216.353, 2567.490
1218.282, 2567.802
1220.210, 2567.066
1222.139, 2565.927
1224.067, 2565.396
1225.995, 2566.176
1227.924, 2575.459
1229.852, 2590.046
1231.781, 2594.250
1233.709, 2592.743
1235.638, 2598.164
1237.566, 2607.380
1239.495, 2617.317
1241.423, 2624.638
1243.352, 2622.089
1245.280, 2618.047
1247.209, 2620.597
1249.137, 2625.229
1251.066, 2629.663
1252.994, 2634.186
1254.922, 2638.925
1256.851, 2644.441
1258.779, 2651.899
1260.708, 2658.515
1262.636, 2662.960
1264.565, 2667.502
1266.493, 2671.883
1268.422, 2676.600
1270.350, 2681.737
1272.279, 2686.050
1274.207, 2689.542
1276.136, 2693.118
1278.064, 2697.323
1279.993, 2707.499
1281.921, 2720.313
1283.849, 2723.900
1285.778, 2723.278
1287.706, 2727.448
1289.635, 2732.405
1291.563, 2731.324
1293.492, 2732.290
1295.420, 2744.027
1297.349, 2754.143
1299.277, 2755.424
1301.206, 2756.699
1303.134, 2760.779
1305.063, 2766.437
1306.991, 2774.343
1308.920, 2776.816
1310.848, 2772.113
1312.776, 2771.759
1314.705, 2776.403
1316.633, 2773.199
1318.562, 2764.186
1320.490, 2763.565
1322.419, 2768.501
1324.347, 2773.591
1326.276, 2776.906
1328.204, 2774.889
1330.133, 2770.096
1332.061, 2763.070
1333.990, 2757.112
1335.918, 2755.511
1337.847, 2753.341
1339.775, 2748.529
1341.703, 2743.183
1343.632, 2738.326
1345.560, 2729.788
1347.489, 2716.754
1349.417, 2705.934
1351.346, 2697.698
1353.274, 2690.064
1355.203, 2682.761
1357.131, 2675.073
1359.060, 2666.915
1360.988, 2657.324
1362.917, 2648.068
1364.845, 2639.232
1366.774, 2634.271
1368.702, 2641.947
1370.630, 2643.639
1372.559, 2626.802
1374.487, 2611.418
1376.416, 2599.806
1378.344, 2595.805
1380.273, 2603.350
1382.201, 2600.685
1384.130, 2588.060
1386.058, 2578.457
1387.987, 2571.162
1389.915, 2563.285
1391.844, 2556.200
1393.772, 2553.609
1395.701, 2550.877
1397.629, 2542.783
1399.557, 2536.083
1401.486, 2536.931
1403.414, 2530.681
1405.343, 2509.855
1407.271, 2498.612
1409.200, 2502.079
1411.128, 2499.958
1413.057, 2491.340
1414.985, 2488.273
1416.914, 2488.744
1418.842, 2487.743
1420.771, 2484.473
1422.699, 2474.626
1424.628, 2466.323
1426.556, 2469.619
1428.484, 2471.381
1430.413, 2464.385
1432.341, 2460.855
1434.270, 2464.190
1436.198, 2464.315
1438.127, 2460.034
1440.055, 2450.974
1441.984, 2439.292
1443.912, 2436.697
1445.841, 2437.049
1447.769, 2428.499
1449.698, 2417.471
1451.626, 2408.588
1453.555, 2402.770
1455.483, 2404.099
1457.411, 2401.715
1459.340, 2389.611
1461.268, 2384.565
1463.197, 2388.716
1465.125, 2382.691
1467.054, 2368.905
1468.982, 2362.907
1470.911, 2362.537
1472.839, 2366.672
1474.768, 2369.277
1476.696, 2363.041
1478.625, 2356.960
1480.553, 2356.058
1482.482, 2354.208
1484.410, 2348.928
1486.339, 2345.815
1488.267, 2345.065
1490.195, 2345.452
1492.124, 2345.664
1494.052, 2340.127
1495.981, 2331.798
1497.909, 2323.156
1499.838, 2316.814
1501.766, 2317.095
1503.695, 2312.593
1505.623, 2297.476
1507.552, 2289.129
1509.480, 2290.533
1511.409, 2293.749
1513.337, 2298.070
1515.266, 2304.610
1517.194, 2309.045
1519.122, 2299.628
1521.051, 2290.045
1522.979, 2293.037
1524.908, 2296.670
1526.836, 2297.041
1528.765, 2299.998
1530.693, 2306.492
1532.622, 2307.670
1534.550, 2304.408
1536.479, 2302.124
1538.407, 2303.366
1540.336, 2317.817
1542.264, 2329.961
1544.193, 2323.725
1546.121, 2318.258
1548.049, 2321.747
1549.978, 2320.545
1551.906, 2313.385
1553.835, 2312.341
1555.763, 2314.511
1557.692, 2303.305
1559.620, 2290.289
1561.549, 2292.165
1563.477, 2296.602
1565.406, 2297.135
1567.334, 2295.241
1569.263, 2291.108
1571.191, 2284.112
1573.120, 2274.130
1575.048, 2270.788
1576.977, 2270.426
1578.905, 2263.203
1580.833, 2253.349
1582.762, 2243.318
1584.690, 2234.780
1586.619, 2229.952
1588.547, 2222.171
1590.476, 2210.384
1592.404, 2195.188
1594.333, 2177.451
1596.261, 2161.244
1598.190, 2144.918
1600.118, 2123.375
1602.047, 2105.950
1603.975, 2099.959
1605.904, 2088.292
1607.832, 2066.811
1609.760, 2042.178
1611.689, 2016.571
1613.617, 2002.535
1615.546, 1991.696
1617.474, 1967.688
1619.403, 1943.938
1621.331, 1929.398
1623.260, 1915.259
1625.188, 1899.598
1627.117, 1887.312
1629.045, 1877.400
1630.974, 1859.370
1632.902, 1838.534
1634.831, 1823.376
1636.759, 1810.558
1638.688, 1798.466
1640.616, 1786.811
1642.544, 1775.374
1644.473, 1764.833
1646.401, 1754.678
1648.330, 1741.906
1650.258, 1728.702
1652.187, 1717.031
1654.115, 1708.752
1656.044, 1709.820
1657.972, 1703.952
1659.901, 1686.552
1661.829, 1676.294
1663.758, 1671.756
1665.686, 1665.131
1667.615, 1656.556
1669.543, 1643.863
1671.471, 1634.069
1673.400, 1631.365
1675.328, 1630.159
1677.257, 1629.873
1679.185, 1632.499
1681.114, 1634.470
1683.042, 1620.828
1684.971, 1606.530
1686.899, 1604.653
1688.828, 1601.914
1690.756, 1593.643
1692.685, 1585.915
1694.613, 1579.624
1696.542, 1580.740
1698.470, 1583.498
1700.398, 1577.633
1702.327, 1570.076
1704.255, 1563.338
1706.184, 1559.340
1708.112, 1558.424
1710.041, 1554.010
1711.969, 1547.616
1713.898, 1544.859
1715.826, 1542.129
1717.755, 1534.864
1719.683, 1529.542
1721.612, 1528.040
1723.540, 1523.720
1725.469, 1516.939
1727.397, 1511.953
1729.325, 1508.891
1731.254, 1509.603
1733.182, 1509.079
1735.111, 1504.542
1737.039, 1501.309
1738.968, 1499.553
1740.896, 1494.877
1742.825, 1489.853
1744.753, 1489.824
1746.682, 1489.780
1748.610, 1487.613
1750.539, 1482.026
1752.467, 1472.792
1754.396, 1464.881
1756.324, 1458.977
1758.252, 1457.937
1760.181, 1456.516
1762.109, 1449.047
1764.038, 1444.963
1765.966, 1446.908
1767.895, 1447.823
1769.823, 1446.754
1771.752, 1437.089
1773.680, 1429.775
1775.609, 1435.005
1777.537, 1436.862
1779.466, 1430.522
1781.394, 1424.618
1783.323, 1419.610
1785.251, 1417.242
1787.179, 1415.521
1789.108, 1414.396
1791.036, 1407.753
1792.965, 1393.323
1794.893, 1391.821
1796.822, 1399.207
1798.750, 1405.521
1800.679, 1406.058
1802.607, 1393.800
1804.536, 1385.819
1806.464, 1385.310
1808.393, 1384.798
1810.321, 1383.643
1812.250, 1381.505
1814.178, 1378.567
1816.106, 1374.057
1818.035, 1371.558
1819.963, 1371.377
1821.892, 1368.380
1823.820, 1363.298
1825.749, 1355.482
1827.677, 1350.659
1829.606, 1355.334
1831.534, 1355.652
1833.463, 1351.002
1835.391, 1346.480
1837.320, 1342.933
1839.248, 1343.451
1841.177, 1341.498
1843.105, 1332.123
1845.033, 1325.211
1846.962, 1320.938
1848.890, 1320.044
1850.819, 1319.208
1852.747, 1313.867
1854.676, 1310.400
1856.604, 1311.987
1858.533, 1309.595
1860.461, 1304.587
1862.390, 1300.236
1864.318, 1296.983
1866.247, 1295.816
1868.175, 1292.873
1870.104, 1287.480
1872.032, 1283.985
1873.960, 1282.544
1875.889, 1286.087
1877.817, 1286.123
1879.746, 1279.201
1881.674, 1271.299
1883.603, 1264.137
1885.531, 1265.140
1887.460, 1265.419
1889.388, 1256.550
1891.317, 1247.665
1893.245, 1240.631
1895.174, 1240.062
1897.102, 1242.361
1899.031, 1243.215
1900.959, 1239.496
1902.887, 1229.131
1904.816, 1223.145
1906.744, 1221.015
1908.673, 1215.123
1910.601, 1210.049
1912.530, 1211.169
1914.458, 1211.587
1916.387, 1210.332
1918.315, 1207.322
1920.244, 1204.519
1922.172, 1206.131
1924.101, 1206.389
1926.029, 1203.206
1927.958, 1196.545
1929.886, 1188.793
1931.814, 1189.016
1933.743, 1188.943
1935.671, 1180.980
1937.600, 1177.167
1939.528, 1178.025
1941.457, 1174.242
1943.385, 1169.522
1945.314, 1167.699
1947.242, 1165.815
1949.171, 1162.877
1951.099, 1161.820
1953.028, 1160.702
1954.956, 1155.321
1956.885, 1149.830
1958.813, 1145.729
1960.741, 1142.915
1962.670, 1140.503
1964.598, 1134.855
1966.527, 1129.696
1968.455, 1127.057
1970.384, 1124.412
1972.312, 1121.637
1974.241, 1120.414
1976.169, 1119.521
1978.098, 1118.248
1980.026, 1115.659
1981.955, 1111.889
1983.883, 1110.179
1985.812, 1108.929
1987.740, 1105.406
1989.668, 1103.372
1991.597, 1103.401
1993.525, 1101.433
1995.454, 1098.766
1997.382, 1098.683
1999.311, 1096.194
2001.239, 1089.894
2003.168, 1083.370
2005.096, 1077.852
2007.025, 1075.752
2008.953, 1074.049
2010.882, 1071.792
2012.810, 1068.037
2014.739, 1064.315
2016.667, 1065.616
2018.595, 1065.577
2020.524, 1059.744
2022.452, 1054.186
2024.381, 1048.912
2026.309, 1042.638
2028.238, 1038.937
2030.166, 1041.755
2032.095, 1040.075
2034.023, 1034.916
2035.952, 1030.835
2037.880, 1030.270
2039.809, 1036.231
2041.737, 1037.083
2043.666, 1032.446
2045.594, 1021.078
2047.522, 1011.920
2049.451, 1009.976
2051.379, 1011.169
2053.308, 1013.147
2055.236, 1007.602
2057.165, 1001.677
2059.093, 999.0524
2061.022, 998.0957
2062.950, 997.5941
2064.879, 993.8006
2066.807, 989.6398
2068.736, 986.8649
2070.664, 981.6154
2072.593, 975.5739
2074.521, 975.2037
2076.449, 976.7045
2078.378, 979.1639
2080.306, 973.1291
2082.235, 963.4035
2084.163, 965.1476
2086.092, 966.6613
2088.020, 962.4769
2089.949, 960.8730
2091.877, 959.9873
2093.806, 954.9754
2095.734, 949.1879
2097.663, 943.3278
2099.591, 942.9911
2101.520, 943.3506
2103.448, 934.6021
2105.376, 928.5432
2107.305, 928.7152
2109.233, 932.4078
2111.162, 934.0483
2113.090, 925.4209
2115.019, 919.6533
2116.947, 919.3522
2118.876, 914.9791
2120.804, 910.1755
2122.733, 908.2045
2124.661, 905.6364
2126.590, 902.6033
2128.518, 904.2416
2130.447, 906.4781
2132.375, 907.4858
2134.303, 902.3400
2136.232, 893.9676
2138.160, 893.9862
2140.089, 892.4474
2142.017, 885.1422
2143.946, 883.5524
2145.874, 884.4212
2147.803, 879.9586
2149.731, 876.5565
2151.660, 875.7049
2153.588, 878.5020
2155.517, 880.0201
2157.445, 872.4059
2159.374, 867.6384
2161.302, 866.4357
2163.230, 864.6857
2165.159, 861.9703
2167.087, 858.1611
2169.016, 851.5366
2170.944, 844.5031
2172.873, 843.1459
2174.801, 843.7341
2176.730, 845.1207
2178.658, 846.0350
2180.587, 844.3287
2182.515, 834.1515
2184.444, 829.8929
2186.372, 832.7936
2188.301, 829.3696
2190.229, 825.1230
2192.157, 824.1511
2194.086, 823.8350
2196.014, 823.1479
2197.943, 819.3643
2199.871, 813.9137
2201.800, 806.5997
2203.728, 804.8827
2205.657, 806.1277
2207.585, 807.8611
2209.514, 808.5991
2211.442, 807.5430
2213.371, 799.6898
2215.299, 792.6143
2217.228, 790.3398
2219.156, 786.4530
2221.084, 782.6528
2223.013, 784.8407
2224.941, 785.1940
2226.870, 782.2375
2228.798, 779.0149
2230.727, 773.8173
2232.655, 763.7373
2234.584, 760.5687
2236.512, 761.7294
2238.441, 756.1653
2240.369, 754.3872
2242.298, 758.8641
2244.226, 757.6635
2246.155, 754.4700
2248.083, 753.5126
2250.011, 751.9611
2251.940, 749.0511
2253.868, 740.4930
2255.797, 737.2314
2257.725, 744.4183
2259.654, 741.9476
2261.582, 735.5226
2263.511, 730.1122
2265.439, 729.3090
2267.368, 731.6086
2269.296, 729.9354
2271.225, 727.6916
2273.153, 726.3458
2275.082, 721.7868
2277.010, 717.1405
2278.938, 715.6425
2280.867, 713.1185
2282.795, 710.0643
2284.724, 711.9264
2286.652, 710.5162
2288.581, 703.0892
2290.509, 701.6241
2292.438, 702.4149
2294.366, 702.5839
2296.295, 698.9584
2298.223, 693.5104
2300.152, 692.8922
2302.080, 690.2503
2304.009, 684.3897
2305.937, 680.5145
2307.865, 678.3524
2309.794, 677.9418
2311.722, 675.1404
2313.651, 671.8999
2315.579, 673.5481
2317.508, 670.9330
2319.436, 664.8279
2321.365, 668.0146
2323.293, 670.1078
2325.222, 666.1542
2327.150, 662.6163
2329.079, 659.1632
2331.007, 654.9027
2332.936, 650.7808
2334.864, 647.4652
2336.792, 647.2096
2338.721, 646.0382
2340.649, 642.9017
2342.578, 636.1385
2344.506, 631.9134
2346.435, 636.1146
2348.363, 634.8849
2350.292, 630.9589
2352.220, 628.5718
2354.149, 624.4098
2356.077, 619.4316
2358.006, 620.1813
2359.934, 619.2655
2361.863, 614.4077
2363.791, 610.0217
2365.719, 610.2760
2367.648, 618.3280
2369.576, 614.1431
2371.505, 606.3025
2373.433, 608.8010
2375.362, 607.2400
2377.290, 601.8539
2379.219, 599.7115
2381.147, 597.0607
2383.076, 593.7511
2385.004, 597.7906
2386.933, 600.1157
2388.861, 595.8859
2390.790, 594.3529
2392.718, 592.8929
2394.646, 586.8128
2396.575, 584.7375
2398.503, 584.3464
2400.432, 578.6031
2402.360, 575.7723
2404.289, 576.5163
2406.217, 578.4384
2408.146, 578.5035
2410.074, 575.6720
2412.003, 569.6889
2413.931, 564.4803
2415.860, 563.7419
2417.788, 561.8475
2419.717, 558.8517
2421.645, 553.6308
2423.573, 554.0066
2425.502, 557.2194
2427.430, 556.6437
2429.359, 555.8708
2431.287, 554.6013
2433.216, 545.3087
2435.144, 539.5143
2437.073, 540.5908
2439.001, 538.2701
2440.930, 537.2841
2442.858, 539.9249
2444.787, 539.7017
2446.715, 537.0965
2448.644, 532.6334
2450.572, 528.1621
2452.500, 525.0264
2454.429, 525.8810
2456.357, 524.3402
2458.286, 520.2745
2460.214, 513.0120
2462.143, 512.0548
2464.071, 516.0072
2466.000, 514.1644
2467.928, 509.8164
2469.857, 504.9137
2471.785, 505.6864
2473.714, 505.7741
2475.642, 502.5401
2477.571, 499.2912
2479.499, 497.5431
2481.427, 499.4770
2483.356, 494.1239
2485.284, 487.5678
2487.213, 485.8101
2489.141, 485.3587
2491.070, 485.5847
2492.998, 486.8260
2494.927, 482.7938
2496.855, 477.7645
2498.784, 481.6737
2500.712, 479.2931
2502.641, 472.5255
2504.569, 472.4792
2506.498, 471.0375
2508.426, 467.7922
2510.354, 469.9352
2512.283, 468.5967
2514.211, 462.7857
2516.140, 463.5355
2518.068, 461.9804
2519.997, 455.9920
2521.925, 455.9199
2523.854, 455.2033
2525.782, 451.3121
2527.711, 447.8000
2529.639, 446.4980
2531.568, 448.0211
2533.496, 449.2176
2535.425, 448.7408
2537.353, 445.7981
2539.281, 440.5465
2541.210, 436.0501
2543.138, 434.7585
2545.067, 438.1133
2546.995, 440.4235
2548.924, 433.4287
2550.852, 432.7131
2552.781, 433.5335
2554.709, 428.3197
2556.638, 427.7758
2558.566, 428.4366
2560.495, 424.6868
2562.423, 421.4062
2564.352, 419.7819
2566.280, 421.5706
2568.208, 420.4845
2570.137, 417.4688
2572.065, 414.7909
2573.994, 412.6146
2575.922, 410.2406
2577.851, 406.1161
2579.779, 403.8695
2581.708, 402.4090
2583.636, 398.1750
2585.565, 398.5029
2587.493, 400.5688
2589.422, 395.7880
2591.350, 394.6396
2593.279, 395.0091
2595.207, 387.7487
2597.135, 382.7430
2599.064, 380.6400
2600.992, 380.7083
2602.921, 380.8450
2604.849, 380.4752
2606.778, 379.5378
2608.706, 376.0161
2610.635, 371.5192
2612.563, 368.9489
2614.492, 370.3495
2616.420, 372.3282
2618.349, 367.5273
2620.277, 364.7130
2622.206, 363.6452
2624.134, 362.5803
2626.063, 359.7811
2627.991, 356.4709
2629.919, 354.1970
2631.848, 354.5793
2633.776, 356.0794
2635.705, 356.9354
2637.633, 355.1199
2639.562, 352.1265
2641.490, 349.7099
2643.419, 349.2335
2645.347, 348.2688
2647.276, 344.2261
2649.204, 340.5995
2651.133, 339.1003
2653.061, 340.9576
2654.990, 338.0917
2656.918, 334.9478
2658.846, 335.0024
2660.775, 333.5225
2662.703, 330.1618
2664.632, 325.3002
2666.560, 326.5272
2668.489, 326.6941
2670.417, 322.6574
2672.346, 318.6530
2674.274, 317.1730
2676.203, 318.5144
2678.131, 320.2048
2680.060, 320.8831
2681.988, 319.9257
2683.917, 315.1155
2685.845, 311.7111
2687.773, 310.7448
2689.702, 312.4223
2691.630, 311.1295
2693.559, 307.4244
2695.487, 305.1725
2697.416, 301.6078
2699.344, 297.9031
2701.273, 297.0556
2703.201, 293.3973
2705.130, 290.2884
2707.058, 292.5209
2708.987, 292.4782
2710.915, 291.2417
2712.844, 290.2795
2714.772, 286.7616
2716.700, 284.2574
2718.629, 284.7317
2720.557, 281.8003
2722.486, 279.3378
2724.414, 278.7452
2726.343, 276.8548
2728.271, 274.6514
2730.200, 272.8720
2732.128, 273.7008
2734.057, 273.2346
2735.985, 271.4585
2737.914, 270.2683
2739.842, 268.1736
2741.771, 265.9035
2743.699, 264.7032
2745.627, 264.0873
2747.556, 263.3353
2749.484, 261.8464
2751.413, 259.3823
2753.341, 257.2137
2755.270, 256.0065
2757.198, 255.5701
2759.127, 254.0956
2761.055, 251.4727
2762.984, 250.4134
2764.912, 248.5624
2766.841, 247.1104
2768.769, 250.8987
2770.698, 249.6508
2772.626, 245.3329
2774.554, 241.6001
2776.483, 240.2404
2778.411, 239.2315
2780.340, 237.1013
2782.268, 237.6576
2784.197, 236.9107
2786.125, 233.8404
2788.054, 235.0407
2789.982, 234.3800
2791.911, 231.6089
2793.839, 230.5833
2795.768, 228.8282
2797.696, 226.6010
2799.625, 224.5473
2801.553, 224.0721
2803.481, 223.4606
2805.410, 221.5796
2807.338, 218.7212
2809.267, 217.6745
2811.195, 218.3377
2813.124, 215.6567
2815.052, 216.9479
2816.981, 218.8144
2818.909, 209.7222
2820.838, 209.8454
2822.766, 212.4325
2824.695, 207.5876
2826.623, 207.5782
2828.552, 207.3042
2830.480, 204.4290
2832.408, 202.5907
2834.337, 199.2409
2836.265, 195.6560
2838.194, 196.5943
2840.122, 197.7045
2842.051, 197.6746
2843.979, 195.8872
2845.908, 194.6673
2847.836, 192.7393
2849.765, 189.7776
2851.693, 190.5820
2853.622, 188.7282
2855.550, 184.9864
2857.479, 185.8185
2859.407, 182.7577
2861.335, 179.5070
2863.264, 180.2200
2865.192, 182.6069
2867.121, 181.9363
2869.049, 178.0940
2870.978, 179.6859
2872.906, 177.3141
2874.835, 172.8795
2876.763, 174.0484
2878.692, 173.1620
2880.620, 171.7690
2882.549, 171.3129
2884.477, 168.3606
2886.406, 165.7293
2888.334, 164.4330
2890.262, 165.4154
2892.191, 164.0549
2894.119, 162.7038
2896.048, 164.9536
2897.976, 163.5067
2899.905, 161.7141
2901.833, 161.0928
2903.762, 160.8522
2905.690, 158.1056
2907.619, 155.1225
2909.547, 155.9857
2911.476, 151.6959
2913.404, 149.0236
2915.333, 151.4308
2917.261, 152.6725
2919.189, 150.8999
2921.118, 148.1445
2923.046, 149.6639
2924.975, 145.1278
2926.903, 141.3196
2928.832, 142.4105
2930.760, 142.8360
2932.689, 142.9883
2934.617, 142.6758
2936.546, 141.0884
2938.474, 138.3843
2940.403, 136.7672
2942.331, 137.5498
2944.260, 135.4188
2946.188, 134.5222
2948.116, 134.9888
2950.045, 135.2985
2951.973, 131.9365
2953.902, 129.4135
2955.830, 131.0560
2957.759, 130.5509
2959.687, 129.9345
2961.616, 129.2472
2963.544, 127.4499
2965.473, 126.5892
2967.401, 126.4296
2969.330, 126.6125
2971.258, 126.8405
2973.187, 125.9742
2975.115, 125.0184
2977.043, 125.8961
2978.972, 121.6016
2980.900, 118.3216
2982.829, 118.4770
2984.757, 118.1126
2986.686, 116.3664
2988.614, 114.5676
2990.543, 114.2737
2992.471, 115.3515
2994.400, 114.8080
2996.328, 112.9975
2998.257, 113.9944
3000.185, 113.0728
3002.114, 111.5632
3004.042, 110.8124
3005.970, 109.8756
3007.899, 108.1666
3009.827, 106.2388
3011.756, 105.0968
3013.684, 104.3293
3015.613, 104.4296
3017.541, 104.9612
3019.470, 102.4951
3021.398, 101.3023
3023.327, 101.0540
3025.255, 100.8228
3027.184, 100.4604
3029.112, 100.6157
3031.041, 100.3450
3032.969, 97.55346
3034.898, 96.83246
3036.826, 96.91616
3038.755, 96.97035
3040.683, 97.79852
3042.612, 96.44551
3044.540, 94.31212
3046.469, 93.04601
3048.397, 93.77407
3050.325, 94.47050
3052.254, 94.10603
3054.182, 91.77820
3056.111, 91.00681
3058.039, 89.57765
3059.968, 87.53404
3061.896, 88.01649
3063.825, 87.33633
3065.753, 85.51582
3067.682, 83.26370
3069.610, 84.09991
3071.539, 85.19689
3073.467, 84.94824
3075.396, 81.96753
3077.324, 81.64540
3079.252, 80.79471
3081.181, 80.26732
3083.109, 83.02802
3085.038, 82.72273
3086.966, 81.60719
3088.895, 80.36174
3090.823, 77.22920
3092.752, 78.98753
3094.680, 79.95000
3096.609, 77.47914
3098.537, 76.84565
3100.466, 75.99630
3102.394, 76.03801
3104.323, 77.19769
3106.251, 73.09091
3108.179, 72.39489
3110.108, 73.21095
3112.036, 71.71116
3113.965, 71.43607
3115.893, 71.27536
3117.822, 70.57701
3119.750, 68.62114
3121.679, 70.23211
3123.607, 70.80942
3125.536, 69.92491
3127.464, 69.51674
3129.393, 69.81261
3131.321, 69.08183
3133.250, 67.58436
3135.178, 67.76094
3137.106, 67.49317
3139.035, 67.82491
3140.963, 68.14804
3142.892, 64.32225
3144.820, 63.78773
3146.749, 64.02260
3148.677, 63.50908
3150.606, 64.28676
3152.534, 62.63177
3154.463, 61.31181
3156.391, 61.95573
3158.320, 63.38313
3160.248, 64.60399
3162.177, 62.89721
3164.105, 58.17100
3166.033, 56.65035
3167.962, 56.56638
3169.890, 57.46056
3171.819, 58.69872
3173.747, 57.97271
3175.676, 56.86700
3177.604, 55.47998
3179.533, 54.13284
3181.461, 55.74366
3183.390, 55.76910
3185.318, 54.87067
3187.247, 53.90072
3189.175, 51.63515
3191.104, 49.90746
3193.032, 49.43313
3194.960, 50.25748
3196.889, 51.32325
3198.817, 50.67173
3200.746, 49.95568
3202.674, 50.01812
3204.603, 49.16693
3206.531, 47.85497
3208.460, 47.17085
3210.388, 47.35490
3212.317, 47.26801
3214.245, 47.49922
3216.174, 46.81393
3218.102, 45.51359
3220.031, 46.35220
3221.959, 45.72764
3223.887, 44.71486
3225.816, 43.81775
3227.744, 42.63500
3229.673, 43.76721
3231.601, 42.89293
3233.530, 41.12537
3235.458, 42.87830
3237.387, 45.18574
3239.315, 43.97117
3241.244, 41.09751
3243.172, 40.12119
3245.101, 39.91438
3247.029, 40.82328
3248.958, 41.21065
3250.886, 39.65056
3252.814, 37.74306
3254.743, 39.85501
3256.671, 41.60389
3258.600, 40.01835
3260.528, 37.62613
3262.457, 36.65298
3264.385, 37.39253
3266.314, 38.61795
3268.242, 37.31125
3270.171, 36.10634
3272.099, 36.56495
3274.028, 37.91476
3275.956, 38.17896
3277.885, 35.37188
3279.813, 35.54367
3281.741, 37.24722
3283.670, 37.30282
3285.598, 35.83067
3287.527, 35.77567
3289.455, 36.10078
3291.384, 35.63152
3293.312, 33.53420
3295.241, 34.92353
3297.169, 35.23912
3299.098, 33.53818
3301.026, 32.32773
3302.955, 32.81094
3304.883, 39.23827
3306.812, 42.73804
3308.740, 34.13714
3310.668, 37.67084
3312.597, 37.00320
3314.525, 34.13805
3316.454, 32.49769
3318.382, 33.18772
3320.311, 32.99482
3322.239, 31.91382
3324.168, 30.82416
3326.096, 30.83084
3328.025, 32.78363
3329.953, 32.73588
3331.882, 31.15825
3333.810, 29.32087
3335.739, 26.83257
3337.667, 28.03355
3339.595, 30.55819
3341.524, 31.87264
3343.452, 29.47528
3345.381, 29.81643
3347.309, 30.30666
3349.238, 29.89181
3351.166, 28.64861
3353.095, 29.45234
3355.023, 28.97217
3356.952, 28.73675
3358.880, 28.70053
3360.809, 26.98040
3362.737, 25.70844
3364.666, 26.98731
3366.594, 27.63154
3368.522, 25.84840
3370.451, 27.62473
3372.379, 27.53643
3374.308, 26.82627
3376.236, 27.07644
3378.165, 28.85299
3380.093, 25.54743
3382.022, 24.74353
3383.950, 25.57416
3385.879, 26.25521
3387.807, 27.09327
3389.736, 26.27826
3391.664, 24.40413
3393.593, 23.55446
3395.521, 25.11958
3397.449, 24.54896
3399.378, 25.28950
3401.306, 25.47720
3403.235, 25.35633
3405.163, 27.82057
3407.092, 25.77012
3409.020, 24.49548
3410.949, 24.94351
3412.877, 25.90001
3414.806, 24.26957
3416.734, 24.30364
3418.663, 25.95896
3420.591, 26.38740
3422.520, 24.00626
3424.448, 24.09595
3426.376, 23.58220
3428.305, 23.92899
3430.233, 24.89233
3432.162, 25.09792
3434.090, 23.64526
3436.019, 22.71128
3437.947, 22.96924
3439.876, 23.30628
3441.804, 21.90471
3443.733, 23.65897
3445.661, 24.23837
3447.590, 25.02022
3449.518, 25.60496
3451.447, 21.50501
##END=



