##NAMES=Gilmarite
##RRUFFID=R130688
##IDEAL CHEMISTRY=Cu^2+^_3_(AsO_4_)(OH)_3_
##LOCALITY=El Guanaco mine, Guanaco, Santa Catalina, Antofagasta Province, Antofagasta Region, Chile
##OWNER=RRUFF
##SOURCE=Bob Jenkins
##DESCRIPTION=Lozenge-shaped blue crystals
##STATUS=The identification of this mineral has been confirmed by single-crystal X-ray diffraction
##URL=https://www.rruff.net/odr/rruff_sample/R130688
##DIFFRACTION SAMPLE DESCRIPTION=Single crystal, powder profile is calculated
##CELL PARAMETERS=a: 5.455 b: 5.879 c: 5.112 alpha: 114.91 beta: 93.26 gamma: 92.03 volume: 148.13 crystal system: triclinic
##FILETYPE=Raman Processed
##RAMAN WAVELENGTH=532

95.17188, 1360.158
97.10034, 1385.934
99.02881, 1429.300
100.9573, 1529.647
102.8857, 1639.649
104.8142, 1748.676
106.7427, 1862.202
108.6711, 1967.971
110.5996, 2065.951
112.5281, 2161.372
114.4565, 2241.551
116.3850, 2305.440
118.3135, 2361.015
120.2419, 2411.926
122.1704, 2459.971
124.0989, 2501.995
126.0273, 2530.058
127.9558, 2542.579
129.8843, 2568.368
131.8127, 2616.359
133.7412, 2670.559
135.6697, 2717.713
137.5981, 2751.132
139.5266, 2779.835
141.4551, 2804.096
143.3835, 2822.895
145.3120, 2840.947
147.2405, 2855.479
149.1689, 2870.433
151.0974, 2892.406
153.0259, 2926.899
154.9543, 2964.972
156.8828, 3003.570
158.8113, 3041.891
160.7397, 3084.195
162.6682, 3130.173
164.5967, 3179.737
166.5251, 3234.738
168.4536, 3310.251
170.3821, 3376.745
172.3105, 3420.573
174.2390, 3433.659
176.1675, 3437.593
178.0959, 3433.991
180.0244, 3423.405
181.9529, 3411.878
183.8813, 3398.104
185.8098, 3385.589
187.7383, 3376.567
189.6667, 3373.259
191.5952, 3372.863
193.5237, 3378.040
195.4521, 3387.778
197.3806, 3396.009
199.3091, 3397.504
201.2375, 3399.832
203.1660, 3410.350
205.0945, 3433.370
207.0229, 3457.049
208.9514, 3479.124
210.8799, 3499.652
212.8083, 3517.372
214.7368, 3534.532
216.6653, 3547.991
218.5938, 3553.155
220.5222, 3546.657
222.4507, 3539.829
224.3792, 3536.419
226.3076, 3537.347
228.2361, 3539.273
230.1646, 3544.365
232.0930, 3549.624
234.0215, 3551.392
235.9500, 3545.947
237.8784, 3542.558
239.8069, 3544.518
241.7354, 3553.585
243.6638, 3561.856
245.5923, 3567.026
247.5208, 3572.104
249.4492, 3580.222
251.3777, 3592.758
253.3062, 3607.442
255.2346, 3625.034
257.1631, 3645.880
259.0916, 3665.179
261.0200, 3679.301
262.9485, 3692.752
264.8770, 3711.227
266.8054, 3743.043
268.7339, 3772.100
270.6624, 3793.811
272.5908, 3808.754
274.5193, 3820.476
276.4478, 3827.210
278.3762, 3831.441
280.3047, 3835.756
282.2332, 3839.229
284.1616, 3843.585
286.0901, 3850.625
288.0186, 3860.207
289.9470, 3867.095
291.8755, 3867.934
293.8040, 3867.409
295.7324, 3871.153
297.6609, 3880.514
299.5894, 3890.934
301.5178, 3900.198
303.4463, 3907.932
305.3748, 3919.604
307.3032, 3933.869
309.2317, 3952.230
311.1602, 3976.402
313.0886, 4006.934
315.0171, 4040.292
316.9456, 4077.092
318.8740, 4117.071
320.8025, 4152.399
322.7310, 4185.916
324.6594, 4212.828
326.5879, 4230.471
328.5164, 4238.386
330.4448, 4238.168
332.3733, 4229.540
334.3018, 4213.137
336.2302, 4194.069
338.1587, 4170.962
340.0872, 4147.287
342.0156, 4124.205
343.9441, 4100.700
345.8726, 4083.302
347.8010, 4074.618
349.7295, 4072.542
351.6580, 4071.344
353.5864, 4069.819
355.5149, 4070.251
357.4434, 4073.120
359.3718, 4078.773
361.3003, 4083.863
363.2288, 4085.986
365.1572, 4087.854
367.0857, 4093.277
369.0142, 4104.903
370.9426, 4114.848
372.8711, 4120.508
374.7996, 4121.615
376.7280, 4124.463
378.6565, 4126.483
380.5850, 4132.387
382.5134, 4145.650
384.4419, 4168.341
386.3704, 4192.653
388.2988, 4213.965
390.2273, 4234.846
392.1558, 4265.925
394.0842, 4311.681
396.0127, 4362.155
397.9412, 4413.268
399.8696, 4464.792
401.7981, 4515.491
403.7266, 4566.011
405.6550, 4614.587
407.5835, 4658.501
409.5120, 4696.228
411.4404, 4731.856
413.3689, 4766.833
415.2974, 4801.329
417.2258, 4835.690
419.1543, 4866.605
421.0828, 4900.544
423.0112, 4943.979
424.9397, 4998.561
426.8682, 5054.566
428.7966, 5110.999
430.7251, 5167.373
432.6536, 5221.851
434.5820, 5270.780
436.5105, 5321.315
438.4390, 5378.713
440.3674, 5442.242
442.2959, 5500.348
444.2244, 5550.129
446.1528, 5593.192
448.0813, 5629.699
450.0098, 5655.353
451.9382, 5679.564
453.8667, 5708.081
455.7952, 5736.777
457.7236, 5753.538
459.6521, 5761.345
461.5806, 5754.232
463.5090, 5728.934
465.4375, 5684.774
467.3660, 5627.913
469.2944, 5540.778
471.2229, 5448.415
473.1514, 5376.159
475.0798, 5329.313
477.0083, 5295.446
478.9368, 5271.916
480.8652, 5258.848
482.7937, 5254.383
484.7222, 5264.751
486.6506, 5276.732
488.5791, 5285.336
490.5076, 5292.487
492.4360, 5294.014
494.3645, 5296.362
496.2930, 5292.741
498.2214, 5272.652
500.1499, 5229.349
502.0784, 5188.287
504.0068, 5157.215
505.9353, 5134.253
507.8638, 5109.732
509.7922, 5081.573
511.7207, 5052.418
513.6492, 5024.032
515.5776, 4996.744
517.5061, 4967.394
519.4346, 4935.478
521.3630, 4902.331
523.2915, 4869.027
525.2200, 4836.250
527.1484, 4802.983
529.0769, 4764.479
531.0054, 4725.573
532.9338, 4696.323
534.8623, 4683.232
536.7908, 4672.705
538.7192, 4659.833
540.6477, 4643.925
542.5762, 4629.671
544.5046, 4616.649
546.4331, 4605.977
548.3616, 4599.112
550.2900, 4598.145
552.2185, 4595.179
554.1470, 4586.398
556.0754, 4575.913
558.0039, 4571.631
559.9324, 4575.642
561.8608, 4580.619
563.7893, 4582.239
565.7178, 4581.598
567.6462, 4585.557
569.5747, 4599.448
571.5032, 4612.744
573.4316, 4621.460
575.3601, 4625.275
577.2886, 4626.482
579.2170, 4622.821
581.1455, 4619.378
583.0740, 4620.342
585.0024, 4628.555
586.9309, 4637.754
588.8594, 4648.917
590.7878, 4660.500
592.7163, 4668.565
594.6448, 4669.273
596.5732, 4672.548
598.5017, 4682.043
600.4302, 4696.551
602.3586, 4710.133
604.2871, 4722.092
606.2156, 4733.060
608.1440, 4743.688
610.0725, 4754.288
612.0010, 4763.370
613.9294, 4769.993
615.8579, 4777.018
617.7864, 4786.427
619.7148, 4799.366
621.6433, 4813.987
623.5718, 4830.219
625.5002, 4847.738
627.4287, 4866.317
629.3572, 4886.202
631.2856, 4903.917
633.2141, 4916.040
635.1426, 4924.191
637.0710, 4934.654
638.9995, 4951.212
640.9280, 4966.161
642.8564, 4977.875
644.7849, 4986.640
646.7134, 4992.767
648.6418, 4992.909
650.5703, 4994.825
652.4988, 5003.132
654.4272, 5021.038
656.3557, 5034.616
658.2842, 5043.251
660.2126, 5048.362
662.1411, 5049.898
664.0696, 5047.384
665.9980, 5047.298
667.9265, 5050.813
669.8550, 5058.105
671.7834, 5069.718
673.7119, 5090.781
675.6404, 5110.254
677.5688, 5126.917
679.4973, 5141.021
681.4258, 5153.564
683.3542, 5163.868
685.2827, 5172.182
687.2112, 5177.255
689.1396, 5179.821
691.0681, 5184.800
692.9966, 5197.454
694.9250, 5207.735
696.8535, 5210.428
698.7820, 5207.806
700.7104, 5209.290
702.6389, 5217.677
704.5674, 5228.861
706.4958, 5241.097
708.4243, 5254.430
710.3528, 5266.442
712.2813, 5275.352
714.2097, 5283.554
716.1382, 5293.287
718.0667, 5304.735
719.9951, 5313.932
721.9236, 5316.750
723.8521, 5319.791
725.7805, 5328.263
727.7090, 5349.870
729.6375, 5365.467
731.5659, 5369.545
733.4944, 5370.688
735.4229, 5378.188
737.3513, 5392.356
739.2798, 5410.476
741.2083, 5434.669
743.1367, 5461.016
745.0652, 5484.077
746.9937, 5497.836
748.9221, 5514.396
750.8506, 5536.600
752.7791, 5561.534
754.7075, 5583.633
756.6360, 5601.410
758.5645, 5620.625
760.4929, 5642.836
762.4214, 5668.571
764.3499, 5699.024
766.2783, 5735.341
768.2068, 5775.171
770.1353, 5818.933
772.0637, 5865.180
773.9922, 5909.724
775.9207, 5947.481
777.8491, 5989.732
779.7776, 6042.351
781.7061, 6104.193
783.6345, 6163.490
785.5630, 6217.914
787.4915, 6274.190
789.4199, 6331.691
791.3484, 6392.905
793.2769, 6466.753
795.2053, 6556.541
797.1338, 6655.480
799.0623, 6760.349
800.9907, 6870.685
802.9192, 6985.669
804.8477, 7116.629
806.7761, 7241.206
808.7046, 7346.448
810.6331, 7434.100
812.5615, 7531.794
814.4900, 7653.069
816.4185, 7770.255
818.3469, 7869.991
820.2754, 7952.583
822.2039, 8028.267
824.1323, 8088.581
826.0608, 8148.771
827.9893, 8210.770
829.9177, 8274.613
831.8462, 8354.897
833.7747, 8492.521
835.7031, 8600.601
837.6316, 8641.717
839.5601, 8619.068
841.4885, 8546.803
843.4170, 8404.092
845.3455, 8231.347
847.2739, 8031.116
849.2024, 7801.373
851.1309, 7589.545
853.0593, 7386.453
854.9878, 7208.335
856.9163, 7066.900
858.8447, 6957.569
860.7732, 6864.530
862.7017, 6795.721
864.6301, 6735.244
866.5586, 6675.410
868.4871, 6617.044
870.4155, 6576.875
872.3440, 6575.255
874.2725, 6569.645
876.2009, 6537.511
878.1294, 6486.414
880.0579, 6443.143
881.9863, 6411.556
883.9148, 6385.216
885.8433, 6362.312
887.7717, 6342.376
889.7002, 6322.695
891.6287, 6304.235
893.5571, 6285.030
895.4856, 6261.352
897.4141, 6237.165
899.3425, 6223.226
901.2710, 6224.772
903.1995, 6228.388
905.1279, 6228.991
907.0564, 6228.105
908.9849, 6229.819
910.9133, 6234.801
912.8418, 6240.500
914.7703, 6246.936
916.6987, 6252.851
918.6272, 6256.016
920.5557, 6255.365
922.4841, 6254.864
924.4126, 6256.927
926.3411, 6260.113
928.2695, 6262.182
930.1980, 6261.987
932.1265, 6265.459
934.0549, 6275.246
935.9834, 6288.117
937.9119, 6300.382
939.8403, 6311.415
941.7688, 6322.612
943.6973, 6333.734
945.6257, 6344.479
947.5542, 6354.093
949.4827, 6362.178
951.4111, 6371.829
953.3396, 6386.713
955.2681, 6400.777
957.1965, 6409.686
959.1250, 6412.075
961.0535, 6418.849
962.9819, 6435.956
964.9104, 6451.440
966.8389, 6457.313
968.7673, 6455.925
970.6958, 6458.040
972.6243, 6467.521
974.5527, 6475.644
976.4812, 6477.306
978.4097, 6474.610
980.3381, 6476.963
982.2666, 6489.817
984.1951, 6502.129
986.1235, 6513.866
988.0520, 6523.964
989.9805, 6528.887
991.9089, 6525.409
993.8374, 6526.657
995.7659, 6538.212
997.6943, 6554.590
999.6228, 6570.732
1001.551, 6586.935
1003.480, 6600.202
1005.408, 6610.065
1007.337, 6617.141
1009.265, 6620.863
1011.194, 6620.188
1013.122, 6623.712
1015.051, 6633.562
1016.979, 6646.763
1018.907, 6664.323
1020.836, 6685.158
1022.764, 6703.555
1024.693, 6715.966
1026.621, 6730.839
1028.550, 6751.935
1030.478, 6777.043
1032.407, 6799.891
1034.335, 6817.958
1036.264, 6834.610
1038.192, 6849.085
1040.121, 6861.732
1042.049, 6873.420
1043.978, 6884.345
1045.906, 6893.036
1047.834, 6898.510
1049.763, 6902.723
1051.691, 6908.247
1053.620, 6916.084
1055.548, 6920.628
1057.477, 6919.626
1059.405, 6918.807
1061.334, 6920.323
1063.262, 6924.669
1065.191, 6932.204
1067.119, 6941.013
1069.048, 6954.849
1070.976, 6976.807
1072.905, 7002.526
1074.833, 7025.565
1076.761, 7045.240
1078.690, 7059.979
1080.618, 7065.272
1082.547, 7067.534
1084.475, 7072.531
1086.404, 7082.793
1088.332, 7090.654
1090.261, 7096.392
1092.189, 7101.642
1094.118, 7105.728
1096.046, 7109.517
1097.975, 7118.903
1099.903, 7136.063
1101.832, 7154.030
1103.760, 7171.458
1105.688, 7187.305
1107.617, 7199.115
1109.545, 7204.833
1111.474, 7212.831
1113.402, 7225.622
1115.331, 7240.614
1117.259, 7256.303
1119.188, 7273.227
1121.116, 7286.143
1123.045, 7290.235
1124.973, 7294.713
1126.902, 7306.088
1128.830, 7321.958
1130.759, 7332.815
1132.687, 7337.499
1134.615, 7341.977
1136.544, 7347.202
1138.472, 7354.681
1140.401, 7366.382
1142.329, 7382.913
1144.258, 7399.996
1146.186, 7416.038
1148.115, 7431.542
1150.043, 7445.887
1151.972, 7458.840
1153.900, 7473.594
1155.829, 7494.507
1157.757, 7512.005
1159.686, 7520.705
1161.614, 7525.892
1163.542, 7537.828
1165.471, 7559.464
1167.399, 7574.947
1169.328, 7573.440
1171.256, 7571.310
1173.185, 7580.044
1175.113, 7600.534
1177.042, 7621.737
1178.970, 7642.551
1180.899, 7665.136
1182.827, 7690.381
1184.756, 7716.729
1186.684, 7740.713
1188.613, 7759.667
1190.541, 7779.091
1192.469, 7805.470
1194.398, 7827.073
1196.326, 7831.218
1198.255, 7821.359
1200.183, 7819.029
1202.112, 7830.962
1204.040, 7846.922
1205.969, 7864.073
1207.897, 7882.820
1209.826, 7903.498
1211.754, 7927.473
1213.683, 7948.018
1215.611, 7957.897
1217.540, 7967.658
1219.468, 7986.295
1221.396, 8013.635
1223.325, 8033.780
1225.253, 8044.200
1227.182, 8051.956
1229.110, 8056.757
1231.039, 8062.172
1232.967, 8073.767
1234.896, 8092.769
1236.824, 8112.048
1238.753, 8129.846
1240.681, 8148.643
1242.610, 8169.747
1244.538, 8192.940
1246.467, 8216.604
1248.395, 8239.930
1250.323, 8263.244
1252.252, 8285.714
1254.180, 8307.141
1256.109, 8327.766
1258.037, 8347.637
1259.966, 8363.326
1261.894, 8369.757
1263.823, 8377.841
1265.751, 8395.743
1267.680, 8418.583
1269.608, 8434.615
1271.537, 8443.600
1273.465, 8450.489
1275.394, 8453.216
1277.322, 8458.854
1279.250, 8472.351
1281.179, 8493.229
1283.107, 8516.289
1285.036, 8542.081
1286.964, 8566.771
1288.893, 8589.839
1290.821, 8609.242
1292.750, 8621.688
1294.678, 8623.009
1296.607, 8630.212
1298.535, 8647.396
1300.464, 8666.635
1302.392, 8685.463
1304.321, 8704.825
1306.249, 8726.858
1308.177, 8752.799
1310.106, 8775.176
1312.034, 8792.338
1313.963, 8804.493
1315.891, 8807.642
1317.820, 8805.902
1319.748, 8814.422
1321.677, 8839.789
1323.605, 8864.416
1325.534, 8882.357
1327.462, 8899.733
1329.391, 8921.166
1331.319, 8946.480
1333.248, 8971.339
1335.176, 8991.643
1337.104, 9012.032
1339.033, 9032.412
1340.961, 9051.259
1342.890, 9067.828
1344.818, 9083.266
1346.747, 9092.001
1348.675, 9091.553
1350.604, 9090.752
1352.532, 9094.994
1354.461, 9103.246
1356.389, 9112.826
1358.318, 9125.093
1360.246, 9135.243
1362.175, 9136.052
1364.103, 9141.344
1366.031, 9160.775
1367.960, 9188.778
1369.888, 9214.247
1371.817, 9236.345
1373.745, 9255.482
1375.674, 9271.275
1377.602, 9284.308
1379.531, 9290.948
1381.459, 9293.544
1383.388, 9309.581
1385.316, 9352.260
1387.245, 9384.812
1389.173, 9398.105
1391.102, 9403.541
1393.030, 9407.418
1394.958, 9410.145
1396.887, 9416.880
1398.815, 9431.308
1400.744, 9445.377
1402.672, 9455.014
1404.601, 9466.354
1406.529, 9485.692
1408.458, 9511.666
1410.386, 9535.512
1412.315, 9557.532
1414.243, 9573.807
1416.172, 9582.032
1418.100, 9584.849
1420.029, 9582.888
1421.957, 9578.287
1423.885, 9580.850
1425.814, 9594.617
1427.742, 9611.505
1429.671, 9631.689
1431.599, 9651.945
1433.528, 9667.387
1435.456, 9677.579
1437.385, 9693.389
1439.313, 9716.419
1441.242, 9740.871
1443.170, 9766.524
1445.099, 9791.113
1447.027, 9813.022
1448.956, 9832.330
1450.884, 9847.824
1452.813, 9851.509
1454.741, 9862.788
1456.669, 9891.273
1458.598, 9923.085
1460.526, 9945.368
1462.455, 9958.146
1464.383, 9972.431
1466.312, 9993.082
1468.240, 10005.53
1470.169, 9998.953
1472.097, 9990.866
1474.026, 9997.593
1475.954, 10017.50
1477.883, 10037.07
1479.811, 10057.81
1481.740, 10077.87
1483.668, 10093.38
1485.596, 10111.22
1487.525, 10135.20
1489.453, 10162.68
1491.382, 10189.18
1493.310, 10212.26
1495.239, 10235.93
1497.167, 10265.69
1499.096, 10290.23
1501.024, 10303.93
1502.953, 10309.94
1504.881, 10313.65
1506.810, 10314.58
1508.738, 10323.97
1510.667, 10346.23
1512.595, 10375.01
1514.523, 10412.51
1516.452, 10451.71
1518.380, 10479.25
1520.309, 10490.99
1522.237, 10504.93
1524.166, 10522.75
1526.094, 10541.12
1528.023, 10556.42
1529.951, 10574.72
1531.880, 10605.60
1533.808, 10651.57
1535.737, 10691.33
1537.665, 10723.08
1539.594, 10752.08
1541.522, 10777.28
1543.450, 10800.74
1545.379, 10822.69
1547.307, 10842.88
1549.236, 10864.33
1551.164, 10886.97
1553.093, 10910.08
1555.021, 10938.67
1556.950, 10963.43
1558.878, 10974.43
1560.807, 10979.72
1562.735, 10999.86
1564.664, 11037.71
1566.592, 11071.69
1568.521, 11097.20
1570.449, 11119.51
1572.377, 11140.82
1574.306, 11157.92
1576.234, 11165.17
1578.163, 11163.54
1580.091, 11163.75
1582.020, 11168.62
1583.948, 11173.60
1585.877, 11179.77
1587.805, 11186.28
1589.734, 11192.16
1591.662, 11198.30
1593.591, 11206.38
1595.519, 11215.98
1597.448, 11224.92
1599.376, 11229.18
1601.304, 11235.34
1603.233, 11253.23
1605.161, 11270.65
1607.090, 11268.71
1609.018, 11248.70
1610.947, 11236.21
1612.875, 11238.79
1614.804, 11239.09
1616.732, 11228.46
1618.661, 11216.07
1620.589, 11204.58
1622.518, 11195.85
1624.446, 11200.89
1626.375, 11224.55
1628.303, 11235.44
1630.231, 11218.60
1632.160, 11203.12
1634.088, 11205.47
1636.017, 11214.57
1637.945, 11213.85
1639.874, 11203.36
1641.802, 11201.50
1643.731, 11211.75
1645.659, 11221.44
1647.588, 11229.05
1649.516, 11232.22
1651.445, 11227.19
1653.373, 11218.09
1655.302, 11215.30
1657.230, 11220.62
1659.158, 11228.86
1661.087, 11243.85
1663.015, 11255.48
1664.944, 11254.67
1666.872, 11253.34
1668.801, 11262.82
1670.729, 11281.43
1672.658, 11298.90
1674.586, 11317.47
1676.515, 11330.83
1678.443, 11329.33
1680.372, 11336.24
1682.300, 11365.82
1684.229, 11404.71
1686.157, 11435.17
1688.085, 11455.71
1690.014, 11480.77
1691.942, 11511.88
1693.871, 11538.61
1695.799, 11557.16
1697.728, 11571.29
1699.656, 11582.63
1701.585, 11591.35
1703.513, 11597.33
1705.442, 11601.24
1707.370, 11607.15
1709.299, 11618.40
1711.227, 11628.96
1713.156, 11636.79
1715.084, 11645.50
1717.012, 11657.17
1718.941, 11670.64
1720.869, 11684.38
1722.798, 11698.50
1724.726, 11706.20
1726.655, 11699.11
1728.583, 11699.84
1730.512, 11719.95
1732.440, 11743.00
1734.369, 11762.12
1736.297, 11776.38
1738.226, 11780.83
1740.154, 11773.14
1742.083, 11774.02
1744.011, 11789.27
1745.939, 11802.50
1747.868, 11806.39
1749.796, 11810.37
1751.725, 11822.19
1753.653, 11839.03
1755.582, 11854.03
1757.510, 11867.79
1759.439, 11880.39
1761.367, 11890.35
1763.296, 11901.05
1765.224, 11906.92
1767.153, 11917.77
1769.081, 11944.58
1771.010, 11976.31
1772.938, 11994.49
1774.866, 11999.64
1776.795, 11993.25
1778.723, 11969.98
1780.652, 11956.45
1782.580, 11963.12
1784.509, 11978.38
1786.437, 12002.79
1788.366, 12027.39
1790.294, 12034.69
1792.223, 12027.48
1794.151, 12034.73
1796.080, 12060.97
1798.008, 12087.48
1799.937, 12112.04
1801.865, 12132.46
1803.793, 12145.31
1805.722, 12154.91
1807.650, 12165.87
1809.579, 12177.51
1811.507, 12186.78
1813.436, 12193.23
1815.364, 12202.75
1817.293, 12218.38
1819.221, 12235.45
1821.150, 12255.59
1823.078, 12274.63
1825.007, 12285.46
1826.935, 12293.41
1828.864, 12310.49
1830.792, 12336.06
1832.720, 12365.01
1834.649, 12399.08
1836.577, 12427.52
1838.506, 12444.74
1840.434, 12457.62
1842.363, 12468.95
1844.291, 12479.11
1846.220, 12490.56
1848.148, 12503.05
1850.077, 12506.91
1852.005, 12497.76
1853.934, 12493.92
1855.862, 12500.79
1857.791, 12509.46
1859.719, 12518.25
1861.647, 12529.27
1863.576, 12543.98
1865.504, 12562.65
1867.433, 12585.75
1869.361, 12613.74
1871.290, 12636.73
1873.218, 12647.62
1875.147, 12659.62
1877.075, 12670.46
1879.004, 12684.34
1880.932, 12708.25
1882.861, 12733.84
1884.789, 12754.03
1886.718, 12769.54
1888.646, 12777.72
1890.574, 12777.82
1892.503, 12778.67
1894.431, 12775.86
1896.360, 12783.49
1898.288, 12816.67
1900.217, 12845.29
1902.145, 12846.24
1904.074, 12837.07
1906.002, 12842.41
1907.931, 12859.30
1909.859, 12872.01
1911.788, 12880.11
1913.716, 12887.06
1915.645, 12889.98
1917.573, 12899.68
1919.501, 12926.28
1921.430, 12952.75
1923.358, 12967.95
1925.287, 12975.58
1927.215, 12980.91
1929.144, 12983.96
1931.072, 12983.57
1933.001, 12975.79
1934.929, 12981.61
1936.858, 13017.85
1938.786, 13047.11
1940.715, 13056.90
1942.643, 13061.30
1944.572, 13067.53
1946.500, 13074.39
1948.428, 13076.72
1950.357, 13075.84
1952.285, 13091.55
1954.214, 13130.79
1956.142, 13162.04
1958.071, 13182.10
1959.999, 13194.83
1961.928, 13195.58
1963.856, 13194.83
1965.785, 13199.49
1967.713, 13205.84
1969.642, 13210.66
1971.570, 13215.10
1973.499, 13219.42
1975.427, 13224.47
1977.355, 13232.28
1979.284, 13241.63
1981.212, 13256.98
1983.141, 13280.00
1985.069, 13304.35
1986.998, 13327.82
1988.926, 13347.23
1990.855, 13357.80
1992.783, 13362.11
1994.712, 13367.94
1996.640, 13376.15
1998.569, 13381.12
2000.497, 13387.40
2002.426, 13386.71
2004.354, 13370.81
2006.282, 13362.67
2008.211, 13372.36
2010.139, 13386.05
2012.068, 13394.23
2013.996, 13400.89
2015.925, 13411.00
2017.853, 13424.50
2019.782, 13442.57
2021.710, 13465.99
2023.639, 13487.96
2025.567, 13507.24
2027.496, 13528.19
2029.424, 13554.78
2031.353, 13575.53
2033.281, 13579.06
2035.209, 13579.60
2037.138, 13587.48
2039.066, 13600.02
2040.995, 13615.05
2042.923, 13631.86
2044.852, 13643.72
2046.780, 13650.23
2048.709, 13654.76
2050.637, 13654.77
2052.566, 13656.57
2054.494, 13665.33
2056.423, 13670.00
2058.351, 13663.46
2060.280, 13656.07
2062.208, 13655.42
2064.136, 13660.90
2066.065, 13673.49
2067.993, 13691.49
2069.922, 13698.74
2071.850, 13692.69
2073.779, 13697.09
2075.707, 13716.15
2077.636, 13732.98
2079.564, 13743.56
2081.493, 13750.36
2083.421, 13756.37
2085.350, 13759.08
2087.278, 13757.67
2089.207, 13753.21
2091.135, 13742.96
2093.063, 13730.66
2094.992, 13733.10
2096.920, 13753.38
2098.849, 13761.97
2100.777, 13746.65
2102.706, 13742.00
2104.634, 13754.52
2106.563, 13770.92
2108.491, 13800.15
2110.420, 13819.77
2112.348, 13810.41
2114.277, 13794.68
2116.205, 13791.56
2118.134, 13798.19
2120.062, 13810.42
2121.990, 13827.11
2123.919, 13845.35
2125.847, 13865.19
2127.776, 13880.43
2129.704, 13888.15
2131.633, 13894.69
2133.561, 13900.29
2135.490, 13903.69
2137.418, 13904.25
2139.347, 13901.76
2141.275, 13896.20
2143.204, 13889.47
2145.132, 13882.72
2147.061, 13879.35
2148.989, 13888.67
2150.917, 13909.71
2152.846, 13922.89
2154.774, 13925.61
2156.703, 13931.08
2158.631, 13938.79
2160.560, 13945.43
2162.488, 13948.17
2164.417, 13948.85
2166.345, 13948.89
2168.274, 13948.09
2170.202, 13950.17
2172.131, 13952.73
2174.059, 13952.28
2175.988, 13952.11
2177.916, 13958.07
2179.844, 13969.27
2181.773, 13974.36
2183.701, 13970.98
2185.630, 13981.37
2187.558, 14009.41
2189.487, 14030.32
2191.415, 14036.67
2193.344, 14040.49
2195.272, 14048.30
2197.201, 14051.96
2199.129, 14046.55
2201.058, 14038.71
2202.986, 14031.36
2204.915, 14028.14
2206.843, 14035.63
2208.771, 14051.36
2210.700, 14067.28
2212.628, 14083.30
2214.557, 14094.99
2216.485, 14100.72
2218.414, 14111.40
2220.342, 14128.92
2222.271, 14137.83
2224.199, 14128.94
2226.128, 14122.35
2228.056, 14130.26
2229.985, 14136.88
2231.913, 14133.51
2233.842, 14131.56
2235.770, 14142.82
2237.698, 14159.46
2239.627, 14171.19
2241.555, 14178.96
2243.484, 14184.06
2245.412, 14186.13
2247.341, 14190.97
2249.269, 14198.33
2251.198, 14206.34
2253.126, 14215.94
2255.055, 14223.74
2256.983, 14230.25
2258.912, 14234.58
2260.840, 14235.98
2262.769, 14235.99
2264.697, 14228.77
2266.625, 14227.43
2268.554, 14247.39
2270.482, 14267.69
2272.411, 14265.28
2274.339, 14255.77
2276.268, 14263.07
2278.196, 14279.74
2280.125, 14288.18
2282.053, 14289.60
2283.982, 14289.31
2285.910, 14287.44
2287.839, 14295.88
2289.767, 14321.40
2291.696, 14341.03
2293.624, 14350.84
2295.552, 14358.04
2297.481, 14355.54
2299.409, 14361.03
2301.338, 14385.46
2303.266, 14407.77
2305.195, 14419.32
2307.123, 14424.88
2309.052, 14427.17
2310.980, 14426.20
2312.909, 14418.55
2314.837, 14409.17
2316.766, 14405.42
2318.694, 14408.01
2320.623, 14423.45
2322.551, 14451.33
2324.479, 14460.55
2326.408, 14450.01
2328.336, 14451.31
2330.265, 14467.98
2332.193, 14479.98
2334.122, 14482.17
2336.050, 14483.99
2337.979, 14483.39
2339.907, 14488.94
2341.836, 14511.63
2343.764, 14529.61
2345.693, 14531.89
2347.621, 14531.44
2349.550, 14534.17
2351.478, 14539.04
2353.406, 14543.07
2355.335, 14549.37
2357.263, 14564.80
2359.192, 14582.23
2361.120, 14590.45
2363.049, 14590.27
2364.977, 14583.24
2366.906, 14570.10
2368.834, 14562.25
2370.763, 14561.65
2372.691, 14557.34
2374.620, 14549.81
2376.548, 14542.00
2378.477, 14532.30
2380.405, 14538.37
2382.333, 14571.48
2384.262, 14597.97
2386.190, 14600.72
2388.119, 14606.49
2390.047, 14624.18
2391.976, 14642.49
2393.904, 14653.30
2395.833, 14666.29
2397.761, 14693.53
2399.690, 14718.42
2401.618, 14723.71
2403.547, 14722.13
2405.475, 14725.50
2407.404, 14731.44
2409.332, 14739.01
2411.260, 14745.80
2413.189, 14745.47
2415.117, 14740.03
2417.046, 14733.35
2418.974, 14727.07
2420.903, 14738.39
2422.831, 14767.54
2424.760, 14787.50
2426.688, 14793.42
2428.617, 14812.20
2430.545, 14853.00
2432.474, 14876.43
2434.402, 14864.94
2436.331, 14857.25
2438.259, 14866.88
2440.188, 14868.29
2442.116, 14850.42
2444.044, 14843.19
2445.973, 14862.75
2447.901, 14884.64
2449.830, 14891.02
2451.758, 14899.66
2453.687, 14924.25
2455.615, 14946.67
2457.544, 14953.73
2459.472, 14950.02
2461.401, 14935.22
2463.329, 14920.00
2465.258, 14926.20
2467.186, 14938.74
2469.115, 14926.51
2471.043, 14904.53
2472.971, 14905.60
2474.900, 14922.74
2476.828, 14928.61
2478.757, 14924.02
2480.685, 14932.65
2482.614, 14953.23
2484.542, 14966.61
2486.471, 14972.97
2488.399, 14983.32
2490.328, 15000.06
2492.256, 15009.31
2494.185, 15006.57
2496.113, 15007.63
2498.042, 15013.04
2499.970, 15019.20
2501.898, 15025.85
2503.827, 15029.21
2505.755, 15030.42
2507.684, 15022.55
2509.612, 14997.96
2511.541, 14981.21
2513.469, 14985.87
2515.398, 14995.73
2517.326, 15011.43
2519.255, 15022.60
2521.183, 15010.99
2523.112, 15008.85
2525.040, 15040.09
2526.969, 15069.51
2528.897, 15073.83
2530.825, 15069.08
2532.754, 15065.98
2534.682, 15065.07
2536.611, 15064.40
2538.539, 15069.37
2540.468, 15088.46
2542.396, 15112.14
2544.325, 15125.45
2546.253, 15135.61
2548.182, 15157.06
2550.110, 15181.25
2552.039, 15191.65
2553.967, 15193.88
2555.896, 15202.15
2557.824, 15213.54
2559.752, 15212.90
2561.681, 15204.56
2563.609, 15205.83
2565.538, 15215.61
2567.466, 15233.16
2569.395, 15256.83
2571.323, 15261.44
2573.252, 15246.88
2575.180, 15252.14
2577.109, 15277.92
2579.037, 15287.66
2580.966, 15280.01
2582.894, 15290.22
2584.823, 15323.61
2586.751, 15339.82
2588.679, 15330.67
2590.608, 15325.17
2592.536, 15323.86
2594.465, 15326.75
2596.393, 15334.91
2598.322, 15343.56
2600.250, 15352.51
2602.179, 15358.05
2604.107, 15353.65
2606.036, 15358.25
2607.964, 15383.25
2609.893, 15396.12
2611.821, 15388.26
2613.750, 15387.90
2615.678, 15403.27
2617.606, 15417.63
2619.535, 15425.03
2621.463, 15433.63
2623.392, 15446.12
2625.320, 15455.97
2627.249, 15460.43
2629.177, 15463.97
2631.106, 15469.33
2633.034, 15470.70
2634.963, 15464.37
2636.891, 15459.54
2638.820, 15458.78
2640.748, 15462.79
2642.677, 15468.60
2644.605, 15483.66
2646.533, 15519.86
2648.462, 15542.99
2650.390, 15530.55
2652.319, 15514.51
2654.247, 15513.41
2656.176, 15507.48
2658.104, 15479.79
2660.033, 15462.51
2661.961, 15475.22
2663.890, 15492.65
2665.818, 15503.81
2667.747, 15513.00
2669.675, 15522.61
2671.604, 15526.82
2673.532, 15514.92
2675.460, 15505.84
2677.389, 15511.04
2679.317, 15520.07
2681.246, 15532.45
2683.174, 15541.51
2685.103, 15542.87
2687.031, 15541.71
2688.960, 15541.25
2690.888, 15540.47
2692.817, 15532.96
2694.745, 15535.14
2696.674, 15558.72
2698.602, 15589.38
2700.531, 15625.54
2702.459, 15652.08
2704.387, 15651.99
2706.316, 15645.76
2708.244, 15643.51
2710.173, 15640.28
2712.101, 15629.54
2714.030, 15627.52
2715.958, 15658.43
2717.887, 15684.45
2719.815, 15672.79
2721.744, 15666.66
2723.672, 15695.41
2725.601, 15721.50
2727.529, 15722.48
2729.458, 15718.64
2731.386, 15718.03
2733.314, 15719.27
2735.243, 15724.53
2737.171, 15728.36
2739.100, 15728.04
2741.028, 15727.59
2742.957, 15729.82
2744.885, 15732.21
2746.814, 15734.15
2748.742, 15737.74
2750.671, 15742.97
2752.599, 15753.44
2754.528, 15767.92
2756.456, 15791.50
2758.385, 15833.63
2760.313, 15867.42
2762.241, 15875.39
2764.170, 15880.96
2766.098, 15887.07
2768.027, 15896.82
2769.955, 15917.99
2771.884, 15926.98
2773.812, 15917.18
2775.741, 15896.96
2777.669, 15857.04
2779.598, 15833.65
2781.526, 15839.88
2783.455, 15842.31
2785.383, 15831.96
2787.312, 15825.35
2789.240, 15823.06
2791.168, 15827.84
2793.097, 15841.96
2795.025, 15848.33
2796.954, 15842.05
2798.882, 15845.31
2800.811, 15867.06
2802.739, 15876.23
2804.668, 15864.21
2806.596, 15860.05
2808.525, 15866.76
2810.453, 15856.45
2812.382, 15825.33
2814.310, 15820.32
2816.239, 15850.73
2818.167, 15857.57
2820.095, 15836.95
2822.024, 15836.41
2823.952, 15854.31
2825.881, 15869.23
2827.809, 15879.19
2829.738, 15882.36
2831.666, 15878.34
2833.595, 15871.52
2835.523, 15862.24
2837.452, 15855.71
2839.380, 15849.04
2841.309, 15821.72
2843.237, 15791.22
2845.166, 15804.69
2847.094, 15842.40
2849.022, 15860.98
2850.951, 15869.25
2852.879, 15879.63
2854.808, 15890.42
2856.736, 15904.88
2858.665, 15913.66
2860.593, 15897.68
2862.522, 15881.07
2864.450, 15896.13
2866.379, 15910.75
2868.307, 15893.68
2870.236, 15874.59
2872.164, 15876.63
2874.093, 15881.31
2876.021, 15881.22
2877.949, 15878.25
2879.878, 15862.45
2881.806, 15863.63
2883.735, 15909.23
2885.663, 15945.11
2887.592, 15954.46
2889.520, 15954.14
2891.449, 15941.42
2893.377, 15937.05
2895.306, 15957.16
2897.234, 15963.56
2899.163, 15949.64
2901.091, 15944.29
2903.020, 15949.71
2904.948, 15970.90
2906.876, 16013.17
2908.805, 16015.24
2910.733, 15969.68
2912.662, 15956.69
2914.590, 15972.13
2916.519, 15980.09
2918.447, 15982.02
2920.376, 15986.38
2922.304, 15992.91
2924.233, 15994.96
2926.161, 15996.71
2928.090, 16011.93
2930.018, 16028.69
2931.947, 16021.33
2933.875, 16011.59
2935.803, 16035.22
2937.732, 16062.92
2939.660, 16071.89
2941.589, 16069.90
2943.517, 16058.60
2945.446, 16044.98
2947.374, 16024.38
2949.303, 16018.04
2951.231, 16044.97
2953.160, 16059.58
2955.088, 16032.10
2957.017, 16018.23
2958.945, 16043.31
2960.874, 16056.69
2962.802, 16051.29
2964.730, 16050.41
2966.659, 16055.95
2968.587, 16065.95
2970.516, 16080.97
2972.444, 16078.34
2974.373, 16060.41
2976.301, 16063.24
2978.230, 16082.93
2980.158, 16095.19
2982.087, 16097.40
2984.015, 16066.70
2985.944, 16027.27
2987.872, 16032.20
2989.801, 16052.31
2991.729, 16056.58
2993.657, 16052.36
2995.586, 16041.74
2997.514, 16033.76
2999.443, 16032.22
3001.371, 16037.08
3003.300, 16051.48
3005.228, 16064.51
3007.157, 16078.74
3009.085, 16073.02
3011.014, 16035.21
3012.942, 16009.58
3014.871, 16009.77
3016.799, 16018.44
3018.728, 16037.54
3020.656, 16046.64
3022.584, 16044.92
3024.513, 16043.41
3026.441, 16042.14
3028.370, 16044.94
3030.298, 16050.05
3032.227, 16055.10
3034.155, 16057.68
3036.084, 16051.93
3038.012, 16043.92
3039.941, 16040.43
3041.869, 16038.18
3043.798, 16034.65
3045.726, 16030.73
3047.655, 16029.40
3049.583, 16024.02
3051.511, 16007.55
3053.440, 15999.12
3055.368, 16006.01
3057.297, 16010.65
3059.225, 16010.19
3061.154, 16006.58
3063.082, 15999.57
3065.011, 15990.16
3066.939, 15979.53
3068.868, 15984.63
3070.796, 15998.55
3072.725, 15988.49
3074.653, 15971.01
3076.582, 15995.33
3078.510, 16024.05
3080.438, 16007.73
3082.367, 15983.12
3084.295, 15984.37
3086.224, 15986.60
3088.152, 15975.41
3090.081, 15965.97
3092.009, 15961.97
3093.938, 15962.94
3095.866, 15970.55
3097.795, 15971.46
3099.723, 15963.95
3101.652, 15957.04
3103.580, 15952.12
3105.509, 15947.95
3107.437, 15947.30
3109.365, 15970.11
3111.294, 16000.22
3113.222, 16001.03
3115.151, 15988.49
3117.079, 15975.35
3119.008, 15973.10
3120.936, 16002.01
3122.865, 16027.38
3124.793, 16021.71
3126.722, 16022.73
3128.650, 16042.59
3130.579, 16056.15
3132.507, 16053.94
3134.436, 16060.19
3136.364, 16078.64
3138.292, 16084.50
3140.221, 16080.29
3142.149, 16080.11
3144.078, 16084.33
3146.006, 16099.71
3147.935, 16112.95
3149.863, 16096.62
3151.792, 16077.05
3153.720, 16084.03
3155.649, 16088.27
3157.577, 16070.27
3159.506, 16056.47
3161.434, 16056.54
3163.363, 16056.73
3165.291, 16051.55
3167.219, 16054.17
3169.148, 16064.81
3171.076, 16072.17
3173.005, 16075.58
3174.933, 16064.44
3176.862, 16050.21
3178.790, 16064.37
3180.719, 16088.06
3182.647, 16102.81
3184.576, 16108.97
3186.504, 16103.50
3188.433, 16095.05
3190.361, 16086.72
3192.290, 16082.60
3194.218, 16090.42
3196.146, 16092.34
3198.075, 16087.49
3200.003, 16081.30
3201.932, 16073.49
3203.860, 16064.93
3205.789, 16058.83
3207.717, 16073.68
3209.646, 16090.74
3211.574, 16080.79
3213.503, 16070.29
3215.431, 16083.41
3217.360, 16092.78
3219.288, 16087.23
3221.217, 16073.94
3223.145, 16046.35
3225.073, 16031.96
3227.002, 16032.98
3228.930, 16013.10
3230.859, 15978.57
3232.787, 15968.05
3234.716, 15972.32
3236.644, 15972.91
3238.573, 15969.18
3240.501, 15954.56
3242.430, 15941.42
3244.358, 15935.53
3246.287, 15934.79
3248.215, 15942.10
3250.144, 15940.61
3252.072, 15925.88
3254.000, 15907.62
3255.929, 15887.16
3257.857, 15870.38
3259.786, 15857.90
3261.714, 15857.41
3263.643, 15853.02
3265.571, 15807.20
3267.500, 15771.39
3269.428, 15791.06
3271.357, 15811.21
3273.285, 15811.07
3275.214, 15817.76
3277.142, 15837.40
3279.071, 15844.69
3280.999, 15837.67
3282.927, 15836.49
3284.856, 15835.64
3286.784, 15817.26
3288.713, 15795.73
3290.641, 15794.58
3292.570, 15794.78
3294.498, 15783.41
3296.427, 15774.87
3298.355, 15773.47
3300.284, 15778.09
3302.212, 15788.16
3304.141, 15792.38
3306.069, 15788.86
3307.998, 15781.60
3309.926, 15772.02
3311.854, 15769.04
3313.783, 15764.52
3315.711, 15751.70
3317.640, 15735.45
3319.568, 15717.26
3321.497, 15704.40
3323.425, 15700.65
3325.354, 15695.10
3327.282, 15685.56
3329.211, 15691.74
3331.139, 15708.29
3333.068, 15716.85
3334.996, 15721.39
3336.925, 15729.42
3338.853, 15735.76
3340.781, 15731.46
3342.710, 15735.51
3344.638, 15759.72
3346.567, 15769.33
3348.495, 15758.34
3350.424, 15747.66
3352.352, 15738.55
3354.281, 15738.21
3356.209, 15739.21
3358.138, 15729.89
3360.066, 15715.16
3361.995, 15699.15
3363.923, 15680.31
3365.852, 15652.97
3367.780, 15644.70
3369.708, 15666.29
3371.637, 15679.33
3373.565, 15684.02
3375.494, 15677.83
3377.422, 15670.87
3379.351, 15684.32
3381.279, 15703.99
3383.208, 15719.35
3385.136, 15731.71
3387.065, 15741.87
3388.993, 15746.38
3390.922, 15745.38
3392.850, 15736.34
3394.779, 15721.13
3396.707, 15707.58
3398.635, 15692.81
3400.564, 15670.91
3402.492, 15649.59
3404.421, 15633.86
3406.349, 15626.71
3408.278, 15632.98
3410.206, 15635.42
3412.135, 15630.93
3414.063, 15623.51
3415.992, 15616.48
3417.920, 15626.88
3419.849, 15641.03
3421.777, 15634.22
3423.706, 15634.96
3425.634, 15676.75
3427.563, 15691.25
3429.491, 15655.06
3431.419, 15651.72
3433.348, 15681.33
3435.276, 15694.04
3437.205, 15692.93
3439.133, 15679.52
3441.062, 15668.04
3442.990, 15671.08
3444.919, 15679.99
3446.847, 15692.89
3448.776, 15713.08
3450.704, 15743.15
3452.633, 15740.96
3454.561, 15714.12
3456.490, 15688.77
3458.418, 15672.58
3460.346, 15689.72
3462.275, 15694.63
3464.203, 15657.50
3466.132, 15641.06
3468.060, 15674.46
3469.989, 15676.25
3471.917, 15653.73
3473.846, 15658.44
3475.774, 15671.66
3477.703, 15661.64
3479.631, 15650.77
3481.560, 15659.14
3483.488, 15656.89
3485.417, 15631.65
3487.345, 15620.08
3489.273, 15620.72
3491.202, 15606.04
3493.130, 15585.77
3495.059, 15581.21
3496.987, 15580.05
3498.916, 15571.85
3500.844, 15571.43
3502.773, 15585.43
3504.701, 15595.97
3506.630, 15603.00
3508.558, 15627.46
3510.487, 15657.54
3512.415, 15666.29
3514.344, 15670.39
3516.272, 15680.94
3518.200, 15698.32
3520.129, 15729.71
3522.057, 15717.21
3523.986, 15659.74
3525.914, 15649.89
3527.843, 15658.47
3529.771, 15633.66
3531.700, 15598.84
3533.628, 15568.98
3535.557, 15542.75
3537.485, 15525.19
3539.414, 15492.58
3541.342, 15449.15
3543.271, 15442.08
3545.199, 15450.67
3547.127, 15440.06
3549.056, 15431.86
3550.984, 15438.89
3552.913, 15438.60
3554.841, 15416.41
3556.770, 15419.08
3558.698, 15435.38
3560.627, 15417.81
3562.555, 15387.55
3564.484, 15371.47
3566.412, 15359.16
3568.341, 15349.10
3570.269, 15339.08
3572.198, 15329.33
3574.126, 15345.78
3576.054, 15373.98
3577.983, 15373.08
3579.911, 15359.41
3581.840, 15337.36
3583.768, 15328.14
3585.697, 15349.32
3587.625, 15341.87
3589.554, 15310.27
3591.482, 15313.66
3593.411, 15332.43
3595.339, 15336.22
3597.268, 15330.60
3599.196, 15312.96
3601.125, 15297.80
3603.053, 15286.46
3604.981, 15274.67
3606.910, 15260.22
3608.838, 15230.92
3610.767, 15206.85
3612.695, 15210.98
3614.624, 15220.92
3616.552, 15230.96
3618.481, 15244.58
3620.409, 15260.59
3622.338, 15266.15
3624.266, 15271.33
3626.195, 15303.15
3628.123, 15323.29
3630.052, 15299.12
3631.980, 15283.32
3633.908, 15281.03
3635.837, 15286.01
3637.765, 15289.78
3639.694, 15266.71
3641.622, 15238.16
3643.551, 15219.82
3645.479, 15208.90
3647.408, 15208.33
3649.336, 15195.79
3651.265, 15179.11
3653.193, 15203.65
3655.122, 15238.23
3657.050, 15246.38
3658.979, 15256.95
3660.907, 15279.95
3662.835, 15282.92
3664.764, 15264.98
3666.692, 15246.63
3668.621, 15229.15
3670.549, 15210.91
3672.478, 15202.10
3674.406, 15211.23
3676.335, 15214.55
3678.263, 15209.68
3680.192, 15201.48
3682.120, 15198.73
3684.049, 15225.04
3685.977, 15244.39
3687.906, 15228.44
3689.834, 15224.39
3691.762, 15237.79
3693.691, 15235.08
3695.619, 15225.54
3697.548, 15238.66
3699.476, 15242.31
3701.405, 15202.33
3703.333, 15185.29
3705.262, 15201.40
3707.190, 15183.01
3709.119, 15149.49
3711.047, 15150.43
3712.976, 15160.11
3714.904, 15166.63
3716.833, 15163.24
3718.761, 15147.74
3720.689, 15128.27
3722.618, 15112.94
3724.546, 15133.02
3726.475, 15152.81
3728.403, 15142.83
3730.332, 15143.58
3732.260, 15160.47
3734.189, 15169.74
3736.117, 15174.98
3738.046, 15190.55
3739.974, 15201.08
3741.903, 15191.10
3743.831, 15185.40
3745.760, 15187.24
3747.688, 15192.05
3749.616, 15191.76
3751.545, 15158.25
3753.473, 15129.94
3755.402, 15130.09
3757.330, 15142.10
3759.259, 15162.62
3761.187, 15168.58
3763.116, 15163.74
3765.044, 15144.19
3766.973, 15138.02
3768.901, 15176.65
3770.830, 15185.24
3772.758, 15164.48
3774.687, 15148.71
3776.615, 15144.33
3778.543, 15171.08
3780.472, 15182.19
3782.400, 15152.74
3784.329, 15124.48
3786.257, 15101.31
3788.186, 15088.93
3790.114, 15085.19
3792.043, 15090.21
3793.971, 15098.08
3795.900, 15110.86
3797.828, 15087.47
3799.757, 15043.81
3801.685, 15023.62
3803.614, 15019.58
3805.542, 15031.46
3807.470, 15040.20
3809.399, 15044.26
3811.327, 15017.85
3813.256, 14986.46
3815.184, 15001.76
3817.113, 15014.35
3819.041, 15003.70
3820.970, 14984.39
3822.898, 14958.89
3824.827, 14933.55
3826.755, 14915.95
3828.684, 14918.58
3830.612, 14925.88
3832.541, 14935.83
3834.469, 14943.26
3836.397, 14944.02
3838.326, 14910.65
3840.254, 14890.82
3842.183, 14927.85
3844.111, 14942.85
3846.040, 14925.15
3847.968, 14931.96
3849.897, 14943.38
3851.825, 14925.90
3853.754, 14918.64
3855.682, 14936.68
3857.611, 14935.86
3859.539, 14920.96
3861.468, 14923.47
3863.396, 14927.28
3865.324, 14920.69
3867.253, 14906.51
3869.181, 14887.24
3871.110, 14906.68
3873.038, 14934.32
3874.967, 14916.86
3876.895, 14893.74
3878.824, 14876.89
3880.752, 14875.85
3882.681, 14880.72
3884.609, 14845.24
3886.538, 14817.71
3888.466, 14838.15
3890.395, 14853.02
3892.323, 14853.74
3894.251, 14823.73
3896.180, 14791.44
3898.108, 14800.77
3900.037, 14815.58
3901.965, 14825.65
3903.894, 14833.00
3905.822, 14838.04
3907.751, 14844.79
3909.679, 14840.29
3911.608, 14806.32
3913.536, 14807.90
3915.465, 14845.56
3917.393, 14844.34
3919.322, 14829.11
3921.250, 14822.39
3923.178, 14823.89
3925.107, 14833.71
3927.035, 14819.00
3928.964, 14796.41
3930.892, 14799.37
3932.821, 14803.52
3934.749, 14794.50
3936.678, 14796.84
3938.606, 14806.77
3940.535, 14816.16
3942.463, 14813.92
3944.392, 14785.13
3946.320, 14786.62
3948.249, 14817.95
3950.177, 14814.66
3952.105, 14803.97
3954.034, 14815.44
3955.962, 14819.65
3957.891, 14808.23
3959.819, 14812.97
3961.748, 14816.54
3963.676, 14791.15
3965.605, 14763.52
3967.533, 14741.95
3969.462, 14739.10
3971.390, 14748.53
3973.319, 14760.90
3975.247, 14759.63
3977.176, 14721.31
3979.104, 14725.82
3981.032, 14758.64
3982.961, 14740.60
3984.889, 14716.05
3986.818, 14716.21
3988.746, 14720.50
3990.675, 14726.68
3992.603, 14731.59
3994.532, 14731.93
3996.460, 14723.15
3998.389, 14708.86
4000.317, 14688.56
4002.246, 14688.34
4004.174, 14691.37
4006.103, 14680.60
4008.031, 14661.35
4009.959, 14636.21
4011.888, 14635.58
4013.816, 14648.04
4015.745, 14655.75
4017.673, 14661.14
4019.602, 14663.66
4021.530, 14651.82
4023.459, 14631.88
4025.387, 14614.56
4027.316, 14602.96
4029.244, 14605.21
4031.173, 14596.08
4033.101, 14581.25
4035.030, 14566.58
4036.958, 14562.49
4038.886, 14575.05
4040.815, 14559.53
4042.743, 14529.74
4044.672, 14545.79
4046.600, 14550.97
4048.529, 14518.37
4050.457, 14492.48
4052.386, 14479.76
4054.314, 14490.55
4056.243, 14506.54
4058.171, 14525.44
4060.100, 14503.50
4062.028, 14458.38
4063.957, 14478.00
4065.885, 14484.32
4067.813, 14422.50
4069.742, 14388.35
4071.670, 14383.21
4073.599, 14393.94
4075.527, 14398.89
4077.456, 14385.70
4079.384, 14372.09
4081.313, 14361.35
4083.241, 14349.18
4085.170, 14357.24
4087.098, 14408.25
4089.027, 14444.60
4090.955, 14459.78
4092.884, 14438.16
4094.812, 14416.34
4096.740, 14422.62
4098.669, 14407.56
4100.598, 14380.69
4102.526, 14383.37
4104.454, 14378.44
4106.383, 14345.84
4108.312, 14343.52
4110.240, 14357.62
4112.168, 14328.90
4114.097, 14305.66
4116.025, 14308.33
4117.954, 14320.12
4119.882, 14331.22
4121.811, 14313.25
4123.739, 14302.02
4125.667, 14311.09
4127.596, 14328.37
4129.524, 14349.46
4131.453, 14377.56
4133.381, 14383.65
4135.310, 14351.24
4137.238, 14346.51
4139.167, 14347.10
4141.095, 14307.72
4143.023, 14289.69
4144.952, 14307.11
4146.881, 14335.00
4148.809, 14353.40
4150.737, 14322.78
4152.666, 14325.92
4154.595, 14367.64
4156.523, 14383.67
4158.451, 14381.68
4160.380, 14364.26
4162.309, 14358.93
4164.237, 14366.75
4166.165, 14359.17
4168.094, 14348.90
4170.022, 14342.80
4171.951, 14344.43
4173.879, 14352.11
4175.808, 14363.98
4177.736, 14369.19
4179.665, 14358.37
4181.593, 14358.58
4183.521, 14359.70
4185.450, 14325.72
4187.378, 14306.32
4189.307, 14321.60
4191.235, 14339.94
4193.164, 14347.92
4195.092, 14324.52
4197.021, 14298.23
4198.949, 14276.63
4200.878, 14256.10
4202.806, 14242.78
4204.734, 14244.93
4206.663, 14236.99
4208.592, 14222.14
4210.520, 14237.95
4212.448, 14247.25
4214.377, 14229.04
4216.306, 14213.04
4218.234, 14202.37
4220.162, 14200.39
4222.091, 14194.62
4224.020, 14180.98
4225.948, 14170.10
4227.876, 14161.24
4229.805, 14154.55
4231.733, 14145.08
4233.662, 14133.06
4235.590, 14106.98
4237.519, 14093.39
##END=



