##NAMES=Glauberite
##RRUFFID=R050350
##IDEAL CHEMISTRY=Na_2_Ca(SO_4_)_2_
##LOCALITY=Soda Lake, San Luis Obispo County, California, USA
##OWNER=RRUFF
##SOURCE=California Institute of Technology
##DESCRIPTION=Colorless tabular crystal
##STATUS=The identification of this mineral has been confirmed by X-ray diffraction and chemical analysis
##URL=https://www.rruff.net/odr/rruff_sample/R050350
##MEASURED CHEMISTRY=Na_1.90_Ca_1.15_(S_.99_O_4_)_2_
##DIFFRACTION SAMPLE DESCRIPTION=Powder
##CELL PARAMETERS=a: 10.135 b: 8.3046 c: 8.539 alpha: 90 beta: 112.21 gamma: 90 volume: 665.3 crystal system: monoclinic
##FILETYPE=Raman RAW
##RAMAN WAVELENGTH=532

106.6040, 263.8731
108.5325, 305.9368
110.4609, 351.1496
112.3894, 399.6180
114.3179, 454.4315
116.2463, 517.3771
118.1748, 586.6752
120.1033, 659.7185
122.0317, 744.6840
123.9602, 826.7300
125.8887, 883.4738
127.8171, 903.9074
129.7456, 914.7341
131.6741, 917.8583
133.6025, 915.0731
135.5310, 907.3007
137.4595, 888.5041
139.3879, 871.3693
141.3164, 861.1520
143.2449, 858.1487
145.1733, 858.7484
147.1018, 861.4061
149.0303, 866.3730
150.9587, 874.6964
152.8872, 892.6642
154.8157, 909.6825
156.7441, 918.1185
158.6726, 914.5809
160.6011, 905.7587
162.5295, 888.0581
164.4580, 862.9036
166.3865, 843.3667
168.3149, 831.9393
170.2434, 826.4997
172.1719, 826.1385
174.1003, 831.2171
176.0288, 839.7427
177.9573, 852.3859
179.8857, 869.6564
181.8142, 884.8914
183.7427, 900.2759
185.6711, 912.7393
187.5996, 916.6880
189.5281, 909.0482
191.4565, 897.1891
193.3850, 884.2941
195.3135, 868.9022
197.2419, 855.3751
199.1704, 843.2432
201.0989, 833.2507
203.0273, 826.2250
204.9558, 824.7733
206.8843, 824.2034
208.8127, 822.2077
210.7412, 817.5248
212.6697, 813.7072
214.5981, 811.3074
216.5266, 810.0192
218.4551, 809.3262
220.3835, 809.0372
222.3120, 809.3871
224.2405, 810.6261
226.1689, 812.6656
228.0974, 815.4343
230.0259, 819.3446
231.9543, 824.1837
233.8828, 828.5560
235.8113, 832.9269
237.7397, 836.6844
239.6682, 839.1126
241.5967, 839.6354
243.5251, 841.1556
245.4536, 844.7352
247.3821, 850.1207
249.3105, 854.9017
251.2390, 857.8773
253.1675, 861.0524
255.0959, 865.5682
257.0244, 872.1884
258.9529, 878.3813
260.8813, 883.8351
262.8098, 888.5128
264.7383, 892.5482
266.6667, 894.3986
268.5952, 897.1642
270.5237, 902.6038
272.4521, 913.6467
274.3806, 923.6123
276.3091, 931.7916
278.2375, 938.4603
280.1660, 944.7622
282.0945, 951.3538
284.0229, 956.8542
285.9514, 960.3719
287.8799, 960.4099
289.8083, 960.4766
291.7368, 961.3713
293.6653, 962.3015
295.5938, 961.6586
297.5222, 956.5272
299.4507, 951.8008
301.3792, 950.0122
303.3076, 952.1379
305.2361, 953.5151
307.1646, 952.2785
309.0930, 950.0266
311.0215, 950.0088
312.9500, 955.5044
314.8784, 960.6466
316.8069, 962.4449
318.7354, 960.7853
320.6638, 961.1663
322.5923, 966.3561
324.5208, 973.7435
326.4492, 979.6957
328.3777, 982.6896
330.3062, 985.6556
332.2346, 989.3939
334.1631, 993.7785
336.0915, 998.1503
338.0200, 1002.828
339.9485, 1007.270
341.8769, 1010.598
343.8054, 1011.295
345.7339, 1013.334
347.6623, 1019.107
349.5908, 1027.893
351.5193, 1034.315
353.4477, 1034.890
355.3762, 1034.978
357.3047, 1039.529
359.2331, 1050.332
361.1616, 1058.620
363.0901, 1060.094
365.0185, 1056.823
366.9470, 1056.828
368.8755, 1064.189
370.8039, 1071.326
372.7324, 1073.306
374.6609, 1069.790
376.5893, 1068.841
378.5178, 1072.923
380.4463, 1080.215
382.3747, 1088.390
384.3032, 1101.346
386.2317, 1111.111
388.1601, 1112.406
390.0886, 1106.620
392.0171, 1105.334
393.9455, 1113.195
395.8740, 1124.544
397.8025, 1135.027
399.7309, 1143.947
401.6594, 1153.733
403.5879, 1165.831
405.5163, 1179.484
407.4448, 1192.259
409.3733, 1201.910
411.3017, 1212.486
413.2302, 1225.463
415.1587, 1240.578
417.0871, 1259.251
419.0156, 1282.145
420.9441, 1308.753
422.8725, 1339.141
424.8010, 1375.555
426.7295, 1413.313
428.6579, 1451.128
430.5864, 1489.245
432.5149, 1529.255
434.4433, 1568.572
436.3718, 1612.275
438.3003, 1663.194
440.2287, 1719.926
442.1572, 1787.942
444.0857, 1869.079
446.0141, 1962.834
447.9426, 2066.196
449.8711, 2187.382
451.7995, 2308.899
453.7280, 2428.613
455.6565, 2548.399
457.5849, 2648.619
459.5134, 2689.578
461.4419, 2736.498
463.3703, 2832.408
465.2988, 2987.889
467.2273, 3175.343
469.1557, 3456.023
471.0842, 3772.174
473.0127, 3931.168
474.9411, 3907.912
476.8696, 3770.003
478.7981, 3519.441
480.7265, 3131.862
482.6550, 2807.612
484.5835, 2574.447
486.5119, 2392.410
488.4404, 2230.106
490.3689, 2089.046
492.2973, 1957.256
494.2258, 1825.009
496.1543, 1698.141
498.0827, 1599.464
500.0112, 1541.796
501.9397, 1498.756
503.8681, 1465.406
505.7966, 1441.106
507.7251, 1422.028
509.6535, 1409.633
511.5820, 1401.311
513.5105, 1395.515
515.4390, 1394.631
517.3674, 1393.471
519.2959, 1391.002
521.2244, 1388.462
523.1528, 1387.951
525.0813, 1390.935
527.0098, 1393.962
528.9382, 1396.225
530.8667, 1397.708
532.7952, 1397.832
534.7236, 1395.011
536.6521, 1392.331
538.5806, 1391.898
540.5090, 1394.210
542.4375, 1396.298
544.3660, 1395.991
546.2944, 1395.724
548.2229, 1399.548
550.1514, 1409.701
552.0798, 1419.367
554.0083, 1426.370
555.9368, 1431.297
557.8652, 1435.745
559.7937, 1437.152
561.7222, 1440.285
563.6506, 1446.454
565.5791, 1455.980
567.5076, 1469.247
569.4360, 1490.264
571.3645, 1512.650
573.2930, 1532.023
575.2214, 1547.563
577.1499, 1561.910
579.0783, 1575.555
581.0068, 1588.173
582.9352, 1598.770
584.8637, 1605.137
586.7922, 1613.769
588.7206, 1624.404
590.6491, 1637.613
592.5776, 1661.097
594.5060, 1699.977
596.4345, 1744.223
598.3630, 1788.912
600.2914, 1834.343
602.2199, 1888.801
604.1484, 1953.559
606.0768, 2028.310
608.0053, 2110.174
609.9338, 2186.189
611.8622, 2297.745
613.7907, 2467.736
615.7192, 2665.856
617.6476, 2860.247
619.5761, 3075.028
621.5046, 3226.773
623.4330, 3279.274
625.3615, 3251.437
627.2900, 3194.694
629.2184, 3065.802
631.1469, 2953.229
633.0754, 2883.960
635.0038, 2854.390
636.9323, 2844.281
638.8608, 2865.944
640.7892, 2893.366
642.7177, 2922.995
644.6462, 2973.817
646.5746, 2960.854
648.5031, 2871.071
650.4316, 2730.246
652.3600, 2541.851
654.2885, 2293.002
656.2170, 2081.073
658.1454, 1935.935
660.0739, 1836.015
662.0024, 1759.547
663.9308, 1715.397
665.8593, 1684.520
667.7878, 1670.823
669.7162, 1669.544
671.6447, 1670.457
673.5732, 1674.311
675.5016, 1678.516
677.4301, 1682.684
679.3586, 1686.607
681.2870, 1688.566
683.2155, 1686.528
685.1440, 1684.706
687.0724, 1685.004
689.0009, 1687.126
690.9294, 1689.436
692.8578, 1691.527
694.7863, 1694.186
696.7148, 1698.478
698.6432, 1705.955
700.5717, 1709.679
702.5002, 1705.045
704.4286, 1699.902
706.3571, 1700.261
708.2856, 1706.381
710.2141, 1713.923
712.1425, 1725.086
714.0710, 1735.800
715.9995, 1742.043
717.9279, 1739.466
719.8564, 1739.099
721.7849, 1742.665
723.7133, 1748.380
725.6418, 1753.298
727.5703, 1756.109
729.4987, 1761.028
731.4272, 1770.569
733.3557, 1782.384
735.2841, 1791.324
737.2126, 1794.599
739.1411, 1798.130
741.0695, 1803.534
742.9980, 1809.893
744.9265, 1815.172
746.8549, 1819.304
748.7834, 1822.745
750.7119, 1825.619
752.6403, 1828.109
754.5688, 1830.975
756.4973, 1834.219
758.4257, 1837.840
760.3542, 1841.610
762.2827, 1845.603
764.2111, 1850.429
766.1396, 1856.614
768.0681, 1862.789
769.9965, 1868.787
771.9250, 1874.749
773.8535, 1878.748
775.7819, 1878.653
777.7104, 1879.089
779.6389, 1882.926
781.5673, 1889.742
783.4958, 1896.315
785.4243, 1901.948
787.3527, 1907.375
789.2812, 1912.831
791.2097, 1918.139
793.1381, 1923.520
795.0666, 1929.661
796.9951, 1935.214
798.9235, 1938.568
800.8520, 1939.991
802.7805, 1943.683
804.7089, 1952.986
806.6374, 1962.631
808.5659, 1969.252
810.4943, 1971.388
812.4228, 1975.046
814.3513, 1981.144
816.2797, 1987.546
818.2082, 1991.920
820.1367, 1993.991
822.0651, 1998.379
823.9936, 2009.313
825.9221, 2019.504
827.8505, 2023.722
829.7790, 2019.575
831.7075, 2018.988
833.6359, 2025.756
835.5644, 2033.582
837.4929, 2037.297
839.4213, 2036.571
841.3498, 2038.335
843.2783, 2044.331
845.2067, 2052.325
847.1352, 2061.277
849.0637, 2071.634
850.9921, 2079.995
852.9206, 2085.160
854.8491, 2088.978
856.7775, 2092.022
858.7060, 2093.966
860.6345, 2096.702
862.5629, 2100.828
864.4914, 2105.063
866.4199, 2107.872
868.3483, 2109.081
870.2768, 2113.532
872.2053, 2126.544
874.1337, 2139.131
876.0622, 2146.094
877.9907, 2146.489
879.9191, 2150.270
881.8476, 2163.449
883.7761, 2174.427
885.7045, 2174.664
887.6330, 2166.035
889.5615, 2161.984
891.4899, 2166.609
893.4184, 2173.744
895.3469, 2181.450
897.2753, 2189.876
899.2038, 2199.291
901.1323, 2211.362
903.0607, 2222.836
904.9892, 2232.420
906.9177, 2240.149
908.8461, 2246.338
910.7746, 2249.196
912.7031, 2252.420
914.6315, 2256.798
916.5600, 2262.179
918.4885, 2268.503
920.4169, 2277.435
922.3454, 2285.455
924.2739, 2291.723
926.2023, 2297.002
928.1308, 2302.843
930.0593, 2309.450
931.9877, 2316.837
933.9162, 2324.330
935.8447, 2332.952
937.7731, 2344.171
939.7016, 2356.251
941.6301, 2374.405
943.5585, 2396.456
945.4870, 2425.690
947.4155, 2461.099
949.3439, 2492.443
951.2724, 2567.542
953.2009, 2709.444
955.1293, 2891.059
957.0578, 3098.697
958.9863, 3340.413
960.9147, 3553.921
962.8432, 3746.929
964.7717, 3895.113
966.7001, 3969.183
968.6286, 3952.226
970.5571, 3957.546
972.4855, 3931.319
974.4140, 3976.012
976.3425, 4140.975
978.2709, 4416.541
980.1994, 4792.444
982.1279, 5243.813
984.0563, 5845.621
985.9848, 6597.870
987.9133, 7506.099
989.8417, 8601.952
991.7702, 9837.054
993.6987, 11319.33
995.6271, 13111.00
997.5556, 15156.60
999.4841, 17606.11
1001.413, 20921.64
1003.341, 22969.35
1005.269, 22942.05
1007.198, 21450.00
1009.126, 18744.29
1011.055, 14211.42
1012.983, 10515.27
1014.912, 8009.835
1016.840, 6218.726
1018.769, 4931.833
1020.697, 4213.643
1022.626, 3667.972
1024.554, 3362.891
1026.483, 3159.890
1028.411, 3023.217
1030.340, 2939.801
1032.268, 2876.552
1034.197, 2838.656
1036.125, 2809.430
1038.053, 2785.561
1039.982, 2765.685
1041.910, 2746.895
1043.839, 2725.231
1045.767, 2709.949
1047.696, 2704.557
1049.624, 2704.507
1051.553, 2705.065
1053.481, 2706.240
1055.410, 2709.519
1057.338, 2714.382
1059.267, 2722.406
1061.195, 2734.346
1063.124, 2750.125
1065.052, 2768.062
1066.980, 2792.309
1068.909, 2813.500
1070.837, 2827.126
1072.766, 2834.840
1074.694, 2843.102
1076.623, 2848.990
1078.551, 2860.952
1080.480, 2879.790
1082.408, 2907.220
1084.337, 2942.372
1086.265, 2983.904
1088.193, 3041.942
1090.122, 3119.958
1092.050, 3215.296
1093.979, 3329.727
1095.907, 3465.259
1097.836, 3604.147
1099.764, 3749.196
1101.693, 3893.864
1103.621, 4061.582
1105.550, 4225.978
1107.478, 4314.343
1109.407, 4320.931
1111.335, 4269.364
1113.264, 4123.310
1115.192, 3946.159
1117.120, 3796.193
1119.049, 3668.991
1120.977, 3592.633
1122.906, 3581.413
1124.834, 3611.135
1126.763, 3672.809
1128.691, 3766.590
1130.620, 3890.493
1132.548, 4038.653
1134.477, 4219.362
1136.405, 4478.960
1138.334, 4758.178
1140.262, 4972.566
1142.191, 5135.050
1144.119, 5174.411
1146.047, 4991.107
1147.976, 4741.850
1149.904, 4521.865
1151.833, 4328.688
1153.761, 4197.987
1155.690, 4175.386
1157.618, 4167.060
1159.547, 4147.597
1161.475, 4119.502
1163.404, 4090.718
1165.332, 4058.718
1167.261, 4030.249
1169.189, 4027.155
1171.118, 4013.470
1173.046, 3954.385
1174.974, 3851.201
1176.903, 3730.301
1178.831, 3575.546
1180.760, 3431.159
1182.688, 3312.955
1184.617, 3220.315
1186.545, 3148.138
1188.474, 3101.319
1190.402, 3069.178
1192.331, 3054.277
1194.259, 3050.171
1196.188, 3052.279
1198.116, 3061.761
1200.045, 3067.552
1201.973, 3065.454
1203.901, 3063.132
1205.830, 3065.146
1207.758, 3069.410
1209.687, 3070.752
1211.615, 3067.825
1213.544, 3066.320
1215.472, 3068.890
1217.401, 3073.246
1219.329, 3077.620
1221.258, 3081.910
1223.186, 3087.856
1225.115, 3099.657
1227.043, 3108.599
1228.972, 3108.582
1230.900, 3103.816
1232.828, 3105.921
1234.757, 3117.100
1236.685, 3127.534
1238.614, 3135.984
1240.542, 3142.452
1242.471, 3146.021
1244.399, 3147.247
1246.328, 3149.407
1248.256, 3152.695
1250.185, 3157.771
1252.113, 3166.863
1254.042, 3177.408
1255.970, 3185.303
1257.899, 3189.215
1259.827, 3194.728
1261.755, 3203.487
1263.684, 3211.821
1265.612, 3216.815
1267.541, 3219.094
1269.469, 3223.500
1271.398, 3233.392
1273.326, 3239.199
1275.255, 3235.816
1277.183, 3230.844
1279.112, 3231.845
1281.040, 3238.492
1282.969, 3246.286
1284.897, 3257.443
1286.826, 3265.608
1288.754, 3265.158
1290.682, 3261.338
1292.611, 3261.885
1294.539, 3267.234
1296.468, 3274.520
1298.396, 3285.265
1300.325, 3295.519
1302.253, 3304.485
1304.182, 3311.436
1306.110, 3313.596
1308.039, 3302.581
1309.967, 3298.184
1311.896, 3305.753
1313.824, 3317.069
1315.753, 3326.596
1317.681, 3334.331
1319.609, 3339.848
1321.538, 3341.671
1323.466, 3344.134
1325.395, 3350.669
1327.323, 3357.279
1329.252, 3358.213
1331.180, 3353.412
1333.109, 3354.440
1335.037, 3368.247
1336.966, 3380.555
1338.894, 3384.780
1340.823, 3384.525
1342.751, 3386.139
1344.680, 3389.211
1346.608, 3394.789
1348.536, 3403.124
1350.465, 3412.858
1352.393, 3425.117
1354.322, 3438.305
1356.250, 3446.547
1358.179, 3447.544
1360.107, 3448.845
1362.036, 3451.175
1363.964, 3454.296
1365.893, 3456.673
1367.821, 3459.586
1369.750, 3468.917
1371.678, 3487.786
1373.607, 3503.729
1375.535, 3513.191
1377.464, 3517.809
1379.392, 3516.480
1381.320, 3510.662
1383.249, 3510.342
1385.177, 3518.783
1387.106, 3527.295
1389.034, 3534.750
1390.963, 3540.488
1392.891, 3542.285
1394.820, 3539.272
1396.748, 3542.820
1398.677, 3558.111
1400.605, 3572.985
1402.534, 3587.501
1404.462, 3598.685
1406.391, 3601.556
1408.319, 3594.325
1410.247, 3592.624
1412.176, 3601.552
1414.104, 3609.232
1416.033, 3609.210
1417.961, 3608.870
1419.890, 3620.872
1421.818, 3645.393
1423.747, 3657.443
1425.675, 3645.605
1427.604, 3638.412
1429.532, 3651.496
1431.461, 3671.842
1433.389, 3685.068
1435.318, 3691.127
1437.246, 3695.424
1439.174, 3696.271
1441.103, 3698.441
1443.031, 3704.210
1444.960, 3711.402
1446.888, 3718.309
1448.817, 3724.993
1450.745, 3730.346
1452.674, 3735.459
1454.602, 3738.609
1456.531, 3737.995
1458.459, 3737.277
1460.388, 3740.252
1462.316, 3747.355
1464.245, 3756.613
1466.173, 3768.918
1468.101, 3781.486
1470.030, 3794.217
1471.958, 3805.593
1473.887, 3814.129
1475.815, 3819.504
1477.744, 3822.482
1479.672, 3820.441
1481.601, 3820.857
1483.529, 3827.039
1485.458, 3835.632
1487.386, 3844.975
1489.315, 3854.664
1491.243, 3860.856
1493.172, 3861.139
1495.100, 3862.855
1497.028, 3867.356
1498.957, 3873.258
1500.885, 3880.796
1502.814, 3888.838
1504.742, 3894.594
1506.671, 3898.439
1508.599, 3899.738
1510.528, 3895.076
1512.456, 3892.925
1514.385, 3901.589
1516.313, 3915.552
1518.242, 3920.859
1520.170, 3914.914
1522.099, 3915.078
1524.027, 3928.872
1525.955, 3941.813
1527.884, 3945.285
1529.812, 3945.391
1531.741, 3952.563
1533.669, 3968.232
1535.598, 3980.850
1537.526, 3989.394
1539.455, 3995.575
1541.383, 3997.143
1543.312, 3998.657
1545.240, 4005.152
1547.169, 4016.565
1549.097, 4026.536
1551.026, 4035.532
1552.954, 4041.532
1554.882, 4040.699
1556.811, 4040.048
1558.739, 4046.269
1560.668, 4057.131
1562.596, 4062.883
1564.525, 4061.167
1566.453, 4059.875
1568.382, 4057.119
1570.310, 4057.868
1572.239, 4065.984
1574.167, 4078.549
1576.096, 4091.477
1578.024, 4105.291
1579.953, 4114.743
1581.881, 4117.787
1583.809, 4118.272
1585.738, 4110.428
1587.666, 4104.944
1589.595, 4115.686
1591.523, 4139.507
1593.452, 4153.853
1595.380, 4155.389
1597.309, 4158.126
1599.237, 4169.825
1601.166, 4178.833
1603.094, 4176.428
1605.023, 4168.146
1606.951, 4163.212
1608.880, 4161.575
1610.808, 4165.504
1612.736, 4178.132
1614.665, 4190.596
1616.593, 4196.781
1618.522, 4202.979
1620.450, 4218.040
1622.379, 4238.413
1624.307, 4248.472
1626.236, 4244.640
1628.164, 4242.191
1630.093, 4244.548
1632.021, 4249.563
1633.950, 4258.529
1635.878, 4268.470
1637.807, 4275.116
1639.735, 4278.605
1641.663, 4279.024
1643.592, 4273.360
1645.520, 4272.055
1647.449, 4282.172
1649.377, 4294.618
1651.306, 4302.909
1653.234, 4307.787
1655.163, 4311.316
1657.091, 4312.973
1659.020, 4315.575
1660.948, 4320.267
1662.877, 4324.976
1664.805, 4327.755
1666.734, 4331.254
1668.662, 4340.349
1670.590, 4353.980
1672.519, 4361.630
1674.447, 4360.794
1676.376, 4361.276
1678.304, 4365.692
1680.233, 4370.815
1682.161, 4373.643
1684.090, 4376.183
1686.018, 4383.030
1687.947, 4394.024
1689.875, 4400.839
1691.804, 4400.463
1693.732, 4402.554
1695.661, 4414.168
1697.589, 4425.157
1699.517, 4427.511
1701.446, 4425.151
1703.374, 4427.175
1705.303, 4433.661
1707.231, 4441.512
1709.160, 4451.685
1711.088, 4460.136
1713.017, 4465.669
1714.945, 4468.962
1716.874, 4468.960
1718.802, 4467.607
1720.731, 4471.115
1722.659, 4480.367
1724.588, 4485.880
1726.516, 4481.177
1728.444, 4482.617
1730.373, 4503.210
1732.301, 4525.191
1734.230, 4533.711
1736.158, 4533.123
1738.087, 4537.802
1740.015, 4549.187
1741.944, 4554.979
1743.872, 4549.366
1745.801, 4546.669
1747.729, 4555.840
1749.658, 4566.357
1751.586, 4567.667
1753.515, 4564.119
1755.443, 4570.161
1757.371, 4587.341
1759.300, 4595.931
1761.228, 4587.405
1763.157, 4583.157
1765.085, 4597.089
1767.014, 4612.097
1768.942, 4613.570
1770.871, 4607.375
1772.799, 4607.378
1774.728, 4614.098
1776.656, 4616.934
1778.585, 4613.541
1780.513, 4609.814
1782.442, 4605.603
1784.370, 4604.622
1786.298, 4611.134
1788.227, 4621.811
1790.155, 4630.888
1792.084, 4638.122
1794.012, 4644.973
1795.941, 4650.776
1797.869, 4656.800
1799.798, 4666.046
1801.726, 4672.128
1803.655, 4669.720
1805.583, 4663.745
1807.512, 4660.249
1809.440, 4659.645
1811.369, 4664.114
1813.297, 4676.351
1815.225, 4684.730
1817.154, 4681.041
1819.082, 4680.097
1821.011, 4692.192
1822.939, 4705.226
1824.868, 4703.062
1826.796, 4690.815
1828.725, 4692.302
1830.653, 4712.483
1832.582, 4726.694
1834.510, 4731.476
1836.439, 4734.317
1838.367, 4737.748
1840.296, 4738.791
1842.224, 4731.472
1844.152, 4721.622
1846.081, 4722.581
1848.009, 4735.720
1849.938, 4742.671
1851.866, 4733.960
1853.795, 4734.060
1855.723, 4754.178
1857.652, 4770.042
1859.580, 4767.491
1861.509, 4759.115
1863.437, 4759.373
1865.366, 4765.747
1867.294, 4764.748
1869.223, 4753.552
1871.151, 4749.591
1873.079, 4758.517
1875.008, 4767.121
1876.936, 4773.498
1878.865, 4777.771
1880.793, 4776.960
1882.722, 4775.334
1884.650, 4781.875
1886.579, 4794.407
1888.507, 4794.712
1890.436, 4777.802
1892.364, 4773.706
1894.293, 4796.321
1896.221, 4814.120
1898.150, 4811.561
1900.078, 4803.829
1902.006, 4801.981
1903.935, 4802.927
1905.863, 4800.632
1907.792, 4795.796
1909.720, 4794.299
1911.649, 4796.421
1913.577, 4801.991
1915.506, 4812.413
1917.434, 4823.577
1919.363, 4838.098
1921.291, 4848.476
1923.220, 4843.573
1925.148, 4831.680
1927.077, 4832.925
1929.005, 4848.759
1930.933, 4859.119
1932.862, 4860.724
1934.790, 4862.875
1936.719, 4864.492
1938.647, 4867.813
1940.576, 4874.468
1942.504, 4881.678
1944.433, 4885.944
1946.361, 4889.711
1948.290, 4900.923
1950.218, 4920.964
1952.147, 4927.343
1954.075, 4915.761
1956.004, 4904.805
1957.932, 4893.159
1959.860, 4888.562
1961.789, 4901.195
1963.717, 4913.142
1965.646, 4908.434
1967.574, 4897.832
1969.503, 4900.525
1971.431, 4913.555
1973.360, 4919.122
1975.288, 4915.479
1977.217, 4912.784
1979.145, 4913.407
1981.074, 4912.725
1983.002, 4902.401
1984.931, 4898.164
1986.859, 4917.558
1988.787, 4941.658
1990.716, 4946.201
1992.644, 4935.678
1994.573, 4927.315
1996.501, 4921.271
1998.430, 4918.958
2000.358, 4920.197
2002.287, 4925.657
2004.215, 4937.669
2006.144, 4950.030
2008.072, 4960.050
2010.001, 4968.868
2011.929, 4978.456
2013.858, 4986.461
2015.786, 4987.613
2017.714, 4982.785
2019.643, 4981.052
2021.571, 4984.246
2023.500, 4979.662
2025.428, 4961.561
2027.357, 4947.714
2029.285, 4942.209
2031.214, 4944.611
2033.142, 4961.717
2035.071, 4980.164
2036.999, 4983.959
2038.928, 4979.003
2040.856, 4981.019
2042.785, 4990.266
2044.713, 4995.366
2046.641, 4994.793
2048.570, 4994.810
2050.499, 4998.843
2052.427, 4999.832
2054.355, 4989.769
2056.284, 4984.350
2058.212, 4995.511
2060.141, 5011.485
2062.069, 5018.988
2063.998, 5020.412
2065.926, 5023.014
2067.854, 5026.523
2069.783, 5033.735
2071.711, 5047.029
2073.640, 5048.586
2075.568, 5028.888
2077.497, 5016.137
2079.425, 5028.027
2081.354, 5039.204
2083.282, 5033.218
2085.211, 5023.756
2087.139, 5023.850
2089.068, 5029.892
2090.996, 5035.190
2092.925, 5039.438
2094.853, 5041.423
2096.781, 5041.888
2098.710, 5037.918
2100.638, 5024.852
2102.567, 5017.693
2104.495, 5024.097
2106.424, 5029.683
2108.352, 5026.121
2110.281, 5022.929
2112.209, 5025.942
2114.138, 5032.812
2116.066, 5043.728
2117.995, 5055.350
2119.923, 5056.411
2121.852, 5046.907
2123.780, 5040.939
2125.708, 5041.328
2127.637, 5039.981
2129.565, 5032.319
2131.494, 5029.722
2133.422, 5040.652
2135.351, 5049.362
2137.279, 5044.343
2139.208, 5037.628
2141.136, 5040.843
2143.065, 5048.182
2144.993, 5049.440
2146.922, 5045.774
2148.850, 5043.489
2150.779, 5042.640
2152.707, 5041.855
2154.635, 5041.070
2156.564, 5041.683
2158.492, 5045.349
2160.421, 5048.759
2162.349, 5051.912
2164.278, 5054.030
2166.206, 5054.162
2168.135, 5053.504
2170.063, 5052.474
2171.992, 5051.118
2173.920, 5048.073
2175.849, 5044.689
2177.777, 5049.041
2179.706, 5061.063
2181.634, 5068.604
2183.563, 5071.147
2185.491, 5068.749
2187.419, 5057.635
2189.348, 5053.469
2191.276, 5067.667
2193.205, 5077.013
2195.133, 5065.907
2197.062, 5055.003
2198.990, 5061.618
2200.919, 5072.620
2202.847, 5070.706
2204.776, 5063.702
2206.704, 5070.389
2208.633, 5088.048
2210.561, 5094.426
2212.490, 5088.171
2214.418, 5084.848
2216.346, 5085.640
2218.275, 5085.493
2220.203, 5082.692
2222.132, 5083.584
2224.060, 5097.811
2225.989, 5105.709
2227.917, 5091.695
2229.846, 5077.989
2231.774, 5080.516
2233.703, 5088.625
2235.631, 5091.063
2237.560, 5090.194
2239.488, 5091.837
2241.417, 5095.290
2243.345, 5095.512
2245.273, 5093.130
2247.202, 5090.608
2249.130, 5088.079
2251.059, 5089.354
2252.987, 5095.976
2254.916, 5101.741
2256.844, 5105.377
2258.773, 5105.626
2260.701, 5098.880
2262.630, 5091.673
2264.558, 5088.133
2266.487, 5085.021
2268.415, 5079.527
2270.344, 5074.503
2272.272, 5073.869
2274.200, 5076.459
2276.129, 5079.268
2278.057, 5082.002
2279.986, 5083.464
2281.914, 5083.112
2283.843, 5084.815
2285.771, 5089.769
2287.700, 5091.472
2289.628, 5087.779
2291.557, 5085.398
2293.485, 5086.539
2295.414, 5088.376
2297.342, 5090.538
2299.271, 5093.210
2301.199, 5097.262
2303.127, 5099.229
2305.056, 5093.528
2306.984, 5086.538
2308.913, 5085.091
2310.841, 5086.667
2312.770, 5088.650
2314.698, 5090.973
2316.627, 5092.558
2318.555, 5093.813
2320.484, 5092.015
2322.412, 5086.292
2324.341, 5084.453
2326.269, 5086.816
2328.198, 5087.556
2330.126, 5085.170
2332.054, 5081.863
2333.983, 5077.593
2335.911, 5073.700
2337.840, 5072.408
2339.768, 5070.188
2341.697, 5064.970
2343.625, 5060.564
2345.554, 5057.813
2347.482, 5059.065
2349.411, 5068.823
2351.339, 5081.509
2353.268, 5092.514
2355.196, 5099.101
2357.125, 5090.618
2359.053, 5073.440
2360.981, 5075.183
2362.910, 5093.669
2364.838, 5095.327
2366.767, 5076.553
2368.695, 5065.790
2370.624, 5067.238
2372.552, 5064.622
2374.481, 5055.140
2376.409, 5053.354
2378.338, 5066.794
2380.266, 5073.634
2382.195, 5060.915
2384.123, 5051.901
2386.052, 5057.425
2387.980, 5064.046
2389.908, 5066.853
2391.837, 5065.958
2393.765, 5058.247
2395.694, 5050.767
2397.622, 5052.923
2399.551, 5057.675
2401.479, 5054.539
2403.408, 5048.803
2405.336, 5050.228
2407.265, 5055.808
2409.193, 5055.825
2411.122, 5051.069
2413.050, 5052.175
2414.979, 5059.542
2416.907, 5060.848
2418.835, 5054.975
2420.764, 5058.003
2422.692, 5073.754
2424.621, 5074.705
2426.549, 5051.335
2428.478, 5038.098
2430.406, 5047.955
2432.335, 5056.497
2434.263, 5059.693
2436.192, 5060.263
2438.120, 5056.832
2440.049, 5053.580
2441.977, 5050.218
2443.906, 5049.513
2445.834, 5058.188
2447.762, 5063.303
2449.691, 5052.689
2451.619, 5038.271
2453.548, 5028.599
2455.476, 5023.537
2457.405, 5024.455
2459.333, 5028.556
2461.262, 5032.395
2463.190, 5035.139
2465.119, 5033.626
2467.047, 5030.003
2468.976, 5033.587
2470.904, 5041.880
2472.833, 5035.312
2474.761, 5014.216
2476.689, 5006.482
2478.618, 5015.029
2480.546, 5017.036
2482.475, 5011.004
2484.403, 5012.243
2486.332, 5022.868
2488.260, 5030.851
2490.189, 5033.709
2492.117, 5035.437
2494.046, 5038.440
2495.974, 5036.527
2497.903, 5023.488
2499.831, 5014.945
2501.760, 5016.885
2503.688, 5017.511
2505.616, 5014.103
2507.545, 5008.502
2509.473, 4997.379
2511.402, 4990.357
2513.330, 4997.802
2515.259, 5002.753
2517.187, 4990.712
2519.116, 4977.554
2521.044, 4973.792
2522.973, 4974.614
2524.901, 4978.392
2526.830, 4982.827
2528.758, 4987.358
2530.687, 4989.822
2532.615, 4983.194
2534.543, 4975.678
2536.472, 4984.070
2538.400, 4998.761
2540.329, 5000.612
2542.257, 4993.213
2544.186, 4982.807
2546.114, 4971.900
2548.043, 4968.903
2549.971, 4971.944
2551.900, 4971.095
2553.828, 4967.019
2555.757, 4963.967
2557.685, 4962.205
2559.614, 4972.269
2561.542, 4992.701
2563.470, 4998.110
2565.399, 4986.646
2567.327, 4984.388
2569.256, 4997.061
2571.184, 4994.305
2573.113, 4967.856
2575.041, 4958.179
2576.970, 4969.804
2578.898, 4976.954
2580.827, 4977.371
2582.755, 4973.933
2584.684, 4966.120
2586.612, 4959.442
2588.541, 4950.052
2590.469, 4951.500
2592.397, 4973.771
2594.326, 4980.838
2596.254, 4960.525
2598.183, 4943.707
2600.111, 4937.101
2602.040, 4938.165
2603.968, 4954.503
2605.897, 4966.013
2607.825, 4964.258
2609.754, 4962.636
2611.682, 4964.255
2613.611, 4964.206
2615.539, 4957.451
2617.468, 4953.646
2619.396, 4964.089
2621.324, 4968.489
2623.253, 4955.663
2625.181, 4941.011
2627.110, 4925.355
2629.038, 4919.068
2630.967, 4932.723
2632.895, 4945.895
2634.824, 4948.027
2636.752, 4943.635
2638.681, 4929.129
2640.609, 4917.345
2642.538, 4923.968
2644.466, 4927.436
2646.395, 4910.461
2648.323, 4892.121
2650.251, 4882.135
2652.180, 4879.372
2654.108, 4888.045
2656.037, 4897.065
2657.965, 4896.074
2659.894, 4893.105
2661.822, 4895.241
2663.751, 4897.521
2665.679, 4896.799
2667.608, 4893.454
2669.536, 4882.734
2671.465, 4874.903
2673.393, 4885.270
2675.322, 4896.999
2677.250, 4892.647
2679.178, 4882.951
2681.107, 4875.032
2683.035, 4869.490
2684.964, 4868.591
2686.892, 4869.038
2688.821, 4868.267
2690.749, 4866.748
2692.678, 4863.893
2694.606, 4862.267
2696.535, 4867.621
2698.463, 4871.430
2700.392, 4857.351
2702.320, 4843.978
2704.249, 4856.036
2706.177, 4874.032
2708.105, 4880.466
2710.034, 4878.218
2711.962, 4863.085
2713.891, 4849.743
2715.819, 4860.170
2717.748, 4872.664
2719.676, 4857.979
2721.605, 4840.576
2723.533, 4851.119
2725.462, 4864.553
2727.390, 4857.504
2729.319, 4843.876
2731.247, 4831.021
2733.176, 4824.986
2735.104, 4840.209
2737.032, 4854.988
2738.961, 4844.813
2740.889, 4830.664
2742.818, 4827.036
2744.746, 4828.359
2746.675, 4833.966
2748.603, 4837.575
2750.532, 4832.511
2752.460, 4825.991
2754.389, 4822.793
2756.317, 4821.107
2758.246, 4819.692
2760.174, 4819.464
2762.103, 4824.618
2764.031, 4825.999
2765.959, 4810.872
2767.888, 4799.226
2769.816, 4806.261
2771.745, 4812.292
2773.673, 4802.729
2775.602, 4794.858
2777.530, 4800.671
2779.459, 4806.739
2781.387, 4808.941
2783.316, 4808.079
2785.244, 4801.931
2787.173, 4796.584
2789.101, 4793.079
2791.030, 4791.602
2792.958, 4789.465
2794.886, 4793.717
2796.815, 4813.290
2798.743, 4821.289
2800.672, 4802.638
2802.600, 4786.505
2804.529, 4782.372
2806.457, 4779.774
2808.386, 4778.884
2810.314, 4773.409
2812.243, 4758.387
2814.171, 4751.738
2816.100, 4764.431
2818.028, 4767.054
2819.957, 4751.237
2821.885, 4747.234
2823.813, 4760.281
2825.742, 4762.943
2827.670, 4749.703
2829.599, 4742.125
2831.527, 4742.866
2833.456, 4744.232
2835.384, 4746.226
2837.313, 4743.214
2839.241, 4735.128
2841.170, 4727.359
2843.098, 4720.428
2845.027, 4722.877
2846.955, 4733.896
2848.884, 4732.967
2850.812, 4722.848
2852.740, 4715.989
2854.669, 4711.767
2856.597, 4706.263
2858.526, 4700.016
2860.454, 4693.569
2862.383, 4688.009
2864.311, 4687.604
2866.240, 4688.749
2868.168, 4684.796
2870.097, 4679.278
2872.025, 4677.632
2873.954, 4677.901
2875.882, 4681.547
2877.811, 4681.738
2879.739, 4664.813
2881.667, 4651.235
2883.596, 4664.457
2885.524, 4678.626
2887.453, 4673.866
2889.381, 4666.646
2891.310, 4662.460
2893.238, 4661.708
2895.167, 4668.146
2897.095, 4672.522
2899.024, 4673.380
2900.952, 4668.880
2902.881, 4657.535
2904.809, 4644.884
2906.738, 4626.341
2908.666, 4621.854
2910.594, 4642.222
2912.523, 4650.815
2914.451, 4643.649
2916.380, 4633.194
2918.308, 4618.735
2920.237, 4621.497
2922.165, 4645.938
2924.094, 4651.779
2926.022, 4640.632
2927.951, 4629.139
2929.879, 4619.221
2931.808, 4620.708
2933.736, 4629.201
2935.665, 4627.548
2937.593, 4619.876
2939.521, 4617.699
2941.450, 4616.431
2943.378, 4607.255
2945.307, 4596.685
2947.235, 4594.071
2949.164, 4593.632
2951.092, 4590.661
2953.021, 4586.205
2954.949, 4578.204
2956.878, 4572.787
2958.806, 4576.577
2960.735, 4578.520
2962.663, 4573.758
2964.592, 4568.408
2966.520, 4561.860
2968.448, 4560.747
2970.377, 4573.429
2972.305, 4575.297
2974.234, 4561.516
2976.162, 4556.174
2978.091, 4564.157
2980.019, 4563.856
2981.948, 4553.437
2983.876, 4544.141
2985.805, 4536.514
2987.733, 4535.474
2989.662, 4539.495
2991.590, 4543.578
2993.519, 4545.391
2995.447, 4534.567
2997.375, 4520.542
2999.304, 4522.854
3001.232, 4527.626
3003.161, 4514.922
3005.089, 4502.734
3007.018, 4511.902
3008.946, 4520.319
3010.875, 4514.910
3012.803, 4506.931
3014.732, 4494.976
3016.660, 4494.028
3018.589, 4517.235
3020.517, 4523.852
3022.446, 4501.854
3024.374, 4486.583
3026.302, 4487.265
3028.231, 4484.714
3030.159, 4478.644
3032.088, 4486.997
3034.016, 4505.902
3035.945, 4492.327
3037.873, 4457.762
3039.802, 4455.278
3041.730, 4470.408
3043.659, 4473.534
3045.587, 4468.326
3047.516, 4453.339
3049.444, 4440.844
3051.373, 4451.183
3053.301, 4457.633
3055.229, 4435.515
3057.158, 4421.179
3059.086, 4439.893
3061.015, 4452.961
3062.943, 4448.719
3064.872, 4440.742
3066.800, 4428.967
3068.729, 4424.781
3070.657, 4433.687
3072.586, 4433.610
3074.514, 4425.529
3076.443, 4418.892
3078.371, 4413.205
3080.300, 4401.047
3082.228, 4387.722
3084.156, 4390.780
3086.085, 4397.058
3088.013, 4385.565
3089.942, 4371.392
3091.870, 4369.622
3093.799, 4368.452
3095.727, 4358.870
3097.656, 4352.372
3099.584, 4354.763
3101.513, 4357.017
3103.441, 4356.583
3105.370, 4354.294
3107.298, 4348.810
3109.227, 4355.168
3111.155, 4374.597
3113.083, 4367.228
3115.012, 4338.315
3116.940, 4330.874
3118.869, 4336.665
3120.797, 4338.293
3122.726, 4337.493
3124.654, 4337.512
3126.583, 4334.953
3128.511, 4322.120
3130.440, 4312.890
3132.368, 4319.141
3134.297, 4322.630
3136.225, 4316.883
3138.154, 4308.740
3140.082, 4298.180
3142.010, 4293.837
3143.939, 4298.702
3145.867, 4301.093
3147.796, 4301.064
3149.724, 4296.353
3151.653, 4288.983
3153.581, 4283.688
3155.510, 4280.915
3157.438, 4284.869
3159.367, 4287.656
3161.295, 4281.949
3163.224, 4274.280
3165.152, 4268.242
3167.081, 4262.257
3169.009, 4255.272
3170.938, 4250.655
3172.866, 4248.354
3174.794, 4252.788
3176.723, 4265.142
3178.651, 4258.250
3180.580, 4237.534
3182.508, 4231.919
3184.437, 4237.326
3186.365, 4250.560
3188.294, 4260.043
3190.222, 4247.476
3192.151, 4231.985
3194.079, 4227.598
3196.008, 4223.436
3197.936, 4213.831
3199.865, 4209.612
3201.793, 4214.848
3203.721, 4221.343
3205.650, 4229.277
3207.578, 4227.391
3209.507, 4217.997
3211.435, 4220.706
3213.364, 4226.825
3215.292, 4209.278
3217.221, 4185.865
3219.149, 4176.297
3221.078, 4174.260
3223.006, 4177.874
3224.935, 4183.367
3226.863, 4191.249
3228.792, 4193.621
3230.720, 4187.290
3232.648, 4180.157
3234.577, 4172.417
3236.505, 4172.118
3238.434, 4176.328
3240.362, 4172.215
3242.291, 4162.241
3244.219, 4145.212
3246.148, 4133.027
3248.076, 4142.670
3250.005, 4151.014
3251.933, 4141.969
3253.862, 4134.273
3255.790, 4132.287
3257.719, 4130.086
3259.647, 4126.602
3261.575, 4122.808
3263.504, 4118.799
3265.432, 4115.322
3267.361, 4113.122
3269.289, 4114.899
3271.218, 4117.436
3273.146, 4117.036
3275.075, 4115.443
3277.003, 4116.460
3278.932, 4111.544
3280.860, 4090.985
3282.789, 4084.746
3284.717, 4096.628
3286.646, 4100.446
3288.574, 4095.216
3290.502, 4092.004
3292.431, 4088.902
3294.359, 4080.613
3296.288, 4070.964
3298.216, 4061.919
3300.145, 4057.562
3302.073, 4062.463
3304.002, 4064.956
3305.930, 4055.569
3307.859, 4056.680
3309.787, 4069.889
3311.716, 4069.124
3313.644, 4056.026
3315.573, 4047.542
3317.501, 4041.361
3319.429, 4031.191
3321.358, 4023.132
3323.286, 4021.958
3325.215, 4025.554
3327.143, 4037.388
3329.072, 4040.243
3331.000, 4028.773
3332.929, 4021.436
3334.857, 4019.579
3336.786, 4009.760
3338.714, 3996.510
3340.643, 3990.917
3342.571, 3989.886
3344.500, 3992.876
3346.428, 3993.405
3348.356, 3986.402
3350.285, 3979.908
3352.213, 3978.242
3354.142, 3971.712
3356.070, 3960.225
3357.999, 3950.061
3359.927, 3942.725
3361.856, 3945.268
3363.784, 3951.894
3365.713, 3956.894
3367.641, 3958.538
3369.570, 3951.443
3371.498, 3948.766
3373.427, 3954.540
3375.355, 3961.628
3377.283, 3970.037
3379.212, 3968.169
3381.140, 3958.419
3383.069, 3947.001
3384.997, 3938.813
3386.926, 3947.670
3388.854, 3952.394
3390.783, 3936.842
3392.711, 3922.598
3394.640, 3920.097
3396.568, 3912.479
3398.497, 3899.658
3400.425, 3890.455
3402.354, 3886.121
3404.282, 3893.857
3406.210, 3903.712
3408.139, 3902.725
3410.067, 3899.754
3411.996, 3900.702
3413.924, 3899.414
3415.853, 3894.774
3417.781, 3887.978
3419.710, 3879.435
3421.638, 3880.576
3423.567, 3886.697
3425.495, 3887.883
3427.424, 3886.066
3429.352, 3882.301
3431.281, 3877.779
3433.209, 3872.920
3435.137, 3868.125
3437.066, 3863.739
3438.994, 3857.001
3440.923, 3849.936
3442.851, 3853.200
3444.780, 3860.003
3446.708, 3860.667
3448.637, 3857.934
3450.565, 3852.087
3452.494, 3845.823
3454.422, 3839.392
3456.351, 3834.262
3458.279, 3830.442
3460.208, 3827.459
3462.136, 3823.517
3464.064, 3812.688
3465.993, 3800.536
3467.921, 3786.827
3469.850, 3784.040
3471.778, 3800.014
3473.707, 3805.426
3475.635, 3794.165
3477.564, 3790.942
3479.492, 3793.309
3481.421, 3793.742
3483.349, 3792.662
3485.278, 3789.822
3487.206, 3786.857
3489.135, 3785.380
3491.063, 3780.441
3492.991, 3769.466
3494.920, 3764.793
3496.848, 3765.346
3498.777, 3768.142
3500.705, 3770.695
3502.634, 3769.450
3504.562, 3766.702
3506.491, 3764.050
3508.419, 3758.052
3510.348, 3747.824
3512.276, 3743.727
3514.205, 3744.152
3516.133, 3736.583
3518.062, 3729.033
3519.990, 3735.336
3521.918, 3740.288
3523.847, 3732.895
3525.775, 3728.159
3527.704, 3727.955
3529.632, 3731.158
3531.561, 3734.893
3533.489, 3720.475
3535.418, 3705.537
3537.346, 3716.546
3539.275, 3722.599
3541.203, 3703.505
3543.132, 3693.452
3545.060, 3698.021
3546.989, 3701.579
3548.917, 3702.749
3550.845, 3694.931
3552.774, 3685.988
3554.702, 3683.382
3556.631, 3683.770
3558.559, 3687.607
3560.488, 3684.755
3562.416, 3673.321
3564.345, 3667.426
3566.273, 3666.605
3568.202, 3671.342
3570.130, 3676.277
3572.059, 3676.525
3573.987, 3675.815
3575.916, 3676.268
3577.844, 3667.193
3579.772, 3650.392
3581.701, 3649.443
3583.629, 3653.535
3585.558, 3642.390
3587.486, 3634.927
3589.415, 3644.779
3591.343, 3647.670
3593.272, 3637.518
3595.200, 3629.354
3597.129, 3623.968
3599.057, 3622.486
3600.986, 3623.950
3602.914, 3632.109
3604.843, 3631.982
3606.771, 3606.902
3608.699, 3599.899
3610.628, 3610.025
3612.556, 3615.200
3614.485, 3614.235
3616.413, 3597.379
3618.342, 3587.118
3620.270, 3604.850
3622.199, 3612.860
3624.127, 3605.284
3626.056, 3600.981
3627.984, 3599.309
3629.913, 3597.239
3631.841, 3592.567
3633.770, 3581.010
3635.698, 3572.288
3637.626, 3570.000
3639.555, 3568.328
3641.483, 3567.483
3643.412, 3573.084
3645.340, 3577.236
3647.269, 3565.995
3649.197, 3553.689
3651.126, 3542.875
3653.054, 3545.824
3654.983, 3561.465
3656.911, 3555.113
3658.840, 3538.987
3660.768, 3542.139
3662.697, 3549.269
3664.625, 3555.974
3666.553, 3552.163
3668.482, 3536.368
3670.410, 3528.553
3672.339, 3526.448
3674.267, 3521.137
3676.196, 3517.234
3678.124, 3522.298
3680.053, 3521.318
3681.981, 3510.674
3683.910, 3510.393
3685.838, 3517.044
3687.767, 3508.060
3689.695, 3497.543
3691.624, 3498.084
3693.552, 3504.096
3695.480, 3515.984
3697.409, 3515.171
3699.337, 3502.915
3701.266, 3489.166
3703.194, 3480.213
3705.123, 3486.586
3707.051, 3490.090
3708.980, 3483.744
3710.908, 3478.884
3712.837, 3476.406
3714.765, 3477.478
3716.694, 3478.785
3718.622, 3474.173
3720.551, 3473.695
3722.479, 3483.461
3724.407, 3483.904
3726.336, 3475.089
3728.264, 3469.272
3730.193, 3465.577
3732.121, 3463.968
3734.050, 3461.979
3735.978, 3458.776
3737.907, 3454.736
3739.835, 3449.844
3741.764, 3443.614
3743.692, 3438.936
3745.621, 3442.635
3747.549, 3440.990
3749.478, 3426.875
3751.406, 3423.179
3753.334, 3428.240
3755.263, 3424.717
3757.191, 3418.952
3759.120, 3415.495
3761.048, 3417.201
3762.977, 3427.719
3764.905, 3423.434
3766.834, 3408.006
3768.762, 3397.021
3770.691, 3390.167
3772.619, 3387.137
3774.548, 3386.233
3776.476, 3386.667
3778.405, 3391.934
3780.333, 3398.034
3782.261, 3393.618
3784.190, 3385.402
3786.118, 3373.801
3788.047, 3373.910
3789.975, 3387.721
3791.904, 3383.248
3793.832, 3369.988
3795.761, 3364.623
3797.689, 3364.966
3799.618, 3373.420
3801.546, 3374.475
3803.475, 3367.653
3805.403, 3360.422
3807.332, 3355.134
3809.260, 3357.962
3811.188, 3357.893
3813.117, 3349.445
3815.045, 3348.336
3816.974, 3352.431
3818.902, 3346.315
3820.831, 3341.325
3822.759, 3352.216
3824.688, 3354.750
3826.616, 3340.990
3828.545, 3328.881
3830.473, 3320.669
3832.402, 3325.703
3834.330, 3326.890
3836.259, 3313.974
3838.187, 3301.568
3840.115, 3292.027
3842.044, 3287.643
3843.972, 3289.776
3845.901, 3308.986
3847.829, 3312.889
3849.758, 3290.693
3851.686, 3285.178
3853.615, 3292.172
3855.543, 3289.306
3857.472, 3284.238
3859.400, 3282.385
3861.329, 3284.798
3863.257, 3290.973
3865.186, 3288.068
3867.114, 3282.109
3869.042, 3286.149
3870.971, 3285.898
3872.899, 3270.436
3874.828, 3276.807
3876.756, 3297.203
3878.685, 3287.484
3880.613, 3273.581
3882.542, 3277.260
3884.470, 3281.658
3886.399, 3285.052
3888.327, 3287.747
3890.256, 3287.587
3892.184, 3281.036
3894.113, 3272.701
3896.041, 3269.677
3897.969, 3263.741
3899.898, 3253.794
3901.826, 3255.403
3903.755, 3263.090
3905.683, 3270.873
3907.612, 3270.406
3909.540, 3261.800
3911.469, 3258.768
3913.397, 3257.295
3915.326, 3259.940
3917.254, 3262.917
3919.183, 3261.498
3921.111, 3260.164
3923.040, 3259.387
3924.968, 3257.541
3926.896, 3256.566
3928.825, 3258.104
3930.753, 3250.440
3932.682, 3234.918
3934.610, 3238.426
3936.539, 3248.224
3938.467, 3247.290
3940.396, 3244.446
3942.324, 3241.982
3944.253, 3247.723
3946.181, 3257.582
3948.110, 3250.515
3950.038, 3243.926
3951.967, 3249.382
3953.895, 3250.266
3955.823, 3252.717
3957.752, 3250.674
3959.680, 3240.290
3961.609, 3230.787
3963.537, 3234.953
3965.466, 3243.555
3967.394, 3239.642
3969.323, 3232.947
3971.251, 3235.093
3973.180, 3237.468
3975.108, 3233.392
3977.037, 3233.250
3978.965, 3240.465
3980.894, 3241.386
3982.822, 3235.442
3984.750, 3233.787
3986.679, 3233.674
3988.607, 3231.718
3990.536, 3222.200
3992.464, 3220.079
3994.393, 3227.521
3996.321, 3221.335
3998.250, 3213.787
4000.178, 3214.819
4002.107, 3218.888
4004.035, 3225.674
4005.964, 3225.542
4007.892, 3215.035
4009.821, 3207.670
4011.749, 3208.984
4013.677, 3215.325
4015.606, 3209.602
4017.534, 3204.760
4019.463, 3218.670
4021.391, 3221.657
4023.320, 3216.916
4025.248, 3216.187
4027.177, 3215.983
4029.105, 3213.309
4031.034, 3208.287
4032.962, 3207.635
4034.891, 3206.467
4036.819, 3203.078
4038.748, 3210.315
4040.676, 3211.525
4042.604, 3199.654
4044.533, 3201.219
4046.461, 3210.589
4048.390, 3204.541
4050.318, 3197.130
4052.247, 3192.557
4054.175, 3182.753
4056.104, 3173.101
4058.032, 3174.466
4059.961, 3184.540
4061.889, 3196.806
4063.818, 3196.440
4065.746, 3188.000
4067.675, 3187.979
4069.603, 3186.575
4071.531, 3174.974
4073.460, 3169.883
4075.388, 3171.378
4077.317, 3167.306
4079.245, 3165.385
4081.174, 3175.953
4083.102, 3178.009
4085.031, 3171.649
4086.959, 3162.415
4088.888, 3152.335
4090.816, 3147.332
4092.745, 3148.608
4094.673, 3150.954
4096.602, 3149.871
4098.530, 3149.766
4100.458, 3147.427
4102.387, 3148.695
4104.315, 3153.376
4106.244, 3151.815
4108.172, 3145.946
4110.101, 3133.667
4112.029, 3131.010
4113.958, 3137.597
4115.886, 3157.216
4117.814, 3167.814
4119.743, 3140.378
4121.671, 3129.125
4123.600, 3135.145
4125.528, 3138.986
4127.457, 3137.688
4129.385, 3124.571
4131.314, 3120.109
4133.242, 3124.576
4135.171, 3131.042
4137.099, 3132.786
4139.028, 3121.285
4140.956, 3118.299
4142.885, 3123.918
4144.813, 3124.918
4146.742, 3125.961
4148.670, 3132.827
4150.599, 3126.749
4152.527, 3109.980
4154.456, 3117.987
4156.384, 3122.359
4158.313, 3098.419
4160.241, 3078.753
4162.169, 3067.967
4164.098, 3080.015
4166.026, 3098.380
4167.955, 3113.266
4169.883, 3110.455
4171.812, 3092.615
4173.740, 3086.991
4175.668, 3087.341
4177.597, 3093.876
4179.525, 3092.908
4181.454, 3085.335
4183.382, 3088.988
4185.311, 3092.568
4187.239, 3081.639
4189.168, 3080.324
4191.096, 3086.678
4193.025, 3078.789
4194.953, 3075.370
4196.882, 3092.588
4198.810, 3089.516
4200.739, 3072.572
4202.667, 3067.931
4204.596, 3068.914
4206.524, 3073.038
4208.453, 3064.977
4210.381, 3050.412
4212.310, 3037.524
4214.238, 3035.930
4216.167, 3049.181
4218.095, 3048.360
4220.023, 3043.000
4221.952, 3056.416
4223.880, 3063.848
4225.809, 3058.409
4227.737, 3056.904
4229.666, 3054.248
4231.594, 3039.386
4233.522, 3030.907
4235.451, 3032.458
4237.379, 3021.624
4239.308, 3013.140
4241.236, 3024.872
4243.165, 3029.889
4245.093, 3024.612
4247.022, 3006.942
4248.950, 2993.853
4250.879, 2997.322
4252.807, 3008.526
4254.736, 3020.804
4256.664, 3009.469
4258.593, 2996.361
4260.521, 2991.323
4262.450, 2991.647
4264.378, 2992.915
4266.307, 2985.876
4268.235, 2976.696
4270.164, 2967.141
4272.092, 2958.988
4274.021, 2955.571
4275.949, 2965.989
4277.877, 2967.070
4279.806, 2955.267
4281.734, 2950.525
4283.663, 2950.818
4285.591, 2958.179
4287.520, 2949.430
4289.448, 2930.241
4291.376, 2944.605
4293.305, 2959.228
4295.233, 2957.714
4297.162, 2951.672
4299.090, 2944.839
4301.019, 2945.366
4302.947, 2940.727
4304.876, 2927.715
4306.804, 2917.217
4308.733, 2910.122
4310.661, 2907.813
4312.590, 2906.507
4314.518, 2905.379
4316.447, 2903.683
4318.375, 2900.043
4320.304, 2891.329
4322.232, 2902.010
4324.161, 2920.555
4326.089, 2909.775
4328.018, 2899.696
4329.946, 2899.585
4331.875, 2894.010
4333.803, 2884.346
4335.731, 2868.654
4337.660, 2865.102
4339.588, 2873.269
4341.517, 2878.115
4343.445, 2877.850
4345.374, 2867.913
4347.302, 2878.289
4349.230, 2893.594
4351.159, 2870.679
4353.087, 2852.399
4355.016, 2852.633
4356.944, 2865.329
4358.873, 2875.677
4360.801, 2862.170
4362.730, 2857.166
4364.658, 2860.341
4366.587, 2849.600
4368.515, 2843.021
4370.444, 2858.948
4372.372, 2846.061
4374.301, 2822.924
4376.229, 2820.380
4378.158, 2826.109
4380.086, 2836.644
4382.015, 2826.941
4383.943, 2815.270
4385.872, 2814.626
4387.800, 2813.687
4389.729, 2811.418
4391.657, 2807.899
4393.585, 2802.500
4395.514, 2795.250
4397.442, 2786.872
4399.371, 2784.125
4401.299, 2796.254
4403.228, 2799.504
4405.156, 2793.074
4407.084, 2779.058
4409.013, 2768.019
4410.941, 2763.401
4412.870, 2763.027
4414.798, 2763.956
4416.727, 2763.134
4418.655, 2763.566
4420.584, 2764.385
4422.512, 2762.498
4424.441, 2753.994
4426.369, 2732.476
4428.298, 2728.176
4430.226, 2734.130
4432.155, 2745.249
4434.083, 2753.989
4436.012, 2757.985
4437.940, 2745.338
4439.869, 2737.271
4441.797, 2742.971
4443.726, 2734.782
4445.654, 2725.635
4447.583, 2736.980
4449.511, 2730.586
4451.439, 2709.955
4453.368, 2706.603
4455.296, 2704.762
4457.225, 2697.576
4459.153, 2700.437
4461.082, 2705.000
4463.010, 2700.325
4464.938, 2697.057
4466.867, 2694.745
4468.795, 2685.924
4470.724, 2680.467
4472.652, 2682.639
4474.581, 2679.073
4476.509, 2675.501
4478.438, 2676.229
4480.366, 2686.937
4482.295, 2697.070
4484.223, 2674.422
4486.152, 2653.733
4488.080, 2643.803
4490.009, 2645.638
4491.937, 2648.572
4493.866, 2643.094
4495.794, 2650.173
4497.723, 2656.836
4499.651, 2629.190
4501.580, 2620.046
4503.508, 2634.320
4505.437, 2638.541
4507.365, 2637.514
4509.293, 2632.490
4511.222, 2636.749
4513.150, 2640.219
4515.079, 2630.794
4517.007, 2618.971
4518.936, 2609.080
4520.864, 2611.250
4522.792, 2611.407
4524.721, 2605.662
4526.649, 2599.772
4528.578, 2594.884
4530.506, 2591.697
4532.435, 2587.936
4534.363, 2584.608
4536.292, 2583.746
4538.220, 2583.880
4540.149, 2584.645
4542.077, 2587.464
4544.006, 2585.762
4545.934, 2577.847
4547.863, 2578.573
4549.791, 2579.914
4551.720, 2570.715
4553.648, 2575.342
4555.577, 2584.571
4557.505, 2577.714
4559.434, 2571.691
4561.362, 2568.364
4563.291, 2561.212
4565.219, 2547.829
4567.147, 2528.679
4569.076, 2540.135
4571.004, 2557.593
4572.933, 2562.615
4574.861, 2544.213
4576.790, 2520.145
4578.718, 2527.288
4580.646, 2532.201
4582.575, 2530.285
4584.503, 2520.276
4586.432, 2520.532
4588.360, 2534.818
4590.289, 2522.308
4592.217, 2511.605
4594.146, 2528.064
4596.074, 2524.705
4598.003, 2510.222
4599.931, 2496.344
4601.860, 2493.249
4603.788, 2498.106
4605.717, 2498.365
4607.645, 2499.800
4609.574, 2502.306
4611.502, 2492.709
4613.431, 2486.506
4615.359, 2492.513
4617.288, 2487.758
4619.216, 2478.632
4621.145, 2470.251
4623.073, 2470.846
4625.001, 2474.563
4626.930, 2470.886
4628.858, 2461.860
4630.787, 2451.663
4632.715, 2453.438
4634.644, 2456.884
4636.572, 2458.135
4638.500, 2446.835
4640.429, 2439.442
4642.357, 2445.796
4644.286, 2450.755
4646.214, 2448.925
4648.143, 2434.007
4650.071, 2428.043
4652.000, 2427.156
4653.928, 2422.664
4655.857, 2416.144
4657.785, 2410.705
4659.714, 2418.218
4661.642, 2421.806
4663.571, 2417.787
4665.499, 2407.636
4667.428, 2399.870
4669.356, 2397.878
4671.285, 2403.131
4673.213, 2407.355
4675.142, 2403.810
4677.070, 2399.759
4678.999, 2396.238
4680.927, 2393.500
4682.855, 2400.520
4684.784, 2405.564
4686.712, 2380.778
4688.641, 2369.631
4690.569, 2372.634
4692.498, 2369.102
4694.426, 2370.725
4696.354, 2377.182
4698.283, 2360.526
4700.211, 2350.734
4702.140, 2357.282
4704.068, 2357.494
4705.997, 2349.318
4707.925, 2328.249
4709.854, 2326.165
4711.782, 2331.857
4713.711, 2336.242
4715.639, 2346.867
4717.568, 2350.415
4719.496, 2321.908
4721.425, 2314.989
4723.353, 2320.870
4725.282, 2311.211
4727.210, 2313.352
4729.139, 2322.915
4731.067, 2314.729
4732.996, 2303.915
4734.924, 2294.578
4736.853, 2286.530
4738.781, 2287.281
4740.709, 2297.578
4742.638, 2285.102
4744.566, 2274.919
4746.495, 2276.635
4748.423, 2275.549
4750.352, 2278.053
4752.280, 2291.216
4754.208, 2282.997
4756.137, 2275.454
4758.065, 2286.729
4759.994, 2278.361
4761.922, 2264.799
4763.851, 2265.846
4765.779, 2267.831
4767.708, 2266.779
4769.636, 2255.675
4771.565, 2255.912
4773.493, 2261.472
4775.422, 2258.049
4777.350, 2251.622
4779.279, 2245.655
4781.207, 2249.386
4783.136, 2241.984
4785.064, 2227.886
4786.993, 2236.423
4788.921, 2237.299
4790.850, 2227.960
4792.778, 2237.572
4794.707, 2233.534
4796.635, 2212.566
4798.563, 2215.855
4800.492, 2216.095
4802.420, 2205.651
4804.349, 2212.542
4806.277, 2213.275
4808.206, 2199.391
4810.134, 2199.847
4812.063, 2198.833
4813.991, 2188.917
4815.919, 2187.691
4817.848, 2189.391
4819.776, 2190.759
4821.705, 2188.526
4823.633, 2186.879
4825.562, 2188.853
4827.490, 2177.083
4829.419, 2166.347
4831.347, 2168.570
4833.276, 2166.308
4835.204, 2163.492
4837.133, 2163.453
4839.061, 2169.191
4840.990, 2172.609
4842.918, 2165.636
4844.847, 2158.892
4846.775, 2153.765
4848.704, 2151.965
4850.632, 2142.384
4852.561, 2133.862
4854.489, 2137.801
4856.417, 2133.134
4858.346, 2129.121
4860.274, 2139.618
4862.203, 2135.345
4864.131, 2126.558
4866.060, 2128.034
4867.988, 2122.940
4869.917, 2116.953
4871.845, 2121.166
4873.773, 2108.925
4875.702, 2095.456
4877.630, 2101.082
4879.559, 2110.849
4881.487, 2114.828
4883.416, 2099.610
4885.344, 2091.174
4887.273, 2086.614
4889.201, 2079.981
4891.130, 2090.333
4893.058, 2097.268
4894.987, 2066.577
4896.915, 2072.938
4898.844, 2087.452
4900.772, 2074.668
4902.701, 2067.957
4904.629, 2068.659
4906.558, 2081.428
4908.486, 2065.724
4910.415, 2048.765
4912.343, 2057.767
4914.271, 2057.030
4916.200, 2054.786
4918.128, 2064.103
4920.057, 2056.021
4921.985, 2043.245
4923.914, 2035.094
4925.842, 2046.991
4927.771, 2054.856
4929.699, 2039.044
4931.627, 2043.627
4933.556, 2044.423
4935.484, 2025.184
4937.413, 2031.458
4939.341, 2034.781
4941.270, 2019.879
4943.198, 2021.535
4945.127, 2022.261
4947.055, 2012.703
4948.984, 2012.407
4950.912, 2009.525
4952.841, 2001.784
4954.769, 2011.387
4956.698, 2013.346
4958.626, 2002.025
4960.555, 2016.319
4962.483, 2020.171
4964.412, 2008.576
4966.340, 2004.808
4968.269, 1999.712
4970.197, 1991.799
4972.125, 1980.578
4974.054, 1983.414
4975.982, 1992.922
4977.911, 1981.040
4979.839, 1963.909
4981.768, 1953.202
4983.696, 1972.144
4985.625, 1974.913
4987.553, 1968.422
4989.481, 1971.535
4991.410, 1954.160
4993.338, 1934.376
4995.267, 1938.091
4997.195, 1936.074
4999.124, 1931.935
5001.052, 1930.044
5002.981, 1922.416
5004.909, 1917.376
5006.838, 1919.841
5008.766, 1911.527
5010.695, 1909.936
5012.623, 1922.947
5014.552, 1922.616
5016.480, 1919.444
5018.409, 1916.177
5020.337, 1907.288
5022.266, 1898.074
5024.194, 1892.222
5026.123, 1897.920
5028.051, 1908.602
5029.979, 1917.299
5031.908, 1910.578
5033.836, 1908.158
5035.765, 1907.198
5037.693, 1900.707
5039.622, 1889.129
5041.550, 1881.137
5043.479, 1885.161
5045.407, 1886.227
5047.335, 1880.540
5049.264, 1866.192
5051.192, 1867.923
5053.121, 1873.564
5055.049, 1876.986
5056.978, 1878.441
5058.906, 1868.343
5060.835, 1851.343
5062.763, 1855.441
5064.692, 1859.379
5066.620, 1859.474
5068.549, 1859.081
5070.477, 1850.991
5072.406, 1841.231
5074.334, 1839.591
5076.263, 1836.642
5078.191, 1834.044
5080.120, 1834.550
5082.048, 1834.753
5083.977, 1831.691
5085.905, 1824.410
5087.833, 1820.239
5089.762, 1821.684
5091.690, 1827.126
5093.619, 1827.159
5095.547, 1818.776
5097.476, 1808.482
5099.404, 1813.970
5101.333, 1821.536
5103.261, 1823.405
5105.189, 1810.300
5107.118, 1806.445
5109.046, 1805.091
5110.975, 1798.805
5112.903, 1800.127
5114.832, 1795.374
5116.760, 1782.308
5118.689, 1791.010
5120.617, 1786.612
5122.546, 1770.216
5124.474, 1782.017
5126.403, 1777.127
5128.331, 1765.448
5130.260, 1773.865
5132.188, 1778.968
5134.117, 1779.116
5136.045, 1774.768
5137.974, 1780.502
5139.902, 1779.101
5141.831, 1764.231
5143.759, 1761.549
5145.688, 1761.150
5147.616, 1759.414
5149.544, 1749.728
5151.473, 1759.641
5153.401, 1771.444
5155.330, 1750.839
5157.258, 1745.112
5159.187, 1746.367
5161.115, 1747.350
5163.043, 1745.740
5164.972, 1741.360
5166.900, 1736.486
5168.829, 1748.280
5170.757, 1738.287
5172.686, 1715.519
5174.614, 1712.609
5176.543, 1720.358
5178.471, 1727.474
5180.400, 1724.828
5182.328, 1725.590
5184.257, 1724.495
5186.185, 1719.017
5188.114, 1711.897
5190.042, 1703.883
5191.971, 1697.890
5193.899, 1701.010
5195.828, 1702.597
5197.756, 1700.766
5199.685, 1694.366
5201.613, 1689.746
5203.542, 1689.416
5205.470, 1693.588
5207.398, 1692.818
5209.327, 1689.392
5211.255, 1685.475
5213.184, 1684.676
5215.112, 1686.139
5217.041, 1684.564
5218.969, 1671.872
5220.897, 1672.540
5222.826, 1670.439
5224.754, 1661.363
5226.683, 1670.770
5228.611, 1670.962
5230.540, 1662.015
5232.468, 1655.176
5234.397, 1651.740
5236.325, 1650.751
5238.254, 1651.205
5240.182, 1659.557
5242.111, 1653.441
5244.039, 1634.176
5245.968, 1641.168
5247.896, 1644.701
5249.825, 1643.933
5251.753, 1645.542
5253.682, 1648.515
5255.610, 1641.597
5257.539, 1621.482
5259.467, 1621.420
5261.396, 1624.153
5263.324, 1625.687
5265.252, 1631.957
5267.181, 1622.500
5269.109, 1610.534
5271.038, 1609.700
5272.966, 1613.135
5274.895, 1608.388
5276.823, 1596.423
5278.751, 1600.289
5280.680, 1598.135
5282.608, 1592.991
5284.537, 1594.405
5286.465, 1586.445
5288.394, 1588.733
5290.322, 1606.357
5292.251, 1603.552
5294.179, 1594.276
5296.108, 1584.582
5298.036, 1578.711
5299.965, 1578.328
5301.893, 1576.397
5303.822, 1568.888
5305.750, 1563.422
5307.679, 1572.450
5309.607, 1582.565
5311.536, 1558.315
5313.464, 1547.325
5315.393, 1547.242
5317.321, 1552.044
5319.250, 1558.991
5321.178, 1551.785
5323.106, 1536.725
5325.035, 1540.744
5326.963, 1547.144
5328.892, 1547.143
5330.820, 1537.193
5332.749, 1537.685
5334.677, 1538.708
5336.605, 1535.778
5338.534, 1524.635
5340.462, 1514.224
5342.391, 1512.926
5344.319, 1525.413
5346.248, 1519.254
5348.176, 1516.441
5350.105, 1518.465
5352.033, 1513.552
5353.962, 1511.051
5355.890, 1512.602
5357.819, 1518.722
5359.747, 1493.541
5361.676, 1494.078
5363.604, 1511.993
5365.533, 1500.198
5367.461, 1492.488
5369.390, 1489.788
5371.318, 1489.131
5373.247, 1479.841
5375.175, 1476.730
5377.104, 1479.356
5379.032, 1482.122
5380.960, 1484.219
5382.889, 1484.448
5384.817, 1481.227
5386.746, 1466.042
5388.674, 1460.441
5390.603, 1459.862
5392.531, 1454.748
5394.459, 1455.217
5396.388, 1456.102
5398.316, 1454.400
5400.245, 1446.013
5402.173, 1442.154
5404.102, 1443.493
5406.030, 1448.218
5407.959, 1440.226
5409.887, 1435.245
5411.816, 1433.328
5413.744, 1423.230
5415.673, 1424.337
5417.601, 1431.090
5419.530, 1438.166
5421.458, 1435.855
5423.387, 1419.296
5425.315, 1406.293
5427.244, 1416.359
5429.172, 1412.074
5431.101, 1410.086
5433.029, 1413.685
5434.958, 1413.150
5436.886, 1412.250
5438.814, 1408.768
5440.743, 1401.467
5442.671, 1394.946
5444.600, 1385.514
5446.528, 1381.093
5448.457, 1392.457
5450.385, 1399.117
5452.313, 1391.612
5454.242, 1376.327
5456.170, 1384.261
5458.099, 1374.676
5460.027, 1366.821
5461.956, 1374.734
5463.884, 1375.211
5465.813, 1378.129
5467.741, 1376.419
5469.670, 1359.415
5471.598, 1360.095
5473.527, 1363.139
5475.455, 1362.450
5477.384, 1360.739
5479.312, 1348.329
5481.241, 1338.186
5483.169, 1337.486
5485.098, 1343.711
5487.026, 1333.412
5488.955, 1325.153
5490.883, 1338.887
5492.812, 1338.947
5494.740, 1333.932
5496.668, 1330.069
5498.597, 1332.907
5500.525, 1326.726
5502.454, 1326.571
5504.382, 1332.080
5506.311, 1314.323
5508.239, 1314.266
5510.167, 1312.690
5512.096, 1297.897
5514.024, 1299.788
5515.953, 1305.350
5517.881, 1309.455
5519.810, 1309.705
5521.738, 1307.180
5523.667, 1306.740
5525.595, 1305.024
5527.524, 1291.654
5529.452, 1291.697
5531.381, 1289.537
5533.309, 1283.030
5535.238, 1282.974
5537.166, 1278.223
5539.095, 1279.678
5541.023, 1287.414
5542.952, 1272.522
5544.880, 1270.213
5546.809, 1277.282
5548.737, 1286.075
5550.666, 1275.409
5552.594, 1267.752
5554.522, 1266.181
5556.451, 1269.221
5558.379, 1257.752
5560.308, 1252.355
5562.236, 1254.475
5564.165, 1258.706
5566.093, 1256.711
5568.021, 1254.936
5569.950, 1254.380
5571.878, 1253.010
5573.807, 1248.030
5575.735, 1239.677
5577.664, 1232.785
5579.592, 1244.086
5581.521, 1230.416
5583.449, 1220.035
5585.378, 1222.693
5587.306, 1220.220
5589.235, 1220.965
5591.163, 1226.049
5593.092, 1232.663
5595.020, 1229.274
5596.949, 1222.172
5598.877, 1217.812
5600.806, 1218.700
5602.734, 1215.064
5604.663, 1215.401
5606.591, 1211.650
5608.520, 1198.328
5610.448, 1197.095
5612.376, 1195.440
5614.305, 1190.421
5616.233, 1183.120
5618.162, 1189.947
5620.090, 1180.499
5622.019, 1172.668
5623.947, 1186.239
5625.875, 1186.839
5627.804, 1172.650
5629.732, 1162.422
5631.661, 1175.750
5633.589, 1180.318
5635.518, 1185.139
5637.446, 1182.798
5639.375, 1163.532
5641.303, 1164.202
5643.232, 1157.184
5645.160, 1150.020
5647.089, 1156.814
5649.017, 1151.301
5650.946, 1153.746
5652.874, 1152.805
5654.803, 1132.757
5656.731, 1148.672
5658.660, 1146.142
5660.588, 1134.241
5662.517, 1138.911
5664.445, 1132.158
5666.374, 1131.460
5668.302, 1131.463
5670.230, 1122.934
5672.159, 1121.479
5674.087, 1120.802
5676.016, 1122.168
5677.944, 1126.550
5679.873, 1117.927
5681.801, 1117.225
5683.729, 1118.521
5685.658, 1113.963
5687.586, 1109.516
5689.515, 1108.040
5691.443, 1105.788
5693.372, 1100.931
5695.300, 1108.628
5697.229, 1104.452
5699.157, 1094.540
5701.086, 1087.114
5703.014, 1088.385
5704.943, 1093.295
5706.871, 1090.546
5708.800, 1080.717
5710.728, 1086.926
5712.657, 1078.222
5714.585, 1078.823
5716.514, 1090.348
5718.442, 1079.690
5720.371, 1076.234
5722.299, 1078.150
5724.228, 1079.621
5726.156, 1071.331
5728.084, 1066.346
5730.013, 1059.546
5731.941, 1056.375
5733.870, 1068.202
5735.798, 1060.266
5737.727, 1053.772
5739.655, 1049.006
5741.583, 1041.419
5743.512, 1048.517
5745.440, 1053.020
5747.369, 1051.782
5749.297, 1046.649
5751.226, 1046.569
5753.154, 1038.656
5755.083, 1032.813
5757.011, 1034.051
5758.940, 1034.840
5760.868, 1038.328
5762.797, 1033.983
5764.725, 1024.559
5766.654, 1028.613
5768.582, 1021.250
5770.511, 1017.569
5772.439, 1018.374
5774.368, 1017.654
5776.296, 1015.372
5778.225, 1015.313
5780.153, 1011.133
5782.082, 1000.683
5784.010, 1010.847
5785.938, 1016.370
5787.867, 1010.312
5789.795, 996.6320
5791.724, 991.1566
5793.652, 997.9754
5795.581, 994.4173
5797.509, 983.4246
5799.438, 987.9391
5801.366, 984.4377
5803.294, 984.7946
5805.223, 990.2259
5807.151, 997.3508
5809.080, 988.0280
5811.008, 983.6787
5812.937, 980.6681
5814.865, 976.0262
5816.794, 976.7957
5818.722, 971.5585
5820.651, 968.3810
5822.579, 969.6577
5824.508, 972.7863
5826.436, 962.9053
5828.365, 965.2848
5830.293, 966.4869
5832.222, 952.8707
5834.150, 953.3070
5836.079, 956.2240
5838.007, 956.6349
5839.936, 953.7264
5841.864, 950.0578
5843.792, 943.7487
5845.721, 948.4576
5847.649, 952.6760
5849.578, 936.9072
5851.506, 937.6468
5853.435, 932.8825
5855.363, 934.6456
5857.292, 946.1517
5859.220, 938.8309
5861.148, 930.6146
5863.077, 930.0540
5865.005, 930.2819
5866.934, 918.5450
5868.862, 920.3429
5870.791, 920.6957
5872.719, 920.4894
5874.648, 920.6865
5876.576, 912.5920
5878.505, 915.0720
5880.433, 915.5583
5882.362, 911.7372
5884.290, 908.7873
5886.219, 902.8182
5888.147, 897.7018
5890.076, 899.0871
5892.004, 905.0479
5893.933, 893.5980
5895.861, 897.0760
5897.790, 893.9766
5899.718, 886.2036
5901.646, 888.1517
5903.575, 883.6182
5905.503, 888.6201
5907.432, 886.7949
5909.360, 874.1374
5911.289, 873.6849
5913.217, 881.9100
5915.146, 880.0993
5917.074, 872.8547
5919.002, 871.5812
5920.931, 876.7451
5922.859, 874.9534
5924.788, 868.9379
5926.716, 863.9621
5928.645, 864.9282
5930.573, 861.7753
5932.502, 866.0178
5934.430, 866.2679
5936.359, 857.2338
5938.287, 859.4830
5940.216, 860.5928
5942.144, 859.2834
5944.073, 853.2254
5946.001, 841.7477
5947.930, 840.4166
5949.858, 838.5811
5951.787, 838.0290
5953.715, 839.5957
5955.644, 841.2576
5957.572, 828.6677
5959.500, 827.0018
5961.429, 828.7034
5963.357, 826.9407
5965.286, 830.2405
5967.214, 828.2939
5969.143, 831.8224
5971.071, 832.7130
5973.000, 822.6948
5974.928, 818.5530
5976.856, 815.3451
5978.785, 818.8433
5980.713, 825.4245
5982.642, 826.8187
5984.570, 809.8319
5986.499, 804.6982
5988.427, 804.5773
5990.356, 805.0829
5992.284, 809.7884
5994.213, 813.4348
5996.141, 801.4655
5998.070, 791.6132
5999.998, 793.6468
6001.927, 801.8916
6003.855, 796.4598
6005.784, 786.9190
6007.712, 783.8469
6009.641, 789.1105
6011.569, 791.4368
6013.498, 783.3014
6015.426, 780.7851
6017.354, 779.4254
6019.283, 773.4594
6021.211, 771.9655
6023.140, 774.1873
6025.068, 768.8153
6026.997, 762.9363
6028.925, 764.7877
6030.854, 763.9688
6032.782, 768.6906
6034.710, 765.8764
6036.639, 762.3351
6038.567, 765.8198
6040.496, 756.2191
6042.424, 756.3917
6044.353, 756.7990
6046.281, 755.2905
6048.210, 754.3051
6050.138, 753.7570
6052.067, 753.3482
6053.995, 747.1655
6055.924, 741.7166
6057.852, 743.4315
6059.781, 739.3573
6061.709, 747.3502
6063.638, 745.4326
6065.566, 742.0092
6067.495, 747.4451
6069.423, 728.4903
6071.352, 731.3871
6073.280, 739.2123
6075.208, 736.9750
6077.137, 724.5679
6079.065, 728.4013
6080.994, 722.3492
6082.922, 720.1078
6084.851, 720.1080
6086.779, 717.6081
6088.708, 715.8454
6090.636, 713.2414
6092.564, 708.3954
6094.493, 704.7662
6096.421, 704.3710
6098.350, 704.9985
6100.278, 704.9193
6102.207, 706.0067
6104.135, 703.4601
6106.064, 701.3776
6107.992, 713.1829
6109.921, 702.8043
6111.849, 704.8696
6113.778, 700.1789
6115.706, 690.6800
6117.635, 697.5818
6119.563, 695.1429
6121.492, 691.4215
6123.420, 691.0701
6125.349, 693.6622
6127.277, 695.2270
6129.206, 682.9553
6131.134, 685.7330
6133.063, 694.7700
6134.991, 693.2895
6136.919, 678.9319
6138.848, 677.7624
6140.776, 673.3446
6142.705, 668.3646
6144.633, 673.3522
6146.562, 679.8105
6148.490, 663.3107
6150.418, 664.8723
6152.347, 668.8452
6154.275, 669.7773
6156.204, 665.9757
6158.132, 658.8903
6160.061, 659.3011
6161.989, 664.0514
6163.918, 657.1427
6165.846, 648.1661
6167.775, 648.9433
6169.703, 657.8573
6171.632, 663.6417
6173.560, 663.5604
6175.489, 650.4088
6177.417, 636.1703
6179.346, 640.6856
6181.274, 642.9544
6183.203, 640.7913
6185.131, 639.0275
6187.060, 640.0022
6188.988, 641.3771
6190.917, 635.6057
6192.845, 636.9264
6194.773, 631.8312
6196.702, 623.6218
6198.630, 620.4047
6200.559, 626.2394
6202.487, 628.2550
6204.416, 635.8049
6206.344, 633.1383
6208.272, 632.0014
6210.201, 640.6051
6212.129, 640.2047
6214.058, 627.4400
6215.986, 626.2850
6217.915, 629.9590
6219.843, 627.9042
6221.772, 616.8517
6223.700, 609.8196
6225.629, 611.3816
6227.557, 621.6489
6229.486, 626.6451
6231.414, 621.7478
6233.343, 616.6573
6235.271, 618.3475
6237.200, 611.1011
6239.128, 613.6576
6241.057, 616.8405
6242.985, 609.5253
6244.914, 604.6718
6246.842, 600.4769
6248.771, 599.0320
6250.699, 604.6220
6252.627, 607.5674
6254.556, 599.3668
6256.484, 604.8635
6258.413, 594.7254
6260.341, 589.0553
6262.270, 592.8438
6264.198, 595.9235
6266.126, 587.0939
6268.055, 594.4880
6269.983, 587.8624
6271.912, 588.5106
6273.840, 594.8886
6275.769, 596.6455
6277.697, 587.9296
6279.626, 590.9489
6281.554, 580.1185
6283.483, 578.6768
6285.411, 579.0610
6287.340, 578.8590
6289.268, 589.7807
6291.197, 588.3950
6293.125, 576.0145
6295.054, 575.6635
6296.982, 581.7148
6298.911, 582.8251
6300.839, 577.3760
6302.768, 576.6407
6304.696, 583.2985
6306.625, 590.3746
6308.553, 588.8127
6310.481, 582.5483
6312.410, 585.2921
6314.338, 584.0687
6316.267, 582.8992
6318.195, 586.2480
6320.124, 583.7899
6322.052, 576.2460
6323.980, 576.1088
6325.909, 568.2959
6327.837, 572.3295
6329.766, 567.6285
6331.694, 564.1531
6333.623, 564.9128
6335.551, 561.7629
6337.480, 569.2195
6339.408, 561.9246
6341.337, 554.2798
6343.265, 558.5943
6345.194, 560.4949
6347.122, 546.5087
6349.051, 548.0695
6350.979, 551.5840
6352.908, 545.4009
6354.836, 545.7267
6356.765, 548.9573
6358.693, 546.3694
6360.622, 542.5823
6362.550, 529.5309
6364.479, 531.4426
6366.407, 536.9255
6368.335, 533.0846
6370.264, 527.9731
6372.192, 537.8106
6374.121, 526.5307
6376.049, 528.1357
6377.978, 524.6541
6379.906, 517.4544
6381.834, 518.3561
6383.763, 528.9213
6385.691, 519.6664
6387.620, 513.7787
6389.548, 514.6861
6391.477, 518.6177
6393.405, 518.3075
6395.334, 513.0406
6397.262, 509.2848
6399.191, 502.3970
6401.119, 519.0119
6403.048, 509.7897
6404.976, 501.8190
6406.905, 506.2585
6408.833, 508.9791
6410.762, 503.7975
6412.690, 502.9157
6414.619, 492.7239
6416.547, 490.3433
6418.476, 490.5184
6420.404, 492.2801
6422.333, 500.2831
6424.261, 485.1984
6426.189, 489.8942
6428.118, 492.0373
6430.046, 484.5141
6431.975, 476.2979
6433.903, 475.3401
6435.832, 480.7469
6437.760, 471.2474
6439.688, 475.0860
6441.617, 478.7079
6443.545, 476.1064
6445.474, 470.7690
6447.402, 464.7215
6449.331, 454.3908
6451.259, 470.2711
6453.188, 457.6697
6455.116, 456.6510
6457.045, 462.9651
6458.973, 460.6751
6460.902, 451.0179
6462.830, 454.3632
6464.759, 453.3193
6466.687, 449.3254
6468.616, 453.2562
6470.544, 455.6428
6472.473, 456.4711
6474.401, 456.6308
6476.330, 432.8962
6478.258, 443.5648
6480.187, 449.5677
6482.115, 440.2693
6484.043, 440.2636
6485.972, 445.5543
6487.900, 441.1484
6489.829, 435.0118
6491.757, 428.0148
6493.686, 430.3643
6495.614, 433.5549
6497.542, 433.4157
6499.471, 430.7173
6501.399, 427.3251
6503.328, 424.6830
6505.256, 425.9219
6507.185, 429.8328
6509.113, 428.8582
6511.042, 428.5055
6512.970, 425.5127
6514.899, 421.8093
6516.827, 425.7720
6518.756, 431.4162
6520.684, 419.6013
6522.613, 410.9364
6524.541, 419.1859
6526.470, 423.0769
6528.398, 416.4056
6530.327, 409.2839
6532.255, 404.6957
6534.184, 413.1080
6536.112, 415.4249
6538.041, 401.9466
6539.969, 404.4439
6541.897, 405.8483
6543.826, 398.8881
6545.754, 407.8084
6547.683, 404.3182
6549.611, 403.5984
6551.540, 400.3207
6553.468, 401.3886
6555.396, 399.6192
6557.325, 399.1728
6559.253, 398.3583
6561.182, 382.3254
6563.110, 394.5788
6565.039, 399.5340
6566.967, 399.5848
6568.896, 392.9936
6570.824, 391.4244
6572.753, 391.4404
6574.681, 384.6602
6576.610, 384.5602
6578.538, 387.8846
6580.467, 388.2995
6582.395, 390.3952
6584.324, 382.2632
6586.252, 380.1122
6588.181, 384.2892
6590.109, 380.2468
6592.038, 377.5385
6593.966, 380.9124
6595.895, 371.8934
6597.823, 378.0891
6599.751, 378.0980
6601.680, 373.5162
6603.608, 372.4199
6605.537, 372.5966
6607.465, 369.9739
6609.394, 370.8403
6611.322, 374.0854
6613.250, 373.5206
6615.179, 363.3514
6617.107, 365.5594
6619.036, 373.9977
6620.964, 372.4674
6622.893, 371.6491
6624.821, 370.7675
6626.750, 366.4600
##END=



