##NAMES=Goldichite
##RRUFFID=R120120
##IDEAL CHEMISTRY=KFe^3+^(SO_4_)_2_·4H_2_O
##LOCALITY=Dexter #7 mine, San Rafael Swell, Emery County, Utah, USA
##OWNER=RRUFF
##SOURCE=Marcus Origlieri
##DESCRIPTION=Aggregates of pale yellowish green bladed crystals on pink coquimbite
##STATUS=The identification of this mineral has been confirmed by single-crystal X-ray diffraction
##URL=https://www.rruff.net/odr/rruff_sample/R120120
##DIFFRACTION SAMPLE DESCRIPTION=Single crystal, powder profile is calculated
##CELL PARAMETERS=a: 10.415 b: 10.499 c: 9.104 alpha: 90 beta: 101.6 gamma: 90 volume: 975.2 crystal system: monoclinic
##FILETYPE=Raman RAW
##RAMAN WAVELENGTH=780

7.826855e+001, 2.436045e+002
8.019702e+001, 2.103932e+002
8.212549e+001, 1.979480e+002
8.405396e+001, 2.122348e+002
8.598242e+001, 2.433361e+002
8.791089e+001, 2.787850e+002
8.983936e+001, 3.181969e+002
9.176782e+001, 3.576434e+002
9.369629e+001, 3.802811e+002
9.562476e+001, 3.801383e+002
9.755322e+001, 3.853368e+002
9.948169e+001, 3.900412e+002
1.014102e+002, 3.868711e+002
1.033386e+002, 3.773034e+002
1.052671e+002, 3.652800e+002
1.071956e+002, 3.462200e+002
1.091240e+002, 3.301801e+002
1.110525e+002, 3.183172e+002
1.129810e+002, 3.106025e+002
1.149094e+002, 3.068964e+002
1.168379e+002, 3.067636e+002
1.187664e+002, 3.095274e+002
1.206948e+002, 3.151613e+002
1.226233e+002, 3.233212e+002
1.245518e+002, 3.351116e+002
1.264802e+002, 3.486930e+002
1.284087e+002, 3.627793e+002
1.303372e+002, 3.773552e+002
1.322656e+002, 3.883061e+002
1.341941e+002, 3.925286e+002
1.361226e+002, 3.964559e+002
1.380510e+002, 3.996397e+002
1.399795e+002, 4.044838e+002
1.419080e+002, 4.136951e+002
1.438364e+002, 4.270720e+002
1.457649e+002, 4.401007e+002
1.476934e+002, 4.579818e+002
1.496218e+002, 4.678129e+002
1.515503e+002, 4.664457e+002
1.534788e+002, 4.567148e+002
1.554072e+002, 4.392704e+002
1.573357e+002, 4.151196e+002
1.592642e+002, 3.926923e+002
1.611926e+002, 3.708788e+002
1.631211e+002, 3.528885e+002
1.650496e+002, 3.396788e+002
1.669780e+002, 3.298602e+002
1.689065e+002, 3.226591e+002
1.708350e+002, 3.179332e+002
1.727634e+002, 3.155322e+002
1.746919e+002, 3.159092e+002
1.766204e+002, 3.181580e+002
1.785488e+002, 3.227021e+002
1.804773e+002, 3.286110e+002
1.824058e+002, 3.352983e+002
1.843342e+002, 3.430350e+002
1.862627e+002, 3.528706e+002
1.881912e+002, 3.660299e+002
1.901196e+002, 3.767938e+002
1.920481e+002, 3.858513e+002
1.939766e+002, 3.915227e+002
1.959050e+002, 3.926942e+002
1.978335e+002, 3.902239e+002
1.997620e+002, 3.837064e+002
2.016904e+002, 3.730150e+002
2.036189e+002, 3.631504e+002
2.055474e+002, 3.541876e+002
2.074758e+002, 3.457552e+002
2.094043e+002, 3.379481e+002
2.113328e+002, 3.304694e+002
2.132612e+002, 3.231660e+002
2.151897e+002, 3.160265e+002
2.171182e+002, 3.089091e+002
2.190466e+002, 3.016620e+002
2.209751e+002, 2.950930e+002
2.229036e+002, 2.886778e+002
2.248320e+002, 2.841393e+002
2.267605e+002, 2.826015e+002
2.286890e+002, 2.828466e+002
2.306174e+002, 2.831808e+002
2.325459e+002, 2.836638e+002
2.344744e+002, 2.856983e+002
2.364028e+002, 2.900607e+002
2.383313e+002, 2.937383e+002
2.402598e+002, 2.955205e+002
2.421882e+002, 2.965276e+002
2.441167e+002, 2.966366e+002
2.460452e+002, 2.965515e+002
2.479736e+002, 2.982962e+002
2.499021e+002, 3.017555e+002
2.518306e+002, 3.073031e+002
2.537590e+002, 3.161764e+002
2.556875e+002, 3.253589e+002
2.576160e+002, 3.347223e+002
2.595444e+002, 3.431604e+002
2.614729e+002, 3.490373e+002
2.634014e+002, 3.527212e+002
2.653298e+002, 3.554984e+002
2.672583e+002, 3.565121e+002
2.691868e+002, 3.602530e+002
2.711152e+002, 3.668886e+002
2.730437e+002, 3.774435e+002
2.749722e+002, 3.923672e+002
2.769006e+002, 4.117833e+002
2.788291e+002, 4.361044e+002
2.807576e+002, 4.650114e+002
2.826860e+002, 4.966612e+002
2.846145e+002, 5.354544e+002
2.865430e+002, 5.679359e+002
2.884714e+002, 5.952238e+002
2.903999e+002, 6.119792e+002
2.923284e+002, 6.114612e+002
2.942568e+002, 5.981461e+002
2.961853e+002, 5.794232e+002
2.981138e+002, 5.546106e+002
3.000422e+002, 5.335517e+002
3.019707e+002, 5.171024e+002
3.038992e+002, 5.052336e+002
3.058276e+002, 4.993412e+002
3.077561e+002, 4.968963e+002
3.096846e+002, 4.990204e+002
3.116130e+002, 5.023428e+002
3.135415e+002, 4.993631e+002
3.154700e+002, 4.897501e+002
3.173984e+002, 4.736464e+002
3.193269e+002, 4.477956e+002
3.212554e+002, 4.207086e+002
3.231838e+002, 3.924070e+002
3.251123e+002, 3.657541e+002
3.270408e+002, 3.427732e+002
3.289692e+002, 3.232072e+002
3.308977e+002, 3.065909e+002
3.328262e+002, 2.931727e+002
3.347546e+002, 2.823302e+002
3.366831e+002, 2.747730e+002
3.386116e+002, 2.685097e+002
3.405400e+002, 2.632757e+002
3.424685e+002, 2.589437e+002
3.443970e+002, 2.554888e+002
3.463254e+002, 2.527644e+002
3.482539e+002, 2.503100e+002
3.501824e+002, 2.481200e+002
3.521108e+002, 2.462505e+002
3.540393e+002, 2.447655e+002
3.559678e+002, 2.434349e+002
3.578962e+002, 2.421826e+002
3.598247e+002, 2.410654e+002
3.617532e+002, 2.401260e+002
3.636816e+002, 2.393360e+002
3.656101e+002, 2.386435e+002
3.675386e+002, 2.380716e+002
3.694670e+002, 2.375058e+002
3.713955e+002, 2.368486e+002
3.733240e+002, 2.364915e+002
3.752524e+002, 2.365935e+002
3.771809e+002, 2.369835e+002
3.791094e+002, 2.376241e+002
3.810378e+002, 2.384180e+002
3.829663e+002, 2.391079e+002
3.848948e+002, 2.396986e+002
3.868232e+002, 2.409517e+002
3.887517e+002, 2.429866e+002
3.906802e+002, 2.449789e+002
3.926086e+002, 2.465258e+002
3.945371e+002, 2.484172e+002
3.964656e+002, 2.512457e+002
3.983940e+002, 2.543469e+002
4.003225e+002, 2.568264e+002
4.022510e+002, 2.589863e+002
4.041794e+002, 2.621830e+002
4.061079e+002, 2.663949e+002
4.080364e+002, 2.710504e+002
4.099648e+002, 2.760948e+002
4.118933e+002, 2.815437e+002
4.138218e+002, 2.883612e+002
4.157502e+002, 2.944962e+002
4.176787e+002, 2.993441e+002
4.196072e+002, 3.024539e+002
4.215356e+002, 3.026903e+002
4.234641e+002, 3.003351e+002
4.253926e+002, 2.967819e+002
4.273210e+002, 2.919496e+002
4.292495e+002, 2.867695e+002
4.311780e+002, 2.802169e+002
4.331064e+002, 2.752098e+002
4.350349e+002, 2.725899e+002
4.369634e+002, 2.718931e+002
4.388918e+002, 2.729406e+002
4.408203e+002, 2.756320e+002
4.427488e+002, 2.796789e+002
4.446772e+002, 2.850306e+002
4.466057e+002, 2.910318e+002
4.485342e+002, 2.972083e+002
4.504626e+002, 3.052282e+002
4.523911e+002, 3.155146e+002
4.543196e+002, 3.273410e+002
4.562480e+002, 3.405535e+002
4.581765e+002, 3.550934e+002
4.601050e+002, 3.709760e+002
4.620334e+002, 3.882107e+002
4.639619e+002, 4.085864e+002
4.658904e+002, 4.323336e+002
4.678188e+002, 4.484016e+002
4.697473e+002, 4.579279e+002
4.716758e+002, 4.544917e+002
4.736042e+002, 4.317407e+002
4.755327e+002, 4.038094e+002
4.774612e+002, 3.716476e+002
4.793896e+002, 3.410786e+002
4.813181e+002, 3.176064e+002
4.832466e+002, 2.996794e+002
4.851750e+002, 2.849984e+002
4.871035e+002, 2.737076e+002
4.890320e+002, 2.634478e+002
4.909604e+002, 2.542412e+002
4.928889e+002, 2.460127e+002
4.948174e+002, 2.385862e+002
4.967458e+002, 2.323813e+002
4.986743e+002, 2.280536e+002
5.006028e+002, 2.245205e+002
5.025313e+002, 2.208196e+002
5.044597e+002, 2.174158e+002
5.063882e+002, 2.154089e+002
5.083167e+002, 2.147953e+002
5.102451e+002, 2.134530e+002
5.121736e+002, 2.108555e+002
5.141021e+002, 2.088337e+002
5.160305e+002, 2.075803e+002
5.179590e+002, 2.065311e+002
5.198875e+002, 2.055955e+002
5.218159e+002, 2.047094e+002
5.237444e+002, 2.036198e+002
5.256729e+002, 2.027327e+002
5.276013e+002, 2.027583e+002
5.295298e+002, 2.033909e+002
5.314583e+002, 2.033288e+002
5.333867e+002, 2.024492e+002
5.353152e+002, 2.018656e+002
5.372437e+002, 2.016905e+002
5.391721e+002, 2.013634e+002
5.411006e+002, 2.006969e+002
5.430291e+002, 2.000090e+002
5.449575e+002, 1.991663e+002
5.468860e+002, 1.986393e+002
5.488145e+002, 1.989281e+002
5.507429e+002, 1.995792e+002
5.526714e+002, 1.999633e+002
5.545999e+002, 2.001096e+002
5.565283e+002, 2.001528e+002
5.584568e+002, 2.000966e+002
5.603853e+002, 2.000683e+002
5.623137e+002, 2.000093e+002
5.642422e+002, 2.003109e+002
5.661707e+002, 2.010837e+002
5.680991e+002, 2.022293e+002
5.700276e+002, 2.035971e+002
5.719561e+002, 2.054143e+002
5.738845e+002, 2.078366e+002
5.758130e+002, 2.107968e+002
5.777415e+002, 2.143462e+002
5.796699e+002, 2.183614e+002
5.815984e+002, 2.226641e+002
5.835269e+002, 2.271568e+002
5.854553e+002, 2.302275e+002
5.873838e+002, 2.315369e+002
5.893123e+002, 2.322935e+002
5.912407e+002, 2.312207e+002
5.931692e+002, 2.323371e+002
5.950977e+002, 2.366362e+002
5.970261e+002, 2.433118e+002
5.989546e+002, 2.541628e+002
6.008831e+002, 2.652566e+002
6.028115e+002, 2.746393e+002
6.047400e+002, 2.800039e+002
6.066685e+002, 2.759217e+002
6.085969e+002, 2.640084e+002
6.105254e+002, 2.519625e+002
6.124539e+002, 2.399562e+002
6.143823e+002, 2.301977e+002
6.163108e+002, 2.226922e+002
6.182393e+002, 2.180802e+002
6.201677e+002, 2.164428e+002
6.220962e+002, 2.175249e+002
6.240247e+002, 2.214426e+002
6.259531e+002, 2.278520e+002
6.278816e+002, 2.370882e+002
6.298101e+002, 2.482825e+002
6.317385e+002, 2.637336e+002
6.336670e+002, 2.789688e+002
6.355955e+002, 2.852134e+002
6.375239e+002, 2.824943e+002
6.394524e+002, 2.718798e+002
6.413809e+002, 2.503330e+002
6.433093e+002, 2.322342e+002
6.452378e+002, 2.180738e+002
6.471663e+002, 2.070441e+002
6.490947e+002, 1.999084e+002
6.510232e+002, 1.946505e+002
6.529517e+002, 1.912452e+002
6.548801e+002, 1.888405e+002
6.568086e+002, 1.872102e+002
6.587371e+002, 1.861175e+002
6.606655e+002, 1.853401e+002
6.625940e+002, 1.849416e+002
6.645225e+002, 1.852132e+002
6.664509e+002, 1.859963e+002
6.683794e+002, 1.864322e+002
6.703079e+002, 1.865084e+002
6.722363e+002, 1.864441e+002
6.741648e+002, 1.863042e+002
6.760933e+002, 1.857891e+002
6.780217e+002, 1.847786e+002
6.799502e+002, 1.836754e+002
6.818787e+002, 1.824699e+002
6.838071e+002, 1.813862e+002
6.857356e+002, 1.805437e+002
6.876641e+002, 1.798089e+002
6.895925e+002, 1.790654e+002
6.915210e+002, 1.784286e+002
6.934495e+002, 1.780620e+002
6.953779e+002, 1.778404e+002
6.973064e+002, 1.775994e+002
6.992349e+002, 1.773196e+002
7.011633e+002, 1.768427e+002
7.030918e+002, 1.761870e+002
7.050203e+002, 1.759048e+002
7.069487e+002, 1.760282e+002
7.088772e+002, 1.759727e+002
7.108057e+002, 1.756387e+002
7.127341e+002, 1.753555e+002
7.146626e+002, 1.751001e+002
7.165911e+002, 1.751507e+002
7.185195e+002, 1.760242e+002
7.204480e+002, 1.765822e+002
7.223765e+002, 1.760323e+002
7.243049e+002, 1.754769e+002
7.262334e+002, 1.757475e+002
7.281619e+002, 1.762403e+002
7.300903e+002, 1.763986e+002
7.320188e+002, 1.763037e+002
7.339473e+002, 1.759718e+002
7.358757e+002, 1.755330e+002
7.378042e+002, 1.753625e+002
7.397327e+002, 1.754316e+002
7.416611e+002, 1.756250e+002
7.435896e+002, 1.759335e+002
7.455181e+002, 1.761308e+002
7.474465e+002, 1.762020e+002
7.493750e+002, 1.760958e+002
7.513035e+002, 1.757061e+002
7.532319e+002, 1.753444e+002
7.551604e+002, 1.749596e+002
7.570889e+002, 1.747619e+002
7.590173e+002, 1.748797e+002
7.609458e+002, 1.750912e+002
7.628743e+002, 1.754206e+002
7.648027e+002, 1.756686e+002
7.667312e+002, 1.756444e+002
7.686597e+002, 1.755267e+002
7.705881e+002, 1.755897e+002
7.725166e+002, 1.755952e+002
7.744451e+002, 1.750183e+002
7.763735e+002, 1.742303e+002
7.783020e+002, 1.741460e+002
7.802305e+002, 1.746153e+002
7.821589e+002, 1.748056e+002
7.840874e+002, 1.746890e+002
7.860159e+002, 1.746513e+002
7.879443e+002, 1.747219e+002
7.898728e+002, 1.748117e+002
7.918013e+002, 1.750263e+002
7.937297e+002, 1.750777e+002
7.956582e+002, 1.748512e+002
7.975867e+002, 1.747246e+002
7.995151e+002, 1.747593e+002
8.014436e+002, 1.748823e+002
8.033721e+002, 1.752141e+002
8.053005e+002, 1.753452e+002
8.072290e+002, 1.748843e+002
8.091575e+002, 1.744789e+002
8.110859e+002, 1.745687e+002
8.130144e+002, 1.747669e+002
8.149429e+002, 1.749140e+002
8.168713e+002, 1.749272e+002
8.187998e+002, 1.746121e+002
8.207283e+002, 1.742157e+002
8.226567e+002, 1.739997e+002
8.245852e+002, 1.740198e+002
8.265137e+002, 1.746345e+002
8.284421e+002, 1.755654e+002
8.303706e+002, 1.754942e+002
8.322991e+002, 1.745790e+002
8.342275e+002, 1.746702e+002
8.361560e+002, 1.758129e+002
8.380845e+002, 1.759306e+002
8.400129e+002, 1.749453e+002
8.419414e+002, 1.747007e+002
8.438699e+002, 1.754125e+002
8.457983e+002, 1.758625e+002
8.477268e+002, 1.758592e+002
8.496553e+002, 1.757964e+002
8.515837e+002, 1.756843e+002
8.535122e+002, 1.757526e+002
8.554407e+002, 1.762424e+002
8.573691e+002, 1.764261e+002
8.592976e+002, 1.757088e+002
8.612261e+002, 1.752912e+002
8.631545e+002, 1.759244e+002
8.650830e+002, 1.764143e+002
8.670115e+002, 1.761292e+002
8.689399e+002, 1.757519e+002
8.708684e+002, 1.756572e+002
8.727969e+002, 1.756298e+002
8.747253e+002, 1.754389e+002
8.766538e+002, 1.753193e+002
8.785823e+002, 1.755869e+002
8.805107e+002, 1.759700e+002
8.824392e+002, 1.760233e+002
8.843677e+002, 1.760871e+002
8.862961e+002, 1.769065e+002
8.882246e+002, 1.779554e+002
8.901531e+002, 1.779417e+002
8.920815e+002, 1.775479e+002
8.940100e+002, 1.784397e+002
8.959385e+002, 1.801541e+002
8.978669e+002, 1.812200e+002
8.997954e+002, 1.818145e+002
9.017239e+002, 1.828345e+002
9.036523e+002, 1.843057e+002
9.055808e+002, 1.862724e+002
9.075093e+002, 1.887349e+002
9.094377e+002, 1.910888e+002
9.113662e+002, 1.932176e+002
9.132947e+002, 1.961150e+002
9.152231e+002, 1.996194e+002
9.171516e+002, 2.048134e+002
9.190801e+002, 2.118785e+002
9.210085e+002, 2.202204e+002
9.229370e+002, 2.299328e+002
9.248655e+002, 2.407411e+002
9.267939e+002, 2.522202e+002
9.287224e+002, 2.656467e+002
9.306509e+002, 2.813259e+002
9.325793e+002, 2.983911e+002
9.345078e+002, 3.159115e+002
9.364363e+002, 3.365044e+002
9.383647e+002, 3.593203e+002
9.402932e+002, 3.884467e+002
9.422217e+002, 4.260772e+002
9.441501e+002, 4.680911e+002
9.460786e+002, 5.173440e+002
9.480071e+002, 5.620065e+002
9.499355e+002, 6.026454e+002
9.518640e+002, 6.274825e+002
9.537925e+002, 6.332258e+002
9.557209e+002, 6.184006e+002
9.576494e+002, 5.753935e+002
9.595779e+002, 5.235958e+002
9.615063e+002, 4.665953e+002
9.634348e+002, 4.130923e+002
9.653633e+002, 3.660529e+002
9.672917e+002, 3.262202e+002
9.692202e+002, 2.947122e+002
9.711487e+002, 2.693914e+002
9.730771e+002, 2.503398e+002
9.750056e+002, 2.353377e+002
9.769341e+002, 2.232504e+002
9.788625e+002, 2.141876e+002
9.807910e+002, 2.089172e+002
9.827195e+002, 2.059248e+002
9.846479e+002, 2.041650e+002
9.865764e+002, 2.038586e+002
9.885049e+002, 2.052381e+002
9.904333e+002, 2.081353e+002
9.923618e+002, 2.125619e+002
9.942903e+002, 2.182363e+002
9.962188e+002, 2.241870e+002
9.981472e+002, 2.319085e+002
1.000076e+003, 2.428262e+002
1.002004e+003, 2.567027e+002
1.003933e+003, 2.731327e+002
1.005861e+003, 2.924564e+002
1.007790e+003, 3.158884e+002
1.009718e+003, 3.416802e+002
1.011646e+003, 3.707254e+002
1.013575e+003, 3.978680e+002
1.015503e+003, 4.167525e+002
1.017432e+003, 4.293232e+002
1.019360e+003, 4.385898e+002
1.021289e+003, 4.427768e+002
1.023217e+003, 4.454614e+002
1.025146e+003, 4.363119e+002
1.027074e+003, 3.935444e+002
1.029003e+003, 3.372133e+002
1.030931e+003, 2.876561e+002
1.032860e+003, 2.471179e+002
1.034788e+003, 2.201842e+002
1.036717e+003, 2.026082e+002
1.038645e+003, 1.909534e+002
1.040573e+003, 1.833005e+002
1.042502e+003, 1.777436e+002
1.044430e+003, 1.741441e+002
1.046359e+003, 1.728458e+002
1.048287e+003, 1.729100e+002
1.050216e+003, 1.735034e+002
1.052144e+003, 1.744600e+002
1.054073e+003, 1.753984e+002
1.056001e+003, 1.767724e+002
1.057930e+003, 1.786078e+002
1.059858e+003, 1.817160e+002
1.061787e+003, 1.863173e+002
1.063715e+003, 1.934639e+002
1.065644e+003, 2.039296e+002
1.067572e+003, 2.180229e+002
1.069500e+003, 2.395578e+002
1.071429e+003, 2.611216e+002
1.073357e+003, 2.794602e+002
1.075286e+003, 2.889777e+002
1.077214e+003, 2.821679e+002
1.079143e+003, 2.662645e+002
1.081071e+003, 2.427883e+002
1.083000e+003, 2.193503e+002
1.084928e+003, 2.013473e+002
1.086857e+003, 1.876712e+002
1.088785e+003, 1.784989e+002
1.090714e+003, 1.719353e+002
1.092642e+003, 1.671684e+002
1.094571e+003, 1.637161e+002
1.096499e+003, 1.617704e+002
1.098427e+003, 1.603181e+002
1.100356e+003, 1.586772e+002
1.102284e+003, 1.574124e+002
1.104213e+003, 1.568584e+002
1.106141e+003, 1.567406e+002
1.108070e+003, 1.572219e+002
1.109998e+003, 1.576615e+002
1.111927e+003, 1.575680e+002
1.113855e+003, 1.577107e+002
1.115784e+003, 1.586732e+002
1.117712e+003, 1.594503e+002
1.119641e+003, 1.593513e+002
1.121569e+003, 1.596875e+002
1.123498e+003, 1.607444e+002
1.125426e+003, 1.624496e+002
1.127354e+003, 1.649297e+002
1.129283e+003, 1.677599e+002
1.131211e+003, 1.710278e+002
1.133140e+003, 1.741859e+002
1.135068e+003, 1.770277e+002
1.136997e+003, 1.801622e+002
1.138925e+003, 1.842748e+002
1.140854e+003, 1.866566e+002
1.142782e+003, 1.869097e+002
1.144711e+003, 1.856129e+002
1.146639e+003, 1.825985e+002
1.148568e+003, 1.792405e+002
1.150496e+003, 1.755694e+002
1.152425e+003, 1.721699e+002
1.154353e+003, 1.690546e+002
1.156281e+003, 1.667017e+002
1.158210e+003, 1.651241e+002
1.160138e+003, 1.632904e+002
1.162067e+003, 1.612321e+002
1.163995e+003, 1.600521e+002
1.165924e+003, 1.596411e+002
1.167852e+003, 1.590879e+002
1.169781e+003, 1.584768e+002
1.171709e+003, 1.582698e+002
1.173638e+003, 1.583540e+002
1.175566e+003, 1.584004e+002
1.177495e+003, 1.584375e+002
1.179423e+003, 1.584577e+002
1.181352e+003, 1.585574e+002
1.183280e+003, 1.588987e+002
1.185208e+003, 1.593941e+002
1.187137e+003, 1.598544e+002
1.189065e+003, 1.604861e+002
1.190994e+003, 1.616455e+002
1.192922e+003, 1.628462e+002
1.194851e+003, 1.636420e+002
1.196779e+003, 1.645117e+002
1.198708e+003, 1.658721e+002
1.200636e+003, 1.671771e+002
1.202565e+003, 1.681284e+002
1.204493e+003, 1.690611e+002
1.206422e+003, 1.701190e+002
1.208350e+003, 1.711218e+002
1.210279e+003, 1.719536e+002
1.212207e+003, 1.728638e+002
1.214135e+003, 1.739126e+002
1.216064e+003, 1.750437e+002
1.217992e+003, 1.763193e+002
1.219921e+003, 1.771230e+002
1.221849e+003, 1.773704e+002
1.223778e+003, 1.773965e+002
1.225706e+003, 1.772463e+002
1.227635e+003, 1.772654e+002
1.229563e+003, 1.774503e+002
1.231492e+003, 1.771867e+002
1.233420e+003, 1.768457e+002
1.235349e+003, 1.784178e+002
1.237277e+003, 1.816017e+002
1.239206e+003, 1.858678e+002
1.241134e+003, 1.908187e+002
1.243063e+003, 1.955756e+002
1.244991e+003, 2.006317e+002
1.246919e+003, 2.058273e+002
1.248848e+003, 2.127362e+002
1.250776e+003, 2.213234e+002
1.252705e+003, 2.345834e+002
1.254633e+003, 2.544273e+002
1.256562e+003, 2.801959e+002
1.258490e+003, 3.162086e+002
1.260419e+003, 3.501534e+002
1.262347e+003, 3.868914e+002
1.264276e+003, 4.039366e+002
1.266204e+003, 3.923036e+002
1.268133e+003, 3.692137e+002
1.270061e+003, 3.316657e+002
1.271990e+003, 2.979873e+002
1.273918e+003, 2.690537e+002
1.275846e+003, 2.462383e+002
1.277775e+003, 2.295812e+002
1.279703e+003, 2.168739e+002
1.281632e+003, 2.077839e+002
1.283560e+003, 2.010048e+002
1.285489e+003, 1.962383e+002
1.287417e+003, 1.928855e+002
1.289346e+003, 1.907563e+002
1.291274e+003, 1.899138e+002
1.293203e+003, 1.896717e+002
1.295131e+003, 1.896737e+002
1.297060e+003, 1.893714e+002
1.298988e+003, 1.878322e+002
1.300917e+003, 1.867776e+002
1.302845e+003, 1.875264e+002
1.304773e+003, 1.880960e+002
1.306702e+003, 1.877938e+002
1.308630e+003, 1.871337e+002
1.310559e+003, 1.861516e+002
1.312487e+003, 1.851542e+002
1.314416e+003, 1.841321e+002
1.316344e+003, 1.834876e+002
1.318273e+003, 1.832819e+002
1.320201e+003, 1.825423e+002
1.322130e+003, 1.813506e+002
1.324058e+003, 1.803627e+002
1.325987e+003, 1.795331e+002
1.327915e+003, 1.787685e+002
1.329844e+003, 1.780643e+002
1.331772e+003, 1.775812e+002
1.333700e+003, 1.769586e+002
1.335629e+003, 1.755436e+002
1.337557e+003, 1.742778e+002
1.339486e+003, 1.736788e+002
1.341414e+003, 1.735224e+002
1.343343e+003, 1.739710e+002
1.345271e+003, 1.742031e+002
1.347200e+003, 1.740205e+002
1.349128e+003, 1.736485e+002
1.351057e+003, 1.731040e+002
1.352985e+003, 1.728231e+002
1.354914e+003, 1.728522e+002
1.356842e+003, 1.733822e+002
1.358771e+003, 1.742530e+002
1.360699e+003, 1.747628e+002
1.362627e+003, 1.751825e+002
1.364556e+003, 1.761386e+002
1.366484e+003, 1.772090e+002
1.368413e+003, 1.779203e+002
1.370341e+003, 1.784997e+002
1.372270e+003, 1.790352e+002
1.374198e+003, 1.796158e+002
1.376127e+003, 1.802914e+002
1.378055e+003, 1.809919e+002
1.379984e+003, 1.817071e+002
1.381912e+003, 1.824703e+002
1.383841e+003, 1.833404e+002
1.385769e+003, 1.837232e+002
1.387698e+003, 1.836284e+002
1.389626e+003, 1.835065e+002
1.391554e+003, 1.832646e+002
1.393483e+003, 1.826014e+002
1.395411e+003, 1.815687e+002
1.397340e+003, 1.801302e+002
1.399268e+003, 1.785418e+002
1.401197e+003, 1.766567e+002
1.403125e+003, 1.753145e+002
1.405054e+003, 1.754765e+002
1.406982e+003, 1.751527e+002
1.408911e+003, 1.735371e+002
1.410839e+003, 1.720299e+002
1.412768e+003, 1.707687e+002
1.414696e+003, 1.697781e+002
1.416625e+003, 1.690491e+002
1.418553e+003, 1.683757e+002
1.420481e+003, 1.677161e+002
1.422410e+003, 1.668675e+002
1.424338e+003, 1.660170e+002
1.426267e+003, 1.653655e+002
1.428195e+003, 1.649839e+002
1.430124e+003, 1.649761e+002
1.432052e+003, 1.651620e+002
1.433981e+003, 1.655286e+002
1.435909e+003, 1.659231e+002
1.437838e+003, 1.663335e+002
1.439766e+003, 1.666271e+002
1.441695e+003, 1.667869e+002
1.443623e+003, 1.666536e+002
1.445552e+003, 1.663153e+002
1.447480e+003, 1.662262e+002
1.449408e+003, 1.662833e+002
1.451337e+003, 1.662019e+002
1.453265e+003, 1.662598e+002
1.455194e+003, 1.670345e+002
1.457122e+003, 1.675420e+002
1.459051e+003, 1.670200e+002
1.460979e+003, 1.668088e+002
1.462908e+003, 1.672368e+002
1.464836e+003, 1.678284e+002
1.466765e+003, 1.685153e+002
1.468693e+003, 1.684111e+002
1.470622e+003, 1.677675e+002
1.472550e+003, 1.678552e+002
1.474479e+003, 1.683031e+002
1.476407e+003, 1.684771e+002
1.478335e+003, 1.686191e+002
1.480264e+003, 1.692599e+002
1.482192e+003, 1.694086e+002
1.484121e+003, 1.679488e+002
1.486049e+003, 1.672458e+002
1.487978e+003, 1.678174e+002
1.489906e+003, 1.685098e+002
1.491835e+003, 1.692321e+002
1.493763e+003, 1.692293e+002
1.495692e+003, 1.686751e+002
1.497620e+003, 1.677548e+002
1.499549e+003, 1.671336e+002
1.501477e+003, 1.680745e+002
1.503406e+003, 1.688929e+002
1.505334e+003, 1.684686e+002
1.507262e+003, 1.677020e+002
1.509191e+003, 1.663886e+002
1.511119e+003, 1.660908e+002
1.513048e+003, 1.671638e+002
1.514976e+003, 1.672790e+002
1.516905e+003, 1.666420e+002
1.518833e+003, 1.662503e+002
1.520762e+003, 1.660784e+002
1.522690e+003, 1.662081e+002
1.524619e+003, 1.663385e+002
1.526547e+003, 1.662873e+002
1.528476e+003, 1.661072e+002
1.530404e+003, 1.657610e+002
1.532333e+003, 1.655475e+002
1.534261e+003, 1.655503e+002
1.536189e+003, 1.652803e+002
1.538118e+003, 1.648323e+002
1.540046e+003, 1.647555e+002
1.541975e+003, 1.648362e+002
1.543903e+003, 1.646597e+002
1.545832e+003, 1.645624e+002
1.547760e+003, 1.650376e+002
1.549689e+003, 1.649332e+002
1.551617e+003, 1.637079e+002
1.553546e+003, 1.632947e+002
1.555474e+003, 1.639150e+002
1.557403e+003, 1.638989e+002
1.559331e+003, 1.634488e+002
1.561260e+003, 1.635453e+002
1.563188e+003, 1.637899e+002
1.565116e+003, 1.637219e+002
1.567045e+003, 1.634703e+002
1.568973e+003, 1.627872e+002
1.570902e+003, 1.626978e+002
1.572830e+003, 1.635037e+002
1.574759e+003, 1.636535e+002
1.576687e+003, 1.631544e+002
1.578616e+003, 1.631408e+002
1.580544e+003, 1.633470e+002
1.582473e+003, 1.632735e+002
1.584401e+003, 1.629631e+002
1.586330e+003, 1.620977e+002
1.588258e+003, 1.616844e+002
1.590187e+003, 1.626213e+002
1.592115e+003, 1.627617e+002
1.594043e+003, 1.619156e+002
1.595972e+003, 1.616941e+002
1.597900e+003, 1.619328e+002
1.599829e+003, 1.620154e+002
1.601757e+003, 1.620071e+002
1.603686e+003, 1.619366e+002
1.605614e+003, 1.618925e+002
1.607543e+003, 1.619938e+002
1.609471e+003, 1.619423e+002
1.611400e+003, 1.614546e+002
1.613328e+003, 1.624517e+002
1.615257e+003, 1.643183e+002
1.617185e+003, 1.625576e+002
1.619114e+003, 1.597888e+002
1.621042e+003, 1.596956e+002
1.622970e+003, 1.599083e+002
1.624899e+003, 1.592506e+002
1.626827e+003, 1.584008e+002
1.628756e+003, 1.573647e+002
1.630684e+003, 1.572471e+002
1.632613e+003, 1.578405e+002
1.634541e+003, 1.576741e+002
1.636470e+003, 1.571692e+002
1.638398e+003, 1.570530e+002
1.640327e+003, 1.566865e+002
1.642255e+003, 1.555886e+002
1.644184e+003, 1.548522e+002
1.646112e+003, 1.547376e+002
1.648041e+003, 1.544251e+002
1.649969e+003, 1.539799e+002
1.651897e+003, 1.541759e+002
1.653826e+003, 1.543815e+002
1.655754e+003, 1.534869e+002
1.657683e+003, 1.526750e+002
1.659611e+003, 1.524196e+002
1.661540e+003, 1.526193e+002
1.663468e+003, 1.532496e+002
1.665397e+003, 1.528770e+002
1.667325e+003, 1.518979e+002
1.669254e+003, 1.517846e+002
1.671182e+003, 1.520037e+002
1.673111e+003, 1.521278e+002
1.675039e+003, 1.520779e+002
1.676968e+003, 1.517936e+002
1.678896e+003, 1.513610e+002
1.680824e+003, 1.508057e+002
1.682753e+003, 1.505758e+002
1.684681e+003, 1.504461e+002
1.686610e+003, 1.500024e+002
1.688538e+003, 1.493669e+002
1.690467e+003, 1.486211e+002
1.692395e+003, 1.477246e+002
1.694324e+003, 1.465219e+002
1.696252e+003, 1.460437e+002
1.698181e+003, 1.461698e+002
1.700109e+003, 1.463163e+002
1.702038e+003, 1.461624e+002
1.703966e+003, 1.450147e+002
1.705895e+003, 1.440560e+002
1.707823e+003, 1.440199e+002
1.709751e+003, 1.438593e+002
1.711680e+003, 1.435059e+002
1.713608e+003, 1.427644e+002
1.715537e+003, 1.419038e+002
1.717465e+003, 1.416174e+002
1.719394e+003, 1.413838e+002
1.721322e+003, 1.407221e+002
1.723251e+003, 1.405148e+002
1.725179e+003, 1.411021e+002
1.727108e+003, 1.413045e+002
1.729036e+003, 1.411805e+002
1.730965e+003, 1.412043e+002
1.732893e+003, 1.410101e+002
1.734822e+003, 1.399997e+002
1.736750e+003, 1.392680e+002
1.738678e+003, 1.391916e+002
1.740607e+003, 1.391479e+002
1.742535e+003, 1.390982e+002
1.744464e+003, 1.391448e+002
1.746392e+003, 1.393564e+002
1.748321e+003, 1.401115e+002
1.750249e+003, 1.404911e+002
1.752178e+003, 1.400368e+002
1.754106e+003, 1.398030e+002
1.756035e+003, 1.398991e+002
1.757963e+003, 1.400034e+002
1.759892e+003, 1.401589e+002
1.761820e+003, 1.407093e+002
1.763749e+003, 1.409084e+002
1.765677e+003, 1.401932e+002
1.767605e+003, 1.395972e+002
1.769534e+003, 1.392377e+002
1.771462e+003, 1.391565e+002
1.773391e+003, 1.391045e+002
1.775319e+003, 1.386707e+002
1.777248e+003, 1.379970e+002
1.779176e+003, 1.370612e+002
1.781105e+003, 1.361946e+002
1.783033e+003, 1.354315e+002
1.784962e+003, 1.344199e+002
1.786890e+003, 1.333851e+002
1.788819e+003, 1.327478e+002
1.790747e+003, 1.323203e+002
1.792676e+003, 1.320803e+002
1.794604e+003, 1.318176e+002
1.796532e+003, 1.315225e+002
1.798461e+003, 1.306202e+002
1.800389e+003, 1.295627e+002
1.802318e+003, 1.293594e+002
1.804246e+003, 1.292454e+002
1.806175e+003, 1.287340e+002
1.808103e+003, 1.284858e+002
1.810032e+003, 1.286037e+002
1.811960e+003, 1.277557e+002
1.813889e+003, 1.265783e+002
1.815817e+003, 1.261395e+002
1.817746e+003, 1.260503e+002
1.819674e+003, 1.262765e+002
1.821603e+003, 1.261592e+002
1.823531e+003, 1.256466e+002
1.825459e+003, 1.254300e+002
1.827388e+003, 1.251055e+002
1.829316e+003, 1.235872e+002
1.831245e+003, 1.228266e+002
1.833173e+003, 1.236537e+002
1.835102e+003, 1.237471e+002
1.837030e+003, 1.231387e+002
1.838959e+003, 1.234479e+002
1.840887e+003, 1.237748e+002
1.842816e+003, 1.229743e+002
1.844744e+003, 1.220924e+002
1.846673e+003, 1.213221e+002
1.848601e+003, 1.208769e+002
1.850530e+003, 1.207146e+002
1.852458e+003, 1.207799e+002
1.854386e+003, 1.208876e+002
1.856315e+003, 1.209298e+002
1.858243e+003, 1.209658e+002
1.860172e+003, 1.209829e+002
1.862100e+003, 1.203089e+002
1.864029e+003, 1.195413e+002
1.865957e+003, 1.198278e+002
1.867886e+003, 1.202124e+002
1.869814e+003, 1.203553e+002
1.871743e+003, 1.199373e+002
1.873671e+003, 1.191558e+002
1.875600e+003, 1.193855e+002
1.877528e+003, 1.196979e+002
1.879457e+003, 1.189467e+002
1.881385e+003, 1.185018e+002
1.883313e+003, 1.187594e+002
1.885242e+003, 1.186976e+002
1.887170e+003, 1.184373e+002
1.889099e+003, 1.183047e+002
1.891027e+003, 1.181530e+002
1.892956e+003, 1.178993e+002
1.894884e+003, 1.175430e+002
1.896813e+003, 1.171056e+002
1.898741e+003, 1.169984e+002
1.900670e+003, 1.169594e+002
1.902598e+003, 1.168079e+002
1.904527e+003, 1.163258e+002
1.906455e+003, 1.152445e+002
1.908384e+003, 1.156120e+002
1.910312e+003, 1.166629e+002
1.912240e+003, 1.162106e+002
1.914169e+003, 1.157570e+002
1.916097e+003, 1.161366e+002
1.918026e+003, 1.158809e+002
1.919954e+003, 1.150072e+002
1.921883e+003, 1.149596e+002
1.923811e+003, 1.151831e+002
1.925740e+003, 1.151991e+002
1.927668e+003, 1.150995e+002
1.929597e+003, 1.149015e+002
1.931525e+003, 1.147837e+002
1.933454e+003, 1.145689e+002
1.935382e+003, 1.136213e+002
1.937311e+003, 1.131095e+002
1.939239e+003, 1.134820e+002
1.941167e+003, 1.138391e+002
1.943096e+003, 1.139587e+002
1.945024e+003, 1.132792e+002
1.946953e+003, 1.125247e+002
1.948881e+003, 1.121506e+002
1.950810e+003, 1.119557e+002
1.952738e+003, 1.119743e+002
1.954667e+003, 1.126725e+002
1.956595e+003, 1.136020e+002
1.958524e+003, 1.150300e+002
1.960452e+003, 1.144787e+002
1.962381e+003, 1.115699e+002
1.964309e+003, 1.110567e+002
1.966238e+003, 1.116078e+002
1.968166e+003, 1.110866e+002
1.970094e+003, 1.103178e+002
1.972023e+003, 1.094701e+002
1.973951e+003, 1.092567e+002
1.975880e+003, 1.093314e+002
1.977808e+003, 1.086964e+002
1.979737e+003, 1.081034e+002
1.981665e+003, 1.079083e+002
1.983594e+003, 1.081254e+002
1.985522e+003, 1.085498e+002
1.987451e+003, 1.081168e+002
1.989379e+003, 1.076720e+002
1.991308e+003, 1.077822e+002
1.993236e+003, 1.078775e+002
1.995165e+003, 1.078572e+002
1.997093e+003, 1.073656e+002
1.999021e+003, 1.068828e+002
2.000950e+003, 1.068359e+002
2.002878e+003, 1.066391e+002
2.004807e+003, 1.062151e+002
2.006735e+003, 1.061369e+002
2.008664e+003, 1.062277e+002
2.010592e+003, 1.064869e+002
2.012521e+003, 1.060732e+002
2.014449e+003, 1.048870e+002
2.016378e+003, 1.047570e+002
2.018306e+003, 1.051737e+002
2.020235e+003, 1.056489e+002
2.022163e+003, 1.058523e+002
2.024092e+003, 1.057156e+002
2.026020e+003, 1.051775e+002
2.027948e+003, 1.045127e+002
2.029877e+003, 1.039894e+002
2.031805e+003, 1.038197e+002
2.033734e+003, 1.040350e+002
2.035662e+003, 1.038351e+002
2.037591e+003, 1.033325e+002
2.039519e+003, 1.023362e+002
2.041448e+003, 1.022610e+002
2.043376e+003, 1.034938e+002
2.045305e+003, 1.032510e+002
2.047233e+003, 1.023163e+002
2.049162e+003, 1.020411e+002
2.051090e+003, 1.019133e+002
2.053019e+003, 1.018057e+002
2.054947e+003, 1.013778e+002
2.056875e+003, 1.008481e+002
2.058804e+003, 1.004929e+002
2.060732e+003, 1.003517e+002
2.062661e+003, 1.004575e+002
2.064589e+003, 1.007348e+002
2.066518e+003, 1.008812e+002
2.068446e+003, 1.003423e+002
2.070375e+003, 9.984545e+001
2.072303e+003, 9.959108e+001
2.074232e+003, 9.989403e+001
2.076160e+003, 1.000396e+002
2.078089e+003, 9.875497e+001
2.080017e+003, 9.810345e+001
2.081946e+003, 9.869921e+001
2.083874e+003, 9.851344e+001
2.085802e+003, 9.832661e+001
2.087731e+003, 9.929688e+001
2.089659e+003, 9.963979e+001
2.091588e+003, 9.896240e+001
2.093516e+003, 9.826648e+001
2.095445e+003, 9.759811e+001
2.097373e+003, 9.691886e+001
2.099302e+003, 9.670679e+001
2.101230e+003, 9.696336e+001
2.103159e+003, 9.683317e+001
2.105087e+003, 9.684350e+001
2.107016e+003, 9.760031e+001
2.108944e+003, 9.753874e+001
2.110873e+003, 9.673868e+001
2.112801e+003, 9.651371e+001
2.114729e+003, 9.626724e+001
2.116658e+003, 9.557879e+001
2.118586e+003, 9.528344e+001
2.120515e+003, 9.530238e+001
2.122443e+003, 9.528482e+001
2.124372e+003, 9.514030e+001
2.126300e+003, 9.479473e+001
2.128229e+003, 9.472691e+001
2.130157e+003, 9.476136e+001
2.132086e+003, 9.444204e+001
2.134014e+003, 9.440475e+001
2.135943e+003, 9.484604e+001
2.137871e+003, 9.430766e+001
2.139800e+003, 9.348481e+001
2.141728e+003, 9.320359e+001
2.143656e+003, 9.286031e+001
2.145585e+003, 9.246154e+001
2.147513e+003, 9.503614e+001
2.149442e+003, 9.692097e+001
2.151370e+003, 9.473635e+001
2.153299e+003, 9.331409e+001
2.155227e+003, 9.285982e+001
2.157156e+003, 9.266698e+001
2.159084e+003, 9.238744e+001
2.161013e+003, 9.180964e+001
2.162941e+003, 9.165427e+001
2.164870e+003, 9.177293e+001
2.166798e+003, 9.206344e+001
2.168727e+003, 9.173898e+001
2.170655e+003, 9.057669e+001
2.172583e+003, 8.996325e+001
2.174512e+003, 8.990918e+001
2.176440e+003, 9.060830e+001
2.178369e+003, 9.074096e+001
2.180297e+003, 9.032444e+001
2.182226e+003, 9.085768e+001
2.184154e+003, 9.070046e+001
2.186083e+003, 8.893498e+001
2.188011e+003, 8.848509e+001
2.189940e+003, 8.893670e+001
2.191868e+003, 8.932502e+001
2.193797e+003, 8.915060e+001
2.195725e+003, 8.837912e+001
2.197654e+003, 8.815112e+001
2.199582e+003, 8.820905e+001
2.201510e+003, 8.844046e+001
2.203439e+003, 8.831529e+001
2.205367e+003, 8.788551e+001
2.207296e+003, 8.742766e+001
2.209224e+003, 8.719897e+001
2.211153e+003, 8.741117e+001
2.213081e+003, 8.716531e+001
2.215010e+003, 8.673332e+001
2.216938e+003, 8.651366e+001
2.218867e+003, 8.645442e+001
2.220795e+003, 8.651319e+001
2.222724e+003, 8.649038e+001
2.224652e+003, 8.641574e+001
2.226581e+003, 8.632573e+001
2.228509e+003, 8.611948e+001
2.230438e+003, 8.585769e+001
2.232366e+003, 8.567014e+001
2.234294e+003, 8.553213e+001
2.236223e+003, 8.543733e+001
2.238151e+003, 8.498315e+001
2.240080e+003, 8.463570e+001
2.242008e+003, 8.483272e+001
2.243937e+003, 8.487132e+001
2.245865e+003, 8.465267e+001
2.247794e+003, 8.391106e+001
2.249722e+003, 8.334460e+001
2.251651e+003, 8.318702e+001
2.253579e+003, 8.308379e+001
2.255508e+003, 8.284889e+001
2.257436e+003, 8.214512e+001
2.259365e+003, 8.238314e+001
2.261293e+003, 8.316302e+001
2.263221e+003, 8.221561e+001
2.265150e+003, 8.174827e+001
2.267078e+003, 8.243470e+001
2.269007e+003, 8.188984e+001
2.270935e+003, 8.117837e+001
2.272864e+003, 8.169736e+001
2.274792e+003, 8.205988e+001
2.276721e+003, 8.204001e+001
2.278649e+003, 8.128559e+001
2.280578e+003, 8.073103e+001
2.282506e+003, 8.065627e+001
2.284435e+003, 8.009987e+001
2.286363e+003, 7.962466e+001
2.288292e+003, 7.994408e+001
2.290220e+003, 8.015503e+001
2.292148e+003, 8.022766e+001
2.294077e+003, 8.033018e+001
2.296005e+003, 8.015718e+001
2.297934e+003, 7.963265e+001
2.299862e+003, 7.955321e+001
2.301791e+003, 7.948294e+001
2.303719e+003, 7.903458e+001
2.305648e+003, 7.864402e+001
2.307576e+003, 7.838857e+001
2.309505e+003, 7.829069e+001
2.311433e+003, 7.873955e+001
2.313362e+003, 7.959597e+001
2.315290e+003, 7.853179e+001
2.317219e+003, 7.756707e+001
2.319147e+003, 7.777847e+001
2.321075e+003, 7.771177e+001
2.323004e+003, 7.760478e+001
2.324932e+003, 7.793321e+001
2.326861e+003, 7.769887e+001
2.328789e+003, 7.699105e+001
2.330718e+003, 7.645647e+001
2.332646e+003, 7.622714e+001
2.334575e+003, 7.631762e+001
2.336503e+003, 7.639388e+001
2.338432e+003, 7.627249e+001
2.340360e+003, 7.580789e+001
2.342289e+003, 7.550565e+001
2.344217e+003, 7.534853e+001
2.346146e+003, 7.537357e+001
2.348074e+003, 7.493786e+001
2.350002e+003, 7.424888e+001
2.351931e+003, 7.474612e+001
2.353859e+003, 7.496174e+001
2.355788e+003, 7.440909e+001
2.357716e+003, 7.383656e+001
2.359645e+003, 7.337807e+001
2.361573e+003, 7.306032e+001
2.363502e+003, 7.332859e+001
2.365430e+003, 7.378683e+001
2.367359e+003, 7.387521e+001
2.369287e+003, 7.328533e+001
2.371216e+003, 7.230216e+001
2.373144e+003, 7.241808e+001
2.375073e+003, 7.254807e+001
2.377001e+003, 7.227795e+001
2.378929e+003, 7.239604e+001
2.380858e+003, 7.232151e+001
2.382786e+003, 7.144439e+001
2.384715e+003, 7.139899e+001
2.386643e+003, 7.171066e+001
2.388572e+003, 7.167538e+001
2.390500e+003, 7.154942e+001
2.392429e+003, 7.132285e+001
2.394357e+003, 7.058987e+001
2.396286e+003, 7.027741e+001
2.398214e+003, 7.057034e+001
2.400143e+003, 7.068546e+001
2.402071e+003, 7.062391e+001
2.404000e+003, 7.039706e+001
2.405928e+003, 7.013534e+001
2.407856e+003, 6.985196e+001
2.409785e+003, 6.957232e+001
2.411713e+003, 6.896448e+001
2.413642e+003, 6.838034e+001
2.415570e+003, 6.857006e+001
2.417499e+003, 6.884892e+001
2.419427e+003, 6.898103e+001
2.421356e+003, 6.841924e+001
2.423284e+003, 6.807711e+001
2.425213e+003, 6.809480e+001
2.427141e+003, 6.788021e+001
2.429070e+003, 6.738598e+001
2.430998e+003, 6.659260e+001
2.432927e+003, 6.715600e+001
2.434855e+003, 6.776511e+001
2.436783e+003, 6.717810e+001
2.438712e+003, 6.667563e+001
2.440640e+003, 6.633366e+001
2.442569e+003, 6.626231e+001
2.444497e+003, 6.599609e+001
2.446426e+003, 6.567501e+001
2.448354e+003, 6.574956e+001
2.450283e+003, 6.581577e+001
2.452211e+003, 6.571852e+001
2.454140e+003, 6.489013e+001
2.456068e+003, 6.429464e+001
2.457997e+003, 6.420860e+001
2.459925e+003, 6.442664e+001
2.461854e+003, 6.425156e+001
2.463782e+003, 6.329424e+001
2.465710e+003, 6.355331e+001
2.467639e+003, 6.395503e+001
2.469567e+003, 6.376488e+001
2.471496e+003, 6.370465e+001
2.473424e+003, 6.342836e+001
2.475353e+003, 6.241175e+001
2.477281e+003, 6.259488e+001
2.479210e+003, 6.332457e+001
2.481138e+003, 6.349775e+001
2.483067e+003, 6.312201e+001
2.484995e+003, 6.246629e+001
2.486924e+003, 6.220760e+001
2.488852e+003, 6.161753e+001
2.490781e+003, 6.082930e+001
2.492709e+003, 6.072837e+001
2.494637e+003, 6.079999e+001
2.496566e+003, 6.088064e+001
2.498494e+003, 6.084523e+001
2.500423e+003, 6.097527e+001
2.502351e+003, 6.124266e+001
2.504280e+003, 6.010200e+001
2.506208e+003, 5.943989e+001
2.508137e+003, 6.015443e+001
2.510065e+003, 5.944682e+001
2.511994e+003, 5.879741e+001
2.513922e+003, 5.936278e+001
2.515851e+003, 5.936919e+001
2.517779e+003, 5.911047e+001
2.519708e+003, 5.878480e+001
2.521636e+003, 5.868430e+001
2.523564e+003, 5.863352e+001
2.525493e+003, 5.843006e+001
2.527421e+003, 5.819698e+001
2.529350e+003, 5.814667e+001
2.531278e+003, 5.862072e+001
2.533207e+003, 5.848554e+001
2.535135e+003, 5.803462e+001
2.537064e+003, 5.788607e+001
2.538992e+003, 5.753057e+001
2.540921e+003, 5.707700e+001
2.542849e+003, 5.683593e+001
2.544778e+003, 5.663341e+001
2.546706e+003, 5.647424e+001
2.548635e+003, 5.658364e+001
2.550563e+003, 5.621201e+001
2.552491e+003, 5.561805e+001
2.554420e+003, 5.601789e+001
2.556348e+003, 5.627749e+001
2.558277e+003, 5.620687e+001
2.560205e+003, 5.586837e+001
2.562134e+003, 5.572343e+001
2.564062e+003, 5.570974e+001
2.565991e+003, 5.525011e+001
2.567919e+003, 5.462355e+001
2.569848e+003, 5.412037e+001
2.571776e+003, 5.486664e+001
2.573705e+003, 5.481653e+001
2.575633e+003, 5.377986e+001
2.577562e+003, 5.284408e+001
2.579490e+003, 5.276435e+001
2.581418e+003, 5.344591e+001
2.583347e+003, 5.352042e+001
2.585275e+003, 5.330339e+001
2.587204e+003, 5.295013e+001
2.589132e+003, 5.279805e+001
2.591061e+003, 5.282042e+001
2.592989e+003, 5.292846e+001
2.594918e+003, 5.220494e+001
2.596846e+003, 5.200807e+001
2.598775e+003, 5.252594e+001
2.600703e+003, 5.194350e+001
2.602632e+003, 5.124712e+001
2.604560e+003, 5.079635e+001
2.606489e+003, 5.105328e+001
2.608417e+003, 5.118252e+001
2.610345e+003, 5.098737e+001
2.612274e+003, 5.080305e+001
2.614202e+003, 5.074882e+001
2.616131e+003, 5.075785e+001
2.618059e+003, 5.026326e+001
2.619988e+003, 5.001056e+001
2.621916e+003, 5.001813e+001
2.623845e+003, 4.928227e+001
2.625773e+003, 4.916456e+001
2.627702e+003, 4.960377e+001
2.629630e+003, 4.909145e+001
2.631559e+003, 4.864972e+001
2.633487e+003, 4.842665e+001
2.635416e+003, 4.799859e+001
2.637344e+003, 4.817278e+001
2.639272e+003, 4.864031e+001
2.641201e+003, 4.827616e+001
2.643129e+003, 4.748079e+001
2.645058e+003, 4.673486e+001
2.646986e+003, 4.695696e+001
2.648915e+003, 4.710847e+001
2.650843e+003, 4.715186e+001
2.652772e+003, 4.740826e+001
2.654700e+003, 4.725756e+001
2.656629e+003, 4.691929e+001
2.658557e+003, 4.684179e+001
2.660486e+003, 4.660246e+001
2.662414e+003, 4.635372e+001
2.664343e+003, 4.636444e+001
2.666271e+003, 4.603970e+001
2.668199e+003, 4.565617e+001
2.670128e+003, 4.553693e+001
2.672056e+003, 4.516532e+001
2.673985e+003, 4.482410e+001
2.675913e+003, 4.474216e+001
2.677842e+003, 4.463789e+001
2.679770e+003, 4.439569e+001
2.681699e+003, 4.398524e+001
2.683627e+003, 4.369948e+001
2.685556e+003, 4.364765e+001
2.687484e+003, 4.380733e+001
2.689413e+003, 4.373717e+001
2.691341e+003, 4.359258e+001
2.693270e+003, 4.342234e+001
2.695198e+003, 4.311289e+001
2.697126e+003, 4.280163e+001
2.699055e+003, 4.249300e+001
2.700983e+003, 4.197776e+001
2.702912e+003, 4.171576e+001
2.704840e+003, 4.171859e+001
2.706769e+003, 4.184212e+001
2.708697e+003, 4.192018e+001
2.710626e+003, 4.179036e+001
2.712554e+003, 4.113835e+001
2.714483e+003, 4.067135e+001
2.716411e+003, 4.056192e+001
2.718340e+003, 4.113552e+001
2.720268e+003, 4.089773e+001
2.722197e+003, 4.039054e+001
2.724125e+003, 4.006525e+001
2.726053e+003, 4.013541e+001
2.727982e+003, 3.996407e+001
2.729910e+003, 3.923732e+001
2.731839e+003, 3.944524e+001
2.733767e+003, 3.962287e+001
2.735696e+003, 3.944105e+001
2.737624e+003, 3.885356e+001
2.739553e+003, 3.888424e+001
2.741481e+003, 3.933375e+001
2.743410e+003, 3.894721e+001
2.745338e+003, 3.856959e+001
2.747267e+003, 3.830177e+001
2.749195e+003, 3.810561e+001
2.751124e+003, 3.809214e+001
2.753052e+003, 3.794785e+001
2.754980e+003, 3.736740e+001
2.756909e+003, 3.732743e+001
2.758837e+003, 3.746085e+001
2.760766e+003, 3.752340e+001
2.762694e+003, 3.747852e+001
2.764623e+003, 3.730120e+001
2.766551e+003, 3.699663e+001
2.768480e+003, 3.643052e+001
2.770408e+003, 3.635884e+001
2.772337e+003, 3.661135e+001
2.774265e+003, 3.655675e+001
2.776194e+003, 3.611155e+001
2.778122e+003, 3.562032e+001
2.780051e+003, 3.554030e+001
2.781979e+003, 3.556879e+001
2.783907e+003, 3.537473e+001
2.785836e+003, 3.467041e+001
2.787764e+003, 3.451552e+001
2.789693e+003, 3.434972e+001
2.791621e+003, 3.401062e+001
2.793550e+003, 3.410823e+001
2.795478e+003, 3.385733e+001
2.797407e+003, 3.353471e+001
2.799335e+003, 3.434253e+001
2.801264e+003, 3.409514e+001
2.803192e+003, 3.358097e+001
2.805121e+003, 3.392346e+001
2.807049e+003, 3.334736e+001
2.808978e+003, 3.293645e+001
2.810906e+003, 3.324308e+001
2.812834e+003, 3.307696e+001
2.814763e+003, 3.284590e+001
2.816691e+003, 3.265110e+001
2.818620e+003, 3.221928e+001
2.820548e+003, 3.201996e+001
2.822477e+003, 3.200453e+001
2.824405e+003, 3.205500e+001
2.826334e+003, 3.160031e+001
2.828262e+003, 3.126581e+001
2.830191e+003, 3.153830e+001
2.832119e+003, 3.110643e+001
2.834048e+003, 3.060455e+001
2.835976e+003, 3.030372e+001
2.837905e+003, 3.038258e+001
2.839833e+003, 3.015072e+001
2.841761e+003, 2.988712e+001
2.843690e+003, 3.038082e+001
2.845618e+003, 2.961839e+001
2.847547e+003, 3.012409e+001
2.849475e+003, 3.442923e+001
2.851404e+003, 3.264143e+001
2.853332e+003, 3.021357e+001
2.855261e+003, 2.913363e+001
2.857189e+003, 2.876661e+001
2.859118e+003, 2.858419e+001
2.861046e+003, 2.857503e+001
2.862975e+003, 2.890207e+001
2.864903e+003, 2.850031e+001
2.866832e+003, 2.833535e+001
2.868760e+003, 2.884669e+001
2.870688e+003, 2.832847e+001
2.872617e+003, 2.777698e+001
2.874545e+003, 2.748160e+001
2.876474e+003, 2.732206e+001
2.878402e+003, 2.736428e+001
2.880331e+003, 2.726477e+001
2.882259e+003, 2.665754e+001
2.884188e+003, 2.655919e+001
2.886116e+003, 2.631965e+001
2.888045e+003, 2.586282e+001
2.889973e+003, 2.631590e+001
2.891902e+003, 2.640256e+001
2.893830e+003, 2.613713e+001
2.895759e+003, 2.590572e+001
2.897687e+003, 2.582638e+001
2.899615e+003, 2.583831e+001
2.901544e+003, 2.588629e+001
2.903472e+003, 2.536871e+001
2.905401e+003, 2.518631e+001
2.907329e+003, 2.536858e+001
2.909258e+003, 2.555829e+001
2.911186e+003, 2.534770e+001
2.913115e+003, 2.499302e+001
2.915043e+003, 2.472489e+001
2.916972e+003, 2.412158e+001
2.918900e+003, 2.523481e+001
2.920829e+003, 2.715163e+001
2.922757e+003, 2.533246e+001
2.924686e+003, 2.417473e+001
2.926614e+003, 2.373371e+001
2.928542e+003, 2.354903e+001
2.930471e+003, 2.332599e+001
2.932399e+003, 2.309171e+001
2.934328e+003, 2.291901e+001
2.936256e+003, 2.299109e+001
2.938185e+003, 2.310003e+001
2.940113e+003, 2.316630e+001
2.942042e+003, 2.313271e+001
2.943970e+003, 2.258244e+001
2.945899e+003, 2.220016e+001
2.947827e+003, 2.212403e+001
2.949756e+003, 2.213963e+001
2.951684e+003, 2.208749e+001
2.953613e+003, 2.189638e+001
2.955541e+003, 2.149738e+001
2.957469e+003, 2.155717e+001
2.959398e+003, 2.156926e+001
2.961326e+003, 2.137838e+001
2.963255e+003, 2.091450e+001
2.965183e+003, 2.096009e+001
2.967112e+003, 2.103119e+001
2.969040e+003, 2.070673e+001
2.970969e+003, 2.089731e+001
2.972897e+003, 2.075067e+001
2.974826e+003, 2.038936e+001
2.976754e+003, 2.045864e+001
2.978683e+003, 2.062833e+001
2.980611e+003, 2.059161e+001
2.982540e+003, 2.025634e+001
2.984468e+003, 2.002162e+001
2.986396e+003, 1.999143e+001
2.988325e+003, 1.994526e+001
2.990253e+003, 1.958088e+001
2.992182e+003, 1.952337e+001
2.994110e+003, 1.938688e+001
2.996039e+003, 1.908691e+001
2.997967e+003, 1.888609e+001
2.999896e+003, 1.890313e+001
3.001824e+003, 1.897569e+001
3.003753e+003, 1.894203e+001
3.005681e+003, 1.854879e+001
3.007610e+003, 1.840988e+001
3.009538e+003, 1.851977e+001
3.011467e+003, 1.865274e+001
3.013395e+003, 1.819839e+001
3.015323e+003, 1.775878e+001
3.017252e+003, 1.766406e+001
3.019180e+003, 1.783045e+001
3.021109e+003, 1.778932e+001
3.023037e+003, 1.759601e+001
3.024966e+003, 1.739370e+001
3.026894e+003, 1.695747e+001
3.028823e+003, 1.694591e+001
3.030751e+003, 1.723825e+001
3.032680e+003, 1.717941e+001
3.034608e+003, 1.702718e+001
3.036537e+003, 1.701932e+001
3.038465e+003, 1.716858e+001
3.040394e+003, 1.697164e+001
3.042322e+003, 1.661150e+001
3.044250e+003, 1.635730e+001
3.046179e+003, 1.637355e+001
3.048107e+003, 1.611051e+001
3.050036e+003, 1.600201e+001
3.051964e+003, 1.598353e+001
3.053893e+003, 1.572307e+001
3.055821e+003, 1.548389e+001
3.057750e+003, 1.529178e+001
3.059678e+003, 1.518514e+001
3.061607e+003, 1.531732e+001
3.063535e+003, 1.527667e+001
3.065464e+003, 1.524549e+001
3.067392e+003, 1.532443e+001
3.069321e+003, 1.487117e+001
3.071249e+003, 1.498925e+001
3.073177e+003, 1.527687e+001
3.075106e+003, 1.508600e+001
3.077034e+003, 1.450846e+001
3.078963e+003, 1.436003e+001
3.080891e+003, 1.456191e+001
3.082820e+003, 1.463642e+001
3.084748e+003, 1.448383e+001
3.086677e+003, 1.423762e+001
3.088605e+003, 1.399665e+001
3.090534e+003, 1.382998e+001
3.092462e+003, 1.424206e+001
3.094391e+003, 1.419421e+001
3.096319e+003, 1.345194e+001
3.098248e+003, 1.377812e+001
3.100176e+003, 1.400931e+001
3.102104e+003, 1.395770e+001
3.104033e+003, 1.364755e+001
3.105961e+003, 1.318157e+001
3.107890e+003, 1.323081e+001
3.109818e+003, 1.338799e+001
3.111747e+003, 1.315905e+001
3.113675e+003, 1.320243e+001
3.115604e+003, 1.299352e+001
3.117532e+003, 1.274498e+001
3.119461e+003, 1.296886e+001
3.121389e+003, 1.271589e+001
3.123318e+003, 1.242065e+001
3.125246e+003, 1.233144e+001
3.127175e+003, 1.275182e+001
3.129103e+003, 1.227986e+001
3.131031e+003, 1.208000e+001
3.132960e+003, 1.236033e+001
3.134888e+003, 1.261494e+001
3.136817e+003, 1.232889e+001
3.138745e+003, 1.207556e+001
3.140674e+003, 1.205394e+001
3.142602e+003, 1.206553e+001
3.144531e+003, 1.188622e+001
3.146459e+003, 1.185585e+001
3.148388e+003, 1.198294e+001
3.150316e+003, 1.171009e+001
3.152245e+003, 1.178052e+001
3.154173e+003, 1.156888e+001
3.156102e+003, 1.100865e+001
3.158030e+003, 1.117184e+001
3.159958e+003, 1.106728e+001
3.161887e+003, 1.104455e+001
3.163815e+003, 1.123264e+001
3.165744e+003, 1.120644e+001
3.167672e+003, 1.142141e+001
3.169601e+003, 1.131442e+001
3.171529e+003, 1.075858e+001
3.173458e+003, 1.054162e+001
3.175386e+003, 1.068032e+001
3.177315e+003, 1.078325e+001
3.179243e+003, 1.068538e+001
3.181172e+003, 1.074927e+001
3.183100e+003, 1.032456e+001
3.185029e+003, 1.014148e+001
3.186957e+003, 1.039205e+001
3.188885e+003, 9.968852e+000
3.190814e+003, 9.718325e+000
3.192742e+003, 9.665692e+000
3.194671e+003, 9.804791e+000
3.196599e+003, 1.034776e+001
3.198528e+003, 9.865239e+000
3.200456e+003, 9.691120e+000
3.202385e+003, 1.007734e+001
3.204313e+003, 9.610508e+000
3.206242e+003, 9.464613e+000
3.208170e+003, 9.444429e+000
3.210099e+003, 9.388680e+000
3.212027e+003, 9.251707e+000
3.213956e+003, 9.042171e+000
3.215884e+003, 9.256621e+000
3.217813e+003, 9.570584e+000
3.219741e+003, 8.969028e+000
3.221669e+003, 8.993746e+000
3.223598e+003, 9.004429e+000
3.225526e+003, 8.954010e+000
3.227455e+003, 9.140360e+000
3.229383e+003, 9.125185e+000
3.231312e+003, 8.977499e+000
3.233240e+003, 8.808908e+000
3.235169e+003, 8.719122e+000
3.237097e+003, 8.662012e+000
3.239026e+003, 8.583853e+000
3.240954e+003, 8.525228e+000
3.242883e+003, 8.527302e+000
3.244811e+003, 8.596427e+000
3.246740e+003, 8.425743e+000
3.248668e+003, 8.264508e+000
3.250596e+003, 8.337385e+000
3.252525e+003, 8.871327e+000
3.254453e+003, 8.521266e+000
3.256382e+003, 8.230935e+000
3.258310e+003, 8.358046e+000
3.260239e+003, 8.439443e+000
3.262167e+003, 8.527188e+000
3.264096e+003, 8.400491e+000
3.266024e+003, 8.182742e+000
3.267953e+003, 8.177943e+000
3.269881e+003, 8.070896e+000
3.271810e+003, 8.178202e+000
3.273738e+003, 8.360376e+000
3.275667e+003, 8.390555e+000
3.277595e+003, 8.259395e+000
3.279523e+003, 8.319799e+000
3.281452e+003, 8.440571e+000
3.283380e+003, 8.492507e+000
3.285309e+003, 8.518426e+000
3.287237e+003, 8.487548e+000
3.289166e+003, 8.407597e+000
3.291094e+003, 8.430655e+000
3.293023e+003, 8.834627e+000
3.294951e+003, 8.602874e+000
3.296880e+003, 8.663489e+000
3.298808e+003, 8.830614e+000
3.300737e+003, 8.649069e+000
3.302665e+003, 9.031188e+000
3.304594e+003, 9.059652e+000
3.306522e+003, 9.142147e+000
3.308450e+003, 9.445291e+000
3.310379e+003, 9.090850e+000
3.312307e+003, 9.424054e+000
3.314236e+003, 9.515148e+000
3.316164e+003, 9.309345e+000
3.318093e+003, 9.405181e+000
3.320021e+003, 8.836102e+000
3.321950e+003, 8.858872e+000
3.323878e+003, 9.088804e+000
3.325807e+003, 8.944656e+000
3.327735e+003, 8.795693e+000
3.329664e+003, 8.671373e+000
3.331592e+003, 8.416342e+000
3.333521e+003, 8.076583e+000
3.335449e+003, 7.921301e+000
3.337377e+003, 7.696445e+000
3.339306e+003, 7.785181e+000
3.341234e+003, 7.859565e+000
3.343163e+003, 7.586877e+000
3.345091e+003, 7.799559e+000
3.347020e+003, 7.602491e+000
3.348948e+003, 7.402624e+000
3.350877e+003, 7.361783e+000
3.352805e+003, 7.206285e+000
3.354734e+003, 7.036690e+000
3.356662e+003, 7.138965e+000
3.358591e+003, 7.303291e+000
3.360519e+003, 7.299187e+000
3.362448e+003, 7.363329e+000
3.364376e+003, 7.421559e+000
3.366304e+003, 7.231529e+000
3.368233e+003, 6.935274e+000
3.370161e+003, 6.967756e+000
3.372090e+003, 6.871598e+000
3.374018e+003, 6.692308e+000
3.375947e+003, 6.510993e+000
3.377875e+003, 6.394236e+000
3.379804e+003, 6.455503e+000
3.381732e+003, 6.196286e+000
3.383661e+003, 5.957002e+000
3.385589e+003, 5.919329e+000
3.387518e+003, 6.108245e+000
3.389446e+003, 6.005302e+000
3.391375e+003, 5.904822e+000
3.393303e+003, 5.957100e+000
3.395231e+003, 5.977071e+000
3.397160e+003, 5.474181e+000
3.399088e+003, 5.441634e+000
3.401017e+003, 5.472418e+000
3.402945e+003, 5.605406e+000
3.404874e+003, 5.802505e+000
3.406802e+003, 5.301030e+000
3.408731e+003, 5.378652e+000
3.410659e+003, 5.409352e+000
3.412588e+003, 5.426717e+000
3.414516e+003, 5.694068e+000
3.416445e+003, 5.595609e+000
3.418373e+003, 5.381132e+000
3.420302e+003, 5.219620e+000
3.422230e+003, 5.148513e+000
3.424158e+003, 5.127676e+000
3.426087e+003, 5.106061e+000
3.428015e+003, 5.131655e+000
3.429944e+003, 5.052820e+000
3.431872e+003, 4.925807e+000
3.433801e+003, 5.123900e+000
3.435729e+003, 5.185097e+000
3.437658e+003, 5.112940e+000
3.439586e+003, 4.929149e+000
3.441515e+003, 4.774474e+000
3.443443e+003, 5.032309e+000
3.445372e+003, 4.934906e+000
3.447300e+003, 4.672046e+000
3.449229e+003, 4.492448e+000
3.451157e+003, 4.475204e+000
3.453085e+003, 4.354786e+000
3.455014e+003, 4.473807e+000
3.456942e+003, 4.435330e+000
##END=



