##NAMES=Gorgeyite
##RRUFFID=R060578
##IDEAL CHEMISTRY=K_2_Ca_5_(SO_4_)_6_·H_2_O
##LOCALITY=Inder Lake, West Kazakhstan, Kazakhstan
##OWNER=RRUFF
##SOURCE=Michael Scott
##DESCRIPTION=Colorless to yellow tabular crystals
##STATUS=The identification of this mineral has been confirmed by X-ray diffraction
##URL=https://www.rruff.net/odr/rruff_sample/R060578
##DIFFRACTION SAMPLE DESCRIPTION=Powder
##CELL PARAMETERS=a: 17.5117 b: 6.8352 c: 18.2395 alpha: 90 beta: 113.329 gamma: 90 volume: 2004.73 crystal system: monoclinic
##FILETYPE=Raman RAW
##RAMAN WAVELENGTH=785

191.5962, 13758.26
193.5246, 13877.79
195.4531, 13986.82
197.3816, 14055.00
199.3100, 14074.15
201.2385, 14066.58
203.1670, 14032.62
205.0954, 13987.10
207.0239, 13925.51
208.9524, 13863.54
210.8808, 13802.33
212.8093, 13747.24
214.7378, 13761.92
216.6662, 13861.23
218.5947, 13911.87
220.5232, 13861.94
222.4516, 13808.02
224.3801, 13780.51
226.3086, 13766.26
228.2370, 13753.16
230.1655, 13741.86
232.0940, 13733.63
234.0224, 13727.64
235.9509, 13734.71
237.8794, 13781.49
239.8078, 13815.80
241.7363, 13816.73
243.6648, 13797.02
245.5932, 13755.16
247.5217, 13701.05
249.4502, 13668.87
251.3786, 13669.18
253.3071, 13665.50
255.2356, 13648.68
257.1640, 13620.62
259.0925, 13576.70
261.0210, 13533.11
262.9494, 13495.04
264.8779, 13465.30
266.8064, 13457.35
268.7348, 13476.06
270.6633, 13460.18
272.5918, 13375.08
274.5202, 13330.58
276.4487, 13363.80
278.3772, 13402.45
280.3056, 13405.97
282.2341, 13396.92
284.1626, 13399.96
286.0910, 13408.54
288.0195, 13400.89
289.9480, 13384.66
291.8764, 13354.46
293.8049, 13297.32
295.7334, 13258.12
297.6618, 13264.29
299.5903, 13271.83
301.5188, 13244.29
303.4472, 13205.73
305.3757, 13220.05
307.3042, 13282.68
309.2326, 13286.65
311.1611, 13208.22
313.0896, 13150.21
315.0180, 13154.45
316.9465, 13159.48
318.8750, 13144.98
320.8034, 13125.38
322.7319, 13107.53
324.6604, 13090.56
326.5888, 13082.93
328.5173, 13076.10
330.4458, 13063.28
332.3742, 13064.87
334.3027, 13055.06
336.2312, 12994.68
338.1596, 12933.47
340.0881, 12924.20
342.0166, 12944.16
343.9450, 12934.03
345.8735, 12892.71
347.8020, 12863.94
349.7304, 12859.93
351.6589, 12864.19
353.5874, 12863.99
355.5158, 12855.77
357.4443, 12852.38
359.3728, 12850.47
361.3012, 12833.49
363.2297, 12806.45
365.1582, 12788.47
367.0866, 12782.86
369.0151, 12783.25
370.9436, 12783.96
372.8720, 12770.50
374.8005, 12737.90
376.7290, 12732.59
378.6574, 12786.87
380.5859, 12826.30
382.5144, 12801.08
384.4428, 12759.47
386.3713, 12747.31
388.2998, 12760.41
390.2282, 12770.84
392.1567, 12763.05
394.0851, 12778.37
396.0136, 12834.76
397.9421, 12878.33
399.8705, 12873.26
401.7990, 12879.59
403.7275, 12921.34
405.6559, 12994.83
407.5844, 13089.31
409.5129, 13202.51
411.4413, 13339.70
413.3698, 13501.82
415.2983, 13702.71
417.2267, 13946.26
419.1552, 14245.44
421.0837, 14642.85
423.0121, 15016.86
424.9406, 15329.68
426.8691, 15616.23
428.7975, 15919.80
430.7260, 16200.48
432.6545, 16429.75
434.5829, 16573.02
436.5114, 16577.67
438.4399, 16453.36
440.3683, 16278.13
442.2968, 16050.86
444.2253, 15773.10
446.1537, 15395.18
448.0822, 15051.29
450.0107, 14781.03
451.9391, 14575.96
453.8676, 14429.61
455.7961, 14320.41
457.7245, 14260.28
459.6530, 14238.37
461.5815, 14213.38
463.5099, 14181.79
465.4384, 14226.85
467.3669, 14356.93
469.2953, 14526.39
471.2238, 14741.78
473.1523, 14968.42
475.0807, 15240.57
477.0092, 15453.30
478.9377, 15584.26
480.8661, 15602.56
482.7946, 15466.55
484.7231, 15211.52
486.6516, 14903.63
488.5800, 14550.14
490.5085, 14214.77
492.4370, 13902.81
494.3654, 13569.00
496.2939, 13186.68
498.2224, 12850.00
500.1508, 12607.69
502.0793, 12388.45
504.0078, 12164.77
505.9362, 11959.17
507.8647, 11788.17
509.7932, 11645.03
511.7216, 11527.37
513.6501, 11428.49
515.5786, 11333.49
517.5070, 11242.05
519.4355, 11148.75
521.3640, 11047.45
523.2924, 10970.90
525.2209, 10937.32
527.1494, 10906.02
529.0778, 10877.24
531.0063, 10844.60
532.9348, 10800.95
534.8632, 10755.87
536.7917, 10714.10
538.7202, 10679.85
540.6486, 10660.66
542.5771, 10648.04
544.5056, 10619.20
546.4340, 10574.26
548.3625, 10536.75
550.2910, 10508.35
552.2194, 10488.87
554.1479, 10476.99
556.0764, 10472.69
558.0048, 10486.73
559.9333, 10486.69
561.8618, 10447.77
563.7902, 10408.68
565.7187, 10397.92
567.6472, 10396.67
569.5756, 10378.89
571.5041, 10353.21
573.4326, 10346.76
575.3610, 10357.48
577.2895, 10381.78
579.2180, 10437.90
581.1464, 10527.42
583.0749, 10630.76
585.0034, 10716.87
586.9318, 10794.93
588.8603, 10894.21
590.7888, 11019.68
592.7172, 11131.64
594.6457, 11228.76
596.5742, 11313.16
598.5026, 11368.51
600.4311, 11408.40
602.3596, 11445.22
604.2880, 11475.62
606.2165, 11501.72
608.1450, 11545.92
610.0734, 11625.34
612.0019, 11714.30
613.9304, 11821.74
615.8588, 11961.04
617.7873, 12199.00
619.7158, 12569.93
621.6442, 12907.61
623.5727, 13179.61
625.5012, 13449.97
627.4296, 13780.50
629.3581, 13986.68
631.2866, 13978.27
633.2150, 13869.15
635.1435, 13657.82
637.0720, 13364.66
639.0004, 13013.37
640.9289, 12640.52
642.8574, 12387.21
644.7858, 12219.70
646.7143, 12115.87
648.6428, 12081.84
650.5712, 12092.75
652.4997, 12147.51
654.4282, 12163.87
656.3566, 12132.83
658.2851, 12056.16
660.2136, 11920.24
662.1420, 11741.71
664.0705, 11526.61
665.9990, 11287.79
667.9274, 11028.69
669.8559, 10745.63
671.7844, 10443.40
673.7128, 10147.64
675.6413, 9880.434
677.5698, 9665.853
679.4982, 9516.014
681.4267, 9397.248
683.3552, 9295.745
685.2836, 9209.935
687.2121, 9108.136
689.1406, 8998.718
691.0690, 8926.599
692.9975, 8889.419
694.9260, 8848.648
696.8544, 8801.551
698.7829, 8762.405
700.7114, 8735.649
702.6398, 8721.886
704.5683, 8714.360
706.4968, 8691.280
708.4252, 8659.754
710.3537, 8659.185
712.2822, 8680.130
714.2106, 8664.711
716.1391, 8622.614
718.0676, 8578.168
719.9960, 8531.185
721.9245, 8490.955
723.8530, 8468.827
725.7814, 8476.530
727.7099, 8496.354
729.6384, 8490.122
731.5668, 8464.409
733.4953, 8435.283
735.4238, 8392.931
737.3522, 8350.635
739.2807, 8330.293
741.2092, 8324.170
743.1376, 8313.869
745.0661, 8296.446
746.9946, 8286.614
748.9230, 8285.125
750.8515, 8266.519
752.7800, 8233.237
754.7084, 8219.426
756.6369, 8222.437
758.5654, 8210.797
760.4938, 8180.521
762.4222, 8149.245
764.3507, 8119.986
766.2792, 8086.894
768.2076, 8071.586
770.1361, 8075.312
772.0646, 8060.335
773.9930, 8034.729
775.9215, 8028.300
777.8500, 8021.212
779.7784, 7991.502
781.7069, 7961.160
783.6354, 7930.517
785.5638, 7896.311
787.4923, 7886.711
789.4208, 7894.984
791.3492, 7905.935
793.2777, 7899.776
795.2062, 7868.139
797.1346, 7850.079
799.0631, 7854.190
800.9916, 7850.514
802.9200, 7827.363
804.8485, 7791.473
806.7770, 7767.077
808.7054, 7770.771
810.6339, 7773.604
812.5624, 7737.434
814.4908, 7679.396
816.4193, 7650.007
818.3478, 7650.117
820.2762, 7634.200
822.2047, 7587.664
824.1332, 7560.544
826.0616, 7580.397
827.9901, 7595.397
829.9186, 7578.154
831.8470, 7559.252
833.7755, 7546.378
835.7040, 7539.076
837.6324, 7554.763
839.5609, 7562.367
841.4894, 7527.649
843.4178, 7483.339
845.3463, 7449.936
847.2748, 7428.288
849.2032, 7425.042
851.1317, 7419.454
853.0602, 7393.848
854.9886, 7376.544
856.9171, 7382.098
858.8456, 7392.653
860.7740, 7396.686
862.7025, 7388.395
864.6310, 7389.514
866.5594, 7395.993
868.4879, 7364.233
870.4164, 7323.470
872.3448, 7327.197
874.2733, 7345.461
876.2018, 7341.012
878.1302, 7321.930
880.0587, 7280.699
881.9872, 7229.436
883.9156, 7221.075
885.8441, 7245.572
887.7726, 7246.729
889.7010, 7226.656
891.6295, 7206.809
893.5580, 7191.149
895.4865, 7183.351
897.4149, 7168.423
899.3434, 7145.390
901.2719, 7135.491
903.2003, 7127.223
905.1288, 7110.368
907.0573, 7115.266
908.9857, 7137.833
910.9142, 7129.113
912.8427, 7094.512
914.7711, 7074.092
916.6996, 7069.603
918.6281, 7075.573
920.5565, 7084.370
922.4850, 7064.757
924.4135, 7028.157
926.3419, 7031.730
928.2704, 7060.915
930.1989, 7052.404
932.1273, 7020.650
934.0558, 7013.862
935.9843, 7026.221
937.9127, 7040.847
939.8412, 7053.144
941.7697, 7047.529
943.6981, 7032.198
945.6266, 7042.072
947.5551, 7073.315
949.4835, 7098.917
951.4120, 7117.806
953.3405, 7136.653
955.2689, 7155.998
957.1974, 7175.199
959.1259, 7200.370
961.0543, 7235.047
962.9828, 7283.435
964.9113, 7405.341
966.8397, 7596.579
968.7682, 7831.009
970.6967, 8108.657
972.6251, 8405.009
974.5536, 8731.367
976.4821, 9176.421
978.4105, 9741.848
980.3390, 10444.52
982.2675, 11280.00
984.1959, 12220.74
986.1244, 13302.23
988.0529, 14636.16
989.9813, 16257.47
991.9098, 18327.98
993.8383, 20809.81
995.7667, 23620.82
997.6952, 26682.65
999.6237, 29987.74
1001.552, 33269.92
1003.481, 35769.19
1005.409, 37532.39
1007.338, 38909.13
1009.266, 39612.59
1011.194, 38945.42
1013.123, 37033.53
1015.051, 33659.87
1016.980, 29438.92
1018.908, 25415.69
1020.837, 21667.36
1022.765, 18284.66
1024.694, 15316.15
1026.622, 12932.20
1028.551, 11108.89
1030.479, 9879.554
1032.408, 9078.152
1034.336, 8526.481
1036.265, 8142.796
1038.193, 7848.766
1040.121, 7612.646
1042.050, 7411.449
1043.978, 7253.828
1045.907, 7153.324
1047.835, 7101.042
1049.764, 7106.175
1051.692, 7126.309
1053.621, 7124.970
1055.549, 7132.328
1057.478, 7176.006
1059.406, 7234.781
1061.335, 7303.036
1063.263, 7376.745
1065.192, 7466.275
1067.120, 7536.305
1069.048, 7562.147
1070.977, 7573.800
1072.905, 7576.754
1074.834, 7574.031
1076.762, 7589.729
1078.691, 7562.392
1080.619, 7454.953
1082.548, 7357.817
1084.476, 7282.262
1086.405, 7235.492
1088.333, 7235.493
1090.262, 7243.545
1092.190, 7237.372
1094.119, 7259.051
1096.047, 7310.106
1097.975, 7404.547
1099.904, 7564.052
1101.832, 7724.509
1103.761, 7862.712
1105.689, 8000.822
1107.618, 8149.079
1109.546, 8283.116
1111.475, 8398.078
1113.403, 8511.549
1115.332, 8623.193
1117.260, 8710.187
1119.189, 8754.745
1121.117, 8722.410
1123.046, 8667.165
1124.974, 8619.909
1126.902, 8563.615
1128.831, 8538.381
1130.759, 8557.803
1132.688, 8639.998
1134.616, 8734.902
1136.545, 8820.675
1138.473, 8851.459
1140.402, 8757.465
1142.330, 8642.641
1144.259, 8565.550
1146.187, 8523.217
1148.116, 8505.523
1150.044, 8530.194
1151.973, 8582.463
1153.901, 8708.007
1155.829, 8924.308
1157.758, 9201.038
1159.686, 9554.923
1161.615, 9781.269
1163.543, 9862.714
1165.472, 9785.230
1167.400, 9558.506
1169.329, 9269.688
1171.257, 8923.047
1173.186, 8595.786
1175.114, 8297.542
1177.043, 7973.053
1178.971, 7623.697
1180.900, 7361.087
1182.828, 7185.134
1184.756, 7028.073
1186.685, 6891.037
1188.613, 6788.208
1190.542, 6709.394
1192.470, 6647.631
1194.399, 6608.138
1196.327, 6599.311
1198.256, 6608.572
1200.184, 6627.326
1202.113, 6638.229
1204.041, 6621.167
1205.970, 6639.484
1207.898, 6727.102
1209.827, 6784.751
1211.755, 6777.839
1213.683, 6769.475
1215.612, 6783.840
1217.540, 6765.606
1219.469, 6710.412
1221.397, 6649.005
1223.326, 6582.613
1225.254, 6532.084
1227.183, 6491.014
1229.111, 6429.397
1231.040, 6360.121
1232.968, 6316.791
1234.897, 6287.969
1236.825, 6260.970
1238.754, 6238.611
1240.682, 6227.816
1242.610, 6218.291
1244.539, 6190.896
1246.467, 6174.189
1248.396, 6187.062
1250.324, 6196.729
1252.253, 6201.924
1254.181, 6194.363
1256.110, 6159.928
1258.038, 6146.747
1259.967, 6167.565
1261.895, 6173.883
1263.824, 6164.236
1265.752, 6152.458
1267.681, 6139.498
1269.609, 6131.001
1271.537, 6128.150
1273.466, 6142.570
1275.394, 6156.687
1277.323, 6130.579
1279.251, 6107.348
1281.180, 6129.914
1283.108, 6146.183
1285.037, 6133.802
1286.965, 6113.385
1288.894, 6076.967
1290.822, 6065.935
1292.751, 6103.698
1294.679, 6117.657
1296.608, 6092.110
1298.536, 6082.158
1300.464, 6093.187
1302.393, 6083.119
1304.321, 6057.091
1306.250, 6076.960
1308.178, 6112.564
1310.107, 6079.418
1312.035, 6039.883
1313.964, 6085.709
1315.892, 6125.787
1317.821, 6096.137
1319.749, 6054.266
1321.678, 6013.616
1323.606, 5996.706
1325.535, 6013.612
1327.463, 6015.494
1329.391, 5995.703
1331.320, 6006.512
1333.248, 6043.995
1335.177, 6061.928
1337.105, 6062.925
1339.034, 6048.416
1340.962, 6030.212
1342.891, 6023.486
1344.819, 6017.003
1346.748, 5999.990
1348.676, 5988.113
1350.605, 5994.343
1352.533, 5984.423
1354.462, 5948.090
1356.390, 5929.650
1358.318, 5931.897
1360.247, 5944.488
1362.175, 5961.944
1364.104, 5962.266
1366.032, 5950.019
1367.961, 5919.037
1369.889, 5899.125
1371.818, 5948.422
1373.746, 5981.404
1375.675, 5923.553
1377.603, 5876.762
1379.532, 5873.523
1381.460, 5875.597
1383.389, 5879.676
1385.317, 5891.549
1387.245, 5908.028
1389.174, 5896.374
1391.102, 5869.553
1393.031, 5859.691
1394.959, 5857.435
1396.888, 5850.590
1398.816, 5849.406
1400.745, 5872.759
1402.673, 5881.121
1404.602, 5848.436
1406.530, 5827.507
1408.459, 5825.667
1410.387, 5818.676
1412.316, 5807.030
1414.244, 5806.081
1416.172, 5806.427
1418.101, 5772.303
1420.029, 5742.502
1421.958, 5762.107
1423.886, 5787.948
1425.815, 5805.660
1427.743, 5803.017
1429.672, 5766.288
1431.600, 5738.895
1433.529, 5722.408
1435.457, 5728.782
1437.386, 5751.359
1439.314, 5758.334
1441.243, 5758.969
1443.171, 5772.740
1445.099, 5778.979
1447.028, 5758.131
1448.956, 5742.151
1450.885, 5746.224
1452.813, 5740.460
1454.742, 5718.582
1456.670, 5697.401
1458.599, 5677.456
1460.527, 5658.771
1462.456, 5643.092
1464.384, 5636.277
1466.313, 5630.335
1468.241, 5612.862
1470.170, 5609.080
1472.098, 5632.013
1474.026, 5648.621
1475.955, 5652.857
1477.883, 5664.353
1479.812, 5676.742
1481.740, 5629.011
1483.669, 5571.352
1485.597, 5610.794
1487.526, 5656.736
1489.454, 5626.503
1491.383, 5609.938
1493.311, 5637.720
1495.240, 5637.994
1497.168, 5601.957
1499.097, 5559.623
1501.025, 5522.207
1502.953, 5527.534
1504.882, 5549.755
1506.810, 5566.697
1508.739, 5565.799
1510.667, 5515.687
1512.596, 5500.990
1514.524, 5542.717
1516.453, 5557.670
1518.381, 5541.515
1520.310, 5511.884
1522.238, 5476.850
1524.167, 5441.529
1526.095, 5420.823
1528.023, 5438.921
1529.952, 5455.373
1531.880, 5460.415
1533.809, 5447.597
1535.737, 5416.960
1537.666, 5398.803
1539.594, 5391.572
1541.523, 5389.810
1543.451, 5389.397
1545.380, 5387.290
1547.308, 5382.909
1549.237, 5378.840
1551.165, 5362.387
1553.094, 5327.686
1555.022, 5337.760
1556.950, 5375.992
1558.879, 5363.492
1560.807, 5337.820
1562.736, 5355.296
1564.664, 5355.944
1566.593, 5281.591
1568.521, 5245.098
1570.450, 5274.651
1572.378, 5280.257
1574.307, 5265.758
1576.235, 5244.970
1578.164, 5224.173
1580.092, 5212.455
1582.021, 5198.875
1583.949, 5172.004
1585.877, 5160.516
1587.806, 5170.985
1589.734, 5192.872
1591.663, 5217.153
1593.591, 5195.188
1595.520, 5170.586
1597.448, 5204.084
1599.377, 5209.257
1601.305, 5131.321
1603.234, 5116.652
1605.162, 5190.954
1607.091, 5204.866
1609.019, 5178.786
1610.948, 5158.668
1612.876, 5139.106
1614.804, 5111.019
1616.733, 5097.933
1618.661, 5111.275
1620.590, 5096.335
1622.518, 5054.699
1624.447, 5056.277
1626.375, 5072.561
1628.304, 5060.651
1630.232, 5032.956
1632.161, 4988.126
1634.089, 4964.453
1636.018, 4968.979
1637.946, 4933.458
1639.875, 4877.117
1641.803, 4869.050
1643.731, 4879.123
1645.660, 4884.110
1647.588, 4884.324
1649.517, 4879.593
1651.445, 4873.253
1653.374, 4864.807
1655.302, 4844.696
1657.231, 4825.036
1659.159, 4829.372
1661.088, 4832.182
1663.016, 4821.331
1664.945, 4801.878
1666.873, 4775.452
1668.802, 4768.168
1670.730, 4769.303
1672.658, 4754.363
1674.587, 4734.511
1676.515, 4712.334
1678.444, 4702.542
1680.372, 4709.640
1682.301, 4692.693
1684.229, 4658.704
1686.158, 4627.615
1688.086, 4607.715
1690.015, 4613.963
1691.943, 4618.827
1693.872, 4615.912
1695.800, 4600.864
1697.729, 4580.759
1699.657, 4601.679
1701.585, 4622.671
1703.514, 4596.773
1705.442, 4566.354
1707.371, 4547.403
1709.299, 4520.050
1711.228, 4488.810
1713.156, 4511.691
1715.085, 4533.064
1717.013, 4478.442
1718.942, 4433.078
1720.870, 4433.937
1722.799, 4438.889
1724.727, 4444.771
1726.656, 4448.465
1728.584, 4439.442
1730.512, 4392.836
1732.441, 4366.482
1734.369, 4393.114
1736.298, 4380.383
1738.226, 4333.309
1740.155, 4313.826
1742.083, 4311.706
1744.012, 4325.564
1745.940, 4324.886
1747.869, 4297.012
1749.797, 4274.033
1751.726, 4259.948
1753.654, 4270.914
1755.583, 4284.462
1757.511, 4281.723
1759.439, 4267.654
1761.368, 4242.083
1763.296, 4231.978
1765.225, 4228.923
1767.153, 4192.562
1769.082, 4166.413
1771.010, 4192.200
1772.939, 4202.161
1774.867, 4184.545
1776.796, 4156.648
1778.724, 4126.417
1780.653, 4106.355
1782.581, 4092.153
1784.510, 4081.152
1786.438, 4075.943
1788.366, 4077.296
1790.295, 4098.220
1792.223, 4113.006
1794.152, 4070.514
1796.080, 4044.314
1798.009, 4062.287
1799.937, 4042.255
1801.866, 3994.722
1803.794, 3980.102
1805.723, 3977.043
1807.651, 3970.463
1809.580, 3960.710
1811.508, 3948.084
1813.437, 3937.570
1815.365, 3920.659
1817.293, 3869.331
1819.222, 3832.570
1821.150, 3847.758
1823.079, 3848.203
1825.007, 3837.387
1826.936, 3861.518
1828.864, 3879.715
1830.793, 3846.095
1832.721, 3810.721
1834.650, 3781.832
1836.578, 3765.704
1838.507, 3760.032
1840.435, 3767.969
1842.364, 3770.179
1844.292, 3751.808
1846.220, 3726.969
1848.149, 3701.321
1850.077, 3701.685
1852.006, 3710.386
1853.934, 3717.107
1855.863, 3707.640
1857.791, 3679.557
1859.720, 3654.237
1861.648, 3629.681
1863.577, 3597.006
1865.505, 3580.411
1867.434, 3595.956
1869.362, 3585.952
1871.291, 3558.194
1873.219, 3550.369
1875.147, 3558.676
1877.076, 3587.576
1879.004, 3581.218
1880.933, 3538.125
1882.861, 3529.753
1884.790, 3534.573
1886.718, 3534.165
1888.647, 3523.118
1890.575, 3502.072
1892.504, 3462.483
1894.432, 3423.618
1896.361, 3432.402
1898.289, 3441.945
1900.218, 3438.005
1902.146, 3403.835
1904.074, 3358.966
1906.003, 3362.511
1907.931, 3368.172
1909.860, 3354.211
1911.788, 3342.093
1913.717, 3330.449
1915.645, 3301.189
1917.574, 3274.155
1919.502, 3272.542
1921.431, 3283.837
1923.359, 3300.472
1925.288, 3283.397
1927.216, 3259.593
1929.145, 3244.418
1931.073, 3239.568
1933.001, 3248.059
1934.930, 3227.411
1936.858, 3197.389
1938.787, 3184.771
1940.715, 3169.939
1942.644, 3151.204
1944.572, 3156.423
1946.501, 3165.626
1948.429, 3141.578
1950.358, 3114.696
1952.286, 3101.638
1954.215, 3080.480
1956.143, 3056.201
1958.072, 3026.771
1960.000, 3011.688
1961.928, 3028.287
1963.857, 3032.060
1965.785, 3029.684
1967.714, 3035.353
1969.642, 3034.710
1971.571, 3018.397
1973.499, 2993.994
1975.428, 2967.200
1977.356, 2954.682
1979.285, 2952.026
1981.213, 2961.281
1983.142, 2936.310
1985.070, 2893.416
1986.999, 2869.778
1988.927, 2861.486
1990.855, 2869.767
1992.784, 2876.079
1994.712, 2875.632
1996.641, 2850.165
1998.569, 2825.213
2000.498, 2814.170
2002.426, 2810.102
2004.355, 2807.969
2006.283, 2814.876
2008.212, 2820.496
2010.140, 2817.108
2012.069, 2796.989
2013.997, 2766.360
2015.926, 2723.427
2017.854, 2710.733
2019.782, 2738.730
2021.711, 2731.384
2023.639, 2707.015
2025.568, 2690.359
2027.496, 2676.467
2029.425, 2669.513
2031.353, 2648.782
2033.282, 2622.987
2035.210, 2612.458
2037.139, 2608.958
2039.067, 2612.828
2040.996, 2608.882
2042.924, 2594.924
2044.853, 2559.678
2046.781, 2561.046
2048.709, 2595.306
2050.638, 2589.355
2052.566, 2568.219
2054.495, 2543.439
2056.423, 2541.643
2058.352, 2552.728
2060.280, 2511.176
2062.209, 2473.125
2064.137, 2491.896
2066.066, 2468.843
2067.994, 2422.967
2069.923, 2400.686
2071.851, 2403.505
2073.780, 2446.220
2075.708, 2461.395
2077.636, 2448.073
2079.565, 2397.976
2081.493, 2359.601
2083.422, 2343.796
2085.350, 2360.484
2087.279, 2377.705
2089.207, 2363.149
2091.136, 2345.939
2093.064, 2331.426
2094.993, 2324.801
2096.921, 2318.661
2098.850, 2307.526
2100.778, 2305.259
2102.707, 2307.630
2104.635, 2302.830
2106.563, 2294.884
2108.492, 2285.431
2110.420, 2263.952
2112.349, 2239.044
2114.277, 2222.599
2116.206, 2210.572
2118.134, 2202.465
2120.063, 2203.597
2121.991, 2197.111
2123.920, 2168.984
2125.848, 2168.799
2127.777, 2185.435
2129.705, 2178.254
2131.634, 2157.809
2133.562, 2128.160
2135.490, 2117.386
2137.419, 2116.393
2139.347, 2115.136
2141.276, 2095.783
2143.204, 2066.762
2145.133, 2072.171
2147.061, 2076.249
2148.990, 2055.633
2150.918, 2067.310
2152.847, 2089.884
2154.775, 2053.339
2156.704, 2031.396
2158.632, 2040.317
2160.561, 2029.310
2162.489, 2010.970
2164.417, 2001.257
2166.346, 1985.415
2168.274, 1968.228
2170.203, 1971.270
2172.131, 1974.810
2174.060, 1970.054
2175.988, 1967.442
2177.917, 1967.529
2179.845, 1976.135
2181.774, 1962.556
2183.702, 1926.948
2185.631, 1919.604
2187.559, 1910.906
2189.488, 1875.522
2191.416, 1880.851
2193.344, 1891.203
2195.273, 1862.321
2197.201, 1875.641
2199.130, 1915.597
2201.058, 1878.673
2202.987, 1847.662
2204.915, 1852.449
2206.844, 1834.182
2208.772, 1821.164
2210.701, 1834.958
2212.629, 1831.157
2214.558, 1814.748
2216.486, 1795.639
2218.415, 1781.131
2220.343, 1786.559
2222.271, 1775.950
2224.200, 1761.101
2226.128, 1757.364
2228.057, 1750.588
2229.985, 1738.526
2231.914, 1724.328
2233.842, 1717.603
2235.771, 1725.250
2237.699, 1718.039
2239.628, 1700.767
2241.556, 1698.535
2243.485, 1703.772
2245.413, 1698.368
2247.342, 1686.368
2249.270, 1670.032
2251.198, 1647.346
2253.127, 1647.280
2255.055, 1651.832
2256.984, 1658.552
2258.912, 1642.171
2260.841, 1620.317
2262.769, 1619.352
2264.698, 1614.044
2266.626, 1600.521
2268.555, 1598.588
2270.483, 1588.231
2272.412, 1566.828
2274.340, 1577.070
2276.269, 1584.571
2278.197, 1560.742
2280.125, 1550.086
2282.054, 1554.462
2283.982, 1547.891
2285.911, 1546.729
2287.839, 1553.597
2289.768, 1545.235
2291.696, 1534.713
2293.625, 1521.176
2295.553, 1513.061
2297.482, 1513.494
2299.410, 1510.633
2301.339, 1505.271
2303.267, 1498.539
2305.196, 1470.076
2307.124, 1452.160
2309.052, 1450.244
2310.981, 1448.055
2312.909, 1441.876
2314.838, 1437.156
2316.766, 1428.102
2318.695, 1418.267
2320.623, 1420.521
2322.552, 1425.522
2324.480, 1418.320
2326.409, 1403.277
2328.337, 1390.524
2330.266, 1386.816
2332.194, 1396.805
2334.123, 1391.706
2336.051, 1381.509
2337.979, 1364.326
2339.908, 1353.751
2341.836, 1362.294
2343.765, 1368.841
2345.693, 1362.976
2347.622, 1326.875
2349.550, 1309.890
2351.479, 1323.920
2353.407, 1324.415
2355.336, 1316.430
2357.264, 1316.383
2359.193, 1301.897
2361.121, 1296.028
2363.050, 1296.817
2364.978, 1279.378
2366.906, 1270.162
2368.835, 1263.060
2370.763, 1249.800
2372.692, 1253.148
2374.620, 1266.025
2376.549, 1254.538
2378.477, 1241.282
2380.406, 1247.969
2382.334, 1240.403
2384.263, 1226.098
2386.191, 1217.830
2388.120, 1223.235
2390.048, 1222.960
2391.977, 1215.725
2393.905, 1202.617
2395.833, 1195.037
2397.762, 1198.310
2399.690, 1178.618
2401.619, 1161.823
2403.547, 1178.783
2405.476, 1182.231
2407.404, 1169.512
2409.333, 1165.019
2411.261, 1160.842
2413.190, 1151.992
2415.118, 1128.646
2417.047, 1102.167
2418.975, 1124.889
2420.904, 1135.871
2422.832, 1135.747
2424.760, 1091.245
2426.689, 1104.046
2428.617, 1093.884
2430.546, 1082.778
2432.474, 1103.645
2434.403, 1065.596
2436.331, 1085.957
2438.260, 1083.001
2440.188, 1090.717
2442.117, 1075.325
2444.045, 1067.071
2445.974, 1061.310
2447.902, 1054.621
2449.831, 1057.410
2451.759, 1051.625
2453.688, 1044.866
2455.616, 1037.173
2457.544, 1022.879
2459.473, 1032.691
2461.401, 1034.914
2463.330, 1018.116
2465.258, 1008.127
2467.187, 999.3690
2469.115, 991.9054
2471.044, 992.2031
2472.972, 996.2687
2474.901, 994.5927
2476.829, 997.6578
2478.758, 996.5268
2480.686, 980.9921
2482.615, 980.9977
2484.543, 980.0033
2486.471, 966.5542
2488.400, 952.7133
2490.328, 944.2050
2492.257, 932.4772
2494.185, 936.5008
2496.114, 942.8549
2498.042, 933.6595
2499.971, 930.8646
2501.899, 928.0498
2503.828, 912.9254
2505.756, 913.7510
2507.685, 922.6079
2509.613, 915.5894
2511.542, 908.4865
2513.470, 899.3163
2515.398, 887.0808
2517.327, 880.9410
2519.255, 876.0959
2521.184, 878.6529
2523.112, 885.6394
2525.041, 882.4371
2526.969, 869.4948
2528.898, 869.2651
2530.826, 872.3885
2532.755, 862.1782
2534.683, 862.9753
2536.612, 864.2593
2538.540, 849.7109
2540.469, 845.8080
2542.397, 844.6856
2544.325, 833.6736
2546.254, 828.1579
2548.182, 827.4482
2550.111, 821.0061
2552.039, 825.6177
2553.968, 830.9321
2555.896, 824.6500
2557.825, 808.4705
2559.753, 793.3995
2561.682, 798.0209
2563.610, 794.6488
2565.539, 787.2858
2567.467, 792.0833
2569.396, 798.5520
2571.324, 794.2642
2573.252, 776.3141
2575.181, 766.0828
2577.109, 761.5306
2579.038, 766.1069
2580.966, 757.7204
2582.895, 748.2242
2584.823, 753.6693
2586.752, 744.9276
2588.680, 742.1064
2590.609, 761.9590
2592.537, 747.4234
2594.466, 727.7396
2596.394, 724.1378
2598.323, 717.1866
2600.251, 718.1967
2602.179, 731.3071
2604.108, 713.0126
2606.036, 698.1974
2607.965, 701.1256
2609.893, 697.3945
2611.822, 687.6996
2613.750, 677.0332
2615.679, 700.5315
2617.607, 709.8387
2619.536, 696.4273
2621.464, 683.1981
2623.393, 674.7230
2625.321, 671.8474
2627.250, 667.4574
2629.178, 668.6707
2631.106, 673.3499
2633.035, 671.5229
2634.963, 667.6683
2636.892, 660.7654
2638.820, 654.7999
2640.749, 651.9778
2642.677, 649.3647
2644.606, 639.2137
2646.534, 645.5118
2648.463, 650.8824
2650.391, 635.4438
2652.320, 630.7164
2654.248, 626.6610
2656.177, 619.0854
2658.105, 621.9347
2660.033, 620.2059
2661.962, 601.1168
2663.890, 596.8932
2665.819, 607.2305
2667.747, 616.2089
2669.676, 594.7684
2671.604, 588.1328
2673.533, 593.2944
2675.461, 590.1165
2677.390, 578.8846
2679.318, 570.9558
2681.247, 580.5497
2683.175, 579.5735
2685.104, 573.0325
2687.032, 565.2025
2688.960, 564.7948
2690.889, 560.8463
2692.817, 555.8996
2694.746, 553.3747
2696.674, 553.8923
2698.603, 549.8505
2700.531, 544.5967
2702.460, 544.2419
2704.388, 544.9830
2706.317, 548.7454
2708.245, 540.2901
2710.174, 524.1939
2712.102, 519.6299
2714.031, 522.5450
2715.959, 523.2390
2717.887, 512.7206
2719.816, 517.4329
2721.744, 522.3118
2723.673, 511.1693
2725.601, 493.8658
2727.530, 490.1245
2729.458, 500.0647
2731.387, 515.1760
2733.315, 516.3820
2735.244, 503.0158
2737.172, 497.9036
2739.101, 489.0804
2741.029, 472.2643
2742.958, 474.2506
2744.886, 483.4108
2746.814, 477.9073
2748.743, 460.5616
2750.671, 460.3675
2752.600, 466.0816
2754.528, 468.0582
2756.457, 463.7804
2758.385, 462.4525
2760.314, 465.1554
2762.242, 466.6076
2764.171, 456.9442
2766.099, 444.2565
2768.028, 431.6901
2769.956, 435.5399
2771.885, 448.2544
2773.813, 441.7664
2775.741, 421.5456
2777.670, 417.2142
2779.598, 429.2246
2781.527, 429.1021
2783.455, 426.6866
2785.384, 416.7667
2787.312, 414.7222
2789.241, 415.9306
2791.169, 414.9675
2793.098, 413.9315
2795.026, 408.5061
2796.955, 397.9416
2798.883, 396.7382
2800.812, 410.2494
2802.740, 401.2196
2804.668, 386.1927
2806.597, 386.9870
2808.525, 393.2711
2810.454, 393.8728
2812.382, 390.1012
2814.311, 380.1030
2816.239, 367.7980
2818.168, 377.3295
2820.096, 378.7069
2822.025, 370.1315
2823.953, 373.2591
2825.882, 370.0807
2827.810, 366.7548
2829.739, 364.9808
2831.667, 364.2689
2833.595, 356.8831
2835.524, 358.7171
2837.452, 360.3134
2839.381, 354.8649
2841.309, 352.1103
2843.238, 350.3952
2845.166, 347.0785
2847.095, 339.8912
2849.023, 338.2173
2850.952, 338.2516
2852.880, 343.6696
2854.809, 340.1078
2856.737, 334.9482
2858.666, 330.2245
2860.594, 335.8438
2862.522, 336.8308
2864.451, 324.4771
2866.379, 314.8445
2868.308, 315.8618
2870.236, 315.8303
2872.165, 313.5182
2874.093, 308.6672
2876.022, 303.0774
2877.950, 295.2316
2879.879, 296.2717
2881.807, 298.7377
2883.736, 301.3443
2885.664, 302.3542
2887.593, 293.6198
2889.521, 280.8264
2891.449, 288.5740
2893.378, 294.3869
2895.306, 291.9990
2897.235, 285.2253
2899.163, 279.1894
2901.092, 280.6542
2903.020, 284.4741
2904.949, 280.9403
2906.877, 277.0404
2908.806, 274.2702
2910.734, 270.9300
2912.663, 268.6333
2914.591, 264.0580
2916.520, 265.5177
2918.448, 267.2618
2920.376, 267.1939
2922.305, 264.0153
2924.233, 260.5984
2926.162, 259.9957
2928.090, 257.6762
2930.019, 255.7574
2931.947, 258.7821
2933.876, 248.8553
2935.804, 238.7325
2937.733, 242.1373
2939.661, 250.1561
2941.590, 246.5014
2943.518, 243.2501
2945.447, 233.7769
2947.375, 228.4875
2949.303, 233.3862
2951.232, 230.7494
2953.160, 225.5216
2955.089, 231.1971
2957.017, 231.6613
2958.946, 214.9885
2960.874, 221.1110
2962.803, 227.7367
2964.731, 219.0935
2966.660, 216.6759
2968.588, 215.0386
2970.517, 211.3939
2972.445, 210.0725
2974.374, 207.7251
2976.302, 213.1994
2978.230, 218.5938
2980.159, 215.7178
2982.087, 217.2933
2984.016, 206.3670
2985.944, 199.0868
2987.873, 210.5368
2989.801, 210.3251
2991.729, 207.2277
2993.658, 200.5417
2995.586, 187.3631
2997.515, 185.8009
2999.443, 189.0565
3001.372, 193.1032
3003.300, 201.3613
3005.229, 198.5923
3007.157, 190.1172
3009.086, 187.1531
3011.014, 182.2071
3012.943, 179.6285
3014.871, 180.4245
3016.800, 184.6253
3018.728, 176.6827
3020.656, 173.6166
3022.585, 179.5723
3024.513, 180.4790
3026.442, 170.5475
3028.370, 165.0759
3030.299, 169.6873
3032.227, 166.2191
3034.156, 163.2290
3036.084, 163.5283
3038.013, 160.5447
3039.941, 162.4684
3041.870, 160.9023
3043.798, 158.2987
3045.727, 158.6063
3047.655, 148.4816
3049.583, 147.8160
3051.512, 157.2308
3053.440, 152.1408
3055.369, 149.3375
3057.297, 144.4892
3059.226, 136.7644
3061.154, 143.9129
3063.083, 146.5279
3065.011, 143.1270
3066.940, 136.8985
3068.868, 141.9815
3070.797, 138.0187
3072.725, 132.5979
3074.654, 136.0633
3076.582, 138.6668
3078.510, 134.0377
3080.439, 128.4759
3082.367, 133.1978
3084.296, 132.7507
3086.224, 131.0662
3088.153, 129.9206
3090.081, 125.5770
3092.010, 123.2145
3093.938, 128.2585
3095.867, 134.3103
3097.795, 128.2048
3099.724, 123.7267
3101.652, 124.8549
3103.581, 127.4147
3105.509, 121.5819
3107.438, 113.0407
3109.366, 110.1639
3111.294, 112.8807
3113.223, 115.0157
3115.151, 115.9453
3117.080, 114.9631
3119.008, 112.7909
3120.937, 111.7122
3122.865, 110.2989
3124.794, 110.9503
3126.722, 111.8962
3128.651, 107.2982
3130.579, 104.5069
3132.508, 101.4365
3134.436, 97.67693
3136.365, 96.10364
3138.293, 92.60308
3140.221, 94.26982
3142.150, 98.86151
3144.078, 95.45007
3146.007, 87.15040
3147.935, 87.60622
3149.864, 94.53994
3151.792, 95.25679
3153.721, 90.32285
3155.649, 90.13996
3157.578, 95.04978
3159.506, 96.47255
3161.435, 91.41559
3163.363, 86.63390
3165.292, 85.94486
3167.220, 93.98626
3169.148, 90.69498
3171.077, 87.15480
3173.005, 86.24591
3174.934, 85.21703
3176.862, 82.15274
3178.791, 86.60183
3180.719, 91.57874
3182.648, 89.06489
3184.576, 97.97992
3186.505, 92.49393
3188.433, 86.11951
3190.362, 87.72833
3192.290, 85.01109
3194.219, 81.85925
3196.147, 82.08564
3198.075, 84.84109
3200.004, 89.22894
3201.932, 81.14738
3203.861, 75.95866
3205.789, 76.15186
3207.718, 72.62341
3209.646, 72.13048
3211.575, 73.68802
3213.503, 74.34139
3215.432, 76.29259
3217.360, 75.60060
3219.289, 74.78810
3221.217, 75.13027
3223.146, 78.22479
3225.074, 76.73193
3227.002, 73.51099
3228.931, 72.60367
3230.859, 76.78191
3232.788, 77.18965
3234.716, 77.02815
3236.645, 72.60749
3238.573, 65.53256
3240.502, 68.43518
3242.430, 73.77012
3244.359, 72.27818
3246.287, 67.40135
3248.216, 68.18657
3250.144, 69.54570
3252.073, 68.50417
3254.001, 69.62511
3255.929, 72.11636
3257.858, 70.14060
3259.786, 66.89968
3261.715, 63.97276
3263.643, 62.05970
3265.572, 61.27230
3267.500, 63.75040
3269.429, 62.35685
3271.357, 62.03911
3273.286, 69.54646
3275.214, 68.28807
3277.143, 62.17266
3279.071, 57.30226
3281.000, 58.37130
3282.928, 70.17046
3284.856, 66.05569
3286.785, 61.53819
3288.713, 63.23672
3290.642, 70.60907
3292.570, 68.79358
3294.499, 68.50714
3296.427, 61.49649
3298.356, 50.26780
3300.284, 53.30529
3302.213, 59.45228
3304.141, 57.59767
3306.070, 53.10631
3307.998, 56.12766
3309.927, 64.59306
3311.855, 53.41665
3313.783, 45.08682
3315.712, 49.47358
3317.640, 56.38200
3319.569, 56.46834
3321.497, 57.90973
3323.426, 59.16125
3325.354, 54.53914
3327.283, 54.77977
3329.211, 52.90576
3331.140, 54.34864
3333.068, 56.13023
3334.997, 49.93389
3336.925, 52.13329
3338.854, 50.37362
3340.782, 50.34834
3342.710, 53.15506
3344.639, 46.12259
3346.567, 46.43716
3348.496, 50.02553
3350.424, 52.08396
3352.353, 50.83580
3354.281, 56.71552
3356.210, 55.86854
3358.138, 51.53579
3360.067, 48.04045
3361.995, 47.22291
3363.924, 44.86546
3365.852, 50.06182
3367.781, 50.45110
3369.709, 42.33274
3371.637, 43.67610
3373.566, 47.75558
3375.494, 50.15889
3377.423, 49.94567
3379.351, 46.52795
3381.280, 41.81066
3383.208, 42.74032
3385.137, 39.70244
3387.065, 39.11303
3388.994, 49.92667
3390.922, 41.50346
3392.851, 47.46686
3394.779, 48.90076
3396.708, 43.87173
3398.636, 43.47065
3400.564, 40.07098
3402.493, 35.39695
3404.421, 40.79420
3406.350, 49.43170
3408.278, 41.59255
3410.207, 41.45089
3412.135, 38.62203
3414.064, 39.99195
3415.992, 43.35525
3417.921, 37.47173
3419.849, 39.44006
3421.778, 35.54005
3423.706, 34.75673
3425.635, 40.97145
3427.563, 47.94099
3429.491, 45.62284
3431.420, 43.19663
3433.348, 42.36395
3435.277, 43.93670
3437.205, 47.98497
3439.134, 43.12578
3441.062, 37.79959
3442.991, 42.50095
3444.919, 51.07967
3446.848, 47.84864
3448.776, 48.17329
3450.705, 37.88381
3452.633, 35.77646
3454.562, 40.25789
3456.490, 36.67297
3458.418, 38.63638
3460.347, 43.96799
3462.275, 43.17117
3464.204, 41.03016
3466.132, 45.40811
3468.061, 43.26276
3469.989, 39.22347
3471.918, 37.21112
3473.846, 37.51919
3475.775, 39.83231
3477.703, 48.89244
3479.632, 41.78743
3481.560, 39.93971
3483.489, 42.66021
3485.417, 43.97769
3487.345, 42.75459
3489.274, 39.30746
3491.202, 39.35140
3493.131, 43.20616
3495.059, 46.38279
3496.988, 42.90084
3498.916, 52.26228
3500.845, 54.87311
3502.773, 55.63093
3504.702, 59.05876
3506.630, 64.04601
3508.559, 59.57891
3510.487, 62.12298
3512.416, 61.01664
3514.344, 67.59334
3516.272, 81.13464
3518.201, 76.81205
3520.129, 72.60233
3522.058, 74.44205
3523.986, 75.83389
3525.915, 72.17220
3527.843, 63.26126
3529.772, 51.82915
3531.700, 58.69744
3533.629, 66.70335
3535.557, 66.90272
3537.486, 62.51663
3539.414, 64.91595
3541.343, 61.86456
3543.271, 58.65747
3545.199, 58.17245
3547.128, 58.25194
3549.056, 56.03023
3550.985, 52.69115
3552.913, 59.08035
3554.842, 61.15261
3556.770, 53.66961
3558.699, 43.66881
3560.627, 44.33047
3562.556, 62.87529
3564.484, 58.09350
3566.413, 56.97913
3568.341, 57.08979
3570.270, 50.57137
3572.198, 49.76380
3574.126, 57.67093
3576.055, 58.13344
3577.983, 56.95497
3579.912, 59.02225
3581.840, 62.36396
3583.769, 56.77881
3585.697, 60.77160
3587.626, 56.56213
3589.554, 47.28885
3591.483, 40.08492
3593.411, 38.77116
3595.340, 40.51339
3597.268, 28.89079
3599.197, 29.03205
3601.125, 31.13064
3603.053, 30.65008
3604.982, 32.87035
3606.910, 29.75955
3608.839, 29.29449
3610.767, 32.71952
3612.696, 35.35865
3614.624, 32.40244
3616.553, 24.71900
3618.481, 30.37725
3620.410, 36.22272
3622.338, 33.96525
3624.267, 25.24024
3626.195, 21.41279
3628.124, 29.77228
3630.052, 29.12109
3631.980, 39.64962
3633.909, 45.58132
3635.837, 37.11373
3637.766, 27.51776
3639.694, 29.51675
3641.623, 19.53658
3643.551, 27.27621
3645.480, 26.20997
3647.408, 22.58237
3649.337, 24.33714
3651.265, 30.22559
3653.194, 30.31659
3655.122, 31.82088
3657.051, 33.54318
3658.979, 31.00796
3660.907, 29.11098
3662.836, 29.19440
3664.764, 26.04011
3666.693, 26.79794
3668.621, 24.96191
3670.550, 21.63974
3672.478, 26.53615
3674.407, 31.20942
3676.335, 23.14182
3678.264, 18.13991
3680.192, 25.46841
3682.121, 22.02514
3684.049, 22.69039
3685.978, 25.65636
3687.906, 25.98856
3689.834, 28.34487
3691.763, 33.52456
3693.691, 28.53943
3695.620, 18.86060
3697.548, 19.77637
3699.477, 28.55879
3701.405, 32.41177
3703.334, 24.25092
3705.262, 20.60357
3707.191, 20.56726
3709.119, 26.33864
3711.048, 29.85979
3712.976, 25.23685
3714.905, 16.57812
3716.833, 23.65422
3718.761, 19.17735
3720.690, 16.38833
3722.618, 14.00873
3724.547, 14.13078
3726.475, 19.73113
3728.404, 28.48930
3730.332, 23.67943
3732.261, 16.84797
3734.189, 17.06739
3736.118, 19.53385
3738.046, 19.77868
3739.975, 18.24358
3741.903, 18.57268
3743.832, 23.17351
3745.760, 17.59618
3747.688, 19.45254
3749.617, 21.73639
3751.545, 22.74028
3753.474, 23.46314
3755.402, 22.31834
3757.331, 17.15589
3759.259, 17.10797
3761.188, 18.58595
3763.116, 20.27576
3765.045, 22.40801
3766.973, 22.87473
3768.902, 20.58989
3770.830, 19.81976
3772.759, 16.42128
3774.687, 13.95278
3776.615, 20.42337
3778.544, 21.59943
3780.472, 15.12831
3782.401, 12.85689
3784.329, 24.86089
3786.258, 23.01641
3788.186, 11.61326
3790.115, 15.75991
3792.043, 21.52233
3793.972, 22.10082
3795.900, 16.69843
3797.829, 9.234366
3799.757, 13.16339
3801.686, 16.92333
3803.614, 18.18338
3805.542, 19.74820
3807.471, 21.56567
3809.399, 20.32672
3811.328, 18.15534
3813.256, 19.47769
3815.185, 16.91923
3817.113, 19.11273
3819.042, 12.16382
3820.970, 15.99773
3822.899, 19.75238
3824.827, 20.06803
3826.756, 19.37153
3828.684, 15.83801
3830.613, 11.79445
3832.541, 18.90174
3834.469, 15.28485
3836.398, 15.50368
3838.326, 16.66910
3840.255, 20.37108
3842.183, 22.58722
3844.112, 15.96228
3846.040, 15.02982
3847.969, 13.59448
3849.897, 18.19335
3851.826, 13.81122
3853.754, 18.62782
3855.683, 22.81187
3857.611, 20.47322
3859.540, 21.63865
3861.468, 28.51862
3863.396, 14.75833
3865.325, 14.67409
3867.253, 21.60051
3869.182, 13.80409
3871.110, 12.23963
3873.039, 17.77707
3874.967, 18.45824
3876.896, 16.45242
3878.824, 18.42278
3880.753, 8.770221
3882.681, 15.33428
3884.610, 19.66701
3886.538, 18.55095
3888.467, 16.34434
3890.395, 17.66813
3892.323, 17.06642
3894.252, 8.469937
3896.180, 16.32801
3898.109, 15.69841
3900.037, 21.35281
3901.966, 17.68087
3903.894, 14.43018
3905.823, 14.50221
3907.751, 15.09956
3909.680, 14.88385
3911.608, 15.15017
3913.537, 21.10785
3915.465, 11.44528
3917.394, 11.43878
3919.322, 13.12815
3921.250, 16.46735
3923.179, 14.29063
3925.107, 14.26368
3927.036, 15.57240
3928.964, 13.70380
3930.893, 22.20075
3932.821, 6.663453
3934.750, 19.94127
3936.678, 17.42315
3938.607, 19.25158
3940.535, 13.59253
3942.464, 13.07505
3944.392, 15.06744
3946.321, 13.73652
3948.249, 16.29022
3950.177, 17.27423
3952.106, 16.64090
3954.034, 12.35270
3955.963, 16.84713
3957.891, 18.38461
3959.820, 13.92318
3961.748, 11.21043
3963.677, 10.57272
3965.605, 12.80924
3967.534, 18.28569
3969.462, 16.44922
3971.391, 12.43872
3973.319, 16.12199
3975.248, 13.71379
3977.176, 7.393172
3979.104, 13.83880
3981.033, 19.97226
3982.961, 14.57535
3984.890, 13.96217
3986.818, 20.44525
3988.747, 14.27274
3990.675, 12.43712
3992.604, 15.04664
3994.532, 16.96001
3996.461, 9.325131
3998.389, 13.80002
4000.318, 11.47090
4002.246, 14.88408
4004.175, 14.43409
4006.103, 9.940474
4008.031, 13.19019
4009.960, 19.13116
4011.888, 16.56160
4013.817, 15.40189
4015.745, 18.55032
4017.674, 14.19142
4019.602, 15.61762
4021.531, 10.80510
4023.459, 11.53092
4025.388, 18.24865
4027.316, 18.18452
4029.245, 12.34426
4031.173, 10.93480
4033.102, 13.54710
4035.030, 12.31252
4036.958, 5.705434
4038.887, 6.928035
4040.815, 7.337304
4042.744, 14.42358
4044.672, 17.94789
4046.601, 14.42470
4048.529, 12.89583
4050.458, 13.53140
4052.386, 16.32045
4054.315, 18.29966
4056.243, 13.16237
4058.172, 6.481956
4060.100, 9.222740
4062.029, 17.22501
4063.957, 15.17449
4065.885, 11.78248
4067.814, 22.21624
4069.742, 16.98056
4071.671, 18.25413
4073.599, 18.16625
4075.528, 16.73743
4077.456, 16.33770
4079.385, 18.52587
4081.313, 19.12257
4083.242, 14.50161
4085.170, 21.78640
4087.099, 19.05694
4089.027, 16.92521
4090.956, 17.54137
4092.884, 20.24786
4094.813, 14.15489
4096.741, 13.97130
4098.669, 14.27683
4100.598, 22.49996
4102.526, 19.34413
4104.455, 14.13343
4106.383, 14.11180
4108.312, 17.04853
4110.240, 21.10839
4112.168, 16.73465
4114.097, 17.38413
4116.025, 23.33004
4117.954, 13.27062
4119.882, 17.31391
4121.811, 18.46104
4123.739, 13.27489
4125.668, 17.26241
4127.596, 12.83739
4129.525, 16.54440
4131.453, 18.63904
4133.382, 13.61800
4135.310, 11.50878
4137.239, 12.03934
4139.167, 14.48754
4141.096, 21.20612
4143.024, 23.87580
4144.953, 21.72616
4146.881, 25.35129
4148.810, 23.64712
4150.738, 19.85937
4152.667, 13.46984
4154.595, 12.86455
4156.523, 22.36139
4158.452, 17.47289
4160.380, 10.82161
4162.309, 17.21118
4164.237, 19.37956
4166.166, 16.11919
4168.094, 16.73611
4170.022, 13.23048
4171.951, 14.90434
4173.879, 21.29173
4175.808, 17.14733
4177.736, 14.48582
4179.665, 19.76869
4181.593, 15.02527
4183.522, 14.97520
4185.450, 13.93660
4187.379, 15.86883
4189.307, 22.49215
4191.236, 12.91688
4193.164, 15.08676
4195.093, 8.962813
4197.021, 16.01932
4198.950, 18.55474
4200.878, 16.70156
4202.807, 17.10832
4204.735, 15.95481
4206.664, 14.58739
4208.592, 17.58636
4210.521, 18.19534
4212.449, 18.60294
4214.377, 17.37656
4216.306, 16.84673
4218.234, 20.20572
4220.163, 21.63781
4222.091, 24.61904
4224.020, 22.22030
4225.948, 21.21530
4227.876, 30.09307
4229.805, 18.90506
4231.733, 28.67824
4233.662, 26.33566
4235.590, 27.45502
4237.519, 20.97103
4239.447, 12.49062
4241.376, 17.19233
4243.304, 20.24282
4245.233, 21.57701
4247.161, 12.90536
4249.090, 21.02679
4251.018, 16.35369
4252.947, 10.62981
4254.875, 16.52215
4256.804, 19.89724
4258.732, 14.19999
4260.661, 10.79266
4262.589, 11.35323
4264.518, 12.18482
4266.446, 15.44764
4268.375, 12.35852
4270.303, 9.902421
4272.231, 12.10066
4274.160, 12.21030
4276.088, 13.38539
4278.017, 10.56529
4279.945, 12.59460
4281.874, 16.20803
4283.802, 11.78738
4285.730, 17.54505
4287.659, 19.37677
4289.587, 20.86201
4291.516, 10.75261
4293.444, 12.42107
4295.373, 6.138341
4297.301, 21.26513
4299.230, 20.13409
4301.158, 15.37097
4303.087, 22.59391
4305.015, 22.75497
4306.944, 12.74594
4308.872, 19.25177
4310.801, 15.64216
4312.729, 20.58278
4314.658, 17.58283
4316.586, 13.42269
4318.515, 17.22112
4320.443, 15.28056
4322.372, 13.21703
4324.300, 6.770440
4326.229, 16.05209
4328.157, 10.60552
4330.085, 12.67181
4332.014, 9.434977
4333.942, 12.50990
4335.871, 17.21245
4337.799, 15.86899
4339.728, 12.44669
4341.656, 8.734509
4343.584, 13.80951
4345.513, 18.55984
4347.441, 17.06685
4349.370, 13.54111
4351.298, 17.96575
4353.227, 13.02963
4355.155, 12.11515
4357.084, 13.68763
4359.012, 12.21478
4360.941, 8.379219
4362.869, 22.50670
4364.798, 18.04130
4366.726, 12.34936
4368.655, 14.08176
4370.583, 13.79870
4372.512, 19.63351
4374.440, 14.06121
4376.369, 15.84532
4378.297, 14.99043
4380.226, 15.13995
##END=



