##NAMES=Gowerite
##RRUFFID=R050673
##IDEAL CHEMISTRY=Ca[B_5_O_8_(OH)][B(OH)_3_]·3H_2_O
##LOCALITY=Death Valley, California, USA
##OWNER=RRUFF
##SOURCE=University of Arizona Mineral Museum
##DESCRIPTION=Colorless bladed crystals associated with gypsum and priceite
##STATUS=The identification of this mineral is confirmed by single-crystal X-ray diffraction and chemical analysis
##URL=https://www.rruff.net/odr/rruff_sample/R050673
##MEASURED CHEMISTRY=(Ca_0.98_Sr_0.02_)[B_5_O_8_(OH)][B(OH)_3_]·3H_2_O ; B not measured but estimated by stoichiometry
##DIFFRACTION SAMPLE DESCRIPTION=Single crystal, powder profile is calculated
##CELL PARAMETERS=a: 12.691 b: 16.319 c: 6.56 alpha: 90 beta: 120.22 gamma: 90 volume: 1174.3 crystal system: monoclinic
##FILETYPE=Raman Processed
##RAMAN WAVELENGTH=532

178.5562, 6229.707
180.4846, 6240.428
182.4131, 6249.541
184.3416, 6252.952
186.2701, 6250.342
188.1985, 6248.740
190.1270, 6248.438
192.0555, 6248.340
193.9839, 6246.719
195.9124, 6238.999
197.8409, 6235.917
199.7693, 6238.327
201.6978, 6246.692
203.6263, 6259.978
205.5547, 6282.804
207.4832, 6306.077
209.4117, 6323.821
211.3401, 6331.118
213.2686, 6338.871
215.1971, 6345.614
217.1255, 6352.663
219.0540, 6366.350
220.9825, 6390.080
222.9109, 6419.050
224.8394, 6452.258
226.7679, 6491.314
228.6963, 6524.653
230.6248, 6546.348
232.5533, 6560.657
234.4817, 6580.120
236.4102, 6606.895
238.3387, 6634.328
240.2671, 6661.448
242.1956, 6688.322
244.1241, 6718.883
246.0525, 6754.168
247.9810, 6793.923
249.9095, 6833.348
251.8379, 6870.435
253.7664, 6906.312
255.6949, 6948.429
257.6233, 7000.560
259.5518, 7049.557
261.4803, 7086.779
263.4087, 7118.148
265.3372, 7154.587
267.2657, 7201.631
269.1941, 7242.424
271.1226, 7270.581
273.0511, 7282.888
274.9795, 7299.453
276.9080, 7324.926
278.8365, 7353.963
280.7649, 7383.163
282.6934, 7414.854
284.6219, 7448.559
286.5503, 7486.860
288.4788, 7528.492
290.4073, 7561.230
292.3357, 7575.732
294.2642, 7581.403
296.1927, 7585.176
298.1211, 7587.438
300.0496, 7582.759
301.9781, 7564.815
303.9065, 7539.082
305.8350, 7519.625
307.7635, 7518.789
309.6919, 7520.603
311.6204, 7518.486
313.5489, 7511.606
315.4773, 7513.491
317.4058, 7531.572
319.3343, 7559.716
321.2627, 7588.316
323.1912, 7611.917
325.1197, 7636.486
327.0481, 7663.375
328.9766, 7691.827
330.9051, 7720.047
332.8336, 7744.187
334.7620, 7767.601
336.6905, 7794.077
338.6190, 7830.856
340.5474, 7862.316
342.4759, 7884.070
344.4044, 7900.152
346.3328, 7917.901
348.2613, 7938.871
350.1898, 7958.069
352.1182, 7971.739
354.0467, 7978.639
355.9752, 7982.159
357.9036, 7985.252
359.8321, 7986.142
361.7606, 7983.037
363.6890, 7972.221
365.6175, 7964.409
367.5460, 7961.689
369.4744, 7964.435
371.4029, 7973.293
373.3314, 7988.177
375.2598, 8006.055
377.1883, 8028.008
379.1168, 8056.833
381.0452, 8090.983
382.9737, 8130.069
384.9022, 8165.761
386.8306, 8187.913
388.7591, 8190.372
390.6876, 8194.958
392.6160, 8202.278
394.5445, 8210.371
396.4730, 8219.841
398.4014, 8238.546
400.3299, 8258.971
402.2584, 8276.406
404.1868, 8285.627
406.1153, 8302.960
408.0438, 8329.354
409.9722, 8358.867
411.9007, 8382.622
413.8292, 8396.725
415.7576, 8411.183
417.6861, 8427.475
419.6146, 8443.277
421.5430, 8451.109
423.4715, 8453.486
425.4000, 8459.686
427.3284, 8474.176
429.2569, 8498.137
431.1854, 8524.283
433.1138, 8553.704
435.0423, 8585.019
436.9708, 8613.728
438.8992, 8633.564
440.8277, 8658.443
442.7562, 8691.169
444.6846, 8731.172
446.6131, 8779.482
448.5416, 8846.970
450.4700, 8918.913
452.3985, 8985.350
454.3270, 9045.573
456.2554, 9094.659
458.1839, 9125.630
460.1124, 9142.866
462.0408, 9153.708
463.9693, 9153.732
465.8978, 9163.020
467.8262, 9195.049
469.7547, 9250.209
471.6832, 9313.735
473.6116, 9394.583
475.5401, 9472.287
477.4686, 9536.387
479.3970, 9580.077
481.3255, 9607.774
483.2540, 9604.004
485.1824, 9581.689
487.1109, 9553.064
489.0394, 9528.180
490.9678, 9502.682
492.8963, 9479.924
494.8248, 9465.701
496.7532, 9460.607
498.6817, 9463.369
500.6102, 9464.357
502.5386, 9460.221
504.4671, 9447.215
506.3956, 9428.100
508.3240, 9400.037
510.2525, 9370.653
512.1810, 9342.644
514.1094, 9317.303
516.0379, 9301.808
517.9664, 9300.091
519.8948, 9306.023
521.8233, 9312.494
523.7518, 9318.650
525.6802, 9328.632
527.6087, 9340.654
529.5372, 9354.103
531.4656, 9375.669
533.3941, 9413.421
535.3226, 9452.771
537.2510, 9488.503
539.1795, 9518.647
541.1080, 9546.221
543.0364, 9576.073
544.9649, 9604.719
546.8934, 9628.134
548.8218, 9641.436
550.7503, 9667.717
552.6788, 9711.381
554.6072, 9759.243
556.5357, 9799.406
558.4642, 9837.766
560.3926, 9884.682
562.3211, 9944.307
564.2496, 10003.24
566.1780, 10046.21
568.1065, 10073.07
570.0350, 10092.98
571.9634, 10106.91
573.8919, 10116.99
575.8204, 10124.31
577.7488, 10131.17
579.6773, 10138.88
581.6058, 10145.61
583.5342, 10154.90
585.4627, 10169.59
587.3912, 10183.98
589.3196, 10204.57
591.2481, 10237.74
593.1766, 10295.18
595.1050, 10346.97
597.0335, 10388.70
598.9620, 10420.05
600.8904, 10449.60
602.8189, 10475.88
604.7474, 10489.33
606.6758, 10486.84
608.6043, 10480.54
610.5328, 10473.49
612.4612, 10454.28
614.3897, 10441.14
616.3182, 10438.20
618.2466, 10446.49
620.1751, 10461.79
622.1036, 10489.61
624.0320, 10513.75
625.9605, 10528.90
627.8890, 10530.56
629.8174, 10528.26
631.7459, 10524.53
633.6744, 10520.76
635.6028, 10515.87
637.5313, 10505.98
639.4598, 10498.37
641.3882, 10497.61
643.3167, 10497.17
645.2452, 10488.56
647.1736, 10475.25
649.1021, 10474.58
651.0306, 10496.18
652.9590, 10521.53
654.8875, 10540.98
656.8160, 10551.67
658.7444, 10563.02
660.6729, 10577.06
662.6014, 10592.79
664.5298, 10608.49
666.4583, 10623.12
668.3868, 10636.47
670.3152, 10647.57
672.2437, 10658.09
674.1722, 10669.49
676.1006, 10685.08
678.0291, 10702.21
679.9576, 10723.65
681.8860, 10743.66
683.8145, 10759.44
685.7430, 10771.95
687.6714, 10786.59
689.5999, 10802.73
691.5284, 10816.67
693.4568, 10832.83
695.3853, 10848.82
697.3138, 10870.05
699.2422, 10899.23
701.1707, 10932.64
703.0992, 10963.38
705.0276, 10994.68
706.9561, 11016.55
708.8846, 11020.16
710.8130, 11012.13
712.7415, 11022.68
714.6700, 11061.80
716.5984, 11108.38
718.5269, 11158.12
720.4554, 11208.57
722.3839, 11259.15
724.3123, 11306.86
726.2408, 11355.57
728.1693, 11404.34
730.0977, 11453.25
732.0262, 11504.01
733.9547, 11556.37
735.8831, 11610.12
737.8116, 11666.10
739.7401, 11726.69
741.6685, 11785.38
743.5970, 11837.94
745.5255, 11893.24
747.4539, 11955.21
749.3824, 12025.23
751.3109, 12110.71
753.2393, 12216.84
755.1678, 12332.89
757.0963, 12459.01
759.0247, 12597.22
760.9532, 12709.81
762.8817, 12815.79
764.8101, 12877.55
766.7386, 12875.61
768.6671, 12810.47
770.5955, 12710.51
772.5240, 12543.65
774.4525, 12382.56
776.3809, 12259.87
778.3094, 12179.22
780.2379, 12115.82
782.1663, 12065.20
784.0948, 12030.37
786.0233, 12019.05
787.9517, 12029.45
789.8802, 12036.32
791.8087, 12039.93
793.7371, 12037.82
795.6656, 12026.16
797.5941, 12002.87
799.5225, 11995.41
801.4510, 12008.69
803.3795, 12033.48
805.3079, 12071.57
807.2364, 12121.30
809.1649, 12161.13
811.0933, 12181.76
813.0218, 12196.91
814.9503, 12213.11
816.8787, 12228.97
818.8072, 12239.10
820.7357, 12240.64
822.6641, 12240.47
824.5926, 12239.88
826.5211, 12240.98
828.4495, 12248.65
830.3780, 12264.25
832.3065, 12286.19
834.2349, 12318.18
836.1634, 12358.61
838.0919, 12391.01
840.0203, 12407.67
841.9488, 12426.94
843.8773, 12449.46
845.8057, 12472.01
847.7342, 12506.78
849.6627, 12563.78
851.5911, 12625.49
853.5196, 12677.21
855.4481, 12724.72
857.3765, 12777.74
859.3050, 12842.30
861.2335, 12903.85
863.1619, 12957.58
865.0904, 12996.07
867.0189, 13061.77
868.9473, 13171.12
870.8758, 13280.48
872.8043, 13364.88
874.7327, 13433.29
876.6612, 13512.60
878.5897, 13598.46
880.5181, 13719.12
882.4466, 13872.45
884.3751, 14039.96
886.3035, 14237.34
888.2320, 14475.68
890.1605, 14683.18
892.0889, 14862.50
894.0174, 15009.56
895.9459, 15051.09
897.8743, 14959.64
899.8028, 14793.13
901.7313, 14533.42
903.6597, 14217.45
905.5882, 13947.12
907.5167, 13727.85
909.4451, 13551.91
911.3736, 13425.11
913.3021, 13343.35
915.2305, 13288.35
917.1590, 13261.34
919.0875, 13244.77
921.0159, 13238.54
922.9444, 13237.78
924.8729, 13243.98
926.8013, 13258.19
928.7298, 13277.47
930.6583, 13301.35
932.5867, 13333.73
934.5152, 13370.44
936.4437, 13411.37
938.3721, 13461.62
940.3006, 13525.02
942.2291, 13588.86
944.1575, 13655.77
946.0860, 13726.42
948.0145, 13785.64
949.9429, 13835.03
951.8714, 13861.40
953.7999, 13854.92
955.7283, 13827.45
957.6568, 13792.41
959.5853, 13739.92
961.5137, 13685.96
963.4422, 13640.13
965.3707, 13614.26
967.2991, 13602.02
969.2276, 13594.87
971.1561, 13584.25
973.0845, 13568.84
975.0130, 13557.70
976.9415, 13551.09
978.8699, 13546.87
980.7984, 13548.42
982.7269, 13559.14
984.6553, 13574.54
986.5838, 13595.54
988.5123, 13623.21
990.4407, 13644.00
992.3692, 13651.46
994.2977, 13660.64
996.2261, 13684.31
998.1546, 13716.75
1000.083, 13740.17
1002.012, 13752.97
1003.940, 13765.74
1005.868, 13787.27
1007.797, 13804.50
1009.725, 13818.28
1011.654, 13835.27
1013.582, 13855.67
1015.511, 13876.80
1017.439, 13895.38
1019.368, 13912.04
1021.296, 13928.29
1023.225, 13944.86
1025.153, 13960.87
1027.082, 13980.78
1029.010, 14010.98
1030.939, 14036.79
1032.867, 14053.38
1034.796, 14063.95
1036.724, 14084.15
1038.652, 14119.12
1040.581, 14153.77
1042.509, 14175.77
1044.438, 14189.92
1046.366, 14210.64
1048.295, 14244.14
1050.223, 14274.31
1052.152, 14294.11
1054.080, 14310.63
1056.009, 14339.32
1057.937, 14392.27
1059.866, 14452.84
1061.794, 14480.12
1063.723, 14483.71
1065.651, 14501.19
1067.579, 14537.30
1069.508, 14565.29
1071.436, 14567.53
1073.365, 14562.04
1075.293, 14568.95
1077.222, 14585.66
1079.150, 14603.69
1081.079, 14617.85
1083.007, 14631.85
1084.936, 14655.37
1086.864, 14690.53
1088.793, 14730.49
1090.721, 14765.82
1092.650, 14787.85
1094.578, 14802.50
1096.506, 14826.88
1098.435, 14855.50
1100.363, 14878.23
1102.292, 14890.34
1104.220, 14898.66
1106.149, 14916.07
1108.077, 14940.18
1110.006, 14962.66
1111.934, 14985.43
1113.863, 15014.67
1115.791, 15045.62
1117.720, 15070.96
1119.648, 15107.20
1121.577, 15144.15
1123.505, 15166.85
1125.433, 15175.17
1127.362, 15189.91
1129.290, 15212.98
1131.219, 15239.90
1133.147, 15270.89
1135.076, 15305.08
1137.004, 15338.11
1138.933, 15371.72
1140.861, 15396.43
1142.790, 15411.18
1144.718, 15422.63
1146.647, 15433.58
1148.575, 15439.61
1150.504, 15439.15
1152.432, 15444.34
1154.360, 15454.45
1156.289, 15455.15
1158.217, 15448.98
1160.146, 15454.76
1162.074, 15477.41
1164.003, 15504.12
1165.931, 15538.53
1167.860, 15569.55
1169.788, 15590.83
1171.717, 15601.82
1173.645, 15631.26
1175.574, 15667.42
1177.502, 15697.00
1179.431, 15725.24
1181.359, 15754.51
1183.287, 15779.57
1185.216, 15799.08
1187.144, 15823.18
1189.073, 15843.52
1191.001, 15857.67
1192.930, 15871.78
1194.858, 15888.45
1196.787, 15906.17
1198.715, 15931.47
1200.644, 15964.89
1202.572, 16003.21
1204.501, 16049.41
1206.429, 16091.93
1208.358, 16117.83
1210.286, 16128.71
1212.214, 16143.04
1214.143, 16165.92
1216.071, 16192.39
1218.000, 16220.20
1219.928, 16240.14
1221.857, 16240.13
1223.785, 16240.56
1225.714, 16259.83
1227.642, 16294.91
1229.571, 16324.45
1231.499, 16339.68
1233.428, 16357.79
1235.356, 16390.83
1237.285, 16429.14
1239.213, 16461.86
1241.141, 16486.26
1243.070, 16509.61
1244.998, 16531.03
1246.927, 16559.07
1248.855, 16598.54
1250.784, 16646.23
1252.712, 16685.06
1254.641, 16709.49
1256.569, 16736.32
1258.498, 16782.11
1260.426, 16827.69
1262.355, 16853.55
1264.283, 16862.13
1266.212, 16875.64
1268.140, 16896.72
1270.068, 16916.15
1271.997, 16935.44
1273.925, 16959.53
1275.854, 16984.86
1277.782, 17009.48
1279.711, 17036.87
1281.639, 17073.98
1283.568, 17111.93
1285.496, 17146.74
1287.425, 17178.07
1289.353, 17207.16
1291.282, 17232.97
1293.210, 17254.23
1295.139, 17264.16
1297.067, 17279.94
1298.995, 17310.18
1300.924, 17349.48
1302.852, 17377.82
1304.781, 17389.34
1306.709, 17404.03
1308.638, 17432.39
1310.566, 17468.54
1312.495, 17499.25
1314.423, 17518.55
1316.352, 17539.63
1318.280, 17565.06
1320.209, 17598.60
1322.137, 17639.90
1324.066, 17681.76
1325.994, 17717.57
1327.922, 17751.96
1329.851, 17776.83
1331.779, 17778.04
1333.708, 17779.35
1335.636, 17797.98
1337.565, 17835.31
1339.493, 17877.13
1341.422, 17923.44
1343.350, 17965.59
1345.279, 18003.63
1347.207, 18036.41
1349.136, 18059.97
1351.064, 18077.63
1352.993, 18099.99
1354.921, 18126.90
1356.849, 18159.41
1358.778, 18207.05
1360.706, 18258.44
1362.635, 18296.96
1364.563, 18318.09
1366.492, 18347.79
1368.420, 18397.72
1370.349, 18446.71
1372.277, 18482.60
1374.206, 18510.23
1376.134, 18540.94
1378.063, 18574.87
1379.991, 18608.76
1381.920, 18645.44
1383.848, 18675.88
1385.776, 18698.07
1387.705, 18712.25
1389.633, 18721.53
1391.562, 18727.73
1393.490, 18734.50
1395.419, 18741.90
1397.347, 18754.91
1399.276, 18776.42
1401.204, 18804.66
1403.133, 18836.23
1405.061, 18869.90
1406.990, 18901.67
1408.918, 18934.90
1410.847, 18957.79
1412.775, 18955.03
1414.703, 18942.50
1416.632, 18954.17
1418.560, 19004.14
1420.489, 19040.11
1422.417, 19042.62
1424.346, 19050.97
1426.274, 19086.86
1428.203, 19140.10
1430.131, 19186.52
1432.060, 19225.96
1433.988, 19258.29
1435.917, 19280.40
1437.845, 19298.19
1439.774, 19306.60
1441.702, 19312.59
1443.630, 19337.00
1445.559, 19383.81
1447.487, 19418.60
1449.416, 19422.26
1451.344, 19432.70
1453.273, 19475.60
1455.201, 19535.25
1457.130, 19587.65
1459.058, 19633.21
1460.987, 19667.53
1462.915, 19681.37
1464.844, 19693.69
1466.772, 19708.88
1468.701, 19727.82
1470.629, 19759.55
1472.557, 19808.28
1474.486, 19842.44
1476.414, 19851.06
1478.343, 19858.24
1480.271, 19872.96
1482.200, 19894.45
1484.128, 19917.32
1486.057, 19937.11
1487.985, 19967.83
1489.914, 20015.30
1491.842, 20060.06
1493.771, 20095.82
1495.699, 20126.76
1497.628, 20157.19
1499.556, 20186.07
1501.484, 20205.86
1503.413, 20212.38
1505.341, 20225.75
1507.270, 20254.35
1509.198, 20289.02
1511.127, 20323.82
1513.055, 20357.32
1514.984, 20384.54
1516.912, 20401.10
1518.841, 20419.48
1520.769, 20441.13
1522.698, 20463.63
1524.626, 20485.06
1526.555, 20506.24
1528.483, 20535.50
1530.411, 20579.26
1532.340, 20613.10
1534.268, 20617.30
1536.197, 20627.62
1538.125, 20675.30
1540.054, 20737.55
1541.982, 20777.74
1543.911, 20795.70
1545.839, 20804.78
1547.768, 20794.08
1549.696, 20795.76
1551.625, 20835.21
1553.553, 20887.23
1555.482, 20927.35
1557.410, 20956.02
1559.339, 20973.25
1561.267, 20970.99
1563.195, 20969.63
1565.124, 20973.55
1567.052, 20984.60
1568.981, 21008.58
1570.909, 21040.49
1572.838, 21058.56
1574.766, 21057.07
1576.695, 21068.32
1578.623, 21104.81
1580.552, 21148.71
1582.480, 21199.87
1584.409, 21250.55
1586.337, 21282.88
1588.266, 21287.20
1590.194, 21305.82
1592.122, 21346.58
1594.051, 21386.32
1595.979, 21421.06
1597.908, 21452.00
1599.836, 21480.11
1601.765, 21505.25
1603.693, 21527.83
1605.622, 21551.34
1607.550, 21572.93
1609.479, 21589.66
1611.407, 21607.77
1613.336, 21634.93
1615.264, 21666.08
1617.193, 21690.47
1619.121, 21708.48
1621.049, 21716.29
1622.978, 21690.99
1624.906, 21686.17
1626.835, 21731.43
1628.763, 21787.61
1630.692, 21815.87
1632.620, 21821.35
1634.549, 21842.61
1636.477, 21889.53
1638.406, 21934.09
1640.334, 21967.11
1642.263, 22007.04
1644.191, 22064.07
1646.120, 22128.59
1648.048, 22186.50
1649.976, 22234.19
1651.905, 22274.86
1653.833, 22303.35
1655.762, 22327.14
1657.690, 22355.00
1659.619, 22373.84
1661.547, 22374.01
1663.476, 22363.18
1665.404, 22356.64
1667.333, 22356.85
1669.261, 22366.05
1671.190, 22392.82
1673.118, 22419.02
1675.047, 22427.68
1676.975, 22440.07
1678.903, 22476.92
1680.832, 22533.72
1682.760, 22592.46
1684.689, 22651.57
1686.617, 22707.32
1688.546, 22762.12
1690.474, 22805.54
1692.403, 22830.41
1694.331, 22844.06
1696.260, 22857.69
1698.188, 22872.32
1700.117, 22876.23
1702.045, 22861.85
1703.974, 22868.21
1705.902, 22928.34
1707.830, 22982.07
1709.759, 22979.93
1711.687, 22959.76
1713.616, 22987.36
1715.544, 23057.82
1717.473, 23097.87
1719.401, 23090.05
1721.330, 23090.49
1723.258, 23127.75
1725.187, 23162.87
1727.115, 23173.92
1729.044, 23171.49
1730.972, 23168.78
1732.901, 23165.81
1734.829, 23173.66
1736.757, 23192.44
1738.686, 23219.33
1740.614, 23260.80
1742.543, 23300.97
1744.471, 23328.54
1746.400, 23349.66
1748.328, 23375.03
1750.257, 23405.20
1752.185, 23439.38
1754.114, 23483.98
1756.042, 23521.84
1757.971, 23540.47
1759.899, 23561.41
1761.828, 23591.22
1763.756, 23632.14
1765.684, 23698.10
1767.613, 23789.82
1769.541, 23837.92
1771.470, 23808.31
1773.398, 23801.04
1775.327, 23841.80
1777.255, 23893.29
1779.184, 23948.90
1781.112, 23997.49
1783.041, 24017.55
1784.969, 24009.90
1786.898, 24015.44
1788.826, 24050.16
1790.755, 24067.12
1792.683, 24055.24
1794.611, 24041.44
1796.540, 24038.63
1798.468, 24042.75
1800.397, 24045.10
1802.325, 24049.74
1804.254, 24077.33
1806.182, 24138.59
1808.111, 24193.47
1810.039, 24230.80
1811.968, 24269.13
1813.896, 24317.66
1815.825, 24360.98
1817.753, 24391.80
1819.682, 24409.90
1821.610, 24406.04
1823.538, 24369.86
1825.467, 24375.50
1827.395, 24456.23
1829.324, 24520.63
1831.252, 24523.96
1833.181, 24536.41
1835.109, 24611.29
1837.038, 24702.36
1838.966, 24741.80
1840.895, 24732.71
1842.823, 24724.67
1844.752, 24717.24
1846.680, 24723.42
1848.609, 24753.53
1850.537, 24785.71
1852.465, 24809.82
1854.394, 24831.10
1856.322, 24858.69
1858.251, 24883.31
1860.179, 24881.30
1862.108, 24853.13
1864.036, 24825.38
1865.965, 24803.35
1867.893, 24786.47
1869.822, 24771.51
1871.750, 24773.13
1873.679, 24810.94
1875.607, 24862.29
1877.536, 24892.17
1879.464, 24907.08
1881.392, 24944.42
1883.321, 25005.96
1885.249, 25060.87
1887.178, 25103.87
1889.106, 25137.61
1891.035, 25161.68
1892.963, 25180.24
1894.892, 25195.95
1896.820, 25211.54
1898.749, 25233.94
1900.677, 25264.01
1902.606, 25279.53
1904.534, 25266.00
1906.463, 25270.84
1908.391, 25311.06
1910.319, 25348.45
1912.248, 25364.83
1914.176, 25380.11
1916.105, 25408.81
1918.033, 25445.73
1919.962, 25480.78
1921.890, 25511.79
1923.819, 25544.48
1925.747, 25583.02
1927.676, 25607.61
1929.604, 25613.93
1931.533, 25612.35
1933.461, 25608.22
1935.390, 25601.34
1937.318, 25587.10
1939.246, 25574.09
1941.175, 25579.88
1943.103, 25602.94
1945.032, 25626.29
1946.960, 25649.12
1948.889, 25664.30
1950.817, 25659.91
1952.746, 25666.16
1954.674, 25704.42
1956.603, 25746.35
1958.531, 25772.50
1960.460, 25787.73
1962.388, 25798.09
1964.317, 25804.71
1966.245, 25818.26
1968.173, 25842.11
1970.102, 25868.09
1972.030, 25900.55
1973.959, 25932.96
1975.887, 25960.12
1977.816, 25991.41
1979.744, 26029.73
1981.673, 26073.04
1983.601, 26123.50
1985.530, 26174.77
1987.458, 26203.12
1989.387, 26203.71
1991.315, 26193.68
1993.244, 26165.54
1995.172, 26150.12
1997.100, 26166.97
1999.029, 26185.92
2000.957, 26197.71
2002.886, 26209.22
2004.814, 26223.47
2006.743, 26243.77
2008.671, 26280.05
2010.600, 26328.28
2012.528, 26354.75
2014.457, 26348.83
2016.385, 26358.98
2018.314, 26396.56
2020.242, 26437.96
2022.171, 26488.26
2024.099, 26523.59
2026.027, 26516.67
2027.956, 26499.23
2029.884, 26517.92
2031.813, 26559.97
2033.741, 26572.06
2035.670, 26548.43
2037.598, 26542.77
2039.527, 26562.53
2041.455, 26584.68
2043.384, 26608.53
2045.312, 26631.17
2047.241, 26644.33
2049.169, 26663.12
2051.098, 26702.28
2053.026, 26748.14
2054.955, 26789.54
2056.883, 26822.46
2058.812, 26827.18
2060.740, 26803.88
2062.668, 26801.16
2064.597, 26829.95
2066.525, 26849.99
2068.454, 26841.64
2070.382, 26841.80
2072.311, 26863.14
2074.239, 26896.04
2076.168, 26954.70
2078.096, 27007.43
2080.025, 27002.94
2081.953, 26960.94
2083.882, 26947.97
2085.810, 26966.97
2087.739, 26994.10
2089.667, 27031.36
2091.595, 27065.61
2093.524, 27088.95
2095.452, 27114.56
2097.381, 27152.46
2099.309, 27179.65
2101.238, 27177.37
2103.166, 27167.53
2105.095, 27178.07
2107.023, 27197.31
2108.952, 27197.05
2110.880, 27183.05
2112.809, 27184.71
2114.737, 27204.03
2116.666, 27226.19
2118.594, 27248.04
2120.522, 27267.74
2122.451, 27276.77
2124.379, 27290.83
2126.308, 27319.34
2128.236, 27351.73
2130.165, 27389.46
2132.093, 27423.27
2134.022, 27432.59
2135.950, 27429.27
2137.879, 27452.84
2139.807, 27496.33
2141.736, 27506.40
2143.664, 27474.08
2145.593, 27464.96
2147.521, 27505.63
2149.449, 27538.44
2151.378, 27539.02
2153.306, 27555.92
2155.235, 27608.05
2157.163, 27679.25
2159.092, 27769.25
2161.020, 27852.62
2162.949, 27892.34
2164.877, 27895.79
2166.806, 27890.94
2168.734, 27878.66
2170.663, 27874.19
2172.591, 27885.01
2174.520, 27886.20
2176.448, 27878.24
2178.376, 27869.02
2180.305, 27852.10
2182.233, 27848.93
2184.162, 27868.34
2186.090, 27896.82
2188.019, 27935.25
2189.947, 27969.16
2191.876, 27975.40
2193.804, 27975.22
2195.733, 28013.92
2197.661, 28083.73
2199.590, 28130.48
2201.518, 28150.91
2203.447, 28172.94
2205.375, 28195.22
2207.303, 28216.74
2209.232, 28240.49
2211.160, 28254.12
2213.089, 28246.13
2215.017, 28249.69
2216.946, 28294.72
2218.874, 28340.80
2220.803, 28350.62
2222.731, 28354.74
2224.660, 28386.18
2226.588, 28431.29
2228.517, 28468.49
2230.445, 28496.90
2232.374, 28518.50
2234.302, 28535.05
2236.230, 28534.62
2238.159, 28514.82
2240.087, 28511.30
2242.016, 28534.34
2243.944, 28556.04
2245.873, 28559.10
2247.801, 28573.42
2249.730, 28625.72
2251.658, 28669.03
2253.587, 28672.57
2255.515, 28664.55
2257.444, 28660.55
2259.372, 28667.27
2261.301, 28697.32
2263.229, 28743.78
2265.157, 28794.48
2267.086, 28844.44
2269.014, 28862.90
2270.943, 28848.61
2272.871, 28848.77
2274.800, 28869.96
2276.728, 28898.43
2278.657, 28940.87
2280.585, 28975.33
2282.514, 28999.42
2284.442, 29009.82
2286.371, 28985.06
2288.299, 28969.62
2290.228, 29003.37
2292.156, 29038.54
2294.084, 29030.13
2296.013, 29012.67
2297.941, 29028.35
2299.870, 29063.98
2301.798, 29093.08
2303.727, 29116.47
2305.655, 29143.32
2307.584, 29173.93
2309.512, 29189.34
2311.441, 29185.73
2313.369, 29186.37
2315.298, 29197.19
2317.226, 29199.38
2319.155, 29177.16
2321.083, 29179.90
2323.011, 29234.72
2324.940, 29282.04
2326.868, 29294.19
2328.797, 29290.34
2330.725, 29267.66
2332.654, 29251.03
2334.582, 29272.19
2336.511, 29307.29
2338.439, 29332.86
2340.368, 29348.03
2342.296, 29335.71
2344.225, 29310.38
2346.153, 29331.45
2348.082, 29390.63
2350.010, 29436.36
2351.938, 29465.59
2353.867, 29477.53
2355.795, 29459.71
2357.724, 29464.69
2359.652, 29517.36
2361.581, 29552.75
2363.509, 29557.84
2365.438, 29560.19
2367.366, 29558.81
2369.295, 29567.26
2371.223, 29604.28
2373.152, 29632.74
2375.080, 29627.99
2377.009, 29612.98
2378.937, 29602.23
2380.865, 29594.13
2382.794, 29578.39
2384.722, 29570.91
2386.651, 29610.00
2388.579, 29671.64
2390.508, 29680.32
2392.436, 29656.38
2394.365, 29693.37
2396.293, 29781.36
2398.222, 29832.67
2400.150, 29840.47
2402.079, 29852.24
2404.007, 29870.61
2405.936, 29891.29
2407.864, 29912.54
2409.792, 29939.93
2411.721, 29978.76
2413.649, 30009.35
2415.578, 30022.85
2417.506, 30037.87
2419.435, 30069.29
2421.363, 30088.38
2423.292, 30069.66
2425.220, 30054.43
2427.149, 30071.90
2429.077, 30095.47
2431.006, 30108.20
2432.934, 30115.91
2434.863, 30118.47
2436.791, 30124.07
2438.719, 30145.48
2440.648, 30175.30
2442.576, 30199.41
2444.505, 30223.22
2446.433, 30269.21
2448.362, 30328.27
2450.290, 30345.26
2452.219, 30321.09
2454.147, 30316.38
2456.076, 30330.63
2458.004, 30366.90
2459.933, 30425.46
2461.861, 30470.52
2463.790, 30498.71
2465.718, 30504.12
2467.646, 30467.99
2469.575, 30448.32
2471.503, 30461.20
2473.432, 30478.07
2475.360, 30503.60
2477.289, 30526.95
2479.217, 30532.10
2481.146, 30566.12
2483.074, 30671.01
2485.003, 30763.05
2486.931, 30793.08
2488.860, 30804.79
2490.788, 30816.44
2492.717, 30823.26
2494.645, 30827.04
2496.573, 30825.25
2498.502, 30810.11
2500.430, 30799.17
2502.359, 30815.04
2504.287, 30838.66
2506.216, 30843.46
2508.144, 30837.45
2510.073, 30835.56
2512.001, 30833.90
2513.930, 30824.68
2515.858, 30810.60
2517.787, 30798.00
2519.715, 30788.76
2521.644, 30783.90
2523.572, 30785.04
2525.500, 30800.48
2527.429, 30829.78
2529.357, 30875.16
2531.286, 30943.50
2533.214, 30957.90
2535.143, 30911.24
2537.071, 30921.04
2539.000, 31003.32
2540.928, 31031.68
2542.857, 30969.00
2544.785, 30951.87
2546.714, 31035.81
2548.642, 31091.25
2550.571, 31100.92
2552.499, 31120.42
2554.427, 31163.39
2556.356, 31193.69
2558.284, 31197.02
2560.213, 31203.06
2562.141, 31210.25
2564.070, 31237.57
2565.998, 31320.34
2567.927, 31376.34
2569.855, 31350.44
2571.784, 31340.72
2573.712, 31390.10
2575.641, 31439.75
2577.569, 31455.75
2579.498, 31467.49
2581.426, 31494.92
2583.354, 31516.39
2585.283, 31510.03
2587.211, 31510.91
2589.140, 31566.44
2591.068, 31618.79
2592.997, 31622.91
2594.925, 31615.60
2596.854, 31607.82
2598.782, 31616.17
2600.711, 31667.38
2602.639, 31722.40
2604.568, 31735.23
2606.496, 31729.61
2608.425, 31729.62
2610.353, 31739.92
2612.281, 31780.81
2614.210, 31829.83
2616.138, 31853.32
2618.067, 31860.71
2619.995, 31854.14
2621.924, 31845.39
2623.852, 31864.88
2625.781, 31894.65
2627.709, 31894.93
2629.638, 31885.10
2631.566, 31908.30
2633.495, 31955.45
2635.423, 32011.06
2637.352, 32064.03
2639.280, 32066.48
2641.208, 32036.82
2643.137, 32037.82
2645.065, 32061.55
2646.994, 32088.72
2648.922, 32115.78
2650.851, 32124.38
2652.779, 32119.82
2654.708, 32124.03
2656.636, 32137.24
2658.565, 32155.92
2660.493, 32178.77
2662.422, 32199.53
2664.350, 32218.95
2666.279, 32253.29
2668.207, 32297.79
2670.135, 32307.41
2672.064, 32285.52
2673.992, 32276.32
2675.921, 32279.43
2677.849, 32288.29
2679.778, 32302.82
2681.706, 32302.66
2683.635, 32291.04
2685.563, 32309.91
2687.492, 32357.26
2689.420, 32400.40
2691.349, 32435.00
2693.277, 32440.54
2695.206, 32417.10
2697.134, 32414.72
2699.063, 32433.84
2700.991, 32453.73
2702.919, 32476.25
2704.848, 32501.01
2706.776, 32527.22
2708.705, 32531.59
2710.633, 32513.70
2712.562, 32509.08
2714.490, 32515.89
2716.419, 32546.99
2718.347, 32599.48
2720.276, 32643.14
2722.204, 32678.35
2724.133, 32701.96
2726.061, 32718.53
2727.990, 32779.69
2729.918, 32879.99
2731.846, 32918.37
2733.775, 32902.41
2735.703, 32906.12
2737.632, 32925.91
2739.560, 32933.47
2741.489, 32932.13
2743.417, 32942.63
2745.346, 32964.44
2747.274, 32987.36
2749.203, 33010.23
2751.131, 33024.80
2753.060, 33032.96
2754.988, 33043.23
2756.917, 33058.54
2758.845, 33100.64
2760.773, 33158.43
2762.702, 33178.16
2764.630, 33173.73
2766.559, 33179.17
2768.487, 33194.40
2770.416, 33216.74
2772.344, 33246.51
2774.273, 33305.13
2776.201, 33364.77
2778.130, 33356.90
2780.058, 33307.02
2781.987, 33243.64
2783.915, 33191.54
2785.844, 33209.35
2787.772, 33257.91
2789.700, 33265.80
2791.629, 33264.60
2793.557, 33306.65
2795.486, 33357.57
2797.414, 33373.09
2799.343, 33372.10
2801.271, 33369.68
2803.200, 33368.60
2805.128, 33376.40
2807.057, 33385.04
2808.985, 33399.22
2810.914, 33402.22
2812.842, 33359.55
2814.771, 33331.71
2816.699, 33387.22
2818.627, 33448.13
2820.556, 33455.88
2822.484, 33470.27
2824.413, 33538.13
2826.341, 33600.17
2828.270, 33611.95
2830.198, 33619.42
2832.127, 33636.97
2834.055, 33654.91
2835.984, 33672.63
2837.912, 33687.74
2839.841, 33710.72
2841.769, 33721.43
2843.698, 33712.84
2845.626, 33708.47
2847.554, 33714.86
2849.483, 33718.20
2851.411, 33708.48
2853.340, 33707.43
2855.268, 33710.16
2857.197, 33739.19
2859.125, 33801.31
2861.054, 33852.20
2862.982, 33885.80
2864.911, 33926.30
2866.839, 33981.19
2868.768, 34018.82
2870.696, 34037.84
2872.625, 34055.52
2874.553, 34072.09
2876.481, 34108.63
2878.410, 34159.88
2880.338, 34186.87
2882.267, 34191.71
2884.195, 34189.59
2886.124, 34185.14
2888.052, 34191.23
2889.981, 34207.47
2891.909, 34238.06
2893.838, 34268.92
2895.766, 34244.32
2897.695, 34218.82
2899.623, 34293.43
2901.552, 34385.46
2903.480, 34396.27
2905.408, 34385.20
2907.337, 34407.50
2909.265, 34439.05
2911.194, 34464.63
2913.122, 34497.69
2915.051, 34554.38
2916.979, 34612.78
2918.908, 34675.77
2920.836, 34710.31
2922.765, 34679.92
2924.693, 34681.25
2926.622, 34769.10
2928.550, 34829.57
2930.479, 34810.75
2932.407, 34817.15
2934.335, 34863.89
2936.264, 34894.80
2938.192, 34898.15
2940.121, 34918.49
2942.049, 34960.54
2943.978, 35012.57
2945.906, 35075.05
2947.835, 35100.35
2949.763, 35097.16
2951.692, 35102.07
2953.620, 35124.92
2955.549, 35215.04
2957.477, 35337.88
2959.406, 35391.32
2961.334, 35411.29
2963.262, 35454.37
2965.191, 35502.99
2967.119, 35539.07
2969.048, 35567.19
2970.976, 35592.14
2972.905, 35617.44
2974.833, 35640.30
2976.762, 35678.12
2978.690, 35772.34
2980.619, 35828.91
2982.547, 35788.10
2984.476, 35781.55
2986.404, 35866.54
2988.333, 35933.32
2990.261, 35946.57
2992.189, 35959.69
2994.118, 35974.40
2996.046, 35991.01
2997.975, 36011.80
2999.903, 36027.47
3001.832, 36041.41
3003.760, 36058.22
3005.689, 36078.61
3007.617, 36091.18
3009.546, 36100.33
3011.474, 36106.90
3013.403, 36124.80
3015.331, 36202.05
3017.260, 36284.97
3019.188, 36310.87
3021.116, 36317.20
3023.045, 36336.59
3024.973, 36354.23
3026.902, 36354.58
3028.830, 36367.21
3030.759, 36413.02
3032.687, 36450.77
3034.616, 36452.64
3036.544, 36474.79
3038.473, 36530.52
3040.401, 36562.32
3042.330, 36558.05
3044.258, 36578.91
3046.187, 36627.13
3048.115, 36718.07
3050.043, 36831.54
3051.972, 36797.79
3053.900, 36686.36
3055.829, 36724.13
3057.757, 36825.27
3059.686, 36827.09
3061.614, 36794.41
3063.543, 36781.46
3065.471, 36793.32
3067.400, 36860.84
3069.328, 36904.80
3071.257, 36839.10
3073.185, 36819.67
3075.114, 36917.41
3077.042, 37007.37
3078.970, 37061.19
3080.899, 37098.05
3082.827, 37119.73
3084.756, 37136.18
3086.684, 37150.60
3088.613, 37199.74
3090.541, 37277.80
3092.470, 37336.24
3094.398, 37372.73
3096.327, 37368.15
3098.255, 37350.23
3100.184, 37358.60
3102.112, 37379.56
3104.041, 37391.70
3105.969, 37427.15
3107.897, 37535.48
3109.826, 37627.47
3111.754, 37647.70
3113.683, 37678.66
3115.611, 37734.13
3117.540, 37782.30
3119.468, 37813.62
3121.397, 37842.36
3123.325, 37870.87
3125.254, 37873.95
3127.182, 37864.06
3129.111, 37893.03
3131.039, 37946.04
3132.968, 37982.26
3134.896, 38015.34
3136.824, 38064.61
3138.753, 38113.23
3140.681, 38140.81
3142.610, 38169.82
3144.538, 38211.80
3146.467, 38253.60
3148.395, 38301.41
3150.324, 38314.25
3152.252, 38262.13
3154.181, 38254.07
3156.109, 38293.82
3158.038, 38298.01
3159.966, 38275.90
3161.895, 38295.81
3163.823, 38342.46
3165.751, 38371.57
3167.680, 38398.14
3169.608, 38443.86
3171.537, 38485.43
3173.465, 38509.68
3175.394, 38507.68
3177.322, 38465.34
3179.251, 38430.63
3181.179, 38432.24
3183.108, 38426.43
3185.036, 38413.04
3186.965, 38405.83
3188.893, 38405.26
3190.822, 38397.72
3192.750, 38385.25
3194.678, 38386.95
3196.607, 38392.93
3198.535, 38403.67
3200.464, 38398.18
3202.392, 38338.21
3204.321, 38295.16
3206.249, 38307.38
3208.178, 38338.46
3210.106, 38394.68
3212.035, 38412.49
3213.963, 38372.70
3215.892, 38371.29
3217.820, 38407.40
3219.749, 38423.45
3221.677, 38419.41
3223.605, 38379.29
3225.534, 38344.16
3227.462, 38398.15
3229.391, 38452.15
3231.319, 38430.98
3233.248, 38372.34
3235.176, 38276.36
3237.105, 38196.23
3239.033, 38151.33
3240.962, 38125.67
3242.890, 38120.89
3244.819, 38134.80
3246.747, 38165.48
3248.676, 38187.12
3250.604, 38204.40
3252.532, 38232.71
3254.461, 38255.36
3256.389, 38240.14
3258.318, 38226.91
3260.246, 38251.26
3262.175, 38260.87
3264.103, 38236.54
3266.032, 38223.64
3267.960, 38247.81
3269.889, 38230.70
3271.817, 38180.95
3273.746, 38162.01
3275.674, 38170.64
3277.603, 38212.17
3279.531, 38251.30
3281.459, 38243.52
3283.388, 38212.23
3285.316, 38136.60
3287.245, 38115.61
3289.173, 38207.00
3291.102, 38249.09
3293.030, 38207.41
3294.959, 38177.80
3296.887, 38161.07
3298.816, 38115.52
3300.744, 38054.04
3302.673, 38004.74
3304.601, 37967.62
3306.530, 37936.84
3308.458, 37927.92
3310.386, 37953.22
3312.315, 37979.37
3314.243, 37994.25
3316.172, 37992.91
3318.100, 37974.33
3320.029, 37914.47
3321.957, 37831.52
3323.886, 37811.88
3325.814, 37826.92
3327.743, 37822.52
3329.671, 37810.30
3331.600, 37773.41
3333.528, 37764.52
3335.457, 37815.93
3337.385, 37825.64
3339.313, 37755.96
3341.242, 37683.77
3343.170, 37615.68
3345.099, 37605.33
3347.027, 37623.54
3348.956, 37590.20
3350.884, 37544.99
3352.813, 37527.79
3354.741, 37523.84
3356.670, 37521.86
3358.598, 37542.83
3360.527, 37599.26
3362.455, 37598.93
3364.384, 37531.50
3366.312, 37531.43
3368.240, 37568.59
3370.169, 37532.40
3372.097, 37472.92
3374.026, 37444.09
3375.954, 37425.67
3377.883, 37406.09
3379.811, 37401.03
3381.740, 37431.63
3383.668, 37403.52
3385.597, 37311.27
3387.525, 37297.94
3389.454, 37337.81
3391.382, 37353.17
3393.311, 37358.34
3395.239, 37364.54
3397.167, 37379.93
3399.096, 37434.41
3401.024, 37446.63
3402.953, 37396.20
3404.881, 37348.03
3406.810, 37308.59
3408.738, 37300.19
3410.667, 37315.68
3412.595, 37366.32
3414.524, 37395.63
3416.452, 37343.68
3418.381, 37264.70
3420.309, 37164.80
3422.238, 37114.16
3424.166, 37137.79
3426.094, 37172.88
3428.023, 37213.30
3429.951, 37214.95
3431.880, 37203.81
3433.808, 37226.48
3435.737, 37249.51
3437.665, 37263.29
3439.594, 37237.95
3441.522, 37126.24
3443.451, 37083.74
3445.379, 37116.19
3447.308, 37079.24
3449.236, 37007.81
3451.165, 37015.09
3453.093, 37043.73
3455.021, 37026.66
3456.950, 37008.57
3458.878, 37002.00
3460.807, 37017.74
3462.735, 37060.32
3464.664, 37048.71
3466.592, 36993.59
3468.521, 36957.35
3470.449, 36932.62
3472.378, 36908.55
3474.306, 36889.09
3476.235, 36866.96
3478.163, 36869.49
3480.092, 36904.72
3482.020, 36912.63
3483.948, 36889.53
3485.877, 36898.94
3487.805, 36917.34
3489.734, 36925.07
3491.662, 36897.00
3493.591, 36798.39
3495.519, 36717.84
3497.448, 36688.78
3499.376, 36674.10
3501.305, 36670.45
3503.233, 36689.34
3505.162, 36709.90
3507.090, 36700.16
3509.019, 36659.63
3510.947, 36572.13
3512.875, 36509.96
3514.804, 36517.53
3516.732, 36523.52
3518.661, 36527.63
3520.589, 36512.80
3522.518, 36497.46
3524.446, 36542.00
3526.375, 36575.05
3528.303, 36513.66
3530.232, 36477.25
3532.160, 36501.39
3534.089, 36531.48
3536.017, 36562.20
3537.946, 36547.65
3539.874, 36515.18
3541.802, 36527.76
3543.731, 36531.75
3545.659, 36459.20
3547.588, 36431.32
3549.516, 36486.54
3551.445, 36462.99
3553.373, 36367.14
3555.302, 36368.69
3557.230, 36404.48
3559.159, 36361.13
3561.087, 36334.66
3563.016, 36399.48
3564.944, 36415.67
3566.873, 36334.47
3568.801, 36293.16
3570.729, 36285.25
3572.658, 36276.55
3574.586, 36265.87
3576.515, 36244.32
3578.443, 36232.09
3580.372, 36237.02
3582.300, 36246.60
3584.229, 36259.77
3586.157, 36216.22
3588.086, 36138.84
3590.014, 36070.30
3591.943, 36028.80
3593.871, 36036.73
3595.800, 36056.10
3597.728, 36079.88
3599.656, 36102.95
3601.585, 36118.14
3603.513, 36082.98
3605.442, 36025.77
3607.370, 35977.60
3609.299, 35948.36
3611.227, 35960.11
3613.156, 35960.05
3615.084, 35945.23
3617.013, 35920.80
3618.941, 35888.57
3620.870, 35828.27
3622.798, 35791.34
3624.727, 35826.47
3626.655, 35869.78
3628.583, 35905.63
3630.512, 35931.48
3632.440, 35946.06
3634.369, 35962.77
3636.297, 35963.71
3638.226, 35922.59
3640.154, 35868.38
3642.083, 35812.10
3644.011, 35754.66
3645.940, 35701.09
3647.868, 35690.14
3649.797, 35700.12
3651.725, 35691.66
3653.654, 35668.12
3655.582, 35613.07
3657.510, 35580.63
3659.439, 35578.09
3661.367, 35574.82
3663.296, 35563.50
3665.224, 35495.66
3667.153, 35448.25
3669.081, 35514.15
3671.010, 35542.73
3672.938, 35497.22
3674.867, 35471.78
3676.795, 35466.63
3678.724, 35465.05
3680.652, 35453.59
3682.581, 35400.39
3684.509, 35377.18
3686.438, 35407.44
3688.366, 35448.84
3690.294, 35489.54
3692.223, 35493.07
3694.151, 35470.45
3696.080, 35431.45
3698.008, 35393.54
3699.937, 35371.07
3701.865, 35337.04
3703.794, 35294.85
3705.722, 35275.43
3707.651, 35267.37
3709.579, 35261.85
3711.508, 35238.50
3713.436, 35175.88
3715.365, 35134.07
3717.293, 35118.59
3719.221, 35112.63
3721.150, 35108.87
3723.078, 35100.48
3725.007, 35074.91
3726.935, 34998.46
3728.864, 34982.88
3730.792, 35026.72
3732.721, 35030.95
3734.649, 35016.52
3736.578, 35022.21
3738.506, 35021.34
3740.435, 34994.86
3742.363, 34992.01
3744.292, 35011.68
3746.220, 35009.32
3748.148, 35001.71
3750.077, 35018.64
3752.005, 35028.20
3753.934, 35015.75
3755.862, 34991.41
3757.791, 34964.43
3759.719, 34997.94
3761.648, 35030.56
3763.576, 34978.14
3765.505, 34917.27
3767.433, 34862.09
3769.362, 34870.64
3771.290, 34929.21
3773.219, 34953.62
3775.147, 34964.96
3777.075, 34978.82
3779.004, 34997.55
3780.932, 35022.76
3782.861, 35023.14
3784.789, 35003.75
3786.718, 35001.96
3788.646, 34976.90
3790.575, 34870.71
3792.503, 34842.46
3794.432, 34934.45
3796.360, 34977.20
3798.289, 34981.88
3800.217, 34972.98
3802.146, 34946.40
3804.074, 34878.85
3806.002, 34871.07
3807.931, 34926.18
3809.859, 34930.09
3811.788, 34916.73
3813.716, 34943.47
3815.645, 34962.90
3817.573, 34957.27
3819.502, 34950.62
3821.430, 34941.66
3823.359, 34896.82
3825.287, 34854.45
3827.216, 34871.36
3829.144, 34859.97
3831.073, 34794.87
3833.001, 34787.01
3834.929, 34804.09
3836.858, 34735.00
3838.786, 34697.11
3840.715, 34783.74
3842.643, 34801.02
3844.572, 34727.71
3846.500, 34688.95
3848.429, 34674.99
3850.357, 34672.20
3852.286, 34692.67
3854.214, 34742.91
3856.143, 34745.90
3858.071, 34719.81
3860.000, 34771.69
3861.928, 34819.53
3863.856, 34796.68
3865.785, 34767.19
3867.713, 34740.87
3869.642, 34693.04
3871.570, 34656.07
3873.499, 34686.60
3875.427, 34728.25
3877.356, 34772.84
3879.284, 34747.71
3881.213, 34681.45
3883.141, 34708.98
3885.070, 34733.82
3886.998, 34688.16
3888.927, 34640.56
3890.855, 34605.76
3892.783, 34582.70
3894.712, 34584.79
3896.640, 34681.24
3898.569, 34727.27
3900.497, 34646.00
3902.426, 34624.82
3904.354, 34649.24
3906.283, 34632.57
3908.211, 34604.32
3910.140, 34590.52
3912.068, 34575.43
3913.997, 34557.86
3915.925, 34593.35
3917.854, 34649.55
3919.782, 34677.63
3921.710, 34686.98
3923.639, 34677.17
3925.567, 34665.35
3927.496, 34653.49
3929.424, 34633.49
3931.353, 34616.99
3933.281, 34609.39
3935.210, 34570.57
3937.138, 34517.55
3939.067, 34549.75
3940.995, 34601.66
3942.924, 34625.76
3944.852, 34635.88
3946.781, 34625.47
3948.709, 34600.39
3950.637, 34587.34
3952.566, 34533.27
3954.494, 34462.12
3956.423, 34445.85
3958.351, 34440.50
3960.280, 34424.43
3962.208, 34386.45
3964.137, 34342.81
3966.065, 34290.23
3967.994, 34293.46
3969.922, 34318.95
3971.851, 34306.51
3973.779, 34297.67
3975.708, 34323.54
3977.636, 34345.01
3979.564, 34349.95
3981.493, 34350.09
3983.421, 34363.02
3985.350, 34387.53
3987.278, 34386.68
3989.207, 34350.48
3991.135, 34315.90
3993.064, 34303.86
3994.992, 34304.86
3996.921, 34289.70
3998.849, 34288.85
4000.778, 34294.04
4002.706, 34273.14
4004.635, 34234.32
4006.563, 34204.74
4008.491, 34189.18
4010.420, 34197.13
4012.348, 34212.63
4014.277, 34213.42
4016.205, 34220.20
4018.134, 34237.39
4020.062, 34236.93
4021.991, 34221.23
4023.919, 34247.48
4025.848, 34274.95
4027.776, 34258.07
4029.705, 34243.54
4031.633, 34236.26
4033.562, 34234.10
4035.490, 34211.06
4037.418, 34167.93
4039.347, 34148.51
4041.275, 34136.30
4043.204, 34129.38
4045.132, 34123.79
4047.061, 34097.50
4048.989, 34076.00
4050.918, 34071.68
4052.846, 34063.06
4054.775, 34050.11
4056.703, 34038.29
4058.632, 34053.27
4060.560, 34075.41
4062.489, 34081.82
4064.417, 34062.11
4066.345, 33985.34
4068.274, 33935.46
4070.202, 33916.38
4072.131, 33890.48
4074.059, 33876.37
4075.988, 33891.11
4077.916, 33877.54
4079.845, 33830.68
4081.773, 33805.32
4083.702, 33786.70
4085.630, 33771.73
4087.559, 33751.66
4089.487, 33727.43
4091.416, 33691.30
4093.344, 33655.06
4095.272, 33625.32
4097.201, 33601.29
4099.129, 33579.53
4101.058, 33579.22
4102.986, 33589.84
4104.915, 33604.73
4106.843, 33597.02
4108.772, 33568.50
4110.700, 33525.41
4112.629, 33486.79
4114.557, 33500.90
4116.486, 33502.20
4118.414, 33457.41
4120.343, 33457.77
4122.271, 33474.26
4124.200, 33430.32
4126.128, 33401.81
4128.057, 33417.96
4129.985, 33430.93
4131.914, 33436.17
4133.842, 33419.93
4135.771, 33412.50
4137.699, 33413.64
4139.627, 33439.97
4141.556, 33468.77
4143.484, 33396.95
4145.413, 33346.04
4147.341, 33368.15
4149.270, 33380.38
4151.198, 33378.13
4153.126, 33356.98
4155.055, 33336.91
4156.983, 33330.65
4158.912, 33312.03
4160.840, 33285.59
4162.769, 33291.04
4164.697, 33244.91
4166.626, 33115.32
4168.554, 33132.76
4170.483, 33204.68
4172.411, 33201.91
4174.340, 33168.14
4176.268, 33094.53
4178.197, 33126.39
4180.125, 33187.82
4182.054, 33145.29
4183.982, 33088.29
4185.911, 33055.24
4187.839, 33028.82
4189.768, 33014.29
4191.696, 33012.55
4193.625, 33010.66
4195.553, 33005.49
4197.481, 33024.77
4199.410, 33028.14
4201.338, 32922.09
4203.267, 32860.67
4205.195, 32869.36
4207.124, 32882.57
4209.052, 32883.77
4210.980, 32838.38
4212.909, 32815.13
4214.837, 32833.41
4216.766, 32784.05
4218.694, 32732.63
4220.623, 32789.11
4222.551, 32765.22
4224.480, 32668.64
4226.408, 32619.44
4228.337, 32595.70
4230.265, 32600.77
4232.194, 32597.45
4234.122, 32588.94
4236.051, 32595.76
4237.979, 32599.81
4239.908, 32593.66
4241.836, 32598.15
4243.765, 32603.96
4245.693, 32606.89
4247.622, 32557.78
4249.550, 32432.58
4251.479, 32441.71
4253.407, 32492.14
4255.335, 32442.48
4257.264, 32368.75
4259.192, 32298.09
4261.121, 32338.57
4263.049, 32384.97
4264.978, 32287.89
4266.906, 32284.87
4268.834, 32365.82
4270.763, 32323.04
4272.691, 32267.37
4274.620, 32279.99
4276.548, 32276.03
4278.477, 32258.19
4280.405, 32248.76
4282.334, 32250.08
4284.262, 32260.53
4286.191, 32243.16
4288.119, 32205.79
4290.048, 32170.42
4291.976, 32132.29
4293.905, 32099.12
4295.833, 32125.08
4297.762, 32162.14
4299.690, 32143.76
4301.619, 32148.32
4303.547, 32169.50
4305.476, 32161.51
4307.404, 32134.59
4309.333, 32097.71
4311.261, 32070.14
4313.189, 32043.92
4315.118, 31973.64
4317.046, 31939.30
4318.975, 31965.02
4320.903, 32026.29
4322.832, 32074.47
4324.760, 32040.08
4326.688, 32009.11
4328.617, 31992.95
4330.545, 31951.71
4332.474, 31930.14
4334.402, 31975.76
4336.331, 32020.03
4338.259, 32042.48
4340.188, 31976.78
4342.116, 31925.32
4344.045, 31925.00
4345.973, 31937.91
4347.902, 31944.02
4349.830, 31920.30
4351.759, 31873.23
4353.687, 31813.13
4355.616, 31801.89
4357.544, 31810.00
4359.473, 31831.20
4361.401, 31797.10
4363.330, 31739.82
4365.258, 31743.05
4367.187, 31718.63
4369.115, 31648.48
4371.043, 31603.58
4372.972, 31597.75
4374.900, 31655.45
4376.829, 31666.05
4378.757, 31625.90
4380.686, 31545.99
4382.614, 31497.73
4384.542, 31507.27
4386.471, 31499.71
4388.399, 31479.63
4390.328, 31450.43
4392.256, 31437.60
4394.185, 31432.86
4396.113, 31369.72
4398.042, 31326.69
4399.970, 31347.62
4401.899, 31377.03
4403.827, 31401.55
4405.756, 31406.09
4407.684, 31392.91
4409.613, 31362.47
4411.541, 31316.32
4413.470, 31293.21
4415.398, 31342.03
4417.327, 31312.94
4419.255, 31250.21
4421.184, 31264.63
4423.112, 31237.13
4425.041, 31146.33
4426.969, 31102.22
4428.897, 31098.96
4430.826, 31141.74
4432.754, 31173.27
4434.683, 31173.68
4436.611, 31077.82
4438.540, 31043.85
4440.468, 31086.95
4442.396, 31046.25
4444.325, 31002.30
4446.253, 31022.21
4448.182, 31005.20
4450.110, 30958.73
4452.039, 30894.41
4453.967, 30864.30
4455.896, 30879.41
4457.824, 30906.22
4459.753, 30918.55
4461.681, 30897.37
4463.610, 30848.33
4465.538, 30799.15
4467.467, 30804.35
4469.395, 30800.44
4471.324, 30773.97
4473.252, 30702.11
4475.181, 30649.54
4477.109, 30648.94
4479.038, 30616.77
4480.966, 30600.92
4482.895, 30705.93
4484.823, 30734.86
4486.751, 30673.49
4488.680, 30546.08
4490.608, 30482.65
4492.537, 30562.32
4494.465, 30551.78
4496.394, 30513.47
4498.322, 30511.54
4500.250, 30486.41
4502.179, 30446.56
4504.107, 30423.13
4506.036, 30418.11
4507.964, 30425.93
4509.893, 30399.04
4511.821, 30366.06
4513.750, 30346.79
4515.678, 30329.77
4517.607, 30305.10
4519.535, 30230.67
4521.464, 30240.21
4523.392, 30320.69
4525.321, 30275.53
4527.249, 30209.77
4529.178, 30163.11
4531.106, 30209.66
4533.035, 30250.89
4534.963, 30197.76
4536.892, 30114.76
4538.820, 30040.02
4540.749, 30032.88
4542.677, 30051.93
4544.605, 30076.02
4546.534, 30023.62
4548.462, 29983.23
4550.391, 30011.87
4552.319, 30018.93
4554.248, 29997.94
4556.176, 29928.45
4558.104, 29911.46
4560.033, 29926.78
4561.961, 29908.10
4563.890, 29861.84
4565.818, 29798.30
4567.747, 29768.73
4569.675, 29775.52
4571.604, 29844.26
4573.532, 29775.93
4575.461, 29689.27
4577.389, 29724.03
4579.318, 29720.07
4581.246, 29685.03
4583.175, 29657.12
4585.103, 29663.79
4587.032, 29691.94
4588.960, 29630.07
4590.889, 29593.44
4592.817, 29653.72
4594.746, 29610.85
4596.674, 29533.04
4598.603, 29474.66
4600.531, 29441.94
4602.459, 29423.22
4604.388, 29392.53
4606.316, 29396.13
4608.245, 29415.25
4610.173, 29348.28
4612.102, 29304.85
4614.030, 29320.16
4615.958, 29282.60
4617.887, 29246.12
4619.815, 29245.08
4621.744, 29241.78
4623.672, 29237.96
4625.601, 29244.23
4627.529, 29188.44
4629.458, 29106.87
4631.386, 29089.09
4633.315, 29082.65
4635.243, 29074.99
4637.172, 29042.83
4639.100, 29035.53
4641.029, 29063.33
4642.957, 28999.18
4644.886, 28956.39
4646.814, 29005.32
4648.743, 29021.10
4650.671, 29004.00
4652.600, 28947.11
4654.528, 28906.31
4656.457, 28859.77
4658.385, 28741.91
4660.313, 28708.29
4662.242, 28734.92
4664.170, 28656.79
4666.099, 28603.40
4668.027, 28604.87
4669.956, 28552.05
4671.884, 28511.52
4673.813, 28512.29
4675.741, 28540.68
4677.669, 28537.80
4679.598, 28455.16
4681.526, 28458.02
4683.455, 28488.71
4685.383, 28448.78
4687.312, 28472.13
4689.240, 28528.94
4691.169, 28550.21
4693.097, 28521.07
4695.026, 28462.73
4696.954, 28477.11
4698.883, 28413.85
4700.811, 28263.11
4702.740, 28224.54
4704.668, 28187.93
4706.597, 28112.30
4708.525, 28110.18
4710.454, 28114.27
4712.382, 28081.59
4714.311, 28156.31
4716.239, 28227.12
4718.167, 28179.29
4720.096, 28105.33
4722.024, 28031.09
4723.953, 27985.40
4725.881, 27932.48
4727.810, 27887.46
4729.738, 27901.33
4731.667, 27871.28
4733.595, 27806.81
4735.523, 27763.80
4737.452, 27774.18
4739.380, 27825.23
4741.309, 27847.81
4743.237, 27816.10
4745.166, 27732.30
4747.094, 27711.21
4749.023, 27723.52
4750.951, 27758.31
4752.880, 27720.49
4754.808, 27684.32
4756.737, 27689.93
4758.665, 27673.20
4760.594, 27647.97
4762.522, 27625.87
4764.451, 27591.01
4766.379, 27571.84
4768.308, 27598.69
4770.236, 27611.05
4772.165, 27584.90
4774.093, 27466.71
4776.021, 27441.90
4777.950, 27465.68
4779.878, 27443.66
4781.807, 27431.68
4783.735, 27432.52
4785.664, 27430.49
4787.592, 27421.76
4789.521, 27406.65
4791.449, 27403.10
4793.377, 27383.45
4795.306, 27340.85
4797.234, 27262.07
4799.163, 27172.70
4801.091, 27092.27
4803.020, 27094.84
4804.948, 27085.79
4806.877, 27045.66
4808.805, 27017.73
4810.734, 27012.78
4812.662, 27031.45
4814.591, 27049.40
4816.519, 27050.28
4818.448, 27029.01
4820.376, 26997.84
4822.305, 26973.53
4824.233, 26964.09
4826.162, 26947.42
4828.090, 26930.54
4830.019, 26917.74
4831.947, 26838.38
4833.875, 26778.00
4835.804, 26785.71
4837.732, 26836.28
4839.661, 26839.46
4841.589, 26736.63
4843.518, 26709.34
4845.446, 26701.82
4847.375, 26668.48
4849.303, 26679.28
4851.231, 26690.59
4853.160, 26663.24
4855.088, 26645.02
4857.017, 26628.90
4858.945, 26611.48
4860.874, 26568.68
4862.802, 26514.54
4864.731, 26460.93
4866.659, 26440.98
4868.588, 26400.31
4870.516, 26263.66
4872.445, 26251.36
4874.373, 26248.41
4876.302, 26144.17
4878.230, 26170.13
4880.159, 26215.48
4882.087, 26151.08
4884.016, 26092.64
4885.944, 26076.40
4887.873, 26134.72
4889.801, 26153.83
4891.729, 26132.47
4893.658, 26066.71
4895.586, 26023.41
4897.515, 25972.23
4899.443, 25887.76
4901.372, 25862.74
4903.300, 25868.95
4905.229, 25887.64
4907.157, 25827.93
4909.085, 25796.62
4911.014, 25869.52
4912.942, 25811.97
4914.871, 25728.54
4916.799, 25703.06
4918.728, 25651.68
4920.656, 25616.88
4922.585, 25626.21
4924.513, 25603.40
4926.442, 25597.41
4928.370, 25633.24
4930.299, 25557.20
4932.227, 25489.45
4934.156, 25491.12
4936.084, 25458.57
4938.013, 25425.12
4939.941, 25407.48
4941.870, 25414.14
4943.798, 25397.18
4945.727, 25346.26
4947.655, 25380.39
4949.583, 25326.70
4951.512, 25177.83
4953.440, 25180.72
4955.369, 25188.32
4957.297, 25164.55
4959.226, 25172.59
4961.154, 25109.14
4963.083, 24999.38
4965.011, 25003.54
4966.939, 24991.73
4968.868, 24956.61
4970.796, 24930.95
4972.725, 24961.30
4974.653, 25002.89
4976.582, 24958.49
4978.510, 24887.55
4980.439, 24824.62
4982.367, 24802.25
4984.296, 24809.12
4986.224, 24812.92
4988.153, 24782.35
4990.081, 24738.91
4992.010, 24684.45
4993.938, 24614.94
4995.867, 24579.68
4997.795, 24574.09
4999.724, 24591.59
5001.652, 24625.55
5003.581, 24640.10
5005.509, 24614.73
5007.438, 24506.41
5009.366, 24434.72
5011.294, 24435.93
5013.223, 24364.92
5015.151, 24337.83
5017.080, 24368.14
5019.008, 24392.62
5020.937, 24369.37
5022.865, 24320.22
5024.793, 24338.84
5026.722, 24321.56
5028.650, 24257.89
5030.579, 24147.04
5032.507, 24079.72
5034.436, 24069.85
5036.364, 24157.56
5038.293, 24133.36
5040.221, 24070.56
5042.150, 24030.55
5044.078, 23988.24
5046.007, 23951.12
5047.935, 23923.28
5049.864, 23919.69
5051.792, 23899.77
5053.721, 23849.13
5055.649, 23773.39
5057.578, 23730.35
5059.506, 23722.85
5061.435, 23727.50
5063.363, 23702.11
5065.292, 23663.13
5067.220, 23663.82
5069.148, 23621.52
5071.077, 23560.39
5073.005, 23514.00
5074.934, 23543.42
5076.862, 23574.15
5078.791, 23547.13
5080.719, 23468.89
5082.647, 23405.08
5084.576, 23380.16
5086.504, 23362.62
5088.433, 23340.81
5090.361, 23310.05
5092.290, 23254.04
5094.218, 23228.36
5096.147, 23226.85
5098.075, 23221.19
5100.004, 23176.80
5101.932, 23130.41
5103.861, 23129.57
5105.789, 23123.95
5107.718, 23097.70
5109.646, 23038.49
5111.575, 23036.16
5113.503, 23055.03
5115.432, 23070.04
5117.360, 23008.65
5119.289, 23004.39
5121.217, 23047.21
5123.146, 23033.84
5125.074, 22975.08
5127.002, 22920.70
5128.931, 22939.29
5130.859, 22861.42
5132.788, 22786.43
5134.716, 22798.43
5136.645, 22775.63
5138.573, 22708.75
5140.501, 22614.66
5142.430, 22638.36
5144.358, 22682.43
5146.287, 22702.88
5148.215, 22640.73
5150.144, 22626.76
5152.072, 22610.52
5154.001, 22498.89
5155.929, 22430.20
5157.858, 22428.39
5159.786, 22490.08
5161.715, 22401.59
5163.643, 22380.48
5165.572, 22456.47
5167.500, 22436.35
5169.429, 22390.03
5171.357, 22347.25
5173.286, 22340.42
5175.214, 22295.03
5177.143, 22237.43
5179.071, 22195.69
5181.000, 22165.14
5182.928, 22140.29
5184.856, 22114.62
5186.785, 22036.52
5188.713, 22051.94
5190.642, 22120.17
5192.570, 22091.04
5194.499, 22089.59
5196.427, 22083.68
5198.355, 22031.65
5200.284, 21924.70
5202.212, 21875.46
5204.141, 21912.42
5206.069, 21830.19
5207.998, 21839.59
5209.926, 21886.78
5211.855, 21732.27
5213.783, 21704.24
5215.712, 21720.24
5217.640, 21676.89
5219.569, 21684.96
5221.497, 21663.90
5223.426, 21593.45
5225.354, 21542.66
5227.283, 21519.69
5229.211, 21507.35
5231.140, 21474.64
5233.068, 21433.97
5234.997, 21389.62
5236.925, 21343.25
5238.854, 21310.87
5240.782, 21291.53
5242.710, 21278.73
5244.639, 21264.64
5246.567, 21199.21
5248.496, 21124.09
5250.424, 21108.00
5252.353, 21091.81
5254.281, 21083.11
5256.209, 21082.18
5258.138, 21053.80
5260.066, 21033.25
5261.995, 21021.84
5263.923, 21013.82
5265.852, 20966.37
5267.780, 20895.07
5269.709, 20813.55
5271.637, 20816.02
5273.566, 20836.94
5275.494, 20841.86
5277.423, 20781.27
5279.351, 20781.14
5281.280, 20804.84
5283.208, 20788.41
5285.137, 20760.05
5287.065, 20725.66
5288.994, 20691.63
5290.922, 20674.37
5292.851, 20703.01
5294.779, 20713.38
5296.708, 20582.21
5298.636, 20547.19
5300.564, 20533.11
5302.493, 20493.42
5304.421, 20560.60
5306.350, 20493.85
5308.278, 20356.18
5310.207, 20376.83
5312.135, 20355.29
5314.063, 20312.30
5315.992, 20276.90
5317.920, 20280.17
5319.849, 20294.90
5321.777, 20285.97
5323.706, 20187.21
5325.634, 20116.05
5327.563, 20087.97
5329.491, 20095.50
5331.420, 20038.85
5333.348, 19996.96
5335.277, 19975.90
5337.205, 19915.39
5339.134, 19938.57
5341.062, 19963.20
5342.991, 19924.81
5344.919, 19900.99
5346.848, 19842.15
5348.776, 19766.76
5350.705, 19746.13
5352.633, 19717.69
5354.562, 19686.05
5356.490, 19658.16
5358.418, 19644.72
5360.347, 19583.74
5362.275, 19516.39
5364.204, 19547.50
5366.132, 19580.21
5368.061, 19577.78
5369.989, 19532.41
5371.917, 19507.37
5373.846, 19455.04
5375.774, 19391.08
5377.703, 19352.22
5379.631, 19354.09
5381.560, 19329.28
5383.488, 19263.05
5385.417, 19238.45
5387.345, 19243.52
5389.274, 19237.15
5391.202, 19172.38
5393.131, 19152.13
5395.059, 19116.51
5396.988, 19059.49
5398.916, 19045.88
5400.845, 19022.72
5402.773, 18977.82
5404.702, 18914.78
5406.630, 18906.56
5408.559, 18917.25
5410.487, 18915.26
5412.416, 18849.98
5414.344, 18852.50
5416.272, 18823.43
5418.201, 18732.24
5420.129, 18734.42
5422.058, 18739.64
5423.986, 18710.40
5425.915, 18627.36
5427.843, 18611.53
5429.771, 18585.18
5431.700, 18544.00
5433.628, 18578.45
5435.557, 18536.81
5437.485, 18479.18
5439.414, 18452.28
5441.342, 18424.82
5443.271, 18374.52
5445.199, 18320.48
5447.128, 18289.82
5449.056, 18233.39
5450.985, 18234.08
5452.913, 18272.17
5454.842, 18169.42
5456.770, 18132.27
5458.699, 18123.72
5460.627, 18103.99
5462.556, 18096.63
5464.484, 18068.46
5466.413, 18018.77
5468.341, 17957.28
5470.270, 17903.40
5472.198, 17885.71
5474.126, 17888.39
5476.055, 17839.60
5477.983, 17808.63
5479.912, 17809.52
5481.840, 17829.32
5483.769, 17736.55
5485.697, 17686.45
5487.625, 17695.19
5489.554, 17738.71
5491.482, 17653.77
5493.411, 17604.23
5495.339, 17593.57
5497.268, 17538.18
5499.196, 17535.90
5501.125, 17506.88
5503.053, 17442.92
5504.982, 17439.08
5506.910, 17432.79
5508.839, 17373.78
5510.767, 17264.48
5512.696, 17312.25
5514.624, 17282.89
5516.553, 17235.60
5518.481, 17266.04
5520.410, 17221.27
5522.338, 17167.72
5524.267, 17129.00
5526.195, 17109.46
5528.124, 17112.39
5530.052, 17072.40
5531.980, 16999.42
5533.909, 16975.60
5535.837, 16978.99
5537.766, 16953.64
5539.694, 16888.74
5541.623, 16858.77
5543.551, 16813.51
5545.479, 16773.81
5547.408, 16758.15
5549.336, 16761.43
5551.265, 16748.34
5553.193, 16729.63
5555.122, 16722.63
5557.050, 16692.79
5558.979, 16608.03
5560.907, 16525.16
5562.836, 16525.28
5564.764, 16498.57
5566.693, 16482.01
5568.621, 16467.37
5570.550, 16405.14
5572.478, 16352.17
5574.407, 16323.55
5576.335, 16307.70
5578.264, 16252.21
5580.192, 16261.88
5582.121, 16282.88
5584.049, 16269.37
5585.978, 16172.60
5587.906, 16174.60
5589.834, 16169.77
5591.763, 16103.19
5593.691, 16078.91
5595.620, 16042.55
5597.548, 16025.35
5599.477, 16041.64
5601.405, 15992.63
5603.333, 15928.75
5605.262, 15853.31
5607.190, 15773.97
5609.119, 15802.73
5611.047, 15815.25
5612.976, 15814.12
5614.904, 15818.13
5616.833, 15774.00
5618.761, 15735.28
5620.690, 15708.10
5622.618, 15686.12
5624.547, 15633.02
5626.475, 15565.15
5628.404, 15523.30
5630.332, 15549.63
5632.261, 15522.02
5634.189, 15435.47
5636.118, 15369.14
5638.046, 15400.66
5639.975, 15305.63
5641.903, 15285.91
5643.832, 15302.61
5645.760, 15256.27
5647.688, 15190.68
5649.617, 15168.66
5651.545, 15167.33
5653.474, 15142.52
5655.402, 15096.74
5657.331, 15115.74
5659.259, 15131.63
5661.188, 15040.70
5663.116, 15041.91
5665.044, 15056.69
5666.973, 15033.15
5668.901, 14948.71
5670.830, 14918.45
5672.758, 14922.61
5674.687, 14915.92
5676.615, 14861.68
5678.544, 14778.37
5680.472, 14724.78
5682.401, 14687.40
5684.329, 14644.89
5686.258, 14590.85
5688.186, 14602.18
5690.115, 14627.17
5692.043, 14609.24
5693.972, 14526.17
5695.900, 14532.15
5697.829, 14557.17
5699.757, 14527.99
5701.686, 14422.80
5703.614, 14385.26
5705.542, 14364.94
5707.471, 14322.61
5709.399, 14275.37
5711.328, 14218.62
5713.256, 14202.57
5715.185, 14232.72
5717.113, 14259.51
5719.042, 14228.23
5720.970, 14183.30
5722.898, 14144.03
5724.827, 14104.05
5726.755, 14100.11
5728.684, 14028.36
5730.612, 13946.87
5732.541, 13991.12
5734.469, 13937.41
5736.398, 13846.25
5738.326, 13807.61
5740.255, 13876.43
5742.183, 13830.50
5744.112, 13742.88
5746.040, 13712.72
5747.969, 13780.71
5749.897, 13753.93
5751.826, 13709.09
5753.754, 13675.43
5755.683, 13650.73
5757.611, 13570.88
5759.540, 13560.63
5761.468, 13540.32
5763.396, 13500.13
5765.325, 13517.29
5767.253, 13480.25
5769.182, 13415.17
5771.110, 13373.75
5773.039, 13400.53
5774.967, 13344.83
5776.896, 13285.64
5778.824, 13243.51
5780.752, 13216.94
5782.681, 13200.67
5784.609, 13158.98
5786.538, 13125.70
5788.466, 13116.78
5790.395, 13096.63
5792.323, 13087.05
5794.252, 13077.26
5796.180, 13055.96
5798.109, 13005.25
5800.037, 13019.28
5801.966, 12981.08
5803.894, 12912.46
5805.823, 12877.25
5807.751, 12854.15
5809.680, 12849.57
5811.608, 12839.01
5813.537, 12812.75
5815.465, 12810.04
5817.394, 12711.49
5819.322, 12669.56
5821.250, 12693.05
5823.179, 12665.83
5825.107, 12670.47
5827.036, 12643.71
5828.964, 12582.05
5830.893, 12507.44
5832.821, 12463.73
5834.750, 12511.69
5836.678, 12530.19
5838.606, 12480.87
5840.535, 12496.54
5842.463, 12438.43
5844.392, 12394.14
5846.320, 12366.51
5848.249, 12312.29
5850.177, 12331.91
5852.106, 12287.97
5854.034, 12226.17
5855.963, 12200.93
5857.891, 12200.20
5859.820, 12226.50
5861.748, 12195.32
5863.677, 12133.21
5865.605, 12127.57
5867.534, 12082.21
5869.462, 12080.54
5871.391, 12070.50
5873.319, 12016.00
5875.248, 12012.20
5877.176, 11965.20
5879.104, 11944.26
5881.033, 11943.06
5882.961, 11892.98
5884.890, 11882.53
5886.818, 11881.92
5888.747, 11843.60
5890.675, 11763.94
5892.604, 11779.04
5894.532, 11744.69
5896.460, 11694.54
5898.389, 11673.67
5900.317, 11721.78
5902.246, 11672.91
5904.174, 11604.09
5906.103, 11570.80
5908.031, 11576.99
5909.960, 11555.26
5911.888, 11503.40
5913.817, 11508.11
5915.745, 11525.53
5917.674, 11478.43
5919.602, 11399.85
5921.531, 11416.39
5923.459, 11435.33
5925.388, 11407.99
5927.316, 11366.82
5929.245, 11348.15
5931.173, 11348.38
5933.102, 11329.74
5935.030, 11276.79
5936.958, 11245.47
5938.887, 11236.47
5940.815, 11196.20
5942.744, 11146.08
5944.672, 11134.96
5946.601, 11109.71
5948.529, 11096.36
5950.458, 11064.80
5952.386, 11017.52
5954.314, 11006.05
5956.243, 10992.06
5958.171, 10978.29
5960.100, 10922.52
5962.028, 10830.32
5963.957, 10860.15
5965.885, 10863.01
5967.814, 10822.55
5969.742, 10780.40
5971.671, 10780.50
5973.599, 10794.37
5975.528, 10729.13
5977.456, 10717.35
5979.385, 10749.55
5981.313, 10722.29
5983.242, 10686.05
5985.170, 10670.96
5987.099, 10606.49
5989.027, 10527.22
5990.956, 10572.18
5992.884, 10512.23
5994.813, 10463.62
5996.741, 10441.24
5998.669, 10426.36
6000.598, 10396.54
6002.526, 10375.84
6004.455, 10380.46
6006.383, 10374.45
6008.312, 10337.57
6010.240, 10310.65
6012.168, 10259.95
6014.097, 10255.58
6016.025, 10248.97
6017.954, 10191.97
6019.882, 10156.59
6021.811, 10118.29
6023.739, 10129.34
6025.668, 10144.45
6027.596, 10110.04
6029.525, 10098.16
6031.453, 10042.30
6033.382, 10023.16
6035.310, 10011.15
6037.239, 9950.094
6039.167, 9944.639
6041.096, 9899.622
6043.024, 9889.191
6044.953, 9893.456
6046.881, 9860.779
6048.810, 9904.346
6050.738, 9866.082
6052.667, 9827.722
6054.595, 9796.653
6056.523, 9740.477
6058.452, 9726.624
6060.380, 9728.198
6062.309, 9682.461
6064.237, 9623.610
6066.166, 9610.579
6068.094, 9572.582
6070.022, 9544.037
6071.951, 9508.518
6073.879, 9491.215
6075.808, 9513.518
6077.736, 9486.043
6079.665, 9472.759
6081.593, 9422.423
6083.522, 9387.013
6085.450, 9409.225
6087.379, 9365.943
6089.307, 9343.401
6091.236, 9322.416
6093.164, 9294.529
6095.093, 9263.682
6097.021, 9244.354
6098.950, 9208.854
6100.878, 9188.236
6102.807, 9160.318
6104.735, 9123.393
6106.664, 9135.243
6108.592, 9096.162
6110.521, 9061.992
6112.449, 9056.701
6114.377, 9054.834
6116.306, 8995.139
6118.234, 8979.394
6120.163, 8950.915
6122.091, 8936.217
6124.020, 8943.749
6125.948, 8954.580
6127.876, 8853.767
6129.805, 8813.832
6131.733, 8788.859
6133.662, 8746.389
6135.590, 8699.026
6137.519, 8753.276
6139.447, 8731.072
6141.376, 8707.283
6143.304, 8685.079
6145.233, 8660.272
6147.161, 8660.475
6149.090, 8659.306
6151.018, 8611.772
6152.947, 8573.604
6154.875, 8563.052
6156.804, 8557.921
6158.732, 8550.722
6160.661, 8545.955
6162.589, 8500.630
6164.518, 8447.526
6166.446, 8422.661
6168.375, 8391.578
6170.303, 8371.002
6172.231, 8370.188
6174.160, 8360.703
6176.088, 8328.096
6178.017, 8279.285
6179.945, 8245.868
6181.874, 8221.338
6183.802, 8194.941
6185.730, 8182.655
6187.659, 8189.711
6189.587, 8148.465
6191.516, 8127.236
6193.444, 8106.284
6195.373, 8089.292
6197.301, 8066.358
6199.230, 8010.517
6201.158, 8021.118
6203.087, 8009.214
6205.015, 8000.887
6206.944, 7971.657
6208.872, 7913.184
6210.801, 7938.057
6212.729, 7898.083
6214.658, 7886.386
6216.586, 7883.530
6218.515, 7862.154
6220.443, 7824.727
6222.372, 7835.910
6224.300, 7781.474
6226.229, 7765.232
6228.157, 7764.755
6230.085, 7744.355
6232.014, 7724.315
6233.942, 7702.914
6235.871, 7655.013
6237.799, 7635.884
6239.728, 7653.146
6241.656, 7675.452
6243.584, 7663.107
6245.513, 7596.478
6247.441, 7571.241
6249.370, 7568.143
6251.298, 7546.351
6253.227, 7503.659
6255.155, 7535.835
6257.084, 7482.906
6259.012, 7454.987
6260.941, 7469.862
6262.869, 7474.290
6264.798, 7415.909
6266.726, 7378.992
6268.655, 7362.315
6270.583, 7328.267
6272.512, 7309.919
6274.440, 7318.430
6276.369, 7310.808
6278.297, 7223.299
6280.226, 7223.369
6282.154, 7228.596
6284.083, 7227.427
6286.011, 7221.771
6287.939, 7176.666
6289.868, 7153.636
6291.796, 7144.053
6293.725, 7105.603
6295.653, 7084.635
6297.582, 7100.923
6299.510, 7096.403
6301.438, 7030.853
6303.367, 7001.853
6305.295, 6983.392
6307.224, 6980.043
6309.152, 6980.012
6311.081, 6931.265
6313.009, 6911.667
6314.938, 6906.662
6316.866, 6907.530
6318.795, 6889.225
6320.723, 6848.475
6322.652, 6810.688
6324.580, 6772.884
6326.509, 6798.464
6328.437, 6779.556
6330.366, 6727.935
6332.294, 6698.414
6334.223, 6706.522
6336.151, 6646.741
6338.080, 6637.000
6340.008, 6645.332
6341.937, 6660.052
6343.865, 6652.643
6345.793, 6603.382
6347.722, 6591.792
6349.650, 6534.120
6351.579, 6506.595
6353.507, 6494.182
6355.436, 6486.495
6357.364, 6485.135
6359.292, 6476.534
6361.221, 6478.190
6363.149, 6477.078
6365.078, 6423.386
6367.006, 6379.218
6368.935, 6383.927
6370.863, 6391.706
6372.792, 6349.239
6374.720, 6331.281
6376.649, 6289.572
6378.577, 6272.013
6380.506, 6272.912
6382.434, 6249.117
6384.363, 6238.813
6386.291, 6298.724
6388.220, 6249.614
6390.148, 6234.357
6392.077, 6223.257
6394.005, 6174.173
6395.934, 6178.473
6397.862, 6168.024
6399.791, 6160.450
6401.719, 6091.108
6403.647, 6049.374
6405.576, 6048.902
6407.504, 6038.485
6409.433, 6051.825
6411.361, 6002.634
6413.290, 5965.943
6415.218, 5966.692
6417.146, 5981.086
6419.075, 5970.311
6421.003, 5916.528
6422.932, 5945.133
6424.860, 5932.367
6426.789, 5902.280
6428.717, 5865.853
6430.646, 5854.038
6432.574, 5856.457
6434.503, 5807.602
6436.431, 5821.864
6438.360, 5806.451
6440.288, 5762.450
6442.217, 5734.296
6444.145, 5748.739
6446.074, 5769.309
6448.002, 5690.689
6449.931, 5699.298
6451.859, 5694.321
6453.788, 5637.666
6455.716, 5634.939
6457.645, 5658.959
6459.573, 5626.372
6461.501, 5633.193
6463.430, 5588.186
6465.358, 5607.859
6467.287, 5596.344
6469.215, 5550.558
6471.144, 5531.423
6473.072, 5551.464
6475.000, 5515.736
6476.929, 5468.288
6478.857, 5462.593
6480.786, 5441.552
6482.714, 5442.354
6484.643, 5432.872
6486.571, 5385.234
6488.500, 5420.565
6490.428, 5397.493
6492.357, 5352.417
6494.285, 5310.586
6496.214, 5325.066
6498.142, 5346.127
6500.071, 5318.397
6501.999, 5281.614
6503.928, 5266.590
6505.856, 5281.254
6507.785, 5243.909
6509.713, 5227.325
6511.642, 5225.694
6513.570, 5212.325
6515.499, 5202.031
6517.427, 5177.336
6519.355, 5144.043
6521.284, 5138.311
6523.212, 5128.537
6525.141, 5113.792
6527.069, 5114.392
6528.998, 5125.068
6530.926, 5071.678
6532.854, 5042.444
6534.783, 5034.736
6536.711, 5018.253
6538.640, 5015.103
6540.568, 5033.071
6542.497, 5037.240
6544.425, 4996.981
6546.354, 4983.211
6548.282, 4995.110
6550.211, 4958.500
6552.139, 4966.331
6554.068, 4948.183
6555.996, 4911.513
6557.925, 4911.404
6559.853, 4895.154
6561.782, 4848.845
6563.710, 4873.569
6565.639, 4861.615
6567.567, 4828.760
6569.496, 4817.241
6571.424, 4807.635
6573.353, 4776.909
6575.281, 4785.090
6577.209, 4777.861
6579.138, 4765.556
6581.066, 4750.453
6582.995, 4734.263
6584.923, 4699.100
6586.852, 4660.452
6588.780, 4655.963
6590.708, 4686.345
6592.637, 4664.676
6594.565, 4660.449
6596.494, 4630.069
6598.422, 4633.597
6600.351, 4612.214
6602.279, 4567.297
6604.208, 4576.193
6606.136, 4605.375
6608.065, 4582.853
6609.993, 4518.948
6611.922, 4519.103
6613.850, 4534.827
6615.779, 4506.763
6617.707, 4489.524
6619.636, 4514.830
6621.564, 4470.427
6623.493, 4475.911
6625.421, 4418.941
6627.350, 4433.774
6629.278, 4496.292
##END=



