##NAMES=Graeserite
##RRUFFID=R110054
##IDEAL CHEMISTRY=Fe^3+^_4_Ti_3_As^3+^O_13_(OH)
##LOCALITY=Binntal, Wallis, Switzerland
##OWNER=RRUFF
##SOURCE=Bob Jenkins
##DESCRIPTION=Black prismatic crystals, associated with brown rutile, yellow muscovite, green clinochlore and colorless orthoclase
##STATUS=The identification of this mineral has been confirmed by single-crystal X-ray diffraction
##URL=https://www.rruff.net/odr/rruff_sample/R110054
##DIFFRACTION SAMPLE DESCRIPTION=Single crystal, powder profile is calculated
##CELL PARAMETERS=a: 5.0143 b: 14.26 c: 7.1716 alpha: 90 beta: 105.254 gamma: 90 volume: 494.7 crystal system: monoclinic
##FILETYPE=Raman Processed
##RAMAN WAVELENGTH=780

204.6689, 280.2165
206.5974, 280.2325
208.5259, 280.2062
210.4543, 279.7236
212.3828, 278.8346
214.3113, 277.6205
216.2397, 276.0629
218.1682, 274.2487
220.0967, 271.7723
222.0251, 269.5876
223.9536, 268.1185
225.8821, 267.0145
227.8105, 265.9916
229.7390, 265.0414
231.6675, 263.9098
233.5959, 262.0591
235.5244, 260.8062
237.4529, 260.7456
239.3813, 260.8033
241.3098, 260.2301
243.2383, 259.3267
245.1667, 258.7303
247.0952, 258.4983
249.0237, 258.4574
250.9521, 258.8022
252.8806, 259.0446
254.8091, 258.6767
256.7375, 258.4509
258.6660, 259.2152
260.5945, 260.8584
262.5229, 261.8392
264.4514, 261.6226
266.3799, 262.1478
268.3083, 264.3392
270.2368, 266.2488
272.1653, 266.7009
274.0938, 266.3688
276.0222, 266.1492
277.9507, 266.0736
279.8792, 265.9544
281.8076, 265.9644
283.7361, 265.4816
285.6646, 263.8709
287.5930, 262.2414
289.5215, 261.4409
291.4500, 261.0596
293.3784, 260.0592
295.3069, 258.3592
297.2354, 256.7753
299.1638, 255.5304
301.0923, 253.9356
303.0208, 251.3616
304.9492, 248.7041
306.8777, 246.5767
308.8062, 244.8623
310.7346, 243.1047
312.6631, 241.2750
314.5916, 239.9188
316.5200, 239.5185
318.4485, 238.6869
320.3770, 236.4555
322.3054, 234.0836
324.2339, 232.6622
326.1624, 231.9408
328.0908, 231.0847
330.0193, 230.1070
331.9477, 228.9729
333.8762, 227.3835
335.8047, 226.2241
337.7331, 226.0959
339.6616, 226.1505
341.5901, 225.5915
343.5185, 224.6800
345.4470, 224.2062
347.3755, 224.1871
349.3039, 223.8368
351.2324, 222.6118
353.1609, 221.7524
355.0893, 221.9463
357.0178, 222.1954
358.9463, 221.6575
360.8747, 220.6958
362.8032, 220.0693
364.7317, 219.7821
366.6601, 219.2627
368.5886, 218.1992
370.5171, 217.3275
372.4455, 216.7241
374.3740, 216.3603
376.3025, 216.5716
378.2309, 216.7885
380.1594, 216.1301
382.0879, 214.6809
384.0163, 213.5340
385.9448, 212.8797
387.8733, 212.3157
389.8017, 211.6806
391.7302, 211.3047
393.6587, 211.7487
395.5871, 212.1708
397.5156, 211.6953
399.4441, 210.5298
401.3725, 209.4595
403.3010, 208.2183
405.2295, 207.8945
407.1579, 209.2101
409.0864, 210.2544
411.0149, 210.5434
412.9433, 210.4822
414.8718, 210.2032
416.8003, 209.8315
418.7287, 209.6059
420.6572, 209.5471
422.5857, 209.3020
424.5141, 208.8397
426.4426, 208.2978
428.3711, 207.6180
430.2995, 206.9972
432.2280, 206.6109
434.1565, 206.2528
436.0849, 205.8688
438.0134, 205.3694
439.9419, 204.3809
441.8703, 202.7780
443.7988, 201.5236
445.7273, 200.6506
447.6557, 200.0223
449.5842, 199.9115
451.5127, 199.5230
453.4411, 198.3899
455.3696, 196.8632
457.2981, 195.0470
459.2265, 193.1188
461.1550, 191.9655
463.0835, 191.6146
465.0119, 190.9717
466.9404, 189.8594
468.8689, 188.8256
470.7973, 188.1380
472.7258, 187.4368
474.6543, 186.5739
476.5827, 185.6178
478.5112, 184.6192
480.4397, 183.5908
482.3681, 182.5306
484.2966, 181.4455
486.2251, 180.5640
488.1535, 179.9181
490.0820, 179.4280
492.0105, 179.2722
493.9389, 178.9891
495.8674, 178.3321
497.7959, 177.5453
499.7243, 176.7827
501.6528, 176.0857
503.5813, 175.5169
505.5097, 175.0915
507.4382, 174.9589
509.3667, 175.2593
511.2951, 175.3166
513.2236, 175.0035
515.1521, 174.4184
517.0806, 173.1416
519.0090, 172.0636
520.9375, 171.9667
522.8660, 172.2982
524.7944, 172.3893
526.7229, 172.2484
528.6514, 171.7908
530.5798, 170.9499
532.5083, 170.4796
534.4368, 170.7363
536.3652, 170.9227
538.2937, 170.8308
540.2222, 170.8399
542.1506, 171.1627
544.0791, 171.5841
546.0076, 171.9882
547.9360, 172.3186
549.8645, 172.4382
551.7930, 172.3664
553.7214, 172.3778
555.6499, 172.4150
557.5784, 172.7182
559.5068, 173.5022
561.4353, 174.1794
563.3638, 174.6179
565.2922, 175.0079
567.2207, 175.3793
569.1492, 175.7934
571.0776, 176.4418
573.0061, 177.0786
574.9345, 177.1353
576.8630, 176.6833
578.7914, 176.6873
580.7199, 177.3025
582.6484, 177.8586
584.5768, 178.4230
586.5053, 178.7477
588.4338, 178.6440
590.3622, 178.5679
592.2907, 178.6332
594.2192, 178.9117
596.1476, 179.8568
598.0761, 180.7346
600.0046, 180.3397
601.9330, 179.0235
603.8615, 178.2094
605.7900, 177.9424
607.7184, 177.4323
609.6469, 176.6056
611.5754, 176.0660
613.5038, 176.0664
615.4323, 175.8743
617.3608, 175.0129
619.2892, 174.2485
621.2177, 174.0197
623.1462, 173.9089
625.0746, 173.6529
627.0031, 173.2457
628.9316, 172.5968
630.8600, 171.7861
632.7885, 171.1853
634.7170, 170.7722
636.6454, 170.1921
638.5739, 169.3758
640.5024, 168.7714
642.4308, 168.5175
644.3593, 168.3526
646.2878, 168.4099
648.2162, 168.2582
650.1447, 167.5998
652.0732, 166.8192
654.0016, 166.1405
655.9301, 165.5552
657.8586, 165.0945
659.7870, 164.7034
661.7155, 164.1970
663.6440, 163.9724
665.5724, 163.3815
667.5009, 163.5127
669.4294, 163.4886
671.3578, 163.2460
673.2863, 162.8549
675.2148, 162.2489
677.1432, 161.6182
679.0717, 160.8054
681.0002, 160.2380
682.9286, 160.2460
684.8571, 160.4534
686.7856, 160.7370
688.7141, 160.8912
690.6425, 160.6251
692.5710, 160.0711
694.4995, 159.4409
696.4279, 158.7750
698.3564, 158.5700
700.2849, 159.0208
702.2133, 159.1030
704.1418, 158.4774
706.0703, 158.0777
707.9987, 157.7997
709.9272, 157.9578
711.8557, 159.0553
713.7841, 159.8599
715.7126, 159.7289
717.6411, 159.3526
719.5695, 159.1323
721.4980, 158.9072
723.4265, 158.4949
725.3549, 158.0236
727.2834, 157.5973
729.2119, 157.2943
731.1403, 157.5307
733.0688, 157.2057
734.9973, 157.1851
736.9257, 157.3378
738.8542, 157.1286
740.7827, 157.8400
742.7111, 158.1048
744.6396, 157.5965
746.5681, 157.2731
748.4965, 157.4663
750.4250, 157.6146
752.3535, 157.5064
754.2819, 157.3145
756.2104, 157.0722
758.1389, 156.8541
760.0673, 156.7197
761.9958, 156.6384
763.9243, 156.5848
765.8527, 156.5578
767.7812, 156.5317
769.7097, 156.5246
771.6381, 156.5856
773.5666, 156.7103
775.4951, 156.9504
777.4235, 157.2824
779.3520, 157.4837
781.2805, 157.5331
783.2089, 157.7149
785.1374, 158.1617
787.0659, 158.1749
788.9943, 157.2832
790.9228, 156.8729
792.8513, 157.8361
794.7797, 158.4255
796.7082, 157.7729
798.6367, 157.3316
800.5651, 157.9222
802.4936, 158.6249
804.4221, 158.9498
806.3505, 159.0501
808.2790, 158.9482
810.2075, 158.7976
812.1359, 158.8619
814.0644, 158.9476
815.9929, 158.8267
817.9213, 158.4603
819.8498, 157.5326
821.7783, 156.2817
823.7067, 155.9146
825.6352, 156.3672
827.5637, 155.9982
829.4921, 154.6504
831.4206, 153.3335
833.3491, 152.0950
835.2775, 150.8527
837.2060, 149.6537
839.1345, 148.3895
841.0629, 147.1406
842.9914, 145.6947
844.9199, 143.7781
846.8483, 142.1430
848.7768, 141.2798
850.7053, 140.1155
852.6337, 137.7694
854.5622, 135.8617
856.4907, 135.6395
858.4191, 135.4256
860.3476, 134.0441
862.2761, 132.4265
864.2045, 131.2862
866.1330, 130.1867
868.0615, 128.5590
869.9899, 126.9059
871.9184, 125.8526
873.8469, 125.1994
875.7753, 124.8266
877.7038, 124.4876
879.6323, 123.5792
881.5607, 122.2001
883.4892, 120.4738
885.4177, 118.5589
887.3461, 117.6048
889.2746, 116.5346
891.2031, 115.6957
893.1315, 115.3739
895.0600, 114.5662
896.9885, 114.3606
898.9169, 113.7487
900.8454, 112.6406
902.7739, 111.9369
904.7023, 111.7767
906.6308, 111.4564
908.5593, 110.8662
910.4877, 110.2534
912.4162, 109.7163
914.3447, 108.9237
916.2731, 107.6462
918.2016, 106.6142
920.1301, 105.9602
922.0585, 105.6357
923.9870, 105.9680
925.9155, 106.0527
927.8439, 105.4334
929.7724, 104.8982
931.7009, 104.7904
933.6293, 104.6255
935.5578, 104.1057
937.4863, 103.6474
939.4147, 103.4845
941.3432, 103.3961
943.2717, 103.4301
945.2001, 103.2953
947.1286, 102.7533
949.0571, 102.0587
950.9855, 101.1565
952.9140, 100.4664
954.8425, 100.4898
956.7709, 100.6875
958.6994, 100.6559
960.6279, 100.4694
962.5563, 100.1449
964.4848, 99.74813
966.4133, 99.26061
968.3417, 98.81883
970.2702, 98.74348
972.1987, 98.65768
974.1271, 97.85072
976.0556, 96.92387
977.9841, 96.84553
979.9125, 97.17085
981.8410, 97.28465
983.7695, 97.19718
985.6979, 96.85410
987.6264, 96.36247
989.5549, 95.90413
991.4833, 95.48611
993.4118, 95.19424
995.3403, 94.92528
997.2687, 94.22665
999.1972, 93.42153
1001.126, 93.67428
1003.054, 93.15337
1004.983, 93.04396
1006.911, 93.09464
1008.840, 92.90855
1010.768, 93.30093
1012.696, 93.36446
1014.625, 93.15505
1016.553, 92.85227
1018.482, 92.46286
1020.410, 91.92982
1022.339, 91.35609
1024.267, 91.18164
1026.196, 91.32630
1028.124, 91.66984
1030.053, 92.03107
1031.981, 91.39891
1033.910, 91.55061
1035.838, 91.51953
1037.767, 91.12320
1039.695, 91.47874
1041.624, 91.41262
1043.552, 91.28174
1045.480, 91.04857
1047.409, 90.45686
1049.337, 89.71049
1051.266, 89.52862
1053.194, 89.69825
1055.123, 89.67879
1057.051, 89.45083
1058.980, 88.79611
1060.908, 87.97380
1062.837, 87.72575
1064.765, 87.80639
1066.694, 87.63115
1068.622, 87.27987
1070.550, 86.91244
1072.479, 86.54740
1074.407, 86.16798
1076.336, 85.85208
1078.264, 85.83759
1080.193, 85.94489
1082.121, 85.81364
1084.050, 85.58194
1085.978, 85.55216
1087.907, 85.54314
1089.835, 85.18076
1091.764, 84.71761
1093.692, 84.54758
1095.620, 84.49278
1097.549, 84.34012
1099.477, 84.13764
1101.406, 83.93913
1103.334, 83.72382
1105.263, 83.43757
1107.191, 83.15559
1109.120, 82.77293
1111.048, 82.63655
1112.977, 83.46435
1114.905, 84.15152
1116.834, 83.60233
1118.762, 82.92282
1120.691, 82.85809
1122.619, 82.90891
1124.547, 82.84760
1126.476, 82.69245
1128.404, 82.41396
1130.333, 82.09890
1132.261, 81.72099
1134.190, 81.44482
1136.118, 81.41881
1138.047, 81.35197
1139.975, 81.20013
1141.904, 80.82666
1143.832, 79.99445
1145.761, 79.50107
1147.689, 79.62955
1149.618, 79.91607
1151.546, 80.37278
1153.474, 80.43175
1155.403, 79.86915
1157.331, 79.57280
1159.260, 79.71708
1161.188, 79.89796
1163.117, 80.08260
1165.045, 80.04424
1166.974, 79.75723
1168.902, 79.35867
1170.831, 78.87097
1172.759, 78.60043
1174.688, 78.35163
1176.616, 78.35320
1178.545, 78.11106
1180.473, 78.05869
1182.401, 78.15209
1184.330, 78.15957
1186.258, 78.18123
1188.187, 78.75233
1190.115, 79.32629
1192.044, 78.47505
1193.972, 77.28067
1195.901, 77.42001
1197.829, 77.94717
1199.758, 77.76579
1201.686, 77.46098
1203.615, 77.58598
1205.543, 77.78796
1207.472, 77.93604
1209.400, 77.89466
1211.328, 77.43758
1213.257, 77.03646
1215.185, 76.90551
1217.114, 76.85459
1219.042, 76.79804
1220.971, 76.87450
1222.899, 77.23902
1224.828, 77.37212
1226.756, 77.11403
1228.685, 76.86379
1230.613, 76.62640
1232.542, 76.56982
1234.470, 76.73824
1236.399, 76.86320
1238.327, 76.94262
1240.255, 76.47213
1242.184, 75.60635
1244.112, 75.40126
1246.041, 75.69291
1247.969, 76.07384
1249.898, 76.44617
1251.826, 76.73699
1253.755, 76.76291
1255.683, 75.97807
1257.612, 75.14070
1259.540, 74.90685
1261.469, 75.03140
1263.397, 75.80608
1265.326, 76.16151
1267.254, 75.13081
1269.182, 74.51111
1271.111, 75.10183
1273.039, 75.34425
1274.968, 74.74773
1276.896, 74.58543
1278.825, 75.12728
1280.753, 75.17312
1282.682, 74.61710
1284.610, 74.75645
1286.539, 75.55221
1288.467, 76.23901
1290.396, 76.67464
1292.324, 76.27162
1294.253, 75.46828
1296.181, 75.08105
1298.109, 75.03405
1300.038, 75.44258
1301.966, 75.85378
1303.895, 75.85197
1305.823, 75.64275
1307.752, 75.11300
1309.680, 74.82191
1311.609, 75.20078
1313.537, 75.51486
1315.466, 75.61747
1317.394, 75.55236
1319.323, 75.18983
1321.251, 74.99990
1323.180, 74.98864
1325.108, 75.20387
1327.036, 75.62037
1328.965, 75.47176
1330.893, 75.03062
1332.822, 75.64980
1334.750, 76.52101
1336.679, 75.99448
1338.607, 74.98814
1340.536, 74.12746
1342.464, 73.75191
1344.393, 74.38941
1346.321, 74.93764
1348.250, 74.97269
1350.178, 74.61096
1352.107, 73.65872
1354.035, 73.47486
1355.964, 74.42358
1357.892, 74.88285
1359.820, 74.72251
1361.749, 74.42287
1363.677, 74.02922
1365.606, 73.68893
1367.534, 73.46948
1369.463, 73.55582
1371.391, 73.82913
1373.320, 74.40897
1375.248, 74.72469
1377.177, 74.01550
1379.105, 73.45586
1381.034, 73.71097
1382.962, 73.64141
1384.891, 72.86732
1386.819, 72.45734
1388.747, 72.55807
1390.676, 72.92768
1392.604, 73.46797
1394.533, 73.62850
1396.461, 73.42953
1398.390, 72.72800
1400.318, 72.03469
1402.247, 72.22398
1404.175, 72.67036
1406.104, 73.10806
1408.032, 73.11014
1409.961, 71.89567
1411.889, 71.22531
1413.818, 71.94719
1415.746, 72.41270
1417.674, 72.48482
1419.603, 72.61806
1421.531, 72.80917
1423.460, 72.77649
1425.388, 72.58918
1427.317, 72.38351
1429.245, 72.25232
1431.174, 72.38296
1433.102, 72.52941
1435.031, 72.62498
1436.959, 72.44882
1438.888, 71.63158
1440.816, 71.26971
1442.745, 71.77767
1444.673, 72.06349
1446.601, 72.06873
1448.530, 71.96947
1450.458, 71.78892
1452.387, 71.71237
1454.315, 71.57063
1456.244, 70.85088
1458.172, 70.21333
1460.101, 70.35812
1462.029, 70.44836
1463.958, 70.09705
1465.886, 69.84022
1467.815, 69.81156
1469.743, 69.81119
1471.672, 69.81676
1473.600, 69.91378
1475.528, 70.00668
1477.457, 69.61211
1479.385, 69.08878
1481.314, 69.02097
1483.242, 69.07202
1485.171, 69.02635
1487.099, 68.92771
1489.028, 68.77544
1490.956, 68.65060
1492.885, 68.58033
1494.813, 68.13044
1496.742, 67.44357
1498.670, 67.98396
1500.599, 68.94987
1502.527, 68.44006
1504.455, 67.43079
1506.384, 66.53553
1508.312, 66.24614
1510.241, 67.46923
1512.169, 68.04137
1514.098, 67.35784
1516.026, 66.89349
1517.955, 66.71867
1519.883, 66.75991
1521.812, 66.91219
1523.740, 67.00227
1525.669, 66.88749
1527.597, 66.26635
1529.526, 65.62820
1531.454, 64.97786
1533.382, 64.96770
1535.311, 64.99136
1537.239, 65.21266
1539.168, 65.83357
1541.096, 65.99533
1543.025, 66.74067
1544.953, 66.78986
1546.882, 66.40741
1548.810, 65.50787
1550.739, 65.07552
1552.667, 65.89619
1554.596, 66.27782
1556.524, 65.67908
1558.453, 65.48619
1560.381, 65.73730
1562.309, 65.56056
1564.238, 65.18677
1566.166, 65.20897
1568.095, 65.27636
1570.023, 65.07656
1571.952, 64.76065
1573.880, 64.27055
1575.809, 64.26012
1577.737, 64.84231
1579.666, 64.99632
1581.594, 64.73075
1583.523, 64.08685
1585.451, 63.53941
1587.380, 64.02322
1589.308, 64.50026
1591.236, 64.31545
1593.165, 63.92392
1595.093, 63.31249
1597.022, 63.43148
1598.950, 64.16032
1600.879, 64.22917
1602.807, 63.80782
1604.736, 62.91420
1606.664, 62.25276
1608.593, 62.71636
1610.521, 62.92957
1612.450, 62.28633
1614.378, 62.11837
1616.307, 62.46149
1618.235, 62.61206
1620.163, 62.48823
1622.092, 61.56800
1624.020, 60.89912
1625.949, 61.74651
1627.877, 62.42406
1629.806, 62.23678
1631.734, 61.94931
1633.663, 61.60091
1635.591, 60.98287
1637.520, 60.34595
1639.448, 60.64975
1641.377, 60.86462
1643.305, 59.91314
1645.234, 59.31107
1647.162, 59.67911
1649.090, 60.19429
1651.019, 60.76492
1652.947, 60.33508
1654.876, 60.52671
1656.804, 59.76947
1658.733, 60.08834
1660.661, 59.60066
1662.590, 59.31025
1664.518, 59.51546
1666.447, 59.90737
1668.375, 60.35711
1670.304, 59.93962
1672.232, 59.10495
1674.161, 58.34203
1676.089, 57.97102
1678.017, 58.30399
1679.946, 58.61470
1681.874, 58.77828
1683.803, 58.45245
1685.731, 58.58418
1687.660, 58.00722
1689.588, 58.29831
1691.517, 58.06031
1693.445, 57.73244
1695.374, 57.41141
1697.302, 57.29273
1699.231, 57.38048
1701.159, 57.65194
1703.088, 57.87318
1705.016, 57.48493
1706.944, 57.07668
1708.873, 57.25539
1710.801, 57.07777
1712.730, 56.29918
1714.658, 55.79753
1716.587, 55.69793
1718.515, 56.90450
1720.444, 57.96058
1722.372, 57.14172
1724.301, 56.22102
1726.229, 55.67732
1728.158, 55.77709
1730.086, 56.45261
1732.015, 56.47611
1733.943, 56.17677
1735.871, 56.00925
1737.800, 55.83131
1739.728, 55.48585
1741.657, 55.49658
1743.585, 55.97412
1745.514, 56.00502
1747.442, 55.69142
1749.371, 54.86328
1751.299, 54.54546
1753.228, 54.29778
1755.156, 54.03179
1757.085, 54.23507
1759.013, 53.89429
1760.942, 54.38496
1762.870, 54.33976
1764.798, 54.17715
1766.727, 54.30965
1768.655, 54.10774
1770.584, 53.42511
1772.512, 53.05585
1774.441, 52.99474
1776.369, 53.21110
1778.298, 53.35366
1780.226, 52.92269
1782.155, 52.72206
1784.083, 52.91978
1786.012, 53.04612
1787.940, 53.07537
1789.869, 52.99294
1791.797, 52.95276
1793.725, 53.25293
1795.654, 53.27247
1797.582, 52.86415
1799.511, 52.44163
1801.439, 52.11314
1803.368, 52.19555
1805.296, 52.37208
1807.225, 52.45729
1809.153, 52.41083
1811.082, 52.24358
1813.010, 51.76210
1814.939, 51.14625
1816.867, 50.88058
1818.796, 50.81164
1820.724, 50.99577
1822.652, 50.94234
1824.581, 50.54250
1826.509, 50.10389
1828.438, 49.77050
1830.366, 50.06282
1832.295, 50.23561
1834.223, 49.75478
1836.152, 49.91245
1838.080, 50.81038
1840.009, 49.92341
1841.937, 48.58599
1843.866, 49.09665
1845.794, 49.63146
1847.723, 49.58462
1849.651, 49.49044
1851.579, 49.38924
1853.508, 49.16477
1855.436, 48.87355
1857.365, 48.31635
1859.293, 48.47300
1861.222, 49.59157
1863.150, 49.66249
1865.079, 49.00855
1867.007, 48.50313
1868.936, 48.29642
1870.864, 48.71340
1872.793, 48.63378
1874.721, 47.99178
1876.650, 47.35427
1878.578, 46.95904
1880.506, 47.32818
1882.435, 47.62187
1884.363, 47.54642
1886.292, 47.41325
1888.220, 47.25563
1890.149, 47.09356
1892.077, 46.96831
1894.006, 47.04362
1895.934, 46.77200
1897.863, 46.78939
1899.791, 46.23804
1901.720, 46.63160
1903.648, 46.21167
1905.577, 45.98411
1907.505, 46.61165
1909.433, 46.80161
1911.362, 46.58424
1913.290, 45.93523
1915.219, 45.39624
1917.147, 45.39292
1919.076, 45.40564
1921.004, 45.34932
1922.933, 45.36097
1924.861, 45.26170
1926.790, 45.24692
1928.718, 45.25155
1930.647, 45.03911
1932.575, 45.10443
1934.504, 44.72038
1936.432, 44.24653
1938.360, 44.02019
1940.289, 44.26008
1942.217, 44.30787
1944.146, 44.14621
1946.074, 44.27111
1948.003, 44.31239
1949.931, 43.73115
1951.860, 43.62483
1953.788, 44.08784
1955.717, 43.84002
1957.645, 43.32848
1959.574, 43.35925
1961.502, 43.00738
1963.431, 42.00080
1965.359, 41.75763
1967.287, 41.96961
1969.216, 41.71427
1971.144, 41.68652
1973.073, 42.40244
1975.001, 42.57860
1976.930, 42.30279
1978.858, 41.98595
1980.787, 41.81430
1982.715, 41.97375
1984.644, 42.29793
1986.572, 42.65202
1988.501, 41.89819
1990.429, 40.90928
1992.358, 40.20126
1994.286, 40.16669
1996.214, 40.81953
1998.143, 41.17402
2000.071, 41.22306
2002.000, 40.89308
2003.928, 40.56767
2005.857, 40.33714
2007.785, 40.24013
2009.714, 40.22833
2011.642, 40.26722
2013.571, 40.26534
2015.499, 40.19458
2017.428, 40.16273
2019.356, 40.13492
2021.285, 40.00212
2023.213, 39.95247
2025.141, 40.04713
2027.070, 39.99065
2028.998, 39.75635
2030.927, 39.61908
2032.855, 38.75676
2034.784, 38.89710
2036.712, 38.28695
2038.641, 37.47988
2040.569, 37.91819
2042.498, 38.40776
2044.426, 38.52439
2046.355, 39.01223
2048.283, 39.43320
2050.212, 38.48684
2052.140, 37.78176
2054.068, 38.01088
2055.997, 37.53651
2057.925, 36.83651
2059.854, 37.12091
2061.782, 37.45860
2063.711, 37.53851
2065.639, 37.07544
2067.568, 36.48218
2069.496, 36.55497
2071.425, 36.78896
2073.353, 37.03491
2075.281, 37.23766
2077.210, 37.29751
2079.138, 37.05078
2081.067, 36.61746
2082.995, 35.98473
2084.924, 35.53967
2086.852, 35.26940
2088.781, 35.11068
2090.709, 35.25859
2092.638, 35.16235
2094.566, 35.22001
2096.495, 35.31699
2098.423, 35.36393
2100.352, 35.50417
2102.280, 35.64236
2104.208, 35.28687
2106.137, 34.72336
2108.065, 34.04865
2109.994, 34.17278
2111.922, 33.95820
2113.851, 34.61470
2115.779, 34.09878
2117.708, 34.22926
2119.636, 34.16522
2121.565, 33.96163
2123.493, 34.17113
2125.422, 34.50138
2127.350, 34.87341
2129.279, 34.63783
2131.207, 34.08600
2133.135, 33.84702
2135.064, 33.95758
2136.992, 33.62466
2138.921, 33.63513
2140.849, 33.43556
2142.778, 33.47357
2144.706, 33.46272
2146.635, 33.25248
2148.563, 32.49057
2150.492, 31.84954
2152.420, 32.05474
2154.349, 32.35292
2156.277, 32.60895
2158.206, 32.45211
2160.134, 32.22827
2162.063, 32.04031
2163.991, 32.54153
2165.919, 33.12309
2167.848, 31.92118
2169.776, 31.07761
2171.705, 31.32774
2173.633, 32.42407
2175.562, 33.22319
2177.490, 32.17794
2179.419, 31.37090
2181.347, 31.16970
2183.276, 31.38593
2185.204, 31.56354
2187.133, 31.43715
2189.061, 31.22028
2190.990, 30.98834
2192.918, 30.94391
2194.846, 30.66565
2196.775, 30.06285
2198.703, 30.14432
2200.632, 30.40786
2202.560, 30.34035
2204.489, 29.64169
2206.417, 28.69720
2208.346, 29.57492
2210.274, 30.62528
2212.203, 31.07887
2214.131, 29.92315
2216.060, 28.31793
2217.988, 28.39281
2219.917, 28.78369
2221.845, 29.14141
2223.773, 28.83198
2225.702, 28.70834
2227.630, 28.87852
2229.559, 28.84280
2231.487, 29.03211
2233.416, 29.03170
2235.344, 29.09989
2237.273, 28.96667
2239.201, 28.74380
2241.130, 28.61970
2243.058, 28.79962
2244.987, 28.92180
2246.915, 28.95597
2248.844, 28.99468
2250.772, 28.93397
2252.700, 28.72985
2254.629, 28.41378
2256.557, 28.19958
2258.486, 28.42611
2260.414, 28.28406
2262.343, 27.75333
2264.271, 27.12404
2266.200, 26.68002
2268.128, 26.51708
2270.057, 27.19294
2271.985, 27.90340
2273.914, 27.46679
2275.842, 27.49205
2277.771, 27.90224
2279.699, 27.69506
2281.627, 27.41336
2283.556, 27.25752
2285.484, 26.80212
2287.413, 26.53278
2289.341, 26.33717
2291.270, 27.09150
2293.198, 26.03493
2295.127, 26.38576
2297.055, 26.46301
2298.984, 25.74209
2300.912, 26.65364
2302.841, 27.46815
2304.769, 26.26712
2306.698, 26.04866
2308.626, 26.36417
2310.554, 25.91512
2312.483, 25.48844
2314.411, 25.29970
2316.340, 25.32420
2318.268, 25.31919
2320.197, 25.73180
2322.125, 25.70672
2324.054, 26.00767
2325.982, 26.28601
2327.911, 26.25914
2329.839, 25.96329
2331.768, 25.62732
2333.696, 25.32689
2335.625, 25.10179
2337.553, 24.91248
2339.481, 25.39182
2341.410, 24.81825
2343.338, 24.89911
2345.267, 25.24888
2347.195, 24.98102
2349.124, 24.51532
2351.052, 24.02480
2352.981, 23.87658
2354.909, 23.95499
2356.838, 24.19246
2358.766, 24.41581
2360.695, 24.55885
2362.623, 24.56952
2364.552, 24.38983
2366.480, 24.15394
2368.408, 24.15707
2370.337, 24.04163
2372.265, 23.76203
2374.194, 23.20990
2376.122, 22.97045
2378.051, 23.31968
2379.979, 23.38952
2381.908, 23.37539
2383.836, 23.38974
2385.765, 23.67483
2387.693, 23.92847
2389.622, 23.76609
2391.550, 23.20552
2393.479, 22.42887
2395.407, 21.77407
2397.335, 21.68847
2399.264, 22.27250
2401.192, 23.16059
2403.121, 23.33990
2405.049, 22.33793
2406.978, 22.07849
2408.906, 22.23788
2410.835, 22.55609
2412.763, 21.83775
2414.692, 22.06772
2416.620, 21.49509
2418.549, 21.91872
2420.477, 21.99179
2422.406, 22.09272
2424.334, 21.80522
2426.262, 21.19778
2428.191, 21.51427
2430.119, 21.66935
2432.048, 21.15449
2433.976, 21.30078
2435.905, 21.53347
2437.833, 21.34093
2439.762, 20.96630
2441.690, 20.61462
2443.619, 20.51922
2445.547, 20.67059
2447.476, 20.88363
2449.404, 20.74563
2451.333, 20.71072
2453.261, 20.72712
2455.189, 19.91648
2457.118, 19.66701
2459.046, 20.32440
2460.975, 20.40473
2462.903, 20.93393
2464.832, 20.75253
2466.760, 20.80165
2468.689, 20.23164
2470.617, 20.42633
2472.546, 20.11843
2474.474, 19.64682
2476.403, 19.44498
2478.331, 19.30249
2480.260, 19.31091
2482.188, 19.77715
2484.116, 19.92834
2486.045, 19.73311
2487.973, 19.18855
2489.902, 18.81492
2491.830, 18.82040
2493.759, 18.75553
2495.687, 18.62577
2497.616, 18.60416
2499.544, 18.62159
2501.473, 18.57910
2503.401, 18.76763
2505.330, 18.99504
2507.258, 18.86644
2509.187, 19.08356
2511.115, 18.63769
2513.043, 19.08905
2514.972, 18.82190
2516.900, 18.39002
2518.829, 17.96880
2520.757, 17.63887
2522.686, 17.78811
2524.614, 18.09134
2526.543, 18.25541
2528.471, 18.13921
2530.400, 18.11534
2532.328, 18.70208
2534.257, 18.67968
2536.185, 18.22018
2538.114, 17.68081
2540.042, 17.08728
2541.970, 16.71625
2543.899, 17.09743
2545.827, 17.88282
2547.756, 18.62212
2549.684, 18.28618
2551.613, 17.96512
2553.541, 17.76052
2555.470, 17.47082
2557.398, 17.37445
2559.327, 17.37022
2561.255, 16.93609
2563.184, 16.65516
2565.112, 16.69085
2567.041, 17.32208
2568.969, 17.53637
2570.897, 17.30495
2572.826, 17.19730
2574.754, 17.39335
2576.683, 17.76206
2578.611, 17.79031
2580.540, 17.22276
2582.468, 17.26921
2584.397, 16.62177
2586.325, 16.77371
2588.254, 16.48445
2590.182, 16.39674
2592.111, 16.46655
2594.039, 16.61746
2595.968, 16.47490
2597.896, 16.02157
2599.824, 15.40205
2601.753, 15.68392
2603.681, 15.72448
2605.610, 15.40391
2607.538, 15.99384
2609.467, 16.23638
2611.395, 15.92827
2613.324, 15.83019
2615.252, 15.51270
2617.181, 15.07608
2619.109, 15.55190
2621.038, 15.66933
2622.966, 15.35153
2624.895, 15.53794
2626.823, 15.54185
2628.751, 15.30814
2630.680, 15.22503
2632.608, 14.71379
2634.537, 14.13519
2636.465, 14.79178
2638.394, 15.40296
2640.322, 15.67245
2642.251, 15.43632
2644.179, 15.19847
2646.108, 14.97948
2648.036, 14.63737
2649.965, 14.35048
2651.893, 14.14900
2653.822, 13.99564
2655.750, 14.02352
2657.678, 14.53137
2659.607, 14.25795
2661.535, 14.44652
2663.464, 14.63098
2665.392, 14.20521
2667.321, 14.26935
2669.249, 14.26874
2671.178, 13.65477
2673.106, 13.97316
2675.035, 15.68214
2676.963, 14.12846
2678.892, 14.46103
2680.820, 14.41803
2682.749, 12.98195
2684.677, 12.69559
2686.605, 12.90212
2688.534, 13.20330
2690.462, 13.29636
2692.391, 13.31698
2694.319, 13.34030
2696.248, 13.59527
2698.176, 13.35155
2700.105, 12.73877
2702.033, 12.47484
2703.962, 12.72944
2705.890, 13.06267
2707.819, 12.57117
2709.747, 12.03661
2711.676, 11.62755
2713.604, 11.28820
2715.532, 12.04180
2717.461, 12.77447
2719.389, 12.31219
2721.318, 12.02716
2723.246, 11.87552
2725.175, 11.78905
2727.103, 12.35772
2729.032, 12.63392
2730.960, 12.24794
2732.889, 11.99094
2734.817, 11.73374
2736.746, 11.53810
2738.674, 11.44149
2740.603, 11.26391
2742.531, 11.45749
2744.459, 11.18933
2746.388, 11.44285
2748.316, 11.78310
2750.245, 11.57633
2752.173, 11.82486
2754.102, 11.85680
2756.030, 11.12663
2757.959, 10.71128
2759.887, 10.69474
2761.816, 10.99448
2763.744, 10.79354
2765.673, 10.91751
2767.601, 11.26394
2769.530, 10.45169
2771.458, 10.49331
2773.386, 11.01740
2775.315, 10.68272
2777.243, 10.79582
2779.172, 10.96796
2781.100, 10.67648
2783.029, 10.33928
2784.957, 10.18508
2786.886, 10.31924
2788.814, 9.731106
2790.743, 9.958324
2792.671, 11.00866
2794.600, 10.37691
2796.528, 10.69658
2798.457, 11.32215
2800.385, 10.19112
2802.313, 9.711885
2804.242, 9.962780
2806.170, 10.78022
2808.099, 11.36755
2810.027, 11.34317
2811.956, 10.75668
2813.884, 10.55808
2815.813, 10.35240
2817.741, 10.08724
2819.670, 9.939054
2821.598, 9.609690
2823.527, 9.514041
2825.455, 9.510612
2827.384, 9.414570
2829.312, 9.501056
2831.240, 9.458148
2833.169, 9.150152
2835.097, 9.169645
2837.026, 9.013054
2838.954, 9.171741
2840.883, 8.844265
2842.811, 8.623507
2844.740, 8.615825
2846.668, 8.302943
2848.597, 8.366714
2850.525, 8.145236
2852.454, 8.286716
2854.382, 8.242233
2856.311, 8.245405
2858.239, 8.360952
2860.167, 8.484476
2862.096, 8.733577
2864.024, 9.193867
2865.953, 9.331249
2867.881, 9.280703
2869.810, 9.105413
2871.738, 8.511048
2873.667, 8.340306
2875.595, 8.434515
2877.524, 7.940431
2879.452, 8.203698
2881.381, 8.420808
2883.309, 7.887522
2885.238, 8.705990
2887.166, 9.162608
2889.094, 8.949465
2891.023, 8.996234
2892.951, 8.993488
2894.880, 8.901454
2896.808, 8.750425
2898.737, 8.331928
2900.665, 7.888040
2902.594, 7.554701
2904.522, 7.379392
2906.451, 7.642548
2908.379, 7.956790
2910.308, 7.704742
2912.236, 6.939199
2914.165, 6.729514
2916.093, 7.509119
2918.021, 7.954833
2919.950, 8.472201
2921.878, 8.689779
2923.807, 7.544230
2925.735, 7.222486
2927.664, 7.927735
2929.592, 9.421884
2931.521, 10.23399
2933.449, 9.676564
2935.378, 8.314633
2937.306, 7.429923
2939.235, 7.218816
2941.163, 7.253828
2943.092, 7.229086
2945.020, 7.085293
2946.948, 7.316320
2948.877, 7.631477
2950.805, 7.173976
2952.734, 6.933792
2954.662, 7.171349
2956.591, 7.924929
2958.519, 7.533841
2960.448, 7.499118
2962.376, 7.747182
2964.305, 7.612320
2966.233, 7.158061
2968.162, 6.600901
2970.090, 6.200756
2972.019, 7.167323
2973.947, 7.465160
2975.875, 7.190466
2977.804, 6.970587
2979.732, 6.007935
2981.661, 6.082204
2983.589, 7.144769
2985.518, 5.950186
2987.446, 6.534837
2989.375, 7.242373
2991.303, 6.118881
2993.232, 5.801393
2995.160, 6.275733
2997.089, 6.862280
2999.017, 6.092154
3000.946, 6.131107
3002.874, 6.178781
3004.802, 5.715880
3006.731, 5.916613
3008.659, 5.774326
3010.588, 5.781835
3012.516, 5.787488
3014.445, 5.869850
3016.373, 6.026515
3018.302, 5.934492
3020.230, 5.548595
3022.159, 5.493189
3024.087, 5.730040
3026.016, 6.123125
3027.944, 6.274334
3029.873, 6.396489
3031.801, 6.295144
3033.729, 5.668971
3035.658, 5.766893
3037.586, 5.957947
3039.515, 6.039298
3041.443, 6.299373
3043.372, 6.426002
3045.300, 6.322566
3047.229, 5.967055
3049.157, 5.252737
3051.086, 5.283717
3053.014, 5.791522
3054.943, 6.286217
3056.871, 5.965851
3058.800, 5.759552
3060.728, 5.853259
3062.656, 6.176771
3064.585, 5.504663
3066.513, 5.360507
3068.442, 5.983394
3070.370, 5.155963
3072.299, 5.234537
3074.227, 5.525770
3076.156, 5.357414
3078.084, 5.487613
3080.013, 5.630475
3081.941, 5.421175
3083.870, 5.581888
3085.798, 5.531387
3087.727, 5.857522
3089.655, 5.729121
3091.583, 5.746387
3093.512, 5.877197
3095.440, 5.519643
3097.369, 5.471641
3099.297, 5.150268
3101.226, 5.802256
3103.154, 6.025790
3105.083, 5.454581
3107.011, 5.510646
3108.940, 5.055705
3110.868, 5.087260
3112.797, 4.892880
3114.725, 4.890297
3116.654, 4.956688
3118.582, 5.139507
3120.510, 5.091612
3122.439, 5.432878
3124.367, 5.013718
3126.296, 4.948912
3128.224, 5.111517
3130.153, 5.150488
3132.081, 5.133514
3134.010, 4.947880
3135.938, 4.488191
3137.867, 4.911994
3139.795, 5.247962
3141.724, 5.114283
3143.652, 4.457964
3145.581, 4.385674
3147.509, 4.385551
3149.438, 4.479119
3151.366, 4.536019
3153.294, 4.672997
3155.223, 4.698713
3157.151, 5.241128
3159.080, 5.180159
3161.008, 5.484713
3162.937, 5.474428
3164.865, 4.925760
3166.794, 5.256374
3168.722, 4.785226
3170.651, 5.412407
3172.579, 4.933507
3174.508, 5.001321
3176.436, 5.390992
3178.365, 5.944715
3180.293, 6.057525
3182.221, 5.818918
3184.150, 4.606695
3186.078, 4.854296
3188.007, 4.754554
3189.935, 4.151917
3191.864, 5.239678
3193.792, 5.008133
3195.721, 3.894804
3197.649, 4.631495
3199.578, 4.655339
3201.506, 4.148355
3203.435, 3.929825
3205.363, 5.106408
3207.292, 5.003487
3209.220, 4.885646
3211.148, 4.982408
3213.077, 5.103023
3215.005, 4.031077
3216.934, 3.955761
3218.862, 4.432565
3220.791, 4.384694
3222.719, 4.827287
3224.648, 4.663145
3226.576, 4.334241
3228.505, 4.347960
3230.433, 4.471662
3232.362, 4.135133
3234.290, 4.969253
3236.219, 5.040282
3238.147, 5.256339
3240.075, 5.295617
3242.004, 4.780320
3243.932, 5.000757
3245.861, 4.017924
3247.789, 3.878628
3249.718, 3.769374
3251.646, 3.640390
3253.575, 4.339543
3255.503, 3.687467
3257.432, 4.097864
3259.360, 5.120829
3261.289, 5.073877
3263.217, 4.419782
3265.146, 4.842676
3267.074, 5.340811
3269.002, 4.651418
3270.931, 4.875744
3272.859, 4.778786
3274.788, 4.532218
3276.716, 4.754524
3278.645, 4.847147
3280.573, 5.138908
3282.502, 4.712345
3284.430, 4.629885
3286.359, 4.405117
3288.287, 3.865063
3290.216, 3.824109
3292.144, 3.711691
3294.073, 3.799326
3296.001, 3.815522
3297.929, 4.280272
3299.858, 4.500708
3301.786, 4.724809
3303.715, 5.284157
3305.643, 3.036785
3307.572, 2.932013
3309.500, 4.500487
3311.429, 2.836280
3313.357, 3.373257
3315.286, 4.087189
3317.214, 4.225706
3319.143, 3.762004
3321.071, 4.266044
3323.000, 3.789028
3324.928, 3.844311
3326.856, 4.762609
3328.785, 4.890405
3330.713, 3.956803
3332.642, 3.305842
3334.570, 2.924632
3336.499, 2.431252
3338.427, 2.920855
3340.356, 2.923998
3342.284, 4.034969
3344.213, 3.729706
3346.141, 4.440711
3348.070, 4.915436
3349.998, 4.746634
3351.927, 4.408424
3353.855, 4.468125
3355.783, 4.107811
3357.712, 3.392804
3359.640, 3.151496
3361.569, 3.578520
3363.497, 4.019755
3365.426, 4.530990
3367.354, 4.355089
3369.283, 3.900410
3371.211, 3.781707
3373.140, 4.178854
3375.068, 3.913434
3376.997, 3.779076
3378.925, 3.861046
3380.854, 3.504199
3382.782, 3.445064
3384.710, 4.041718
3386.639, 4.259961
3388.567, 3.756795
3390.496, 4.179455
3392.424, 4.226270
3394.353, 3.593177
3396.281, 3.192661
3398.210, 3.788491
3400.138, 2.713548
3402.067, 3.917732
3403.995, 4.322752
3405.924, 3.484074
3407.852, 3.931214
3409.781, 3.522859
3411.709, 3.179548
3413.637, 2.978775
3415.566, 2.909783
3417.494, 3.197335
3419.423, 4.320115
3421.351, 4.460866
3423.280, 4.358785
3425.208, 4.838611
3427.137, 4.532059
3429.065, 4.680510
3430.994, 3.960765
3432.922, 3.699442
3434.851, 3.589939
3436.779, 3.060748
3438.708, 3.315003
3440.636, 2.750175
3442.564, 2.640212
3444.493, 3.357010
3446.421, 3.434772
3448.350, 4.376317
3450.278, 4.633159
3452.207, 3.934824
3454.135, 3.302499
3456.064, 4.148372
##END=



