##NAMES=Greenockite
##RRUFFID=R060110
##IDEAL CHEMISTRY=CdS
##LOCALITY=San Juan mine, Dragoon Mountains, Cochise County, Arizona, USA
##OWNER=RRUFF
##SOURCE=University of Arizona Mineral Museum
##DESCRIPTION=Yellow earthy coating
##STATUS=The identification of this mineral is not yet confirmed
##URL=https://www.rruff.net/odr/rruff_sample/R060110
##FILETYPE=Raman RAW
##RAMAN WAVELENGTH=532

1.019570e+002, 3.710080e+002
1.038855e+002, 3.777674e+002
1.058140e+002, 3.800976e+002
1.077424e+002, 3.742471e+002
1.096709e+002, 3.655633e+002
1.115994e+002, 3.588458e+002
1.135278e+002, 3.542363e+002
1.154563e+002, 3.508123e+002
1.173848e+002, 3.485475e+002
1.193132e+002, 3.478352e+002
1.212417e+002, 3.465290e+002
1.231702e+002, 3.419270e+002
1.250986e+002, 3.371403e+002
1.270271e+002, 3.374883e+002
1.289556e+002, 3.464002e+002
1.308840e+002, 3.571673e+002
1.328125e+002, 3.668065e+002
1.347410e+002, 3.764374e+002
1.366694e+002, 3.831083e+002
1.385979e+002, 3.828151e+002
1.405264e+002, 3.784965e+002
1.424548e+002, 3.793995e+002
1.443833e+002, 3.867291e+002
1.463118e+002, 3.994057e+002
1.482402e+002, 4.153119e+002
1.501687e+002, 4.236438e+002
1.520972e+002, 4.541467e+002
1.540257e+002, 5.218448e+002
1.559541e+002, 6.301102e+002
1.578826e+002, 7.345597e+002
1.598111e+002, 8.112430e+002
1.617395e+002, 8.928415e+002
1.636680e+002, 1.015296e+003
1.655965e+002, 1.182886e+003
1.675249e+002, 1.386434e+003
1.694534e+002, 1.618154e+003
1.713819e+002, 1.883478e+003
1.733103e+002, 2.173973e+003
1.752388e+002, 2.503951e+003
1.771673e+002, 2.751528e+003
1.790957e+002, 2.964813e+003
1.810242e+002, 3.160834e+003
1.829527e+002, 3.353781e+003
1.848811e+002, 3.548408e+003
1.868096e+002, 3.745489e+003
1.887381e+002, 3.945292e+003
1.906665e+002, 4.150803e+003
1.925950e+002, 4.360973e+003
1.945235e+002, 4.571326e+003
1.964519e+002, 4.807849e+003
1.983804e+002, 5.029616e+003
2.003089e+002, 5.207151e+003
2.022373e+002, 5.336404e+003
2.041658e+002, 5.460951e+003
2.060943e+002, 5.593145e+003
2.080227e+002, 5.732049e+003
2.099512e+002, 5.863529e+003
2.118797e+002, 5.996090e+003
2.138081e+002, 6.115156e+003
2.157366e+002, 6.214417e+003
2.176651e+002, 6.291803e+003
2.195935e+002, 6.350590e+003
2.215220e+002, 6.386758e+003
2.234505e+002, 6.398208e+003
2.253789e+002, 6.415510e+003
2.273074e+002, 6.432261e+003
2.292359e+002, 6.457945e+003
2.311643e+002, 6.498163e+003
2.330928e+002, 6.548584e+003
2.350213e+002, 6.619254e+003
2.369497e+002, 6.717881e+003
2.388782e+002, 6.842989e+003
2.408067e+002, 6.971049e+003
2.427351e+002, 7.105274e+003
2.446636e+002, 7.239270e+003
2.465921e+002, 7.365821e+003
2.485205e+002, 7.470564e+003
2.504490e+002, 7.585148e+003
2.523775e+002, 7.712884e+003
2.543059e+002, 7.853855e+003
2.562344e+002, 8.022183e+003
2.581629e+002, 8.235015e+003
2.600913e+002, 8.471368e+003
2.620198e+002, 8.714567e+003
2.639483e+002, 8.980889e+003
2.658767e+002, 9.232272e+003
2.678052e+002, 9.443898e+003
2.697337e+002, 9.613535e+003
2.716621e+002, 9.811524e+003
2.735906e+002, 1.000384e+004
2.755191e+002, 1.023593e+004
2.774475e+002, 1.056394e+004
2.793760e+002, 1.097396e+004
2.813045e+002, 1.148043e+004
2.832329e+002, 1.206936e+004
2.851614e+002, 1.272793e+004
2.870899e+002, 1.352522e+004
2.890183e+002, 1.443878e+004
2.909468e+002, 1.548993e+004
2.928753e+002, 1.670172e+004
2.948037e+002, 1.811199e+004
2.967322e+002, 1.960181e+004
2.986607e+002, 2.125454e+004
3.005891e+002, 2.313196e+004
3.025176e+002, 2.455226e+004
3.044461e+002, 2.575838e+004
3.063745e+002, 2.634673e+004
3.083030e+002, 2.609556e+004
3.102315e+002, 2.466943e+004
3.121599e+002, 2.292227e+004
3.140884e+002, 2.094941e+004
3.160169e+002, 1.875381e+004
3.179453e+002, 1.675184e+004
3.198738e+002, 1.492211e+004
3.218023e+002, 1.332099e+004
3.237307e+002, 1.195675e+004
3.256592e+002, 1.088463e+004
3.275877e+002, 1.000179e+004
3.295161e+002, 9.336056e+003
3.314446e+002, 8.877326e+003
3.333731e+002, 8.460629e+003
3.353015e+002, 8.085840e+003
3.372300e+002, 7.757705e+003
3.391585e+002, 7.475642e+003
3.410869e+002, 7.258904e+003
3.430154e+002, 7.067950e+003
3.449439e+002, 6.916934e+003
3.468723e+002, 6.792994e+003
3.488008e+002, 6.662343e+003
3.507293e+002, 6.515007e+003
3.526578e+002, 6.371749e+003
3.545862e+002, 6.239234e+003
3.565147e+002, 6.112357e+003
3.584432e+002, 6.010949e+003
3.603716e+002, 5.955712e+003
3.623001e+002, 5.920881e+003
3.642286e+002, 5.871243e+003
3.661570e+002, 5.790233e+003
3.680855e+002, 5.711011e+003
3.700140e+002, 5.646840e+003
3.719424e+002, 5.602507e+003
3.738709e+002, 5.548513e+003
3.757994e+002, 5.466527e+003
3.777278e+002, 5.384053e+003
3.796563e+002, 5.326185e+003
3.815848e+002, 5.315685e+003
3.835132e+002, 5.300405e+003
3.854417e+002, 5.264455e+003
3.873702e+002, 5.210558e+003
3.892986e+002, 5.171606e+003
3.912271e+002, 5.161193e+003
3.931556e+002, 5.155430e+003
3.950840e+002, 5.139701e+003
3.970125e+002, 5.106196e+003
3.989410e+002, 5.074837e+003
4.008694e+002, 5.047363e+003
4.027979e+002, 5.023374e+003
4.047264e+002, 5.000213e+003
4.066548e+002, 4.975802e+003
4.085833e+002, 4.954832e+003
4.105118e+002, 4.939910e+003
4.124402e+002, 4.934872e+003
4.143687e+002, 4.924503e+003
4.162972e+002, 4.905352e+003
4.182256e+002, 4.882457e+003
4.201541e+002, 4.862247e+003
4.220826e+002, 4.848216e+003
4.240110e+002, 4.831289e+003
4.259395e+002, 4.803316e+003
4.278680e+002, 4.765427e+003
4.297964e+002, 4.747536e+003
4.317249e+002, 4.766202e+003
4.336534e+002, 4.791318e+003
4.355818e+002, 4.806454e+003
4.375103e+002, 4.809985e+003
4.394388e+002, 4.806431e+003
4.413672e+002, 4.791291e+003
4.432957e+002, 4.769744e+003
4.452242e+002, 4.754578e+003
4.471526e+002, 4.747507e+003
4.490811e+002, 4.743357e+003
4.510096e+002, 4.740350e+003
4.529380e+002, 4.738635e+003
4.548665e+002, 4.740018e+003
4.567950e+002, 4.752893e+003
4.587234e+002, 4.765090e+003
4.606519e+002, 4.761756e+003
4.625804e+002, 4.736865e+003
4.645089e+002, 4.719807e+003
4.664373e+002, 4.724541e+003
4.683658e+002, 4.744015e+003
4.702943e+002, 4.755459e+003
4.722227e+002, 4.747584e+003
4.741512e+002, 4.741002e+003
4.760797e+002, 4.746665e+003
4.780081e+002, 4.764295e+003
4.799366e+002, 4.775914e+003
4.818651e+002, 4.771533e+003
4.837935e+002, 4.764166e+003
4.857220e+002, 4.764851e+003
4.876505e+002, 4.775906e+003
4.895789e+002, 4.794222e+003
4.915074e+002, 4.830246e+003
4.934359e+002, 4.874010e+003
4.953643e+002, 4.898881e+003
4.972928e+002, 4.882646e+003
4.992213e+002, 4.867952e+003
5.011497e+002, 4.876440e+003
5.030782e+002, 4.922128e+003
5.050067e+002, 4.945701e+003
5.069351e+002, 4.922791e+003
5.088636e+002, 4.892307e+003
5.107921e+002, 4.893623e+003
5.127205e+002, 4.946226e+003
5.146490e+002, 4.983663e+003
5.165775e+002, 4.979913e+003
5.185059e+002, 4.946626e+003
5.204344e+002, 4.936205e+003
5.223629e+002, 4.962927e+003
5.242913e+002, 4.993772e+003
5.262198e+002, 5.014568e+003
5.281483e+002, 5.025312e+003
5.300767e+002, 5.040240e+003
5.320052e+002, 5.066768e+003
5.339337e+002, 5.095465e+003
5.358621e+002, 5.118419e+003
5.377906e+002, 5.133472e+003
5.397191e+002, 5.149552e+003
5.416475e+002, 5.162354e+003
5.435760e+002, 5.177682e+003
5.455045e+002, 5.206169e+003
5.474329e+002, 5.250851e+003
5.493614e+002, 5.305610e+003
5.512899e+002, 5.376021e+003
5.532183e+002, 5.461748e+003
5.551468e+002, 5.530021e+003
5.570753e+002, 5.567320e+003
5.590037e+002, 5.599400e+003
5.609322e+002, 5.640715e+003
5.628607e+002, 5.693187e+003
5.647891e+002, 5.752726e+003
5.667176e+002, 5.826349e+003
5.686461e+002, 5.904316e+003
5.705745e+002, 5.970662e+003
5.725030e+002, 6.017551e+003
5.744315e+002, 6.072865e+003
5.763599e+002, 6.140040e+003
5.782884e+002, 6.219970e+003
5.802169e+002, 6.324259e+003
5.821453e+002, 6.461630e+003
5.840738e+002, 6.614608e+003
5.860023e+002, 6.770766e+003
5.879307e+002, 6.930781e+003
5.898592e+002, 7.129803e+003
5.917877e+002, 7.391428e+003
5.937161e+002, 7.678060e+003
5.956447e+002, 7.966320e+003
5.975731e+002, 8.256566e+003
5.995016e+002, 8.545679e+003
6.014301e+002, 8.876093e+003
6.033585e+002, 9.191097e+003
6.052870e+002, 9.418870e+003
6.072155e+002, 9.568110e+003
6.091439e+002, 9.625056e+003
6.110724e+002, 9.580946e+003
6.130009e+002, 9.445370e+003
6.149293e+002, 9.236957e+003
6.168578e+002, 8.914255e+003
6.187863e+002, 8.561411e+003
6.207147e+002, 8.185241e+003
6.226432e+002, 7.791864e+003
6.245717e+002, 7.432390e+003
6.265001e+002, 7.128505e+003
6.284286e+002, 6.852216e+003
6.303571e+002, 6.585845e+003
6.322855e+002, 6.313900e+003
6.342140e+002, 6.092200e+003
6.361425e+002, 5.937595e+003
6.380709e+002, 5.823414e+003
6.399994e+002, 5.720500e+003
6.419279e+002, 5.627432e+003
6.438563e+002, 5.545724e+003
6.457848e+002, 5.476378e+003
6.477133e+002, 5.416594e+003
6.496417e+002, 5.362811e+003
6.515702e+002, 5.315013e+003
6.534987e+002, 5.271762e+003
6.554271e+002, 5.234549e+003
6.573556e+002, 5.202585e+003
6.592841e+002, 5.173281e+003
6.612125e+002, 5.153785e+003
6.631410e+002, 5.128928e+003
6.650695e+002, 5.088070e+003
6.669979e+002, 5.026214e+003
6.689264e+002, 4.987065e+003
6.708549e+002, 4.989667e+003
6.727833e+002, 4.997838e+003
6.747118e+002, 4.985074e+003
6.766403e+002, 4.950742e+003
6.785687e+002, 4.923499e+003
6.804972e+002, 4.910927e+003
6.824257e+002, 4.906473e+003
6.843541e+002, 4.906100e+003
6.862826e+002, 4.914339e+003
6.882111e+002, 4.920290e+003
6.901395e+002, 4.922844e+003
6.920680e+002, 4.923333e+003
6.939965e+002, 4.924808e+003
6.959249e+002, 4.930039e+003
6.978534e+002, 4.928718e+003
6.997819e+002, 4.908104e+003
7.017103e+002, 4.878500e+003
7.036388e+002, 4.868962e+003
7.055673e+002, 4.900372e+003
7.074957e+002, 4.928396e+003
7.094242e+002, 4.945965e+003
7.113527e+002, 4.952752e+003
7.132811e+002, 4.948139e+003
7.152096e+002, 4.921598e+003
7.171381e+002, 4.897685e+003
7.190665e+002, 4.886303e+003
7.209950e+002, 4.888332e+003
7.229235e+002, 4.890627e+003
7.248519e+002, 4.897152e+003
7.267804e+002, 4.900684e+003
7.287089e+002, 4.891839e+003
7.306373e+002, 4.872238e+003
7.325658e+002, 4.868429e+003
7.344943e+002, 4.903022e+003
7.364227e+002, 4.938812e+003
7.383512e+002, 4.952616e+003
7.402797e+002, 4.933996e+003
7.422081e+002, 4.916369e+003
7.441366e+002, 4.893701e+003
7.460651e+002, 4.874998e+003
7.479935e+002, 4.871618e+003
7.499220e+002, 4.885545e+003
7.518505e+002, 4.894916e+003
7.537789e+002, 4.890897e+003
7.557074e+002, 4.882520e+003
7.576359e+002, 4.877847e+003
7.595643e+002, 4.878415e+003
7.614928e+002, 4.881447e+003
7.634213e+002, 4.887061e+003
7.653497e+002, 4.895183e+003
7.672782e+002, 4.904527e+003
7.692067e+002, 4.912789e+003
7.711351e+002, 4.929034e+003
7.730636e+002, 4.969563e+003
7.749921e+002, 5.016492e+003
7.769205e+002, 5.040690e+003
7.788490e+002, 5.022302e+003
7.807775e+002, 5.004837e+003
7.827059e+002, 4.989341e+003
7.846344e+002, 4.978301e+003
7.865629e+002, 4.979493e+003
7.884913e+002, 5.002218e+003
7.904198e+002, 5.016402e+003
7.923483e+002, 5.001818e+003
7.942767e+002, 4.971653e+003
7.962052e+002, 4.959936e+003
7.981337e+002, 4.990815e+003
8.000621e+002, 5.013338e+003
8.019906e+002, 5.009229e+003
8.039191e+002, 4.987261e+003
8.058475e+002, 4.982222e+003
8.077760e+002, 5.001889e+003
8.097045e+002, 5.023277e+003
8.116329e+002, 5.039876e+003
8.135614e+002, 5.051174e+003
8.154899e+002, 5.054608e+003
8.174183e+002, 5.038238e+003
8.193468e+002, 5.027762e+003
8.212753e+002, 5.035851e+003
8.232037e+002, 5.058539e+003
8.251322e+002, 5.068831e+003
8.270607e+002, 5.062834e+003
8.289891e+002, 5.052259e+003
8.309176e+002, 5.033622e+003
8.328461e+002, 5.013365e+003
8.347745e+002, 5.013544e+003
8.367030e+002, 5.054016e+003
8.386315e+002, 5.093127e+003
8.405599e+002, 5.117136e+003
8.424884e+002, 5.127057e+003
8.444169e+002, 5.136028e+003
8.463453e+002, 5.140276e+003
8.482738e+002, 5.145712e+003
8.502023e+002, 5.153322e+003
8.521307e+002, 5.162453e+003
8.540592e+002, 5.173233e+003
8.559877e+002, 5.188389e+003
8.579161e+002, 5.200522e+003
8.598446e+002, 5.202409e+003
8.617731e+002, 5.196970e+003
8.637015e+002, 5.206637e+003
8.656300e+002, 5.263630e+003
8.675585e+002, 5.299164e+003
8.694869e+002, 5.274933e+003
8.714154e+002, 5.213322e+003
8.733439e+002, 5.181219e+003
8.752723e+002, 5.193550e+003
8.772008e+002, 5.215085e+003
8.791293e+002, 5.236965e+003
8.810577e+002, 5.258576e+003
8.829862e+002, 5.276068e+003
8.849147e+002, 5.289508e+003
8.868431e+002, 5.298941e+003
8.887716e+002, 5.295247e+003
8.907001e+002, 5.287461e+003
8.926285e+002, 5.302609e+003
8.945570e+002, 5.355750e+003
8.964855e+002, 5.397919e+003
8.984139e+002, 5.401639e+003
9.003424e+002, 5.383500e+003
9.022709e+002, 5.377717e+003
9.041993e+002, 5.392203e+003
9.061278e+002, 5.407502e+003
9.080563e+002, 5.419777e+003
9.099847e+002, 5.430329e+003
9.119132e+002, 5.442583e+003
9.138417e+002, 5.458675e+003
9.157701e+002, 5.470029e+003
9.176986e+002, 5.469104e+003
9.196271e+002, 5.464951e+003
9.215555e+002, 5.471696e+003
9.234840e+002, 5.499788e+003
9.254125e+002, 5.510934e+003
9.273410e+002, 5.486993e+003
9.292695e+002, 5.451987e+003
9.311979e+002, 5.431651e+003
9.331264e+002, 5.432556e+003
9.350549e+002, 5.434761e+003
9.369833e+002, 5.434428e+003
9.389118e+002, 5.435646e+003
9.408403e+002, 5.441433e+003
9.427687e+002, 5.451036e+003
9.446972e+002, 5.462435e+003
9.466257e+002, 5.483642e+003
9.485541e+002, 5.498752e+003
9.504826e+002, 5.494248e+003
9.524111e+002, 5.461009e+003
9.543395e+002, 5.448589e+003
9.562680e+002, 5.475521e+003
9.581965e+002, 5.505102e+003
9.601249e+002, 5.514973e+003
9.620534e+002, 5.507275e+003
9.639819e+002, 5.506873e+003
9.659103e+002, 5.519750e+003
9.678388e+002, 5.532095e+003
9.697673e+002, 5.540004e+003
9.716957e+002, 5.542742e+003
9.736242e+002, 5.534963e+003
9.755527e+002, 5.504095e+003
9.774811e+002, 5.478541e+003
9.794096e+002, 5.464926e+003
9.813381e+002, 5.462896e+003
9.832665e+002, 5.470837e+003
9.851950e+002, 5.494898e+003
9.871235e+002, 5.517123e+003
9.890519e+002, 5.532518e+003
9.909804e+002, 5.542905e+003
9.929089e+002, 5.549571e+003
9.948373e+002, 5.549356e+003
9.967658e+002, 5.552806e+003
9.986943e+002, 5.568638e+003
1.000623e+003, 5.583962e+003
1.002551e+003, 5.586052e+003
1.004480e+003, 5.567753e+003
1.006408e+003, 5.552474e+003
1.008337e+003, 5.532699e+003
1.010265e+003, 5.522724e+003
1.012194e+003, 5.541861e+003
1.014122e+003, 5.587015e+003
1.016050e+003, 5.616326e+003
1.017979e+003, 5.612195e+003
1.019907e+003, 5.607283e+003
1.021836e+003, 5.618266e+003
1.023764e+003, 5.643581e+003
1.025693e+003, 5.662369e+003
1.027621e+003, 5.672061e+003
1.029550e+003, 5.676889e+003
1.031478e+003, 5.670828e+003
1.033407e+003, 5.660626e+003
1.035335e+003, 5.667191e+003
1.037264e+003, 5.700697e+003
1.039192e+003, 5.726168e+003
1.041120e+003, 5.721880e+003
1.043049e+003, 5.712492e+003
1.044977e+003, 5.730013e+003
1.046906e+003, 5.783537e+003
1.048834e+003, 5.817404e+003
1.050763e+003, 5.804769e+003
1.052691e+003, 5.781431e+003
1.054620e+003, 5.769016e+003
1.056548e+003, 5.769309e+003
1.058477e+003, 5.774239e+003
1.060405e+003, 5.783032e+003
1.062334e+003, 5.797397e+003
1.064262e+003, 5.822626e+003
1.066191e+003, 5.855089e+003
1.068119e+003, 5.879601e+003
1.070047e+003, 5.893725e+003
1.071976e+003, 5.902491e+003
1.073904e+003, 5.902326e+003
1.075833e+003, 5.898889e+003
1.077761e+003, 5.904013e+003
1.079690e+003, 5.926803e+003
1.081618e+003, 5.937842e+003
1.083547e+003, 5.921322e+003
1.085475e+003, 5.901158e+003
1.087404e+003, 5.900585e+003
1.089332e+003, 5.925921e+003
1.091261e+003, 5.948799e+003
1.093189e+003, 5.968703e+003
1.095118e+003, 5.985774e+003
1.097046e+003, 5.998646e+003
1.098975e+003, 6.007987e+003
1.100903e+003, 6.016843e+003
1.102832e+003, 6.024890e+003
1.104760e+003, 6.032834e+003
1.106688e+003, 6.042722e+003
1.108617e+003, 6.052711e+003
1.110545e+003, 6.059063e+003
1.112474e+003, 6.062133e+003
1.114402e+003, 6.062099e+003
1.116331e+003, 6.048034e+003
1.118259e+003, 6.039037e+003
1.120188e+003, 6.057830e+003
1.122116e+003, 6.107737e+003
1.124045e+003, 6.146578e+003
1.125973e+003, 6.168898e+003
1.127902e+003, 6.181667e+003
1.129830e+003, 6.185895e+003
1.131759e+003, 6.182584e+003
1.133687e+003, 6.173622e+003
1.135615e+003, 6.152523e+003
1.137544e+003, 6.138913e+003
1.139472e+003, 6.137308e+003
1.141401e+003, 6.146337e+003
1.143329e+003, 6.164958e+003
1.145258e+003, 6.201881e+003
1.147186e+003, 6.233429e+003
1.149115e+003, 6.261898e+003
1.151043e+003, 6.283372e+003
1.152972e+003, 6.290939e+003
1.154900e+003, 6.285801e+003
1.156829e+003, 6.287288e+003
1.158757e+003, 6.301792e+003
1.160686e+003, 6.313071e+003
1.162614e+003, 6.307980e+003
1.164542e+003, 6.297720e+003
1.166471e+003, 6.304256e+003
1.168399e+003, 6.338438e+003
1.170328e+003, 6.358042e+003
1.172256e+003, 6.336576e+003
1.174185e+003, 6.313313e+003
1.176113e+003, 6.321396e+003
1.178042e+003, 6.368066e+003
1.179970e+003, 6.394034e+003
1.181899e+003, 6.375517e+003
1.183827e+003, 6.364261e+003
1.185756e+003, 6.386000e+003
1.187684e+003, 6.426621e+003
1.189613e+003, 6.450878e+003
1.191541e+003, 6.455172e+003
1.193469e+003, 6.458647e+003
1.195398e+003, 6.468687e+003
1.197326e+003, 6.478848e+003
1.199255e+003, 6.481310e+003
1.201183e+003, 6.475830e+003
1.203112e+003, 6.480121e+003
1.205040e+003, 6.502548e+003
1.206969e+003, 6.525395e+003
1.208897e+003, 6.545800e+003
1.210826e+003, 6.561233e+003
1.212754e+003, 6.565928e+003
1.214683e+003, 6.539870e+003
1.216611e+003, 6.532308e+003
1.218540e+003, 6.558623e+003
1.220468e+003, 6.595266e+003
1.222396e+003, 6.626065e+003
1.224325e+003, 6.651570e+003
1.226253e+003, 6.669688e+003
1.228182e+003, 6.673406e+003
1.230110e+003, 6.679510e+003
1.232039e+003, 6.691772e+003
1.233967e+003, 6.710086e+003
1.235896e+003, 6.738872e+003
1.237824e+003, 6.782920e+003
1.239753e+003, 6.812594e+003
1.241681e+003, 6.814863e+003
1.243610e+003, 6.807176e+003
1.245538e+003, 6.795557e+003
1.247467e+003, 6.780884e+003
1.249395e+003, 6.778586e+003
1.251323e+003, 6.800477e+003
1.253252e+003, 6.821770e+003
1.255180e+003, 6.845960e+003
1.257109e+003, 6.864168e+003
1.259037e+003, 6.856552e+003
1.260966e+003, 6.816670e+003
1.262894e+003, 6.798119e+003
1.264823e+003, 6.818194e+003
1.266751e+003, 6.846666e+003
1.268680e+003, 6.867157e+003
1.270608e+003, 6.884242e+003
1.272537e+003, 6.911804e+003
1.274465e+003, 6.956924e+003
1.276394e+003, 6.992752e+003
1.278322e+003, 7.010792e+003
1.280250e+003, 7.018223e+003
1.282179e+003, 7.015860e+003
1.284107e+003, 7.001590e+003
1.286036e+003, 6.999573e+003
1.287964e+003, 7.018240e+003
1.289893e+003, 7.039046e+003
1.291821e+003, 7.054438e+003
1.293750e+003, 7.070000e+003
1.295678e+003, 7.096115e+003
1.297607e+003, 7.136921e+003
1.299535e+003, 7.173042e+003
1.301464e+003, 7.202072e+003
1.303392e+003, 7.227343e+003
1.305321e+003, 7.251920e+003
1.307249e+003, 7.273722e+003
1.309177e+003, 7.285346e+003
1.311106e+003, 7.281467e+003
1.313034e+003, 7.288111e+003
1.314963e+003, 7.325995e+003
1.316891e+003, 7.365068e+003
1.318820e+003, 7.382993e+003
1.320748e+003, 7.381648e+003
1.322677e+003, 7.379092e+003
1.324605e+003, 7.370700e+003
1.326534e+003, 7.371235e+003
1.328462e+003, 7.394691e+003
1.330391e+003, 7.421257e+003
1.332319e+003, 7.423563e+003
1.334248e+003, 7.388063e+003
1.336176e+003, 7.382375e+003
1.338104e+003, 7.433697e+003
1.340033e+003, 7.480336e+003
1.341961e+003, 7.497576e+003
1.343890e+003, 7.498938e+003
1.345818e+003, 7.510914e+003
1.347747e+003, 7.536313e+003
1.349675e+003, 7.558498e+003
1.351604e+003, 7.576460e+003
1.353532e+003, 7.588108e+003
1.355461e+003, 7.578820e+003
1.357389e+003, 7.563507e+003
1.359318e+003, 7.582944e+003
1.361246e+003, 7.649472e+003
1.363175e+003, 7.703285e+003
1.365103e+003, 7.729935e+003
1.367031e+003, 7.740828e+003
1.368960e+003, 7.736746e+003
1.370888e+003, 7.722013e+003
1.372817e+003, 7.720114e+003
1.374745e+003, 7.732000e+003
1.376674e+003, 7.753969e+003
1.378602e+003, 7.796684e+003
1.380531e+003, 7.836570e+003
1.382459e+003, 7.852877e+003
1.384388e+003, 7.845284e+003
1.386316e+003, 7.841570e+003
1.388245e+003, 7.852084e+003
1.390173e+003, 7.854291e+003
1.392102e+003, 7.823644e+003
1.394030e+003, 7.799063e+003
1.395958e+003, 7.831897e+003
1.397887e+003, 7.926291e+003
1.399815e+003, 7.976377e+003
1.401744e+003, 7.948664e+003
1.403672e+003, 7.927532e+003
1.405601e+003, 7.942538e+003
1.407529e+003, 7.972584e+003
1.409458e+003, 7.999256e+003
1.411386e+003, 8.022728e+003
1.413315e+003, 8.029376e+003
1.415243e+003, 8.003316e+003
1.417172e+003, 7.989262e+003
1.419100e+003, 8.021609e+003
1.421029e+003, 8.064892e+003
1.422957e+003, 8.069536e+003
1.424885e+003, 8.033633e+003
1.426814e+003, 8.036766e+003
1.428742e+003, 8.122350e+003
1.430671e+003, 8.189980e+003
1.432599e+003, 8.192758e+003
1.434528e+003, 8.169946e+003
1.436456e+003, 8.171160e+003
1.438385e+003, 8.202340e+003
1.440313e+003, 8.229025e+003
1.442242e+003, 8.243441e+003
1.444170e+003, 8.262105e+003
1.446099e+003, 8.294543e+003
1.448027e+003, 8.329867e+003
1.449956e+003, 8.352743e+003
1.451884e+003, 8.359596e+003
1.453813e+003, 8.372555e+003
1.455741e+003, 8.409170e+003
1.457669e+003, 8.429657e+003
1.459598e+003, 8.402209e+003
1.461526e+003, 8.365970e+003
1.463455e+003, 8.375074e+003
1.465383e+003, 8.432048e+003
1.467312e+003, 8.473360e+003
1.469240e+003, 8.488309e+003
1.471169e+003, 8.500367e+003
1.473097e+003, 8.507014e+003
1.475026e+003, 8.520209e+003
1.476954e+003, 8.564081e+003
1.478883e+003, 8.632417e+003
1.480811e+003, 8.665702e+003
1.482740e+003, 8.641297e+003
1.484668e+003, 8.627020e+003
1.486596e+003, 8.661767e+003
1.488525e+003, 8.706409e+003
1.490453e+003, 8.719211e+003
1.492382e+003, 8.708307e+003
1.494310e+003, 8.733029e+003
1.496239e+003, 8.815463e+003
1.498167e+003, 8.880203e+003
1.500096e+003, 8.884738e+003
1.502024e+003, 8.877435e+003
1.503953e+003, 8.890278e+003
1.505881e+003, 8.920105e+003
1.507810e+003, 8.944270e+003
1.509738e+003, 8.961784e+003
1.511667e+003, 8.982403e+003
1.513595e+003, 9.028650e+003
1.515523e+003, 9.061680e+003
1.517452e+003, 9.042681e+003
1.519380e+003, 8.993575e+003
1.521309e+003, 8.988957e+003
1.523237e+003, 9.049831e+003
1.525166e+003, 9.105761e+003
1.527094e+003, 9.156590e+003
1.529023e+003, 9.196362e+003
1.530951e+003, 9.218264e+003
1.532880e+003, 9.228764e+003
1.534808e+003, 9.239463e+003
1.536737e+003, 9.250470e+003
1.538665e+003, 9.265140e+003
1.540594e+003, 9.288102e+003
1.542522e+003, 9.310371e+003
1.544450e+003, 9.320218e+003
1.546379e+003, 9.333916e+003
1.548307e+003, 9.380138e+003
1.550236e+003, 9.460114e+003
1.552164e+003, 9.501962e+003
1.554093e+003, 9.473170e+003
1.556021e+003, 9.463260e+003
1.557950e+003, 9.507808e+003
1.559878e+003, 9.564337e+003
1.561807e+003, 9.604439e+003
1.563735e+003, 9.628372e+003
1.565664e+003, 9.638271e+003
1.567592e+003, 9.630132e+003
1.569521e+003, 9.624245e+003
1.571449e+003, 9.615330e+003
1.573377e+003, 9.620696e+003
1.575306e+003, 9.670056e+003
1.577234e+003, 9.731790e+003
1.579163e+003, 9.742509e+003
1.581091e+003, 9.699611e+003
1.583020e+003, 9.688685e+003
1.584948e+003, 9.738060e+003
1.586877e+003, 9.788651e+003
1.588805e+003, 9.819260e+003
1.590734e+003, 9.837732e+003
1.592662e+003, 9.844529e+003
1.594591e+003, 9.843940e+003
1.596519e+003, 9.861401e+003
1.598448e+003, 9.899543e+003
1.600376e+003, 9.950565e+003
1.602304e+003, 1.003282e+004
1.604233e+003, 1.010110e+004
1.606161e+003, 1.011948e+004
1.608090e+003, 1.010591e+004
1.610018e+003, 1.010189e+004
1.611947e+003, 1.010914e+004
1.613875e+003, 1.011563e+004
1.615804e+003, 1.012082e+004
1.617732e+003, 1.012728e+004
1.619661e+003, 1.013701e+004
1.621589e+003, 1.015093e+004
1.623518e+003, 1.016718e+004
1.625446e+003, 1.018716e+004
1.627375e+003, 1.022593e+004
1.629303e+003, 1.029571e+004
1.631231e+003, 1.034930e+004
1.633160e+003, 1.036632e+004
1.635088e+003, 1.036974e+004
1.637017e+003, 1.035761e+004
1.638945e+003, 1.034270e+004
1.640874e+003, 1.036090e+004
1.642802e+003, 1.042052e+004
1.644731e+003, 1.046068e+004
1.646659e+003, 1.045866e+004
1.648588e+003, 1.046989e+004
1.650516e+003, 1.052633e+004
1.652445e+003, 1.058929e+004
1.654373e+003, 1.062124e+004
1.656302e+003, 1.062663e+004
1.658230e+003, 1.064501e+004
1.660158e+003, 1.068395e+004
1.662087e+003, 1.071106e+004
1.664015e+003, 1.071562e+004
1.665944e+003, 1.071445e+004
1.667872e+003, 1.070204e+004
1.669801e+003, 1.069438e+004
1.671729e+003, 1.071855e+004
1.673658e+003, 1.077887e+004
1.675586e+003, 1.082403e+004
1.677515e+003, 1.084949e+004
1.679443e+003, 1.087010e+004
1.681372e+003, 1.087576e+004
1.683300e+003, 1.089163e+004
1.685229e+003, 1.093853e+004
1.687157e+003, 1.100290e+004
1.689085e+003, 1.105602e+004
1.691014e+003, 1.109579e+004
1.692942e+003, 1.112868e+004
1.694871e+003, 1.115432e+004
1.696799e+003, 1.117121e+004
1.698728e+003, 1.116907e+004
1.700656e+003, 1.116865e+004
1.702585e+003, 1.118511e+004
1.704513e+003, 1.121683e+004
1.706442e+003, 1.125780e+004
1.708370e+003, 1.131364e+004
1.710299e+003, 1.136192e+004
1.712227e+003, 1.139858e+004
1.714156e+003, 1.143097e+004
1.716084e+003, 1.145926e+004
1.718012e+003, 1.148383e+004
1.719941e+003, 1.150249e+004
1.721869e+003, 1.151682e+004
1.723798e+003, 1.153735e+004
1.725726e+003, 1.156794e+004
1.727655e+003, 1.159277e+004
1.729583e+003, 1.160847e+004
1.731512e+003, 1.162216e+004
1.733440e+003, 1.163367e+004
1.735369e+003, 1.164654e+004
1.737297e+003, 1.166764e+004
1.739226e+003, 1.169446e+004
1.741154e+003, 1.170418e+004
1.743083e+003, 1.168063e+004
1.745011e+003, 1.169943e+004
1.746939e+003, 1.180913e+004
1.748868e+003, 1.190266e+004
1.750797e+003, 1.193874e+004
1.752725e+003, 1.194945e+004
1.754653e+003, 1.195061e+004
1.756582e+003, 1.194795e+004
1.758510e+003, 1.198969e+004
1.760439e+003, 1.209977e+004
1.762367e+003, 1.214069e+004
1.764296e+003, 1.203298e+004
1.766224e+003, 1.196106e+004
1.768153e+003, 1.202063e+004
1.770081e+003, 1.210933e+004
1.772010e+003, 1.214184e+004
1.773938e+003, 1.213479e+004
1.775867e+003, 1.215116e+004
1.777795e+003, 1.219425e+004
1.779724e+003, 1.223484e+004
1.781652e+003, 1.226766e+004
1.783580e+003, 1.229926e+004
1.785509e+003, 1.232770e+004
1.787437e+003, 1.235789e+004
1.789366e+003, 1.239675e+004
1.791294e+003, 1.243811e+004
1.793223e+003, 1.246354e+004
1.795151e+003, 1.247200e+004
1.797080e+003, 1.250289e+004
1.799008e+003, 1.257668e+004
1.800937e+003, 1.262936e+004
1.802865e+003, 1.261441e+004
1.804794e+003, 1.260738e+004
1.806722e+003, 1.267807e+004
1.808651e+003, 1.277653e+004
1.810579e+003, 1.282536e+004
1.812507e+003, 1.282866e+004
1.814436e+003, 1.283003e+004
1.816364e+003, 1.282680e+004
1.818293e+003, 1.284133e+004
1.820221e+003, 1.289112e+004
1.822150e+003, 1.294034e+004
1.824078e+003, 1.296161e+004
1.826007e+003, 1.298062e+004
1.827935e+003, 1.304087e+004
1.829864e+003, 1.312714e+004
1.831792e+003, 1.316791e+004
1.833721e+003, 1.315345e+004
1.835649e+003, 1.315005e+004
1.837578e+003, 1.316764e+004
1.839506e+003, 1.319499e+004
1.841434e+003, 1.323567e+004
1.843363e+003, 1.327558e+004
1.845291e+003, 1.329561e+004
1.847220e+003, 1.330786e+004
1.849148e+003, 1.334560e+004
1.851077e+003, 1.341337e+004
1.853005e+003, 1.346467e+004
1.854934e+003, 1.348783e+004
1.856862e+003, 1.351606e+004
1.858791e+003, 1.355780e+004
1.860719e+003, 1.360117e+004
1.862648e+003, 1.364710e+004
1.864576e+003, 1.368769e+004
1.866505e+003, 1.371002e+004
1.868433e+003, 1.371720e+004
1.870361e+003, 1.372854e+004
1.872290e+003, 1.374056e+004
1.874218e+003, 1.376561e+004
1.876147e+003, 1.381610e+004
1.878075e+003, 1.386293e+004
1.880004e+003, 1.389874e+004
1.881932e+003, 1.393212e+004
1.883861e+003, 1.396404e+004
1.885789e+003, 1.399885e+004
1.887718e+003, 1.404840e+004
1.889646e+003, 1.411156e+004
1.891575e+003, 1.415375e+004
1.893503e+003, 1.416760e+004
1.895432e+003, 1.417840e+004
1.897360e+003, 1.419033e+004
1.899288e+003, 1.419976e+004
1.901217e+003, 1.419508e+004
1.903145e+003, 1.420252e+004
1.905074e+003, 1.425601e+004
1.907002e+003, 1.433324e+004
1.908931e+003, 1.438039e+004
1.910859e+003, 1.439984e+004
1.912788e+003, 1.443787e+004
1.914716e+003, 1.450272e+004
1.916645e+003, 1.455487e+004
1.918573e+003, 1.457592e+004
1.920502e+003, 1.459232e+004
1.922430e+003, 1.460795e+004
1.924359e+003, 1.463107e+004
1.926287e+003, 1.468329e+004
1.928215e+003, 1.474713e+004
1.930144e+003, 1.477546e+004
1.932072e+003, 1.476857e+004
1.934001e+003, 1.476221e+004
1.935929e+003, 1.474146e+004
1.937858e+003, 1.475870e+004
1.939786e+003, 1.485196e+004
1.941715e+003, 1.494239e+004
1.943643e+003, 1.500133e+004
1.945572e+003, 1.504305e+004
1.947500e+003, 1.506971e+004
1.949429e+003, 1.509073e+004
1.951357e+003, 1.513525e+004
1.953286e+003, 1.520730e+004
1.955214e+003, 1.525415e+004
1.957142e+003, 1.526671e+004
1.959071e+003, 1.527472e+004
1.960999e+003, 1.527274e+004
1.962928e+003, 1.528076e+004
1.964856e+003, 1.530306e+004
1.966785e+003, 1.534177e+004
1.968713e+003, 1.542130e+004
1.970642e+003, 1.550835e+004
1.972570e+003, 1.553008e+004
1.974499e+003, 1.549716e+004
1.976427e+003, 1.548642e+004
1.978356e+003, 1.549938e+004
1.980284e+003, 1.555166e+004
1.982213e+003, 1.566929e+004
1.984141e+003, 1.576893e+004
1.986069e+003, 1.580160e+004
1.987998e+003, 1.582852e+004
1.989926e+003, 1.589321e+004
1.991855e+003, 1.596750e+004
1.993783e+003, 1.601193e+004
1.995712e+003, 1.603414e+004
1.997640e+003, 1.606927e+004
1.999569e+003, 1.612167e+004
2.001497e+003, 1.617003e+004
2.003426e+003, 1.621974e+004
2.005354e+003, 1.625761e+004
2.007283e+003, 1.626877e+004
2.009211e+003, 1.628496e+004
2.011140e+003, 1.632187e+004
2.013068e+003, 1.636456e+004
2.014996e+003, 1.639767e+004
2.016925e+003, 1.642931e+004
2.018853e+003, 1.648109e+004
2.020782e+003, 1.655246e+004
2.022710e+003, 1.661124e+004
2.024639e+003, 1.665957e+004
2.026567e+003, 1.667996e+004
2.028496e+003, 1.664703e+004
2.030424e+003, 1.664448e+004
2.032353e+003, 1.671949e+004
2.034281e+003, 1.679806e+004
2.036210e+003, 1.683392e+004
2.038138e+003, 1.685682e+004
2.040067e+003, 1.689381e+004
2.041995e+003, 1.694178e+004
2.043923e+003, 1.700008e+004
2.045852e+003, 1.706859e+004
2.047780e+003, 1.710548e+004
2.049709e+003, 1.708825e+004
2.051637e+003, 1.709912e+004
2.053566e+003, 1.717910e+004
2.055494e+003, 1.723399e+004
2.057423e+003, 1.721885e+004
2.059351e+003, 1.720548e+004
2.061280e+003, 1.723473e+004
2.063208e+003, 1.728620e+004
2.065136e+003, 1.735010e+004
2.067065e+003, 1.741702e+004
2.068993e+003, 1.744681e+004
2.070922e+003, 1.744189e+004
2.072850e+003, 1.748112e+004
2.074779e+003, 1.757155e+004
2.076708e+003, 1.766556e+004
2.078636e+003, 1.775754e+004
2.080564e+003, 1.783754e+004
2.082493e+003, 1.790461e+004
2.084421e+003, 1.795350e+004
2.086350e+003, 1.797963e+004
2.088278e+003, 1.799221e+004
2.090207e+003, 1.799550e+004
2.092135e+003, 1.799736e+004
2.094064e+003, 1.800692e+004
2.095992e+003, 1.802601e+004
2.097921e+003, 1.807185e+004
2.099849e+003, 1.816151e+004
2.101778e+003, 1.821835e+004
2.103706e+003, 1.821525e+004
2.105635e+003, 1.822179e+004
2.107563e+003, 1.825353e+004
2.109491e+003, 1.828554e+004
2.111420e+003, 1.831193e+004
2.113348e+003, 1.833802e+004
2.115277e+003, 1.837008e+004
2.117205e+003, 1.840512e+004
2.119134e+003, 1.842961e+004
2.121062e+003, 1.845501e+004
2.122991e+003, 1.852183e+004
2.124919e+003, 1.862586e+004
2.126848e+003, 1.869182e+004
2.128776e+003, 1.869736e+004
2.130705e+003, 1.873096e+004
2.132633e+003, 1.883582e+004
2.134562e+003, 1.891628e+004
2.136490e+003, 1.894387e+004
2.138418e+003, 1.895937e+004
2.140347e+003, 1.897416e+004
2.142275e+003, 1.899297e+004
2.144204e+003, 1.901769e+004
2.146132e+003, 1.905182e+004
2.148061e+003, 1.909999e+004
2.149989e+003, 1.916267e+004
2.151918e+003, 1.924538e+004
2.153846e+003, 1.934670e+004
2.155775e+003, 1.942382e+004
2.157703e+003, 1.946866e+004
2.159632e+003, 1.951646e+004
2.161560e+003, 1.957828e+004
2.163489e+003, 1.962306e+004
2.165417e+003, 1.962218e+004
2.167345e+003, 1.962604e+004
2.169274e+003, 1.965721e+004
2.171202e+003, 1.970056e+004
2.173131e+003, 1.975106e+004
2.175059e+003, 1.980475e+004
2.176988e+003, 1.985733e+004
2.178916e+003, 1.990943e+004
2.180845e+003, 1.996139e+004
2.182773e+003, 2.001359e+004
2.184702e+003, 2.005032e+004
2.186630e+003, 2.006710e+004
2.188559e+003, 2.009956e+004
2.190487e+003, 2.015309e+004
2.192416e+003, 2.020957e+004
2.194344e+003, 2.026300e+004
2.196272e+003, 2.031960e+004
2.198201e+003, 2.039918e+004
2.200129e+003, 2.046165e+004
2.202058e+003, 2.045527e+004
2.203986e+003, 2.045156e+004
2.205915e+003, 2.054601e+004
2.207843e+003, 2.067406e+004
2.209772e+003, 2.071381e+004
2.211700e+003, 2.068595e+004
2.213629e+003, 2.069363e+004
2.215557e+003, 2.073785e+004
2.217486e+003, 2.077118e+004
2.219414e+003, 2.079038e+004
2.221343e+003, 2.082020e+004
2.223271e+003, 2.086066e+004
2.225199e+003, 2.092470e+004
2.227128e+003, 2.103475e+004
2.229056e+003, 2.112977e+004
2.230985e+003, 2.114852e+004
2.232913e+003, 2.119263e+004
2.234842e+003, 2.137039e+004
2.236770e+003, 2.154616e+004
2.238699e+003, 2.157693e+004
2.240627e+003, 2.154002e+004
2.242556e+003, 2.153613e+004
2.244484e+003, 2.156941e+004
2.246413e+003, 2.167804e+004
2.248341e+003, 2.184818e+004
2.250270e+003, 2.192623e+004
2.252198e+003, 2.190127e+004
2.254126e+003, 2.190557e+004
2.256055e+003, 2.195925e+004
2.257983e+003, 2.200619e+004
2.259912e+003, 2.200696e+004
2.261840e+003, 2.205338e+004
2.263769e+003, 2.223599e+004
2.265697e+003, 2.236991e+004
2.267626e+003, 2.232873e+004
2.269554e+003, 2.228377e+004
2.271483e+003, 2.237363e+004
2.273411e+003, 2.248702e+004
2.275340e+003, 2.250559e+004
2.277268e+003, 2.248402e+004
2.279197e+003, 2.250464e+004
2.281125e+003, 2.256097e+004
2.283053e+003, 2.264083e+004
2.284982e+003, 2.273862e+004
2.286910e+003, 2.281417e+004
2.288839e+003, 2.286076e+004
2.290767e+003, 2.290308e+004
2.292696e+003, 2.293160e+004
2.294624e+003, 2.297091e+004
2.296553e+003, 2.301937e+004
2.298481e+003, 2.308295e+004
2.300410e+003, 2.318726e+004
2.302338e+003, 2.326875e+004
2.304267e+003, 2.328444e+004
2.306195e+003, 2.331171e+004
2.308124e+003, 2.341076e+004
2.310052e+003, 2.351748e+004
2.311980e+003, 2.359075e+004
2.313909e+003, 2.363762e+004
2.315837e+003, 2.364529e+004
2.317766e+003, 2.364199e+004
2.319694e+003, 2.368611e+004
2.321623e+003, 2.376826e+004
2.323551e+003, 2.385767e+004
2.325480e+003, 2.395340e+004
2.327408e+003, 2.401828e+004
2.329337e+003, 2.404937e+004
2.331265e+003, 2.408877e+004
2.333194e+003, 2.413984e+004
2.335122e+003, 2.420046e+004
2.337051e+003, 2.428349e+004
2.338979e+003, 2.434142e+004
2.340907e+003, 2.434435e+004
2.342836e+003, 2.435802e+004
2.344764e+003, 2.439986e+004
2.346693e+003, 2.445985e+004
2.348621e+003, 2.454706e+004
2.350550e+003, 2.463176e+004
2.352478e+003, 2.467256e+004
2.354407e+003, 2.471688e+004
2.356335e+003, 2.481552e+004
2.358264e+003, 2.492891e+004
2.360192e+003, 2.502606e+004
2.362121e+003, 2.509858e+004
2.364049e+003, 2.512624e+004
2.365978e+003, 2.512092e+004
2.367906e+003, 2.510651e+004
2.369834e+003, 2.508795e+004
2.371763e+003, 2.511400e+004
2.373691e+003, 2.518902e+004
2.375620e+003, 2.527670e+004
2.377548e+003, 2.537527e+004
2.379477e+003, 2.546565e+004
2.381405e+003, 2.554406e+004
2.383334e+003, 2.560213e+004
2.385262e+003, 2.562490e+004
2.387191e+003, 2.566412e+004
2.389119e+003, 2.575367e+004
2.391048e+003, 2.583826e+004
2.392976e+003, 2.590416e+004
2.394905e+003, 2.596388e+004
2.396833e+003, 2.601161e+004
2.398761e+003, 2.606771e+004
2.400690e+003, 2.614197e+004
2.402618e+003, 2.622724e+004
2.404547e+003, 2.633996e+004
2.406475e+003, 2.643731e+004
2.408404e+003, 2.644806e+004
2.410332e+003, 2.642955e+004
2.412261e+003, 2.648226e+004
2.414189e+003, 2.657997e+004
2.416118e+003, 2.665271e+004
2.418046e+003, 2.670670e+004
2.419975e+003, 2.677395e+004
2.421903e+003, 2.685300e+004
2.423832e+003, 2.690316e+004
2.425760e+003, 2.692484e+004
2.427688e+003, 2.701317e+004
2.429617e+003, 2.718290e+004
2.431545e+003, 2.730751e+004
2.433474e+003, 2.736103e+004
2.435402e+003, 2.740737e+004
2.437331e+003, 2.745769e+004
2.439259e+003, 2.749456e+004
2.441188e+003, 2.749533e+004
2.443116e+003, 2.753065e+004
2.445045e+003, 2.763008e+004
2.446973e+003, 2.773485e+004
2.448902e+003, 2.782877e+004
2.450830e+003, 2.791464e+004
2.452759e+003, 2.801048e+004
2.454687e+003, 2.807137e+004
2.456615e+003, 2.801407e+004
2.458544e+003, 2.798024e+004
2.460472e+003, 2.810544e+004
2.462401e+003, 2.827296e+004
2.464329e+003, 2.839526e+004
2.466258e+003, 2.848261e+004
2.468186e+003, 2.852861e+004
2.470115e+003, 2.855909e+004
2.472043e+003, 2.860971e+004
2.473972e+003, 2.866851e+004
2.475900e+003, 2.869571e+004
2.477829e+003, 2.871235e+004
2.479757e+003, 2.882454e+004
2.481686e+003, 2.900543e+004
2.483614e+003, 2.904614e+004
2.485542e+003, 2.896851e+004
2.487471e+003, 2.902982e+004
2.489399e+003, 2.922675e+004
2.491328e+003, 2.933347e+004
2.493256e+003, 2.932977e+004
2.495185e+003, 2.936566e+004
2.497113e+003, 2.946774e+004
2.499042e+003, 2.954817e+004
2.500970e+003, 2.959331e+004
2.502899e+003, 2.963299e+004
2.504827e+003, 2.965233e+004
2.506756e+003, 2.971751e+004
2.508684e+003, 2.986413e+004
2.510613e+003, 2.996977e+004
2.512541e+003, 2.997956e+004
2.514469e+003, 3.000809e+004
2.516398e+003, 3.011675e+004
2.518326e+003, 3.020792e+004
2.520255e+003, 3.022088e+004
2.522183e+003, 3.026490e+004
2.524112e+003, 3.040402e+004
2.526040e+003, 3.053373e+004
2.527969e+003, 3.060749e+004
2.529897e+003, 3.065915e+004
2.531826e+003, 3.067545e+004
2.533754e+003, 3.072027e+004
2.535683e+003, 3.087398e+004
2.537611e+003, 3.103243e+004
2.539540e+003, 3.109848e+004
2.541468e+003, 3.114483e+004
2.543396e+003, 3.123554e+004
2.545325e+003, 3.134289e+004
2.547253e+003, 3.144446e+004
2.549182e+003, 3.153467e+004
2.551110e+003, 3.160549e+004
2.553039e+003, 3.166294e+004
2.554967e+003, 3.171958e+004
2.556896e+003, 3.177201e+004
2.558824e+003, 3.180968e+004
2.560753e+003, 3.184280e+004
2.562681e+003, 3.187572e+004
2.564610e+003, 3.192760e+004
2.566538e+003, 3.207034e+004
2.568467e+003, 3.226577e+004
2.570395e+003, 3.237938e+004
2.572323e+003, 3.242086e+004
2.574252e+003, 3.245126e+004
2.576180e+003, 3.247244e+004
2.578109e+003, 3.255618e+004
2.580037e+003, 3.269460e+004
2.581966e+003, 3.277385e+004
2.583894e+003, 3.280207e+004
2.585823e+003, 3.286816e+004
2.587751e+003, 3.298038e+004
2.589680e+003, 3.311288e+004
2.591608e+003, 3.327770e+004
2.593537e+003, 3.336997e+004
2.595465e+003, 3.336999e+004
2.597394e+003, 3.341918e+004
2.599322e+003, 3.352249e+004
2.601250e+003, 3.364754e+004
2.603179e+003, 3.379640e+004
2.605107e+003, 3.392001e+004
2.607036e+003, 3.401366e+004
2.608964e+003, 3.408211e+004
2.610893e+003, 3.411230e+004
2.612821e+003, 3.416994e+004
2.614750e+003, 3.426795e+004
2.616678e+003, 3.436032e+004
2.618607e+003, 3.443397e+004
2.620535e+003, 3.452754e+004
2.622464e+003, 3.465892e+004
2.624392e+003, 3.477859e+004
2.626321e+003, 3.490263e+004
2.628249e+003, 3.496557e+004
2.630177e+003, 3.493423e+004
2.632106e+003, 3.492002e+004
2.634034e+003, 3.493644e+004
2.635963e+003, 3.500319e+004
2.637891e+003, 3.516162e+004
2.639820e+003, 3.529518e+004
2.641748e+003, 3.534359e+004
2.643677e+003, 3.541930e+004
2.645605e+003, 3.556167e+004
2.647534e+003, 3.569352e+004
2.649462e+003, 3.580611e+004
2.651391e+003, 3.587923e+004
2.653319e+003, 3.586649e+004
2.655248e+003, 3.588829e+004
2.657176e+003, 3.601025e+004
2.659104e+003, 3.612586e+004
2.661033e+003, 3.622214e+004
2.662961e+003, 3.627968e+004
2.664890e+003, 3.626427e+004
2.666818e+003, 3.628531e+004
2.668747e+003, 3.641314e+004
2.670675e+003, 3.653199e+004
2.672604e+003, 3.658247e+004
2.674532e+003, 3.664268e+004
2.676461e+003, 3.672234e+004
2.678389e+003, 3.683950e+004
2.680318e+003, 3.703111e+004
2.682246e+003, 3.718471e+004
2.684175e+003, 3.723279e+004
2.686103e+003, 3.727560e+004
2.688031e+003, 3.736137e+004
2.689960e+003, 3.744280e+004
2.691888e+003, 3.751481e+004
2.693817e+003, 3.756965e+004
2.695745e+003, 3.759366e+004
2.697674e+003, 3.763323e+004
2.699602e+003, 3.769544e+004
2.701531e+003, 3.779744e+004
2.703459e+003, 3.797227e+004
2.705388e+003, 3.814262e+004
2.707316e+003, 3.829043e+004
2.709245e+003, 3.840257e+004
2.711173e+003, 3.844428e+004
2.713102e+003, 3.850627e+004
2.715030e+003, 3.863808e+004
2.716958e+003, 3.876302e+004
2.718887e+003, 3.886280e+004
2.720815e+003, 3.892947e+004
2.722744e+003, 3.891053e+004
2.724672e+003, 3.894569e+004
2.726601e+003, 3.909619e+004
2.728529e+003, 3.926432e+004
2.730458e+003, 3.943705e+004
2.732386e+003, 3.958245e+004
2.734315e+003, 3.966035e+004
2.736243e+003, 3.975138e+004
2.738172e+003, 3.991613e+004
2.740100e+003, 4.002044e+004
2.742029e+003, 4.000355e+004
2.743957e+003, 4.000642e+004
2.745885e+003, 4.006738e+004
2.747814e+003, 4.017574e+004
2.749742e+003, 4.036152e+004
2.751671e+003, 4.054939e+004
2.753599e+003, 4.074683e+004
2.755528e+003, 4.089647e+004
2.757456e+003, 4.097135e+004
2.759385e+003, 4.103116e+004
2.761313e+003, 4.105887e+004
2.763242e+003, 4.113398e+004
2.765170e+003, 4.131190e+004
2.767099e+003, 4.145013e+004
2.769027e+003, 4.151696e+004
2.770956e+003, 4.161331e+004
2.772884e+003, 4.177417e+004
2.774813e+003, 4.188061e+004
2.776741e+003, 4.188697e+004
2.778669e+003, 4.193222e+004
2.780598e+003, 4.206070e+004
2.782526e+003, 4.215320e+004
2.784455e+003, 4.219464e+004
2.786383e+003, 4.228139e+004
2.788312e+003, 4.243019e+004
2.790240e+003, 4.253780e+004
2.792169e+003, 4.255953e+004
2.794097e+003, 4.265180e+004
2.796026e+003, 4.283218e+004
2.797954e+003, 4.294507e+004
2.799883e+003, 4.298698e+004
2.801811e+003, 4.304386e+004
2.803740e+003, 4.312436e+004
2.805668e+003, 4.319851e+004
2.807596e+003, 4.326616e+004
2.809525e+003, 4.340380e+004
2.811453e+003, 4.360112e+004
2.813382e+003, 4.366909e+004
2.815310e+003, 4.363397e+004
2.817239e+003, 4.367999e+004
2.819167e+003, 4.379788e+004
2.821096e+003, 4.393402e+004
2.823024e+003, 4.407751e+004
2.824953e+003, 4.415971e+004
2.826881e+003, 4.421105e+004
2.828810e+003, 4.432634e+004
2.830738e+003, 4.448438e+004
2.832667e+003, 4.466932e+004
2.834595e+003, 4.484062e+004
2.836523e+003, 4.489432e+004
2.838452e+003, 4.489895e+004
2.840380e+003, 4.495985e+004
2.842309e+003, 4.506057e+004
2.844237e+003, 4.521674e+004
2.846166e+003, 4.535744e+004
2.848094e+003, 4.532133e+004
2.850023e+003, 4.531002e+004
2.851951e+003, 4.563008e+004
2.853880e+003, 4.593818e+004
2.855808e+003, 4.591267e+004
2.857737e+003, 4.585527e+004
2.859665e+003, 4.599334e+004
2.861594e+003, 4.615818e+004
2.863522e+003, 4.625306e+004
2.865450e+003, 4.634170e+004
2.867379e+003, 4.644938e+004
2.869307e+003, 4.655792e+004
2.871236e+003, 4.663516e+004
2.873164e+003, 4.674625e+004
2.875093e+003, 4.697823e+004
2.877021e+003, 4.711321e+004
2.878950e+003, 4.705435e+004
2.880878e+003, 4.707720e+004
2.882807e+003, 4.727851e+004
2.884735e+003, 4.745977e+004
2.886664e+003, 4.754884e+004
2.888592e+003, 4.769564e+004
2.890521e+003, 4.792205e+004
2.892449e+003, 4.809918e+004
2.894377e+003, 4.821191e+004
2.896306e+003, 4.832945e+004
2.898234e+003, 4.846258e+004
2.900163e+003, 4.853297e+004
2.902091e+003, 4.853844e+004
2.904020e+003, 4.861916e+004
2.905948e+003, 4.876615e+004
2.907877e+003, 4.891497e+004
2.909805e+003, 4.906546e+004
2.911734e+003, 4.922863e+004
2.913662e+003, 4.938855e+004
2.915591e+003, 4.948497e+004
2.917519e+003, 4.954911e+004
2.919448e+003, 4.962390e+004
2.921376e+003, 4.972969e+004
2.923304e+003, 4.994263e+004
2.925233e+003, 5.015986e+004
2.927161e+003, 5.027022e+004
2.929090e+003, 5.031579e+004
2.931018e+003, 5.028045e+004
2.932947e+003, 5.027638e+004
2.934875e+003, 5.042592e+004
2.936804e+003, 5.056413e+004
2.938732e+003, 5.054541e+004
2.940661e+003, 5.058600e+004
2.942589e+003, 5.080284e+004
2.944518e+003, 5.097791e+004
2.946446e+003, 5.098642e+004
2.948375e+003, 5.104980e+004
2.950303e+003, 5.125763e+004
2.952231e+003, 5.140820e+004
2.954160e+003, 5.146669e+004
2.956088e+003, 5.159356e+004
2.958017e+003, 5.183121e+004
2.959945e+003, 5.194055e+004
2.961874e+003, 5.187575e+004
2.963802e+003, 5.199088e+004
2.965731e+003, 5.225924e+004
2.967659e+003, 5.235912e+004
2.969588e+003, 5.233151e+004
2.971516e+003, 5.239588e+004
2.973445e+003, 5.253882e+004
2.975373e+003, 5.274183e+004
2.977302e+003, 5.296370e+004
2.979230e+003, 5.314278e+004
2.981158e+003, 5.326426e+004
2.983087e+003, 5.324506e+004
2.985015e+003, 5.323585e+004
2.986944e+003, 5.344532e+004
2.988872e+003, 5.365184e+004
2.990801e+003, 5.368145e+004
2.992729e+003, 5.373885e+004
2.994658e+003, 5.397295e+004
2.996586e+003, 5.418775e+004
2.998515e+003, 5.429998e+004
3.000443e+003, 5.440479e+004
3.002372e+003, 5.452052e+004
3.004300e+003, 5.460968e+004
3.006229e+003, 5.464114e+004
3.008157e+003, 5.473727e+004
3.010085e+003, 5.492573e+004
3.012014e+003, 5.503963e+004
3.013942e+003, 5.508023e+004
3.015871e+003, 5.511468e+004
3.017799e+003, 5.515634e+004
3.019728e+003, 5.529731e+004
3.021656e+003, 5.550307e+004
3.023585e+003, 5.566558e+004
3.025513e+003, 5.579175e+004
3.027442e+003, 5.586416e+004
3.029370e+003, 5.594174e+004
3.031299e+003, 5.611538e+004
3.033227e+003, 5.630496e+004
3.035156e+003, 5.644904e+004
3.037084e+003, 5.657023e+004
3.039012e+003, 5.665884e+004
3.040941e+003, 5.676785e+004
3.042869e+003, 5.696027e+004
3.044798e+003, 5.710914e+004
3.046726e+003, 5.718156e+004
3.048655e+003, 5.725573e+004
3.050583e+003, 5.734282e+004
3.052512e+003, 5.744412e+004
3.054440e+003, 5.755614e+004
3.056369e+003, 5.772285e+004
3.058297e+003, 5.793589e+004
3.060226e+003, 5.807944e+004
3.062154e+003, 5.817379e+004
3.064083e+003, 5.832606e+004
3.066011e+003, 5.850228e+004
3.067939e+003, 5.862045e+004
3.069868e+003, 5.870310e+004
3.071796e+003, 5.878741e+004
3.073725e+003, 5.884689e+004
3.075653e+003, 5.882924e+004
3.077582e+003, 5.883065e+004
3.079510e+003, 5.888472e+004
3.081439e+003, 5.902175e+004
3.083367e+003, 5.930186e+004
3.085296e+003, 5.959468e+004
3.087224e+003, 5.991447e+004
3.089153e+003, 6.009804e+004
3.091081e+003, 6.010774e+004
3.093010e+003, 6.015445e+004
3.094938e+003, 6.025612e+004
3.096866e+003, 6.040850e+004
3.098795e+003, 6.059962e+004
3.100723e+003, 6.071134e+004
3.102652e+003, 6.077666e+004
3.104580e+003, 6.086184e+004
3.106509e+003, 6.096961e+004
3.108437e+003, 6.111646e+004
3.110366e+003, 6.126988e+004
3.112294e+003, 6.140316e+004
3.114223e+003, 6.153091e+004
3.116151e+003, 6.169272e+004
3.118080e+003, 6.180383e+004
3.120008e+003, 6.180194e+004
3.121937e+003, 6.186767e+004
3.123865e+003, 6.205674e+004
3.125793e+003, 6.221973e+004
3.127722e+003, 6.231534e+004
3.129650e+003, 6.247007e+004
3.131579e+003, 6.267200e+004
3.133507e+003, 6.282782e+004
3.135436e+003, 6.295029e+004
3.137364e+003, 6.311345e+004
3.139293e+003, 6.328294e+004
3.141221e+003, 6.336768e+004
3.143150e+003, 6.345550e+004
3.145078e+003, 6.362359e+004
3.147007e+003, 6.383705e+004
3.148935e+003, 6.415043e+004
3.150864e+003, 6.434231e+004
3.152792e+003, 6.428454e+004
3.154720e+003, 6.427244e+004
3.156649e+003, 6.439077e+004
3.158577e+003, 6.455031e+004
3.160506e+003, 6.476592e+004
3.162434e+003, 6.482696e+004
3.164363e+003, 6.477332e+004
3.166291e+003, 6.494401e+004
3.168220e+003, 6.525097e+004
3.170148e+003, 6.541732e+004
3.172077e+003, 6.552014e+004
3.174005e+003, 6.566062e+004
3.175934e+003, 6.581883e+004
3.177862e+003, 6.602409e+004
3.179791e+003, 6.617262e+004
3.181719e+003, 6.615426e+004
3.183647e+003, 6.623909e+004
3.185576e+003, 6.655463e+004
3.187504e+003, 6.679113e+004
3.189433e+003, 6.684041e+004
3.191361e+003, 6.707724e+004
3.193290e+003, 6.746685e+004
3.195218e+003, 6.760484e+004
3.197147e+003, 6.756582e+004
3.199075e+003, 6.763877e+004
3.201004e+003, 6.776932e+004
3.202932e+003, 6.788245e+004
3.204861e+003, 6.799644e+004
3.206789e+003, 6.811847e+004
3.208718e+003, 6.826239e+004
3.210646e+003, 6.841110e+004
3.212574e+003, 6.861021e+004
3.214503e+003, 6.888213e+004
3.216431e+003, 6.908716e+004
3.218360e+003, 6.915760e+004
3.220288e+003, 6.935520e+004
3.222217e+003, 6.964904e+004
3.224145e+003, 6.973938e+004
3.226074e+003, 6.970653e+004
3.228002e+003, 6.973336e+004
3.229931e+003, 6.981753e+004
3.231859e+003, 6.996768e+004
3.233788e+003, 7.014811e+004
3.235716e+003, 7.036202e+004
3.237645e+003, 7.054108e+004
3.239573e+003, 7.062938e+004
3.241501e+003, 7.076255e+004
3.243430e+003, 7.097729e+004
3.245358e+003, 7.114354e+004
3.247287e+003, 7.124395e+004
3.249215e+003, 7.139827e+004
3.251144e+003, 7.158970e+004
3.253072e+003, 7.175624e+004
3.255001e+003, 7.191716e+004
3.256929e+003, 7.215570e+004
3.258858e+003, 7.233878e+004
3.260786e+003, 7.227858e+004
3.262715e+003, 7.228435e+004
3.264643e+003, 7.255559e+004
3.266572e+003, 7.283074e+004
3.268500e+003, 7.308690e+004
3.270428e+003, 7.319924e+004
3.272357e+003, 7.314853e+004
3.274285e+003, 7.325499e+004
3.276214e+003, 7.349227e+004
3.278142e+003, 7.372781e+004
3.280071e+003, 7.394380e+004
3.281999e+003, 7.409647e+004
3.283928e+003, 7.423666e+004
3.285856e+003, 7.440423e+004
3.287785e+003, 7.459444e+004
3.289713e+003, 7.485419e+004
3.291642e+003, 7.502565e+004
3.293570e+003, 7.503213e+004
3.295499e+003, 7.510905e+004
3.297427e+003, 7.525785e+004
3.299355e+003, 7.541545e+004
3.301284e+003, 7.558051e+004
3.303212e+003, 7.577841e+004
3.305141e+003, 7.598811e+004
3.307069e+003, 7.622360e+004
3.308998e+003, 7.640370e+004
3.310926e+003, 7.645741e+004
3.312855e+003, 7.648513e+004
3.314783e+003, 7.651246e+004
3.316712e+003, 7.656573e+004
3.318640e+003, 7.665066e+004
3.320569e+003, 7.677128e+004
3.322497e+003, 7.692862e+004
3.324426e+003, 7.720468e+004
3.326354e+003, 7.751350e+004
3.328282e+003, 7.770717e+004
3.330211e+003, 7.783759e+004
3.332139e+003, 7.793637e+004
3.334068e+003, 7.802819e+004
3.335996e+003, 7.810702e+004
3.337925e+003, 7.825282e+004
3.339853e+003, 7.850920e+004
3.341782e+003, 7.866151e+004
3.343710e+003, 7.872397e+004
3.345639e+003, 7.896775e+004
3.347567e+003, 7.931213e+004
3.349496e+003, 7.957724e+004
3.351424e+003, 7.975125e+004
3.353353e+003, 7.975872e+004
3.355281e+003, 7.978416e+004
3.357209e+003, 7.995135e+004
3.359138e+003, 8.012447e+004
3.361066e+003, 8.029491e+004
3.362995e+003, 8.043876e+004
3.364923e+003, 8.056389e+004
3.366852e+003, 8.065935e+004
3.368780e+003, 8.075192e+004
3.370709e+003, 8.089859e+004
3.372637e+003, 8.107287e+004
3.374566e+003, 8.123351e+004
3.376494e+003, 8.141980e+004
3.378423e+003, 8.165910e+004
3.380351e+003, 8.188570e+004
3.382280e+003, 8.207738e+004
3.384208e+003, 8.227952e+004
3.386136e+003, 8.248813e+004
3.388065e+003, 8.263474e+004
3.389993e+003, 8.276829e+004
3.391922e+003, 8.300958e+004
3.393851e+003, 8.331281e+004
3.395779e+003, 8.375428e+004
3.397708e+003, 8.403461e+004
3.399636e+003, 8.385798e+004
3.401564e+003, 8.386345e+004
3.403493e+003, 8.414236e+004
3.405421e+003, 8.429548e+004
3.407350e+003, 8.433455e+004
3.409278e+003, 8.455120e+004
3.411207e+003, 8.485773e+004
3.413135e+003, 8.513634e+004
3.415064e+003, 8.537312e+004
3.416992e+003, 8.553648e+004
3.418921e+003, 8.568674e+004
3.420849e+003, 8.581852e+004
3.422778e+003, 8.605698e+004
3.424706e+003, 8.643624e+004
3.426635e+003, 8.663180e+004
3.428563e+003, 8.672541e+004
3.430491e+003, 8.699968e+004
3.432420e+003, 8.729413e+004
3.434348e+003, 8.736788e+004
3.436277e+003, 8.746812e+004
3.438205e+003, 8.778448e+004
3.440134e+003, 8.795465e+004
3.442062e+003, 8.787370e+004
3.443991e+003, 8.791162e+004
3.445919e+003, 8.806905e+004
3.447848e+003, 8.826329e+004
3.449776e+003, 8.848120e+004
3.451705e+003, 8.872559e+004
3.453633e+003, 8.895095e+004
3.455562e+003, 8.916127e+004
3.457490e+003, 8.926400e+004
3.459418e+003, 8.919510e+004
3.461347e+003, 8.933342e+004
3.463275e+003, 8.970113e+004
3.465204e+003, 8.984644e+004
3.467132e+003, 8.989654e+004
3.469061e+003, 9.020594e+004
3.470989e+003, 9.053924e+004
3.472918e+003, 9.068645e+004
3.474846e+003, 9.082029e+004
3.476775e+003, 9.097881e+004
3.478703e+003, 9.113988e+004
3.480632e+003, 9.128788e+004
3.482560e+003, 9.147076e+004
3.484489e+003, 9.166657e+004
3.486417e+003, 9.181556e+004
3.488345e+003, 9.197281e+004
3.490274e+003, 9.221871e+004
3.492202e+003, 9.247673e+004
3.494131e+003, 9.273219e+004
3.496059e+003, 9.294684e+004
3.497988e+003, 9.309321e+004
3.499916e+003, 9.326097e+004
3.501845e+003, 9.346797e+004
3.503773e+003, 9.388586e+004
3.505702e+003, 9.424103e+004
3.507630e+003, 9.412183e+004
3.509559e+003, 9.406393e+004
3.511487e+003, 9.429897e+004
3.513416e+003, 9.456070e+004
3.515344e+003, 9.482745e+004
3.517272e+003, 9.508113e+004
3.519201e+003, 9.530460e+004
3.521129e+003, 9.541255e+004
3.523058e+003, 9.552818e+004
3.524986e+003, 9.580210e+004
3.526915e+003, 9.603543e+004
3.528843e+003, 9.605909e+004
3.530772e+003, 9.626349e+004
3.532700e+003, 9.664468e+004
3.534629e+003, 9.687016e+004
3.536557e+003, 9.698509e+004
3.538486e+003, 9.703284e+004
3.540414e+003, 9.716845e+004
3.542343e+003, 9.764309e+004
3.544271e+003, 9.797502e+004
3.546199e+003, 9.800252e+004
3.548128e+003, 9.809549e+004
3.550056e+003, 9.827805e+004
3.551985e+003, 9.851991e+004
3.553913e+003, 9.874776e+004
3.555842e+003, 9.878674e+004
3.557770e+003, 9.883311e+004
3.559699e+003, 9.900249e+004
3.561627e+003, 9.926562e+004
3.563556e+003, 9.963274e+004
3.565484e+003, 9.980705e+004
3.567413e+003, 9.984614e+004
3.569341e+003, 1.001537e+005
3.571270e+003, 1.005185e+005
3.573198e+003, 1.007457e+005
3.575126e+003, 1.008602e+005
3.577055e+003, 1.008323e+005
3.578983e+003, 1.009142e+005
3.580912e+003, 1.011535e+005
3.582840e+003, 1.013532e+005
3.584769e+003, 1.015562e+005
3.586697e+003, 1.018965e+005
3.588626e+003, 1.022395e+005
3.590554e+003, 1.024384e+005
3.592483e+003, 1.026736e+005
3.594411e+003, 1.029810e+005
3.596340e+003, 1.032497e+005
3.598268e+003, 1.034753e+005
3.600197e+003, 1.037117e+005
3.602125e+003, 1.039424e+005
3.604053e+003, 1.041797e+005
3.605982e+003, 1.043599e+005
3.607910e+003, 1.044424e+005
3.609839e+003, 1.046125e+005
3.611767e+003, 1.049107e+005
3.613696e+003, 1.049606e+005
3.615624e+003, 1.049350e+005
3.617553e+003, 1.052674e+005
3.619481e+003, 1.056106e+005
3.621410e+003, 1.056763e+005
3.623338e+003, 1.057641e+005
3.625267e+003, 1.059276e+005
3.627195e+003, 1.062157e+005
3.629124e+003, 1.065966e+005
3.631052e+003, 1.069074e+005
3.632980e+003, 1.072343e+005
3.634909e+003, 1.077581e+005
3.636837e+003, 1.081177e+005
3.638766e+003, 1.081919e+005
3.640694e+003, 1.082099e+005
3.642623e+003, 1.082177e+005
3.644551e+003, 1.083956e+005
3.646480e+003, 1.086549e+005
3.648408e+003, 1.088699e+005
3.650337e+003, 1.091024e+005
3.652265e+003, 1.093644e+005
3.654194e+003, 1.096767e+005
3.656122e+003, 1.100392e+005
3.658051e+003, 1.101978e+005
3.659979e+003, 1.102820e+005
3.661907e+003, 1.105183e+005
3.663836e+003, 1.108115e+005
3.665764e+003, 1.111319e+005
3.667693e+003, 1.114137e+005
3.669621e+003, 1.116418e+005
3.671550e+003, 1.118251e+005
3.673478e+003, 1.119962e+005
3.675407e+003, 1.122418e+005
3.677335e+003, 1.124972e+005
3.679264e+003, 1.127059e+005
3.681192e+003, 1.129036e+005
3.683121e+003, 1.130903e+005
3.685049e+003, 1.133374e+005
3.686978e+003, 1.136270e+005
3.688906e+003, 1.139619e+005
3.690834e+003, 1.141865e+005
3.692763e+003, 1.140168e+005
3.694691e+003, 1.140246e+005
3.696620e+003, 1.143283e+005
3.698548e+003, 1.147713e+005
3.700477e+003, 1.152927e+005
3.702405e+003, 1.157679e+005
3.704334e+003, 1.161541e+005
3.706262e+003, 1.163899e+005
3.708191e+003, 1.165189e+005
3.710119e+003, 1.165351e+005
3.712048e+003, 1.165392e+005
3.713976e+003, 1.165573e+005
3.715905e+003, 1.166575e+005
3.717833e+003, 1.168469e+005
3.719761e+003, 1.171905e+005
3.721690e+003, 1.175747e+005
3.723618e+003, 1.179937e+005
3.725547e+003, 1.181423e+005
3.727475e+003, 1.181341e+005
3.729404e+003, 1.184407e+005
3.731332e+003, 1.187781e+005
3.733261e+003, 1.189009e+005
3.735189e+003, 1.190121e+005
3.737118e+003, 1.191465e+005
3.739046e+003, 1.195229e+005
3.740975e+003, 1.200255e+005
3.742903e+003, 1.202997e+005
3.744832e+003, 1.205111e+005
3.746760e+003, 1.207700e+005
3.748688e+003, 1.209986e+005
3.750617e+003, 1.211855e+005
3.752545e+003, 1.212394e+005
3.754474e+003, 1.212438e+005
3.756402e+003, 1.213420e+005
3.758331e+003, 1.215649e+005
3.760259e+003, 1.219911e+005
3.762188e+003, 1.224246e+005
3.764116e+003, 1.228262e+005
3.766045e+003, 1.230619e+005
3.767973e+003, 1.232308e+005
3.769902e+003, 1.235887e+005
3.771830e+003, 1.238433e+005
3.773759e+003, 1.237437e+005
3.775687e+003, 1.238862e+005
3.777615e+003, 1.242668e+005
3.779544e+003, 1.245983e+005
3.781472e+003, 1.248553e+005
3.783401e+003, 1.249170e+005
3.785329e+003, 1.250630e+005
3.787258e+003, 1.254692e+005
3.789186e+003, 1.257251e+005
3.791115e+003, 1.258554e+005
3.793043e+003, 1.259128e+005
3.794972e+003, 1.260655e+005
3.796900e+003, 1.265743e+005
3.798829e+003, 1.268617e+005
3.800757e+003, 1.267126e+005
3.802686e+003, 1.268715e+005
3.804614e+003, 1.272295e+005
3.806542e+003, 1.275860e+005
3.808471e+003, 1.278810e+005
3.810399e+003, 1.280401e+005
3.812328e+003, 1.282903e+005
3.814256e+003, 1.286477e+005
3.816185e+003, 1.288345e+005
3.818113e+003, 1.289875e+005
3.820042e+003, 1.293187e+005
3.821970e+003, 1.296556e+005
3.823899e+003, 1.299645e+005
3.825827e+003, 1.302348e+005
3.827756e+003, 1.304456e+005
3.829684e+003, 1.303838e+005
3.831613e+003, 1.303671e+005
3.833541e+003, 1.306780e+005
3.835469e+003, 1.310194e+005
3.837398e+003, 1.313505e+005
3.839326e+003, 1.318433e+005
3.841255e+003, 1.322896e+005
3.843183e+003, 1.321865e+005
3.845112e+003, 1.321104e+005
3.847040e+003, 1.323313e+005
3.848969e+003, 1.326780e+005
3.850897e+003, 1.330739e+005
3.852826e+003, 1.330823e+005
3.854754e+003, 1.331408e+005
3.856683e+003, 1.337014e+005
3.858611e+003, 1.342033e+005
3.860540e+003, 1.345288e+005
3.862468e+003, 1.347636e+005
3.864396e+003, 1.349481e+005
3.866325e+003, 1.351512e+005
3.868253e+003, 1.353286e+005
3.870182e+003, 1.354229e+005
3.872110e+003, 1.356562e+005
3.874039e+003, 1.360361e+005
3.875967e+003, 1.366803e+005
3.877896e+003, 1.372260e+005
3.879824e+003, 1.371816e+005
3.881753e+003, 1.373757e+005
3.883681e+003, 1.379928e+005
3.885610e+003, 1.383843e+005
3.887538e+003, 1.385827e+005
3.889467e+003, 1.385227e+005
3.891395e+003, 1.386129e+005
3.893323e+003, 1.390095e+005
3.895252e+003, 1.394536e+005
3.897180e+003, 1.398806e+005
3.899109e+003, 1.400873e+005
3.901037e+003, 1.402508e+005
3.902966e+003, 1.404247e+005
3.904894e+003, 1.408611e+005
3.906823e+003, 1.415043e+005
3.908751e+003, 1.415757e+005
3.910680e+003, 1.414698e+005
3.912608e+003, 1.415855e+005
3.914537e+003, 1.419435e+005
3.916465e+003, 1.426171e+005
3.918394e+003, 1.430919e+005
3.920322e+003, 1.433834e+005
3.922250e+003, 1.434619e+005
3.924179e+003, 1.435837e+005
3.926107e+003, 1.438900e+005
3.928036e+003, 1.440249e+005
3.929964e+003, 1.440606e+005
3.931893e+003, 1.445629e+005
3.933821e+003, 1.450428e+005
3.935750e+003, 1.450731e+005
3.937678e+003, 1.451781e+005
3.939607e+003, 1.454355e+005
3.941535e+003, 1.458686e+005
3.943464e+003, 1.463107e+005
3.945392e+003, 1.466159e+005
3.947321e+003, 1.467000e+005
3.949249e+003, 1.465497e+005
3.951177e+003, 1.468171e+005
3.953106e+003, 1.472600e+005
3.955034e+003, 1.474331e+005
3.956963e+003, 1.475958e+005
3.958891e+003, 1.478568e+005
3.960820e+003, 1.481284e+005
3.962748e+003, 1.484307e+005
3.964677e+003, 1.488193e+005
3.966605e+003, 1.492272e+005
3.968534e+003, 1.496442e+005
3.970462e+003, 1.498800e+005
3.972391e+003, 1.499589e+005
3.974319e+003, 1.499930e+005
3.976248e+003, 1.500859e+005
3.978176e+003, 1.503610e+005
3.980104e+003, 1.505886e+005
3.982033e+003, 1.507621e+005
3.983961e+003, 1.511182e+005
3.985890e+003, 1.515072e+005
3.987818e+003, 1.517514e+005
3.989747e+003, 1.520593e+005
3.991675e+003, 1.524425e+005
3.993604e+003, 1.526680e+005
3.995532e+003, 1.528822e+005
3.997461e+003, 1.532915e+005
3.999389e+003, 1.537209e+005
4.001318e+003, 1.541484e+005
4.003246e+003, 1.543786e+005
4.005175e+003, 1.544499e+005
4.007103e+003, 1.542726e+005
4.009031e+003, 1.543342e+005
4.010960e+003, 1.548352e+005
4.012888e+003, 1.550854e+005
4.014817e+003, 1.552098e+005
4.016745e+003, 1.554451e+005
4.018674e+003, 1.558038e+005
4.020602e+003, 1.562906e+005
4.022531e+003, 1.567791e+005
4.024459e+003, 1.572122e+005
4.026388e+003, 1.574185e+005
4.028316e+003, 1.575780e+005
4.030245e+003, 1.577263e+005
4.032173e+003, 1.580121e+005
4.034102e+003, 1.583825e+005
4.036030e+003, 1.587535e+005
4.037958e+003, 1.589840e+005
4.039887e+003, 1.589584e+005
4.041815e+003, 1.591450e+005
4.043744e+003, 1.595058e+005
4.045672e+003, 1.597777e+005
4.047601e+003, 1.601171e+005
4.049529e+003, 1.606466e+005
4.051458e+003, 1.607728e+005
4.053386e+003, 1.606387e+005
4.055315e+003, 1.610681e+005
4.057243e+003, 1.615338e+005
4.059172e+003, 1.617111e+005
4.061100e+003, 1.620241e+005
4.063029e+003, 1.624220e+005
4.064957e+003, 1.624934e+005
4.066885e+003, 1.626843e+005
4.068814e+003, 1.632865e+005
4.070742e+003, 1.637373e+005
4.072671e+003, 1.640150e+005
4.074599e+003, 1.642823e+005
4.076528e+003, 1.644081e+005
4.078456e+003, 1.643070e+005
4.080385e+003, 1.643742e+005
4.082313e+003, 1.646289e+005
4.084242e+003, 1.650737e+005
4.086170e+003, 1.655119e+005
4.088099e+003, 1.658177e+005
4.090027e+003, 1.661139e+005
4.091956e+003, 1.664018e+005
4.093884e+003, 1.667211e+005
4.095813e+003, 1.669839e+005
4.097741e+003, 1.671202e+005
4.099669e+003, 1.673772e+005
4.101598e+003, 1.676892e+005
4.103526e+003, 1.678507e+005
4.105455e+003, 1.680031e+005
4.107383e+003, 1.681737e+005
4.109312e+003, 1.687064e+005
4.111240e+003, 1.694105e+005
4.113169e+003, 1.699413e+005
4.115097e+003, 1.702420e+005
4.117026e+003, 1.702716e+005
4.118954e+003, 1.705567e+005
4.120883e+003, 1.710131e+005
4.122811e+003, 1.716025e+005
4.124740e+003, 1.719250e+005
4.126668e+003, 1.717471e+005
4.128597e+003, 1.721788e+005
4.130525e+003, 1.728525e+005
4.132454e+003, 1.733508e+005
4.134382e+003, 1.736111e+005
4.136311e+003, 1.736192e+005
4.138239e+003, 1.738623e+005
4.140167e+003, 1.742128e+005
4.142096e+003, 1.745941e+005
4.144024e+003, 1.748040e+005
4.145953e+003, 1.748782e+005
4.147881e+003, 1.752610e+005
4.149810e+003, 1.757063e+005
4.151738e+003, 1.760315e+005
4.153667e+003, 1.763286e+005
4.155595e+003, 1.765828e+005
4.157523e+003, 1.765147e+005
4.159452e+003, 1.766002e+005
4.161380e+003, 1.771745e+005
4.163309e+003, 1.773984e+005
4.165237e+003, 1.774120e+005
4.167166e+003, 1.778570e+005
4.169094e+003, 1.782721e+005
4.171023e+003, 1.784358e+005
4.172951e+003, 1.786775e+005
4.174880e+003, 1.789744e+005
4.176808e+003, 1.792962e+005
4.178737e+003, 1.796205e+005
4.180665e+003, 1.799509e+005
4.182594e+003, 1.803691e+005
4.184522e+003, 1.806923e+005
4.186451e+003, 1.805589e+005
4.188379e+003, 1.806401e+005
4.190308e+003, 1.810147e+005
4.192236e+003, 1.814006e+005
4.194165e+003, 1.818255e+005
4.196093e+003, 1.824065e+005
4.198021e+003, 1.826692e+005
4.199950e+003, 1.827078e+005
4.201878e+003, 1.829234e+005
4.203807e+003, 1.831848e+005
4.205735e+003, 1.834478e+005
4.207664e+003, 1.836552e+005
4.209592e+003, 1.838505e+005
4.211521e+003, 1.839921e+005
4.213449e+003, 1.844266e+005
4.215377e+003, 1.851721e+005
4.217306e+003, 1.856027e+005
4.219234e+003, 1.859322e+005
4.221163e+003, 1.865564e+005
4.223091e+003, 1.865567e+005
4.225020e+003, 1.860507e+005
4.226948e+003, 1.864737e+005
4.228877e+003, 1.870091e+005
4.230805e+003, 1.871288e+005
4.232734e+003, 1.876152e+005
4.234662e+003, 1.883096e+005
4.236591e+003, 1.886933e+005
4.238519e+003, 1.890663e+005
4.240448e+003, 1.895148e+005
4.242376e+003, 1.897093e+005
##END=



