##NAMES=Greenockite
##RRUFFID=R060110
##IDEAL CHEMISTRY=CdS
##LOCALITY=San Juan mine, Dragoon Mountains, Cochise County, Arizona, USA
##OWNER=RRUFF
##SOURCE=University of Arizona Mineral Museum
##DESCRIPTION=Yellow earthy coating
##STATUS=The identification of this mineral is not yet confirmed
##URL=https://www.rruff.net/odr/rruff_sample/R060110
##FILETYPE=Raman Processed
##RAMAN WAVELENGTH=780

106.3171, 5225.657
108.2456, 5131.798
110.1741, 5045.185
112.1025, 4968.803
114.0310, 4897.797
115.9595, 4836.195
117.8879, 4777.315
119.8164, 4726.311
121.7449, 4683.633
123.6733, 4644.960
125.6018, 4606.812
127.5303, 4568.011
129.4587, 4530.653
131.3872, 4493.127
133.3157, 4458.926
135.2441, 4431.598
137.1726, 4405.516
139.1011, 4375.389
141.0295, 4342.236
142.9580, 4314.368
144.8865, 4292.839
146.8149, 4272.743
148.7434, 4253.280
150.6719, 4233.876
152.6003, 4213.252
154.5288, 4192.213
156.4573, 4173.546
158.3857, 4156.847
160.3142, 4144.076
162.2427, 4135.833
164.1711, 4131.871
166.0996, 4133.692
168.0281, 4139.818
169.9565, 4146.278
171.8850, 4152.945
173.8135, 4161.792
175.7419, 4174.450
177.6704, 4188.062
179.5989, 4201.722
181.5273, 4215.864
183.4558, 4231.259
185.3843, 4247.797
187.3127, 4264.509
189.2412, 4281.111
191.1697, 4298.245
193.0981, 4313.691
195.0266, 4331.501
196.9551, 4356.009
198.8835, 4386.109
200.8120, 4420.056
202.7405, 4460.351
204.6689, 4498.182
206.5974, 4534.968
208.5259, 4566.292
210.4543, 4590.868
212.3828, 4607.263
214.3113, 4612.761
216.2397, 4606.175
218.1682, 4593.224
220.0967, 4573.047
222.0251, 4548.917
223.9536, 4518.920
225.8821, 4487.513
227.8105, 4458.109
229.7390, 4430.909
231.6675, 4408.151
233.5959, 4392.755
235.5244, 4377.784
237.4529, 4366.098
239.3813, 4351.219
241.3098, 4328.641
243.2383, 4300.204
245.1667, 4268.314
247.0952, 4229.368
249.0237, 4197.995
250.9521, 4175.460
252.8806, 4158.002
254.8091, 4145.531
256.7375, 4137.154
258.6660, 4131.682
260.5945, 4129.202
262.5229, 4131.692
264.4514, 4141.213
266.3799, 4149.999
268.3083, 4156.553
270.2368, 4163.156
272.1653, 4171.013
274.0938, 4179.798
276.0222, 4188.568
277.9507, 4197.278
279.8792, 4210.365
281.8076, 4228.939
283.7361, 4248.802
285.6646, 4268.315
287.5930, 4289.413
289.5215, 4312.932
291.4500, 4338.539
293.3784, 4367.122
295.3069, 4399.289
297.2354, 4425.107
299.1638, 4444.849
301.0923, 4456.101
303.0208, 4459.670
304.9492, 4452.813
306.8777, 4431.082
308.8062, 4397.138
310.7346, 4358.873
312.6631, 4316.492
314.5916, 4269.552
316.5200, 4213.779
318.4485, 4162.143
320.3770, 4119.469
322.3054, 4081.783
324.2339, 4047.001
326.1624, 4014.731
328.0908, 3983.462
330.0193, 3953.348
331.9477, 3924.262
333.8762, 3895.854
335.8047, 3869.696
337.7331, 3847.174
339.6616, 3826.044
341.5901, 3804.375
343.5185, 3782.657
345.4470, 3762.397
347.3755, 3743.551
349.3039, 3724.427
351.2324, 3706.179
353.1609, 3684.738
355.0893, 3657.206
357.0178, 3628.347
358.9463, 3600.622
360.8747, 3574.584
362.8032, 3551.818
364.7317, 3532.331
366.6601, 3511.106
368.5886, 3486.288
370.5171, 3461.898
372.4455, 3438.974
374.3740, 3415.938
376.3025, 3389.792
378.2309, 3364.109
380.1594, 3344.265
382.0879, 3329.758
384.0163, 3314.646
385.9448, 3296.504
387.8733, 3282.205
389.8017, 3274.436
391.7302, 3267.868
393.6587, 3261.379
395.5871, 3254.328
397.5156, 3245.596
399.4441, 3235.714
401.3725, 3226.988
403.3010, 3219.430
405.2295, 3212.833
407.1579, 3207.752
409.0864, 3202.435
411.0149, 3195.831
412.9433, 3189.516
414.8718, 3185.403
416.8003, 3181.852
418.7287, 3175.854
420.6572, 3167.276
422.5857, 3159.795
424.5141, 3154.718
426.4426, 3147.574
428.3711, 3136.361
430.2995, 3125.947
432.2280, 3119.248
434.1565, 3113.858
436.0849, 3108.348
438.0134, 3102.582
439.9419, 3095.651
441.8703, 3087.122
443.7988, 3080.854
445.7273, 3077.456
447.6557, 3074.115
449.5842, 3070.111
451.5127, 3065.833
453.4411, 3061.077
455.3696, 3056.290
457.2981, 3052.048
459.2265, 3048.107
461.1550, 3043.605
463.0835, 3038.488
465.0119, 3033.742
466.9404, 3029.944
468.8689, 3024.879
470.7973, 3018.356
472.7258, 3009.802
474.6543, 2996.980
476.5827, 2983.837
478.5112, 2974.559
480.4397, 2968.574
482.3681, 2964.318
484.2966, 2961.675
486.2251, 2957.339
488.1535, 2949.638
490.0820, 2944.887
492.0105, 2948.168
493.9389, 2950.082
495.8674, 2946.492
497.7959, 2940.743
499.7243, 2935.781
501.6528, 2931.040
503.5813, 2924.807
505.5097, 2917.609
507.4382, 2912.548
509.3667, 2910.375
511.2951, 2908.820
513.2236, 2909.800
515.1521, 2907.992
517.0806, 2898.921
519.0090, 2889.920
520.9375, 2885.794
522.8660, 2884.565
524.7944, 2885.384
526.7229, 2886.638
528.6514, 2881.821
530.5798, 2869.722
532.5083, 2861.898
534.4368, 2863.337
536.3652, 2863.081
538.2937, 2857.379
540.2222, 2853.583
542.1506, 2857.059
544.0791, 2861.237
546.0076, 2860.324
547.9360, 2856.235
549.8645, 2850.475
551.7930, 2843.467
553.7214, 2841.226
555.6499, 2846.677
557.5784, 2848.739
559.5068, 2844.737
561.4353, 2841.969
563.3638, 2842.081
565.2922, 2842.793
567.2207, 2843.574
569.1492, 2843.927
571.0776, 2844.149
573.0061, 2843.283
574.9345, 2839.097
576.8630, 2831.892
578.7914, 2825.353
580.7199, 2819.085
582.6484, 2815.698
584.5768, 2816.459
586.5053, 2816.860
588.4338, 2816.279
590.3622, 2814.835
592.2907, 2812.064
594.2192, 2809.004
596.1476, 2806.919
598.0761, 2804.476
600.0046, 2800.250
601.9330, 2794.138
603.8615, 2785.759
605.7900, 2775.042
607.7184, 2761.849
609.6469, 2745.777
611.5754, 2729.804
613.5038, 2713.450
615.4323, 2699.860
617.3608, 2691.282
619.2892, 2683.821
621.2177, 2677.016
623.1462, 2669.193
625.0746, 2657.986
627.0031, 2645.498
628.9316, 2634.535
630.8600, 2625.384
632.7885, 2620.287
634.7170, 2618.723
636.6454, 2612.566
638.5739, 2600.375
640.5024, 2590.785
642.4308, 2586.234
644.3593, 2582.418
646.2878, 2579.379
648.2162, 2575.172
650.1447, 2567.699
652.0732, 2560.224
654.0016, 2554.904
655.9301, 2551.208
657.8586, 2549.911
659.7870, 2549.136
661.7155, 2543.754
663.6440, 2534.760
665.5724, 2527.996
667.5009, 2523.808
669.4294, 2521.970
671.3578, 2524.287
673.2863, 2524.308
675.2148, 2520.472
677.1432, 2515.460
679.0717, 2508.643
681.0002, 2502.333
682.9286, 2498.016
684.8571, 2494.228
686.7856, 2490.109
688.7141, 2485.579
690.6425, 2480.234
692.5710, 2474.610
694.4995, 2470.425
696.4279, 2467.492
698.3564, 2462.401
700.2849, 2454.336
702.2133, 2447.829
704.1418, 2444.137
706.0703, 2439.874
707.9987, 2433.735
709.9272, 2429.410
711.8557, 2429.036
713.7841, 2428.144
715.7126, 2424.515
717.6411, 2420.345
719.5695, 2417.402
721.4980, 2414.173
723.4265, 2408.862
725.3549, 2402.823
727.2834, 2397.651
729.2119, 2393.594
731.1403, 2392.011
733.0688, 2392.719
734.9973, 2391.648
736.9257, 2388.446
738.8542, 2385.469
740.7827, 2382.750
742.7111, 2379.694
744.6396, 2376.159
746.5681, 2372.250
748.4965, 2367.768
750.4250, 2363.406
752.3535, 2360.235
754.2819, 2356.058
756.2104, 2348.591
758.1389, 2341.643
760.0673, 2338.390
761.9958, 2336.431
763.9243, 2333.235
765.8527, 2329.685
767.7812, 2327.333
769.7097, 2325.611
771.6381, 2322.930
773.5666, 2319.300
775.4951, 2315.054
777.4235, 2310.333
779.3520, 2308.716
781.2805, 2310.563
783.2089, 2310.853
785.1374, 2309.116
787.0659, 2305.363
788.9943, 2298.366
790.9228, 2292.859
792.8513, 2291.054
794.7797, 2289.246
796.7082, 2286.762
798.6367, 2283.871
800.5651, 2280.182
802.4936, 2276.776
804.4221, 2274.986
806.3505, 2273.100
808.2790, 2269.324
810.2075, 2264.916
812.1359, 2261.074
814.0644, 2257.838
815.9929, 2255.120
817.9213, 2253.041
819.8498, 2252.921
821.7783, 2253.604
823.7067, 2249.073
825.6352, 2239.672
827.5637, 2235.873
829.4921, 2238.884
831.4206, 2239.554
833.3491, 2236.545
835.2775, 2234.628
837.2060, 2236.208
839.1345, 2235.052
841.0629, 2229.898
842.9914, 2224.611
844.9199, 2218.860
846.8483, 2214.576
848.7768, 2212.624
850.7053, 2211.285
852.6337, 2210.774
854.5622, 2208.969
856.4907, 2203.908
858.4191, 2198.302
860.3476, 2193.590
862.2761, 2189.221
864.2045, 2185.181
866.1330, 2180.970
868.0615, 2176.331
869.9899, 2171.205
871.9184, 2165.403
873.8469, 2159.249
875.7753, 2152.420
877.7038, 2146.045
879.6323, 2142.690
881.5607, 2141.996
883.4892, 2143.607
885.4177, 2146.814
887.3461, 2147.642
889.2746, 2146.068
891.2031, 2142.560
893.1315, 2137.143
895.0600, 2131.601
896.9885, 2125.957
898.9169, 2122.404
900.8454, 2121.154
902.7739, 2119.509
904.7023, 2117.366
906.6308, 2112.290
908.5593, 2103.107
910.4877, 2097.516
912.4162, 2098.382
914.3447, 2096.623
916.2731, 2088.549
918.2016, 2083.962
920.1301, 2086.597
922.0585, 2089.693
923.9870, 2092.783
925.9155, 2093.905
927.8439, 2092.030
929.7724, 2088.433
931.7009, 2081.779
933.6293, 2075.572
935.5578, 2071.343
937.4863, 2067.559
939.4147, 2063.109
941.3432, 2059.788
943.2717, 2059.549
945.2001, 2059.881
947.1286, 2060.163
949.0571, 2059.512
950.9855, 2056.875
952.9140, 2053.623
954.8425, 2049.941
956.7709, 2047.026
958.6994, 2046.254
960.6279, 2046.206
962.5563, 2045.719
964.4848, 2044.789
966.4133, 2043.120
968.3417, 2041.203
970.2702, 2039.615
972.1987, 2038.165
974.1271, 2037.037
976.0556, 2035.694
977.9841, 2033.637
979.9125, 2030.695
981.8410, 2025.699
983.7695, 2020.166
985.6979, 2017.327
987.6264, 2015.676
989.5549, 2011.519
991.4833, 2006.369
993.4118, 2004.115
995.3403, 2003.531
997.2687, 2002.441
999.1972, 2000.225
1001.126, 1993.586
1003.054, 1984.969
1004.983, 1982.709
1006.911, 1984.471
1008.840, 1982.809
1010.768, 1978.406
1012.696, 1972.342
1014.625, 1965.731
1016.553, 1963.528
1018.482, 1964.254
1020.410, 1962.415
1022.339, 1958.750
1024.267, 1956.584
1026.196, 1955.350
1028.124, 1952.883
1030.053, 1949.504
1031.981, 1946.424
1033.910, 1943.215
1035.838, 1936.751
1037.767, 1928.621
1039.695, 1924.986
1041.624, 1924.610
1043.552, 1923.863
1045.480, 1922.535
1047.409, 1919.790
1049.337, 1916.211
1051.266, 1913.775
1053.194, 1912.113
1055.123, 1910.593
1057.051, 1908.668
1058.980, 1903.525
1060.908, 1897.233
1062.837, 1895.565
1064.765, 1896.757
1066.694, 1896.738
1068.622, 1895.814
1070.550, 1895.091
1072.479, 1893.951
1074.407, 1890.499
1076.336, 1885.986
1078.264, 1882.458
1080.193, 1880.073
1082.121, 1879.844
1084.050, 1880.391
1085.978, 1880.078
1087.907, 1878.330
1089.835, 1873.152
1091.764, 1866.891
1093.692, 1862.666
1095.620, 1859.877
1097.549, 1858.448
1099.477, 1857.286
1101.406, 1855.289
1103.334, 1852.538
1105.263, 1848.579
1107.191, 1844.448
1109.120, 1840.964
1111.048, 1837.970
1112.977, 1835.615
1114.905, 1833.344
1116.834, 1830.324
1118.762, 1827.840
1120.691, 1827.562
1122.619, 1826.943
1124.547, 1823.460
1126.476, 1820.585
1128.404, 1821.273
1130.333, 1820.986
1132.261, 1817.004
1134.190, 1812.533
1136.118, 1808.515
1138.047, 1805.266
1139.975, 1803.131
1141.904, 1801.551
1143.832, 1800.483
1145.761, 1799.610
1147.689, 1798.310
1149.618, 1799.282
1151.546, 1804.452
1153.474, 1805.857
1155.403, 1801.035
1157.331, 1798.361
1159.260, 1799.934
1161.188, 1797.123
1163.117, 1788.419
1165.045, 1783.270
1166.974, 1782.566
1168.902, 1781.127
1170.831, 1778.590
1172.759, 1778.743
1174.688, 1780.943
1176.616, 1777.940
1178.545, 1771.004
1180.473, 1768.289
1182.401, 1768.593
1184.330, 1766.830
1186.258, 1763.718
1188.187, 1760.600
1190.115, 1757.896
1192.044, 1756.474
1193.972, 1755.631
1195.901, 1753.916
1197.829, 1752.510
1199.758, 1754.078
1201.686, 1754.952
1203.615, 1750.368
1205.543, 1745.727
1207.472, 1745.225
1209.400, 1745.830
1211.328, 1746.679
1213.257, 1747.036
1215.185, 1747.020
1217.114, 1745.613
1219.042, 1741.191
1220.971, 1738.188
1222.899, 1738.081
1224.828, 1737.964
1226.756, 1737.264
1228.685, 1736.820
1230.613, 1737.218
1232.542, 1735.126
1234.470, 1729.744
1236.399, 1727.976
1238.327, 1729.791
1240.255, 1728.037
1242.184, 1723.480
1244.112, 1721.621
1246.041, 1721.243
1247.969, 1717.562
1249.898, 1712.929
1251.826, 1712.762
1253.755, 1713.980
1255.683, 1711.612
1257.612, 1709.047
1259.540, 1709.560
1261.469, 1711.019
1263.397, 1713.382
1265.326, 1713.858
1267.254, 1709.666
1269.182, 1706.290
1271.111, 1705.704
1273.039, 1705.363
1274.968, 1704.889
1276.896, 1704.434
1278.825, 1704.120
1280.753, 1702.225
1282.682, 1698.505
1284.610, 1693.693
1286.539, 1688.355
1288.467, 1686.596
1290.396, 1687.871
1292.324, 1690.832
1294.253, 1693.930
1296.181, 1694.115
1298.109, 1692.238
1300.038, 1687.658
1301.966, 1683.789
1303.895, 1684.347
1305.823, 1686.126
1307.752, 1688.460
1309.680, 1688.863
1311.609, 1683.833
1313.537, 1681.041
1315.466, 1684.200
1317.394, 1686.273
1319.323, 1687.506
1321.251, 1684.563
1323.180, 1675.866
1325.108, 1672.154
1327.036, 1673.205
1328.965, 1674.913
1330.893, 1676.598
1332.822, 1675.039
1334.750, 1671.935
1336.679, 1670.052
1338.607, 1668.866
1340.536, 1668.705
1342.464, 1667.524
1344.393, 1663.138
1346.321, 1659.055
1348.250, 1656.541
1350.178, 1655.756
1352.107, 1657.692
1354.035, 1657.288
1355.964, 1653.387
1357.892, 1650.985
1359.820, 1650.491
1361.749, 1650.102
1363.677, 1649.601
1365.606, 1647.283
1367.534, 1644.687
1369.463, 1645.991
1371.391, 1648.590
1373.320, 1650.224
1375.248, 1650.086
1377.177, 1646.202
1379.105, 1642.447
1381.034, 1639.854
1382.962, 1638.688
1384.891, 1639.432
1386.819, 1640.013
1388.747, 1640.311
1390.676, 1636.382
1392.604, 1629.266
1394.533, 1629.613
1396.461, 1633.976
1398.390, 1629.763
1400.318, 1622.888
1402.247, 1622.854
1404.175, 1623.879
1406.104, 1619.586
1408.032, 1616.213
1409.961, 1618.570
1411.889, 1619.594
1413.818, 1616.327
1415.746, 1614.122
1417.674, 1613.299
1419.603, 1614.484
1421.531, 1617.428
1423.460, 1618.079
1425.388, 1616.962
1427.317, 1614.975
1429.245, 1613.256
1431.174, 1613.633
1433.102, 1614.318
1435.031, 1614.795
1436.959, 1613.636
1438.888, 1609.238
1440.816, 1605.662
1442.745, 1604.156
1444.673, 1601.684
1446.601, 1597.971
1448.530, 1595.834
1450.458, 1594.727
1452.387, 1592.079
1454.315, 1588.567
1456.244, 1584.413
1458.172, 1581.406
1460.101, 1582.319
1462.029, 1582.289
1463.958, 1578.708
1465.886, 1576.713
1467.815, 1577.989
1469.743, 1576.207
1471.672, 1570.834
1473.600, 1570.329
1475.528, 1572.967
1477.457, 1571.597
1479.385, 1568.697
1481.314, 1568.930
1483.242, 1568.408
1485.171, 1562.287
1487.099, 1557.646
1489.028, 1556.874
1490.956, 1557.640
1492.885, 1559.870
1494.813, 1559.124
1496.742, 1555.689
1498.670, 1553.939
1500.599, 1552.390
1502.527, 1545.739
1504.455, 1539.523
1506.384, 1540.490
1508.312, 1542.798
1510.241, 1544.768
1512.169, 1544.300
1514.098, 1539.543
1516.026, 1538.809
1517.955, 1542.214
1519.883, 1542.746
1521.812, 1541.324
1523.740, 1542.447
1525.669, 1542.643
1527.597, 1536.591
1529.526, 1530.613
1531.454, 1528.454
1533.382, 1527.494
1535.311, 1527.458
1537.239, 1527.922
1539.168, 1528.893
1541.096, 1528.730
1543.025, 1527.136
1544.953, 1521.603
1546.882, 1516.226
1548.810, 1516.633
1550.739, 1516.970
1552.667, 1513.946
1554.596, 1511.905
1556.524, 1512.069
1558.453, 1511.304
1560.381, 1509.473
1562.309, 1510.434
1564.238, 1512.333
1566.166, 1511.287
1568.095, 1508.403
1570.023, 1503.431
1571.952, 1499.561
1573.880, 1498.127
1575.809, 1497.148
1577.737, 1496.359
1579.666, 1493.709
1581.594, 1489.973
1583.523, 1488.643
1585.451, 1488.574
1587.380, 1488.192
1589.308, 1488.156
1591.236, 1489.191
1593.165, 1490.107
1595.093, 1491.034
1597.022, 1486.587
1598.950, 1477.906
1600.879, 1476.672
1602.807, 1478.631
1604.736, 1476.067
1606.664, 1472.024
1608.593, 1468.797
1610.521, 1465.028
1612.450, 1458.555
1614.378, 1458.894
1616.307, 1465.850
1618.235, 1463.382
1620.163, 1456.047
1622.092, 1454.486
1624.020, 1455.015
1625.949, 1456.481
1627.877, 1455.228
1629.806, 1446.861
1631.734, 1442.960
1633.663, 1444.200
1635.591, 1444.974
1637.520, 1445.106
1639.448, 1444.004
1641.377, 1442.231
1643.305, 1440.208
1645.234, 1438.029
1647.162, 1435.816
1649.090, 1432.740
1651.019, 1428.761
1652.947, 1431.695
1654.876, 1437.286
1656.804, 1436.137
1658.733, 1432.004
1660.661, 1426.198
1662.590, 1422.516
1664.518, 1422.424
1666.447, 1422.212
1668.375, 1421.555
1670.304, 1419.987
1672.232, 1417.747
1674.161, 1414.285
1676.089, 1411.609
1678.017, 1410.869
1679.946, 1410.421
1681.874, 1409.925
1683.803, 1409.441
1685.731, 1408.687
1687.660, 1406.663
1689.588, 1403.938
1691.517, 1400.925
1693.445, 1397.981
1695.374, 1394.975
1697.302, 1393.474
1699.231, 1393.338
1701.159, 1391.170
1703.088, 1388.524
1705.016, 1389.453
1706.944, 1389.990
1708.873, 1386.546
1710.801, 1383.784
1712.730, 1382.876
1714.658, 1379.694
1716.587, 1375.631
1718.515, 1377.864
1720.444, 1380.534
1722.372, 1377.125
1724.301, 1373.390
1726.229, 1371.321
1728.158, 1369.623
1730.086, 1368.119
1732.015, 1365.629
1733.943, 1363.483
1735.871, 1365.000
1737.800, 1365.114
1739.728, 1360.755
1741.657, 1356.661
1743.585, 1353.575
1745.514, 1351.914
1747.442, 1351.119
1749.371, 1350.084
1751.299, 1348.891
1753.228, 1347.696
1755.156, 1345.831
1757.085, 1343.078
1759.013, 1340.052
1760.942, 1337.420
1762.870, 1337.879
1764.798, 1338.549
1766.727, 1337.842
1768.655, 1334.216
1770.584, 1327.120
1772.512, 1327.613
1774.441, 1333.051
1776.369, 1332.939
1778.298, 1331.592
1780.226, 1333.754
1782.155, 1333.990
1784.083, 1331.196
1786.012, 1326.356
1787.940, 1321.020
1789.869, 1319.895
1791.797, 1320.364
1793.725, 1321.582
1795.654, 1319.967
1797.582, 1314.407
1799.511, 1311.473
1801.439, 1310.561
1803.368, 1308.149
1805.296, 1307.119
1807.225, 1313.256
1809.153, 1313.672
1811.082, 1304.703
1813.010, 1299.853
1814.939, 1298.345
1816.867, 1298.971
1818.796, 1298.594
1820.724, 1294.454
1822.652, 1289.951
1824.581, 1285.276
1826.509, 1285.615
1828.438, 1288.230
1830.366, 1287.896
1832.295, 1285.122
1834.223, 1279.077
1836.152, 1274.781
1838.080, 1272.809
1840.009, 1269.170
1841.937, 1265.151
1843.866, 1263.002
1845.794, 1261.133
1847.723, 1259.250
1849.651, 1255.842
1851.579, 1251.303
1853.508, 1247.553
1855.436, 1245.763
1857.365, 1248.692
1859.293, 1250.353
1861.222, 1249.480
1863.150, 1247.178
1865.079, 1243.885
1867.007, 1239.460
1868.936, 1236.092
1870.864, 1235.673
1872.793, 1235.269
1874.721, 1234.401
1876.650, 1231.843
1878.578, 1228.471
1880.506, 1225.164
1882.435, 1222.219
1884.363, 1219.994
1886.292, 1215.305
1888.220, 1210.247
1890.149, 1214.367
1892.077, 1218.648
1894.006, 1215.433
1895.934, 1210.872
1897.863, 1205.819
1899.791, 1207.708
1901.720, 1210.272
1903.648, 1201.818
1905.577, 1195.453
1907.505, 1199.311
1909.433, 1197.738
1911.362, 1192.298
1913.290, 1190.553
1915.219, 1189.583
1917.147, 1187.619
1919.076, 1185.324
1921.004, 1182.832
1922.933, 1182.021
1924.861, 1181.436
1926.790, 1179.090
1928.718, 1175.905
1930.647, 1171.802
1932.575, 1171.398
1934.504, 1172.783
1936.432, 1170.924
1938.360, 1167.483
1940.289, 1163.160
1942.217, 1158.235
1944.146, 1153.519
1946.074, 1154.313
1948.003, 1155.380
1949.931, 1151.463
1951.860, 1147.202
1953.788, 1143.504
1955.717, 1143.104
1957.645, 1143.638
1959.574, 1140.877
1961.502, 1140.040
1963.431, 1142.655
1965.359, 1140.604
1967.287, 1136.186
1969.216, 1135.401
1971.144, 1134.680
1973.073, 1131.986
1975.001, 1130.527
1976.930, 1129.847
1978.858, 1127.450
1980.787, 1125.567
1982.715, 1127.069
1984.644, 1125.674
1986.572, 1121.661
1988.501, 1120.811
1990.429, 1120.374
1992.358, 1118.773
1994.286, 1113.973
1996.214, 1105.932
1998.143, 1105.253
2000.071, 1106.748
2002.000, 1104.968
2003.928, 1103.414
2005.857, 1103.015
2007.785, 1099.497
2009.714, 1095.018
2011.642, 1092.838
2013.571, 1090.418
2015.499, 1087.044
2017.428, 1084.779
2019.356, 1083.160
2021.285, 1081.734
2023.213, 1079.373
2025.141, 1075.698
2027.070, 1072.244
2028.998, 1069.833
2030.927, 1070.976
2032.855, 1071.652
2034.784, 1070.619
2036.712, 1067.093
2038.641, 1062.146
2040.569, 1056.600
2042.498, 1054.004
2044.426, 1055.754
2046.355, 1054.984
2048.283, 1052.754
2050.212, 1052.636
2052.140, 1051.610
2054.068, 1048.471
2055.997, 1044.475
2057.925, 1040.610
2059.854, 1039.079
2061.782, 1037.375
2063.711, 1034.494
2065.639, 1031.398
2067.568, 1028.672
2069.496, 1027.478
2071.425, 1026.343
2073.353, 1024.968
2075.281, 1020.632
2077.210, 1015.870
2079.138, 1016.487
2081.067, 1014.927
2082.995, 1007.836
2084.924, 1005.084
2086.852, 1004.147
2088.781, 1001.107
2090.709, 998.3992
2092.638, 996.6846
2094.566, 996.9332
2096.495, 997.3418
2098.423, 995.2871
2100.352, 994.6953
2102.280, 996.0709
2104.208, 992.1732
2106.137, 987.1054
2108.065, 985.0720
2109.994, 981.3108
2111.922, 976.2051
2113.851, 978.7255
2115.779, 980.7259
2117.708, 975.9527
2119.636, 971.0691
2121.565, 967.6045
2123.493, 969.3533
2125.422, 969.3742
2127.350, 963.4195
2129.279, 962.0884
2131.207, 962.7797
2133.135, 956.4894
2135.064, 953.3820
2136.992, 957.3135
2138.921, 951.1516
2140.849, 943.0334
2142.778, 946.9218
2144.706, 949.4360
2146.635, 948.0266
2148.563, 944.6905
2150.492, 939.9641
2152.420, 932.8633
2154.349, 929.0595
2156.277, 928.3763
2158.206, 927.6277
2160.134, 926.2800
2162.063, 923.9646
2163.991, 920.4895
2165.919, 916.7902
2167.848, 914.8898
2169.776, 914.2408
2171.705, 914.8205
2173.633, 916.2965
2175.562, 916.7807
2177.490, 913.6346
2179.419, 910.9814
2181.347, 909.2802
2183.276, 906.0368
2185.204, 902.3543
2187.133, 898.9933
2189.061, 893.7559
2190.990, 888.6246
2192.918, 890.1509
2194.846, 891.1162
2196.775, 889.4519
2198.703, 886.4203
2200.632, 883.1285
2202.560, 881.2750
2204.489, 877.1329
2206.417, 871.7334
2208.346, 872.7092
2210.274, 873.6113
2212.203, 870.6516
2214.131, 868.2089
2216.060, 865.3904
2217.988, 859.6686
2219.917, 854.2606
2221.845, 850.0085
2223.773, 851.9610
2225.702, 852.5158
2227.630, 842.5507
2229.559, 838.3354
2231.487, 838.9911
2233.416, 840.3940
2235.344, 841.2455
2237.273, 841.2923
2239.201, 838.1555
2241.130, 833.3539
2243.058, 827.3126
2244.987, 825.9780
2246.915, 827.3220
2248.844, 820.0140
2250.772, 813.8932
2252.700, 812.7695
2254.629, 815.2796
2256.557, 816.8738
2258.486, 811.9347
2260.414, 808.6090
2262.343, 807.1037
2264.271, 801.4782
2266.200, 798.7562
2268.128, 801.3548
2270.057, 800.0345
2271.985, 798.0714
2273.914, 802.0023
2275.842, 798.8139
2277.771, 790.2642
2279.699, 788.2873
2281.627, 787.9914
2283.556, 787.5007
2285.484, 785.1796
2287.413, 782.3550
2289.341, 780.0472
2291.270, 779.6857
2293.198, 779.6523
2295.127, 774.7752
2297.055, 769.8198
2298.984, 766.2999
2300.912, 766.2438
2302.841, 764.8524
2304.769, 755.5743
2306.698, 752.7015
2308.626, 753.5638
2310.554, 751.3359
2312.483, 748.7103
2314.411, 746.4153
2316.340, 744.4968
2318.268, 743.9977
2320.197, 745.9952
2322.125, 743.7374
2324.054, 739.8867
2325.982, 738.4824
2327.911, 735.2586
2329.839, 730.7276
2331.768, 731.0438
2333.696, 727.9362
2335.625, 719.2535
2337.553, 718.6429
2339.481, 720.9036
2341.410, 722.5958
2343.338, 717.7220
2345.267, 710.3448
2347.195, 708.8763
2349.124, 706.7601
2351.052, 703.4558
2352.981, 702.1755
2354.909, 699.1776
2356.838, 693.1768
2358.766, 693.8134
2360.695, 696.2709
2362.623, 697.5580
2364.552, 692.0567
2366.480, 684.0068
2368.408, 680.8878
2370.337, 680.2196
2372.265, 681.1547
2374.194, 684.3807
2376.122, 683.4574
2378.051, 675.0291
2379.979, 673.6270
2381.908, 674.2373
2383.836, 673.4589
2385.765, 670.9649
2387.693, 667.4722
2389.622, 663.3264
2391.550, 662.1198
2393.479, 663.0374
2395.407, 662.7805
2397.335, 659.9009
2399.264, 654.4643
2401.192, 653.6030
2403.121, 654.4102
2405.049, 655.4101
2406.978, 653.9152
2408.906, 650.8570
2410.835, 646.6813
2412.763, 646.9251
2414.692, 648.2275
2416.620, 642.0281
2418.549, 640.9234
2420.477, 643.5436
2422.406, 638.4627
2424.334, 635.0807
2426.262, 635.0533
2428.191, 633.1168
2430.119, 629.3352
2432.048, 623.7819
2433.976, 626.1769
2435.905, 627.2097
2437.833, 616.6074
2439.762, 611.4980
2441.690, 610.0497
2443.619, 610.0183
2445.547, 608.2906
2447.476, 605.0930
2449.404, 600.7577
2451.333, 598.2115
2453.261, 597.6027
2455.189, 598.2991
2457.118, 598.6373
2459.046, 597.9603
2460.975, 593.4105
2462.903, 590.6991
2464.832, 592.7265
2466.760, 591.5358
2468.689, 589.1264
2470.617, 587.0571
2472.546, 582.9996
2474.474, 578.2924
2476.403, 574.0317
2478.331, 572.6163
2480.260, 572.2629
2482.188, 570.0892
2484.116, 568.3802
2486.045, 566.3435
2487.973, 560.1039
2489.902, 558.1194
2491.830, 559.6291
2493.759, 557.2639
2495.687, 553.7806
2497.616, 550.7007
2499.544, 552.7031
2501.473, 551.6866
2503.401, 546.0911
2505.330, 545.8552
2507.258, 545.6900
2509.187, 543.1029
2511.115, 543.2711
2513.043, 541.2973
2514.972, 532.5522
2516.900, 531.8424
2518.829, 532.9143
2520.757, 530.1306
2522.686, 530.8395
2524.614, 531.1973
2526.543, 526.9638
2528.471, 523.8583
2530.400, 521.7433
2532.328, 520.0621
2534.257, 518.5169
2536.185, 516.8624
2538.114, 514.4713
2540.042, 514.9466
2541.970, 516.2825
2543.899, 514.2142
2545.827, 510.3706
2547.756, 506.7312
2549.684, 508.6996
2551.613, 507.4268
2553.541, 503.4030
2555.470, 501.1740
2557.398, 499.3950
2559.327, 497.7412
2561.255, 496.2195
2563.184, 493.5702
2565.112, 490.5842
2567.041, 491.5211
2568.969, 489.3546
2570.897, 484.2950
2572.826, 482.4717
2574.754, 480.1297
2576.683, 477.2369
2578.611, 478.0567
2580.540, 478.3749
2582.468, 476.7885
2584.397, 469.9315
2586.325, 466.4473
2588.254, 467.5815
2590.182, 467.4910
2592.111, 467.6909
2594.039, 468.2054
2595.968, 466.1504
2597.896, 463.2882
2599.824, 460.0811
2601.753, 456.1853
2603.681, 452.6010
2605.610, 449.6972
2607.538, 447.9793
2609.467, 446.7531
2611.395, 445.6175
2613.324, 443.4058
2615.252, 441.3195
2617.181, 439.9914
2619.109, 441.7974
2621.038, 440.5096
2622.966, 435.8705
2624.895, 431.9100
2626.823, 430.4253
2628.751, 430.2761
2630.680, 426.8268
2632.608, 423.0099
2634.537, 420.1541
2636.465, 420.1109
2638.394, 421.0941
2640.322, 420.6705
2642.251, 412.2700
2644.179, 410.6511
2646.108, 412.5929
2648.036, 406.7666
2649.965, 404.4477
2651.893, 404.8227
2653.822, 404.4267
2655.750, 404.9236
2657.678, 404.5173
2659.607, 400.4105
2661.535, 397.6241
2663.464, 395.7662
2665.392, 393.9818
2667.321, 390.6724
2669.249, 388.1805
2671.178, 388.4191
2673.106, 389.7910
2675.035, 388.7902
2676.963, 383.6759
2678.892, 382.6957
2680.820, 382.6081
2682.749, 381.4079
2684.677, 377.9846
2686.605, 375.2122
2688.534, 373.8780
2690.462, 371.0847
2692.391, 370.3266
2694.319, 371.1804
2696.248, 367.1548
2698.176, 362.7605
2700.105, 359.9227
2702.033, 361.5081
2703.962, 361.5894
2705.890, 359.2577
2707.819, 353.7166
2709.747, 352.5405
2711.676, 353.5296
2713.604, 352.6276
2715.532, 352.1645
2717.461, 351.1091
2719.389, 348.2113
2721.318, 344.7457
2723.246, 342.3733
2725.175, 342.2282
2727.103, 337.4075
2729.032, 332.9099
2730.960, 331.1793
2732.889, 333.4094
2734.817, 334.5128
2736.746, 332.8424
2738.674, 326.7023
2740.603, 323.3191
2742.531, 322.6890
2744.459, 321.8493
2746.388, 322.0971
2748.316, 322.6994
2750.245, 322.8069
2752.173, 320.2549
2754.102, 316.9976
2756.030, 314.5834
2757.959, 315.0236
2759.887, 313.3685
2761.816, 308.3846
2763.744, 307.9810
2765.673, 311.1532
2767.601, 314.4228
2769.530, 306.3459
2771.458, 301.0866
2773.386, 300.0305
2775.315, 302.1623
2777.243, 300.8846
2779.172, 297.7261
2781.100, 294.7178
2783.029, 292.4101
2784.957, 290.5317
2786.886, 288.8882
2788.814, 289.0244
2790.743, 286.4630
2792.671, 281.4414
2794.600, 282.1254
2796.528, 282.1917
2798.457, 282.2196
2800.385, 285.8569
2802.313, 284.5245
2804.242, 280.0728
2806.170, 274.7455
2808.099, 272.3663
2810.027, 269.7088
2811.956, 265.9831
2813.884, 266.2776
2815.813, 266.3185
2817.741, 265.5237
2819.670, 265.7024
2821.598, 265.1653
2823.527, 263.7465
2825.455, 261.3862
2827.384, 258.3880
2829.312, 256.2725
2831.240, 255.8559
2833.169, 252.9276
2835.097, 251.2242
2837.026, 251.0172
2838.954, 250.0232
2840.883, 246.1646
2842.811, 243.2993
2844.740, 246.7712
2846.668, 243.6710
2848.597, 240.7865
2850.525, 242.5134
2852.454, 242.1582
2854.382, 239.8069
2856.311, 236.2553
2858.239, 232.9927
2860.167, 233.6180
2862.096, 234.6744
2864.024, 232.1299
2865.953, 230.1321
2867.881, 228.8107
2869.810, 228.0396
2871.738, 228.6323
2873.667, 227.0134
2875.595, 223.9030
2877.524, 222.1951
2879.452, 221.8467
2881.381, 220.9659
2883.309, 218.0676
2885.238, 219.3094
2887.166, 218.6166
2889.094, 215.4691
2891.023, 215.4883
2892.951, 213.4857
2894.880, 210.5426
2896.808, 208.4441
2898.737, 210.2471
2900.665, 210.7859
2902.594, 208.0933
2904.522, 206.7894
2906.451, 202.3140
2908.379, 198.2818
2910.308, 201.3446
2912.236, 201.3303
2914.165, 198.7478
2916.093, 195.2660
2918.021, 198.2124
2919.950, 197.5529
2921.878, 193.3869
2923.807, 190.1120
2925.735, 192.3577
2927.664, 192.7576
2929.592, 187.7234
2931.521, 186.6120
2933.449, 186.0191
2935.378, 185.7666
2937.306, 189.0394
2939.235, 185.8101
2941.163, 180.8686
2943.092, 178.1026
2945.020, 179.0548
2946.948, 176.7537
2948.877, 173.0363
2950.805, 175.4219
2952.734, 174.3618
2954.662, 172.1436
2956.591, 170.8574
2958.519, 172.5589
2960.448, 172.5999
2962.376, 170.7952
2964.305, 168.5108
2966.233, 168.1865
2968.162, 166.7670
2970.090, 163.3002
2972.019, 164.5462
2973.947, 162.6017
2975.875, 160.3493
2977.804, 163.2821
2979.732, 158.0308
2981.661, 155.2343
2983.589, 157.6670
2985.518, 157.4406
2987.446, 157.6270
2989.375, 157.3358
2991.303, 155.3933
2993.232, 153.1859
2995.160, 149.4487
2997.089, 145.8652
2999.017, 146.7207
3000.946, 150.4228
3002.874, 150.2128
3004.802, 143.2686
3006.731, 145.2061
3008.659, 143.3538
3010.588, 140.4644
3012.516, 143.3822
3014.445, 142.3626
3016.373, 139.8923
3018.302, 138.1725
3020.230, 140.3388
3022.159, 141.9884
3024.087, 141.6328
3026.016, 138.8283
3027.944, 133.0835
3029.873, 131.2365
3031.801, 132.5876
3033.729, 134.1373
3035.658, 133.8373
3037.586, 132.9199
3039.515, 131.9359
3041.443, 130.5777
3043.372, 131.5259
3045.300, 130.3627
3047.229, 125.4486
3049.157, 123.8014
3051.086, 124.7012
3053.014, 125.4622
3054.943, 123.1889
3056.871, 122.0804
3058.800, 121.6857
3060.728, 121.2191
3062.656, 119.3245
3064.585, 118.7255
3066.513, 118.1659
3068.442, 117.2060
3070.370, 116.7822
3072.299, 118.6279
3074.227, 119.4056
3076.156, 116.9162
3078.084, 114.2081
3080.013, 113.1287
3081.941, 113.4500
3083.870, 114.3782
3085.798, 113.5875
3087.727, 111.3821
3089.655, 109.2814
3091.583, 109.3912
3093.512, 109.5209
3095.440, 107.6946
3097.369, 104.4374
3099.297, 102.1858
3101.226, 102.6921
3103.154, 103.3103
3105.083, 103.1240
3107.011, 104.4829
3108.940, 103.0090
3110.868, 100.4833
3112.797, 98.65070
3114.725, 98.17329
3116.654, 99.92297
3118.582, 100.6720
3120.510, 97.72486
3122.439, 95.62923
3124.367, 95.84602
3126.296, 95.64527
3128.224, 92.39439
3130.153, 94.48921
3132.081, 94.14664
3134.010, 91.74985
3135.938, 90.45567
3137.867, 91.49316
3139.795, 90.94910
3141.724, 89.46994
3143.652, 89.75610
3145.581, 86.12881
3147.509, 87.70876
3149.438, 91.70520
3151.366, 87.47080
3153.294, 87.48117
3155.223, 88.79865
3157.151, 89.25857
3159.080, 86.90478
3161.008, 86.09861
3162.937, 85.12991
3164.865, 84.24438
3166.794, 86.16809
3168.722, 83.05811
3170.651, 79.89656
3172.579, 79.21917
3174.508, 81.90529
3176.436, 79.82021
3178.365, 76.79358
3180.293, 76.33554
3182.221, 81.67057
3184.150, 77.16880
3186.078, 76.25278
3188.007, 77.99239
3189.935, 69.55512
3191.864, 73.21841
3193.792, 76.58255
3195.721, 76.11113
3197.649, 74.89841
3199.578, 73.61964
3201.506, 71.24727
3203.435, 69.70023
3205.363, 72.54224
3207.292, 74.16931
3209.220, 71.60969
3211.148, 68.33688
3213.077, 70.09226
3215.005, 69.20755
3216.934, 68.35636
3218.862, 67.27085
3220.791, 64.86449
3222.719, 64.54781
3224.648, 62.52993
3226.576, 60.73834
3228.505, 61.52227
3230.433, 66.16544
3232.362, 64.38051
3234.290, 63.82199
3236.219, 67.98547
3238.147, 59.41079
3240.075, 61.44133
3242.004, 62.25686
3243.932, 57.26458
3245.861, 57.37550
3247.789, 53.75736
3249.718, 54.07280
3251.646, 58.47785
3253.575, 60.52832
3255.503, 60.00396
3257.432, 57.93536
3259.360, 56.55372
3261.289, 58.40525
3263.217, 58.56452
3265.146, 54.14083
3267.074, 50.26948
3269.002, 51.79700
3270.931, 53.92106
3272.859, 55.65559
3274.788, 55.38330
3276.716, 52.63819
3278.645, 48.74757
3280.573, 49.46216
3282.502, 51.18530
3284.430, 52.18864
3286.359, 52.83883
3288.287, 50.65940
3290.216, 46.65193
3292.144, 46.55833
3294.073, 53.94385
3296.001, 52.44530
3297.929, 51.08655
3299.858, 49.66648
3301.786, 47.72775
3303.715, 48.66373
3305.643, 49.46122
3307.572, 48.69408
3309.500, 47.08305
3311.429, 46.41987
3313.357, 49.10144
3315.286, 48.50126
3317.214, 46.03419
3319.143, 44.60710
3321.071, 43.69991
3323.000, 45.80815
3324.928, 46.51048
3326.856, 45.14135
3328.785, 46.58477
3330.713, 45.75680
3332.642, 42.62486
3334.570, 43.96755
3336.499, 53.90284
3338.427, 47.45946
3340.356, 44.17944
3342.284, 42.64626
3344.213, 40.90601
3346.141, 41.43333
3348.070, 42.93884
3349.998, 44.06028
3351.927, 43.88021
3353.855, 42.22775
3355.783, 42.35473
3357.712, 43.03595
3359.640, 41.63517
3361.569, 39.16486
3363.497, 42.51182
3365.426, 40.34137
3367.354, 39.39271
3369.283, 39.19493
3371.211, 37.64939
3373.140, 38.71661
3375.068, 36.30804
3376.997, 36.13253
3378.925, 38.32515
3380.854, 37.59044
3382.782, 39.03082
3384.710, 39.48854
3386.639, 37.59562
3388.567, 34.37486
3390.496, 34.59628
3392.424, 34.19451
3394.353, 34.18872
3396.281, 34.81083
3398.210, 35.73075
3400.138, 37.04741
3402.067, 37.49779
3403.995, 34.99711
3405.924, 31.94273
3407.852, 34.32187
3409.781, 35.73159
3411.709, 35.76699
3413.637, 36.51828
3415.566, 38.25703
3417.494, 37.37493
3419.423, 38.12373
3421.351, 38.63695
3423.280, 37.22345
3425.208, 34.18034
3427.137, 34.96350
3429.065, 32.07358
3430.994, 30.61967
3432.922, 32.02310
3434.851, 34.37693
3436.779, 32.11549
3438.708, 34.00418
3440.636, 33.32855
3442.564, 31.16821
3444.493, 33.12635
3446.421, 33.64490
3448.350, 33.77928
3450.278, 34.29522
3452.207, 34.43793
3454.135, 32.56332
3456.064, 30.21064
##END=



