##NAMES=Grossular
##RRUFFID=R060453
##IDEAL CHEMISTRY=Ca_3_Al_2_(SiO_4_)_3_
##LOCALITY=unknown
##OWNER=RRUFF
##SOURCE=Gemological Institute of America
##DESCRIPTION=Green colored fragment
##STATUS=The identification of this mineral has been confirmed by X-ray diffraction and chemical analysis
##URL=https://www.rruff.net/odr/rruff_sample/R060453
##MEASURED CHEMISTRY=(Ca_2.91_Mg_0.05_Mn_0.04_)(Al_1.96_Ti_0.02_[box]_0.02_)(Si_1.00_O_4_)_3_ ; trace amounts of Fe and Cr
##DIFFRACTION SAMPLE DESCRIPTION=Powder
##CELL PARAMETERS=a: 11.85155 b: 11.85155 c: 11.85155 alpha: 90 beta: 90 gamma: 90 volume: 1664.66 crystal system: cubic
##FILETYPE=Raman RAW
##RAMAN WAVELENGTH=532

85.21236, 8.354925
87.14083, 7.811896
89.06930, 8.345741
90.99776, 9.086708
92.92623, 10.48525
94.85470, 11.64627
96.78316, 11.96276
98.71163, 10.60853
100.6401, 10.01130
102.5686, 11.04726
104.4970, 13.27629
106.4255, 15.24581
108.3540, 16.83126
110.2824, 18.12604
112.2109, 18.94625
114.1394, 18.91506
116.0678, 19.69988
117.9963, 22.04493
119.9248, 26.07899
121.8532, 29.38991
123.7817, 31.21116
125.7102, 32.75372
127.6386, 34.91893
129.5671, 37.98646
131.4956, 41.48787
133.4240, 45.88728
135.3525, 51.11305
137.2810, 54.96970
139.2094, 55.28566
141.1379, 54.75900
143.0664, 56.58711
144.9948, 63.14005
146.9233, 69.62164
148.8518, 74.60806
150.7802, 78.32840
152.7087, 82.04086
154.6372, 86.04955
156.5656, 90.06470
158.4941, 93.72504
160.4226, 97.14024
162.3510, 100.0469
164.2795, 102.1020
166.2080, 102.7281
168.1364, 104.6533
170.0649, 109.1985
171.9934, 114.7914
173.9218, 118.8183
175.8503, 119.7066
177.7788, 120.7356
179.7072, 123.6102
181.6357, 129.8063
183.5642, 133.8608
185.4926, 134.0947
187.4211, 132.2848
189.3496, 131.0184
191.2780, 130.5421
193.2065, 130.4970
195.1350, 130.7417
197.0634, 131.3017
198.9919, 132.5419
200.9204, 135.4161
202.8488, 138.8949
204.7773, 141.1261
206.7058, 140.9558
208.6342, 140.6613
210.5627, 141.0701
212.4912, 142.3430
214.4196, 143.6689
216.3481, 145.2504
218.2766, 146.6551
220.2050, 147.1760
222.1335, 146.1691
224.0620, 145.4080
225.9904, 145.3546
227.9189, 145.9226
229.8474, 147.6474
231.7758, 152.2821
233.7043, 157.3985
235.6328, 159.5878
237.5612, 156.1623
239.4897, 153.7097
241.4182, 155.1057
243.3466, 161.8331
245.2751, 166.2455
247.2036, 166.5839
249.1320, 165.2741
251.0605, 164.6918
252.9890, 165.1694
254.9174, 166.3245
256.8459, 168.7406
258.7744, 172.1088
260.7029, 174.2196
262.6313, 174.1196
264.5598, 172.9587
266.4883, 171.6046
268.4167, 168.7988
270.3452, 167.5488
272.2737, 169.4561
274.2021, 173.5878
276.1306, 176.6953
278.0591, 178.0200
279.9875, 178.3460
281.9160, 177.9159
283.8445, 176.3488
285.7729, 175.4699
287.7014, 176.2773
289.6299, 178.1408
291.5583, 179.3485
293.4868, 179.0268
295.4153, 178.7550
297.3437, 179.5570
299.2722, 181.5518
301.2007, 182.9312
303.1291, 182.8901
305.0576, 182.0441
306.9861, 181.4744
308.9145, 180.9061
310.8430, 180.8373
312.7715, 181.6257
314.6999, 183.2189
316.6284, 184.8066
318.5569, 186.5647
320.4853, 188.1091
322.4138, 188.9341
324.3423, 188.7617
326.2707, 188.7537
328.1992, 189.2484
330.1277, 190.1575
332.0561, 191.2720
333.9846, 192.4449
335.9131, 194.0863
337.8415, 196.5809
339.7700, 200.2220
341.6985, 202.6008
343.6269, 202.4211
345.5554, 200.5312
347.4839, 199.4973
349.4123, 198.5239
351.3408, 199.0479
353.2693, 202.8891
355.1977, 210.3264
357.1262, 214.7428
359.0547, 211.7619
360.9831, 206.8333
362.9116, 207.0975
364.8401, 213.8374
366.7685, 220.9704
368.6970, 227.6164
370.6255, 233.9019
372.5539, 237.4439
374.4824, 235.8903
376.4109, 233.4418
378.3393, 232.5127
380.2678, 232.9975
382.1963, 233.7099
384.1247, 235.2946
386.0532, 236.8119
387.9817, 236.6114
389.9101, 233.3615
391.8386, 229.9866
393.7671, 226.9128
395.6955, 224.6169
397.6240, 224.0782
399.5525, 228.3321
401.4809, 231.5174
403.4094, 230.0380
405.3379, 222.8259
407.2663, 219.3834
409.1948, 223.8136
411.1233, 230.5591
413.0517, 233.1885
414.9802, 226.5573
416.9087, 221.7975
418.8371, 221.8731
420.7656, 225.8518
422.6941, 229.9864
424.6225, 236.1932
426.5510, 242.0697
428.4795, 243.6382
430.4079, 235.3888
432.3364, 229.2779
434.2649, 228.3517
436.1933, 230.7837
438.1218, 234.5031
440.0503, 242.4485
441.9787, 248.6688
443.9072, 247.7221
445.8357, 238.6265
447.7641, 233.0859
449.6926, 235.1938
451.6211, 239.8325
453.5495, 242.8052
455.4780, 243.2163
457.4065, 243.0522
459.3349, 243.2940
461.2634, 244.5039
463.1919, 245.1914
465.1203, 243.7280
467.0488, 242.0618
468.9773, 244.9597
470.9057, 252.4341
472.8342, 255.7549
474.7627, 248.7965
476.6911, 240.9101
478.6196, 239.0219
480.5481, 243.4306
482.4765, 248.4274
484.4050, 250.9145
486.3335, 251.8079
488.2619, 252.9534
490.1904, 254.8764
492.1189, 258.2696
494.0473, 263.9036
495.9758, 269.9114
497.9043, 273.0962
499.8327, 271.3895
501.7612, 268.6344
503.6897, 265.4758
505.6181, 262.1576
507.5466, 260.9575
509.4751, 262.7253
511.4035, 265.8996
513.3320, 269.5833
515.2604, 274.3275
517.1889, 277.4452
519.1174, 278.7319
521.0458, 279.2128
522.9743, 279.8380
524.9028, 280.2922
526.8312, 281.3546
528.7597, 283.5413
530.6882, 286.0482
532.6166, 286.4946
534.5451, 282.9710
536.4736, 281.4560
538.4020, 284.8887
540.3305, 291.8410
542.2590, 296.8208
544.1874, 298.1333
546.1159, 299.3062
548.0444, 302.0026
549.9728, 306.8008
551.9013, 310.1839
553.8298, 309.4568
555.7582, 306.9240
557.6867, 305.1366
559.6152, 305.5080
561.5436, 305.7426
563.4721, 304.9678
565.4006, 303.8278
567.3290, 303.9431
569.2575, 306.6806
571.1860, 308.1367
573.1144, 306.3994
575.0429, 302.8189
576.9714, 302.5797
578.8998, 305.9039
580.8283, 309.1307
582.7568, 310.9788
584.6852, 312.2517
586.6137, 313.9558
588.5422, 318.0109
590.4706, 322.9037
592.3991, 327.4508
594.3276, 329.0613
596.2560, 330.1926
598.1845, 331.6754
600.1130, 332.8571
602.0414, 332.6003
603.9699, 331.3271
605.8984, 329.7524
607.8268, 327.9809
609.7553, 327.2217
611.6838, 329.3034
613.6122, 333.0452
615.5407, 335.8571
617.4692, 337.4353
619.3976, 338.6126
621.3261, 338.5982
623.2546, 338.0089
625.1830, 339.2985
627.1115, 343.8278
629.0400, 349.6263
630.9684, 352.7627
632.8969, 351.3961
634.8254, 349.3877
636.7538, 348.3296
638.6823, 349.5547
640.6108, 350.2741
642.5392, 347.8955
644.4677, 346.4097
646.3962, 348.9002
648.3246, 355.4619
650.2531, 360.9260
652.1816, 365.3776
654.1100, 368.7522
656.0385, 370.2188
657.9670, 368.5459
659.8954, 369.1196
661.8239, 373.6024
663.7524, 378.1880
665.6808, 378.5853
667.6093, 376.6662
669.5378, 376.1035
671.4662, 379.5723
673.3947, 382.2447
675.3232, 381.4287
677.2516, 375.8126
679.1801, 374.7498
681.1086, 382.1747
683.0370, 390.9349
684.9655, 393.2655
686.8940, 390.9120
688.8224, 389.8517
690.7509, 391.3136
692.6794, 391.2765
694.6078, 393.0585
696.5363, 397.9541
698.4648, 401.8653
700.3932, 403.1414
702.3217, 404.0953
704.2502, 405.5599
706.1786, 407.7697
708.1071, 410.2903
710.0356, 413.1776
711.9641, 415.7295
713.8925, 418.6149
715.8210, 421.9941
717.7495, 424.1077
719.6779, 423.8852
721.6064, 422.7993
723.5349, 421.2491
725.4633, 417.0656
727.3918, 415.0504
729.3203, 417.9946
731.2487, 426.2096
733.1772, 433.1089
735.1057, 437.5985
737.0341, 440.7722
738.9626, 442.5616
740.8911, 444.1848
742.8195, 447.1013
744.7480, 452.3814
746.6765, 457.5521
748.6049, 463.1750
750.5334, 469.1860
752.4619, 471.4217
754.3903, 466.4232
756.3188, 461.6340
758.2473, 460.7918
760.1757, 463.3243
762.1042, 466.3133
764.0327, 469.9159
765.9611, 473.6932
767.8896, 477.5504
769.8181, 481.5628
771.7465, 484.1523
773.6750, 484.5790
775.6035, 484.2212
777.5319, 483.3025
779.4604, 481.8264
781.3889, 481.6525
783.3173, 483.8726
785.2458, 486.6561
787.1743, 489.2646
789.1027, 491.9872
791.0312, 495.0978
792.9597, 499.1109
794.8881, 503.0825
796.8166, 506.6744
798.7451, 509.7701
800.6735, 511.6264
802.6020, 510.7262
804.5305, 509.8599
806.4589, 510.0413
808.3874, 511.9293
810.3159, 515.3225
812.2443, 521.4438
814.1728, 527.9830
816.1013, 533.5606
818.0297, 537.0880
819.9582, 540.5150
821.8867, 546.2361
823.8151, 552.2711
825.7436, 554.0763
827.6721, 549.7259
829.6005, 548.1719
831.5290, 550.9127
833.4575, 554.9086
835.3859, 559.8635
837.3144, 566.2399
839.2429, 570.5320
841.1713, 569.9608
843.0998, 568.6442
845.0283, 568.5742
846.9567, 571.8439
848.8852, 576.1557
850.8137, 581.9792
852.7421, 584.1127
854.6706, 581.6128
856.5991, 578.1532
858.5275, 578.9840
860.4560, 586.0123
862.3845, 594.4914
864.3129, 603.7112
866.2414, 614.2090
868.1699, 622.3212
870.0983, 625.4608
872.0268, 626.5453
873.9553, 628.6159
875.8837, 637.0071
877.8122, 647.1838
879.7407, 659.1125
881.6691, 667.1260
883.5976, 671.7546
885.5261, 677.6939
887.4545, 681.2573
889.3830, 679.4676
891.3115, 674.1667
893.2399, 667.9803
895.1684, 658.4911
897.0969, 653.0040
899.0253, 654.3835
900.9538, 658.3535
902.8823, 659.7557
904.8107, 658.5976
906.7392, 657.6522
908.6677, 658.4080
910.5961, 659.2441
912.5246, 657.2914
914.4531, 652.7854
916.3815, 651.7417
918.3100, 656.3994
920.2385, 663.5471
922.1669, 671.3192
924.0954, 675.9305
926.0239, 678.6510
927.9523, 680.9935
929.8808, 684.2856
931.8093, 688.7999
933.7377, 691.0992
935.6662, 692.5131
937.5947, 695.3087
939.5231, 697.4757
941.4516, 696.7744
943.3801, 692.7913
945.3085, 692.5234
947.2370, 700.6866
949.1655, 709.8088
951.0939, 715.1023
953.0224, 714.8217
954.9509, 714.7293
956.8793, 713.8848
958.8078, 714.6887
960.7363, 719.7229
962.6647, 729.4313
964.5932, 739.4949
966.5217, 743.5555
968.4501, 742.6188
970.3786, 740.6187
972.3071, 744.4124
974.2355, 756.8905
976.1640, 762.7466
978.0925, 761.5660
980.0209, 757.9487
981.9494, 756.9653
983.8779, 758.0681
985.8063, 759.8661
987.7348, 766.2830
989.6633, 777.4225
991.5917, 787.8970
993.5202, 792.1079
995.4487, 793.3707
997.3771, 796.7450
999.3056, 797.5795
1001.234, 795.6083
1003.163, 793.8064
1005.091, 796.5403
1007.019, 804.6815
1008.948, 815.3495
1010.876, 819.8415
1012.805, 816.3311
1014.733, 809.0095
1016.662, 809.8036
1018.590, 819.4698
1020.519, 830.0010
1022.447, 836.9338
1024.376, 839.4305
1026.304, 842.2778
1028.233, 848.4786
1030.161, 852.1649
1032.090, 851.1020
1034.018, 846.5740
1035.947, 845.2721
1037.875, 852.7759
1039.803, 867.5038
1041.732, 879.3504
1043.660, 886.0397
1045.589, 889.1242
1047.517, 890.6733
1049.446, 888.9261
1051.374, 887.4395
1053.303, 888.5697
1055.231, 890.9856
1057.160, 893.1991
1059.088, 896.8190
1061.017, 900.5792
1062.945, 900.0283
1064.874, 901.9819
1066.802, 910.6293
1068.730, 921.4355
1070.659, 923.9413
1072.587, 919.2029
1074.516, 919.5085
1076.444, 926.2701
1078.373, 933.2516
1080.301, 935.6439
1082.230, 938.3704
1084.158, 943.1684
1086.087, 949.3928
1088.015, 956.3983
1089.944, 965.6098
1091.872, 973.1443
1093.801, 974.8710
1095.729, 970.6967
1097.657, 968.6193
1099.586, 970.6478
1101.514, 976.0634
1103.443, 982.7169
1105.371, 990.9233
1107.300, 1001.095
1109.228, 1012.492
1111.157, 1016.759
1113.085, 1003.921
1115.014, 994.4446
1116.942, 1001.516
1118.871, 1022.846
1120.799, 1036.896
1122.728, 1038.578
1124.656, 1036.033
1126.584, 1033.620
1128.513, 1034.261
1130.441, 1037.588
1132.370, 1044.626
1134.298, 1051.348
1136.227, 1055.837
1138.155, 1059.295
1140.084, 1062.841
1142.012, 1065.385
1143.941, 1068.848
1145.869, 1076.867
1147.798, 1084.286
1149.726, 1086.550
1151.655, 1083.868
1153.583, 1081.755
1155.511, 1080.499
1157.440, 1084.049
1159.368, 1096.972
1161.297, 1109.070
1163.225, 1114.057
1165.154, 1113.084
1167.082, 1115.730
1169.011, 1127.475
1170.939, 1137.006
1172.868, 1137.557
1174.796, 1130.299
1176.725, 1126.485
1178.653, 1128.985
1180.582, 1133.608
1182.510, 1138.135
1184.438, 1142.565
1186.367, 1148.191
1188.295, 1154.831
1190.224, 1161.797
1192.152, 1170.522
1194.081, 1178.380
1196.009, 1181.787
1197.938, 1182.195
1199.866, 1186.855
1201.795, 1198.953
1203.723, 1208.380
1205.652, 1207.187
1207.580, 1204.512
1209.509, 1210.455
1211.437, 1228.181
1213.365, 1239.748
1215.294, 1240.692
1217.222, 1239.254
1219.151, 1236.439
1221.079, 1233.209
1223.008, 1235.113
1224.936, 1247.653
1226.865, 1255.932
1228.793, 1252.656
1230.722, 1246.742
1232.650, 1247.503
1234.579, 1255.231
1236.507, 1268.078
1238.436, 1293.056
1240.364, 1311.985
1242.292, 1311.032
1244.221, 1298.523
1246.149, 1295.344
1248.078, 1305.162
1250.006, 1315.849
1251.935, 1329.018
1253.863, 1339.751
1255.792, 1341.958
1257.720, 1332.695
1259.649, 1327.678
1261.577, 1326.190
1263.506, 1330.582
1265.434, 1346.461
1267.363, 1366.273
1269.291, 1377.652
1271.219, 1380.944
1273.148, 1380.778
1275.076, 1371.586
1277.005, 1363.727
1278.933, 1366.763
1280.862, 1378.151
1282.790, 1385.851
1284.719, 1387.504
1286.647, 1389.387
1288.576, 1391.493
1290.504, 1395.518
1292.433, 1406.522
1294.361, 1426.499
1296.290, 1438.817
1298.218, 1434.888
1300.146, 1431.537
1302.075, 1434.545
1304.003, 1443.235
1305.932, 1454.271
1307.860, 1470.615
1309.789, 1479.116
1311.717, 1475.482
1313.646, 1470.869
1315.574, 1471.802
1317.503, 1473.633
1319.431, 1474.838
1321.360, 1475.708
1323.288, 1481.514
1325.217, 1499.243
1327.145, 1518.652
1329.073, 1528.036
1331.002, 1525.044
1332.930, 1523.021
1334.859, 1524.910
1336.787, 1527.678
1338.716, 1529.499
1340.644, 1533.465
1342.573, 1541.428
1344.501, 1548.444
1346.430, 1551.106
1348.358, 1548.794
1350.287, 1549.102
1352.215, 1554.083
1354.144, 1562.332
1356.072, 1573.699
1358.000, 1599.104
1359.929, 1613.034
1361.857, 1604.002
1363.786, 1592.315
1365.714, 1594.855
1367.643, 1606.470
1369.571, 1615.762
1371.500, 1627.229
1373.428, 1637.409
1375.357, 1646.026
1377.285, 1653.180
1379.214, 1657.975
1381.142, 1659.748
1383.071, 1660.876
1384.999, 1655.499
1386.927, 1653.262
1388.856, 1664.905
1390.784, 1681.549
1392.713, 1688.574
1394.641, 1686.088
1396.570, 1685.372
1398.498, 1686.995
1400.427, 1693.641
1402.355, 1704.462
1404.284, 1712.606
1406.212, 1714.192
1408.141, 1720.777
1410.069, 1733.405
1411.998, 1741.636
1413.926, 1744.221
1415.854, 1741.441
1417.783, 1739.065
1419.711, 1743.863
1421.640, 1768.011
1423.568, 1787.448
1425.497, 1790.131
1427.425, 1785.411
1429.354, 1780.498
1431.282, 1778.708
1433.211, 1780.694
1435.139, 1787.087
1437.068, 1798.111
1438.996, 1814.076
1440.925, 1826.186
1442.853, 1831.145
1444.781, 1831.388
1446.710, 1828.040
1448.638, 1816.994
1450.567, 1814.140
1452.495, 1831.531
1454.424, 1851.200
1456.352, 1860.881
1458.281, 1864.261
1460.209, 1869.925
1462.138, 1877.083
1464.066, 1883.698
1465.995, 1891.895
1467.923, 1899.797
1469.852, 1905.091
1471.780, 1908.210
1473.708, 1912.793
1475.637, 1920.648
1477.565, 1927.784
1479.494, 1930.299
1481.422, 1932.284
1483.351, 1935.670
1485.279, 1939.703
1487.208, 1943.456
1489.136, 1947.302
1491.065, 1953.336
1492.993, 1961.734
1494.922, 1971.087
1496.850, 1981.144
1498.779, 1989.605
1500.707, 1993.397
1502.635, 1990.446
1504.564, 1990.763
1506.492, 1992.622
1508.421, 1998.174
1510.349, 2009.161
1512.278, 2021.419
1514.206, 2030.393
1516.135, 2035.841
1518.063, 2045.833
1519.992, 2063.121
1521.920, 2076.026
1523.849, 2084.483
1525.777, 2088.070
1527.706, 2083.672
1529.634, 2070.888
1531.563, 2061.528
1533.491, 2052.176
1535.419, 2050.986
1537.348, 2067.325
1539.276, 2087.984
1541.205, 2101.914
1543.133, 2109.990
1545.062, 2112.674
1546.990, 2106.353
1548.919, 2102.707
1550.847, 2103.539
1552.776, 2109.427
1554.704, 2123.721
1556.633, 2143.514
1558.561, 2160.994
1560.490, 2176.543
1562.418, 2186.064
1564.346, 2185.042
1566.275, 2182.980
1568.203, 2183.306
1570.132, 2185.624
1572.060, 2190.905
1573.989, 2199.732
1575.917, 2206.828
1577.846, 2208.703
1579.774, 2212.544
1581.703, 2227.512
1583.631, 2243.522
1585.560, 2245.840
1587.488, 2235.300
1589.417, 2231.429
1591.345, 2240.523
1593.273, 2245.062
1595.202, 2230.220
1597.130, 2217.764
1599.059, 2225.283
1600.987, 2248.804
1602.916, 2270.584
1604.844, 2292.377
1606.773, 2303.828
1608.701, 2289.639
1610.630, 2281.514
1612.558, 2305.088
1614.487, 2338.944
1616.415, 2341.516
1618.344, 2308.490
1620.272, 2285.401
1622.200, 2274.584
1624.129, 2276.281
1626.057, 2300.293
1627.986, 2328.189
1629.914, 2343.698
1631.843, 2348.037
1633.771, 2353.774
1635.700, 2362.990
1637.628, 2367.568
1639.557, 2357.736
1641.485, 2352.498
1643.414, 2366.520
1645.342, 2387.969
1647.271, 2393.156
1649.199, 2378.360
1651.127, 2375.516
1653.056, 2394.660
1654.984, 2411.667
1656.913, 2420.142
1658.841, 2425.118
1660.770, 2428.833
1662.698, 2432.038
1664.627, 2439.887
1666.555, 2456.271
1668.484, 2465.042
1670.412, 2454.552
1672.341, 2448.175
1674.269, 2455.956
1676.198, 2470.964
1678.126, 2485.956
1680.054, 2501.036
1681.983, 2512.002
1683.911, 2516.625
1685.840, 2521.851
1687.768, 2533.803
1689.697, 2541.407
1691.625, 2534.205
1693.554, 2520.047
1695.482, 2515.126
1697.411, 2520.068
1699.339, 2529.988
1701.268, 2548.778
1703.196, 2565.118
1705.125, 2574.253
1707.053, 2581.811
1708.981, 2593.454
1710.910, 2606.817
1712.838, 2613.045
1714.767, 2611.175
1716.695, 2607.087
1718.624, 2599.902
1720.552, 2592.992
1722.481, 2581.178
1724.409, 2575.417
1726.338, 2589.996
1728.266, 2620.288
1730.195, 2642.332
1732.123, 2656.444
1734.052, 2658.634
1735.980, 2636.539
1737.908, 2620.931
1739.837, 2628.390
1741.765, 2644.915
1743.694, 2659.139
1745.622, 2670.794
1747.551, 2679.302
1749.479, 2685.814
1751.408, 2681.713
1753.336, 2649.715
1755.265, 2631.876
1757.193, 2665.249
1759.122, 2709.371
1761.050, 2720.678
1762.979, 2705.854
1764.907, 2695.163
1766.835, 2689.653
1768.764, 2690.934
1770.692, 2705.462
1772.621, 2716.815
1774.549, 2711.013
1776.478, 2702.972
1778.406, 2709.016
1780.335, 2726.004
1782.263, 2742.476
1784.192, 2758.808
1786.120, 2770.026
1788.049, 2773.170
1789.977, 2774.435
1791.906, 2773.852
1793.834, 2774.584
1795.762, 2782.720
1797.691, 2794.982
1799.619, 2796.971
1801.548, 2785.654
1803.476, 2780.634
1805.405, 2787.354
1807.333, 2795.774
1809.262, 2804.309
1811.190, 2812.185
1813.119, 2818.898
1815.047, 2824.449
1816.976, 2827.853
1818.904, 2827.144
1820.833, 2833.212
1822.761, 2854.745
1824.689, 2870.139
1826.618, 2870.683
1828.546, 2869.537
1830.475, 2876.357
1832.403, 2886.328
1834.332, 2889.460
1836.260, 2884.773
1838.189, 2885.987
1840.117, 2894.776
1842.046, 2906.463
1843.974, 2931.500
1845.903, 2945.737
1847.831, 2924.444
1849.760, 2898.668
1851.688, 2910.375
1853.616, 2952.333
1855.545, 2968.776
1857.473, 2954.464
1859.402, 2940.598
1861.330, 2923.795
1863.259, 2921.239
1865.187, 2954.830
1867.116, 2987.756
1869.044, 2989.810
1870.973, 2976.480
1872.901, 2980.554
1874.830, 3000.470
1876.758, 3003.502
1878.687, 2978.772
1880.615, 2969.419
1882.543, 3000.792
1884.472, 3027.834
1886.400, 3023.573
1888.329, 3007.521
1890.257, 2996.414
1892.186, 2990.896
1894.114, 2994.011
1896.043, 3007.140
1897.971, 3019.995
1899.900, 3037.351
1901.828, 3045.452
1903.757, 3030.119
1905.685, 3017.669
1907.614, 3027.679
1909.542, 3047.515
1911.470, 3058.864
1913.399, 3062.248
1915.327, 3065.883
1917.256, 3071.686
1919.184, 3073.130
1921.113, 3062.822
1923.041, 3058.350
1924.970, 3072.694
1926.898, 3084.443
1928.827, 3069.549
1930.755, 3047.769
1932.684, 3058.778
1934.612, 3098.934
1936.541, 3126.123
1938.469, 3137.440
1940.397, 3141.699
1942.326, 3136.446
1944.254, 3132.404
1946.183, 3132.877
1948.111, 3137.014
1950.040, 3149.437
1951.968, 3162.540
1953.897, 3159.247
1955.825, 3142.318
1957.754, 3140.228
1959.682, 3160.079
1961.611, 3171.693
1963.539, 3162.356
1965.468, 3157.465
1967.396, 3170.916
1969.324, 3183.251
1971.253, 3175.122
1973.181, 3160.615
1975.110, 3165.464
1977.038, 3188.116
1978.967, 3201.602
1980.895, 3204.415
1982.824, 3203.018
1984.752, 3195.472
1986.681, 3188.024
1988.609, 3175.369
1990.538, 3171.672
1992.466, 3194.071
1994.395, 3221.817
1996.323, 3229.150
1998.251, 3221.975
2000.180, 3217.253
2002.108, 3215.352
2004.037, 3223.463
2005.965, 3249.771
2007.894, 3263.965
2009.822, 3241.933
2011.751, 3228.452
2013.679, 3255.524
2015.608, 3286.178
2017.536, 3280.017
2019.465, 3255.625
2021.393, 3256.937
2023.322, 3284.701
2025.250, 3298.448
2027.178, 3291.469
2029.107, 3287.983
2031.035, 3291.252
2032.964, 3294.811
2034.892, 3298.897
2036.821, 3300.740
2038.749, 3295.381
2040.678, 3289.839
2042.606, 3291.491
2044.535, 3299.342
2046.463, 3313.736
2048.392, 3334.132
2050.320, 3342.628
2052.249, 3332.750
2054.177, 3329.943
2056.105, 3348.700
2058.034, 3361.094
2059.962, 3352.954
2061.891, 3342.273
2063.819, 3343.061
2065.748, 3346.934
2067.676, 3339.138
2069.605, 3323.813
2071.533, 3323.184
2073.462, 3340.354
2075.390, 3346.338
2077.319, 3332.634
2079.247, 3334.800
2081.176, 3372.913
2083.104, 3399.497
2085.032, 3385.932
2086.961, 3368.711
2088.889, 3370.528
2090.818, 3383.001
2092.746, 3402.207
2094.675, 3423.009
2096.603, 3427.070
2098.532, 3412.799
2100.460, 3400.935
2102.389, 3389.603
2104.317, 3384.362
2106.246, 3392.042
2108.174, 3395.839
2110.103, 3387.521
2112.031, 3380.290
2113.959, 3385.226
2115.888, 3390.373
2117.816, 3379.657
2119.745, 3362.334
2121.673, 3357.301
2123.602, 3363.934
2125.530, 3381.265
2127.459, 3411.467
2129.387, 3426.790
2131.316, 3419.515
2133.244, 3408.206
2135.173, 3386.783
2137.101, 3375.820
2139.030, 3390.605
2140.958, 3409.442
2142.886, 3417.893
2144.815, 3421.020
2146.743, 3423.435
2148.672, 3426.301
2150.600, 3435.612
2152.529, 3450.732
2154.457, 3457.265
2156.386, 3452.864
2158.314, 3454.784
2160.243, 3469.876
2162.171, 3478.865
2164.100, 3471.569
2166.028, 3463.855
2167.957, 3461.789
2169.885, 3461.888
2171.813, 3465.621
2173.742, 3467.033
2175.670, 3452.664
2177.599, 3430.195
2179.527, 3425.505
2181.456, 3438.487
2183.384, 3454.569
2185.313, 3475.582
2187.241, 3479.332
2189.170, 3455.193
2191.098, 3442.944
2193.027, 3460.630
2194.955, 3476.589
2196.884, 3477.385
2198.812, 3473.940
2200.740, 3468.210
2202.669, 3465.832
2204.597, 3478.548
2206.526, 3496.319
2208.454, 3496.196
2210.383, 3480.763
2212.311, 3470.560
2214.240, 3465.572
2216.168, 3468.055
2218.097, 3480.507
2220.025, 3485.655
2221.954, 3477.900
2223.882, 3470.111
2225.811, 3456.900
2227.739, 3457.246
2229.667, 3498.187
2231.596, 3532.605
2233.524, 3521.965
2235.453, 3492.671
2237.381, 3467.054
2239.310, 3449.312
2241.238, 3453.822
2243.167, 3475.804
2245.095, 3483.697
2247.024, 3477.716
2248.952, 3488.996
2250.881, 3524.996
2252.809, 3544.595
2254.738, 3535.676
2256.666, 3523.406
2258.594, 3506.718
2260.523, 3496.765
2262.451, 3505.242
2264.380, 3511.409
2266.308, 3496.220
2268.237, 3480.967
2270.165, 3489.318
2272.094, 3506.575
2274.022, 3510.847
2275.951, 3506.349
2277.879, 3503.538
2279.808, 3502.367
2281.736, 3500.722
2283.665, 3497.779
2285.593, 3498.997
2287.521, 3508.612
2289.450, 3514.776
2291.378, 3520.113
2293.307, 3516.278
2295.235, 3487.026
2297.164, 3474.475
2299.092, 3508.285
2301.021, 3541.420
2302.949, 3544.044
2304.878, 3537.103
2306.806, 3536.991
2308.735, 3539.063
2310.663, 3538.348
2312.592, 3534.329
2314.520, 3523.491
2316.448, 3507.348
2318.377, 3497.947
2320.305, 3495.299
2322.234, 3500.980
2324.162, 3516.377
2326.091, 3524.700
2328.019, 3521.955
2329.948, 3520.380
2331.876, 3526.729
2333.805, 3526.505
2335.733, 3504.018
2337.662, 3492.018
2339.590, 3515.374
2341.519, 3536.137
2343.447, 3528.460
2345.375, 3514.321
2347.304, 3511.345
2349.232, 3512.124
2351.161, 3506.696
2353.089, 3499.481
2355.018, 3501.083
2356.946, 3508.018
2358.875, 3502.627
2360.803, 3485.345
2362.732, 3489.776
2364.660, 3520.902
2366.589, 3541.885
2368.517, 3551.789
2370.446, 3551.000
2372.374, 3535.792
2374.302, 3525.052
2376.231, 3525.525
2378.159, 3525.087
2380.088, 3516.598
2382.016, 3511.940
2383.945, 3521.381
2385.873, 3527.920
2387.802, 3516.097
2389.730, 3505.301
2391.659, 3514.993
2393.587, 3527.794
2395.516, 3526.135
2397.444, 3517.047
2399.373, 3508.618
2401.301, 3501.446
2403.229, 3497.394
2405.158, 3495.947
2407.086, 3495.334
2409.015, 3495.586
2410.943, 3488.058
2412.872, 3472.287
2414.800, 3466.957
2416.729, 3473.079
2418.657, 3495.816
2420.586, 3549.606
2422.514, 3571.335
2424.443, 3523.944
2426.371, 3489.854
2428.300, 3485.562
2430.228, 3487.112
2432.156, 3492.995
2434.085, 3497.873
2436.013, 3501.383
2437.942, 3500.910
2439.870, 3487.059
2441.799, 3478.217
2443.727, 3497.896
2445.656, 3517.984
2447.584, 3507.396
2449.513, 3484.634
2451.441, 3468.255
2453.370, 3460.100
2455.298, 3466.646
2457.227, 3482.700
2459.155, 3496.941
2461.083, 3509.719
2463.012, 3527.563
2464.940, 3548.496
2466.869, 3538.133
2468.797, 3491.231
2470.726, 3472.375
2472.654, 3484.755
2474.583, 3490.715
2476.511, 3486.371
2478.440, 3492.465
2480.368, 3518.830
2482.297, 3527.228
2484.225, 3490.586
2486.154, 3472.157
2488.082, 3499.770
2490.010, 3510.324
2491.939, 3476.854
2493.867, 3459.688
2495.796, 3490.953
2497.724, 3516.175
2499.653, 3509.042
2501.581, 3491.667
2503.510, 3462.509
2505.438, 3443.173
2507.367, 3457.794
2509.295, 3476.103
2511.224, 3470.026
2513.152, 3460.731
2515.081, 3468.333
2517.009, 3482.694
2518.938, 3500.219
2520.866, 3511.073
2522.794, 3490.144
2524.723, 3457.345
2526.651, 3455.375
2528.580, 3474.181
2530.508, 3490.523
2532.437, 3501.850
2534.365, 3497.649
2536.294, 3480.490
2538.222, 3462.243
2540.151, 3443.536
2542.079, 3433.034
2544.008, 3430.528
2545.936, 3443.588
2547.865, 3473.228
2549.793, 3483.114
2551.721, 3470.587
2553.650, 3456.708
2555.578, 3440.758
2557.507, 3438.112
2559.435, 3462.236
2561.364, 3473.771
2563.292, 3469.815
2565.221, 3461.306
2567.149, 3447.264
2569.078, 3437.424
2571.006, 3436.811
2572.935, 3431.618
2574.863, 3405.267
2576.792, 3396.288
2578.720, 3423.729
2580.648, 3450.818
2582.577, 3475.917
2584.505, 3487.722
2586.434, 3478.692
2588.362, 3463.063
2590.291, 3436.232
2592.219, 3419.870
2594.148, 3436.012
2596.076, 3447.068
2598.005, 3424.360
2599.933, 3406.170
2601.862, 3411.423
2603.790, 3426.567
2605.719, 3452.619
2607.647, 3473.387
2609.575, 3475.683
2611.504, 3470.287
2613.432, 3466.845
2615.361, 3458.118
2617.289, 3424.799
2619.218, 3397.950
2621.146, 3410.055
2623.075, 3436.025
2625.003, 3458.603
2626.932, 3472.537
2628.860, 3470.573
2630.789, 3457.455
2632.717, 3423.895
2634.646, 3396.396
2636.574, 3421.330
2638.502, 3463.480
2640.431, 3474.757
2642.359, 3468.562
2644.288, 3465.685
2646.216, 3462.109
2648.145, 3442.243
2650.073, 3421.280
2652.002, 3436.751
2653.930, 3467.823
2655.859, 3478.225
2657.787, 3471.716
2659.716, 3448.493
2661.644, 3418.950
2663.573, 3410.729
2665.501, 3418.574
2667.429, 3439.389
2669.358, 3460.711
2671.286, 3442.837
2673.215, 3401.396
2675.143, 3382.024
2677.072, 3381.966
2679.000, 3397.733
2680.929, 3422.454
2682.857, 3434.471
2684.786, 3435.368
2686.714, 3429.141
2688.643, 3418.542
2690.571, 3413.747
2692.500, 3414.595
2694.428, 3422.539
2696.356, 3435.153
2698.285, 3443.951
2700.213, 3449.069
2702.142, 3454.120
2704.070, 3456.603
2705.999, 3440.071
2707.927, 3410.513
2709.856, 3398.990
2711.784, 3401.566
2713.713, 3405.681
2715.641, 3410.399
2717.570, 3414.415
2719.498, 3416.591
2721.427, 3406.943
2723.355, 3390.969
2725.283, 3396.628
2727.212, 3418.674
2729.140, 3447.695
2731.069, 3475.688
2732.997, 3470.318
2734.926, 3441.211
2736.854, 3423.386
2738.783, 3414.431
2740.711, 3405.535
2742.640, 3397.968
2744.568, 3396.299
2746.497, 3398.266
2748.425, 3393.226
2750.354, 3388.033
2752.282, 3411.154
2754.210, 3446.602
2756.139, 3452.223
2758.067, 3439.509
2759.996, 3428.613
2761.924, 3421.035
2763.853, 3421.888
2765.781, 3427.351
2767.710, 3427.421
2769.638, 3427.877
2771.567, 3439.263
2773.495, 3456.954
2775.424, 3484.844
2777.352, 3504.614
2779.281, 3472.461
2781.209, 3425.458
2783.137, 3416.603
2785.066, 3425.470
2786.994, 3435.389
2788.923, 3442.271
2790.851, 3438.807
2792.780, 3432.193
2794.708, 3431.651
2796.637, 3430.480
2798.565, 3415.684
2800.494, 3405.865
2802.422, 3427.429
2804.351, 3449.124
2806.279, 3439.159
2808.208, 3426.581
2810.136, 3433.862
2812.064, 3441.052
2813.993, 3434.644
2815.921, 3424.690
2817.850, 3410.609
2819.778, 3404.592
2821.707, 3417.524
2823.635, 3430.633
2825.564, 3433.953
2827.492, 3438.409
2829.421, 3455.992
2831.349, 3462.627
2833.278, 3435.092
2835.206, 3429.641
2837.135, 3477.692
2839.063, 3503.137
2840.991, 3456.773
2842.920, 3433.148
2844.848, 3463.878
2846.777, 3480.741
2848.705, 3471.411
2850.634, 3472.938
2852.562, 3501.143
2854.491, 3501.217
2856.419, 3441.060
2858.348, 3424.399
2860.276, 3458.024
2862.205, 3483.930
2864.133, 3497.724
2866.062, 3506.450
2867.990, 3510.471
2869.918, 3510.562
2871.847, 3506.740
2873.775, 3502.324
2875.704, 3496.737
2877.632, 3478.939
2879.561, 3456.408
2881.489, 3478.423
2883.418, 3526.281
2885.346, 3518.455
2887.275, 3484.012
2889.203, 3499.399
2891.132, 3534.752
2893.060, 3536.628
2894.989, 3522.440
2896.917, 3519.615
2898.845, 3516.218
2900.774, 3487.653
2902.702, 3465.094
2904.631, 3488.525
2906.559, 3517.079
2908.488, 3510.062
2910.416, 3507.753
2912.345, 3544.979
2914.273, 3572.206
2916.202, 3552.611
2918.130, 3534.248
2920.059, 3534.578
2921.987, 3543.538
2923.916, 3565.334
2925.844, 3576.070
2927.772, 3558.090
2929.701, 3555.600
2931.629, 3584.950
2933.558, 3602.516
2935.486, 3605.021
2937.415, 3598.113
2939.343, 3579.849
2941.272, 3578.291
2943.200, 3597.003
2945.129, 3597.623
2947.057, 3583.434
2948.986, 3586.670
2950.914, 3603.470
2952.843, 3607.492
2954.771, 3605.981
2956.699, 3628.885
2958.628, 3659.526
2960.556, 3661.654
2962.485, 3650.342
2964.413, 3639.358
2966.342, 3632.711
2968.270, 3634.129
2970.199, 3643.224
2972.127, 3668.013
2974.056, 3687.123
2975.984, 3678.708
2977.913, 3674.672
2979.841, 3692.343
2981.770, 3711.977
2983.698, 3731.348
2985.626, 3744.154
2987.555, 3740.760
2989.483, 3749.265
2991.412, 3780.891
2993.340, 3775.632
2995.269, 3724.266
2997.197, 3706.243
2999.126, 3729.523
3001.054, 3766.690
3002.983, 3813.480
3004.911, 3802.461
3006.840, 3757.802
3008.768, 3773.016
3010.697, 3815.482
3012.625, 3804.643
3014.553, 3773.984
3016.482, 3770.672
3018.410, 3781.661
3020.339, 3804.966
3022.267, 3823.855
3024.196, 3817.859
3026.124, 3815.008
3028.053, 3832.084
3029.981, 3846.582
3031.910, 3847.660
3033.838, 3847.255
3035.767, 3843.664
3037.695, 3852.899
3039.624, 3880.197
3041.552, 3896.013
3043.480, 3893.078
3045.409, 3903.775
3047.337, 3926.904
3049.266, 3921.471
3051.194, 3899.081
3053.123, 3918.802
3055.051, 3959.888
3056.980, 3965.740
3058.908, 3959.811
3060.837, 3984.552
3062.765, 4009.033
3064.694, 3993.821
3066.622, 3979.166
3068.551, 3997.388
3070.479, 4018.421
3072.407, 4029.442
3074.336, 4043.526
3076.264, 4074.665
3078.193, 4087.239
3080.121, 4072.440
3082.050, 4071.066
3083.978, 4089.000
3085.907, 4106.287
3087.835, 4122.050
3089.764, 4127.069
3091.692, 4125.980
3093.621, 4144.229
3095.549, 4166.920
3097.478, 4153.121
3099.406, 4133.786
3101.334, 4162.600
3103.263, 4192.039
3105.191, 4174.742
3107.120, 4160.744
3109.048, 4188.489
3110.977, 4207.469
3112.905, 4201.672
3114.834, 4193.394
3116.762, 4177.196
3118.691, 4194.799
3120.619, 4254.183
3122.548, 4274.958
3124.476, 4259.430
3126.405, 4270.842
3128.333, 4303.727
3130.261, 4338.832
3132.190, 4368.513
3134.118, 4373.027
3136.047, 4369.276
3137.975, 4368.891
3139.904, 4377.475
3141.832, 4408.619
3143.761, 4431.639
3145.689, 4420.060
3147.618, 4427.132
3149.546, 4481.107
3151.475, 4510.997
3153.403, 4509.526
3155.332, 4515.383
3157.260, 4531.608
3159.188, 4532.354
3161.117, 4522.781
3163.045, 4529.941
3164.974, 4545.547
3166.902, 4556.274
3168.831, 4565.075
3170.759, 4569.973
3172.688, 4582.519
3174.616, 4620.430
3176.545, 4648.773
3178.473, 4642.669
3180.402, 4648.505
3182.330, 4676.166
3184.259, 4689.209
3186.187, 4678.508
3188.115, 4696.530
3190.044, 4740.185
3191.972, 4768.987
3193.901, 4786.438
3195.829, 4795.768
3197.758, 4807.030
3199.686, 4838.204
3201.615, 4872.374
3203.543, 4900.951
3205.472, 4922.819
3207.400, 4940.998
3209.329, 4941.824
3211.257, 4917.359
3213.186, 4909.272
3215.114, 4925.859
3217.042, 4945.264
3218.971, 4967.276
3220.899, 4993.880
3222.828, 5021.815
3224.756, 5042.825
3226.685, 5061.865
3228.613, 5098.287
3230.542, 5116.254
3232.470, 5064.145
3234.399, 5037.224
3236.327, 5091.979
3238.256, 5140.673
3240.184, 5173.315
3242.113, 5201.109
3244.041, 5224.755
3245.969, 5260.536
3247.898, 5301.191
3249.826, 5307.214
3251.755, 5298.103
3253.683, 5298.627
3255.612, 5308.859
3257.540, 5331.526
3259.469, 5359.193
3261.397, 5397.508
3263.326, 5421.441
3265.254, 5422.369
3267.183, 5421.051
3269.111, 5419.024
3271.040, 5456.553
3272.968, 5523.367
3274.896, 5547.024
3276.825, 5549.375
3278.753, 5570.426
3280.682, 5594.630
3282.610, 5611.460
3284.539, 5616.978
3286.467, 5602.717
3288.396, 5595.974
3290.324, 5604.443
3292.253, 5626.383
3294.181, 5661.693
3296.110, 5684.908
3298.038, 5700.506
3299.967, 5738.515
3301.895, 5784.332
3303.823, 5801.947
3305.752, 5827.533
3307.680, 5915.982
3309.609, 5977.515
3311.537, 5973.706
3313.466, 5949.540
3315.394, 5898.885
3317.323, 5910.097
3319.251, 5985.222
3321.180, 6054.720
3323.108, 6105.966
3325.037, 6087.432
3326.965, 6060.214
3328.894, 6125.470
3330.822, 6185.416
3332.750, 6163.148
3334.679, 6161.870
3336.607, 6221.625
3338.536, 6254.060
3340.464, 6250.114
3342.393, 6266.314
3344.321, 6298.126
3346.250, 6296.098
3348.178, 6299.597
3350.107, 6392.548
3352.035, 6480.100
3353.964, 6467.957
3355.892, 6458.303
3357.821, 6482.051
3359.749, 6512.700
3361.677, 6547.537
3363.606, 6581.395
3365.534, 6612.798
3367.463, 6634.821
3369.391, 6649.792
3371.320, 6643.032
3373.248, 6658.838
3375.177, 6764.027
3377.105, 6840.371
3379.034, 6813.588
3380.962, 6827.396
3382.891, 6899.510
3384.819, 6956.188
3386.748, 6994.262
3388.676, 7012.041
3390.604, 7020.679
3392.533, 7032.578
3394.461, 7053.772
3396.390, 7088.044
3398.318, 7139.206
3400.247, 7223.997
3402.175, 7263.458
3404.104, 7237.943
3406.032, 7258.250
3407.961, 7316.085
3409.889, 7384.146
3411.818, 7446.890
3413.746, 7473.175
3415.675, 7496.166
3417.603, 7541.771
3419.531, 7575.831
3421.460, 7586.889
3423.388, 7601.284
3425.317, 7622.275
3427.245, 7666.404
3429.174, 7726.872
3431.102, 7796.316
3433.031, 7855.863
3434.959, 7885.148
3436.888, 7900.444
3438.816, 7897.115
3440.745, 7925.893
3442.673, 8005.954
3444.602, 8047.945
3446.530, 8060.425
3448.458, 8103.093
3450.387, 8167.041
3452.315, 8257.453
3454.244, 8336.254
3456.172, 8383.359
3458.101, 8412.995
3460.029, 8404.375
3461.958, 8453.229
3463.886, 8550.877
3465.815, 8598.757
3467.743, 8616.595
3469.672, 8628.752
3471.600, 8662.277
3473.529, 8762.840
3475.457, 8839.710
3477.385, 8851.896
3479.314, 8872.109
3481.242, 8905.843
3483.171, 8943.325
3485.099, 8987.211
3487.028, 9062.719
3488.956, 9128.666
3490.885, 9129.346
3492.813, 9139.340
3494.742, 9184.838
3496.670, 9242.980
3498.599, 9313.038
3500.527, 9365.436
3502.456, 9399.369
3504.384, 9391.807
3506.313, 9392.170
3508.241, 9461.987
3510.169, 9544.226
3512.098, 9628.638
3514.026, 9674.467
3515.955, 9664.836
3517.883, 9740.501
3519.812, 9848.927
3521.740, 9808.770
3523.669, 9758.213
3525.597, 9871.549
3527.526, 9979.699
3529.454, 10012.75
3531.383, 10037.59
3533.311, 10059.86
3535.240, 10111.37
3537.168, 10178.04
3539.096, 10216.22
3541.025, 10255.21
3542.953, 10325.64
3544.882, 10391.89
3546.810, 10439.32
3548.739, 10484.74
3550.667, 10529.65
3552.596, 10583.91
3554.524, 10636.88
3556.453, 10646.31
3558.381, 10670.70
3560.310, 10775.33
3562.238, 10856.72
3564.167, 10892.49
3566.095, 10914.62
3568.023, 10936.18
3569.952, 11052.51
3571.880, 11193.43
3573.809, 11266.06
3575.737, 11312.55
3577.666, 11343.25
3579.594, 11386.34
3581.523, 11446.94
3583.451, 11516.89
3585.380, 11588.68
3587.308, 11626.26
3589.237, 11662.37
3591.165, 11730.35
3593.094, 11804.31
3595.022, 11880.97
3596.950, 11933.75
3598.879, 11961.86
3600.807, 11978.88
3602.736, 12014.27
3604.664, 12142.12
3606.593, 12258.43
3608.521, 12296.48
3610.450, 12341.61
3612.378, 12418.56
3614.307, 12444.25
3616.235, 12455.80
3618.164, 12601.25
3620.092, 12754.68
3622.021, 12769.02
3623.949, 12791.38
3625.877, 12872.93
3627.806, 12922.97
3629.734, 12945.45
3631.663, 13015.12
3633.591, 13112.95
3635.520, 13232.95
3637.448, 13333.67
3639.377, 13385.27
3641.305, 13457.81
3643.234, 13560.14
3645.162, 13623.34
3647.091, 13675.09
3649.019, 13803.25
3650.948, 13900.71
3652.876, 13876.33
3654.804, 13895.43
3656.733, 14007.86
3658.661, 14080.86
3660.590, 14129.80
3662.518, 14197.72
3664.447, 14290.54
3666.375, 14429.26
3668.304, 14549.41
3670.232, 14626.49
3672.161, 14680.51
3674.089, 14725.77
3676.018, 14837.27
3677.946, 14952.67
3679.875, 14995.47
3681.803, 15031.79
3683.731, 15077.76
3685.660, 15149.42
3687.588, 15241.56
3689.517, 15326.14
3691.445, 15400.12
3693.374, 15436.09
3695.302, 15504.77
3697.231, 15662.77
3699.159, 15790.74
3701.088, 15885.51
3703.016, 15959.67
3704.945, 16017.50
3706.873, 16047.34
3708.802, 16089.74
3710.730, 16158.07
3712.658, 16270.99
3714.587, 16415.07
3716.515, 16442.17
3718.444, 16438.26
3720.372, 16539.22
3722.301, 16648.39
3724.229, 16728.90
3726.158, 16792.33
3728.086, 16846.46
3730.015, 16961.40
3731.943, 17095.54
3733.872, 17194.54
3735.800, 17278.32
3737.729, 17348.72
3739.657, 17427.26
3741.585, 17509.94
3743.514, 17532.74
3745.442, 17563.63
3747.371, 17744.51
3749.299, 17862.57
3751.228, 17802.32
3753.156, 17822.21
3755.085, 17926.77
3757.013, 18114.42
3758.942, 18290.34
3760.870, 18336.70
3762.799, 18345.83
3764.727, 18308.85
3766.656, 18433.92
3768.584, 18657.95
3770.512, 18702.10
3772.441, 18735.93
3774.369, 18944.77
3776.298, 19094.08
3778.226, 19107.07
3780.155, 19190.10
3782.083, 19317.72
3784.012, 19432.18
3785.940, 19531.56
3787.869, 19604.38
3789.797, 19701.94
3791.726, 19834.74
3793.654, 19925.76
3795.583, 20010.95
3797.511, 20162.42
3799.439, 20302.89
3801.368, 20398.01
3803.296, 20487.04
3805.225, 20576.00
3807.153, 20688.66
3809.082, 20795.02
3811.010, 20844.96
3812.939, 20907.71
3814.867, 20994.01
3816.796, 21205.16
3818.724, 21470.74
3820.653, 21491.14
3822.581, 21508.18
3824.510, 21749.52
3826.438, 21904.44
3828.366, 21940.51
3830.295, 22040.36
3832.223, 22175.22
3834.152, 22282.17
3836.080, 22401.45
3838.009, 22579.74
3839.937, 22645.97
3841.866, 22645.67
3843.794, 22884.93
3845.723, 23183.83
3847.651, 23398.38
3849.580, 23538.04
3851.508, 23603.41
3853.437, 23743.84
3855.365, 23933.32
3857.293, 24150.22
3859.222, 24309.85
3861.150, 24335.62
3863.079, 24442.06
3865.007, 24629.93
3866.936, 24779.48
3868.864, 24927.39
3870.793, 25125.56
3872.721, 25315.21
3874.650, 25481.77
3876.578, 25592.45
3878.507, 25688.20
3880.435, 25858.15
3882.364, 26021.74
3884.292, 26139.56
3886.220, 26282.32
3888.149, 26445.44
3890.077, 26543.84
3892.006, 26643.39
3893.934, 26819.54
3895.863, 26976.40
3897.791, 27099.59
3899.720, 27251.50
3901.648, 27413.50
3903.577, 27539.68
3905.505, 27664.24
3907.434, 27788.16
3909.362, 28016.87
3911.291, 28293.71
3913.219, 28360.05
3915.147, 28418.64
3917.076, 28628.39
3919.004, 28825.50
3920.933, 28984.54
3922.861, 29098.90
3924.790, 29243.75
3926.718, 29544.08
3928.647, 29776.57
3930.575, 29864.36
3932.504, 29973.24
3934.432, 30094.40
3936.361, 30241.98
3938.289, 30406.10
3940.218, 30538.24
3942.146, 30719.66
3944.074, 30948.82
3946.003, 31137.61
3947.931, 31295.06
3949.860, 31366.44
3951.788, 31506.61
3953.717, 31737.13
3955.645, 31880.11
3957.574, 31983.51
3959.502, 32206.16
3961.431, 32325.70
3963.359, 32320.07
3965.288, 32482.85
3967.216, 32714.72
3969.145, 32874.31
3971.073, 33024.35
3973.001, 33198.68
3974.930, 33331.83
3976.858, 33457.20
3978.787, 33621.89
3980.715, 33799.36
3982.644, 34001.95
3984.572, 34208.41
3986.501, 34384.99
3988.429, 34584.31
3990.358, 34765.25
3992.286, 34888.20
3994.215, 35058.25
3996.143, 35257.39
3998.072, 35433.64
4000.000, 35630.09
4001.928, 35857.95
4003.857, 36047.01
4005.785, 36259.83
4007.714, 36472.16
4009.642, 36671.19
4011.571, 36887.92
4013.499, 37018.63
4015.428, 37164.19
4017.356, 37464.50
4019.285, 37745.05
4021.213, 37961.99
4023.142, 38236.18
4025.070, 38539.54
4026.999, 38768.93
4028.927, 38957.97
4030.855, 39211.20
4032.784, 39537.82
4034.712, 39841.29
4036.641, 40022.86
4038.569, 40268.74
4040.498, 40625.51
4042.426, 40868.17
4044.355, 41069.60
4046.283, 41361.96
4048.212, 41630.02
4050.140, 41864.02
4052.069, 42115.11
4053.997, 42374.99
4055.926, 42599.65
4057.854, 42831.82
4059.782, 43036.55
4061.711, 43216.63
4063.639, 43426.30
4065.568, 43666.62
4067.496, 43941.93
4069.425, 44223.81
4071.353, 44416.14
4073.282, 44578.41
4075.210, 44829.97
4077.139, 45105.37
4079.067, 45341.41
4080.996, 45520.96
4082.924, 45726.02
4084.853, 46072.40
4086.781, 46370.66
4088.709, 46509.64
4090.638, 46720.05
4092.566, 46974.25
4094.495, 47056.37
4096.423, 47152.33
4098.352, 47418.85
4100.280, 47726.11
4102.208, 48022.79
4104.137, 48224.22
4106.065, 48414.29
4107.994, 48620.38
4109.922, 48938.77
4111.851, 49354.50
4113.779, 49662.64
4115.708, 49910.00
4117.636, 50101.40
4119.565, 50374.82
4121.493, 50742.58
4123.422, 51043.29
4125.350, 51311.94
4127.279, 51558.55
4129.207, 51834.87
4131.136, 52157.84
4133.064, 52612.01
4134.993, 53051.54
4136.921, 53267.59
4138.850, 53548.30
4140.778, 53956.62
4142.707, 54383.73
4144.635, 54783.52
4146.563, 55145.34
4148.492, 55495.45
4150.420, 55816.89
4152.349, 56145.34
4154.277, 56541.50
4156.206, 57061.77
4158.134, 57459.68
4160.063, 57746.27
4161.991, 58142.91
4163.919, 58534.42
4165.848, 58867.01
4167.776, 59194.20
4169.705, 59507.46
4171.633, 59855.37
4173.562, 60197.04
4175.490, 60513.19
4177.419, 60824.71
4179.347, 61073.54
4181.276, 61381.33
4183.204, 61686.21
4185.133, 61825.64
4187.061, 62017.44
4188.990, 62316.95
4190.918, 62634.07
4192.847, 62921.28
4194.775, 63126.40
4196.704, 63392.08
4198.632, 63701.08
4200.561, 63913.77
4202.489, 64131.68
4204.417, 64367.14
4206.346, 64645.63
4208.274, 64978.25
4210.203, 65185.17
4212.131, 65376.88
4214.060, 65632.84
4215.988, 65836.75
4217.917, 66011.70
4219.845, 66282.85
4221.773, 66546.28
4223.702, 66729.91
4225.630, 66876.19
4227.559, 67006.64
4229.487, 67348.11
4231.416, 67719.32
4233.344, 67960.63
4235.273, 68283.73
4237.201, 68669.47
4239.130, 68987.13
4241.058, 69247.05
4242.987, 69392.70
4244.915, 69724.68
4246.844, 70173.92
4248.772, 70538.75
4250.701, 70862.22
4252.629, 71165.95
4254.558, 71400.34
4256.486, 71605.77
4258.415, 71831.72
4260.343, 72156.79
4262.271, 72651.34
4264.200, 72867.23
4266.128, 72958.45
4268.057, 73121.42
4269.985, 73301.02
4271.914, 73489.36
4273.842, 73798.37
4275.771, 74111.90
4277.699, 74325.75
4279.627, 74451.26
4281.556, 74506.79
4283.484, 74606.30
4285.413, 74723.45
4287.341, 74876.09
4289.270, 74899.98
4291.198, 74856.13
4293.127, 74984.91
4295.055, 75097.57
4296.984, 75109.80
4298.912, 75057.38
4300.841, 74994.41
4302.769, 75028.27
4304.698, 75073.24
4306.626, 75114.34
4308.555, 75001.58
4310.483, 74887.55
4312.412, 74956.01
4314.340, 74989.25
4316.269, 74967.91
4318.197, 74952.26
4320.125, 74975.37
4322.054, 75082.66
4323.982, 75042.00
4325.911, 74942.76
4327.839, 75127.04
4329.768, 75191.19
4331.696, 75000.22
4333.625, 74925.37
4335.553, 74975.70
4337.481, 75205.19
4339.410, 75371.36
4341.338, 75438.43
4343.267, 75409.45
4345.195, 75373.44
4347.124, 75358.98
4349.052, 75595.56
4350.981, 75942.33
4352.909, 75915.90
4354.838, 75960.04
4356.766, 76225.59
4358.695, 76519.63
4360.623, 76853.83
4362.552, 77243.73
4364.480, 77715.91
4366.409, 78254.10
4368.337, 78681.43
4370.266, 79145.45
4372.194, 79775.38
4374.123, 80378.41
4376.051, 80982.37
4377.979, 81735.67
4379.908, 82367.12
4381.836, 82776.27
4383.765, 83317.64
4385.693, 83780.63
4387.622, 83903.37
4389.550, 84061.18
4391.479, 84282.92
4393.407, 84455.65
4395.335, 84718.28
4397.264, 85139.42
4399.192, 85415.99
4401.121, 85632.88
4403.049, 85956.66
4404.978, 86191.69
4406.906, 86323.91
4408.835, 86435.96
4410.763, 86553.61
4412.692, 86666.95
4414.620, 86906.52
4416.549, 87317.20
4418.477, 88011.19
4420.406, 88709.19
4422.334, 89354.03
4424.263, 90194.95
4426.191, 91323.05
4428.120, 92870.59
4430.048, 94574.38
4431.977, 96404.91
4433.905, 98297.28
4435.833, 100464.1
4437.762, 102952.6
4439.690, 105546.8
4441.619, 107982.0
4443.547, 110091.2
4445.476, 111728.7
4447.404, 112909.7
4449.333, 113863.2
4451.261, 113980.6
4453.189, 113115.5
4455.118, 112242.4
4457.046, 111258.4
4458.975, 109956.6
4460.903, 108738.0
4462.832, 107660.3
4464.760, 106759.6
4466.689, 106150.0
4468.617, 105878.3
4470.546, 105664.5
4472.474, 105508.3
4474.403, 105417.8
4476.331, 105383.6
4478.260, 105363.2
4480.188, 105260.8
4482.117, 105145.8
4484.045, 105037.4
4485.974, 104993.0
4487.902, 104867.6
4489.831, 104423.1
4491.759, 104341.5
4493.688, 104486.3
4495.616, 104538.1
4497.544, 104705.9
4499.473, 105011.2
4501.401, 105157.2
4503.330, 105411.5
4505.258, 105911.9
4507.187, 106473.9
4509.115, 107231.2
4511.043, 108384.2
4512.972, 109738.4
4514.900, 111286.2
4516.829, 112953.8
4518.757, 115126.5
4520.686, 118023.6
4522.614, 121144.6
4524.543, 124561.3
4526.471, 128328.8
4528.400, 132762.5
4530.328, 137555.5
4532.257, 141963.1
4534.185, 146365.0
4536.114, 150744.6
4538.042, 154478.4
4539.971, 157302.7
4541.899, 159176.3
4543.828, 159399.4
4545.756, 158345.7
4547.685, 156360.1
4549.613, 153811.8
4551.542, 150819.3
4553.470, 147434.1
4555.398, 144191.9
4557.327, 141248.8
4559.255, 138410.8
4561.184, 135810.0
4563.112, 133563.2
4565.041, 131583.4
4566.969, 129739.5
4568.897, 127755.6
4570.826, 125999.8
4572.754, 124483.3
4574.683, 123052.9
4576.611, 121586.3
4578.540, 120048.6
4580.468, 118555.7
4582.397, 117131.1
4584.325, 115763.1
4586.254, 114565.2
4588.182, 113566.8
4590.111, 112895.8
4592.039, 112171.9
4593.968, 111398.9
4595.896, 110872.5
4597.825, 110342.5
4599.753, 109754.7
4601.682, 109604.7
4603.610, 109448.8
4605.539, 108852.7
4607.467, 108682.6
4609.396, 108736.2
4611.324, 108727.1
4613.252, 108670.0
4615.181, 108589.5
4617.109, 108524.7
4619.038, 108546.1
4620.966, 108655.4
4622.895, 108762.7
4624.823, 108885.4
4626.751, 109042.3
4628.680, 109138.7
4630.608, 109285.9
4632.537, 109607.4
4634.465, 109869.9
4636.394, 110148.8
4638.322, 110690.9
4640.251, 111034.8
4642.179, 111234.4
4644.108, 111851.0
4646.036, 112319.7
4647.965, 112466.5
4649.893, 112950.5
4651.822, 113567.1
4653.750, 114215.8
4655.679, 114846.2
4657.607, 115371.6
4659.536, 115667.1
4661.464, 115959.8
4663.393, 116358.0
4665.321, 117128.4
4667.250, 117665.7
4669.178, 117987.8
4671.106, 118454.4
4673.035, 118960.5
4674.963, 119491.7
4676.892, 120227.1
4678.820, 120876.0
4680.749, 121278.5
4682.677, 121690.6
4684.605, 122197.5
4686.534, 122870.8
4688.462, 123531.7
4690.391, 124148.1
4692.319, 124731.6
4694.248, 125074.8
4696.176, 125390.1
4698.105, 126226.3
4700.033, 126918.3
4701.962, 127480.0
4703.890, 128515.2
4705.819, 129317.1
4707.747, 129745.7
4709.676, 130527.1
4711.604, 131330.3
4713.533, 132008.9
4715.461, 133100.2
4717.390, 134013.5
4719.318, 134340.9
4721.247, 134982.6
4723.175, 135700.1
4725.104, 136138.1
4727.032, 136774.3
4728.960, 137579.7
4730.889, 138515.9
4732.817, 139424.9
4734.746, 140192.7
4736.674, 140545.5
4738.603, 141014.3
4740.531, 141651.8
4742.459, 142273.8
4744.388, 142910.5
4746.316, 143567.1
4748.245, 144249.9
4750.173, 144873.6
4752.102, 145404.4
4754.030, 146199.5
4755.959, 146943.5
4757.887, 147482.4
4759.816, 148110.9
4761.744, 148805.2
4763.673, 149529.8
4765.601, 150371.8
4767.530, 151183.0
4769.458, 151772.4
4771.387, 152717.3
4773.315, 153792.6
4775.244, 154672.1
4777.172, 155417.1
4779.101, 156167.8
4781.029, 157157.9
4782.958, 158297.5
4784.886, 159403.2
4786.814, 159897.0
4788.743, 160884.3
4790.671, 162310.6
4792.600, 163258.1
4794.528, 164241.6
4796.457, 165353.9
4798.385, 166444.8
4800.313, 167658.1
4802.242, 168990.7
4804.170, 169993.2
4806.099, 171046.3
4808.027, 172283.8
4809.956, 173762.6
4811.884, 175031.8
4813.813, 175889.5
4815.741, 177049.4
4817.670, 178230.9
4819.598, 179282.0
4821.527, 179867.6
4823.455, 180456.7
4825.384, 181387.4
4827.312, 182093.4
4829.241, 182561.8
4831.169, 182780.0
4833.098, 182963.2
4835.026, 183132.3
4836.955, 183332.0
4838.883, 183356.3
4840.812, 183153.0
4842.740, 182630.8
4844.668, 182468.3
4846.597, 182412.3
4848.525, 182119.3
4850.454, 181810.6
4852.382, 181662.2
4854.311, 181928.1
4856.239, 181833.0
4858.167, 181596.5
4860.096, 181732.8
4862.024, 181285.7
4863.953, 180555.9
4865.881, 179998.0
4867.810, 179803.8
4869.738, 179668.3
4871.667, 179027.1
4873.595, 178613.0
4875.524, 178349.6
4877.452, 177978.5
4879.381, 177920.6
4881.309, 177997.9
4883.238, 177815.3
4885.166, 177690.8
4887.095, 177631.9
4889.023, 177630.7
4890.952, 177534.5
4892.880, 177391.2
4894.809, 177274.3
4896.737, 177358.9
4898.666, 177512.7
4900.594, 177464.4
4902.522, 177541.1
4904.451, 177677.9
4906.379, 177724.6
4908.308, 177705.9
4910.236, 177660.8
4912.165, 177617.4
4914.093, 177725.0
4916.021, 177773.1
4917.950, 177398.8
4919.878, 177185.3
4921.807, 177035.3
4923.735, 176627.9
4925.664, 176655.7
4927.592, 176706.6
4929.521, 176133.5
4931.449, 176015.2
4933.378, 176037.0
4935.306, 175743.5
4937.235, 175290.7
4939.163, 174799.9
4941.092, 174365.7
4943.020, 173992.3
4944.949, 173686.8
4946.877, 173462.1
4948.806, 173235.7
4950.734, 172715.5
4952.663, 171499.0
4954.591, 171027.4
4956.520, 170385.7
4958.448, 168972.3
4960.376, 168335.5
4962.305, 167722.7
4964.233, 166644.4
4966.162, 165250.7
4968.090, 164087.6
4970.019, 163420.6
4971.947, 162634.9
4973.875, 161566.3
4975.804, 160237.4
4977.732, 159331.4
4979.661, 158506.0
4981.589, 157606.0
4983.518, 156356.3
4985.446, 155248.3
4987.375, 154391.1
4989.303, 153715.3
4991.232, 152891.4
4993.160, 151929.0
4995.089, 151018.7
4997.017, 150439.3
4998.946, 149982.2
5000.874, 149064.0
5002.803, 148135.0
5004.731, 147269.9
5006.660, 146474.7
5008.588, 145703.5
5010.517, 144976.9
5012.445, 144328.3
5014.374, 143677.3
5016.302, 143058.4
5018.230, 142496.5
5020.159, 142266.8
5022.087, 142011.3
5024.016, 141405.0
5025.944, 141239.9
5027.873, 141047.4
5029.801, 140626.5
5031.729, 140195.1
5033.658, 140010.9
5035.586, 140065.6
5037.515, 139600.2
5039.443, 139233.3
5041.372, 138996.8
5043.300, 138280.9
5045.229, 137726.1
5047.157, 137338.4
5049.086, 136877.5
5051.014, 136347.6
5052.943, 135845.1
5054.871, 135567.9
5056.800, 135038.0
5058.728, 134474.8
5060.657, 134130.1
5062.585, 133489.3
5064.514, 132841.9
5066.442, 132420.7
5068.371, 131747.7
5070.299, 131238.0
5072.228, 130999.7
5074.156, 130069.2
5076.084, 129275.8
5078.013, 128757.1
5079.941, 128069.5
5081.870, 127698.7
5083.798, 127492.3
5085.727, 126860.9
5087.655, 126402.1
5089.583, 125935.9
5091.512, 125110.1
5093.440, 124450.4
5095.369, 124047.8
5097.297, 124003.1
5099.226, 123615.0
5101.154, 123085.5
5103.083, 122546.6
5105.011, 122439.2
5106.940, 122083.0
5108.868, 121501.3
5110.797, 121707.4
5112.725, 121497.0
5114.654, 120951.7
5116.582, 120753.6
5118.511, 120465.0
5120.439, 120136.3
5122.368, 119877.1
5124.296, 119638.4
5126.225, 119419.3
5128.153, 119224.5
5130.082, 119013.5
5132.010, 118625.5
5133.938, 118065.3
5135.867, 117741.2
5137.795, 117520.2
5139.724, 117310.6
5141.652, 116928.9
5143.581, 116772.0
5145.509, 116654.2
5147.438, 116194.3
5149.366, 116251.4
5151.294, 116326.4
5153.223, 116080.8
5155.151, 115889.9
5157.080, 115681.5
5159.008, 115452.0
5160.937, 115399.0
5162.865, 115321.1
5164.794, 115152.2
5166.722, 114826.9
5168.651, 114554.4
5170.579, 114373.9
5172.508, 114305.2
5174.436, 114087.5
5176.365, 113843.6
5178.293, 113653.2
5180.222, 113733.6
5182.150, 113330.6
5184.079, 112528.4
5186.007, 112307.2
5187.936, 111958.6
5189.864, 111606.1
5191.792, 111575.1
5193.721, 111746.4
5195.649, 111750.3
5197.578, 111331.8
5199.506, 111202.0
5201.435, 110988.1
5203.363, 110635.9
5205.292, 110384.2
5207.220, 110344.5
5209.148, 110328.4
5211.077, 110027.8
5213.005, 109532.3
5214.934, 109182.1
5216.862, 109204.1
5218.791, 109365.8
5220.719, 109242.4
5222.648, 108875.5
5224.576, 109005.2
5226.505, 108813.7
5228.433, 108497.7
5230.362, 108619.9
5232.290, 108475.8
5234.219, 108293.8
5236.147, 108235.9
5238.076, 108165.5
5240.004, 108016.4
5241.933, 107807.8
5243.861, 107608.5
5245.790, 107595.9
5247.718, 107655.3
5249.646, 107632.7
5251.575, 107578.9
5253.503, 107342.5
5255.432, 106947.9
5257.360, 107191.6
5259.289, 107304.7
5261.217, 107217.6
5263.146, 107165.9
5265.074, 107126.3
5267.002, 107066.0
5268.931, 106948.3
5270.859, 107103.9
5272.788, 107095.3
5274.716, 106892.0
5276.645, 106961.6
5278.573, 107042.3
5280.502, 107082.2
5282.430, 107103.8
5284.359, 106732.6
5286.287, 106552.3
5288.216, 106785.4
5290.144, 106689.1
5292.073, 106737.0
5294.001, 106840.7
5295.930, 106649.4
5297.858, 106551.1
5299.787, 106465.1
5301.715, 106314.9
5303.644, 106298.9
5305.572, 106196.7
5307.500, 106016.0
5309.429, 105933.8
5311.357, 105832.7
5313.286, 105776.4
5315.214, 105823.5
5317.143, 105952.8
5319.071, 105856.5
5321.000, 105521.0
5322.928, 105157.5
5324.856, 105093.2
5326.785, 105081.8
5328.713, 104857.4
5330.642, 104771.7
5332.570, 104556.6
5334.499, 104200.4
5336.427, 103958.8
5338.356, 103920.0
5340.284, 103857.3
5342.213, 103486.8
5344.141, 103441.8
5346.070, 103336.1
5347.998, 103093.4
5349.927, 102974.4
5351.855, 102900.0
5353.784, 102840.0
5355.712, 102778.5
5357.641, 102799.9
5359.569, 102667.7
5361.498, 102407.7
5363.426, 102459.1
5365.354, 102353.3
5367.283, 102135.1
5369.211, 101904.7
5371.140, 101872.3
5373.068, 101835.4
5374.997, 101790.4
5376.925, 101979.4
5378.854, 101740.6
5380.782, 101503.4
5382.710, 101650.1
5384.639, 101199.2
5386.567, 100853.5
5388.496, 100721.1
5390.424, 100609.2
5392.353, 100515.4
5394.281, 100433.7
5396.210, 100350.9
5398.138, 100172.9
5400.067, 100148.5
5401.995, 100134.5
5403.924, 99801.93
5405.852, 99560.69
5407.781, 99430.83
5409.709, 99373.31
5411.638, 99229.35
5413.566, 98945.45
5415.495, 98541.52
5417.423, 98055.58
5419.352, 97677.23
5421.280, 97460.26
5423.208, 97301.69
5425.137, 96912.98
5427.065, 96491.13
5428.994, 96188.84
5430.922, 96037.30
5432.851, 95296.42
5434.779, 94838.48
5436.708, 94504.18
5438.636, 93834.16
5440.564, 93566.46
5442.493, 93264.83
5444.421, 92816.53
5446.350, 92538.65
5448.278, 92259.84
5450.207, 91867.60
5452.135, 91299.20
5454.064, 90679.12
5455.992, 90166.67
5457.921, 89826.88
5459.849, 89709.13
5461.778, 89231.37
5463.706, 88757.49
5465.635, 88396.07
5467.563, 87860.96
5469.492, 87497.31
5471.420, 87264.96
5473.349, 87097.45
5475.277, 86684.80
5477.206, 86528.94
5479.134, 86376.50
5481.063, 85686.87
5482.991, 85584.55
5484.919, 85331.73
5486.848, 84837.05
5488.776, 84718.88
5490.705, 84364.68
5492.633, 83969.21
5494.562, 83684.41
5496.490, 83349.71
5498.418, 83157.57
5500.347, 82984.43
5502.275, 82655.15
5504.204, 82305.77
5506.132, 82135.98
5508.061, 82085.45
5509.989, 81957.51
5511.918, 81613.29
5513.846, 81340.35
5515.775, 81186.48
5517.703, 80823.38
5519.632, 80623.56
5521.560, 80517.43
5523.489, 80428.85
5525.417, 80363.79
5527.346, 80227.16
5529.274, 80060.36
5531.203, 79924.31
5533.131, 79757.45
5535.060, 79525.09
5536.988, 79280.80
5538.917, 79116.41
5540.845, 78818.02
5542.773, 78741.78
5544.702, 78781.34
5546.630, 78195.69
5548.559, 78098.73
5550.487, 77957.95
5552.416, 77567.54
5554.344, 77585.84
5556.272, 77076.80
5558.201, 76642.05
5560.129, 76693.42
5562.058, 76272.88
5563.986, 75900.55
5565.915, 75738.14
5567.843, 75782.23
5569.772, 75381.96
5571.700, 74902.26
5573.629, 74568.63
5575.557, 74547.31
5577.486, 74104.68
5579.414, 73955.58
5581.343, 73978.66
5583.271, 73520.98
5585.200, 73155.96
5587.128, 73024.87
5589.057, 72990.61
5590.985, 72676.49
5592.914, 72339.27
5594.842, 72082.57
5596.771, 71918.53
5598.699, 71799.17
5600.627, 71621.02
5602.556, 71360.05
5604.484, 71055.98
5606.413, 70917.97
5608.341, 70680.50
5610.270, 70481.47
5612.198, 70386.73
5614.126, 70204.90
5616.055, 70037.45
5617.983, 69750.05
5619.912, 69305.85
5621.840, 69110.73
5623.769, 69052.26
5625.697, 68917.84
5627.626, 68608.97
5629.554, 68406.85
5631.483, 68294.18
5633.411, 68190.91
5635.340, 68044.04
5637.268, 67978.14
5639.197, 67631.51
5641.125, 67284.32
5643.054, 67214.08
5644.982, 66906.29
5646.911, 66766.19
5648.839, 66743.87
5650.768, 66697.75
5652.696, 66396.88
5654.625, 66132.55
5656.553, 66008.48
5658.481, 66024.73
5660.410, 65900.13
5662.338, 65692.56
5664.267, 65496.54
5666.195, 65365.76
5668.124, 65130.88
5670.052, 64992.21
5671.980, 64883.68
5673.909, 64721.73
5675.837, 64637.11
5677.766, 64364.23
5679.694, 64089.01
5681.623, 63983.82
5683.551, 63878.63
5685.480, 63697.96
5687.408, 63545.85
5689.337, 63455.46
5691.265, 63081.84
5693.194, 62995.92
5695.122, 62942.54
5697.051, 62739.05
5698.979, 62653.04
5700.908, 62268.86
5702.836, 62017.49
5704.765, 62077.75
5706.693, 62074.08
5708.622, 61866.39
5710.550, 61592.30
5712.479, 61381.16
5714.407, 61486.91
5716.335, 61016.67
5718.264, 60751.35
5720.192, 60828.59
5722.121, 60766.76
5724.049, 60569.59
5725.978, 60484.17
5727.906, 60384.82
5729.834, 59951.31
5731.763, 59777.16
5733.691, 59687.08
5735.620, 59606.19
5737.548, 59517.45
5739.477, 59263.61
5741.405, 59120.85
5743.334, 59002.09
5745.262, 58781.30
5747.191, 58609.18
5749.119, 58471.95
5751.048, 58344.05
5752.976, 58207.16
5754.905, 58067.20
5756.833, 57726.05
5758.762, 57573.00
5760.690, 57659.98
5762.619, 57503.24
5764.547, 57299.47
5766.476, 57058.24
5768.404, 56815.01
5770.333, 56634.64
5772.261, 56526.16
5774.189, 56419.97
5776.118, 56232.82
5778.046, 55923.97
5779.975, 55850.46
5781.903, 55750.52
5783.832, 55584.06
5785.760, 55385.76
5787.688, 55273.10
5789.617, 55101.81
5791.545, 54938.76
5793.474, 54814.70
5795.402, 54680.17
5797.331, 54537.72
5799.259, 54305.41
5801.188, 54043.93
5803.116, 53911.51
5805.045, 53794.80
5806.973, 53659.41
5808.902, 53488.64
5810.830, 53286.86
5812.759, 53224.67
5814.687, 52914.27
5816.616, 52652.77
5818.544, 52556.10
5820.473, 52297.87
5822.401, 52201.39
5824.330, 52143.79
5826.258, 52000.92
5828.187, 51700.73
5830.115, 51553.33
5832.043, 51434.22
5833.972, 51228.84
5835.900, 50918.18
5837.829, 50781.00
5839.757, 50623.58
5841.686, 50400.28
5843.614, 50168.17
5845.542, 50116.88
5847.471, 49914.40
5849.399, 49633.04
5851.328, 49422.28
5853.256, 49409.93
5855.185, 49274.48
5857.113, 49152.09
5859.042, 48973.09
5860.970, 48720.66
5862.899, 48549.32
5864.827, 48264.21
5866.756, 48082.16
5868.684, 48000.17
5870.613, 47893.66
5872.541, 47645.57
5874.470, 47363.24
5876.398, 47134.78
5878.327, 47000.14
5880.255, 46935.11
5882.184, 46844.11
5884.112, 46646.00
5886.041, 46351.15
5887.969, 46025.05
5889.897, 45924.23
5891.826, 45842.26
5893.754, 45738.18
5895.683, 45587.51
5897.611, 45294.89
5899.540, 45208.05
5901.468, 45139.79
5903.396, 45004.88
5905.325, 44816.00
5907.253, 44727.77
5909.182, 44480.91
5911.110, 44326.98
5913.039, 44321.65
5914.967, 44106.83
5916.896, 43948.49
5918.824, 43751.71
5920.753, 43552.86
5922.681, 43406.45
5924.610, 43130.78
5926.538, 42963.59
5928.467, 42927.00
5930.395, 42895.56
5932.324, 42601.16
5934.252, 42510.31
5936.181, 42222.20
5938.109, 41927.78
5940.038, 41808.35
5941.966, 41806.43
5943.895, 41669.49
5945.823, 41497.36
5947.751, 41313.93
5949.680, 41103.40
5951.608, 40918.35
5953.537, 40666.91
5955.465, 40573.70
5957.394, 40552.89
5959.322, 40266.19
5961.250, 40231.06
5963.179, 39969.18
5965.107, 39806.08
5967.036, 39845.40
5968.964, 39517.65
5970.893, 39323.92
5972.821, 39299.99
5974.750, 39245.67
5976.678, 39019.29
5978.607, 38824.89
5980.535, 38666.92
5982.464, 38590.78
5984.392, 38545.84
5986.321, 38433.67
5988.249, 38092.38
5990.178, 37885.49
5992.106, 37684.36
5994.035, 37481.43
5995.963, 37405.90
5997.892, 37343.56
5999.820, 37284.53
6001.749, 37140.55
6003.677, 36902.34
6005.605, 36668.45
6007.534, 36696.69
6009.462, 36474.57
6011.391, 36197.67
6013.319, 36065.21
6015.248, 35989.19
6017.176, 35799.31
6019.104, 35645.43
6021.033, 35585.30
6022.961, 35580.67
6024.890, 35472.56
6026.818, 35324.04
6028.747, 35132.52
6030.675, 34967.40
6032.604, 34863.49
6034.532, 34699.06
6036.461, 34534.40
6038.389, 34437.16
6040.318, 34320.99
6042.246, 34124.94
6044.175, 34079.36
6046.103, 33869.96
6048.032, 33725.59
6049.960, 33641.49
6051.889, 33534.40
6053.817, 33505.19
6055.746, 33434.67
6057.674, 33143.98
6059.603, 32855.86
6061.531, 32781.17
6063.459, 32545.62
6065.388, 32631.04
6067.316, 32430.03
6069.245, 32117.20
6071.173, 32032.87
6073.102, 31948.63
6075.030, 31921.99
6076.958, 31735.87
6078.887, 31540.40
6080.815, 31485.08
6082.744, 31373.13
6084.672, 31190.57
6086.601, 31171.58
6088.529, 31092.50
6090.458, 30828.40
6092.386, 30753.77
6094.315, 30661.11
6096.243, 30555.30
6098.172, 30367.37
6100.100, 30151.12
6102.029, 30177.90
6103.957, 30095.02
6105.886, 30014.56
6107.814, 29752.25
6109.743, 29434.97
6111.671, 29515.95
6113.600, 29454.38
6115.528, 29300.98
6117.457, 29189.29
6119.385, 29075.70
6121.313, 28857.10
6123.242, 28897.34
6125.170, 28799.65
6127.099, 28758.69
6129.027, 28657.70
6130.956, 28367.89
6132.884, 28346.00
6134.813, 28288.19
6136.741, 28165.72
6138.669, 28004.84
6140.598, 27811.75
6142.526, 27546.20
6144.455, 27593.36
6146.383, 27620.03
6148.312, 27507.02
6150.240, 27318.74
6152.169, 27198.09
6154.097, 27155.40
6156.026, 27033.73
6157.954, 26903.59
6159.883, 26788.35
6161.811, 26671.31
6163.740, 26561.64
6165.668, 26639.93
6167.597, 26490.54
6169.525, 26263.55
6171.454, 26196.28
6173.382, 26302.84
6175.311, 26019.35
6177.239, 25889.52
6179.167, 25681.06
6181.096, 25472.59
6183.024, 25524.70
6184.953, 25423.23
6186.881, 25355.15
6188.810, 25226.38
6190.738, 25127.04
6192.667, 25075.64
6194.595, 24860.16
6196.523, 24829.95
6198.452, 24732.19
6200.380, 24608.03
6202.309, 24507.70
6204.237, 24419.43
6206.166, 24229.26
6208.094, 24272.79
6210.023, 24030.76
6211.951, 23883.37
6213.880, 24025.61
6215.808, 23972.63
6217.737, 23656.04
6219.665, 23674.53
6221.594, 23641.59
6223.522, 23480.66
6225.451, 23342.75
6227.379, 23196.33
6229.308, 23179.32
6231.236, 23038.79
6233.165, 22934.80
6235.093, 22901.17
6237.021, 22787.88
6238.950, 22643.25
6240.878, 22634.64
6242.807, 22430.30
6244.735, 22300.08
6246.664, 22344.06
6248.592, 22151.09
6250.521, 22051.37
6252.449, 22175.33
6254.377, 21989.14
6256.306, 21709.42
6258.234, 21639.69
6260.163, 21476.77
6262.091, 21616.05
6264.020, 21390.29
6265.948, 21313.91
6267.877, 21392.41
6269.805, 21280.73
6271.734, 20992.84
6273.662, 20922.17
6275.591, 20998.34
6277.519, 20927.26
6279.448, 20728.85
6281.376, 20617.11
6283.305, 20618.54
6285.233, 20550.69
6287.162, 20349.64
6289.090, 20262.94
6291.019, 20241.34
6292.947, 20050.55
6294.875, 19959.55
6296.804, 19818.42
6298.732, 19794.55
6300.661, 19756.72
6302.589, 19638.37
6304.518, 19494.28
6306.446, 19309.28
6308.375, 19245.02
6310.303, 19261.12
6312.231, 19135.25
6314.160, 18957.65
6316.088, 18955.53
6318.017, 18907.03
6319.945, 18813.13
6321.874, 18691.05
6323.802, 18576.10
6325.731, 18475.88
6327.659, 18396.33
6329.588, 18396.79
6331.516, 18321.26
6333.445, 18213.05
6335.373, 18142.13
6337.302, 18026.69
6339.230, 17834.81
6341.159, 17820.21
6343.087, 17781.61
6345.016, 17649.79
6346.944, 17541.41
6348.873, 17413.63
6350.801, 17282.90
6352.729, 17402.88
6354.658, 17259.43
6356.586, 17290.08
6358.515, 17194.76
6360.443, 16999.47
6362.372, 16895.36
6364.300, 16973.20
6366.229, 16794.28
6368.157, 16666.16
6370.085, 16575.32
6372.014, 16510.76
6373.942, 16462.42
6375.871, 16412.04
6377.799, 16339.73
6379.728, 16150.78
6381.656, 16079.03
6383.585, 16100.11
6385.513, 16111.15
6387.442, 16045.60
6389.370, 15908.51
6391.299, 15823.93
6393.227, 15762.60
6395.156, 15715.78
6397.084, 15637.57
6399.013, 15561.40
6400.941, 15535.31
6402.870, 15457.94
6404.798, 15378.60
6406.727, 15375.25
6408.655, 15231.45
6410.583, 15123.99
6412.512, 15142.45
6414.440, 15083.11
6416.369, 14910.65
6418.297, 14827.87
6420.226, 14779.30
6422.154, 14768.51
6424.083, 14700.55
6426.011, 14512.27
6427.939, 14331.56
6429.868, 14363.15
6431.796, 14366.27
6433.725, 14253.29
6435.653, 14159.67
6437.582, 14153.95
6439.510, 14179.03
6441.439, 14116.51
6443.367, 13886.85
6445.296, 13851.73
6447.224, 13826.83
6449.153, 13793.30
6451.081, 13748.78
6453.010, 13636.01
6454.938, 13454.98
6456.867, 13483.18
6458.795, 13468.66
6460.724, 13349.53
6462.652, 13278.13
6464.581, 13253.37
6466.509, 13157.68
6468.438, 13198.71
6470.366, 13054.33
6472.294, 12950.70
6474.223, 12903.95
6476.151, 12934.17
6478.080, 12936.12
6480.008, 12785.36
6481.937, 12706.80
6483.865, 12636.80
6485.793, 12590.81
6487.722, 12550.37
6489.650, 12527.39
6491.579, 12444.97
6493.507, 12289.18
6495.436, 12331.19
6497.364, 12269.15
6499.293, 12165.28
6501.221, 12002.03
6503.150, 11998.26
6505.078, 12031.32
6507.007, 11943.36
6508.935, 12018.51
6510.864, 11904.30
6512.792, 11848.59
6514.721, 11728.44
6516.649, 11692.87
6518.578, 11688.42
6520.506, 11638.99
6522.435, 11601.17
6524.363, 11493.37
6526.292, 11359.15
6528.220, 11421.99
6530.148, 11317.93
6532.077, 11245.87
6534.005, 11237.31
6535.934, 11127.07
6537.862, 11142.51
6539.791, 11101.18
6541.719, 11059.85
6543.647, 11051.96
6545.576, 10966.81
6547.504, 10896.37
6549.433, 10888.70
6551.361, 10804.02
6553.290, 10680.13
6555.218, 10625.73
6557.147, 10585.68
6559.075, 10459.13
6561.004, 10355.59
6562.932, 10336.21
6564.861, 10322.53
6566.789, 10164.41
6568.718, 10098.80
6570.646, 10067.46
6572.575, 9977.233
6574.503, 9889.636
6576.432, 9854.097
6578.360, 9851.313
6580.289, 9751.164
6582.217, 9573.053
6584.146, 9511.464
6586.074, 9528.779
6588.002, 9428.099
6589.931, 9330.796
6591.859, 9257.021
6593.788, 9230.517
6595.716, 9110.743
6597.645, 9024.239
6599.573, 9018.364
6601.501, 8936.016
6603.430, 8864.968
6605.358, 8791.091
6607.287, 8722.673
6609.215, 8679.461
6611.144, 8642.788
6613.072, 8597.004
6615.001, 8517.112
6616.929, 8417.612
6618.858, 8349.202
6620.786, 8310.481
6622.715, 8287.217
6624.643, 8268.563
6626.572, 8257.204
6628.500, 8149.473
6630.429, 8152.800
##END=



