##NAMES=Grossular
##RRUFFID=R040065
##IDEAL CHEMISTRY=Ca_3_Al_2_(SiO_4_)_3_
##LOCALITY=Feng Tien mine, Taiwan
##OWNER=RRUFF
##SOURCE=University of Arizona Mineral Museum
##DESCRIPTION=Orange-brown trapezohedral crystals
##STATUS=The identification of this mineral has been confirmed by X-ray diffraction and chemical analysis
##URL=https://www.rruff.net/odr/rruff_sample/R040065
##MEASURED CHEMISTRY=(Ca_2.90_Fe^2+^_0.05_Mn_0.05_)(Al_1.95_Fe^3+^_0.03_Ti_0.02_)((Si_0.99_Al_0.01_)O_4_)_3_
##DIFFRACTION SAMPLE DESCRIPTION=Powder
##CELL PARAMETERS=a: 11.8517 b: 11.8517 c: 11.8517 alpha: 90 beta: 90 gamma: 90 volume: 1664.75 crystal system: cubic
##FILETYPE=Raman RAW
##RAMAN WAVELENGTH=532

136.1880, 34.35004
138.1165, 36.88048
140.0449, 39.48359
141.9734, 42.08846
143.9019, 44.94474
145.8303, 48.90682
147.7588, 53.46270
149.6873, 56.22729
151.6157, 55.26397
153.5442, 53.36065
155.4727, 52.89370
157.4011, 54.14597
159.3296, 55.94259
161.2581, 57.97395
163.1865, 60.29921
165.1150, 62.65550
167.0435, 63.14529
168.9719, 64.17233
170.9004, 69.34682
172.8289, 82.16357
174.7573, 95.26612
176.6858, 105.8463
178.6143, 115.2285
180.5427, 119.3132
182.4712, 115.1918
184.3997, 105.1163
186.3281, 95.08215
188.2566, 83.64404
190.1851, 73.65061
192.1135, 67.58900
194.0420, 67.68480
195.9705, 67.60994
197.8989, 64.96963
199.8274, 60.02134
201.7559, 57.85607
203.6843, 61.60324
205.6128, 67.06049
207.5413, 69.06097
209.4697, 65.54939
211.3982, 62.47446
213.3267, 62.08585
215.2551, 65.49451
217.1836, 68.07027
219.1121, 68.76259
221.0405, 68.78177
222.9690, 69.93266
224.8975, 71.63060
226.8259, 75.38639
228.7544, 81.67667
230.6829, 92.00906
232.6113, 102.9382
234.5398, 114.9302
236.4683, 127.5382
238.3967, 139.8947
240.3252, 154.0436
242.2537, 166.1291
244.1821, 174.5489
246.1106, 180.8137
248.0391, 180.3725
249.9675, 167.3114
251.8960, 145.6117
253.8245, 127.7172
255.7529, 114.4297
257.6814, 105.1530
259.6099, 100.8677
261.5384, 102.7478
263.4668, 105.5749
265.3953, 106.8046
267.3238, 106.5370
269.2522, 111.5010
271.1807, 126.8127
273.1092, 144.1306
275.0376, 157.3843
276.9661, 168.4377
278.8946, 172.0794
280.8230, 164.7897
282.7515, 145.2233
284.6800, 129.1141
286.6084, 116.2552
288.5369, 106.6158
290.4654, 100.3117
292.3938, 98.71200
294.3223, 97.39786
296.2508, 94.41108
298.1792, 89.20793
300.1077, 86.96073
302.0362, 89.96931
303.9646, 94.67659
305.8931, 97.76676
307.8216, 97.87558
309.7500, 98.63495
311.6785, 101.6491
313.6070, 107.3404
315.5354, 110.9481
317.4639, 109.4120
319.3924, 107.3274
321.3208, 108.5450
323.2493, 116.1970
325.1778, 122.9358
327.1062, 127.3234
329.0347, 129.0701
330.9632, 129.7132
332.8916, 127.5592
334.8201, 125.3192
336.7486, 125.1369
338.6770, 128.5292
340.6055, 132.3526
342.5340, 136.1028
344.4624, 139.8391
346.3909, 143.8629
348.3194, 145.7380
350.2478, 149.6651
352.1763, 158.3973
354.1048, 168.5767
356.0332, 188.5459
357.9617, 218.2902
359.8902, 259.0710
361.8186, 312.3391
363.7471, 383.6638
365.6756, 464.7678
367.6040, 550.3547
369.5325, 682.4047
371.4610, 770.3184
373.3894, 807.8671
375.3179, 796.1288
377.2464, 743.8601
379.1748, 608.1710
381.1033, 467.4599
383.0318, 358.2202
384.9602, 296.1568
386.8887, 244.8935
388.8172, 206.4266
390.7456, 179.3044
392.6741, 159.7141
394.6026, 151.4593
396.5310, 147.4892
398.4595, 145.5446
400.3880, 146.0588
402.3164, 148.1386
404.2449, 151.2742
406.1734, 156.3749
408.1018, 164.5744
410.0303, 180.3709
411.9588, 193.4956
413.8872, 202.7975
415.8157, 207.8903
417.7442, 204.9035
419.6726, 185.4333
421.6011, 162.4265
423.5296, 145.7241
425.4580, 138.4989
427.3865, 132.9501
429.3150, 127.9300
431.2434, 123.5190
433.1719, 119.7330
435.1004, 115.9254
437.0288, 113.4861
438.9573, 113.2531
440.8858, 116.5767
442.8142, 118.7812
444.7427, 118.2824
446.6712, 116.5774
448.5996, 117.0093
450.5281, 121.5308
452.4566, 125.1726
454.3851, 125.8170
456.3135, 122.8741
458.2420, 120.3551
460.1705, 117.3933
462.0989, 115.3259
464.0274, 115.9683
465.9559, 120.2920
467.8843, 124.2043
469.8128, 125.5296
471.7413, 124.7400
473.6697, 126.4478
475.5982, 134.0308
477.5267, 141.2415
479.4551, 144.3674
481.3836, 143.3634
483.3121, 141.6663
485.2405, 139.3009
487.1690, 136.8366
489.0975, 135.1319
491.0259, 133.6334
492.9544, 133.4936
494.8829, 134.9448
496.8113, 138.0235
498.7398, 142.8770
500.6683, 150.4536
502.5967, 159.2501
504.5252, 168.4968
506.4537, 181.5241
508.3821, 190.0704
510.3106, 193.5763
512.2391, 192.0518
514.1675, 186.1864
516.0960, 170.9461
518.0245, 159.0576
519.9529, 156.0705
521.8814, 164.4603
523.8099, 169.3505
525.7383, 168.3770
527.6668, 165.8177
529.5953, 164.5288
531.5237, 163.9385
533.4522, 166.2621
535.3807, 169.4662
537.3091, 175.3884
539.2376, 190.9180
541.1661, 224.2762
543.0945, 258.2392
545.0230, 293.6663
546.9515, 329.1239
548.8799, 344.1205
550.8084, 318.4391
552.7369, 280.6473
554.6653, 248.1523
556.5938, 222.4049
558.5223, 201.0791
560.4507, 183.5806
562.3792, 171.1351
564.3077, 165.1925
566.2361, 170.3385
568.1646, 175.2849
570.0931, 175.2878
572.0215, 169.4958
573.9500, 166.9753
575.8785, 170.4909
577.8069, 174.9538
579.7354, 176.6283
581.6639, 175.0712
583.5923, 174.5359
585.5208, 177.1379
587.4493, 181.0013
589.3777, 183.3535
591.3062, 183.3185
593.2347, 182.7642
595.1631, 181.7171
597.0916, 180.2899
599.0201, 178.9320
600.9485, 177.7724
602.8770, 176.5700
604.8055, 174.9897
606.7339, 172.4026
608.6624, 171.4925
610.5909, 172.2338
612.5193, 174.6517
614.4478, 179.0018
616.3763, 185.7913
618.3047, 192.4115
620.2332, 197.6428
622.1617, 202.1888
624.0901, 207.8055
626.0186, 218.8637
627.9471, 226.3942
629.8755, 226.2095
631.8040, 219.8329
633.7325, 214.6042
635.6609, 211.9808
637.5894, 210.0146
639.5179, 207.6023
641.4464, 204.1651
643.3748, 201.5386
645.3033, 200.3673
647.2318, 199.4722
649.1602, 197.1311
651.0887, 192.3552
653.0172, 189.6636
654.9456, 192.7037
656.8741, 198.4657
658.8026, 200.7613
660.7310, 195.3255
662.6595, 191.2408
664.5880, 190.5416
666.5164, 192.9823
668.4449, 196.4767
670.3734, 202.1390
672.3018, 207.3531
674.2303, 211.1768
676.1588, 213.6401
678.0872, 214.0100
680.0157, 210.5444
681.9442, 206.3651
683.8726, 203.7741
685.8011, 202.6667
687.7296, 203.0602
689.6580, 206.3058
691.5865, 210.5869
693.5150, 213.8123
695.4434, 215.1624
697.3719, 216.6324
699.3004, 218.8938
701.2288, 221.4467
703.1573, 222.8597
705.0858, 222.0964
707.0142, 221.9762
708.9427, 223.6999
710.8712, 227.0112
712.7996, 230.8501
714.7281, 237.5824
716.6566, 242.6504
718.5850, 243.2722
720.5135, 238.4954
722.4420, 236.6414
724.3704, 240.4023
726.2989, 244.9976
728.2274, 247.2189
730.1558, 246.5356
732.0843, 247.0094
734.0128, 251.3424
735.9412, 255.8374
737.8697, 256.6680
739.7982, 250.7735
741.7266, 247.7016
743.6551, 249.9322
745.5836, 255.0261
747.5120, 259.9495
749.4405, 264.7052
751.3690, 269.2780
753.2974, 273.5774
755.2259, 277.7269
757.1544, 282.0605
759.0828, 286.4162
761.0113, 291.0829
762.9398, 296.7577
764.8682, 302.7943
766.7967, 307.2962
768.7252, 308.6673
770.6536, 310.7414
772.5821, 315.8344
774.5106, 323.9509
776.4390, 329.0227
778.3675, 327.8564
780.2960, 326.9887
782.2244, 330.5626
784.1529, 337.9682
786.0814, 341.6785
788.0098, 337.4662
789.9383, 332.9767
791.8668, 332.1802
793.7952, 335.6198
795.7237, 340.4445
797.6522, 344.9456
799.5806, 351.8198
801.5091, 363.2864
803.4376, 379.7172
805.3660, 398.2373
807.2945, 418.2258
809.2230, 440.5680
811.1514, 464.8864
813.0799, 490.1342
815.0084, 521.3914
816.9368, 564.4069
818.8653, 610.1744
820.7938, 652.0980
822.7223, 696.2360
824.6508, 721.9983
826.5792, 721.5291
828.5077, 703.5118
830.4362, 676.0355
832.3646, 634.3215
834.2931, 598.9980
836.2216, 575.0848
838.1500, 559.3877
840.0785, 548.4678
842.0070, 544.7358
843.9354, 542.9309
845.8639, 545.1131
847.7924, 548.4267
849.7208, 547.7444
851.6493, 540.3937
853.5778, 537.4624
855.5062, 541.2935
857.4347, 551.6451
859.3632, 568.7776
861.2916, 590.7433
863.2201, 623.1622
865.1486, 656.5695
867.0770, 703.0013
869.0055, 787.3745
870.9340, 917.5558
872.8624, 1059.848
874.7909, 1237.431
876.7194, 1412.936
878.6478, 1527.175
880.5763, 1581.698
882.5048, 1564.457
884.4332, 1441.852
886.3617, 1256.186
888.2902, 1090.393
890.2186, 939.7409
892.1471, 814.2015
894.0756, 721.2256
896.0040, 655.0727
897.9325, 605.0017
899.8610, 574.9194
901.7894, 551.6835
903.7179, 532.4592
905.6464, 517.0968
907.5748, 505.6393
909.5033, 498.9104
911.4318, 495.3611
913.3602, 497.8555
915.2887, 502.5768
917.2172, 503.0839
919.1456, 497.9464
921.0741, 494.0632
923.0026, 495.9939
924.9310, 499.1506
926.8595, 497.2583
928.7880, 486.0003
930.7164, 479.5395
932.6449, 482.9146
934.5734, 490.1016
936.5018, 493.5976
938.4303, 491.7841
940.3588, 490.5487
942.2872, 491.1487
944.2157, 492.2866
946.1442, 492.4975
948.0726, 491.4821
950.0011, 491.7708
951.9296, 494.7138
953.8580, 498.6595
955.7865, 502.8656
957.7150, 508.7901
959.6434, 511.1372
961.5719, 505.6030
963.5004, 499.9391
965.4288, 500.6157
967.3573, 507.6484
969.2858, 513.4727
971.2142, 515.1881
973.1427, 517.6727
975.0712, 524.8471
976.9996, 536.8395
978.9281, 544.8416
980.8566, 544.8000
982.7850, 543.8928
984.7135, 544.2127
986.6420, 545.8483
988.5704, 549.3537
990.4989, 555.8534
992.4274, 563.0436
994.3558, 568.6402
996.2843, 574.4184
998.2128, 585.9357
1000.141, 607.7190
1002.070, 627.0980
1003.998, 639.1981
1005.927, 645.6829
1007.855, 650.8875
1009.784, 657.8941
1011.712, 658.7281
1013.641, 648.7714
1015.569, 633.2890
1017.497, 620.4973
1019.426, 610.2796
1021.354, 602.7300
1023.283, 597.8774
1025.211, 596.0734
1027.140, 597.7532
1029.068, 603.3564
1030.997, 609.5214
1032.925, 619.2295
1034.854, 626.2430
1036.782, 625.1232
1038.711, 612.8611
1040.639, 606.6219
1042.568, 610.3633
1044.496, 615.6831
1046.424, 618.7020
1048.353, 619.9512
1050.281, 622.4650
1052.210, 627.2664
1054.138, 632.0881
1056.067, 636.0923
1057.995, 639.3880
1059.924, 641.9727
1061.852, 642.5762
1063.781, 644.4149
1065.709, 648.3466
1067.638, 653.5687
1069.566, 659.0558
1071.495, 665.6097
1073.423, 670.8541
1075.351, 674.6692
1077.280, 677.1724
1079.208, 677.6050
1081.137, 675.9656
1083.065, 676.4965
1084.994, 681.2975
1086.922, 686.8617
1088.851, 692.0284
1090.779, 696.7709
1092.708, 699.1591
1094.636, 695.9286
1096.565, 694.2288
1098.493, 697.3104
1100.422, 703.4899
1102.350, 707.1672
1104.278, 706.9473
1106.207, 706.4840
1108.135, 702.9764
1110.064, 701.0809
1111.992, 708.0104
1113.921, 725.1516
1115.849, 738.5336
1117.778, 743.4996
1119.706, 745.2545
1121.635, 747.0379
1123.563, 748.9635
1125.492, 750.0925
1127.420, 748.1049
1129.349, 747.8987
1131.277, 752.5626
1133.205, 760.7147
1135.134, 765.8381
1137.062, 763.6009
1138.991, 765.1131
1140.919, 776.6646
1142.848, 791.0095
1144.776, 797.4575
1146.705, 794.4823
1148.633, 795.9739
1150.562, 809.8589
1152.490, 824.2305
1154.419, 831.0400
1156.347, 830.1398
1158.276, 830.1559
1160.204, 831.9094
1162.132, 834.2840
1164.061, 837.1395
1165.989, 840.3900
1167.918, 843.8002
1169.846, 848.0134
1171.775, 851.4517
1173.703, 853.8644
1175.632, 855.4221
1177.560, 855.5001
1179.489, 853.8965
1181.417, 854.7223
1183.346, 860.9847
1185.274, 866.8336
1187.203, 869.1589
1189.131, 868.5245
1191.059, 866.8593
1192.988, 861.3925
1194.916, 860.4804
1196.845, 868.1880
1198.773, 880.6089
1200.702, 892.4174
1202.630, 905.6511
1204.559, 913.6326
1206.487, 910.1956
1208.416, 906.5649
1210.344, 911.0410
1212.273, 922.8240
1214.201, 931.1474
1216.130, 935.2148
1218.058, 937.2540
1219.986, 936.5228
1221.915, 935.2327
1223.843, 935.9618
1225.772, 938.4924
1227.700, 944.8149
1229.629, 961.6693
1231.557, 976.7641
1233.486, 980.8343
1235.414, 972.9478
1237.343, 970.1180
1239.271, 976.9216
1241.200, 983.3061
1243.128, 985.3929
1245.057, 985.9371
1246.985, 990.5742
1248.913, 1001.509
1250.842, 1010.348
1252.770, 1015.996
1254.699, 1019.683
1256.627, 1021.095
1258.556, 1021.076
1260.484, 1023.747
1262.413, 1031.105
1264.341, 1038.242
1266.270, 1043.014
1268.198, 1046.600
1270.127, 1050.157
1272.055, 1053.378
1273.984, 1057.165
1275.912, 1063.595
1277.840, 1068.426
1279.769, 1067.349
1281.697, 1061.824
1283.626, 1063.028
1285.554, 1081.176
1287.483, 1092.857
1289.411, 1090.009
1291.340, 1082.812
1293.268, 1082.174
1295.197, 1088.929
1297.125, 1096.133
1299.054, 1102.798
1300.982, 1110.769
1302.911, 1122.552
1304.839, 1135.945
1306.767, 1146.830
1308.696, 1155.474
1310.624, 1160.425
1312.553, 1156.757
1314.481, 1153.518
1316.410, 1158.035
1318.338, 1169.108
1320.267, 1175.787
1322.195, 1174.262
1324.124, 1173.580
1326.052, 1176.125
1327.981, 1180.776
1329.909, 1186.182
1331.838, 1192.251
1333.766, 1200.249
1335.694, 1215.150
1337.623, 1226.437
1339.551, 1227.078
1341.480, 1221.233
1343.408, 1220.027
1345.337, 1224.134
1347.265, 1229.902
1349.194, 1240.292
1351.122, 1249.044
1353.051, 1248.575
1354.979, 1242.445
1356.908, 1247.116
1358.836, 1270.541
1360.765, 1286.202
1362.693, 1278.173
1364.621, 1264.695
1366.550, 1261.439
1368.478, 1268.079
1370.407, 1276.225
1372.335, 1286.469
1374.264, 1295.357
1376.192, 1301.039
1378.121, 1304.595
1380.049, 1307.052
1381.978, 1307.277
1383.906, 1309.885
1385.835, 1317.176
1387.763, 1324.518
1389.692, 1331.741
1391.620, 1337.864
1393.548, 1340.077
1395.477, 1334.035
1397.405, 1332.845
1399.334, 1340.865
1401.262, 1349.613
1403.191, 1354.287
1405.119, 1355.736
1407.048, 1357.039
1408.976, 1356.237
1410.905, 1359.991
1412.833, 1378.037
1414.762, 1393.609
1416.690, 1388.254
1418.619, 1369.289
1420.547, 1367.593
1422.475, 1391.879
1424.404, 1412.284
1426.332, 1414.475
1428.261, 1413.622
1430.189, 1421.950
1432.118, 1437.880
1434.046, 1452.162
1435.975, 1466.280
1437.903, 1473.398
1439.832, 1464.995
1441.760, 1453.867
1443.689, 1451.193
1445.617, 1457.334
1447.546, 1464.117
1449.474, 1473.788
1451.402, 1480.499
1453.331, 1481.661
1455.259, 1480.150
1457.188, 1477.429
1459.116, 1472.426
1461.045, 1473.124
1462.973, 1484.074
1464.902, 1494.123
1466.830, 1500.726
1468.759, 1505.556
1470.687, 1510.102
1472.616, 1514.340
1474.544, 1520.224
1476.473, 1530.870
1478.401, 1539.556
1480.329, 1543.500
1482.258, 1545.915
1484.186, 1551.196
1486.115, 1559.445
1488.043, 1562.490
1489.972, 1553.837
1491.900, 1549.843
1493.829, 1558.949
1495.757, 1571.968
1497.686, 1579.950
1499.614, 1583.410
1501.543, 1585.159
1503.471, 1584.402
1505.400, 1584.794
1507.328, 1586.286
1509.256, 1590.667
1511.185, 1600.658
1513.113, 1615.060
1515.042, 1628.025
1516.970, 1639.682
1518.899, 1647.099
1520.827, 1648.294
1522.756, 1645.254
1524.684, 1636.653
1526.613, 1624.885
1528.541, 1621.466
1530.470, 1630.220
1532.398, 1638.093
1534.327, 1639.977
1536.255, 1642.502
1538.183, 1651.353
1540.112, 1664.257
1542.040, 1671.157
1543.969, 1669.431
1545.897, 1669.671
1547.826, 1675.872
1549.754, 1681.916
1551.683, 1683.342
1553.611, 1683.000
1555.540, 1688.359
1557.468, 1701.736
1559.397, 1712.375
1561.325, 1718.614
1563.254, 1722.572
1565.182, 1722.322
1567.111, 1721.233
1569.039, 1724.711
1570.968, 1734.004
1572.896, 1742.532
1574.824, 1750.815
1576.753, 1758.172
1578.681, 1765.234
1580.610, 1771.051
1582.538, 1773.506
1584.467, 1772.598
1586.395, 1774.768
1588.324, 1786.329
1590.252, 1791.191
1592.181, 1779.807
1594.109, 1769.214
1596.038, 1772.384
1597.966, 1785.693
1599.895, 1795.813
1601.823, 1802.782
1603.751, 1807.130
1605.680, 1806.030
1607.608, 1806.115
1609.537, 1808.071
1611.465, 1813.703
1613.394, 1828.740
1615.322, 1856.868
1617.251, 1870.784
1619.179, 1857.981
1621.108, 1847.527
1623.036, 1845.253
1624.965, 1847.856
1626.893, 1854.021
1628.822, 1863.461
1630.750, 1871.976
1632.678, 1880.659
1634.607, 1887.740
1636.535, 1893.443
1638.464, 1897.664
1640.392, 1899.194
1642.321, 1899.212
1644.249, 1900.321
1646.178, 1902.704
1648.106, 1903.122
1650.035, 1898.455
1651.963, 1895.624
1653.892, 1895.135
1655.820, 1898.369
1657.749, 1911.181
1659.677, 1931.311
1661.605, 1937.550
1663.534, 1920.277
1665.462, 1912.995
1667.391, 1926.761
1669.319, 1942.469
1671.248, 1950.361
1673.176, 1954.041
1675.105, 1959.030
1677.033, 1964.810
1678.962, 1973.596
1680.890, 1988.249
1682.819, 2001.359
1684.747, 2013.617
1686.676, 2022.115
1688.604, 2023.778
1690.532, 2019.919
1692.461, 2014.251
1694.389, 2003.840
1696.318, 2000.228
1698.246, 2007.853
1700.175, 2017.030
1702.103, 2027.595
1704.032, 2035.908
1705.960, 2035.336
1707.889, 2026.822
1709.817, 2026.469
1711.746, 2040.067
1713.674, 2051.458
1715.603, 2060.216
1717.531, 2065.745
1719.459, 2066.204
1721.388, 2063.859
1723.316, 2061.506
1725.245, 2058.766
1727.173, 2060.364
1729.102, 2071.243
1731.030, 2079.272
1732.959, 2079.788
1734.887, 2080.814
1736.816, 2088.975
1738.744, 2100.522
1740.673, 2106.892
1742.601, 2106.516
1744.530, 2106.854
1746.458, 2106.747
1748.386, 2108.656
1750.315, 2115.719
1752.243, 2122.083
1754.172, 2120.223
1756.100, 2114.989
1758.029, 2121.744
1759.957, 2146.910
1761.886, 2161.670
1763.814, 2159.062
1765.743, 2156.121
1767.671, 2153.167
1769.600, 2154.514
1771.528, 2167.995
1773.457, 2187.859
1775.385, 2194.336
1777.313, 2184.043
1779.242, 2175.882
1781.170, 2167.807
1783.099, 2166.778
1785.027, 2181.180
1786.956, 2196.621
1788.884, 2203.521
1790.813, 2203.938
1792.741, 2203.528
1794.670, 2202.643
1796.598, 2199.215
1798.527, 2188.217
1800.455, 2186.604
1802.384, 2213.094
1804.312, 2236.424
1806.240, 2228.699
1808.169, 2206.172
1810.097, 2203.371
1812.026, 2220.490
1813.954, 2232.649
1815.883, 2234.113
1817.811, 2238.937
1819.740, 2256.437
1821.668, 2271.965
1823.597, 2274.277
1825.525, 2269.128
1827.454, 2263.380
1829.382, 2257.669
1831.311, 2263.114
1833.239, 2288.253
1835.167, 2301.903
1837.096, 2285.802
1839.024, 2271.012
1840.953, 2272.754
1842.881, 2283.163
1844.810, 2294.751
1846.738, 2306.778
1848.667, 2312.867
1850.595, 2310.537
1852.524, 2309.222
1854.452, 2313.688
1856.381, 2314.433
1858.309, 2305.148
1860.238, 2294.825
1862.166, 2290.320
1864.094, 2291.223
1866.023, 2296.345
1867.951, 2306.275
1869.880, 2316.996
1871.808, 2330.256
1873.737, 2340.232
1875.665, 2347.145
1877.594, 2348.744
1879.522, 2336.242
1881.451, 2322.113
1883.379, 2329.202
1885.308, 2355.781
1887.236, 2371.017
1889.165, 2371.533
1891.093, 2371.932
1893.021, 2377.515
1894.950, 2378.053
1896.878, 2363.862
1898.807, 2347.986
1900.735, 2338.978
1902.664, 2337.101
1904.592, 2347.286
1906.521, 2369.609
1908.449, 2376.795
1910.378, 2358.348
1912.306, 2347.696
1914.235, 2356.979
1916.163, 2371.675
1918.092, 2393.420
1920.020, 2409.993
1921.948, 2398.493
1923.877, 2366.650
1925.805, 2359.011
1927.734, 2386.557
1929.662, 2405.231
1931.591, 2410.454
1933.519, 2414.196
1935.448, 2419.998
1937.376, 2423.979
1939.305, 2422.498
1941.233, 2418.735
1943.162, 2418.771
1945.090, 2421.757
1947.019, 2413.389
1948.947, 2386.684
1950.875, 2381.240
1952.804, 2416.396
1954.732, 2442.498
1956.661, 2436.417
1958.589, 2425.726
1960.518, 2428.942
1962.446, 2437.392
1964.375, 2435.518
1966.303, 2426.981
1968.232, 2435.054
1970.160, 2464.697
1972.089, 2480.893
1974.017, 2468.589
1975.946, 2461.447
1977.874, 2476.213
1979.802, 2492.358
1981.731, 2495.037
1983.659, 2492.977
1985.588, 2502.602
1987.516, 2520.692
1989.445, 2519.784
1991.373, 2487.620
1993.302, 2468.486
1995.230, 2467.812
1997.159, 2471.593
1999.087, 2480.427
2001.016, 2489.882
2002.944, 2500.006
2004.873, 2508.034
2006.801, 2510.984
2008.729, 2509.210
2010.658, 2501.412
2012.586, 2487.518
2014.515, 2481.555
2016.443, 2485.813
2018.372, 2494.615
2020.300, 2512.508
2022.229, 2525.183
2024.157, 2520.844
2026.086, 2513.646
2028.014, 2514.316
2029.943, 2521.564
2031.871, 2537.481
2033.800, 2562.170
2035.728, 2566.969
2037.656, 2535.152
2039.585, 2519.893
2041.513, 2532.045
2043.442, 2545.344
2045.370, 2553.927
2047.299, 2563.090
2049.227, 2578.623
2051.156, 2593.566
2053.084, 2596.967
2055.013, 2593.992
2056.941, 2601.436
2058.870, 2619.049
2060.798, 2631.776
2062.727, 2637.802
2064.655, 2640.283
2066.583, 2637.544
2068.512, 2634.815
2070.440, 2630.947
2072.369, 2631.423
2074.297, 2644.519
2076.226, 2661.678
2078.154, 2673.578
2080.083, 2679.303
2082.011, 2669.330
2083.940, 2635.750
2085.868, 2630.174
2087.797, 2668.024
2089.725, 2690.348
2091.654, 2680.970
2093.582, 2666.602
2095.510, 2648.821
2097.439, 2639.415
2099.367, 2654.889
2101.296, 2677.665
2103.224, 2685.220
2105.153, 2681.639
2107.081, 2680.227
2109.010, 2681.128
2110.938, 2684.184
2112.867, 2693.711
2114.795, 2696.743
2116.724, 2680.542
2118.652, 2675.284
2120.581, 2692.713
2122.509, 2717.634
2124.438, 2745.849
2126.366, 2773.310
2128.294, 2797.057
2130.223, 2815.674
2132.151, 2823.779
2134.080, 2822.563
2136.008, 2825.015
2137.937, 2833.298
2139.865, 2833.508
2141.794, 2816.708
2143.722, 2809.765
2145.651, 2826.771
2147.579, 2845.192
2149.508, 2856.888
2151.436, 2865.651
2153.365, 2871.518
2155.293, 2877.713
2157.221, 2892.042
2159.150, 2911.070
2161.078, 2917.232
2163.007, 2910.671
2164.935, 2910.628
2166.864, 2919.225
2168.792, 2928.987
2170.721, 2940.833
2172.649, 2948.113
2174.578, 2943.713
2176.506, 2940.654
2178.435, 2945.210
2180.363, 2953.113
2182.292, 2967.510
2184.220, 2979.085
2186.148, 2967.201
2188.077, 2938.921
2190.005, 2927.625
2191.934, 2933.868
2193.862, 2941.340
2195.791, 2949.874
2197.719, 2956.043
2199.648, 2959.660
2201.576, 2958.332
2203.505, 2948.599
2205.433, 2937.519
2207.362, 2922.949
2209.290, 2914.281
2211.219, 2924.953
2213.147, 2940.726
2215.075, 2945.818
2217.004, 2940.929
2218.932, 2921.258
2220.861, 2888.339
2222.789, 2884.357
2224.718, 2912.769
2226.646, 2927.228
2228.575, 2918.418
2230.503, 2916.894
2232.432, 2933.486
2234.360, 2948.754
2236.289, 2955.788
2238.217, 2959.681
2240.146, 2959.833
2242.074, 2960.425
2244.002, 2972.606
2245.931, 2982.246
2247.859, 2958.236
2249.788, 2916.288
2251.716, 2915.337
2253.645, 2949.132
2255.573, 2958.012
2257.502, 2937.929
2259.430, 2928.404
2261.359, 2938.143
2263.287, 2942.846
2265.216, 2931.366
2267.144, 2925.418
2269.073, 2938.185
2271.001, 2946.688
2272.929, 2931.260
2274.858, 2918.771
2276.786, 2935.321
2278.715, 2958.868
2280.643, 2963.756
2282.572, 2956.358
2284.500, 2946.258
2286.429, 2935.330
2288.357, 2933.289
2290.286, 2941.314
2292.214, 2943.696
2294.143, 2936.128
2296.071, 2934.821
2298.000, 2949.361
2299.928, 2951.443
2301.856, 2923.942
2303.785, 2910.226
2305.713, 2933.234
2307.642, 2955.499
2309.570, 2957.934
2311.499, 2953.025
2313.427, 2942.457
2315.356, 2935.521
2317.284, 2950.110
2319.213, 2972.183
2321.141, 2969.693
2323.070, 2949.097
2324.998, 2947.643
2326.927, 2964.984
2328.855, 2957.092
2330.783, 2920.872
2332.712, 2903.945
2334.640, 2915.333
2336.569, 2925.621
2338.497, 2928.770
2340.426, 2932.360
2342.354, 2942.052
2344.283, 2946.435
2346.211, 2931.165
2348.140, 2922.672
2350.068, 2947.329
2351.997, 2969.425
2353.925, 2949.975
2355.854, 2923.289
2357.782, 2933.523
2359.710, 2958.916
2361.639, 2958.389
2363.567, 2941.108
2365.496, 2942.666
2367.424, 2962.095
2369.353, 2963.822
2371.281, 2942.096
2373.210, 2947.992
2375.138, 2991.065
2377.067, 3006.315
2378.995, 2978.286
2380.924, 2954.525
2382.852, 2945.295
2384.781, 2940.991
2386.709, 2945.032
2388.637, 2944.600
2390.566, 2931.362
2392.494, 2917.980
2394.423, 2908.291
2396.351, 2904.869
2398.280, 2911.888
2400.208, 2923.953
2402.137, 2938.680
2404.065, 2951.984
2405.994, 2959.040
2407.922, 2959.160
2409.851, 2948.480
2411.779, 2929.280
2413.708, 2914.852
2415.636, 2905.444
2417.564, 2908.697
2419.493, 2925.712
2421.421, 2936.062
2423.350, 2936.380
2425.278, 2945.970
2427.207, 2976.693
2429.135, 2987.589
2431.064, 2955.999
2432.992, 2929.247
2434.921, 2913.019
2436.849, 2906.514
2438.778, 2919.685
2440.706, 2926.888
2442.635, 2906.203
2444.563, 2892.630
2446.491, 2919.909
2448.420, 2949.259
2450.348, 2946.680
2452.277, 2931.963
2454.205, 2924.336
2456.134, 2920.445
2458.062, 2916.522
2459.991, 2911.784
2461.919, 2903.160
2463.848, 2892.834
2465.776, 2887.448
2467.705, 2886.722
2469.633, 2887.048
2471.562, 2888.495
2473.490, 2892.840
2475.418, 2901.460
2477.347, 2902.781
2479.275, 2894.611
2481.204, 2894.293
2483.132, 2906.455
2485.061, 2908.548
2486.989, 2889.479
2488.918, 2881.694
2490.846, 2902.272
2492.775, 2917.866
2494.703, 2922.065
2496.632, 2921.211
2498.560, 2912.655
2500.489, 2904.653
2502.417, 2894.826
2504.345, 2893.473
2506.274, 2924.135
2508.202, 2942.378
2510.131, 2898.917
2512.059, 2854.392
2513.988, 2868.467
2515.916, 2897.998
2517.845, 2902.194
2519.773, 2892.683
2521.702, 2877.650
2523.630, 2862.034
2525.559, 2852.353
2527.487, 2849.056
2529.416, 2858.408
2531.344, 2874.601
2533.272, 2875.842
2535.201, 2865.919
2537.129, 2860.611
2539.058, 2859.488
2540.986, 2855.640
2542.915, 2849.057
2544.843, 2859.388
2546.772, 2890.646
2548.700, 2897.493
2550.629, 2873.353
2552.557, 2861.890
2554.486, 2866.270
2556.414, 2866.887
2558.343, 2859.908
2560.271, 2862.587
2562.199, 2889.190
2564.128, 2898.653
2566.056, 2875.795
2567.985, 2856.295
2569.913, 2841.032
2571.842, 2834.379
2573.770, 2841.438
2575.699, 2845.411
2577.627, 2837.437
2579.556, 2831.648
2581.484, 2833.655
2583.413, 2837.423
2585.341, 2844.735
2587.270, 2848.085
2589.198, 2841.838
2591.126, 2835.745
2593.055, 2837.597
2594.983, 2836.673
2596.912, 2817.298
2598.840, 2804.594
2600.769, 2825.991
2602.697, 2848.065
2604.626, 2844.874
2606.554, 2833.282
2608.483, 2823.386
2610.411, 2815.464
2612.340, 2809.446
2614.268, 2805.842
2616.197, 2802.842
2618.125, 2804.312
2620.053, 2824.119
2621.982, 2843.581
2623.910, 2830.796
2625.839, 2805.803
2627.767, 2797.390
2629.696, 2796.901
2631.624, 2787.045
2633.553, 2775.130
2635.481, 2777.724
2637.410, 2789.550
2639.338, 2803.196
2641.267, 2813.151
2643.195, 2799.711
2645.124, 2774.227
2647.052, 2773.700
2648.980, 2790.315
2650.909, 2795.356
2652.837, 2790.575
2654.766, 2780.418
2656.694, 2767.879
2658.623, 2766.219
2660.551, 2773.006
2662.480, 2770.712
2664.408, 2761.007
2666.337, 2763.623
2668.265, 2776.354
2670.194, 2779.875
2672.122, 2774.515
2674.051, 2762.641
2675.979, 2745.275
2677.907, 2740.562
2679.836, 2748.849
2681.764, 2740.922
2683.693, 2717.912
2685.621, 2711.676
2687.550, 2721.701
2689.478, 2730.393
2691.407, 2736.765
2693.335, 2735.940
2695.264, 2727.141
2697.192, 2716.335
2699.121, 2703.588
2701.049, 2694.686
2702.978, 2689.805
2704.906, 2675.171
2706.834, 2647.547
2708.763, 2649.660
2710.691, 2689.097
2712.620, 2697.875
2714.548, 2675.372
2716.477, 2663.352
2718.405, 2663.459
2720.334, 2661.767
2722.262, 2658.148
2724.191, 2640.485
2726.119, 2604.991
2728.048, 2596.472
2729.976, 2615.102
2731.905, 2620.041
2733.833, 2609.061
2735.761, 2592.451
2737.690, 2569.462
2739.618, 2556.393
2741.547, 2554.150
2743.475, 2539.156
2745.404, 2511.720
2747.332, 2492.378
2749.261, 2482.374
2751.189, 2472.270
2753.118, 2462.007
2755.046, 2447.293
2756.975, 2428.846
2758.903, 2429.985
2760.832, 2448.479
2762.760, 2446.621
2764.688, 2424.531
2766.617, 2419.720
2768.545, 2431.514
2770.474, 2428.955
2772.402, 2414.792
2774.331, 2411.645
2776.259, 2418.600
2778.188, 2426.899
2780.116, 2435.079
2782.045, 2427.424
2783.973, 2407.647
2785.902, 2400.366
2787.830, 2403.652
2789.759, 2412.633
2791.687, 2424.633
2793.615, 2433.824
2795.544, 2438.298
2797.472, 2427.458
2799.401, 2408.586
2801.329, 2406.486
2803.258, 2412.912
2805.186, 2408.717
2807.115, 2398.073
2809.043, 2390.179
2810.972, 2382.506
2812.900, 2364.908
2814.829, 2347.507
2816.757, 2346.269
2818.686, 2354.773
2820.614, 2370.053
2822.542, 2382.767
2824.471, 2373.687
2826.399, 2360.216
2828.328, 2366.288
2830.256, 2374.417
2832.185, 2363.106
2834.113, 2349.670
2836.042, 2352.990
2837.970, 2359.873
2839.899, 2361.010
2841.827, 2359.538
2843.756, 2353.106
2845.684, 2350.018
2847.613, 2360.557
2849.541, 2368.099
2851.469, 2360.781
2853.398, 2352.883
2855.326, 2353.754
2857.255, 2352.145
2859.183, 2337.531
2861.112, 2330.278
2863.040, 2345.594
2864.969, 2350.791
2866.897, 2330.291
2868.826, 2317.201
2870.754, 2323.472
2872.683, 2335.291
2874.611, 2355.914
2876.540, 2369.826
2878.468, 2375.646
2880.396, 2374.802
2882.325, 2368.201
2884.253, 2350.289
2886.182, 2311.986
2888.110, 2293.662
2890.039, 2296.590
2891.967, 2311.616
2893.896, 2338.434
2895.824, 2345.769
2897.753, 2332.542
2899.681, 2316.696
2901.610, 2300.487
2903.538, 2315.282
2905.467, 2349.226
2907.395, 2346.319
2909.323, 2318.011
2911.252, 2296.469
2913.180, 2284.758
2915.109, 2297.271
2917.037, 2319.901
2918.966, 2331.989
2920.894, 2336.203
2922.823, 2330.684
2924.751, 2324.950
2926.680, 2334.069
2928.608, 2342.818
2930.537, 2337.429
2932.465, 2328.817
2934.394, 2319.286
2936.322, 2318.084
2938.250, 2342.816
2940.179, 2353.529
2942.107, 2316.595
2944.036, 2291.953
2945.964, 2308.887
2947.893, 2326.943
2949.821, 2341.917
2951.750, 2347.810
2953.678, 2340.520
2955.607, 2335.635
2957.535, 2334.267
2959.464, 2339.078
2961.392, 2350.606
2963.321, 2359.174
2965.249, 2364.215
2967.177, 2368.834
2969.106, 2373.070
2971.034, 2371.087
2972.963, 2363.043
2974.891, 2343.369
2976.820, 2320.950
2978.748, 2321.887
2980.677, 2335.382
2982.605, 2343.337
2984.534, 2346.598
2986.462, 2341.235
2988.391, 2338.347
2990.319, 2352.364
2992.248, 2369.204
2994.176, 2385.920
2996.104, 2388.568
2998.033, 2356.888
2999.961, 2335.433
3001.890, 2356.118
3003.818, 2368.833
3005.747, 2353.309
3007.675, 2342.791
3009.604, 2340.283
3011.532, 2353.793
3013.461, 2401.442
3015.389, 2406.584
3017.318, 2362.202
3019.246, 2345.862
3021.175, 2358.125
3023.103, 2368.220
3025.031, 2374.750
3026.960, 2372.334
3028.888, 2365.651
3030.817, 2375.033
3032.745, 2387.864
3034.674, 2380.678
3036.602, 2367.331
3038.531, 2362.771
3040.459, 2364.700
3042.388, 2376.298
3044.316, 2384.888
3046.245, 2374.383
3048.173, 2371.268
3050.102, 2395.282
3052.030, 2408.948
3053.959, 2399.933
3055.887, 2391.689
3057.816, 2389.135
3059.744, 2391.706
3061.673, 2400.775
3063.601, 2403.519
3065.530, 2400.240
3067.458, 2419.394
3069.386, 2454.882
3071.315, 2453.702
3073.243, 2429.433
3075.172, 2422.101
3077.100, 2424.608
3079.029, 2432.853
3080.957, 2438.179
3082.886, 2425.887
3084.814, 2413.828
3086.743, 2410.291
3088.671, 2416.897
3090.600, 2443.027
3092.528, 2462.594
3094.457, 2466.937
3096.385, 2468.002
3098.313, 2467.068
3100.242, 2465.696
3102.170, 2464.492
3104.099, 2464.126
3106.027, 2465.002
3107.956, 2460.098
3109.884, 2453.770
3111.813, 2468.955
3113.741, 2496.129
3115.670, 2516.190
3117.598, 2528.131
3119.527, 2531.800
3121.455, 2525.418
3123.384, 2490.771
3125.312, 2472.632
3127.240, 2511.208
3129.169, 2533.395
3131.097, 2488.924
3133.026, 2470.761
3134.954, 2495.257
3136.883, 2521.068
3138.811, 2544.257
3140.740, 2551.602
3142.668, 2543.070
3144.597, 2546.132
3146.525, 2557.062
3148.454, 2565.640
3150.382, 2570.970
3152.311, 2566.030
3154.239, 2563.977
3156.167, 2587.978
3158.096, 2608.183
3160.024, 2604.245
3161.953, 2592.874
3163.881, 2574.117
3165.810, 2564.899
3167.738, 2570.452
3169.667, 2577.080
3171.595, 2584.957
3173.524, 2579.562
3175.452, 2564.072
3177.381, 2582.698
3179.309, 2621.809
3181.238, 2628.162
3183.166, 2621.196
3185.094, 2638.602
3187.023, 2659.458
3188.951, 2665.925
3190.880, 2666.599
3192.808, 2661.191
3194.737, 2662.054
3196.665, 2676.138
3198.594, 2685.313
3200.522, 2682.099
3202.451, 2683.068
3204.379, 2688.119
3206.308, 2677.835
3208.236, 2658.117
3210.165, 2666.413
3212.093, 2688.853
3214.021, 2694.462
3215.950, 2694.880
3217.878, 2698.287
3219.807, 2707.268
3221.735, 2732.139
3223.664, 2745.887
3225.592, 2733.254
3227.521, 2728.012
3229.449, 2742.607
3231.378, 2750.881
3233.306, 2753.043
3235.235, 2752.128
3237.163, 2751.696
3239.092, 2768.495
3241.020, 2792.046
3242.948, 2802.212
3244.877, 2803.921
3246.805, 2784.903
3248.734, 2783.987
3250.662, 2839.925
3252.591, 2878.035
3254.519, 2873.283
3256.448, 2862.772
3258.376, 2851.856
3260.305, 2835.388
3262.233, 2815.957
3264.162, 2810.588
3266.090, 2816.793
3268.019, 2834.072
3269.947, 2850.431
3271.875, 2846.289
3273.804, 2841.659
3275.732, 2846.315
3277.661, 2863.640
3279.589, 2904.212
3281.518, 2918.031
3283.446, 2880.150
3285.375, 2872.578
3287.303, 2895.260
3289.232, 2909.258
3291.160, 2916.692
3293.089, 2925.898
3295.017, 2934.098
3296.946, 2930.497
3298.874, 2933.354
3300.802, 2961.621
3302.731, 2986.845
3304.659, 2997.019
3306.588, 3012.324
3308.516, 3038.244
3310.445, 3043.414
3312.373, 3027.794
3314.302, 3013.320
3316.230, 3006.323
3318.159, 3023.384
3320.087, 3052.944
3322.016, 3097.510
3323.944, 3123.655
3325.873, 3105.271
3327.801, 3084.681
3329.729, 3067.113
3331.658, 3071.653
3333.586, 3099.289
3335.515, 3130.303
3337.443, 3159.437
3339.372, 3162.956
3341.300, 3153.652
3343.229, 3147.397
3345.157, 3150.510
3347.086, 3180.328
3349.014, 3200.383
3350.943, 3195.124
3352.871, 3189.545
3354.800, 3183.539
3356.728, 3201.989
3358.656, 3239.670
3360.585, 3243.686
3362.513, 3234.342
3364.442, 3266.488
3366.370, 3302.354
3368.299, 3300.668
3370.227, 3297.335
3372.156, 3314.593
3374.084, 3322.793
3376.013, 3314.089
3377.941, 3324.073
3379.870, 3354.579
3381.798, 3375.298
3383.727, 3388.248
3385.655, 3399.855
3387.583, 3407.874
3389.512, 3409.326
3391.440, 3407.488
3393.369, 3398.663
3395.297, 3404.280
3397.226, 3436.672
3399.154, 3470.202
3401.083, 3502.362
3403.011, 3503.346
3404.940, 3488.839
3406.868, 3491.849
3408.797, 3506.447
3410.725, 3533.697
3412.654, 3557.358
3414.582, 3567.839
3416.510, 3576.802
3418.439, 3585.119
3420.367, 3600.093
3422.296, 3620.828
3424.224, 3635.274
3426.153, 3648.551
3428.081, 3670.071
3430.010, 3694.051
3431.938, 3717.085
3433.867, 3738.486
3435.795, 3761.725
3437.724, 3762.617
3439.652, 3731.499
3441.581, 3748.324
3443.509, 3793.559
3445.438, 3794.177
3447.366, 3787.747
3449.294, 3838.094
3451.223, 3877.827
3453.151, 3852.792
3455.080, 3851.896
3457.008, 3896.488
3458.937, 3917.837
3460.865, 3915.799
3462.794, 3928.071
3464.722, 3946.170
3466.651, 3947.362
3468.579, 3952.261
3470.508, 3980.176
3472.436, 4009.063
3474.365, 4036.144
3476.293, 4044.200
3478.221, 4030.011
3480.150, 4042.673
3482.078, 4071.714
3484.007, 4085.282
3485.935, 4098.688
3487.864, 4139.780
3489.792, 4159.086
3491.721, 4126.628
3493.649, 4123.657
3495.578, 4170.180
3497.506, 4184.818
3499.435, 4180.889
3501.363, 4203.057
3503.292, 4233.180
3505.220, 4253.552
3507.148, 4266.330
3509.077, 4263.166
3511.005, 4273.876
3512.934, 4301.473
3514.862, 4322.959
3516.791, 4339.373
3518.719, 4364.752
3520.648, 4388.059
3522.576, 4394.961
3524.505, 4398.039
3526.433, 4393.144
3528.362, 4415.413
3530.290, 4470.108
3532.219, 4484.183
3534.147, 4468.271
3536.075, 4469.147
3538.004, 4482.831
3539.932, 4515.019
3541.861, 4538.515
3543.789, 4536.839
3545.718, 4543.981
3547.646, 4565.372
3549.575, 4602.844
3551.503, 4651.692
3553.432, 4697.552
3555.360, 4742.750
3557.289, 4799.751
3559.217, 4834.727
3561.146, 4832.713
3563.074, 4822.904
3565.002, 4809.029
3566.931, 4819.151
3568.859, 4839.862
3570.788, 4836.134
3572.716, 4834.191
3574.645, 4852.421
3576.573, 4881.575
3578.502, 4922.889
3580.430, 4959.725
3582.359, 4992.194
3584.287, 5036.394
3586.216, 5074.704
3588.144, 5055.808
3590.073, 5056.427
3592.001, 5147.867
3593.929, 5197.971
3595.858, 5186.821
3597.786, 5194.020
3599.715, 5214.656
3601.643, 5209.226
3603.572, 5212.595
3605.500, 5266.927
3607.429, 5323.898
3609.357, 5365.611
3611.286, 5412.421
3613.214, 5460.967
3615.143, 5461.221
3617.071, 5438.925
3619.000, 5438.935
3620.928, 5450.761
3622.856, 5481.787
3624.785, 5495.690
3626.713, 5487.931
3628.642, 5488.237
3630.570, 5498.321
3632.499, 5517.492
3634.427, 5548.725
3636.356, 5604.907
3638.284, 5650.217
3640.213, 5673.693
3642.141, 5693.708
3644.070, 5712.795
3645.998, 5734.263
3647.927, 5760.294
3649.855, 5795.922
3651.783, 5832.231
3653.712, 5867.200
3655.640, 5891.979
3657.569, 5904.353
3659.497, 5928.525
3661.426, 5961.427
3663.354, 6004.855
3665.283, 6039.865
3667.211, 6040.796
3669.140, 6059.314
3671.068, 6105.341
3672.997, 6148.904
3674.925, 6186.106
3676.854, 6202.939
3678.782, 6218.141
3680.710, 6249.658
3682.639, 6285.045
3684.567, 6325.542
3686.496, 6344.498
3688.424, 6347.739
3690.353, 6357.752
3692.281, 6376.987
3694.210, 6405.129
3696.138, 6449.199
3698.067, 6515.079
3699.995, 6549.439
3701.924, 6556.156
3703.852, 6595.104
3705.781, 6644.213
3707.709, 6684.772
3709.637, 6713.644
3711.566, 6726.759
3713.494, 6751.216
3715.423, 6786.764
3717.351, 6820.683
3719.280, 6856.866
3721.208, 6911.431
3723.137, 6949.957
3725.065, 6961.042
3726.994, 6972.426
3728.922, 6987.533
3730.851, 6974.815
3732.779, 6971.133
3734.708, 7037.725
3736.636, 7096.188
3738.564, 7114.617
3740.493, 7148.012
3742.421, 7195.919
3744.350, 7207.725
3746.278, 7207.787
3748.207, 7226.139
3750.135, 7246.322
3752.064, 7264.018
3753.992, 7282.073
3755.921, 7305.966
3757.849, 7380.290
3759.778, 7463.902
3761.706, 7515.230
3763.635, 7546.902
3765.563, 7558.580
3767.491, 7590.329
3769.420, 7634.531
3771.348, 7636.118
3773.277, 7632.373
3775.205, 7649.465
3777.134, 7693.940
3779.062, 7768.257
3780.991, 7831.224
3782.919, 7879.005
3784.848, 7896.500
3786.776, 7913.188
3788.705, 7950.958
3790.633, 8001.261
3792.562, 8062.989
3794.490, 8093.462
3796.418, 8110.365
3798.347, 8157.723
3800.275, 8204.838
3802.204, 8222.203
3804.132, 8275.294
3806.061, 8362.057
3807.989, 8372.346
3809.918, 8368.405
3811.846, 8464.541
3813.775, 8525.708
3815.703, 8483.548
3817.632, 8476.781
3819.560, 8511.602
3821.489, 8584.779
3823.417, 8663.595
3825.345, 8721.120
3827.274, 8766.249
3829.202, 8799.517
3831.131, 8850.378
3833.059, 8909.577
3834.988, 8946.964
3836.916, 8992.897
3838.845, 9079.396
3840.773, 9129.184
3842.702, 9142.498
3844.630, 9207.583
3846.559, 9280.684
3848.487, 9282.000
3850.416, 9302.901
3852.344, 9377.786
3854.272, 9482.299
3856.201, 9592.465
3858.129, 9623.403
3860.058, 9643.626
3861.986, 9697.104
3863.915, 9767.450
3865.843, 9849.616
3867.772, 9933.198
3869.700, 10012.16
3871.629, 10082.97
3873.557, 10138.63
3875.486, 10166.37
3877.414, 10204.22
3879.343, 10255.92
3881.271, 10314.00
3883.199, 10359.41
3885.128, 10361.59
3887.056, 10382.03
3888.985, 10433.25
3890.913, 10524.52
3892.842, 10610.22
3894.770, 10636.05
3896.699, 10674.47
3898.627, 10744.06
3900.556, 10808.57
3902.484, 10865.36
3904.413, 10883.15
3906.341, 10923.10
3908.270, 11047.23
3910.198, 11133.71
3912.126, 11179.76
3914.055, 11189.67
3915.983, 11215.86
3917.912, 11333.24
3919.840, 11435.60
3921.769, 11501.42
3923.697, 11587.18
3925.626, 11672.63
3927.554, 11753.64
3929.483, 11809.64
3931.411, 11829.33
3933.340, 11875.22
3935.268, 11935.34
3937.197, 11994.13
3939.125, 12068.31
3941.053, 12165.38
3942.982, 12272.10
3944.910, 12366.74
3946.839, 12424.83
3948.767, 12486.19
3950.696, 12524.93
3952.624, 12551.92
3954.553, 12596.96
3956.481, 12651.01
3958.410, 12696.64
3960.338, 12754.65
3962.267, 12814.87
3964.195, 12858.45
3966.124, 12882.30
3968.052, 12914.84
3969.980, 12936.78
3971.909, 12978.87
3973.837, 13072.38
3975.766, 13132.90
3977.694, 13179.87
3979.623, 13236.39
3981.551, 13300.63
3983.480, 13383.29
3985.408, 13449.14
3987.337, 13498.47
3989.265, 13604.60
3991.194, 13718.47
3993.122, 13784.32
3995.051, 13837.87
3996.979, 13875.31
3998.907, 13940.10
4000.836, 14031.58
4002.764, 14143.29
4004.693, 14243.51
4006.621, 14319.30
4008.550, 14382.33
4010.478, 14448.02
4012.407, 14529.83
4014.335, 14624.51
4016.264, 14744.42
4018.192, 14855.11
4020.121, 14957.61
4022.049, 15066.93
4023.978, 15184.75
4025.906, 15317.13
4027.834, 15450.26
4029.763, 15580.53
4031.691, 15675.54
4033.620, 15780.40
4035.548, 15934.67
4037.477, 16062.97
4039.405, 16157.17
4041.334, 16252.82
4043.262, 16357.45
4045.191, 16463.95
4047.119, 16594.21
4049.048, 16759.88
4050.976, 16832.95
4052.905, 16872.85
4054.833, 16957.45
4056.761, 17032.35
4058.690, 17099.81
4060.618, 17195.16
4062.547, 17305.59
4064.475, 17393.58
4066.404, 17484.19
4068.332, 17603.54
4070.261, 17729.02
4072.189, 17835.31
4074.118, 17871.93
4076.046, 17927.71
4077.975, 18056.43
4079.903, 18116.21
4081.832, 18156.19
4083.760, 18252.43
4085.688, 18334.74
4087.617, 18386.50
4089.545, 18455.92
4091.474, 18563.68
4093.402, 18675.45
4095.331, 18774.92
4097.259, 18850.12
4099.188, 18905.85
4101.116, 18944.42
4103.045, 19023.29
4104.973, 19132.78
4106.902, 19266.19
4108.830, 19405.98
4110.759, 19521.85
4112.687, 19574.63
4114.616, 19621.53
4116.544, 19748.02
4118.473, 19869.23
4120.401, 19957.48
4122.330, 20052.88
4124.258, 20157.25
4126.187, 20297.33
4128.115, 20457.88
4130.043, 20642.48
4131.972, 20744.55
4133.900, 20811.37
4135.829, 20968.47
4137.757, 21146.30
4139.686, 21333.79
4141.614, 21524.66
4143.542, 21695.68
4145.471, 21889.68
4147.399, 22084.04
4149.328, 22204.63
4151.256, 22366.35
4153.185, 22576.99
4155.113, 22818.31
4157.042, 23062.42
4158.970, 23224.46
4160.899, 23366.08
4162.827, 23507.37
4164.756, 23614.17
4166.684, 23743.63
4168.613, 23988.60
4170.541, 24190.54
4172.470, 24299.33
4174.398, 24436.41
4176.327, 24582.80
4178.255, 24695.20
4180.184, 24806.12
4182.112, 24907.27
4184.041, 25035.17
4185.969, 25171.68
4187.897, 25227.24
4189.826, 25342.64
4191.754, 25588.78
4193.683, 25608.46
4195.611, 25565.01
4197.540, 25737.03
4199.468, 25877.89
4201.396, 25914.36
4203.325, 25982.82
4205.253, 26066.82
4207.182, 26141.26
4209.110, 26234.86
4211.039, 26357.70
4212.967, 26488.44
4214.896, 26615.13
4216.824, 26723.54
4218.753, 26810.24
4220.681, 26878.75
4222.610, 26990.03
4224.538, 27104.06
4226.467, 27168.72
4228.395, 27270.58
4230.324, 27421.13
4232.252, 27532.79
4234.181, 27651.98
4236.109, 27828.34
4238.038, 28005.73
4239.966, 28168.20
4241.895, 28266.23
4243.823, 28361.67
4245.751, 28506.39
4247.680, 28675.17
4249.608, 28852.38
4251.537, 28981.06
4253.465, 29088.70
4255.394, 29179.15
4257.322, 29317.88
4259.250, 29481.49
4261.179, 29578.28
4263.107, 29689.83
4265.036, 29862.08
4266.964, 29974.96
4268.893, 30054.07
4270.821, 30171.89
4272.750, 30280.73
4274.678, 30368.88
4276.607, 30442.94
4278.535, 30530.96
4280.464, 30687.06
4282.392, 30809.72
4284.321, 30872.36
4286.249, 30900.64
4288.178, 30908.40
4290.106, 30922.23
4292.035, 30883.60
4293.963, 30811.17
4295.892, 30894.71
4297.820, 30960.88
4299.749, 30853.36
4301.677, 30763.21
4303.605, 30719.15
4305.534, 30826.11
4307.462, 30870.82
4309.391, 30698.95
4311.319, 30640.08
4313.248, 30605.73
4315.176, 30367.32
4317.104, 30264.84
4319.033, 30413.30
4320.961, 30441.70
4322.890, 30407.95
4324.818, 30315.38
4326.747, 30350.05
4328.675, 30494.73
4330.604, 30417.23
4332.532, 30331.53
4334.461, 30396.07
4336.389, 30415.62
4338.318, 30380.83
4340.246, 30250.30
4342.175, 30180.81
4344.103, 30232.86
4346.032, 30220.71
4347.960, 30165.63
4349.889, 30104.46
4351.817, 30019.28
4353.746, 29917.48
4355.674, 29829.32
4357.603, 29817.25
4359.531, 29947.20
4361.459, 29932.02
4363.388, 29832.54
4365.316, 29922.48
4367.245, 30054.97
4369.173, 30181.80
4371.102, 30255.97
4373.030, 30276.55
4374.958, 30220.25
4376.887, 30190.37
4378.815, 30202.92
4380.744, 30246.29
4382.672, 30305.79
4384.601, 30360.35
4386.529, 30487.85
4388.458, 30648.14
4390.386, 30730.86
4392.315, 30810.81
4394.243, 30912.62
4396.172, 30931.37
4398.100, 30938.52
4400.029, 31002.86
4401.957, 31139.32
4403.886, 31319.06
4405.814, 31374.28
4407.743, 31419.69
4409.671, 31499.26
4411.600, 31635.76
4413.528, 31828.29
4415.457, 32076.81
4417.385, 32382.14
4419.313, 32732.54
4421.242, 33051.98
4423.170, 33431.10
4425.099, 33902.77
4427.027, 34589.49
4428.956, 35426.89
4430.884, 36225.56
4432.813, 37208.71
4434.741, 38440.86
4436.669, 39822.43
4438.598, 41369.41
4440.526, 43180.98
4442.455, 44875.46
4444.383, 46354.76
4446.312, 47538.53
4448.240, 48205.90
4450.169, 48308.77
4452.097, 47756.23
4454.026, 46867.29
4455.954, 45873.64
4457.883, 44773.35
4459.811, 43593.94
4461.740, 42327.64
4463.668, 41186.97
4465.597, 40241.19
4467.525, 39419.57
4469.454, 38722.29
4471.382, 38166.64
4473.311, 37703.14
4475.239, 37295.54
4477.167, 36834.20
4479.096, 36441.47
4481.024, 36154.54
4482.953, 36071.22
4484.881, 36018.73
4486.810, 35829.56
4488.738, 35860.73
4490.667, 36023.06
4492.595, 36043.46
4494.523, 36048.57
4496.452, 36082.64
4498.380, 36225.62
4500.309, 36397.90
4502.237, 36512.06
4504.166, 36701.38
4506.094, 36949.43
4508.023, 37206.14
4509.951, 37563.05
4511.880, 38037.20
4513.808, 38551.59
4515.737, 39202.03
4517.665, 40027.36
4519.594, 41071.24
4521.522, 42306.16
4523.451, 43668.14
4525.379, 45208.91
4527.308, 46985.54
4529.236, 49169.57
4531.165, 51601.88
4533.093, 54223.93
4535.021, 57175.66
4536.950, 60007.74
4538.878, 62394.38
4540.807, 64194.71
4542.735, 65381.33
4544.664, 65910.35
4546.592, 65627.76
4548.521, 64534.56
4550.449, 63082.14
4552.377, 61360.64
4554.306, 59382.70
4556.234, 57322.26
4558.163, 55322.61
4560.091, 53546.46
4562.020, 51971.57
4563.948, 50600.73
4565.877, 49521.46
4567.805, 48576.79
4569.734, 47695.21
4571.662, 46711.36
4573.591, 45867.99
4575.519, 45466.80
4577.448, 44902.07
4579.376, 44297.97
4581.305, 43882.55
4583.233, 43584.85
4585.162, 43372.27
4587.090, 43120.16
4589.019, 42937.45
4590.947, 42847.72
4592.875, 42775.68
4594.804, 42716.46
4596.732, 42680.41
4598.661, 42653.09
4600.589, 42629.97
4602.518, 42595.16
4604.446, 42578.45
4606.375, 42574.22
4608.303, 42524.89
4610.231, 42531.88
4612.160, 42620.50
4614.088, 42600.50
4616.017, 42639.36
4617.945, 42918.00
4619.874, 43011.87
4621.802, 43025.56
4623.731, 43097.59
4625.659, 43205.60
4627.588, 43312.04
4629.516, 43317.11
4631.445, 43326.86
4633.373, 43379.92
4635.302, 43522.15
4637.230, 43708.13
4639.159, 43913.95
4641.087, 44143.47
4643.016, 44383.53
4644.944, 44622.50
4646.873, 44844.98
4648.801, 45067.56
4650.729, 45339.73
4652.658, 45576.73
4654.586, 45793.98
4656.515, 46109.09
4658.443, 46403.52
4660.372, 46638.96
4662.300, 46831.03
4664.229, 47025.29
4666.157, 47253.64
4668.085, 47398.87
4670.014, 47555.46
4671.942, 47849.28
4673.871, 48040.69
4675.799, 48177.81
4677.728, 48344.18
4679.656, 48589.41
4681.585, 48853.98
4683.513, 48913.80
4685.442, 49059.91
4687.370, 49369.45
4689.299, 49825.45
4691.227, 50181.40
4693.156, 50334.27
4695.084, 50469.51
4697.013, 50652.18
4698.941, 50945.02
4700.870, 51164.43
4702.798, 51362.48
4704.727, 51597.54
4706.655, 51938.22
4708.583, 52323.19
4710.512, 52595.05
4712.440, 52967.80
4714.369, 53389.13
4716.297, 53554.29
4718.226, 53755.68
4720.154, 54059.03
4722.083, 54270.14
4724.011, 54491.34
4725.939, 54763.42
4727.868, 55064.89
4729.796, 55404.87
4731.725, 55813.00
4733.653, 56079.34
4735.582, 56280.86
4737.510, 56477.91
4739.439, 56837.18
4741.367, 57218.36
4743.296, 57406.10
4745.224, 57544.48
4747.153, 57689.67
4749.081, 57930.43
4751.010, 58219.54
4752.938, 58511.57
4754.867, 58659.27
4756.795, 58888.49
4758.724, 59229.99
4760.652, 59495.13
4762.581, 59708.14
4764.509, 59885.89
4766.438, 60104.35
4768.366, 60425.57
4770.294, 60891.75
4772.223, 61256.51
4774.151, 61604.46
4776.080, 61963.35
4778.008, 62768.69
4779.937, 63525.11
4781.865, 63715.74
4783.793, 64231.86
4785.722, 64832.09
4787.650, 65110.60
4789.579, 65625.93
4791.507, 66221.14
4793.436, 66494.36
4795.364, 66985.63
4797.293, 67662.50
4799.221, 68360.31
4801.150, 68984.63
4803.078, 69567.00
4805.007, 70276.55
4806.935, 70807.88
4808.864, 71225.37
4810.792, 72129.89
4812.721, 72904.20
4814.649, 73445.05
4816.578, 74282.16
4818.506, 74982.21
4820.435, 75427.34
4822.363, 75871.57
4824.292, 76434.89
4826.220, 77137.50
4828.148, 77451.61
4830.077, 77618.32
4832.005, 77761.87
4833.934, 77805.97
4835.862, 77801.62
4837.791, 77772.45
4839.719, 77763.42
4841.647, 77686.78
4843.576, 77474.55
4845.504, 77240.71
4847.433, 77174.50
4849.361, 77438.57
4851.290, 77352.98
4853.218, 77177.30
4855.147, 77221.16
4857.075, 76951.48
4859.004, 76612.94
4860.932, 76454.20
4862.861, 76253.20
4864.789, 76031.55
4866.718, 75817.54
4868.646, 75670.82
4870.575, 75482.71
4872.503, 75112.30
4874.432, 74852.41
4876.360, 74704.13
4878.289, 74674.26
4880.217, 74498.45
4882.146, 74331.54
4884.074, 74443.16
4886.002, 74215.15
4887.931, 73955.00
4889.859, 74287.80
4891.788, 74322.45
4893.716, 74240.57
4895.645, 74366.97
4897.573, 74553.91
4899.501, 74735.71
4901.430, 74864.77
4903.358, 74874.05
4905.287, 74819.52
4907.215, 74757.86
4909.144, 74864.70
4911.072, 75001.62
4913.001, 74938.47
4914.929, 74830.20
4916.858, 74807.70
4918.786, 75054.82
4920.715, 75266.59
4922.643, 75365.01
4924.572, 75290.11
4926.500, 75091.24
4928.429, 74926.61
4930.357, 75055.92
4932.286, 75030.75
4934.214, 74921.90
4936.143, 74820.06
4938.071, 74681.16
4940.000, 74610.66
4941.928, 74750.14
4943.856, 74753.91
4945.785, 74640.36
4947.713, 74461.14
4949.642, 74172.13
4951.570, 73851.34
4953.499, 73569.54
4955.427, 73180.37
4957.355, 72720.72
4959.284, 72242.70
4961.212, 71659.71
4963.141, 71043.33
4965.069, 70443.46
4966.998, 69988.09
4968.926, 69603.27
4970.855, 69223.98
4972.783, 68745.02
4974.712, 68173.30
4976.640, 67516.59
4978.569, 67167.21
4980.497, 66710.05
4982.426, 66040.61
4984.354, 65534.86
4986.283, 65120.05
4988.211, 64768.93
4990.140, 64607.33
4992.068, 64360.57
4993.997, 63988.34
4995.925, 63741.15
4997.854, 63411.45
4999.782, 63006.99
5001.710, 62689.95
5003.639, 62345.41
5005.567, 61951.44
5007.496, 61434.66
5009.424, 61241.77
5011.353, 61186.31
5013.281, 60831.93
5015.209, 60488.62
5017.138, 60193.50
5019.066, 59935.57
5020.995, 59895.79
5022.923, 59862.99
5024.852, 59609.27
5026.780, 59565.25
5028.709, 59572.11
5030.637, 59455.78
5032.566, 59452.59
5034.494, 59464.87
5036.423, 59436.93
5038.351, 59380.81
5040.280, 59293.25
5042.208, 59178.29
5044.137, 58995.88
5046.065, 58833.52
5047.994, 58702.02
5049.922, 58583.90
5051.851, 58365.50
5053.779, 58068.41
5055.708, 57818.78
5057.636, 57547.38
5059.564, 57301.37
5061.493, 57181.52
5063.421, 57021.19
5065.350, 56790.42
5067.278, 56465.46
5069.207, 56122.88
5071.135, 55815.33
5073.063, 55592.21
5074.992, 55408.05
5076.920, 55170.44
5078.849, 54839.21
5080.777, 54553.08
5082.706, 54254.61
5084.634, 53934.36
5086.563, 53666.35
5088.491, 53427.04
5090.420, 53192.45
5092.348, 52897.96
5094.277, 52647.13
5096.205, 52430.09
5098.134, 52177.25
5100.062, 52103.13
5101.991, 52076.38
5103.919, 51966.66
5105.848, 51684.16
5107.776, 51426.13
5109.705, 51316.41
5111.633, 51403.27
5113.562, 51357.30
5115.490, 51117.19
5117.418, 51061.57
5119.347, 50953.91
5121.275, 50785.48
5123.204, 50747.59
5125.132, 50549.95
5127.061, 50322.52
5128.989, 50346.84
5130.917, 50007.71
5132.846, 49637.64
5134.774, 49584.70
5136.703, 49509.57
5138.631, 49374.60
5140.560, 49171.28
5142.488, 48882.98
5144.417, 48753.05
5146.345, 48750.65
5148.274, 48492.89
5150.202, 48399.26
5152.131, 48391.32
5154.059, 48192.78
5155.988, 48116.65
5157.916, 48009.90
5159.845, 47711.47
5161.773, 47648.75
5163.702, 47675.06
5165.630, 47690.59
5167.559, 47655.81
5169.487, 47581.26
5171.416, 47474.48
5173.344, 47372.25
5175.272, 47228.15
5177.201, 47056.52
5179.129, 46901.28
5181.058, 46662.07
5182.986, 46319.04
5184.915, 45855.07
5186.843, 45606.01
5188.771, 45365.59
5190.700, 45057.24
5192.628, 44788.86
5194.557, 44471.77
5196.485, 44155.72
5198.414, 43976.63
5200.342, 43851.96
5202.271, 43712.23
5204.199, 43472.13
5206.128, 43355.88
5208.056, 43333.41
5209.985, 43368.77
5211.913, 43225.66
5213.842, 43143.82
5215.770, 43123.47
5217.699, 43042.69
5219.627, 42900.25
5221.556, 42759.33
5223.484, 42714.07
5225.413, 42585.60
5227.341, 42455.24
5229.270, 42367.93
5231.198, 42393.04
5233.126, 42426.58
5235.055, 42388.90
5236.983, 42113.05
5238.912, 42036.71
5240.840, 42049.50
5242.769, 41988.87
5244.697, 41893.22
5246.625, 41829.99
5248.554, 41823.49
5250.482, 41891.84
5252.411, 41933.60
5254.339, 41921.73
5256.268, 41824.50
5258.196, 41793.62
5260.125, 41741.91
5262.053, 41583.31
5263.982, 41712.75
5265.910, 41737.00
5267.839, 41591.28
5269.767, 41579.60
5271.696, 41553.16
5273.624, 41545.78
5275.553, 41658.57
5277.481, 41716.29
5279.410, 41727.69
5281.338, 41707.99
5283.267, 41723.24
5285.195, 41761.04
5287.124, 41775.79
5289.052, 41651.23
5290.980, 41623.34
5292.909, 41633.18
5294.837, 41608.77
5296.766, 41594.46
5298.694, 41547.81
5300.623, 41467.44
5302.551, 41393.08
5304.479, 41321.78
5306.408, 41292.20
5308.336, 41347.81
5310.265, 41331.94
5312.193, 41304.65
5314.122, 41307.40
5316.050, 41428.04
5317.979, 41437.04
5319.907, 41352.77
5321.836, 41261.87
5323.764, 41291.91
5325.693, 41329.03
5327.621, 41302.02
5329.550, 41196.97
5331.478, 41008.59
5333.407, 40823.13
5335.335, 40799.91
5337.264, 40815.17
5339.192, 40844.51
5341.121, 40865.97
5343.049, 40715.98
5344.978, 40629.16
5346.906, 40595.44
5348.834, 40498.64
5350.763, 40328.32
5352.691, 40231.63
5354.620, 40308.09
5356.548, 40291.39
5358.477, 40331.31
5360.405, 40360.57
5362.333, 40142.86
5364.262, 40218.38
5366.190, 40325.76
5368.119, 40278.41
5370.047, 40229.39
5371.976, 40218.04
5373.904, 40251.77
5375.833, 40332.96
5377.761, 40371.84
5379.690, 40446.90
5381.618, 40568.98
5383.547, 40318.50
5385.475, 40183.20
5387.404, 40190.89
5389.332, 40235.17
5391.261, 40048.62
5393.189, 39938.46
5395.118, 40026.15
5397.046, 40041.69
5398.975, 39948.00
5400.903, 39832.52
5402.832, 39807.20
5404.760, 39769.80
5406.688, 39736.85
5408.617, 39720.04
5410.545, 39765.55
5412.474, 39715.90
5414.402, 39616.04
5416.331, 39532.59
5418.259, 39293.24
5420.188, 39163.48
5422.116, 39121.96
5424.044, 38913.63
5425.973, 38827.91
5427.901, 38792.95
5429.830, 38725.19
5431.758, 38528.01
5433.687, 38231.96
5435.615, 37967.33
5437.544, 37915.85
5439.472, 37698.59
5441.401, 37463.28
5443.329, 37269.29
5445.258, 37076.01
5447.186, 36929.53
5449.115, 36756.68
5451.043, 36516.24
5452.972, 36482.43
5454.900, 36346.77
5456.829, 36147.55
5458.757, 36083.52
5460.686, 36032.15
5462.614, 35884.69
5464.542, 35631.38
5466.471, 35426.93
5468.399, 35260.49
5470.328, 35165.93
5472.256, 35163.09
5474.185, 35033.52
5476.113, 34857.43
5478.042, 34722.47
5479.970, 34746.32
5481.898, 34570.12
5483.827, 34419.46
5485.755, 34373.77
5487.684, 34251.96
5489.612, 34005.85
5491.541, 33892.55
5493.469, 34108.86
5495.398, 33999.36
5497.326, 33742.14
5499.255, 33542.71
5501.183, 33625.73
5503.112, 33541.09
5505.040, 33442.65
5506.969, 33404.77
5508.897, 33440.31
5510.826, 33283.21
5512.754, 33199.41
5514.683, 33309.86
5516.611, 33051.13
5518.540, 32983.28
5520.468, 33006.43
5522.396, 32919.57
5524.325, 32856.82
5526.253, 32872.71
5528.182, 32938.03
5530.110, 32993.41
5532.039, 32950.73
5533.967, 32819.25
5535.896, 32665.65
5537.824, 32671.69
5539.752, 32653.49
5541.681, 32663.95
5543.609, 32726.03
5545.538, 32766.92
5547.466, 32723.96
5549.395, 32660.05
5551.323, 32624.81
5553.252, 32330.63
5555.180, 32152.26
5557.109, 32085.77
5559.037, 32018.79
5560.966, 31908.27
5562.894, 31766.76
5564.823, 31623.69
5566.751, 31514.97
5568.680, 31479.09
5570.608, 31464.70
5572.537, 31445.11
5574.465, 31425.95
5576.394, 31323.28
5578.322, 31223.48
5580.250, 31159.83
5582.179, 31030.69
5584.107, 30984.88
5586.036, 30963.90
5587.964, 30923.35
5589.893, 30940.19
5591.821, 31048.99
5593.750, 31064.29
5595.678, 30840.28
5597.606, 30834.48
5599.535, 30849.39
5601.463, 30828.63
5603.392, 30760.59
5605.320, 30811.80
5607.249, 30933.23
5609.177, 30999.07
5611.106, 30870.20
5613.034, 30804.47
5614.963, 30824.20
5616.891, 30847.16
5618.820, 30751.77
5620.748, 30649.91
5622.677, 30593.33
5624.605, 30556.01
5626.534, 30431.62
5628.462, 30440.53
5630.391, 30373.48
5632.319, 30250.81
5634.248, 30371.90
5636.176, 30165.95
5638.104, 30128.20
5640.033, 30274.42
5641.961, 30078.80
5643.890, 30073.08
5645.818, 30034.25
5647.747, 29914.98
5649.675, 29946.82
5651.604, 29944.10
5653.532, 29891.29
5655.460, 29820.68
5657.389, 29813.60
5659.317, 29848.54
5661.246, 29770.05
5663.174, 29605.22
5665.103, 29736.55
5667.031, 29688.26
5668.960, 29613.61
5670.888, 29581.43
5672.817, 29514.93
5674.745, 29359.65
5676.674, 29252.89
5678.602, 29217.97
5680.531, 29131.15
5682.459, 29007.40
5684.388, 28937.91
5686.316, 28932.81
5688.245, 28914.06
5690.173, 28949.55
5692.102, 28860.85
5694.030, 28673.43
5695.958, 28663.51
5697.887, 28617.29
5699.815, 28485.49
5701.744, 28323.68
5703.672, 28277.36
5705.601, 28264.55
5707.529, 28250.23
5709.458, 28211.12
5711.386, 28129.13
5713.314, 28043.79
5715.243, 27946.77
5717.171, 27858.66
5719.100, 27803.81
5721.028, 27633.63
5722.957, 27572.58
5724.885, 27610.31
5726.814, 27654.06
5728.742, 27539.41
5730.671, 27509.84
5732.599, 27491.46
5734.528, 27373.43
5736.456, 27374.97
5738.385, 27293.64
5740.313, 27162.17
5742.242, 27047.46
5744.170, 27052.26
5746.099, 27014.63
5748.027, 26984.16
5749.956, 26963.28
5751.884, 26785.02
5753.813, 26681.19
5755.741, 26568.25
5757.669, 26441.97
5759.598, 26416.91
5761.526, 26303.54
5763.455, 26293.75
5765.383, 26317.24
5767.312, 26148.49
5769.240, 26086.14
5771.168, 26149.83
5773.097, 26190.60
5775.025, 26056.57
5776.954, 25914.76
5778.882, 25841.40
5780.811, 25769.36
5782.739, 25659.94
5784.668, 25716.21
5786.596, 25584.89
5788.525, 25475.37
5790.453, 25487.68
5792.382, 25495.40
5794.310, 25439.44
5796.239, 25337.85
5798.167, 25201.90
5800.096, 25027.67
5802.024, 24940.11
5803.953, 24948.97
5805.881, 24922.54
5807.810, 24750.87
5809.738, 24671.67
5811.667, 24655.22
5813.595, 24597.62
5815.523, 24470.88
5817.452, 24444.81
5819.380, 24425.87
5821.309, 24389.75
5823.237, 24307.75
5825.166, 24121.69
5827.094, 24043.62
5829.022, 23927.97
5830.951, 23783.46
5832.879, 23678.08
5834.808, 23668.96
5836.736, 23601.58
5838.665, 23520.07
5840.593, 23462.06
5842.522, 23360.65
5844.450, 23361.93
5846.379, 23270.65
5848.307, 23143.22
5850.236, 23235.88
5852.164, 22996.85
5854.093, 22881.99
5856.021, 22886.89
5857.950, 22858.79
5859.878, 22586.07
5861.807, 22587.32
5863.735, 22633.48
5865.664, 22572.71
5867.592, 22453.71
5869.521, 22364.62
5871.449, 22355.63
5873.377, 22273.10
5875.306, 21994.57
5877.234, 21935.94
5879.163, 21968.54
5881.091, 21973.82
5883.020, 21907.44
5884.948, 21802.04
5886.876, 21739.10
5888.805, 21649.73
5890.733, 21559.39
5892.662, 21517.85
5894.590, 21395.91
5896.519, 21300.90
5898.447, 21246.13
5900.376, 21219.84
5902.304, 21198.83
5904.233, 21226.77
5906.161, 21086.02
5908.090, 20906.51
5910.018, 20908.60
5911.947, 20882.08
5913.875, 20837.22
5915.804, 20791.04
5917.732, 20736.42
5919.661, 20631.99
5921.589, 20616.89
5923.518, 20564.85
5925.446, 20453.84
5927.375, 20309.35
5929.303, 20177.66
5931.231, 20180.42
5933.160, 20146.19
5935.088, 20043.62
5937.017, 19956.43
5938.945, 19897.44
5940.874, 19873.23
5942.802, 19867.45
5944.730, 19851.92
5946.659, 19782.63
5948.587, 19654.27
5950.516, 19563.96
5952.444, 19530.22
5954.373, 19520.91
5956.301, 19426.97
5958.230, 19316.58
5960.158, 19219.61
5962.087, 19155.72
5964.015, 19136.15
5965.944, 19048.98
5967.872, 18950.08
5969.801, 18818.18
5971.729, 18683.28
5973.658, 18700.07
5975.586, 18662.13
5977.515, 18617.20
5979.443, 18567.60
5981.372, 18514.16
5983.300, 18570.90
5985.229, 18543.98
5987.157, 18379.20
5989.085, 18208.49
5991.014, 18200.29
5992.942, 18203.89
5994.871, 18105.34
5996.799, 17995.78
5998.728, 17943.46
6000.656, 17977.31
6002.584, 17813.78
6004.513, 17729.73
6006.442, 17709.91
6008.370, 17689.28
6010.299, 17626.75
6012.227, 17618.34
6014.156, 17550.20
6016.084, 17464.75
6018.013, 17396.91
6019.941, 17232.32
6021.870, 17235.26
6023.798, 17245.47
6025.727, 17241.22
6027.655, 17228.88
6029.583, 17029.64
6031.512, 17062.66
6033.440, 17007.31
6035.369, 16909.99
6037.297, 16916.70
6039.226, 16755.26
6041.154, 16791.38
6043.083, 16773.90
6045.011, 16677.84
6046.939, 16597.80
6048.868, 16396.02
6050.796, 16435.31
6052.725, 16447.46
6054.653, 16404.93
6056.582, 16415.62
6058.510, 16358.88
6060.439, 16363.12
6062.367, 16329.97
6064.296, 16236.23
6066.224, 16122.80
6068.153, 16119.98
6070.081, 16034.39
6072.010, 15873.82
6073.938, 15733.80
6075.867, 15700.83
6077.795, 15639.51
6079.724, 15565.66
6081.652, 15537.36
6083.581, 15500.44
6085.509, 15390.93
6087.438, 15418.46
6089.366, 15295.94
6091.294, 15256.27
6093.223, 15286.91
6095.151, 15273.81
6097.080, 15215.71
6099.008, 15133.09
6100.937, 15097.86
6102.865, 15076.17
6104.793, 15025.52
6106.722, 14968.98
6108.650, 14875.79
6110.579, 14899.38
6112.507, 14869.39
6114.436, 14706.65
6116.364, 14654.74
6118.293, 14555.90
6120.221, 14467.25
6122.150, 14464.55
6124.078, 14510.19
6126.007, 14444.39
6127.935, 14305.19
6129.864, 14389.22
6131.792, 14386.97
6133.721, 14246.15
6135.649, 14170.20
6137.578, 14071.03
6139.506, 14092.27
6141.435, 14034.42
6143.363, 13937.27
6145.292, 13927.17
6147.220, 13936.73
6149.148, 13953.28
6151.077, 13886.83
6153.005, 13826.88
6154.934, 13824.27
6156.862, 13748.84
6158.791, 13646.91
6160.719, 13665.81
6162.647, 13682.24
6164.576, 13617.73
6166.504, 13503.16
6168.433, 13476.60
6170.361, 13485.33
6172.290, 13402.24
6174.218, 13303.86
6176.147, 13292.10
6178.075, 13241.58
6180.004, 13137.72
6181.932, 13123.56
6183.861, 13078.25
6185.789, 12987.36
6187.718, 13043.82
6189.646, 13073.05
6191.575, 12947.53
6193.503, 12820.51
6195.432, 12769.76
6197.360, 12771.00
6199.289, 12761.57
6201.217, 12743.94
6203.146, 12665.25
6205.074, 12600.60
6207.002, 12590.68
6208.931, 12574.44
6210.859, 12546.47
6212.788, 12530.46
6214.716, 12433.46
6216.645, 12331.77
6218.573, 12337.00
6220.501, 12334.99
6222.430, 12395.96
6224.358, 12278.05
6226.287, 12185.17
6228.215, 12192.36
6230.144, 12120.53
6232.072, 12059.35
6234.001, 11994.43
6235.929, 11968.55
6237.858, 11948.14
6239.786, 11898.07
6241.715, 11858.02
6243.643, 11766.83
6245.572, 11799.03
6247.500, 11754.03
6249.429, 11664.66
6251.357, 11677.20
6253.286, 11493.63
6255.214, 11525.04
6257.143, 11538.22
6259.071, 11470.51
6261.000, 11399.52
6262.928, 11426.45
6264.856, 11333.01
6266.785, 11392.65
6268.713, 11340.81
6270.642, 11229.08
6272.570, 11177.76
6274.499, 11191.42
6276.427, 11181.77
6278.355, 11054.21
6280.284, 11029.98
6282.212, 11042.03
6284.141, 10983.16
6286.069, 10927.63
6287.998, 10944.64
6289.926, 10894.88
6291.855, 10813.51
6293.783, 10748.69
6295.712, 10695.78
6297.640, 10588.90
6299.569, 10616.55
6301.497, 10656.38
6303.426, 10634.46
6305.354, 10579.51
6307.283, 10532.35
6309.211, 10464.93
6311.140, 10352.44
6313.068, 10283.17
6314.997, 10338.63
6316.925, 10321.45
6318.854, 10139.23
6320.782, 10238.25
6322.710, 10128.67
6324.639, 10071.99
6326.567, 10056.18
6328.496, 10017.85
6330.424, 9948.271
6332.353, 9915.575
6334.281, 9976.682
6336.209, 9858.646
6338.138, 9844.166
6340.066, 9840.825
6341.995, 9742.107
6343.923, 9701.411
6345.852, 9629.545
6347.780, 9685.885
6349.709, 9636.797
6351.637, 9573.674
6353.566, 9572.685
6355.494, 9541.471
6357.423, 9472.646
6359.351, 9408.952
6361.280, 9331.067
6363.208, 9301.678
6365.137, 9320.707
6367.065, 9323.593
6368.994, 9225.987
6370.922, 9202.343
6372.851, 9190.374
6374.779, 9124.153
6376.708, 9061.050
6378.636, 9044.526
6380.564, 8973.069
6382.493, 8959.664
6384.421, 8956.349
6386.350, 8893.919
6388.278, 8854.678
6390.207, 8855.748
6392.135, 8807.031
6394.063, 8765.350
6395.992, 8714.447
6397.920, 8720.831
6399.849, 8647.458
6401.777, 8571.643
6403.706, 8595.300
6405.634, 8486.108
6407.563, 8489.120
6409.491, 8490.491
6411.420, 8432.618
6413.348, 8446.530
6415.277, 8479.596
6417.205, 8312.713
6419.134, 8318.277
6421.062, 8224.334
6422.991, 8280.306
6424.919, 8264.708
6426.848, 8182.843
6428.776, 8152.077
6430.705, 8124.923
6432.633, 8049.592
6434.562, 8075.778
6436.490, 7984.269
6438.418, 7967.363
6440.347, 7992.125
6442.275, 7887.313
6444.204, 7844.367
6446.132, 7909.149
6448.061, 7874.542
6449.989, 7841.984
6451.917, 7827.352
6453.846, 7778.985
6455.774, 7675.688
6457.703, 7638.459
6459.631, 7633.990
6461.560, 7596.170
6463.488, 7543.637
6465.417, 7534.654
6467.345, 7548.508
6469.274, 7516.906
6471.202, 7509.622
6473.131, 7498.571
6475.059, 7331.193
6476.988, 7324.050
6478.916, 7368.294
6480.845, 7339.477
6482.773, 7321.618
6484.702, 7265.563
6486.630, 7248.272
6488.559, 7227.040
6490.487, 7178.322
6492.416, 7118.499
6494.344, 7090.037
6496.272, 7100.510
6498.201, 7051.408
6500.129, 6988.240
6502.058, 7068.938
6503.986, 6993.396
6505.915, 6891.748
6507.843, 6861.310
6509.771, 6831.768
6511.700, 6809.331
6513.628, 6874.155
6515.557, 6820.172
6517.485, 6768.624
6519.414, 6778.584
6521.342, 6761.595
6523.271, 6686.424
6525.199, 6688.359
6527.128, 6652.328
6529.056, 6548.942
6530.985, 6492.890
6532.913, 6543.877
6534.842, 6569.069
6536.770, 6493.529
6538.699, 6415.829
6540.627, 6508.012
6542.556, 6431.578
6544.484, 6353.258
6546.413, 6334.042
6548.341, 6362.441
6550.270, 6337.489
6552.198, 6261.690
6554.126, 6317.998
6556.055, 6202.644
6557.983, 6172.126
6559.912, 6179.285
6561.840, 6200.909
6563.769, 6147.675
6565.697, 6055.464
6567.625, 6038.312
6569.554, 6015.856
6571.482, 6046.027
6573.411, 6015.496
6575.339, 6000.362
##END=



