##NAMES=Grossular
##RRUFFID=R060442
##IDEAL CHEMISTRY=Ca_3_Al_2_(SiO_4_)_3_
##LOCALITY=Pakistan(?)
##OWNER=RRUFF
##SOURCE=Gemological Institute of America
##DESCRIPTION=Orange crystals
##STATUS=The identification of this mineral has been confirmed by X-ray diffraction and chemical analysis
##URL=https://www.rruff.net/odr/rruff_sample/R060442
##MEASURED CHEMISTRY=(Ca_2.85_Fe^2+^_0.15_)(Al_1.85_Fe^3+^_0.15_)(Si_1.00_O_4_)_3_ ; trace amounts of Ti, Mg
##DIFFRACTION SAMPLE DESCRIPTION=Powder
##CELL PARAMETERS=a: 11.8553 b: 11.8553 c: 11.8553 alpha: 90 beta: 90 gamma: 90 volume: 1666.27 crystal system: cubic
##FILETYPE=Raman Processed
##RAMAN WAVELENGTH=532

145.0731, 826.2206
147.0015, 831.6863
148.9300, 834.9909
150.8585, 836.5046
152.7869, 837.4666
154.7154, 837.5435
156.6439, 836.5697
158.5723, 838.3571
160.5008, 840.2271
162.4293, 845.3537
164.3577, 856.1742
166.2862, 873.7622
168.2147, 893.8881
170.1431, 917.8263
172.0716, 946.7994
174.0001, 966.8729
175.9285, 977.3934
177.8570, 979.4135
179.7855, 975.3259
181.7139, 959.5521
183.6424, 943.3244
185.5709, 927.0093
187.4993, 911.0204
189.4278, 897.5248
191.3563, 887.0245
193.2847, 878.7449
195.2132, 872.7108
197.1417, 868.3382
199.0701, 866.2247
200.9986, 867.1265
202.9271, 870.5770
204.8555, 875.5272
206.7840, 882.0924
208.7125, 889.9603
210.6409, 898.4026
212.5694, 906.6403
214.4979, 916.8151
216.4263, 929.6436
218.3548, 945.3874
220.2833, 961.7293
222.2117, 976.8156
224.1402, 993.3972
226.0687, 1012.997
227.9971, 1034.809
229.9256, 1061.797
231.8541, 1096.963
233.7825, 1140.110
235.7110, 1178.696
237.6395, 1214.085
239.5679, 1243.572
241.4964, 1266.179
243.4249, 1283.574
245.3533, 1290.662
247.2818, 1282.977
249.2103, 1263.096
251.1387, 1241.417
253.0672, 1212.928
254.9957, 1187.025
256.9242, 1169.127
258.8526, 1160.243
260.7811, 1157.390
262.7096, 1160.935
264.6380, 1170.370
266.5665, 1186.264
268.4950, 1218.638
270.4234, 1249.534
272.3519, 1271.269
274.2804, 1284.738
276.2088, 1289.907
278.1373, 1283.846
280.0658, 1269.921
281.9942, 1252.872
283.9227, 1229.536
285.8512, 1206.187
287.7796, 1184.630
289.7081, 1164.504
291.6366, 1147.424
293.5650, 1132.451
295.4935, 1120.707
297.4220, 1114.710
299.3504, 1116.005
301.2789, 1118.734
303.2074, 1120.753
305.1358, 1121.916
307.0643, 1125.731
308.9928, 1131.778
310.9212, 1140.527
312.8497, 1152.792
314.7782, 1168.912
316.7066, 1186.518
318.6351, 1204.712
320.5636, 1223.212
322.4920, 1243.317
324.4205, 1264.445
326.3490, 1288.125
328.2774, 1312.576
330.2059, 1336.986
332.1344, 1366.970
334.0628, 1399.656
335.9913, 1437.287
337.9198, 1487.714
339.8482, 1551.485
341.7767, 1624.682
343.7052, 1707.551
345.6336, 1800.512
347.5621, 1895.937
349.4906, 1978.977
351.4190, 2073.737
353.3475, 2194.403
355.2760, 2332.760
357.2044, 2516.300
359.1329, 2756.906
361.0614, 3046.707
362.9898, 3352.497
364.9183, 3726.890
366.8468, 4062.083
368.7752, 4315.941
370.7037, 4507.744
372.6322, 4580.808
374.5606, 4508.169
376.4891, 4325.039
378.4176, 4076.781
380.3460, 3735.491
382.2745, 3375.866
384.2030, 3041.895
386.1314, 2732.757
388.0599, 2472.285
389.9884, 2263.216
391.9168, 2099.951
393.8453, 1970.098
395.7738, 1875.470
397.7022, 1800.714
399.6307, 1745.533
401.5592, 1703.190
403.4876, 1661.296
405.4161, 1615.944
407.3446, 1576.843
409.2730, 1548.867
411.2015, 1532.336
413.1300, 1511.078
415.0584, 1479.887
416.9869, 1444.515
418.9154, 1408.324
420.8438, 1369.498
422.7723, 1332.287
424.7008, 1300.771
426.6292, 1275.061
428.5577, 1255.473
430.4862, 1244.050
432.4146, 1235.730
434.3431, 1229.400
436.2716, 1225.537
438.2000, 1224.043
440.1285, 1224.865
442.0570, 1227.040
443.9854, 1230.585
445.9139, 1235.730
447.8424, 1241.068
449.7708, 1247.217
451.6993, 1254.574
453.6278, 1262.089
455.5562, 1269.388
457.4847, 1276.570
459.4132, 1283.023
461.3416, 1288.718
463.2701, 1295.319
465.1986, 1304.101
467.1270, 1313.696
469.0555, 1322.525
470.9840, 1330.384
472.9124, 1336.945
474.8409, 1343.575
476.7694, 1349.314
478.6978, 1351.567
480.6263, 1348.354
482.5548, 1344.875
484.4832, 1345.375
486.4117, 1349.193
488.3402, 1354.440
490.2686, 1360.587
492.1971, 1368.136
494.1256, 1378.332
496.0540, 1391.422
497.9825, 1406.179
499.9110, 1421.599
501.8394, 1437.204
503.7679, 1450.371
505.6964, 1460.580
507.6248, 1466.984
509.5533, 1466.028
511.4818, 1460.593
513.4103, 1456.004
515.3387, 1454.411
517.2672, 1453.709
519.1957, 1460.373
521.1241, 1473.715
523.0526, 1486.202
524.9811, 1490.349
526.9095, 1498.412
528.8380, 1512.217
530.7665, 1530.693
532.6949, 1567.002
534.6234, 1629.618
536.5519, 1707.118
538.4803, 1797.794
540.4088, 1907.144
542.3373, 2004.017
544.2657, 2071.995
546.1942, 2115.614
548.1227, 2124.197
550.0511, 2076.044
551.9796, 1988.998
553.9081, 1885.229
555.8365, 1777.745
557.7650, 1677.828
559.6935, 1601.319
561.6219, 1542.999
563.5504, 1498.908
565.4789, 1467.337
567.4073, 1445.736
569.3358, 1432.305
571.2643, 1421.448
573.1927, 1410.795
575.1212, 1400.303
577.0497, 1391.812
578.9781, 1383.725
580.9066, 1376.145
582.8351, 1369.572
584.7635, 1364.492
586.6920, 1361.359
588.6205, 1359.225
590.5490, 1357.655
592.4774, 1356.692
594.4059, 1355.990
596.3344, 1356.435
598.2628, 1356.002
600.1913, 1358.506
602.1198, 1360.707
604.0482, 1362.332
605.9767, 1367.880
607.9052, 1377.224
609.8336, 1387.992
611.7621, 1397.577
613.6906, 1408.121
615.6190, 1418.836
617.5475, 1429.110
619.4760, 1438.792
621.4044, 1448.737
623.3329, 1461.366
625.2614, 1471.445
627.1898, 1475.462
629.1183, 1470.172
631.0468, 1459.980
632.9752, 1444.925
634.9037, 1426.973
636.8322, 1407.024
638.7606, 1389.231
640.6891, 1373.880
642.6176, 1359.920
644.5460, 1347.467
646.4745, 1337.139
648.4030, 1329.293
650.3314, 1321.341
652.2599, 1315.604
654.1884, 1312.024
656.1168, 1309.101
658.0453, 1305.177
659.9738, 1302.833
661.9022, 1303.491
663.8307, 1305.405
665.7592, 1305.768
667.6876, 1302.571
669.6161, 1299.666
671.5446, 1298.293
673.4730, 1298.916
675.4015, 1301.523
677.3300, 1307.307
679.2584, 1311.448
681.1869, 1310.832
683.1154, 1308.802
685.0438, 1309.718
686.9723, 1312.346
688.9008, 1315.004
690.8292, 1317.736
692.7577, 1322.702
694.6862, 1327.543
696.6146, 1330.100
698.5431, 1331.260
700.4716, 1331.819
702.4000, 1333.219
704.3285, 1334.612
706.2570, 1336.598
708.1854, 1339.617
710.1139, 1343.646
712.0424, 1348.445
713.9708, 1354.004
715.8993, 1359.403
717.8278, 1363.692
719.7562, 1367.007
721.6847, 1370.638
723.6132, 1373.890
725.5416, 1377.093
727.4701, 1380.459
729.3986, 1384.053
731.3270, 1386.849
733.2555, 1389.896
735.1840, 1394.398
737.1124, 1399.879
739.0409, 1404.930
740.9694, 1406.453
742.8978, 1410.517
744.8263, 1419.701
746.7548, 1430.677
748.6832, 1437.991
750.6117, 1443.102
752.5402, 1451.328
754.4686, 1466.238
756.3971, 1479.947
758.3256, 1489.988
760.2540, 1499.513
762.1825, 1510.492
764.1110, 1523.250
766.0394, 1536.065
767.9679, 1548.020
769.8964, 1559.364
771.8248, 1571.725
773.7533, 1585.852
775.6818, 1601.012
777.6102, 1616.949
779.5387, 1632.138
781.4672, 1648.895
783.3956, 1666.779
785.3241, 1686.962
787.2526, 1709.897
789.1810, 1734.808
791.1095, 1763.304
793.0380, 1792.886
794.9664, 1829.197
796.8949, 1872.777
798.8234, 1929.077
800.7518, 1992.225
802.6803, 2060.274
804.6088, 2136.353
806.5372, 2223.740
808.4657, 2320.173
810.3942, 2428.413
812.3226, 2555.623
814.2511, 2691.732
816.1796, 2832.776
818.1080, 2983.097
820.0365, 3121.476
821.9650, 3261.305
823.8934, 3371.368
825.8219, 3434.063
827.7504, 3451.767
829.6788, 3441.384
831.6073, 3380.935
833.5358, 3315.112
835.4642, 3254.283
837.3927, 3199.880
839.3212, 3160.435
841.2496, 3135.546
843.1781, 3123.651
845.1066, 3125.199
847.0350, 3139.798
848.9635, 3169.624
850.8920, 3217.450
852.8204, 3279.292
854.7489, 3347.968
856.6774, 3427.305
858.6058, 3533.104
860.5343, 3646.901
862.4628, 3801.332
864.3912, 4010.805
866.3197, 4271.581
868.2482, 4585.337
870.1766, 4982.042
872.1051, 5389.075
874.0336, 5826.802
875.9620, 6266.193
877.8905, 6577.819
879.8190, 6809.163
881.7474, 6872.981
883.6759, 6704.202
885.6044, 6352.554
887.5328, 5912.753
889.4613, 5339.230
891.3898, 4784.276
893.3182, 4268.011
895.2467, 3803.111
897.1752, 3418.370
899.1036, 3143.376
901.0321, 2915.498
902.9606, 2748.909
904.8890, 2622.895
906.8175, 2510.322
908.7460, 2411.692
910.6744, 2323.253
912.6029, 2245.334
914.5314, 2176.517
916.4598, 2115.132
918.3883, 2060.757
920.3168, 2015.676
922.2452, 1981.932
924.1737, 1954.455
926.1022, 1931.381
928.0306, 1912.638
929.9591, 1897.367
931.8876, 1886.235
933.8160, 1877.640
935.7445, 1871.409
937.6730, 1867.987
939.6014, 1865.707
941.5299, 1864.358
943.4584, 1863.985
945.3868, 1866.052
947.3153, 1870.479
949.2438, 1871.348
951.1722, 1867.071
953.1007, 1861.480
955.0292, 1855.318
956.9576, 1848.157
958.8861, 1842.087
960.8146, 1836.012
962.7430, 1835.054
964.6715, 1840.674
966.6000, 1850.008
968.5284, 1860.274
970.4569, 1872.210
972.3854, 1886.280
974.3138, 1902.914
976.2423, 1920.505
978.1708, 1938.975
980.0992, 1958.152
982.0277, 1976.488
983.9562, 1992.784
985.8846, 2009.353
987.8131, 2027.902
989.7416, 2051.044
991.6700, 2072.759
993.5985, 2091.378
995.5270, 2109.679
997.4554, 2131.342
999.3839, 2153.370
1001.312, 2172.556
1003.241, 2192.111
1005.169, 2202.916
1007.098, 2202.008
1009.026, 2192.621
1010.955, 2170.930
1012.883, 2130.190
1014.812, 2086.193
1016.740, 2040.776
1018.669, 1995.204
1020.597, 1956.745
1022.526, 1927.939
1024.454, 1905.115
1026.382, 1887.890
1028.311, 1874.245
1030.239, 1864.295
1032.168, 1858.021
1034.096, 1853.075
1036.025, 1849.780
1037.953, 1846.687
1039.882, 1841.871
1041.810, 1839.030
1043.739, 1839.595
1045.667, 1842.018
1047.596, 1842.770
1049.524, 1840.976
1051.453, 1840.489
1053.381, 1841.763
1055.309, 1843.082
1057.238, 1844.288
1059.166, 1846.148
1061.095, 1850.026
1063.023, 1853.552
1064.952, 1856.392
1066.880, 1857.735
1068.809, 1856.080
1070.737, 1853.827
1072.666, 1855.821
1074.594, 1863.825
1076.523, 1869.698
1078.451, 1871.171
1080.380, 1872.706
1082.308, 1879.420
1084.236, 1890.429
1086.165, 1898.562
1088.093, 1900.987
1090.022, 1900.979
1091.950, 1900.285
1093.879, 1900.169
1095.807, 1901.347
1097.736, 1902.674
1099.664, 1904.741
1101.593, 1908.552
1103.521, 1914.198
1105.450, 1919.471
1107.378, 1925.323
1109.307, 1931.287
1111.235, 1935.218
1113.163, 1937.949
1115.092, 1941.351
1117.020, 1947.554
1118.949, 1956.121
1120.877, 1965.522
1122.806, 1974.257
1124.734, 1982.260
1126.663, 1990.364
1128.591, 1998.456
1130.520, 2005.706
1132.448, 2013.468
1134.377, 2022.577
1136.305, 2031.624
1138.234, 2037.315
1140.162, 2041.802
1142.090, 2048.267
1144.019, 2055.224
1145.947, 2059.970
1147.876, 2061.441
1149.804, 2062.206
1151.733, 2067.332
1153.661, 2078.414
1155.590, 2087.795
1157.518, 2093.665
1159.447, 2097.910
1161.375, 2102.963
1163.304, 2104.169
1165.232, 2104.854
1167.161, 2108.842
1169.089, 2115.520
1171.017, 2122.679
1172.946, 2128.077
1174.874, 2131.017
1176.803, 2130.985
1178.731, 2130.599
1180.660, 2131.821
1182.588, 2135.062
1184.517, 2139.813
1186.445, 2145.264
1188.374, 2148.878
1190.302, 2150.496
1192.231, 2152.704
1194.159, 2157.601
1196.088, 2165.750
1198.016, 2171.462
1199.944, 2172.703
1201.873, 2174.030
1203.801, 2178.110
1205.730, 2181.833
1207.658, 2188.575
1209.587, 2193.355
1211.515, 2201.362
1213.444, 2210.307
1215.372, 2217.530
1217.301, 2222.749
1219.229, 2227.386
1221.158, 2234.117
1223.086, 2243.518
1225.015, 2252.800
1226.943, 2262.070
1228.871, 2271.342
1230.800, 2279.079
1232.728, 2282.602
1234.657, 2287.280
1236.585, 2294.000
1238.514, 2301.540
1240.442, 2307.946
1242.371, 2312.291
1244.299, 2318.145
1246.228, 2329.438
1248.156, 2340.598
1250.085, 2348.408
1252.013, 2353.509
1253.942, 2356.820
1255.870, 2357.944
1257.798, 2360.673
1259.727, 2366.768
1261.655, 2371.404
1263.584, 2373.877
1265.512, 2375.175
1267.441, 2377.464
1269.369, 2377.992
1271.298, 2380.659
1273.226, 2388.493
1275.155, 2397.874
1277.083, 2403.709
1279.012, 2404.121
1280.940, 2407.128
1282.869, 2414.147
1284.797, 2421.899
1286.725, 2429.934
1288.654, 2437.410
1290.582, 2443.123
1292.511, 2447.081
1294.439, 2450.966
1296.368, 2453.465
1298.296, 2457.864
1300.225, 2465.135
1302.153, 2474.277
1304.082, 2482.039
1306.010, 2489.460
1307.939, 2496.124
1309.867, 2500.936
1311.796, 2506.031
1313.724, 2512.895
1315.652, 2521.397
1317.581, 2531.110
1319.509, 2543.816
1321.438, 2556.643
1323.366, 2566.819
1325.295, 2574.785
1327.223, 2584.175
1329.152, 2596.021
1331.080, 2606.022
1333.009, 2609.840
1334.937, 2615.094
1336.866, 2626.801
1338.794, 2642.535
1340.723, 2657.221
1342.651, 2671.713
1344.579, 2682.719
1346.508, 2685.816
1348.436, 2686.990
1350.365, 2691.713
1352.293, 2700.129
1354.222, 2707.876
1356.150, 2713.373
1358.079, 2721.365
1360.007, 2733.935
1361.936, 2747.948
1363.864, 2759.688
1365.793, 2767.500
1367.721, 2780.746
1369.650, 2805.717
1371.578, 2828.802
1373.506, 2842.567
1375.435, 2849.063
1377.363, 2854.823
1379.292, 2860.570
1381.220, 2868.909
1383.149, 2881.053
1385.077, 2892.907
1387.006, 2905.849
1388.934, 2919.348
1390.863, 2928.074
1392.791, 2930.575
1394.720, 2937.103
1396.648, 2952.691
1398.577, 2969.194
1400.505, 2981.817
1402.433, 2991.635
1404.362, 3002.477
1406.290, 3015.403
1408.219, 3026.024
1410.147, 3030.583
1412.076, 3036.012
1414.004, 3047.530
1415.933, 3063.254
1417.861, 3075.775
1419.790, 3083.510
1421.718, 3090.480
1423.647, 3095.636
1425.575, 3101.159
1427.504, 3107.863
1429.432, 3114.746
1431.360, 3121.845
1433.289, 3129.117
1435.217, 3137.148
1437.146, 3148.824
1439.074, 3157.928
1441.003, 3159.686
1442.931, 3157.025
1444.860, 3157.584
1446.788, 3162.713
1448.717, 3166.791
1450.645, 3166.615
1452.574, 3167.149
1454.502, 3172.652
1456.431, 3180.691
1458.359, 3185.477
1460.287, 3185.993
1462.216, 3186.933
1464.144, 3192.331
1466.073, 3194.750
1468.001, 3187.839
1469.930, 3175.990
1471.858, 3171.625
1473.787, 3177.598
1475.715, 3182.560
1477.644, 3183.589
1479.572, 3184.651
1481.501, 3187.093
1483.429, 3190.589
1485.358, 3194.398
1487.286, 3200.330
1489.214, 3201.078
1491.143, 3192.326
1493.071, 3183.878
1495.000, 3180.735
1496.928, 3180.234
1498.857, 3177.742
1500.785, 3173.094
1502.714, 3169.112
1504.642, 3166.401
1506.571, 3164.095
1508.499, 3161.371
1510.428, 3158.712
1512.356, 3156.742
1514.285, 3155.095
1516.213, 3153.453
1518.141, 3151.656
1520.070, 3149.641
1521.998, 3148.779
1523.927, 3146.880
1525.855, 3141.066
1527.784, 3132.713
1529.712, 3126.939
1531.641, 3124.704
1533.569, 3123.165
1535.498, 3123.083
1537.426, 3121.744
1539.355, 3115.993
1541.283, 3107.355
1543.212, 3100.630
1545.140, 3096.141
1547.068, 3094.072
1548.997, 3095.956
1550.925, 3097.776
1552.854, 3098.193
1554.782, 3097.213
1556.711, 3093.955
1558.639, 3087.780
1560.568, 3083.745
1562.496, 3084.333
1564.425, 3084.095
1566.353, 3081.534
1568.282, 3078.033
1570.210, 3073.954
1572.139, 3068.801
1574.067, 3067.087
1575.995, 3072.760
1577.924, 3075.211
1579.852, 3066.948
1581.781, 3059.491
1583.709, 3062.980
1585.638, 3073.998
1587.566, 3078.609
1589.495, 3073.237
1591.423, 3069.573
1593.352, 3069.261
1595.280, 3069.902
1597.209, 3069.630
1599.137, 3070.439
1601.066, 3076.555
1602.994, 3089.494
1604.922, 3093.650
1606.851, 3078.361
1608.779, 3069.060
1610.708, 3077.983
1612.636, 3087.580
1614.565, 3082.413
1616.493, 3065.926
1618.422, 3053.738
1620.350, 3047.188
1622.279, 3043.352
1624.207, 3042.788
1626.136, 3044.051
1628.064, 3046.175
1629.993, 3049.060
1631.921, 3053.608
1633.849, 3059.936
1635.778, 3062.389
1637.706, 3058.027
1639.635, 3054.720
1641.563, 3055.602
1643.492, 3057.304
1645.420, 3056.414
1647.349, 3054.644
1649.277, 3057.417
1651.206, 3065.597
1653.134, 3073.296
1655.063, 3082.475
1656.991, 3087.374
1658.920, 3084.072
1660.848, 3076.950
1662.776, 3068.906
1664.705, 3060.879
1666.633, 3060.227
1668.562, 3069.629
1670.490, 3079.189
1672.419, 3086.643
1674.347, 3093.674
1676.276, 3100.527
1678.204, 3106.992
1680.133, 3113.549
1682.061, 3120.138
1683.990, 3123.678
1685.918, 3123.580
1687.847, 3122.448
1689.775, 3120.730
1691.703, 3119.302
1693.632, 3117.896
1695.560, 3117.593
1697.489, 3121.444
1699.417, 3129.874
1701.346, 3136.177
1703.274, 3139.186
1705.203, 3140.716
1707.131, 3139.484
1709.060, 3138.718
1710.988, 3140.233
1712.917, 3144.453
1714.845, 3153.719
1716.774, 3169.407
1718.702, 3180.396
1720.630, 3183.125
1722.559, 3183.667
1724.487, 3182.686
1726.416, 3181.477
1728.344, 3181.644
1730.273, 3182.952
1732.201, 3183.576
1734.130, 3183.198
1736.058, 3184.708
1737.987, 3190.014
1739.915, 3195.377
1741.844, 3201.048
1743.772, 3204.925
1745.701, 3203.285
1747.629, 3197.656
1749.557, 3195.934
1751.486, 3198.623
1753.414, 3203.151
1755.343, 3212.754
1757.271, 3219.320
1759.200, 3214.627
1761.128, 3209.825
1763.057, 3219.347
1764.985, 3238.912
1766.914, 3246.790
1768.842, 3238.220
1770.771, 3235.097
1772.699, 3242.830
1774.628, 3250.926
1776.556, 3256.397
1778.484, 3260.935
1780.413, 3266.958
1782.341, 3272.763
1784.270, 3272.241
1786.198, 3261.052
1788.127, 3256.149
1790.055, 3261.383
1791.984, 3267.779
1793.912, 3276.891
1795.841, 3284.417
1797.769, 3284.875
1799.698, 3282.495
1801.626, 3288.037
1803.555, 3303.981
1805.483, 3313.271
1807.411, 3307.735
1809.340, 3306.003
1811.268, 3311.399
1813.197, 3318.627
1815.125, 3328.053
1817.054, 3335.994
1818.982, 3335.173
1820.911, 3325.620
1822.839, 3322.476
1824.768, 3329.341
1826.696, 3334.562
1828.625, 3333.018
1830.553, 3334.383
1832.482, 3345.382
1834.410, 3357.568
1836.339, 3362.827
1838.267, 3361.928
1840.195, 3358.511
1842.124, 3352.199
1844.052, 3346.831
1845.981, 3341.072
1847.909, 3340.706
1849.838, 3352.566
1851.766, 3364.870
1853.695, 3371.345
1855.623, 3372.729
1857.552, 3366.978
1859.480, 3355.434
1861.409, 3354.596
1863.337, 3368.623
1865.266, 3379.701
1867.194, 3382.773
1869.122, 3384.116
1871.051, 3387.477
1872.979, 3389.931
1874.908, 3388.115
1876.836, 3383.229
1878.765, 3377.697
1880.693, 3371.173
1882.622, 3369.387
1884.550, 3375.671
1886.479, 3380.568
1888.407, 3380.975
1890.336, 3380.528
1892.264, 3381.406
1894.193, 3381.319
1896.121, 3382.598
1898.049, 3381.626
1899.978, 3381.603
1901.906, 3381.686
1903.835, 3384.807
1905.763, 3395.664
1907.692, 3402.245
1909.620, 3398.500
1911.549, 3393.274
1913.477, 3391.960
1915.406, 3392.918
1917.334, 3393.091
1919.263, 3392.643
1921.191, 3396.427
1923.120, 3407.243
1925.048, 3412.544
1926.976, 3408.862
1928.905, 3403.185
1930.833, 3393.429
1932.762, 3386.688
1934.690, 3389.866
1936.619, 3397.342
1938.547, 3399.875
1940.476, 3398.331
1942.404, 3398.572
1944.333, 3401.587
1946.261, 3402.471
1948.190, 3399.542
1950.118, 3397.108
1952.047, 3396.577
1953.975, 3397.443
1955.904, 3400.441
1957.832, 3403.731
1959.760, 3403.688
1961.689, 3400.774
1963.617, 3400.614
1965.546, 3404.128
1967.474, 3406.370
1969.403, 3406.817
1971.331, 3406.555
1973.260, 3405.466
1975.188, 3404.314
1977.117, 3403.448
1979.045, 3402.788
1980.974, 3403.000
1982.902, 3403.306
1984.831, 3398.969
1986.759, 3401.022
1988.688, 3403.930
1990.616, 3401.168
1992.544, 3411.071
1994.473, 3409.721
1996.401, 3408.189
1998.330, 3412.256
2000.258, 3416.950
2002.187, 3417.218
2004.115, 3419.980
2006.044, 3416.734
2007.972, 3420.283
2009.901, 3420.640
2011.829, 3416.717
2013.758, 3414.229
2015.686, 3416.309
2017.615, 3416.525
2019.543, 3411.558
2021.471, 3406.913
2023.400, 3405.053
2025.328, 3405.894
2027.257, 3411.338
2029.185, 3418.911
2031.114, 3418.692
2033.042, 3420.993
2034.971, 3421.991
2036.899, 3414.833
2038.828, 3417.356
2040.756, 3403.648
2042.685, 3392.480
2044.613, 3393.707
2046.542, 3395.745
2048.470, 3390.831
2050.398, 3384.098
2052.327, 3381.146
2054.255, 3381.876
2056.184, 3386.871
2058.112, 3395.885
2060.041, 3402.688
2061.969, 3406.725
2063.898, 3407.039
2065.826, 3398.397
2067.755, 3392.952
2069.683, 3398.962
2071.612, 3404.699
2073.540, 3400.667
2075.469, 3393.108
2077.397, 3390.442
2079.325, 3391.520
2081.254, 3391.436
2083.182, 3389.792
2085.111, 3390.676
2087.039, 3389.277
2088.968, 3386.064
2090.896, 3387.667
2092.825, 3380.855
2094.753, 3380.179
2096.682, 3382.660
2098.610, 3389.796
2100.539, 3396.201
2102.467, 3395.107
2104.396, 3389.581
2106.324, 3386.411
2108.252, 3385.605
2110.181, 3385.466
2112.109, 3387.340
2114.038, 3386.480
2115.966, 3381.145
2117.895, 3376.294
2119.823, 3371.005
2121.752, 3368.648
2123.680, 3373.003
2125.609, 3377.731
2127.537, 3378.019
2129.466, 3375.601
2131.394, 3371.433
2133.323, 3366.581
2135.251, 3365.956
2137.179, 3369.201
2139.108, 3369.693
2141.036, 3366.298
2142.965, 3364.928
2144.893, 3368.613
2146.822, 3370.874
2148.750, 3369.089
2150.679, 3367.415
2152.607, 3368.018
2154.536, 3369.256
2156.464, 3368.682
2158.393, 3368.680
2160.321, 3375.190
2162.250, 3373.469
2164.178, 3373.329
2166.106, 3375.715
2168.035, 3371.501
2169.963, 3374.182
2171.892, 3377.685
2173.820, 3381.376
2175.749, 3384.864
2177.677, 3387.785
2179.606, 3390.806
2181.534, 3395.098
2183.463, 3398.501
2185.391, 3398.725
2187.320, 3397.712
2189.248, 3398.083
2191.177, 3399.021
2193.105, 3398.505
2195.033, 3396.510
2196.962, 3393.346
2198.890, 3388.856
2200.819, 3386.725
2202.747, 3388.026
2204.676, 3390.331
2206.604, 3395.045
2208.533, 3397.458
2210.461, 3393.109
2212.390, 3390.043
2214.318, 3391.814
2216.247, 3395.911
2218.175, 3401.132
2220.104, 3405.996
2222.032, 3408.721
2223.960, 3409.386
2225.889, 3407.915
2227.817, 3404.729
2229.746, 3405.561
2231.674, 3411.186
2233.603, 3414.826
2235.531, 3415.518
2237.460, 3417.518
2239.388, 3423.676
2241.317, 3426.093
2243.245, 3416.881
2245.174, 3410.333
2247.102, 3413.850
2249.031, 3420.430
2250.959, 3427.871
2252.887, 3433.583
2254.816, 3433.849
2256.744, 3430.608
2258.673, 3427.323
2260.601, 3423.956
2262.530, 3419.650
2264.458, 3414.605
2266.387, 3414.993
2268.315, 3422.048
2270.244, 3428.285
2272.172, 3434.907
2274.101, 3436.437
2276.029, 3427.248
2277.958, 3420.821
2279.886, 3422.121
2281.814, 3424.445
2283.743, 3424.557
2285.671, 3424.483
2287.600, 3424.122
2289.528, 3425.335
2291.457, 3431.401
2293.385, 3439.744
2295.314, 3446.819
2297.242, 3452.402
2299.171, 3455.338
2301.099, 3455.682
2303.028, 3456.511
2304.956, 3458.507
2306.885, 3458.715
2308.813, 3456.509
2310.741, 3454.771
2312.670, 3453.885
2314.598, 3453.307
2316.527, 3452.381
2318.455, 3452.680
2320.384, 3454.675
2322.312, 3457.958
2324.241, 3463.637
2326.169, 3468.887
2328.098, 3469.894
2330.026, 3470.665
2331.955, 3477.656
2333.883, 3486.697
2335.812, 3489.692
2337.740, 3487.919
2339.668, 3487.067
2341.597, 3486.672
2343.525, 3482.422
2345.454, 3474.391
2347.382, 3465.494
2349.311, 3453.955
2351.239, 3452.965
2353.168, 3473.741
2355.096, 3486.442
2357.025, 3482.781
2358.953, 3479.644
2360.882, 3480.612
2362.810, 3481.458
2364.739, 3478.593
2366.667, 3478.555
2368.595, 3490.705
2370.524, 3500.096
2372.452, 3488.941
2374.381, 3475.079
2376.309, 3480.823
2378.238, 3495.233
2380.166, 3501.579
2382.095, 3501.875
2384.023, 3499.658
2385.952, 3496.031
2387.880, 3497.910
2389.809, 3504.667
2391.737, 3509.527
2393.666, 3511.867
2395.594, 3513.055
2397.522, 3512.461
2399.451, 3512.434
2401.379, 3512.869
2403.308, 3514.241
2405.236, 3518.769
2407.165, 3520.262
2409.093, 3515.478
2411.022, 3512.501
2412.950, 3514.727
2414.879, 3518.496
2416.807, 3525.202
2418.736, 3529.051
2420.664, 3521.774
2422.593, 3515.411
2424.521, 3523.309
2426.449, 3534.146
2428.378, 3533.792
2430.306, 3528.650
2432.235, 3527.833
2434.163, 3530.360
2436.092, 3535.984
2438.020, 3542.989
2439.949, 3545.013
2441.877, 3549.403
2443.806, 3552.227
2445.734, 3552.712
2447.663, 3555.467
2449.591, 3552.746
2451.520, 3551.720
2453.448, 3552.359
2455.376, 3553.353
2457.305, 3553.746
2459.233, 3556.446
2461.162, 3564.236
2463.090, 3568.448
2465.019, 3567.307
2466.947, 3564.045
2468.876, 3556.460
2470.804, 3552.721
2472.733, 3556.016
2474.661, 3561.750
2476.590, 3569.146
2478.518, 3575.492
2480.447, 3578.547
2482.375, 3579.832
2484.303, 3578.947
2486.232, 3578.700
2488.160, 3584.634
2490.089, 3590.536
2492.017, 3587.530
2493.946, 3582.190
2495.874, 3583.355
2497.803, 3588.296
2499.731, 3593.162
2501.660, 3597.387
2503.588, 3599.962
2505.517, 3600.756
2507.445, 3599.668
2509.374, 3596.939
2511.302, 3596.116
2513.230, 3596.933
2515.159, 3595.852
2517.087, 3593.252
2519.016, 3593.230
2520.944, 3596.638
2522.873, 3599.622
2524.801, 3601.930
2526.730, 3605.057
2528.658, 3608.849
2530.587, 3613.545
2532.515, 3619.501
2534.444, 3621.940
2536.372, 3618.674
2538.301, 3616.072
2540.229, 3615.332
2542.157, 3615.923
2544.086, 3621.038
2546.014, 3623.027
2547.943, 3617.805
2549.871, 3615.376
2551.800, 3621.051
2553.728, 3623.723
2555.657, 3612.323
2557.585, 3607.572
2559.514, 3625.807
2561.442, 3642.241
2563.371, 3643.561
2565.299, 3641.032
2567.228, 3638.161
2569.156, 3637.527
2571.084, 3642.080
2573.013, 3647.766
2574.941, 3653.775
2576.870, 3657.058
2578.798, 3651.607
2580.727, 3645.780
2582.655, 3650.206
2584.584, 3647.166
2586.512, 3655.201
2588.441, 3652.386
2590.369, 3660.073
2592.298, 3670.217
2594.226, 3671.632
2596.155, 3667.877
2598.083, 3661.109
2600.011, 3656.183
2601.940, 3667.684
2603.868, 3686.657
2605.797, 3690.745
2607.725, 3686.065
2609.654, 3685.740
2611.582, 3688.751
2613.511, 3691.230
2615.439, 3694.073
2617.368, 3704.009
2619.296, 3704.860
2621.225, 3720.377
2623.153, 3714.182
2625.082, 3717.069
2627.010, 3727.321
2628.938, 3732.252
2630.867, 3732.073
2632.795, 3722.714
2634.724, 3724.500
2636.652, 3721.513
2638.581, 3716.698
2640.509, 3719.757
2642.438, 3712.792
2644.366, 3712.433
2646.295, 3719.135
2648.223, 3723.904
2650.152, 3726.358
2652.080, 3728.819
2654.009, 3731.476
2655.937, 3729.498
2657.865, 3734.888
2659.794, 3725.777
2661.722, 3740.869
2663.651, 3748.598
2665.579, 3747.193
2667.508, 3743.090
2669.436, 3735.186
2671.365, 3734.662
2673.293, 3733.924
2675.222, 3734.925
2677.150, 3741.388
2679.079, 3743.839
2681.007, 3756.623
2682.936, 3765.622
2684.864, 3770.698
2686.792, 3773.911
2688.721, 3775.163
2690.649, 3775.970
2692.578, 3776.141
2694.506, 3777.006
2696.435, 3779.836
2698.363, 3778.334
2700.292, 3771.329
2702.220, 3770.339
2704.149, 3776.626
2706.077, 3783.321
2708.006, 3790.881
2709.934, 3791.234
2711.863, 3792.570
2713.791, 3793.343
2715.719, 3787.902
2717.648, 3791.997
2719.576, 3787.999
2721.505, 3789.396
2723.433, 3789.317
2725.362, 3787.735
2727.290, 3790.731
2729.219, 3787.299
2731.147, 3791.973
2733.076, 3794.300
2735.004, 3793.606
2736.933, 3791.340
2738.861, 3786.631
2740.790, 3786.608
2742.718, 3792.006
2744.646, 3797.907
2746.575, 3804.413
2748.503, 3804.895
2750.432, 3799.292
2752.360, 3797.496
2754.289, 3799.843
2756.217, 3803.591
2758.146, 3808.593
2760.074, 3811.374
2762.003, 3811.923
2763.931, 3812.101
2765.860, 3811.782
2767.788, 3805.711
2769.717, 3794.955
2771.645, 3789.363
2773.573, 3788.728
2775.502, 3791.855
2777.430, 3796.688
2779.359, 3792.557
2781.287, 3782.071
2783.216, 3777.840
2785.144, 3778.706
2787.073, 3781.876
2789.001, 3785.559
2790.930, 3778.993
2792.858, 3769.243
2794.787, 3776.596
2796.715, 3773.593
2798.644, 3790.018
2800.572, 3780.281
2802.500, 3780.406
2804.429, 3784.448
2806.357, 3781.922
2808.286, 3783.754
2810.214, 3779.827
2812.143, 3784.041
2814.071, 3783.106
2816.000, 3781.906
2817.928, 3788.197
2819.857, 3794.458
2821.785, 3792.918
2823.714, 3788.099
2825.642, 3780.456
2827.571, 3775.776
2829.499, 3784.821
2831.427, 3791.129
2833.356, 3781.900
2835.284, 3770.717
2837.213, 3762.861
2839.141, 3760.039
2841.070, 3767.244
2842.998, 3773.276
2844.927, 3773.451
2846.855, 3771.926
2848.784, 3767.421
2850.712, 3765.963
2852.641, 3771.863
2854.569, 3776.755
2856.498, 3780.591
2858.426, 3778.595
2860.354, 3766.926
2862.283, 3759.164
2864.211, 3760.264
2866.140, 3762.515
2868.068, 3767.455
2869.997, 3765.188
2871.925, 3753.882
2873.854, 3748.083
2875.782, 3750.262
2877.711, 3751.207
2879.639, 3750.098
2881.568, 3749.931
2883.496, 3750.371
2885.425, 3749.476
2887.353, 3747.204
2889.281, 3743.056
2891.210, 3738.128
2893.138, 3737.890
2895.067, 3734.281
2896.995, 3737.113
2898.924, 3731.137
2900.852, 3729.718
2902.781, 3729.870
2904.709, 3724.979
2906.638, 3726.789
2908.566, 3723.063
2910.495, 3728.556
2912.423, 3731.752
2914.352, 3733.719
2916.280, 3735.390
2918.208, 3735.958
2920.137, 3733.514
2922.065, 3730.925
2923.994, 3729.767
2925.922, 3727.589
2927.851, 3726.559
2929.779, 3717.748
2931.708, 3723.577
2933.636, 3725.874
2935.565, 3722.179
2937.493, 3715.429
2939.422, 3700.839
2941.350, 3696.216
2943.279, 3704.021
2945.207, 3709.175
2947.135, 3710.437
2949.064, 3706.448
2950.992, 3696.977
2952.921, 3693.542
2954.849, 3696.147
2956.778, 3701.323
2958.706, 3707.151
2960.635, 3701.342
2962.563, 3691.960
2964.492, 3703.309
2966.420, 3696.870
2968.349, 3713.353
2970.277, 3700.098
2972.206, 3705.018
2974.134, 3712.149
2976.063, 3706.853
2977.991, 3698.542
2979.919, 3692.118
2981.848, 3688.562
2983.776, 3690.401
2985.705, 3691.792
2987.633, 3688.384
2989.562, 3686.971
2991.490, 3688.675
2993.419, 3690.528
2995.347, 3692.264
2997.276, 3692.454
2999.204, 3690.979
3001.133, 3690.370
3003.061, 3691.163
3004.990, 3685.081
3006.918, 3684.630
3008.846, 3672.190
3010.775, 3677.354
3012.703, 3672.644
3014.632, 3664.754
3016.560, 3673.823
3018.489, 3688.823
3020.417, 3697.960
3022.346, 3700.988
3024.274, 3693.904
3026.203, 3685.699
3028.131, 3681.101
3030.060, 3679.085
3031.988, 3678.105
3033.917, 3680.936
3035.845, 3692.395
3037.773, 3697.875
3039.702, 3693.058
3041.630, 3689.955
3043.559, 3692.973
3045.487, 3691.169
3047.416, 3683.999
3049.344, 3681.081
3051.273, 3682.227
3053.201, 3683.434
3055.130, 3683.889
3057.058, 3678.793
3058.987, 3672.389
3060.915, 3678.049
3062.844, 3685.305
3064.772, 3679.714
3066.700, 3671.069
3068.629, 3667.788
3070.557, 3665.750
3072.486, 3664.037
3074.414, 3659.729
3076.343, 3646.275
3078.271, 3640.016
3080.200, 3646.546
3082.128, 3650.898
3084.057, 3650.979
3085.985, 3653.544
3087.914, 3653.717
3089.842, 3651.818
3091.771, 3652.708
3093.699, 3648.391
3095.627, 3646.756
3097.556, 3648.565
3099.484, 3652.154
3101.413, 3656.983
3103.341, 3659.122
3105.270, 3653.653
3107.198, 3646.107
3109.127, 3640.523
3111.055, 3633.632
3112.984, 3622.207
3114.912, 3616.168
3116.841, 3621.534
3118.769, 3622.046
3120.698, 3612.608
3122.626, 3609.517
3124.554, 3612.747
3126.483, 3616.190
3128.411, 3619.432
3130.340, 3623.405
3132.268, 3624.291
3134.197, 3626.816
3136.125, 3624.764
3138.054, 3623.301
3139.982, 3620.964
3141.911, 3613.682
3143.839, 3609.763
3145.768, 3615.311
3147.696, 3619.364
3149.625, 3620.257
3151.553, 3614.357
3153.481, 3615.939
3155.410, 3613.209
3157.338, 3608.727
3159.267, 3608.478
3161.195, 3597.687
3163.124, 3592.239
3165.052, 3592.307
3166.981, 3604.685
3168.909, 3615.956
3170.838, 3603.410
3172.766, 3591.589
3174.695, 3602.630
3176.623, 3611.948
3178.552, 3604.649
3180.480, 3601.503
3182.408, 3609.689
3184.337, 3611.151
3186.265, 3603.917
3188.194, 3598.108
3190.122, 3594.392
3192.051, 3593.929
3193.979, 3594.875
3195.908, 3589.622
3197.836, 3582.321
3199.765, 3574.809
3201.693, 3572.867
3203.622, 3583.613
3205.550, 3597.310
3207.479, 3614.130
3209.407, 3621.634
3211.335, 3611.974
3213.264, 3605.915
3215.192, 3605.744
3217.121, 3595.866
3219.049, 3577.596
3220.978, 3569.859
3222.906, 3570.363
3224.835, 3572.765
3226.763, 3575.952
3228.692, 3577.460
3230.620, 3579.592
3232.549, 3586.503
3234.477, 3588.928
3236.406, 3580.560
3238.334, 3573.502
3240.262, 3569.218
3242.191, 3572.618
3244.119, 3583.661
3246.048, 3588.073
3247.976, 3586.023
3249.905, 3576.691
3251.833, 3566.479
3253.762, 3569.846
3255.690, 3575.347
3257.619, 3572.903
3259.547, 3569.153
3261.476, 3568.197
3263.404, 3564.439
3265.333, 3554.714
3267.261, 3546.517
3269.189, 3539.611
3271.118, 3544.391
3273.046, 3538.725
3274.975, 3552.029
3276.903, 3541.326
3278.832, 3550.655
3280.760, 3561.597
3282.689, 3554.532
3284.617, 3547.948
3286.546, 3552.224
3288.474, 3558.015
3290.403, 3564.480
3292.331, 3564.952
3294.260, 3557.682
3296.188, 3550.014
3298.116, 3543.082
3300.045, 3544.625
3301.973, 3548.796
3303.902, 3543.962
3305.830, 3540.085
3307.759, 3549.316
3309.687, 3554.145
3311.616, 3542.684
3313.544, 3534.536
3315.473, 3532.718
3317.401, 3531.305
3319.330, 3529.729
3321.258, 3524.781
3323.187, 3519.370
3325.115, 3525.333
3327.043, 3533.952
3328.972, 3536.830
3330.900, 3536.284
3332.829, 3533.165
3334.757, 3528.088
3336.686, 3528.085
3338.614, 3517.320
3340.543, 3523.936
3342.471, 3522.719
3344.400, 3516.851
3346.328, 3521.514
3348.257, 3516.303
3350.185, 3520.539
3352.114, 3512.695
3354.042, 3515.610
3355.970, 3518.459
3357.899, 3519.818
3359.827, 3512.867
3361.756, 3496.599
3363.684, 3490.359
3365.613, 3492.649
3367.541, 3487.872
3369.470, 3483.809
3371.398, 3498.083
3373.327, 3511.659
3375.255, 3505.678
3377.184, 3502.313
3379.112, 3510.078
3381.041, 3513.238
3382.969, 3508.752
3384.897, 3501.264
3386.826, 3492.624
3388.754, 3491.272
3390.683, 3494.813
3392.611, 3505.916
3394.540, 3510.600
3396.468, 3493.857
3398.397, 3483.747
3400.325, 3496.375
3402.254, 3505.591
3404.182, 3510.365
3406.111, 3504.018
3408.039, 3491.752
3409.968, 3494.109
3411.896, 3501.471
3413.824, 3503.684
3415.753, 3503.433
3417.681, 3502.046
3419.610, 3499.000
3421.538, 3499.821
3423.467, 3493.430
3425.395, 3498.938
3427.324, 3499.419
3429.252, 3496.650
3431.181, 3492.658
3433.109, 3490.799
3435.038, 3497.409
3436.966, 3501.598
3438.895, 3499.085
3440.823, 3496.101
3442.751, 3493.607
3444.680, 3492.003
3446.608, 3490.904
3448.537, 3487.261
3450.465, 3483.979
3452.394, 3483.775
3454.322, 3487.259
3456.251, 3498.669
3458.179, 3503.859
3460.108, 3499.579
3462.036, 3491.525
3463.965, 3481.367
3465.893, 3478.792
3467.822, 3480.152
3469.750, 3479.550
3471.678, 3477.303
3473.607, 3478.496
3475.535, 3480.550
3477.464, 3478.590
3479.392, 3484.583
3481.321, 3484.645
3483.249, 3480.777
3485.178, 3476.400
3487.106, 3482.890
3489.035, 3488.574
3490.963, 3479.234
3492.892, 3475.661
3494.820, 3486.467
3496.749, 3487.294
3498.677, 3474.680
3500.605, 3474.223
3502.534, 3479.794
3504.462, 3475.332
3506.391, 3470.354
3508.319, 3476.690
3510.248, 3479.691
3512.176, 3470.977
3514.105, 3473.646
3516.033, 3489.444
3517.962, 3495.043
3519.890, 3493.986
3521.819, 3493.943
3523.747, 3494.837
3525.676, 3498.608
3527.604, 3498.291
3529.532, 3486.063
3531.461, 3481.503
3533.389, 3484.568
3535.318, 3489.181
3537.246, 3493.785
3539.175, 3494.522
3541.103, 3495.682
3543.032, 3500.245
3544.960, 3507.425
3546.889, 3518.828
3548.817, 3520.383
3550.746, 3528.887
3552.674, 3522.811
3554.603, 3537.128
3556.531, 3534.637
3558.459, 3530.417
3560.388, 3533.654
3562.316, 3538.266
3564.245, 3543.527
3566.173, 3549.040
3568.102, 3553.909
3570.030, 3554.347
3571.959, 3551.720
3573.887, 3547.273
3575.816, 3541.704
3577.744, 3534.677
3579.673, 3530.829
3581.601, 3531.472
3583.530, 3539.138
3585.458, 3549.429
3587.386, 3547.943
3589.315, 3545.735
3591.243, 3554.111
3593.172, 3557.667
3595.100, 3561.193
3597.029, 3567.198
3598.957, 3569.139
3600.886, 3574.727
3602.814, 3575.844
3604.743, 3575.299
3606.671, 3577.876
3608.600, 3587.337
3610.528, 3594.622
3612.457, 3599.013
3614.385, 3593.732
3616.313, 3583.089
3618.242, 3576.278
3620.170, 3570.793
3622.099, 3563.350
3624.027, 3558.572
3625.956, 3552.755
3627.884, 3552.473
3629.813, 3542.323
3631.741, 3533.494
3633.670, 3528.244
3635.598, 3533.266
3637.527, 3536.831
3639.455, 3535.472
3641.384, 3529.403
3643.312, 3518.986
3645.240, 3512.323
3647.169, 3511.772
3649.097, 3528.199
3651.026, 3539.215
3652.954, 3530.291
3654.883, 3530.091
3656.811, 3545.690
3658.740, 3551.945
3660.668, 3552.600
3662.597, 3558.944
3664.525, 3560.251
3666.454, 3543.765
3668.382, 3535.877
3670.311, 3546.550
3672.239, 3555.609
3674.167, 3560.483
3676.096, 3547.718
3678.024, 3534.528
3679.953, 3538.043
3681.881, 3542.994
3683.810, 3545.716
3685.738, 3545.055
3687.667, 3543.466
3689.595, 3557.231
3691.524, 3570.591
3693.452, 3561.758
3695.381, 3557.375
3697.309, 3567.832
3699.238, 3567.461
3701.166, 3558.161
3703.094, 3562.308
3705.023, 3569.869
3706.951, 3571.357
3708.880, 3567.790
3710.808, 3573.094
3712.737, 3559.155
3714.665, 3573.241
3716.594, 3571.365
3718.522, 3563.323
3720.451, 3556.202
3722.379, 3554.799
3724.308, 3551.807
3726.236, 3562.153
3728.165, 3555.692
3730.093, 3565.115
3732.021, 3576.370
3733.950, 3570.782
3735.878, 3568.129
3737.807, 3574.886
3739.735, 3575.158
3741.664, 3570.492
3743.592, 3580.343
3745.521, 3592.322
3747.449, 3595.240
3749.378, 3593.528
3751.306, 3587.968
3753.235, 3582.459
3755.163, 3577.742
3757.092, 3574.736
3759.020, 3575.760
3760.948, 3585.925
3762.877, 3595.456
3764.805, 3602.689
3766.734, 3603.268
3768.662, 3598.751
3770.591, 3592.214
3772.519, 3585.786
3774.448, 3579.072
3776.376, 3578.948
3778.305, 3586.445
3780.233, 3592.686
3782.162, 3596.727
3784.090, 3600.242
3786.019, 3593.284
3787.947, 3604.412
3789.875, 3602.707
3791.804, 3605.113
3793.732, 3610.221
3795.661, 3605.919
3797.589, 3611.963
3799.518, 3612.404
3801.446, 3614.778
3803.375, 3620.083
3805.303, 3620.996
3807.232, 3627.826
3809.160, 3630.479
3811.089, 3630.322
3813.017, 3631.515
3814.946, 3635.626
3816.874, 3635.611
3818.802, 3634.749
3820.731, 3643.193
3822.659, 3650.567
3824.588, 3650.558
3826.516, 3648.985
3828.445, 3646.773
3830.373, 3654.404
3832.302, 3662.128
3834.230, 3651.460
3836.159, 3646.089
3838.087, 3655.274
3840.016, 3663.987
3841.944, 3671.053
3843.873, 3675.095
3845.801, 3678.461
3847.729, 3682.817
3849.658, 3687.855
3851.586, 3693.689
3853.515, 3698.156
3855.443, 3700.843
3857.372, 3697.073
3859.300, 3700.404
3861.229, 3702.906
3863.157, 3703.447
3865.086, 3706.240
3867.014, 3707.746
3868.943, 3709.391
3870.871, 3711.063
3872.800, 3711.542
3874.728, 3711.425
3876.656, 3720.021
3878.585, 3731.937
3880.513, 3740.141
3882.442, 3745.318
3884.370, 3750.578
3886.299, 3747.186
3888.227, 3755.274
3890.156, 3755.911
3892.084, 3757.312
3894.013, 3767.747
3895.941, 3774.191
3897.870, 3774.850
3899.798, 3774.243
3901.727, 3775.255
3903.655, 3784.821
3905.583, 3791.765
3907.512, 3792.320
3909.440, 3796.254
3911.369, 3802.863
3913.297, 3809.691
3915.226, 3813.937
3917.154, 3813.709
3919.083, 3810.594
3921.011, 3807.092
3922.940, 3819.641
3924.868, 3833.508
3926.797, 3834.180
3928.725, 3836.219
3930.654, 3839.650
3932.582, 3837.689
3934.510, 3840.469
3936.439, 3864.180
3938.367, 3879.887
3940.296, 3876.762
3942.224, 3882.376
3944.153, 3892.578
3946.081, 3891.472
3948.010, 3892.887
3949.938, 3908.651
3951.867, 3911.923
3953.795, 3904.247
3955.724, 3905.035
3957.652, 3907.042
3959.581, 3902.569
3961.509, 3907.545
3963.438, 3923.051
3965.366, 3928.013
3967.294, 3928.503
3969.223, 3931.517
3971.151, 3935.445
3973.080, 3939.719
3975.008, 3942.688
3976.937, 3944.717
3978.865, 3951.317
3980.794, 3954.410
3982.722, 3960.221
3984.651, 3953.314
3986.579, 3970.018
3988.508, 3968.057
3990.436, 3967.832
3992.365, 3982.042
3994.293, 3989.136
3996.221, 3990.606
3998.150, 3998.434
4000.078, 4007.764
4002.007, 4014.725
4003.935, 4024.244
4005.864, 4036.393
4007.792, 4044.395
4009.721, 4048.521
4011.649, 4048.514
4013.578, 4051.353
4015.506, 4056.446
4017.435, 4066.940
4019.363, 4079.582
4021.292, 4088.235
4023.220, 4095.009
4025.148, 4101.813
4027.077, 4105.257
4029.005, 4107.729
4030.934, 4115.278
4032.862, 4126.772
4034.791, 4143.140
4036.719, 4152.247
4038.648, 4155.208
4040.576, 4158.634
4042.505, 4168.195
4044.433, 4172.941
4046.362, 4185.705
4048.290, 4189.292
4050.219, 4198.663
4052.147, 4210.579
4054.075, 4225.790
4056.004, 4230.964
4057.932, 4230.706
4059.861, 4233.845
4061.789, 4239.016
4063.718, 4248.686
4065.646, 4256.329
4067.575, 4260.773
4069.503, 4259.334
4071.432, 4260.619
4073.360, 4263.408
4075.289, 4265.366
4077.217, 4270.042
4079.146, 4275.104
4081.074, 4281.260
4083.002, 4288.292
4084.931, 4296.196
4086.859, 4304.678
4088.788, 4310.451
4090.716, 4316.276
4092.645, 4321.981
4094.573, 4324.605
4096.502, 4329.650
4098.430, 4331.634
4100.359, 4335.709
4102.287, 4337.226
4104.216, 4343.630
4106.144, 4347.922
4108.073, 4353.359
4110.001, 4360.380
4111.930, 4367.966
4113.858, 4373.573
4115.787, 4383.159
4117.715, 4401.066
4119.644, 4400.823
4121.572, 4411.898
4123.500, 4418.884
4125.429, 4418.772
4127.357, 4426.468
4129.286, 4433.001
4131.214, 4443.459
4133.143, 4451.294
4135.071, 4462.201
4137.000, 4471.122
4138.928, 4485.495
4140.856, 4499.481
4142.785, 4514.802
4144.713, 4529.856
4146.642, 4544.521
4148.570, 4558.942
4150.499, 4565.228
4152.427, 4567.068
4154.356, 4581.064
4156.284, 4596.833
4158.213, 4605.674
4160.141, 4625.076
4162.070, 4644.679
4163.998, 4643.167
4165.927, 4648.573
4167.855, 4669.508
4169.784, 4678.021
4171.712, 4684.429
4173.641, 4706.184
4175.569, 4726.386
4177.498, 4733.850
4179.426, 4725.504
4181.354, 4723.464
4183.283, 4742.852
4185.211, 4751.159
4187.140, 4748.862
4189.068, 4754.195
4190.997, 4759.465
4192.925, 4758.174
4194.854, 4771.965
4196.782, 4799.378
4198.710, 4806.269
4200.639, 4799.892
4202.567, 4790.261
4204.496, 4790.599
4206.424, 4798.251
4208.353, 4809.529
4210.281, 4818.796
4212.210, 4819.596
4214.138, 4825.842
4216.067, 4836.659
4217.995, 4837.750
4219.924, 4844.570
4221.852, 4868.573
4223.781, 4880.885
4225.709, 4881.427
4227.638, 4872.972
4229.566, 4873.671
4231.495, 4877.372
4233.423, 4881.410
4235.352, 4892.160
4237.280, 4902.403
4239.208, 4917.747
4241.137, 4936.827
4243.065, 4947.719
4244.994, 4951.774
4246.922, 4944.744
4248.851, 4948.248
4250.779, 4965.875
4252.708, 4978.835
4254.636, 4989.361
4256.564, 4999.645
4258.493, 5005.183
4260.421, 5006.704
4262.350, 5008.759
4264.278, 5014.358
4266.207, 5027.406
4268.135, 5034.657
4270.064, 5037.764
4271.992, 5042.015
4273.921, 5047.267
4275.849, 5053.369
4277.778, 5061.057
4279.706, 5064.912
4281.635, 5052.776
4283.563, 5043.750
4285.492, 5042.277
4287.420, 5041.790
4289.349, 5039.996
4291.277, 5035.008
4293.206, 5024.095
4295.134, 5010.856
4297.063, 5025.897
4298.991, 5033.196
4300.919, 5009.493
4302.848, 4999.379
4304.776, 4996.612
4306.705, 4976.481
4308.633, 4966.613
4310.562, 4976.083
4312.490, 4980.997
4314.418, 4980.171
4316.347, 4969.411
4318.275, 4965.137
4320.204, 4968.462
4322.132, 4963.388
4324.061, 4956.981
4325.989, 4952.992
4327.918, 4952.613
4329.846, 4950.151
4331.775, 4926.224
4333.703, 4907.465
4335.632, 4901.968
4337.560, 4910.965
4339.489, 4920.265
4341.417, 4913.347
4343.346, 4901.994
4345.274, 4890.805
4347.203, 4895.279
4349.131, 4901.798
4351.060, 4902.647
4352.988, 4902.483
4354.917, 4895.938
4356.845, 4862.835
4358.773, 4847.476
4360.702, 4860.115
4362.630, 4867.096
4364.559, 4868.649
4366.487, 4860.552
4368.416, 4863.738
4370.344, 4876.169
4372.272, 4887.210
4374.201, 4892.931
4376.129, 4889.687
4378.058, 4894.726
4379.986, 4897.714
4381.915, 4874.990
4383.843, 4870.806
4385.772, 4888.649
4387.700, 4899.713
4389.629, 4903.496
4391.557, 4897.946
4393.486, 4890.015
4395.414, 4884.277
4397.343, 4893.634
4399.271, 4889.389
4401.200, 4867.961
4403.128, 4896.144
4405.057, 4922.336
4406.985, 4908.258
4408.914, 4901.167
4410.842, 4906.134
4412.771, 4923.247
4414.699, 4954.705
4416.627, 4998.265
4418.556, 5020.836
4420.484, 5045.163
4422.413, 5097.036
4424.341, 5130.577
4426.270, 5155.956
4428.198, 5208.712
4430.126, 5265.831
4432.055, 5320.022
4433.983, 5392.019
4435.912, 5476.705
4437.840, 5575.544
4439.769, 5662.307
4441.697, 5738.231
4443.626, 5815.560
4445.554, 5883.269
4447.483, 5938.350
4449.411, 5971.571
4451.340, 5969.716
4453.268, 5915.949
4455.197, 5868.360
4457.125, 5817.888
4459.054, 5715.841
4460.982, 5635.921
4462.911, 5593.282
4464.839, 5523.534
4466.768, 5451.669
4468.696, 5396.110
4470.625, 5349.063
4472.553, 5310.375
4474.481, 5265.319
4476.410, 5231.331
4478.338, 5197.591
4480.267, 5174.068
4482.195, 5162.941
4484.124, 5154.696
4486.052, 5142.502
4487.980, 5127.749
4489.909, 5111.314
4491.837, 5098.878
4493.766, 5092.157
4495.694, 5092.212
4497.623, 5101.331
4499.551, 5112.237
4501.480, 5136.146
4503.408, 5154.979
4505.337, 5188.138
4507.265, 5225.680
4509.194, 5265.428
4511.122, 5312.152
4513.051, 5350.885
4514.979, 5418.590
4516.908, 5469.719
4518.836, 5536.091
4520.765, 5638.488
4522.693, 5731.916
4524.622, 5829.008
4526.550, 5950.456
4528.479, 6085.604
4530.407, 6234.249
4532.335, 6410.199
4534.264, 6583.254
4536.192, 6743.345
4538.121, 6877.170
4540.049, 6981.683
4541.978, 7053.916
4543.906, 7104.314
4545.834, 7113.986
4547.763, 7034.645
4549.691, 6928.860
4551.620, 6809.996
4553.548, 6676.538
4555.477, 6542.514
4557.405, 6414.739
4559.334, 6297.242
4561.262, 6182.613
4563.191, 6075.327
4565.119, 5980.875
4567.048, 5881.444
4568.976, 5807.797
4570.905, 5731.894
4572.833, 5654.437
4574.762, 5598.933
4576.690, 5566.216
4578.619, 5514.397
4580.547, 5506.074
4582.476, 5451.700
4584.404, 5441.592
4586.333, 5430.600
4588.261, 5416.922
4590.189, 5401.173
4592.118, 5386.313
4594.046, 5374.772
4595.975, 5360.333
4597.903, 5346.373
4599.832, 5338.858
4601.760, 5325.679
4603.688, 5324.005
4605.617, 5317.477
4607.545, 5322.257
4609.474, 5310.833
4611.402, 5315.448
4613.331, 5312.769
4615.259, 5305.861
4617.188, 5308.055
4619.116, 5310.608
4621.045, 5312.124
4622.973, 5310.503
4624.902, 5308.090
4626.830, 5306.729
4628.759, 5301.348
4630.687, 5301.450
4632.616, 5302.924
4634.544, 5315.672
4636.473, 5331.497
4638.401, 5340.237
4640.330, 5341.930
4642.258, 5342.076
4644.187, 5356.172
4646.115, 5369.434
4648.043, 5379.789
4649.972, 5391.210
4651.900, 5405.476
4653.829, 5422.662
4655.757, 5433.718
4657.686, 5448.840
4659.614, 5460.549
4661.542, 5473.433
4663.471, 5490.007
4665.399, 5497.114
4667.328, 5504.720
4669.256, 5514.348
4671.185, 5527.783
4673.113, 5535.262
4675.042, 5539.841
4676.970, 5558.577
4678.899, 5571.785
4680.827, 5576.841
4682.756, 5601.493
4684.684, 5619.912
4686.613, 5623.588
4688.541, 5632.537
4690.470, 5645.039
4692.398, 5658.000
4694.327, 5688.199
4696.255, 5714.108
4698.184, 5713.478
4700.112, 5710.825
4702.041, 5714.826
4703.969, 5740.021
4705.897, 5751.372
4707.826, 5756.426
4709.754, 5789.617
4711.683, 5808.807
4713.611, 5811.529
4715.540, 5818.379
4717.468, 5830.663
4719.396, 5848.036
4721.325, 5870.017
4723.253, 5891.860
4725.182, 5911.562
4727.110, 5927.035
4729.039, 5936.115
4730.967, 5937.411
4732.896, 5951.103
4734.824, 5970.678
4736.753, 5992.757
4738.681, 6004.194
4740.610, 6011.731
4742.538, 6023.019
4744.467, 6034.566
4746.395, 6045.847
4748.324, 6057.851
4750.252, 6062.736
4752.181, 6068.692
4754.109, 6086.517
4756.038, 6097.640
4757.966, 6121.151
4759.895, 6131.337
4761.823, 6147.298
4763.751, 6165.461
4765.680, 6173.215
4767.608, 6186.577
4769.537, 6210.425
4771.465, 6218.952
4773.394, 6243.113
4775.322, 6255.584
4777.250, 6287.346
4779.179, 6327.095
4781.107, 6351.084
4783.036, 6385.497
4784.964, 6421.660
4786.893, 6446.219
4788.821, 6488.185
4790.750, 6518.622
4792.678, 6538.321
4794.607, 6560.241
4796.535, 6590.853
4798.464, 6637.690
4800.392, 6672.392
4802.321, 6702.385
4804.249, 6738.582
4806.178, 6781.185
4808.106, 6819.788
4810.035, 6857.629
4811.963, 6892.432
4813.892, 6927.106
4815.820, 6955.618
4817.749, 6976.032
4819.677, 7001.803
4821.605, 7063.888
4823.534, 7096.193
4825.462, 7104.920
4827.391, 7122.102
4829.319, 7134.227
4831.248, 7143.002
4833.176, 7163.305
4835.104, 7162.109
4837.033, 7146.257
4838.961, 7156.548
4840.890, 7152.231
4842.818, 7127.558
4844.747, 7082.584
4846.675, 7058.069
4848.604, 7054.788
4850.532, 7047.841
4852.461, 7039.350
4854.389, 7029.155
4856.318, 7011.508
4858.246, 7000.507
4860.175, 6991.190
4862.103, 6939.235
4864.032, 6911.755
4865.960, 6917.497
4867.889, 6920.769
4869.817, 6902.280
4871.746, 6865.751
4873.674, 6841.148
4875.603, 6828.378
4877.531, 6824.319
4879.459, 6814.121
4881.388, 6803.146
4883.316, 6794.356
4885.245, 6795.604
4887.173, 6799.948
4889.102, 6800.915
4891.030, 6768.038
4892.958, 6754.968
4894.887, 6764.572
4896.815, 6759.733
4898.744, 6754.823
4900.672, 6755.695
4902.601, 6755.434
4904.529, 6752.348
4906.458, 6762.965
4908.386, 6754.451
4910.315, 6762.948
4912.243, 6778.288
4914.172, 6748.670
4916.100, 6762.567
4918.029, 6751.793
4919.957, 6771.220
4921.886, 6745.320
4923.814, 6738.294
4925.743, 6752.344
4927.671, 6744.449
4929.600, 6725.050
4931.528, 6737.119
4933.457, 6725.968
4935.385, 6701.182
4937.313, 6691.483
4939.242, 6691.634
4941.170, 6687.156
4943.099, 6674.647
4945.027, 6644.988
4946.956, 6646.710
4948.884, 6613.738
4950.813, 6591.910
4952.741, 6571.177
4954.669, 6537.446
4956.598, 6495.743
4958.526, 6459.913
4960.455, 6444.356
4962.383, 6426.622
4964.312, 6398.003
4966.240, 6352.187
4968.169, 6302.603
4970.097, 6257.667
4972.026, 6222.576
4973.954, 6187.917
4975.883, 6185.968
4977.811, 6129.569
4979.740, 6108.383
4981.668, 6075.472
4983.597, 6020.063
4985.525, 5994.562
4987.454, 5970.997
4989.382, 5941.012
4991.311, 5910.902
4993.239, 5883.680
4995.167, 5858.131
4997.096, 5833.065
4999.024, 5799.748
5000.953, 5786.976
5002.881, 5770.850
5004.810, 5749.106
5006.738, 5716.231
5008.667, 5658.735
5010.595, 5631.255
5012.523, 5619.333
5014.452, 5597.316
5016.380, 5581.428
5018.309, 5569.319
5020.237, 5558.979
5022.166, 5542.654
5024.094, 5526.484
5026.023, 5514.529
5027.951, 5514.630
5029.880, 5510.903
5031.808, 5496.706
5033.737, 5492.936
5035.665, 5483.999
5037.594, 5469.545
5039.522, 5472.382
5041.451, 5459.491
5043.379, 5430.780
5045.308, 5400.570
5047.236, 5383.706
5049.165, 5377.670
5051.093, 5376.521
5053.021, 5360.298
5054.950, 5337.218
5056.878, 5318.918
5058.807, 5296.665
5060.735, 5277.128
5062.664, 5265.459
5064.592, 5238.908
5066.521, 5217.963
5068.449, 5209.237
5070.377, 5177.491
5072.306, 5155.028
5074.234, 5146.850
5076.163, 5128.935
5078.091, 5113.175
5080.020, 5097.677
5081.948, 5072.591
5083.877, 5039.485
5085.805, 5010.830
5087.734, 5006.833
5089.662, 4991.098
5091.591, 4972.050
5093.519, 4957.649
5095.448, 4952.970
5097.376, 4950.783
5099.305, 4946.598
5101.233, 4931.081
5103.162, 4922.340
5105.090, 4921.692
5107.019, 4917.206
5108.947, 4884.241
5110.875, 4888.704
5112.804, 4860.369
5114.732, 4869.263
5116.661, 4864.692
5118.589, 4840.120
5120.518, 4839.587
5122.446, 4835.971
5124.375, 4815.280
5126.303, 4815.203
5128.231, 4811.711
5130.160, 4796.028
5132.088, 4766.888
5134.017, 4750.128
5135.945, 4741.430
5137.874, 4719.470
5139.802, 4721.092
5141.731, 4726.972
5143.659, 4709.289
5145.588, 4718.251
5147.516, 4721.062
5149.445, 4701.247
5151.373, 4681.290
5153.302, 4679.525
5155.230, 4689.477
5157.159, 4671.016
5159.087, 4659.858
5161.016, 4654.338
5162.944, 4640.456
5164.873, 4641.271
5166.801, 4642.050
5168.729, 4630.491
5170.658, 4619.204
5172.586, 4611.728
5174.515, 4607.407
5176.443, 4589.885
5178.372, 4580.958
5180.300, 4576.489
5182.229, 4554.477
5184.157, 4555.901
5186.085, 4556.710
5188.014, 4527.722
5189.942, 4533.138
5191.871, 4528.878
5193.799, 4496.631
5195.728, 4479.489
5197.656, 4475.145
5199.585, 4478.396
5201.513, 4485.491
5203.442, 4456.856
5205.370, 4426.844
5207.299, 4440.999
5209.227, 4434.403
5211.156, 4425.088
5213.084, 4419.454
5215.013, 4412.339
5216.941, 4403.110
5218.870, 4396.197
5220.798, 4385.237
5222.727, 4378.954
5224.655, 4372.136
5226.583, 4367.433
5228.512, 4364.182
5230.440, 4363.731
5232.369, 4368.485
5234.297, 4362.909
5236.226, 4357.865
5238.154, 4351.791
5240.083, 4336.907
5242.011, 4326.183
5243.939, 4318.458
5245.868, 4312.573
5247.796, 4315.462
5249.725, 4307.463
5251.653, 4291.876
5253.582, 4303.370
5255.510, 4292.690
5257.439, 4275.530
5259.367, 4279.613
5261.296, 4275.947
5263.224, 4273.005
5265.153, 4275.022
5267.081, 4282.089
5269.010, 4283.219
5270.938, 4279.180
5272.867, 4276.042
5274.795, 4274.585
5276.724, 4259.127
5278.652, 4269.685
5280.581, 4260.707
5282.509, 4258.006
5284.438, 4263.055
5286.366, 4262.236
5288.294, 4252.272
5290.223, 4243.468
5292.151, 4247.546
5294.080, 4240.730
5296.008, 4230.619
5297.937, 4222.187
5299.865, 4225.443
5301.793, 4212.835
5303.722, 4199.229
5305.650, 4207.126
5307.579, 4201.933
5309.507, 4183.546
5311.436, 4189.015
5313.364, 4174.464
5315.293, 4180.066
5317.221, 4173.038
5319.150, 4159.395
5321.078, 4165.345
5323.007, 4167.043
5324.935, 4154.308
5326.864, 4145.919
5328.792, 4129.537
5330.721, 4123.634
5332.649, 4113.196
5334.578, 4110.813
5336.506, 4108.161
5338.435, 4105.063
5340.363, 4091.369
5342.292, 4080.459
5344.220, 4071.412
5346.148, 4061.316
5348.077, 4052.604
5350.005, 4046.597
5351.934, 4038.955
5353.862, 4035.998
5355.791, 4032.483
5357.719, 4030.546
5359.647, 4026.125
5361.576, 4027.206
5363.504, 4018.375
5365.433, 4001.830
5367.361, 4024.839
5369.290, 4009.122
5371.218, 3991.395
5373.147, 4018.937
5375.075, 4007.458
5377.004, 3985.861
5378.932, 3971.752
5380.861, 3985.831
5382.789, 3972.913
5384.718, 3955.878
5386.646, 3957.856
5388.575, 3948.113
5390.503, 3943.845
5392.432, 3945.306
5394.360, 3944.426
5396.289, 3935.075
5398.217, 3928.538
5400.146, 3929.216
5402.074, 3910.904
5404.002, 3899.033
5405.931, 3891.078
5407.859, 3873.769
5409.788, 3875.566
5411.716, 3884.500
5413.645, 3890.991
5415.573, 3881.523
5417.501, 3878.001
5419.430, 3868.493
5421.358, 3840.833
5423.287, 3813.895
5425.215, 3810.049
5427.144, 3816.208
5429.072, 3796.259
5431.001, 3789.958
5432.929, 3741.954
5434.858, 3759.618
5436.786, 3721.795
5438.715, 3700.491
5440.643, 3693.154
5442.572, 3685.814
5444.500, 3668.341
5446.429, 3646.522
5448.357, 3627.257
5450.286, 3622.976
5452.214, 3609.380
5454.143, 3596.592
5456.071, 3589.045
5458.000, 3569.525
5459.928, 3555.461
5461.856, 3543.870
5463.785, 3528.433
5465.713, 3519.762
5467.642, 3507.486
5469.570, 3493.487
5471.499, 3489.542
5473.427, 3483.748
5475.355, 3466.363
5477.284, 3438.965
5479.212, 3426.398
5481.141, 3419.785
5483.069, 3413.142
5484.998, 3402.788
5486.926, 3400.072
5488.855, 3388.539
5490.783, 3367.554
5492.712, 3339.173
5494.640, 3350.878
5496.569, 3351.600
5498.497, 3329.917
5500.426, 3307.246
5502.354, 3306.538
5504.283, 3306.534
5506.211, 3295.809
5508.140, 3297.769
5510.068, 3278.168
5511.997, 3264.514
5513.925, 3256.723
5515.854, 3243.371
5517.782, 3241.359
5519.710, 3228.776
5521.639, 3236.392
5523.567, 3238.488
5525.496, 3230.185
5527.424, 3216.745
5529.353, 3214.104
5531.281, 3198.298
5533.209, 3184.229
5535.138, 3179.386
5537.066, 3174.569
5538.995, 3187.045
5540.923, 3193.608
5542.852, 3177.969
5544.780, 3163.921
5546.709, 3143.518
5548.637, 3131.285
5550.566, 3139.787
5552.494, 3124.338
5554.423, 3113.803
5556.351, 3109.281
5558.280, 3100.404
5560.208, 3088.760
5562.137, 3084.958
5564.065, 3063.838
5565.994, 3054.623
5567.922, 3041.077
5569.851, 3032.238
5571.779, 3028.342
5573.708, 3019.802
5575.636, 3013.104
5577.564, 3006.093
5579.493, 2996.292
5581.421, 2988.386
5583.350, 2974.419
5585.278, 2960.024
5587.207, 2948.548
5589.135, 2945.927
5591.063, 2932.265
5592.992, 2920.502
5594.920, 2920.782
5596.849, 2910.802
5598.777, 2913.369
5600.706, 2906.790
5602.634, 2874.027
5604.563, 2869.330
5606.491, 2864.520
5608.420, 2857.300
5610.348, 2851.796
5612.277, 2831.238
5614.205, 2829.157
5616.134, 2833.184
5618.062, 2817.909
5619.991, 2820.457
5621.919, 2815.012
5623.848, 2804.469
5625.776, 2800.726
5627.705, 2788.528
5629.633, 2772.284
5631.562, 2763.175
5633.490, 2773.045
5635.418, 2759.229
5637.347, 2747.724
5639.275, 2740.418
5641.204, 2725.215
5643.132, 2727.728
5645.061, 2717.575
5646.989, 2703.708
5648.917, 2714.882
5650.846, 2698.584
5652.774, 2683.345
5654.703, 2680.575
5656.631, 2691.942
5658.560, 2681.744
5660.488, 2673.107
5662.417, 2667.603
5664.345, 2656.950
5666.274, 2640.412
5668.202, 2643.358
5670.131, 2629.448
5672.059, 2628.601
5673.988, 2615.191
5675.916, 2610.052
5677.845, 2608.329
5679.773, 2604.188
5681.702, 2601.937
5683.630, 2599.595
5685.559, 2592.605
5687.487, 2578.013
5689.416, 2566.487
5691.344, 2562.225
5693.272, 2561.895
5695.201, 2560.533
5697.129, 2547.514
5699.058, 2535.742
5700.986, 2529.385
5702.915, 2529.285
5704.843, 2533.162
5706.771, 2526.002
5708.700, 2518.862
5710.628, 2517.401
5712.557, 2501.161
5714.485, 2497.460
5716.414, 2492.381
5718.342, 2478.028
5720.271, 2461.216
5722.199, 2461.409
5724.128, 2455.486
5726.056, 2443.158
5727.985, 2453.868
5729.913, 2444.024
5731.842, 2430.868
5733.770, 2421.115
5735.699, 2409.931
5737.627, 2419.165
5739.556, 2421.514
5741.484, 2414.106
5743.413, 2404.906
5745.341, 2391.290
5747.270, 2382.910
5749.198, 2376.946
5751.126, 2369.576
5753.055, 2372.214
5754.983, 2364.869
5756.912, 2357.134
5758.840, 2354.762
5760.769, 2343.661
5762.697, 2332.791
5764.625, 2327.184
5766.554, 2325.998
5768.482, 2323.767
5770.411, 2306.753
5772.339, 2295.254
5774.268, 2291.128
5776.196, 2283.902
5778.125, 2282.930
5780.053, 2278.529
5781.982, 2271.743
5783.910, 2266.960
5785.839, 2255.229
5787.767, 2257.791
5789.696, 2234.943
5791.624, 2225.081
5793.553, 2224.864
5795.481, 2226.882
5797.410, 2226.765
5799.338, 2222.986
5801.267, 2215.963
5803.195, 2204.293
5805.124, 2194.755
5807.052, 2184.375
5808.980, 2169.130
5810.909, 2171.095
5812.837, 2162.696
5814.766, 2154.053
5816.694, 2154.137
5818.623, 2155.354
5820.551, 2149.653
5822.479, 2141.987
5824.408, 2134.090
5826.336, 2125.493
5828.265, 2119.834
5830.193, 2100.242
5832.122, 2111.920
5834.050, 2090.720
5835.979, 2092.963
5837.907, 2087.868
5839.836, 2076.639
5841.764, 2064.642
5843.693, 2054.458
5845.621, 2062.177
5847.550, 2061.454
5849.478, 2048.819
5851.407, 2034.276
5853.335, 2038.089
5855.264, 2020.157
5857.192, 2007.540
5859.121, 2017.047
5861.049, 2017.030
5862.978, 2005.503
5864.906, 1993.569
5866.834, 1985.836
5868.763, 1981.862
5870.691, 1982.503
5872.620, 1974.698
5874.548, 1960.546
5876.477, 1947.421
5878.405, 1952.842
5880.333, 1954.094
5882.262, 1944.991
5884.190, 1935.666
5886.119, 1943.292
5888.047, 1923.552
5889.976, 1915.267
5891.904, 1914.870
5893.833, 1910.880
5895.761, 1896.877
5897.690, 1896.623
5899.618, 1895.899
5901.547, 1889.011
5903.475, 1878.292
5905.404, 1871.860
5907.332, 1863.019
5909.261, 1862.007
5911.189, 1851.778
5913.118, 1844.858
5915.046, 1837.618
5916.975, 1830.256
5918.903, 1828.519
5920.832, 1839.564
5922.760, 1815.008
5924.688, 1815.380
5926.617, 1811.572
5928.545, 1796.248
5930.474, 1795.132
5932.402, 1791.847
5934.331, 1789.947
5936.259, 1778.580
5938.188, 1771.914
5940.116, 1754.016
5942.044, 1752.031
5943.973, 1740.536
5945.901, 1732.077
5947.830, 1743.319
5949.758, 1736.188
5951.687, 1731.807
5953.615, 1720.332
5955.544, 1706.108
5957.472, 1708.159
5959.401, 1704.249
5961.329, 1692.333
5963.258, 1680.753
5965.186, 1676.018
5967.115, 1678.464
5969.043, 1673.764
5970.972, 1666.131
5972.900, 1657.637
5974.829, 1649.460
5976.757, 1644.365
5978.686, 1650.601
5980.614, 1657.823
5982.542, 1658.597
5984.471, 1649.901
5986.399, 1626.358
5988.328, 1624.487
5990.256, 1617.253
5992.185, 1603.187
5994.113, 1605.948
5996.042, 1582.736
5997.970, 1589.913
5999.898, 1593.391
6001.827, 1579.088
6003.755, 1579.826
6005.684, 1573.137
6007.612, 1557.575
6009.541, 1551.427
6011.469, 1544.944
6013.398, 1539.534
6015.326, 1536.263
6017.255, 1532.528
6019.183, 1530.272
6021.112, 1527.199
6023.040, 1525.159
6024.969, 1521.019
6026.897, 1520.267
6028.826, 1515.212
6030.754, 1509.817
6032.683, 1495.174
6034.611, 1494.825
6036.540, 1484.846
6038.468, 1473.055
6040.396, 1473.140
6042.325, 1468.776
6044.253, 1470.316
6046.182, 1468.009
6048.110, 1457.517
6050.039, 1455.020
6051.967, 1454.748
6053.896, 1441.789
6055.824, 1435.188
6057.752, 1429.518
6059.681, 1412.292
6061.609, 1420.488
6063.538, 1422.000
6065.466, 1410.093
6067.395, 1395.102
6069.323, 1388.619
6071.252, 1392.151
6073.180, 1383.079
6075.109, 1383.862
6077.037, 1384.174
6078.966, 1371.072
6080.894, 1359.034
6082.823, 1361.291
6084.751, 1356.474
6086.680, 1348.051
6088.608, 1343.687
6090.537, 1341.004
6092.465, 1345.193
6094.394, 1328.704
6096.322, 1316.552
6098.250, 1320.348
6100.179, 1313.431
6102.107, 1319.449
6104.036, 1313.234
6105.964, 1303.605
6107.893, 1298.672
6109.821, 1292.794
6111.750, 1290.433
6113.678, 1283.769
6115.606, 1279.862
6117.535, 1276.669
6119.463, 1271.072
6121.392, 1268.632
6123.320, 1270.005
6125.249, 1263.288
6127.177, 1260.159
6129.106, 1258.864
6131.034, 1252.711
6132.963, 1251.432
6134.891, 1240.421
6136.820, 1228.579
6138.748, 1224.329
6140.677, 1220.285
6142.605, 1214.466
6144.534, 1220.223
6146.462, 1209.996
6148.391, 1210.490
6150.319, 1213.622
6152.248, 1200.105
6154.176, 1196.289
6156.104, 1194.415
6158.033, 1190.635
6159.961, 1187.240
6161.890, 1188.874
6163.818, 1175.405
6165.747, 1160.091
6167.675, 1159.831
6169.604, 1150.135
6171.532, 1160.646
6173.460, 1143.827
6175.389, 1148.365
6177.317, 1149.684
6179.246, 1142.439
6181.174, 1139.499
6183.103, 1138.132
6185.031, 1134.020
6186.960, 1127.457
6188.888, 1120.652
6190.817, 1114.858
6192.745, 1108.984
6194.674, 1109.321
6196.602, 1102.719
6198.531, 1103.623
6200.459, 1106.463
6202.388, 1094.537
6204.316, 1093.018
6206.245, 1087.823
6208.173, 1091.202
6210.102, 1086.039
6212.030, 1082.950
6213.958, 1072.443
6215.887, 1073.516
6217.815, 1065.427
6219.744, 1058.210
6221.672, 1058.715
6223.601, 1053.114
6225.529, 1056.878
6227.458, 1048.450
6229.386, 1051.893
6231.314, 1049.684
6233.243, 1041.641
6235.171, 1044.420
6237.100, 1026.616
6239.028, 1023.082
6240.957, 1019.977
6242.885, 1015.906
6244.814, 1011.667
6246.742, 1007.874
6248.671, 1003.278
6250.599, 1001.064
6252.528, 995.3566
6254.456, 994.9718
6256.385, 993.8053
6258.313, 995.6457
6260.242, 987.4720
6262.170, 985.8774
6264.099, 984.7028
6266.027, 977.0057
6267.956, 965.2668
6269.884, 966.9673
6271.813, 962.2599
6273.741, 962.9263
6275.669, 966.0649
6277.598, 962.4728
6279.526, 947.6911
6281.455, 936.1966
6283.383, 944.0329
6285.312, 951.3196
6287.240, 940.9363
6289.168, 926.5016
6291.097, 932.3607
6293.025, 923.2329
6294.954, 916.2640
6296.882, 916.1027
6298.811, 910.1293
6300.739, 908.0045
6302.668, 906.0846
6304.596, 903.8506
6306.525, 904.3698
6308.453, 903.2870
6310.382, 897.7114
6312.310, 892.0114
6314.239, 892.7176
6316.167, 885.8672
6318.096, 886.7577
6320.024, 883.6535
6321.953, 878.6161
6323.881, 871.7080
6325.810, 869.3755
6327.738, 868.1139
6329.667, 861.4535
6331.595, 857.6290
6333.523, 850.9078
6335.452, 847.1252
6337.380, 852.3898
6339.309, 847.5083
6341.237, 843.4152
6343.166, 836.7116
6345.094, 833.3676
6347.022, 833.8029
6348.951, 834.8993
6350.879, 834.1329
6352.808, 833.2188
6354.736, 830.1436
6356.665, 826.4525
6358.593, 822.7635
6360.522, 811.7306
6362.450, 808.9612
6364.379, 812.2499
6366.307, 802.8184
6368.236, 802.6473
6370.164, 800.4213
6372.093, 790.8665
6374.021, 782.2052
6375.950, 779.7404
6377.878, 774.2473
6379.807, 781.1647
6381.735, 785.4423
6383.664, 776.5394
6385.592, 763.8444
6387.521, 770.6437
6389.449, 762.1826
6391.377, 762.5498
6393.306, 765.1287
6395.234, 759.5051
6397.163, 760.4951
6399.091, 754.8377
6401.020, 755.2545
6402.948, 750.4587
6404.876, 742.8015
6406.805, 741.1642
6408.733, 739.1054
6410.662, 733.4520
6412.590, 736.6909
6414.519, 729.1920
6416.447, 731.5734
6418.376, 729.9061
6420.304, 725.0450
6422.233, 721.4647
6424.161, 719.2194
6426.090, 712.2990
6428.018, 712.7493
6429.947, 711.4180
6431.875, 706.9410
6433.804, 703.9263
6435.732, 702.8705
6437.661, 701.3308
6439.589, 697.6497
6441.518, 695.7122
6443.446, 689.6263
6445.375, 688.9188
6447.303, 683.1221
6449.231, 677.5321
6451.160, 677.0121
6453.088, 672.5681
6455.017, 675.0411
6456.945, 668.6831
6458.874, 669.3677
6460.802, 669.4423
6462.730, 663.9033
6464.659, 664.5992
6466.587, 660.4344
6468.516, 655.1280
6470.444, 654.5917
6472.373, 647.3871
6474.301, 646.1837
6476.230, 643.1326
6478.158, 645.4821
6480.087, 639.9325
6482.015, 637.2555
6483.944, 639.6141
6485.872, 634.7623
6487.801, 632.0726
6489.729, 634.7640
6491.658, 629.0240
6493.586, 626.3463
6495.515, 624.4923
6497.443, 617.6727
6499.372, 621.5269
6501.300, 621.2865
6503.229, 613.6315
6505.157, 612.1763
6507.085, 603.9471
6509.014, 608.3516
6510.942, 606.2146
6512.871, 607.2438
6514.799, 605.5911
6516.728, 597.4788
6518.656, 588.3358
6520.584, 586.0154
6522.513, 590.8322
6524.441, 589.1227
6526.370, 589.3075
6528.298, 589.9213
6530.227, 587.6881
6532.155, 583.9323
6534.084, 582.5105
6536.012, 581.1139
6537.941, 579.6327
6539.869, 573.3834
6541.798, 576.5190
6543.726, 572.8837
6545.655, 567.4153
6547.583, 560.8930
6549.512, 556.6085
6551.440, 555.3537
6553.369, 553.3204
6555.297, 554.9344
6557.226, 552.7467
6559.154, 551.9400
6561.083, 549.8372
6563.011, 547.7132
6564.939, 544.4672
6566.868, 542.5032
6568.796, 541.4510
6570.725, 537.6873
6572.653, 534.4201
6574.582, 533.4937
6576.510, 533.1588
6578.438, 531.3165
6580.367, 531.1976
6582.295, 530.8611
6584.224, 530.9924
6586.152, 529.7704
6588.081, 526.1832
6590.009, 523.0446
6591.938, 517.9767
6593.866, 514.4995
6595.795, 510.9485
6597.723, 515.1118
6599.652, 514.2571
6601.580, 513.2587
6603.509, 510.3301
6605.437, 509.1032
6607.366, 510.2059
6609.294, 505.9683
6611.223, 505.2329
6613.151, 502.2651
6615.080, 500.8749
6617.008, 497.8116
6618.937, 495.5079
6620.865, 493.7741
6622.793, 492.9805
6624.722, 493.6955
6626.650, 493.7730
6628.579, 485.0567
6630.507, 488.0260
##END=



