##NAMES=Grossular
##RRUFFID=R040065
##IDEAL CHEMISTRY=Ca_3_Al_2_(SiO_4_)_3_
##LOCALITY=Feng Tien mine, Taiwan
##OWNER=RRUFF
##SOURCE=University of Arizona Mineral Museum
##DESCRIPTION=Orange-brown trapezohedral crystals
##STATUS=The identification of this mineral has been confirmed by X-ray diffraction and chemical analysis
##URL=https://www.rruff.net/odr/rruff_sample/R040065
##MEASURED CHEMISTRY=(Ca_2.90_Fe^2+^_0.05_Mn_0.05_)(Al_1.95_Fe^3+^_0.03_Ti_0.02_)((Si_0.99_Al_0.01_)O_4_)_3_
##DIFFRACTION SAMPLE DESCRIPTION=Powder
##CELL PARAMETERS=a: 11.8517 b: 11.8517 c: 11.8517 alpha: 90 beta: 90 gamma: 90 volume: 1664.75 crystal system: cubic
##FILETYPE=Raman RAW
##RAMAN WAVELENGTH=785

131.1367, 251.7042
133.0652, 271.1413
134.9937, 280.0296
136.9221, 276.1963
138.8506, 268.6435
140.7791, 283.8982
142.7075, 332.2851
144.6360, 383.9930
146.5645, 450.1978
148.4929, 505.4652
150.4214, 534.6292
152.3499, 547.4534
154.2783, 552.0103
156.2068, 544.6998
158.1353, 548.4697
160.0637, 564.8348
161.9922, 587.8701
163.9207, 611.4601
165.8491, 646.1343
167.7776, 682.4341
169.7061, 727.0850
171.6345, 860.1245
173.5630, 1145.484
175.4915, 1391.759
177.4199, 1648.229
179.3484, 1778.789
181.2769, 1646.162
183.2053, 1364.504
185.1338, 1128.983
187.0623, 939.6990
188.9907, 807.8021
190.9192, 750.8036
192.8477, 716.3883
194.7761, 695.4175
196.7046, 683.4803
198.6331, 678.9943
200.5615, 681.1848
202.4900, 680.7505
204.4185, 674.5790
206.3470, 673.6203
208.2754, 681.3373
210.2039, 691.3100
212.1324, 698.8333
214.0608, 707.0147
215.9893, 721.4430
217.9178, 743.3525
219.8462, 761.4380
221.7747, 763.1165
223.7032, 787.2576
225.6316, 830.8092
227.5601, 918.2546
229.4886, 1065.362
231.4170, 1265.457
233.3455, 1503.598
235.2740, 1797.118
237.2024, 2078.120
239.1309, 2364.127
241.0594, 2606.192
242.9878, 2878.274
244.9163, 3011.155
246.8448, 2793.862
248.7732, 2276.964
250.7017, 1831.767
252.6302, 1445.181
254.5586, 1174.787
256.4871, 1060.938
258.4156, 1008.992
260.3440, 980.8826
262.2725, 985.5906
264.2010, 1015.917
266.1294, 1076.133
268.0579, 1271.242
269.9864, 1621.911
271.9148, 2020.229
273.8433, 2605.501
275.7718, 2979.719
277.7002, 2868.879
279.6287, 2504.579
281.5572, 2093.902
283.4856, 1641.634
285.4141, 1318.731
287.3426, 1138.094
289.2710, 1010.235
291.1995, 936.2534
293.1280, 887.1028
295.0564, 850.6546
296.9849, 827.7419
298.9134, 821.8372
300.8418, 832.2873
302.7703, 847.8567
304.6988, 867.7072
306.6272, 895.0594
308.5557, 932.9755
310.4842, 974.0877
312.4126, 1021.090
314.3411, 1064.582
316.2696, 1088.646
318.1980, 1098.554
320.1265, 1128.734
322.0550, 1178.447
323.9834, 1250.934
325.9119, 1375.173
327.8404, 1460.812
329.7689, 1453.017
331.6973, 1407.676
333.6258, 1340.694
335.5543, 1269.789
337.4827, 1247.886
339.4112, 1275.978
341.3397, 1349.718
343.2681, 1485.944
345.1966, 1617.435
347.1251, 1709.665
349.0535, 1806.771
350.9820, 1887.141
352.9105, 2011.231
354.8389, 2229.833
356.7674, 2560.524
358.6959, 3183.541
360.6243, 4080.239
362.5528, 5362.289
364.4813, 7202.044
366.4097, 9173.576
368.3382, 11609.80
370.2667, 13630.26
372.1951, 14581.03
374.1236, 14471.00
376.0521, 12998.79
377.9805, 10160.41
379.9090, 7689.111
381.8375, 5692.716
383.7659, 4159.381
385.6944, 3239.645
387.6229, 2610.644
389.5513, 2201.628
391.4798, 1939.527
393.4083, 1750.159
395.3367, 1629.232
397.2652, 1542.981
399.1937, 1491.161
401.1221, 1462.896
403.0506, 1440.223
404.9791, 1483.286
406.9075, 1630.024
408.8360, 1829.282
410.7645, 2151.792
412.6929, 2454.357
414.6214, 2506.224
416.5499, 2321.253
418.4783, 2041.745
420.4068, 1651.873
422.3353, 1341.405
424.2637, 1154.855
426.1922, 1022.758
428.1207, 936.5164
430.0491, 878.7386
431.9776, 849.9081
433.9061, 837.8793
435.8345, 828.0992
437.7630, 819.3508
439.6915, 803.6094
441.6199, 780.0978
443.5484, 762.9514
445.4769, 755.6931
447.4053, 751.5839
449.3338, 751.1295
451.2623, 750.0462
453.1907, 746.0502
455.1192, 740.3764
457.0477, 733.6702
458.9761, 726.6279
460.9046, 719.5908
462.8331, 712.8999
464.7615, 715.5309
466.6900, 725.8410
468.6185, 755.2561
470.5469, 821.6784
472.4754, 888.5750
474.4039, 965.5237
476.3323, 1017.291
478.2608, 1000.513
480.1893, 943.0762
482.1177, 893.6787
484.0462, 852.7812
485.9747, 826.4636
487.9031, 816.1324
489.8316, 808.6952
491.7601, 796.3358
493.6886, 799.3328
495.6170, 811.8687
497.5455, 852.7582
499.4740, 931.4521
501.4024, 1042.675
503.3309, 1223.944
505.2594, 1419.238
507.1878, 1503.469
509.1163, 1483.115
511.0448, 1384.600
512.9732, 1190.661
514.9017, 1035.490
516.8301, 942.6430
518.7586, 892.6208
520.6871, 905.6256
522.6155, 927.5458
524.5440, 940.2762
526.4725, 940.5181
528.4009, 904.6268
530.3294, 861.9059
532.2579, 848.7616
534.1863, 877.4218
536.1148, 1005.332
538.0433, 1221.172
539.9717, 1664.866
541.9002, 2547.295
543.8287, 3289.091
545.7571, 3982.484
547.6856, 4262.360
549.6141, 3764.062
551.5425, 3014.144
553.4710, 2316.048
555.3995, 1730.221
557.3279, 1368.306
559.2564, 1185.857
561.1849, 1070.288
563.1133, 1017.767
565.0418, 974.2938
566.9703, 936.3671
568.8987, 903.8635
570.8272, 881.4679
572.7557, 857.1899
574.6842, 820.7575
576.6127, 791.8093
578.5411, 782.4641
580.4696, 783.3322
582.3981, 787.9466
584.3265, 795.4915
586.2550, 812.0076
588.1835, 830.0246
590.1119, 818.8458
592.0404, 776.1404
593.9689, 728.4025
595.8973, 670.4421
597.8258, 626.2851
599.7543, 600.6925
601.6827, 584.0982
603.6112, 574.7148
605.5397, 574.1355
607.4681, 588.1157
609.3966, 605.9917
611.3251, 617.3274
613.2535, 628.9091
615.1820, 642.2031
617.1105, 664.3145
619.0389, 717.4213
620.9674, 800.2825
622.8959, 888.1982
624.8243, 993.7458
626.7528, 1049.746
628.6813, 1048.983
630.6097, 1002.402
632.5382, 874.6135
634.4667, 755.9192
636.3951, 664.7725
638.3236, 594.9988
640.2521, 549.3547
642.1805, 517.9268
644.1090, 497.0804
646.0375, 482.3270
647.9659, 469.6596
649.8944, 458.3098
651.8229, 445.9397
653.7513, 432.6645
655.6798, 421.7891
657.6083, 414.2153
659.5367, 405.2266
661.4652, 391.4062
663.3937, 382.4185
665.3221, 380.6822
667.2506, 379.7291
669.1791, 378.8510
671.1075, 378.0724
673.0360, 378.0764
674.9645, 377.3229
676.8929, 373.8635
678.8214, 370.2516
680.7499, 367.4524
682.6783, 366.7112
684.6068, 371.4946
686.5353, 379.3412
688.4637, 382.4243
690.3922, 381.2128
692.3207, 383.4861
694.2491, 390.8747
696.1776, 391.1443
698.1061, 378.8824
700.0345, 373.8199
701.9630, 378.1740
703.8915, 385.0856
705.8199, 396.0963
707.7484, 404.1808
709.6769, 405.7385
711.6053, 406.5268
713.5338, 408.8726
715.4623, 411.8502
717.3907, 415.4877
719.3192, 418.8420
721.2477, 420.5455
723.1761, 421.9676
725.1046, 425.3724
727.0331, 429.8116
728.9615, 431.7778
730.8900, 432.4281
732.8185, 440.1808
734.7469, 455.3462
736.6754, 462.0603
738.6039, 456.1341
740.5323, 464.2026
742.4608, 489.9776
744.3893, 513.8444
746.3177, 532.6139
748.2462, 554.4898
750.1747, 581.1323
752.1031, 610.7971
754.0316, 642.4279
755.9601, 678.0612
757.8885, 717.2032
759.8170, 762.6099
761.7455, 818.8566
763.6740, 878.3913
765.6024, 945.5226
767.5309, 1004.368
769.4594, 1040.102
771.3878, 1057.858
773.3163, 1063.695
775.2448, 1057.543
777.1732, 1035.051
779.1017, 1000.848
781.0302, 970.7002
782.9586, 944.5856
784.8871, 920.3695
786.8156, 897.9434
788.7440, 893.0543
790.6725, 905.7302
792.6010, 933.3687
794.5294, 973.7294
796.4579, 1050.693
798.3864, 1170.739
800.3148, 1305.835
802.2433, 1447.451
804.1718, 1615.444
806.1002, 1810.306
808.0287, 2041.801
809.9572, 2295.888
811.8856, 2620.656
813.8141, 3024.127
815.7426, 3519.929
817.6710, 4211.668
819.5995, 4864.689
821.5280, 5498.917
823.4564, 5870.027
825.3849, 5734.741
827.3134, 5325.599
829.2418, 4728.279
831.1703, 4101.387
833.0988, 3603.724
835.0272, 3229.058
836.9557, 2980.024
838.8842, 2840.776
840.8126, 2805.038
842.7411, 2843.605
844.6696, 2894.559
846.5980, 2947.339
848.5265, 2955.370
850.4550, 2926.261
852.3834, 2880.814
854.3119, 2830.754
856.2404, 2851.642
858.1688, 2948.695
860.0973, 3131.959
862.0258, 3405.078
863.9542, 3840.315
865.8827, 4436.514
867.8112, 5423.131
869.7396, 6821.866
871.6681, 8743.602
873.5966, 11357.12
875.5250, 13681.18
877.4535, 15800.50
879.3820, 16631.78
881.3104, 15770.69
883.2389, 14189.04
885.1674, 11699.06
887.0958, 9361.022
889.0243, 7284.068
890.9528, 5598.219
892.8812, 4404.631
894.8097, 3483.464
896.7382, 2858.463
898.6666, 2378.510
900.5951, 2031.780
902.5236, 1770.770
904.4521, 1607.948
906.3806, 1483.431
908.3090, 1386.718
910.2375, 1299.495
912.1660, 1210.604
914.0944, 1131.369
916.0229, 1074.748
917.9514, 1021.693
919.8798, 960.5675
921.8083, 898.3117
923.7368, 834.3367
925.6652, 778.0955
927.5937, 738.0535
929.5222, 707.3496
931.4506, 682.0903
933.3791, 661.4951
935.3076, 644.7435
937.2360, 632.3674
939.1645, 624.4100
941.0930, 621.4955
943.0214, 630.5493
944.9499, 638.4068
946.8784, 631.3841
948.8068, 614.7990
950.7353, 589.1993
952.6638, 562.7242
954.5922, 547.3744
956.5207, 534.5045
958.4492, 508.2917
960.3776, 483.2160
962.3061, 478.9626
964.2346, 485.4285
966.1630, 492.4075
968.0915, 499.8065
970.0200, 505.3295
971.9484, 513.0492
973.8769, 528.4716
975.8054, 549.4368
977.7338, 575.1514
979.6623, 602.7046
981.5908, 629.5767
983.5192, 654.2704
985.4477, 669.7551
987.3762, 685.7396
989.3046, 713.2194
991.2331, 752.6331
993.1616, 803.8849
995.0900, 867.9500
997.0185, 941.8774
998.9470, 1033.048
1000.875, 1177.388
1002.804, 1322.752
1004.732, 1426.285
1006.661, 1461.005
1008.589, 1365.609
1010.518, 1203.354
1012.446, 1026.629
1014.375, 858.7260
1016.303, 724.2480
1018.232, 619.0807
1020.160, 543.4864
1022.089, 489.4976
1024.017, 451.4729
1025.945, 427.0652
1027.874, 419.9133
1029.802, 418.5450
1031.731, 414.1429
1033.659, 407.6528
1035.588, 397.9200
1037.516, 388.7932
1039.445, 383.5702
1041.373, 380.0932
1043.302, 378.1275
1045.230, 375.4606
1047.159, 371.3293
1049.087, 364.8515
1051.016, 351.8557
1052.944, 341.8483
1054.872, 343.0551
1056.801, 344.9731
1058.729, 343.5546
1060.658, 338.0239
1062.586, 324.2050
1064.515, 313.3801
1066.443, 311.3311
1068.372, 312.2502
1070.300, 315.6530
1072.229, 316.8767
1074.157, 312.3893
1076.086, 310.3217
1078.014, 314.1957
1079.943, 318.3474
1081.871, 321.3650
1083.800, 324.1452
1085.728, 328.1572
1087.656, 325.8458
1089.585, 313.3499
1091.513, 305.8175
1093.442, 306.0715
1095.370, 311.6646
1097.299, 323.2464
1099.227, 330.7237
1101.156, 332.6605
1103.084, 333.2285
1105.013, 332.5733
1106.941, 342.3449
1108.870, 362.9303
1110.798, 376.8454
1112.727, 384.9761
1114.655, 412.5310
1116.583, 458.0443
1118.512, 508.1778
1120.440, 560.2028
1122.369, 605.4381
1124.297, 640.2266
1126.226, 655.3594
1128.154, 649.5225
1130.083, 610.4713
1132.011, 555.5644
1133.940, 511.9028
1135.868, 475.4951
1137.797, 438.1906
1139.725, 408.0325
1141.654, 396.7753
1143.582, 393.2580
1145.510, 388.7359
1147.439, 386.8155
1149.367, 394.0806
1151.296, 398.5355
1153.224, 391.3834
1155.153, 384.0875
1157.081, 381.1980
1159.010, 378.5514
1160.938, 374.3579
1162.867, 372.1180
1164.795, 373.2652
1166.724, 374.0982
1168.652, 374.4995
1170.581, 372.2173
1172.509, 366.7722
1174.438, 360.4565
1176.366, 353.4979
1178.294, 349.8081
1180.223, 349.0842
1182.151, 346.9346
1184.080, 342.9597
1186.008, 334.7072
1187.937, 324.6461
1189.865, 320.2842
1191.794, 319.0248
1193.722, 315.9763
1195.651, 312.6509
1197.579, 310.2863
1199.508, 309.7520
1201.436, 315.0429
1203.365, 318.2752
1205.293, 307.7576
1207.221, 301.9210
1209.150, 316.5201
1211.078, 328.7790
1213.007, 330.1192
1214.935, 327.7208
1216.864, 318.6379
1218.792, 315.2537
1220.721, 321.4074
1222.649, 325.9180
1224.578, 328.4022
1226.506, 328.4698
1228.435, 326.0436
1230.363, 324.0526
1232.292, 323.0486
1234.220, 328.3448
1236.148, 336.8794
1238.077, 338.2249
1240.005, 336.4484
1241.934, 336.7059
1243.862, 340.5131
1245.791, 353.3717
1247.719, 365.0686
1249.648, 367.3743
1251.576, 366.4068
1253.505, 363.1500
1255.433, 361.8433
1257.362, 364.5231
1259.290, 368.4380
1261.219, 375.5113
1263.147, 377.1370
1265.075, 372.0414
1267.004, 361.5995
1268.932, 344.8891
1270.861, 334.4791
1272.789, 330.1077
1274.718, 331.4667
1276.646, 335.9965
1278.575, 334.9026
1280.503, 333.0728
1282.432, 341.4798
1284.360, 348.9299
1286.289, 339.7671
1288.217, 335.2603
1290.146, 351.0494
1292.074, 365.7881
1294.002, 368.3962
1295.931, 377.6421
1297.859, 399.0535
1299.788, 423.2136
1301.716, 448.6009
1303.645, 482.8039
1305.573, 525.4475
1307.502, 541.7488
1309.430, 535.8923
1311.359, 522.7017
1313.287, 504.8552
1315.216, 487.7163
1317.144, 469.1750
1319.073, 442.1904
1321.001, 419.7066
1322.929, 413.7228
1324.858, 405.9077
1326.786, 387.6974
1328.715, 373.4767
1330.643, 366.8380
1332.572, 362.1374
1334.500, 358.4884
1336.429, 363.5574
1338.357, 376.3695
1340.286, 380.3157
1342.214, 379.9286
1344.143, 388.9430
1346.071, 402.1856
1348.000, 408.2067
1349.928, 419.5095
1351.856, 446.5637
1353.785, 483.2468
1355.713, 532.4288
1357.642, 577.8010
1359.570, 618.3935
1361.499, 640.8693
1363.427, 643.4831
1365.356, 628.5037
1367.284, 598.2990
1369.213, 563.9861
1371.141, 528.3853
1373.070, 497.7405
1374.998, 469.6378
1376.927, 438.9228
1378.855, 411.9989
1380.783, 394.7603
1382.712, 381.0022
1384.640, 368.4764
1386.569, 359.7747
1388.497, 356.4520
1390.426, 347.2547
1392.354, 332.2180
1394.283, 326.5236
1396.211, 328.6608
1398.140, 333.5942
1400.068, 337.8108
1401.997, 333.7675
1403.925, 329.4667
1405.854, 334.0539
1407.782, 337.0134
1409.710, 328.7292
1411.639, 328.4417
1413.567, 343.2395
1415.496, 347.2920
1417.424, 339.3762
1419.353, 331.5931
1421.281, 326.8813
1423.210, 339.5327
1425.138, 354.9779
1427.067, 349.5680
1428.995, 341.6312
1430.924, 348.1607
1432.852, 351.4838
1434.781, 339.6676
1436.709, 334.3722
1438.637, 340.3065
1440.566, 341.7621
1442.494, 338.8831
1444.423, 339.3622
1446.351, 341.3405
1448.280, 338.8757
1450.208, 336.4773
1452.137, 340.8817
1454.065, 343.2682
1455.994, 334.6434
1457.922, 331.9535
1459.851, 344.2825
1461.779, 348.0635
1463.708, 341.6631
1465.636, 346.4801
1467.564, 359.0284
1469.493, 366.4465
1471.421, 373.5710
1473.350, 385.9467
1475.278, 400.9252
1477.207, 415.2232
1479.135, 436.2925
1481.064, 465.3423
1482.992, 507.7381
1484.921, 564.9069
1486.849, 609.8733
1488.778, 641.9107
1490.706, 661.3706
1492.635, 662.8402
1494.563, 630.5492
1496.491, 591.4954
1498.420, 556.8300
1500.348, 523.3583
1502.277, 490.0258
1504.205, 459.5036
1506.134, 432.1635
1508.062, 410.4928
1509.991, 394.8584
1511.919, 386.2211
1513.848, 384.1017
1515.776, 391.3854
1517.705, 398.7988
1519.633, 401.5550
1521.562, 410.1179
1523.490, 426.2945
1525.418, 450.7432
1527.347, 484.0820
1529.275, 525.6679
1531.204, 583.1347
1533.132, 670.7155
1535.061, 777.4156
1536.989, 908.4830
1538.918, 1031.074
1540.846, 1143.720
1542.775, 1188.788
1544.703, 1163.610
1546.632, 1106.488
1548.560, 1023.211
1550.489, 908.9805
1552.417, 793.1508
1554.345, 694.7815
1556.274, 617.3521
1558.202, 561.4503
1560.131, 528.4273
1562.059, 517.1443
1563.988, 512.2518
1565.916, 509.0549
1567.845, 498.2109
1569.773, 483.5472
1571.702, 468.6405
1573.630, 451.5275
1575.559, 430.5943
1577.487, 410.0683
1579.416, 390.4460
1581.344, 374.5061
1583.272, 362.1155
1585.201, 354.2974
1587.129, 346.3397
1589.058, 330.6178
1590.986, 318.8615
1592.915, 318.4074
1594.843, 312.3385
1596.772, 300.1921
1598.700, 306.8020
1600.629, 322.3482
1602.557, 323.3246
1604.486, 318.2466
1606.414, 311.0606
1608.343, 306.8488
1610.271, 310.1768
1612.199, 307.4766
1614.128, 298.9817
1616.056, 295.3489
1617.985, 294.5292
1619.913, 293.3856
1621.842, 291.4950
1623.770, 287.8210
1625.699, 284.8749
1627.627, 282.7859
1629.556, 284.2344
1631.484, 287.9973
1633.413, 284.2802
1635.341, 279.8129
1637.270, 282.8243
1639.198, 287.0561
1641.126, 291.7601
1643.055, 290.2566
1644.983, 281.4300
1646.912, 275.0764
1648.840, 270.8297
1650.769, 268.1483
1652.697, 266.5631
1654.626, 266.5332
1656.554, 264.6591
1658.483, 257.7431
1660.411, 264.7029
1662.340, 281.1658
1664.268, 276.5616
1666.197, 265.1779
1668.125, 261.6263
1670.053, 263.8573
1671.982, 273.7456
1673.910, 275.1956
1675.839, 266.8185
1677.767, 266.4839
1679.696, 270.1229
1681.624, 271.8723
1683.553, 270.2952
1685.481, 261.9837
1687.410, 263.3281
1689.338, 277.7266
1691.267, 277.5237
1693.195, 269.0043
1695.124, 269.4016
1697.052, 272.1823
1698.980, 271.4073
1700.909, 276.2139
1702.837, 288.8928
1704.766, 295.5957
1706.694, 296.5437
1708.623, 293.0862
1710.551, 289.5325
1712.480, 287.8235
1714.408, 293.1475
1716.337, 307.3175
1718.265, 316.3655
1720.194, 321.7293
1722.122, 335.2022
1724.051, 348.8117
1725.979, 350.8898
1727.908, 357.6700
1729.836, 373.3224
1731.765, 389.3752
1733.693, 405.1642
1735.621, 420.6472
1737.550, 436.7576
1739.478, 456.4693
1741.407, 472.9306
1743.335, 484.7101
1745.264, 491.8705
1747.192, 496.0491
1749.121, 507.7643
1751.049, 512.6792
1752.978, 489.7877
1754.906, 471.3159
1756.835, 465.2671
1758.763, 453.6768
1760.692, 438.0787
1762.620, 426.0193
1764.548, 413.9000
1766.477, 395.1140
1768.405, 384.9994
1770.334, 387.5293
1772.262, 375.4482
1774.191, 355.9926
1776.119, 347.6963
1778.048, 341.3310
1779.976, 330.4581
1781.905, 321.3267
1783.833, 314.5797
1785.762, 309.8141
1787.690, 305.8760
1789.619, 301.0643
1791.547, 296.2440
1793.475, 290.6056
1795.404, 289.4443
1797.332, 292.0983
1799.261, 288.0725
1801.189, 282.5255
1803.118, 279.6078
1805.046, 281.0141
1806.975, 290.6050
1808.903, 286.5262
1810.832, 272.5454
1812.760, 258.3038
1814.689, 250.9726
1816.617, 256.5858
1818.546, 263.9088
1820.474, 270.9994
1822.402, 268.1723
1824.331, 261.7812
1826.259, 262.3643
1828.188, 264.8277
1830.116, 268.5836
1832.045, 267.7296
1833.973, 263.3068
1835.902, 259.8382
1837.830, 257.0607
1839.759, 255.5675
1841.687, 255.8556
1843.616, 257.8061
1845.544, 256.9038
1847.473, 254.0858
1849.401, 247.3020
1851.329, 247.5894
1853.258, 261.1074
1855.186, 260.9947
1857.115, 249.5756
1859.043, 248.8683
1860.972, 251.2390
1862.900, 251.2628
1864.829, 248.6772
1866.757, 243.6475
1868.686, 245.1262
1870.614, 247.6636
1872.543, 239.7596
1874.471, 236.8454
1876.400, 243.6057
1878.328, 247.2807
1880.256, 247.5799
1882.185, 243.0763
1884.113, 240.6382
1886.042, 245.7076
1887.970, 246.3206
1889.899, 243.6622
1891.827, 240.4578
1893.756, 238.0788
1895.684, 238.7493
1897.613, 239.3539
1899.541, 238.8497
1901.470, 242.4066
1903.398, 247.3465
1905.327, 246.9975
1907.255, 246.5878
1909.183, 249.8746
1911.112, 245.3394
1913.040, 237.5155
1914.969, 245.3647
1916.897, 250.8981
1918.826, 239.1093
1920.754, 229.3559
1922.683, 224.3809
1924.611, 230.5067
1926.540, 236.5112
1928.468, 236.7672
1930.397, 233.5421
1932.325, 227.1243
1934.254, 233.1200
1936.182, 239.6951
1938.110, 234.7599
1940.039, 234.9076
1941.967, 241.7184
1943.896, 234.0279
1945.824, 227.5003
1947.753, 240.9394
1949.681, 246.8843
1951.610, 237.6740
1953.538, 229.7240
1955.467, 224.2833
1957.395, 229.0903
1959.324, 232.5984
1961.252, 228.3596
1963.181, 220.1221
1965.109, 214.4323
1967.037, 223.5867
1968.966, 230.9945
1970.894, 232.5896
1972.823, 217.6023
1974.751, 198.9601
1976.680, 208.9263
1978.608, 220.0744
1980.537, 223.6229
1982.465, 223.0520
1984.394, 222.0753
1986.322, 225.5137
1988.251, 229.9774
1990.179, 236.1263
1992.108, 232.3431
1994.036, 222.9699
1995.964, 219.4440
1997.893, 223.0669
1999.821, 235.1797
2001.750, 235.6460
2003.678, 228.0493
2005.607, 225.2523
2007.535, 228.8631
2009.464, 238.7305
2011.392, 240.1127
2013.321, 237.2800
2015.249, 242.8059
2017.178, 247.3166
2019.106, 245.8216
2021.035, 246.6384
2022.963, 249.4926
2024.891, 256.9708
2026.820, 268.6565
2028.748, 282.0830
2030.677, 283.3238
2032.605, 286.2936
2034.534, 313.8805
2036.462, 341.2497
2038.391, 363.0851
2040.319, 363.0575
2042.248, 348.5278
2044.176, 331.0801
2046.105, 306.7357
2048.033, 277.2386
2049.961, 259.9679
2051.890, 248.1018
2053.818, 238.3282
2055.747, 230.2618
2057.676, 223.4323
2059.604, 219.8534
2061.532, 216.7763
2063.461, 212.7873
2065.389, 210.1702
2067.318, 208.3472
2069.246, 208.9502
2071.175, 208.6991
2073.103, 205.8354
2075.032, 209.8968
2076.960, 213.6482
2078.889, 202.7024
2080.817, 194.4624
2082.746, 195.5918
2084.674, 184.8113
2086.603, 175.4867
2088.531, 188.5537
2090.459, 202.0296
2092.388, 209.4110
2094.316, 202.1025
2096.245, 196.7558
2098.173, 200.7715
2100.102, 199.2025
2102.030, 195.0202
2103.959, 193.5153
2105.887, 192.8363
2107.816, 189.6695
2109.744, 192.0343
2111.673, 196.4287
2113.601, 190.1340
2115.530, 191.7110
2117.458, 202.3407
2119.386, 196.7844
2121.315, 187.2757
2123.243, 192.4258
2125.172, 196.9429
2127.100, 195.2892
2129.029, 190.7169
2130.957, 189.2762
2132.886, 191.2185
2134.814, 193.1895
2136.743, 194.1479
2138.671, 183.7681
2140.600, 181.8112
2142.528, 190.7318
2144.457, 190.2127
2146.385, 188.4039
2148.313, 186.0895
2150.242, 187.6930
2152.170, 193.8562
2154.099, 194.1476
2156.027, 194.2905
2157.956, 200.1093
2159.884, 199.5701
2161.813, 195.4708
2163.741, 195.6491
2165.670, 194.9800
2167.598, 192.0195
2169.527, 196.6776
2171.455, 197.5032
2173.384, 180.6610
2175.312, 183.1805
2177.240, 194.8380
2179.169, 199.4027
2181.097, 203.1774
2183.026, 205.9282
2184.954, 205.7776
2186.883, 206.6180
2188.811, 210.4160
2190.740, 212.4776
2192.668, 214.1786
2194.597, 215.3628
2196.525, 221.9896
2198.454, 234.8049
2200.382, 248.7266
2202.311, 264.5876
2204.239, 282.3207
2206.167, 303.9261
2208.096, 337.3999
2210.024, 402.7899
2211.953, 486.8950
2213.881, 585.4451
2215.810, 720.7141
2217.738, 812.7552
2219.667, 809.4911
2221.595, 734.2507
2223.524, 614.9539
2225.452, 482.5220
2227.381, 386.7387
2229.309, 335.1158
2231.238, 289.5247
2233.166, 254.6228
2235.094, 234.5929
2237.023, 220.4944
2238.951, 211.5991
2240.880, 212.5146
2242.808, 205.8276
2244.737, 192.2898
2246.665, 193.8368
2248.594, 200.4695
2250.522, 208.0943
2252.451, 212.0890
2254.379, 211.7200
2256.308, 205.7811
2258.236, 196.3851
2260.165, 187.2619
2262.093, 194.4915
2264.021, 196.8777
2265.950, 186.3773
2267.878, 181.8567
2269.807, 180.8415
2271.735, 181.8495
2273.664, 181.2723
2275.592, 179.7447
2277.521, 177.4893
2279.449, 179.7470
2281.378, 186.3501
2283.306, 181.8875
2285.235, 176.9395
2287.163, 178.8759
2289.092, 174.0740
2291.020, 172.9602
2292.948, 191.1467
2294.877, 205.6172
2296.805, 213.9747
2298.734, 217.0013
2300.662, 204.9755
2302.591, 177.5321
2304.519, 176.8231
2306.448, 182.0347
2308.376, 180.3598
2310.305, 179.7054
2312.233, 179.4677
2314.162, 179.3404
2316.090, 179.5096
2318.019, 180.2769
2319.947, 187.4618
2321.875, 192.5522
2323.804, 192.8359
2325.732, 184.3492
2327.661, 176.6993
2329.589, 172.4498
2331.518, 172.9944
2333.446, 173.8080
2335.375, 167.2998
2337.303, 166.4078
2339.232, 169.1561
2341.160, 171.9985
2343.089, 168.9588
2345.017, 159.2940
2346.946, 168.3071
2348.874, 176.0729
2350.802, 173.1919
2352.731, 173.8815
2354.659, 175.3698
2356.588, 176.0752
2358.516, 174.4342
2360.445, 175.2046
2362.373, 181.3517
2364.302, 193.4659
2366.230, 202.6832
2368.159, 189.5673
2370.087, 178.8690
2372.016, 174.4854
2373.944, 167.1083
2375.873, 166.6488
2377.801, 173.0087
2379.729, 172.7945
2381.658, 178.5415
2383.586, 189.5102
2385.515, 186.6256
2387.443, 186.1575
2389.372, 188.0863
2391.300, 185.9971
2393.229, 185.7491
2395.157, 175.2736
2397.086, 170.1227
2399.014, 177.5057
2400.943, 175.8698
2402.871, 172.6138
2404.800, 178.4660
2406.728, 176.3492
2408.656, 170.0454
2410.585, 162.1712
2412.513, 161.2834
2414.442, 165.6973
2416.370, 171.3147
2418.299, 166.3428
2420.227, 164.1991
2422.156, 169.3329
2424.084, 168.5405
2426.013, 169.4079
2427.941, 172.4242
2429.870, 171.8052
2431.798, 170.3891
2433.727, 175.5595
2435.655, 177.0657
2437.583, 172.4750
2439.512, 171.8185
2441.440, 176.9109
2443.369, 179.0208
2445.297, 174.6195
2447.226, 170.3363
2449.154, 165.1736
2451.083, 166.7290
2453.011, 173.0140
2454.940, 174.5352
2456.868, 163.8424
2458.797, 163.7074
2460.725, 173.1697
2462.654, 182.2006
2464.582, 189.4315
2466.510, 188.3757
2468.439, 187.2457
2470.367, 182.3369
2472.296, 172.7047
2474.224, 173.2195
2476.153, 172.5392
2478.081, 171.9087
2480.010, 172.8312
2481.938, 171.3385
2483.867, 165.1679
2485.795, 165.9284
2487.724, 170.5889
2489.652, 164.9564
2491.581, 161.4752
2493.509, 161.9582
2495.438, 161.8335
2497.366, 163.8605
2499.294, 167.6798
2501.223, 165.9321
2503.151, 167.2496
2505.080, 167.3402
2507.008, 163.6978
2508.937, 166.4192
2510.865, 169.2296
2512.794, 157.6468
2514.722, 153.6582
2516.651, 160.2739
2518.579, 165.5009
2520.508, 161.3836
2522.436, 153.7044
2524.365, 153.7528
2526.293, 155.3252
2528.221, 168.1311
2530.150, 176.9205
2532.078, 174.1933
2534.007, 169.7284
2535.935, 165.0104
2537.864, 157.6557
2539.792, 153.2474
2541.721, 151.7577
2543.649, 158.1816
2545.578, 167.0337
2547.506, 157.9628
2549.435, 154.0393
2551.363, 155.2544
2553.292, 152.6766
2555.220, 152.0096
2557.148, 160.4251
2559.077, 166.7235
2561.005, 156.5636
2562.934, 155.0768
2564.862, 161.4552
2566.791, 154.5407
2568.719, 151.7139
2570.648, 156.4285
2572.576, 157.6877
2574.505, 155.5987
2576.433, 153.0467
2578.362, 154.5801
2580.290, 157.0625
2582.219, 156.8323
2584.147, 162.6966
2586.075, 162.4610
2588.004, 156.6909
2589.932, 156.5861
2591.861, 155.8790
2593.789, 154.5570
2595.718, 160.1385
2597.646, 155.8683
2599.575, 153.4599
2601.503, 160.0745
2603.432, 166.1653
2605.360, 160.7866
2607.289, 157.3851
2609.217, 162.7071
2611.146, 160.9974
2613.074, 156.9679
2615.002, 148.1069
2616.931, 141.6866
2618.859, 146.2944
2620.788, 152.5614
2622.716, 152.8669
2624.645, 150.5919
2626.573, 148.0334
2628.502, 148.3034
2630.430, 151.6029
2632.359, 149.7901
2634.287, 143.9932
2636.216, 140.4784
2638.144, 149.8015
2640.073, 152.9259
2642.001, 144.0930
2643.929, 144.0273
2645.858, 148.5826
2647.786, 152.7673
2649.715, 149.1173
2651.643, 146.9564
2653.572, 152.0991
2655.500, 150.2043
2657.429, 141.9585
2659.357, 136.2583
2661.286, 143.3296
2663.214, 148.8292
2665.143, 149.8149
2667.071, 143.9622
2669.000, 144.1048
2670.928, 146.1786
2672.856, 149.0840
2674.785, 144.7631
2676.713, 140.7141
2678.642, 137.5561
2680.570, 138.0424
2682.499, 142.5520
2684.427, 146.2392
2686.356, 168.1459
2688.284, 172.2524
2690.213, 143.7416
2692.141, 143.5749
2694.070, 147.1059
2695.998, 144.5932
2697.927, 148.7539
2699.855, 144.5952
2701.783, 138.3812
2703.712, 145.9093
2705.640, 144.1255
2707.569, 140.4249
2709.497, 142.4980
2711.426, 145.4061
2713.354, 144.1985
2715.283, 140.0010
2717.211, 138.4425
2719.140, 133.3504
2721.068, 128.6620
2722.997, 128.5876
2724.925, 133.4042
2726.854, 136.4522
2728.782, 131.7189
2730.710, 134.0047
2732.639, 139.2892
2734.567, 141.6966
2736.496, 134.2872
2738.424, 130.1784
2740.353, 134.8174
2742.281, 138.6800
2744.210, 135.5472
2746.138, 129.9542
2748.067, 135.6790
2749.995, 136.5226
2751.924, 134.4229
2753.852, 134.2018
2755.781, 130.9227
2757.709, 130.7974
2759.637, 138.1269
2761.566, 129.3686
2763.494, 128.0437
2765.423, 139.9563
2767.351, 135.6010
2769.280, 131.1646
2771.208, 130.0766
2773.137, 131.7445
2775.065, 133.1445
2776.994, 133.3578
2778.922, 131.9264
2780.851, 130.7449
2782.779, 130.6706
2784.708, 131.6064
2786.636, 128.5814
2788.564, 127.9105
2790.493, 129.3614
2792.421, 130.2330
2794.350, 124.1814
2796.278, 121.0234
2798.207, 128.4406
2800.135, 134.0496
2802.064, 134.0759
2803.992, 125.6731
2805.921, 122.1066
2807.849, 123.2762
2809.778, 124.8897
2811.706, 126.5874
2813.635, 128.9712
2815.563, 126.5043
2817.491, 116.9528
2819.420, 113.3840
2821.348, 115.8823
2823.277, 121.0578
2825.205, 118.1316
2827.134, 121.7152
2829.062, 128.5713
2830.991, 121.6551
2832.919, 119.0197
2834.848, 118.0083
2836.776, 118.2276
2838.705, 119.6986
2840.633, 119.5729
2842.562, 119.2997
2844.490, 117.6395
2846.418, 113.6750
2848.347, 113.6375
2850.275, 122.9173
2852.204, 116.0537
2854.132, 115.3393
2856.061, 119.1296
2857.989, 113.4569
2859.918, 115.0550
2861.846, 120.3877
2863.775, 126.0087
2865.703, 122.4778
2867.632, 118.4339
2869.560, 120.0656
2871.489, 122.3133
2873.417, 121.4174
2875.345, 117.0168
2877.274, 113.5507
2879.202, 111.1691
2881.131, 111.1089
2883.059, 107.0624
2884.988, 102.1587
2886.916, 101.4863
2888.845, 102.7598
2890.773, 105.4411
2892.702, 115.3489
2894.630, 119.6695
2896.559, 103.7377
2898.487, 98.71156
2900.416, 99.48466
2902.344, 103.1829
2904.272, 106.8709
2906.201, 99.28355
2908.129, 97.14146
2910.058, 99.45033
2911.986, 98.31879
2913.915, 103.2143
2915.843, 106.5570
2917.772, 99.44436
2919.700, 98.75561
2921.629, 102.1070
2923.557, 94.13706
2925.486, 99.43781
2927.414, 106.1912
2929.343, 101.8834
2931.271, 94.85085
2933.199, 96.80407
2935.128, 100.6074
2937.056, 109.5609
2938.985, 103.1758
2940.913, 96.03567
2942.842, 97.94565
2944.770, 102.2582
2946.699, 96.38456
2948.627, 90.86237
2950.556, 94.09979
2952.484, 92.22309
2954.413, 90.49173
2956.341, 90.85294
2958.270, 94.72572
2960.198, 94.34433
2962.126, 89.73462
2964.055, 93.67066
2965.983, 102.3140
2967.912, 100.1725
2969.840, 95.63976
2971.769, 92.31174
2973.697, 90.43974
2975.626, 90.66779
2977.554, 88.44569
2979.483, 87.34015
2981.411, 84.63662
2983.340, 82.13652
2985.268, 82.95030
2987.197, 90.72405
2989.125, 89.18775
2991.053, 85.86855
2992.982, 90.61520
2994.910, 92.19781
2996.839, 82.70182
2998.767, 75.98878
3000.696, 87.83621
3002.624, 89.37254
3004.553, 82.85365
3006.481, 73.95676
3008.410, 73.83916
3010.338, 76.79019
3012.267, 83.66545
3014.195, 83.48399
3016.124, 84.12774
3018.052, 81.07300
3019.980, 76.25179
3021.909, 77.60870
3023.837, 72.65714
3025.766, 74.60371
3027.694, 80.45335
3029.623, 74.51208
3031.551, 78.46394
3033.480, 74.86621
3035.408, 62.66496
3037.337, 67.24545
3039.265, 74.10819
3041.194, 74.19213
3043.122, 73.70136
3045.051, 76.52472
3046.979, 78.25706
3048.907, 81.16305
3050.836, 70.87835
3052.764, 71.95073
3054.693, 70.85704
3056.621, 71.63100
3058.550, 75.25885
3060.478, 71.19268
3062.407, 69.85118
3064.335, 69.75359
3066.264, 66.19804
3068.192, 65.38112
3070.121, 66.97478
3072.049, 72.53896
3073.978, 70.48978
3075.906, 68.08190
3077.834, 65.75941
3079.763, 64.02546
3081.691, 62.77265
3083.620, 59.37980
3085.548, 59.52848
3087.477, 64.80780
3089.405, 62.09044
3091.334, 59.27796
3093.262, 61.51675
3095.191, 72.19176
3097.119, 66.27790
3099.048, 58.02076
3100.976, 55.62576
3102.905, 61.88444
3104.833, 61.65483
3106.761, 57.48854
3108.690, 55.87609
3110.618, 55.78642
3112.547, 56.18686
3114.475, 58.59363
3116.404, 62.60666
3118.332, 60.72704
3120.261, 54.33460
3122.189, 48.96455
3124.118, 47.36432
3126.046, 48.72145
3127.975, 51.77093
3129.903, 54.22623
3131.832, 56.21801
3133.760, 60.13372
3135.688, 56.37168
3137.617, 49.50961
3139.545, 45.48902
3141.474, 53.92223
3143.402, 47.63799
3145.331, 43.72617
3147.259, 49.94894
3149.188, 50.20741
3151.116, 50.70469
3153.045, 51.10371
3154.973, 55.26627
3156.902, 61.96193
3158.830, 60.92402
3160.759, 54.59530
3162.687, 49.61503
3164.615, 50.79096
3166.544, 48.77760
3168.472, 46.15344
3170.401, 45.32091
3172.329, 40.44448
3174.258, 43.00682
3176.186, 49.01777
3178.115, 49.78872
3180.043, 34.00072
3181.972, 37.46988
3183.900, 43.21177
3185.829, 44.07396
3187.757, 40.98315
3189.686, 42.45852
3191.614, 42.37737
3193.542, 39.42216
3195.471, 35.91217
3197.399, 43.81396
3199.328, 43.91782
3201.256, 40.58980
3203.185, 38.53257
3205.113, 35.56679
3207.042, 34.90798
3208.970, 37.82835
3210.899, 42.51082
3212.827, 40.30359
3214.756, 34.95211
3216.684, 34.72964
3218.613, 38.99971
3220.541, 38.21617
3222.469, 27.24142
3224.398, 25.13857
3226.326, 31.36931
3228.255, 38.07901
3230.183, 34.83904
3232.112, 33.69301
3234.040, 35.76504
3235.969, 39.15005
3237.897, 40.75203
3239.826, 37.75116
3241.754, 36.17239
3243.683, 37.68423
3245.611, 36.09637
3247.540, 36.50322
3249.468, 35.76626
3251.396, 35.47894
3253.325, 40.18441
3255.253, 39.04614
3257.182, 31.18331
3259.110, 26.67552
3261.039, 33.05546
3262.967, 38.98074
3264.896, 43.93340
3266.824, 38.36111
3268.753, 27.35180
3270.681, 37.38418
3272.610, 33.45346
3274.538, 31.65253
3276.467, 34.92242
3278.395, 37.31396
3280.323, 33.71447
3282.252, 33.10268
3284.180, 33.72083
3286.109, 32.15040
3288.037, 29.81303
3289.966, 34.26979
3291.894, 41.54535
3293.823, 44.50402
3295.751, 35.45871
3297.680, 34.21944
3299.608, 35.94700
3301.537, 37.00391
3303.465, 36.72268
3305.394, 37.21016
3307.322, 41.66227
3309.250, 35.63451
3311.179, 28.69565
3313.107, 49.56799
3315.036, 55.59224
3316.964, 54.38540
3318.893, 49.39959
3320.821, 42.88877
3322.750, 43.83187
3324.678, 31.25970
3326.607, 24.67422
3328.535, 30.36055
3330.464, 41.73923
3332.392, 35.79740
3334.321, 40.81980
3336.249, 43.82514
3338.177, 40.03799
3340.106, 46.22125
3342.034, 44.08634
3343.963, 40.27411
3345.891, 31.44959
3347.820, 15.57790
3349.748, 28.03117
3351.677, 26.86312
3353.605, 29.17924
3355.534, 37.52993
3357.462, 32.46460
3359.391, 24.41081
3361.319, 28.23027
3363.248, 30.68209
3365.176, 26.04600
3367.104, 30.68922
3369.033, 20.51227
3370.962, 25.21869
3372.890, 28.16990
3374.819, 13.62623
3376.747, 35.63160
3378.676, 21.83616
3380.604, 22.65056
3382.532, 36.40067
3384.461, 33.14480
3386.389, 21.97528
3388.318, 16.69750
3390.246, 18.02571
3392.175, 23.29891
3394.103, 28.64633
3396.032, 31.98544
3397.960, 33.63641
3399.889, 29.64718
3401.817, 23.46468
3403.746, 27.11814
3405.674, 24.48189
3407.603, 28.34314
3409.531, 23.83530
3411.459, 11.18109
3413.388, 23.76497
3415.316, 24.40484
3417.245, 17.14569
3419.173, 12.87979
3421.102, 15.91075
3423.030, 17.27760
3424.959, 14.08657
3426.887, 20.60006
3428.816, 21.29222
3430.744, 10.13303
3432.673, 20.38069
3434.601, 17.26643
3436.530, 16.90739
3438.458, 18.90415
3440.386, 18.69394
3442.315, 16.32763
3444.243, 23.02896
3446.172, 15.33825
3448.100, 14.51557
3450.029, 28.50470
3451.957, 20.57848
3453.886, 24.23808
3455.814, 16.84212
3457.743, 11.74883
3459.671, 17.11608
3461.600, 19.95537
3463.528, 21.00461
3465.457, 23.39268
3467.385, 23.49118
3469.313, 17.73115
3471.242, 6.476676
3473.170, 19.01673
3475.099, 17.68940
3477.027, 16.76551
3478.956, 21.38710
3480.884, 22.52039
3482.813, 20.98663
3484.741, 23.86445
3486.670, 22.10830
3488.598, 16.97549
3490.527, 15.10504
3492.455, 16.59605
3494.384, 26.66258
3496.312, 28.95228
3498.240, 21.32617
3500.169, 12.52813
3502.097, 21.92922
3504.026, 20.27260
3505.954, 11.48244
3507.883, 11.19267
3509.811, 18.23433
3511.740, 13.06733
3513.668, 11.97973
3515.597, 3.710709
3517.525, 6.143524
3519.454, 17.78584
3521.382, 25.96521
3523.311, 26.93305
3525.239, 10.80545
3527.167, 13.99827
3529.096, 25.68144
3531.024, 27.88051
3532.953, 17.20380
3534.881, 16.02229
3536.810, 12.91379
3538.738, 17.53290
3540.667, 23.75195
3542.595, 17.65584
3544.524, 11.84169
3546.452, 14.99245
3548.381, 23.17665
3550.309, 22.70286
3552.238, 12.28641
3554.166, 7.146067
3556.094, 15.16096
3558.023, 14.94652
3559.951, 17.83964
3561.880, 20.66509
3563.808, 15.08835
3565.737, 8.707924
3567.665, 9.945172
3569.594, 13.79630
3571.522, 8.684282
3573.451, 2.679442
3575.379, 10.62395
3577.308, 4.889311
3579.236, 19.98665
3581.165, 29.70670
3583.093, 24.73325
3585.021, 13.18077
3586.950, 9.308813
3588.878, 5.356797
3590.807, 10.29767
3592.735, 15.18941
3594.664, 5.077455
3596.592, -13.14948
3598.521, 4.390995
3600.449, 40.11997
3602.378, 22.04707
3604.306, 6.477417
3606.235, 12.56729
3608.163, 22.05208
3610.092, 8.511187
3612.020, 11.59661
3613.948, 7.365315
3615.877, 9.146555
3617.805, 8.217493
3619.734, -7.6702937E-02
3621.662, 16.61337
3623.591, 17.93429
3625.519, 15.42996
3627.448, 7.545087
3629.376, 4.036260
3631.305, 8.644862
3633.233, 2.602389
3635.162, 2.508832
3637.090, 1.160510
3639.019, -2.157461
3640.947, 0.8339140
3642.875, 11.67497
3644.804, 17.31340
3646.732, -1.019766
3648.661, 3.906432
3650.589, 11.98625
3652.518, 3.513948
3654.446, -8.290241
3656.375, 5.036614
3658.303, 6.284788
3660.232, 10.85812
3662.160, 6.567265
3664.089, 6.974780
3666.017, 7.030864
3667.946, -6.203500
3669.874, -3.500934
3671.802, 3.967625
3673.731, 0.6665471
3675.659, 8.602724
3677.588, 13.02605
3679.516, 2.315047
3681.445, 14.76592
3683.373, 22.04291
3685.302, 8.655446
3687.230, 11.85687
3689.159, 13.27217
3691.087, 5.976461
3693.016, 7.044350
3694.944, -3.819918
3696.873, 9.982497
3698.801, 8.645779
3700.729, 3.030107
3702.658, 6.577533
3704.586, 12.58742
3706.515, 2.223692
3708.443, 1.802277
3710.372, -6.204783
3712.300, 5.850470
3714.229, 7.337621
3716.157, 3.039404
3718.086, 12.85047
3720.014, 3.477914
3721.943, 9.904868
3723.871, 3.828960
3725.800, 5.745597
3727.728, -0.1658954
3729.656, -10.72302
3731.585, -6.423872
3733.513, -5.337972
3735.442, -3.829707
3737.370, 3.038900
3739.299, 10.84234
3741.227, 8.291078
3743.156, 0.2087838
3745.084, 3.7104450E-02
3747.013, -1.278290
3748.941, -4.014426
3750.870, 1.119169
3752.798, -0.6577342
3754.727, -2.901779
3756.655, 1.966610
3758.583, 10.20163
3760.512, 10.80463
3762.440, -1.380468
3764.369, -4.624416
3766.297, -0.5389605
3768.226, 0.3872264
3770.154, -2.444066
3772.083, -4.086426
3774.011, -4.927785
3775.940, 7.917363
3777.868, 3.812611
3779.797, 8.044446
3781.725, 8.000408
3783.654, 2.533844
3785.582, 0.3061104
3787.510, 2.310715
3789.439, 2.634761
3791.367, 5.557508
3793.296, 12.66853
3795.224, 1.816276
3797.153, -2.803055
3799.081, -0.5168593
3801.010, -9.649645
3802.938, -4.814015
3804.867, 4.571315
3806.795, -0.7478334
3808.724, -7.776361
3810.652, 1.340500
3812.581, 8.752686
3814.509, 2.508105
3816.438, -2.117092
3818.366, 0.3757508
3820.294, 6.121279
3822.223, 2.808091
3824.151, -5.567717
3826.080, 1.341422
3828.008, 7.003834
3829.937, -0.4843068
3831.865, -1.021945
3833.794, -4.597456
3835.722, -0.3612771
3837.651, -1.863980
3839.579, 3.467876
3841.508, 4.668080
3843.436, 1.149751
3845.365, -8.6908519E-02
3847.293, 1.363932
3849.221, 7.268529
3851.150, -0.2541829
3853.078, 0.8877902
3855.007, 0.6742985
3856.935, 6.0732771E-02
3858.864, 0.5708266
3860.792, -2.850373
3862.721, -8.292660
3864.649, 5.109591
3866.578, 0.2672041
3868.506, 4.317677
3870.435, -17.39016
3872.363, -5.458733
3874.292, 3.428397
3876.220, 0.9547170
3878.148, 4.536981
3880.077, -7.174130
3882.005, 5.301462
3883.934, -2.632813
3885.862, 4.397631
3887.791, 2.719479
3889.719, 6.912067
3891.648, 5.495153
3893.576, -5.415578
3895.505, -6.729043
3897.433, 12.10102
3899.362, -4.755391
3901.290, 4.379786
3903.219, 6.3205160E-02
3905.147, 3.529906
3907.075, 7.217251
3909.004, 15.16454
3910.932, 19.07763
3912.861, 6.254832
3914.789, -4.354413
3916.718, -4.037747
3918.646, 3.038687
3920.575, -0.7609150
3922.503, 3.662583
3924.432, 12.56856
3926.360, 1.729499
3928.289, -7.364919
3930.217, 3.810773
3932.146, 8.036723
3934.074, 18.42399
3936.002, 8.185105
3937.931, -4.181877
3939.859, -4.929205
3941.788, 1.790870
3943.716, 3.552451
3945.645, 3.102566
3947.573, 1.560297
3949.502, -2.601173
3951.430, -1.679900
3953.359, -8.464280
3955.287, -6.734090
3957.216, 1.801742
3959.144, 0.6676375
3961.073, 2.879090
3963.001, 2.086320
3964.929, 0.4754357
3966.858, 1.556605
3968.786, -0.2890790
3970.715, -7.448717
3972.643, -5.284916
3974.572, 1.842170
3976.500, 5.122872
3978.429, -8.909869
3980.357, -8.543222
3982.286, -15.78287
3984.214, -10.98021
3986.143, -4.481515
3988.071, -9.630526
3990.000, -5.459572
3991.928, -7.682347
3993.856, -2.565732
3995.785, -7.693972
3997.713, -6.018913
3999.642, -6.110675
4001.570, -3.285365
4003.499, -11.00287
4005.427, -7.682864
4007.356, -0.7596078
4009.284, -4.887256
4011.213, -2.671671
4013.141, 3.914816
4015.070, 10.02500
4016.998, -3.678771
4018.927, -7.312950
4020.855, -14.93610
4022.783, -9.701635
4024.712, -10.39612
4026.640, -1.687504
4028.569, 5.147623
4030.497, 1.456015
4032.426, -0.2977102
4034.354, -0.8953484
4036.283, 1.605959
4038.211, -1.069749
4040.140, 0.8422677
4042.068, -3.806602
4043.997, -9.231035
4045.925, -7.231439
4047.854, -1.625297
4049.782, -1.922042
4051.710, -5.689520
4053.639, -2.356119
4055.567, 3.572927
4057.496, -9.7165547E-02
4059.424, -3.132688
4061.353, -7.366431
4063.281, -4.645998
4065.210, 3.370869
4067.138, -6.692156
4069.067, 19.54567
4070.995, 3.127147
4072.924, -2.537017
4074.852, -0.3321016
4076.781, -5.927815
4078.709, -2.068985
4080.637, 4.210547
4082.566, -5.371704
4084.494, -5.355174
4086.423, -9.163449
4088.351, -2.367199
4090.280, 10.70194
4092.208, -0.7497096
4094.137, -6.123208
4096.065, -1.236213
4097.994, -10.18727
4099.922, -8.289383
4101.851, -5.789108
4103.779, -1.611068
4105.708, -3.371555
4107.636, -8.283036
4109.564, -1.777012
4111.493, -5.132023
4113.421, -12.39501
4115.350, 1.852003
4117.278, -1.555522
4119.207, -0.3055761
4121.135, 1.327177
4123.064, -5.581344
4124.992, -8.225787
4126.921, -2.898144
4128.849, -4.282062
4130.778, -4.446163
4132.706, 3.162805
4134.635, -3.087477
4136.563, -10.82043
4138.492, -0.1251643
4140.420, 10.49176
4142.349, 13.85338
4144.277, 5.282671
4146.206, -2.799633
4148.134, 5.958458
4150.063, -17.51670
4151.991, -1.997635
4153.919, 14.49772
4155.848, 5.835588
4157.776, -12.23819
4159.705, 6.213205
4161.633, 7.627437
4163.562, -0.8173027
4165.490, -3.687010
4167.418, -14.80931
4169.347, -15.11721
4171.275, -1.196185
4173.204, 3.194429
4175.132, 4.273334
4177.061, -1.451946
4178.989, -12.97232
4180.918, 2.696359
4182.846, -9.697012
4184.775, -14.25288
4186.703, 1.630131
4188.632, 5.613462
4190.560, -8.380018
4192.489, -4.937349
4194.417, -5.752595
4196.346, -17.65145
4198.274, -7.808547
4200.203, 1.249926
4202.131, -9.639435
4204.060, -8.343600
4205.988, -6.370983
4207.917, -9.409027
4209.845, -11.03335
4211.773, -4.615876
4213.702, 3.966267
4215.630, -1.309110
4217.559, 4.447771
4219.487, -8.277772
4221.416, -3.919235
4223.344, -0.8993822
4225.272, 9.223743
4227.201, -15.69422
4229.129, -5.891207
4231.058, 7.392146
4232.986, 0.3441944
4234.915, -3.701464
4236.843, 4.647576
4238.772, 5.048916
4240.700, -9.723813
4242.629, -2.560726
4244.557, 6.376600
4246.486, 6.361217
4248.414, -1.753895
4250.343, -5.293064
4252.271, 8.922256
4254.200, 5.002386
4256.128, -4.998804
4258.057, 0.8832251
4259.985, -2.214866
4261.914, -5.152687
4263.842, 4.160189
4265.771, 6.821944
4267.699, 5.479781
4269.627, -7.988644
4271.556, -6.686453
4273.484, 0.9058378
4275.413, 2.060848
4277.341, -3.754575
4279.270, 14.87371
4281.198, 4.455894
4283.126, -3.989887
4285.055, -8.303286
4286.983, -2.162544
4288.912, 3.138031
4290.840, 8.128850
4292.769, -2.309159
4294.697, -3.484513
4296.626, -7.713004
4298.554, -7.093894
4300.483, -9.724191
4302.411, -6.878500
4304.340, 8.236086
4306.268, 16.36049
4308.197, -2.478099
4310.125, -10.59864
4312.054, -2.409688
4313.982, -5.655520
4315.911, 6.350012
4317.839, -4.067503
4319.768, 5.233534
4321.696, 3.050319
4323.625, -6.060153
4325.553, 9.384895
4327.481, 18.36709
4329.410, 3.513139
4331.338, -9.110372
4333.267, -6.431894
4335.195, 2.534993
4337.124, 4.720949
4339.052, 0.1987822
4340.980, -9.091785
4342.909, -4.158794
4344.837, 3.238021
4346.766, -5.528191
4348.694, -1.543130
4350.623, -0.3302491
4352.551, -7.597106
4354.480, 0.4504711
4356.408, -3.159325
4358.337, -5.597680
4360.265, -6.380323
4362.194, -4.411253
4364.122, -9.751889
4366.051, -10.60552
4367.979, -15.66418
4369.908, -7.485737
4371.836, 0.3520676
##END=



