##NAMES=Grossular
##RRUFFID=R040066
##IDEAL CHEMISTRY=Ca_3_Al_2_(SiO_4_)_3_
##LOCALITY=Redding, Connecticut, USA
##OWNER=RRUFF
##SOURCE=University of Arizona Mineral Museum
##DESCRIPTION=Reddish orange coarsely crystalline
##STATUS=The identification of this mineral has been confirmed by X-ray diffraction and chemical analysis
##URL=https://www.rruff.net/odr/rruff_sample/R040066
##MEASURED CHEMISTRY=(Ca_2.90_Fe^2+^_0.08_Mn_0.02_)(Al_1.87_Fe^3+^_0.13_)(Si_1.00_O_4_)_3_
##DIFFRACTION SAMPLE DESCRIPTION=Powder
##CELL PARAMETERS=a: 11.8665 b: 11.8665 c: 11.8665 alpha: 90 beta: 90 gamma: 90 volume: 1670.9 crystal system: cubic
##FILETYPE=Raman RAW
##RAMAN WAVELENGTH=532

134.2595, 643.1623
136.1880, 699.1791
138.1165, 755.6511
140.0449, 804.6132
141.9734, 840.9435
143.9019, 879.5498
145.8303, 924.3903
147.7588, 973.5547
149.6873, 1019.607
151.6157, 1063.738
153.5442, 1103.689
155.4727, 1133.924
157.4011, 1144.758
159.3296, 1165.836
161.2581, 1201.489
163.1865, 1247.390
165.1150, 1327.616
167.0435, 1400.123
168.9719, 1518.576
170.9004, 1763.749
172.8289, 2284.558
174.7573, 2761.654
176.6858, 3071.211
178.6143, 3155.407
180.5427, 3111.527
182.4712, 2834.739
184.3997, 2410.953
186.3281, 2063.611
188.2566, 1849.427
190.1851, 1702.459
192.1135, 1600.350
194.0420, 1558.099
195.9705, 1530.972
197.8989, 1514.941
199.8274, 1508.675
201.7559, 1504.433
203.6843, 1498.858
205.6128, 1495.394
207.5413, 1498.144
209.4697, 1506.208
211.3982, 1520.358
213.3267, 1540.630
215.2551, 1568.214
217.1836, 1598.743
219.1121, 1623.935
221.0405, 1654.378
222.9690, 1701.170
224.8975, 1748.731
226.8259, 1835.746
228.7544, 1975.093
230.6829, 2197.017
232.6113, 2432.897
234.5398, 2697.521
236.4683, 2976.267
238.3967, 3241.882
240.3252, 3568.333
242.2537, 3816.402
244.1821, 3904.723
246.1106, 3781.938
248.0391, 3592.860
249.9675, 3285.864
251.8960, 2906.741
253.8245, 2614.007
255.7529, 2451.027
257.6814, 2355.999
259.6099, 2301.488
261.5384, 2282.917
263.4668, 2303.363
265.3953, 2361.563
267.3238, 2453.428
269.2522, 2601.991
271.1807, 2898.611
273.1092, 3196.375
275.0376, 3371.370
276.9661, 3421.948
278.8946, 3381.891
280.8230, 3236.509
282.7515, 2971.776
284.6800, 2752.656
286.6084, 2590.441
288.5369, 2462.894
290.4654, 2346.651
292.3938, 2234.923
294.3223, 2147.722
296.2508, 2087.246
298.1792, 2056.243
300.1077, 2047.079
302.0362, 2060.915
303.9646, 2096.821
305.8931, 2152.653
307.8216, 2243.407
309.7500, 2329.422
311.6785, 2397.309
313.6070, 2443.584
315.5354, 2495.198
317.4639, 2538.150
319.3924, 2594.042
321.3208, 2682.479
323.2493, 2850.278
325.1778, 2983.236
327.1062, 3052.317
329.0347, 3050.441
330.9632, 3039.318
332.8916, 2989.715
334.8201, 2949.984
336.7486, 2955.884
338.6770, 3017.535
340.6055, 3120.517
342.5340, 3254.356
344.4624, 3426.940
346.3909, 3659.197
348.3194, 3885.452
350.2478, 4227.250
352.1763, 4758.612
354.1048, 5313.525
356.0332, 6295.600
357.9617, 7752.583
359.8902, 9704.795
361.8186, 12098.32
363.7471, 15341.74
365.6756, 18744.40
367.6040, 21892.76
369.5325, 26012.63
371.4610, 28398.94
373.3894, 28505.47
375.3179, 26670.12
377.2464, 23971.23
379.1748, 19423.46
381.1033, 14899.17
383.0318, 11265.27
384.9602, 8873.027
386.8887, 6958.264
388.8172, 5692.822
390.7456, 4918.843
392.6741, 4320.220
394.6026, 3956.054
396.5310, 3713.183
398.4595, 3552.252
400.3880, 3486.312
402.3164, 3500.649
404.2449, 3630.062
406.1734, 3834.448
408.1018, 4079.776
410.0303, 4528.326
411.9588, 4793.515
413.8872, 4735.934
415.8157, 4303.991
417.7442, 3869.860
419.6726, 3375.400
421.6011, 2916.558
423.5296, 2558.826
425.4580, 2337.673
427.3865, 2173.060
429.3150, 2062.312
431.2434, 2003.322
433.1719, 1957.768
435.1004, 1930.138
437.0288, 1912.633
438.9573, 1898.168
440.8858, 1881.730
442.8142, 1883.580
444.7427, 1913.119
446.6712, 1960.759
448.5996, 2005.928
450.5281, 2051.682
452.4566, 2091.743
454.3850, 2126.656
456.3135, 2158.853
458.2420, 2174.273
460.1705, 2158.194
462.0989, 2134.311
464.0274, 2126.563
465.9559, 2135.905
467.8843, 2153.851
469.8128, 2186.274
471.7413, 2229.706
473.6697, 2251.815
475.5982, 2243.335
477.5267, 2222.894
479.4551, 2190.419
481.3836, 2142.028
483.3121, 2117.161
485.2405, 2130.263
487.1690, 2170.910
489.0975, 2228.780
491.0259, 2317.856
492.9544, 2410.499
494.8829, 2509.350
496.8113, 2611.087
498.7398, 2692.644
500.6683, 2749.712
502.5967, 2783.823
504.5252, 2796.129
506.4537, 2786.271
508.3821, 2749.156
510.3106, 2661.118
512.2391, 2548.046
514.1675, 2459.320
516.0960, 2397.544
518.0245, 2361.472
519.9529, 2354.081
521.8814, 2383.235
523.8099, 2405.612
525.7383, 2372.251
527.6668, 2364.919
529.5953, 2419.874
531.5237, 2496.534
533.4522, 2764.312
535.3807, 3247.958
537.3091, 3937.951
539.2376, 4857.450
541.1661, 6624.000
543.0945, 8008.005
545.0230, 8498.827
546.9515, 8188.822
548.8799, 7522.570
550.8084, 6140.181
552.7369, 4683.009
554.6653, 3559.064
556.5938, 2947.204
558.5223, 2484.262
560.4507, 2223.444
562.3792, 2112.146
564.3077, 2037.091
566.2361, 2011.384
568.1646, 2001.196
570.0931, 1998.822
572.0215, 2005.937
573.9500, 2001.689
575.8785, 1976.428
577.8069, 1948.067
579.7354, 1927.061
581.6639, 1912.651
583.5923, 1907.361
585.5208, 1930.021
587.4493, 1957.494
589.3777, 1953.624
591.3062, 1882.550
593.2347, 1820.493
595.1631, 1775.011
597.0916, 1748.099
599.0201, 1746.223
600.9485, 1781.918
602.8770, 1832.179
604.8055, 1888.617
606.7339, 1956.393
608.6624, 2016.448
610.5909, 2056.989
612.5193, 2097.301
614.4478, 2154.232
616.3763, 2228.367
618.3047, 2313.655
620.2332, 2430.761
622.1617, 2556.897
624.0901, 2634.411
626.0186, 2671.103
627.9471, 2654.764
629.8755, 2563.058
631.8040, 2407.534
633.7325, 2241.198
635.6609, 2048.162
637.5894, 1867.109
639.5179, 1715.718
641.4464, 1601.111
643.3748, 1503.195
645.3033, 1422.662
647.2318, 1356.700
649.1602, 1302.825
651.0887, 1260.760
653.0172, 1228.072
654.9456, 1208.208
656.8741, 1197.083
658.8026, 1187.158
660.7310, 1178.272
662.6595, 1172.038
664.5880, 1169.568
666.5164, 1170.749
668.4449, 1173.375
670.3734, 1177.633
672.3018, 1182.549
674.2303, 1187.429
676.1588, 1191.970
678.0872, 1196.210
680.0157, 1200.750
681.9442, 1204.445
683.8726, 1206.157
685.8011, 1205.854
687.7296, 1205.455
689.6580, 1202.269
691.5865, 1200.776
693.5150, 1206.227
695.4434, 1221.456
697.3719, 1239.860
699.3004, 1265.269
701.2288, 1292.891
703.1573, 1310.319
705.0858, 1315.702
707.0142, 1315.085
708.9427, 1307.703
710.8712, 1295.390
712.7996, 1286.971
714.7281, 1287.466
716.6566, 1288.147
718.5850, 1285.387
720.5135, 1278.383
722.4420, 1273.365
724.3704, 1267.651
726.2989, 1265.954
728.2274, 1272.194
730.1558, 1287.688
732.0843, 1300.256
734.0128, 1306.188
735.9412, 1309.509
737.8697, 1312.967
739.7982, 1313.561
741.7266, 1321.085
743.6551, 1340.710
745.5836, 1366.702
747.5120, 1391.994
749.4405, 1416.717
751.3690, 1440.590
753.2974, 1460.600
755.2259, 1479.863
757.1544, 1506.814
759.0828, 1546.571
761.0113, 1587.415
762.9398, 1626.030
764.8682, 1663.953
766.7967, 1704.542
768.7252, 1743.987
770.6536, 1792.831
772.5821, 1857.745
774.5106, 1938.664
776.4390, 2014.173
778.3675, 2090.466
780.2960, 2156.137
782.2244, 2202.815
784.1529, 2231.589
786.0814, 2256.637
788.0098, 2264.395
789.9383, 2285.031
791.8668, 2327.985
793.7952, 2389.423
795.7237, 2496.732
797.6522, 2626.236
799.5806, 2814.742
801.5091, 3085.521
803.4376, 3437.363
805.3660, 3884.665
807.2945, 4458.962
809.2230, 5117.457
811.1514, 5813.729
813.0799, 6535.410
815.0084, 7340.141
816.9368, 8339.816
818.8653, 9355.707
820.7938, 10249.56
822.7222, 11120.47
824.6507, 11630.33
826.5792, 11626.41
828.5077, 11282.81
830.4362, 10773.10
832.3646, 10026.00
834.2931, 9345.598
836.2216, 8777.414
838.1500, 8315.136
840.0785, 7960.959
842.0070, 7756.804
843.9354, 7613.199
845.8639, 7539.736
847.7924, 7525.875
849.7208, 7543.966
851.6493, 7580.379
853.5778, 7689.109
855.5062, 7825.476
857.4347, 8058.395
859.3632, 8500.781
861.2916, 9000.043
863.2201, 9962.160
865.1486, 11301.29
867.0770, 13160.84
869.0055, 15873.82
870.9340, 19660.12
872.8624, 23619.52
874.7909, 28436.47
876.7194, 33022.52
878.6478, 35578.73
880.5763, 35778.76
882.5048, 34354.44
884.4332, 30749.21
886.3617, 25850.90
888.2902, 21384.24
890.2186, 17157.80
892.1471, 13620.91
894.0756, 11018.49
896.0040, 9168.880
897.9325, 7734.643
899.8610, 6802.521
901.7894, 6085.047
903.7179, 5563.555
905.6464, 5176.419
907.5748, 4829.384
909.5033, 4534.952
911.4318, 4267.002
913.3602, 4027.964
915.2887, 3814.764
917.2172, 3623.407
919.1456, 3453.006
921.0741, 3304.702
923.0026, 3190.755
924.9310, 3096.083
926.8595, 3003.054
928.7880, 2908.542
930.7164, 2823.593
932.6449, 2735.751
934.5734, 2662.920
936.5018, 2630.764
938.4303, 2649.844
940.3588, 2679.105
942.2872, 2738.036
944.2157, 2790.180
946.1442, 2807.581
948.0726, 2791.078
950.0011, 2739.788
951.9296, 2629.573
953.8580, 2500.502
955.7865, 2375.476
957.7150, 2240.291
959.6434, 2145.890
961.5719, 2100.175
963.5004, 2085.914
965.4288, 2094.096
967.3573, 2124.010
969.2858, 2174.751
971.2142, 2249.016
973.1427, 2342.695
975.0712, 2460.026
976.9996, 2601.394
978.9281, 2726.875
980.8566, 2824.717
982.7850, 2914.683
984.7135, 3004.159
986.6420, 3093.288
988.5704, 3174.194
990.4989, 3228.711
992.4274, 3296.158
994.3558, 3390.082
996.2843, 3508.324
998.2128, 3648.651
1000.141, 3835.731
1002.070, 3996.553
1003.998, 4152.765
1005.927, 4263.102
1007.855, 4218.906
1009.784, 3915.740
1011.712, 3580.350
1013.641, 3189.961
1015.569, 2796.938
1017.497, 2489.815
1019.426, 2271.660
1021.354, 2106.039
1023.283, 2006.352
1025.211, 1946.417
1027.140, 1902.359
1029.068, 1874.667
1030.997, 1860.136
1032.925, 1874.098
1034.854, 1887.926
1036.782, 1884.528
1038.711, 1860.786
1040.639, 1832.543
1042.568, 1792.135
1044.496, 1755.411
1046.424, 1733.089
1048.353, 1722.866
1050.281, 1707.487
1052.210, 1681.504
1054.138, 1658.694
1056.067, 1645.156
1057.995, 1638.812
1059.924, 1635.731
1061.852, 1637.563
1063.781, 1638.625
1065.709, 1637.603
1067.638, 1634.715
1069.566, 1629.976
1071.495, 1618.992
1073.423, 1614.166
1075.351, 1621.883
1077.280, 1632.304
1079.208, 1636.584
1081.137, 1634.981
1083.065, 1632.540
1084.994, 1630.704
1086.922, 1627.423
1088.851, 1619.676
1090.779, 1608.026
1092.708, 1603.442
1094.636, 1617.310
1096.565, 1626.303
1098.493, 1619.698
1100.422, 1603.327
1102.350, 1596.413
1104.278, 1605.815
1106.207, 1612.418
1108.135, 1608.393
1110.064, 1601.935
1111.992, 1603.307
1113.921, 1613.050
1115.849, 1623.812
1117.778, 1632.813
1119.706, 1643.809
1121.635, 1661.205
1123.563, 1685.986
1125.492, 1704.132
1127.420, 1705.929
1129.349, 1710.940
1131.277, 1728.857
1133.205, 1756.046
1135.134, 1775.593
1137.062, 1779.890
1138.991, 1788.785
1140.919, 1807.955
1142.848, 1832.703
1144.776, 1859.580
1146.705, 1890.389
1148.633, 1910.173
1150.562, 1907.946
1152.490, 1900.976
1154.419, 1900.642
1156.347, 1907.061
1158.276, 1910.623
1160.204, 1910.597
1162.132, 1907.608
1164.061, 1896.993
1165.989, 1883.245
1167.918, 1881.350
1169.846, 1909.177
1171.775, 1921.243
1173.703, 1900.106
1175.632, 1868.332
1177.560, 1850.599
1179.489, 1847.018
1181.417, 1841.156
1183.346, 1828.767
1185.274, 1815.682
1187.203, 1803.910
1189.131, 1793.920
1191.059, 1787.829
1192.988, 1785.786
1194.916, 1788.720
1196.845, 1800.369
1198.773, 1815.602
1200.702, 1826.695
1202.630, 1830.266
1204.559, 1835.359
1206.487, 1841.356
1208.416, 1848.381
1210.344, 1857.007
1212.273, 1866.883
1214.201, 1875.875
1216.130, 1886.325
1218.058, 1892.658
1219.986, 1885.672
1221.915, 1877.018
1223.843, 1886.271
1225.772, 1919.293
1227.700, 1943.563
1229.629, 1940.615
1231.557, 1936.337
1233.486, 1948.328
1235.414, 1977.815
1237.343, 1998.125
1239.271, 2001.722
1241.200, 2004.644
1243.128, 2008.627
1245.057, 2014.412
1246.985, 2023.941
1248.913, 2038.837
1250.842, 2052.479
1252.770, 2067.770
1254.699, 2078.646
1256.627, 2080.806
1258.556, 2075.322
1260.484, 2065.112
1262.413, 2047.903
1264.341, 2032.104
1266.270, 2020.850
1268.198, 2012.842
1270.127, 2008.650
1272.055, 2010.414
1273.984, 2002.879
1275.912, 1969.177
1277.840, 1939.245
1279.769, 1928.918
1281.697, 1935.997
1283.626, 1942.392
1285.554, 1951.365
1287.483, 1955.826
1289.411, 1952.338
1291.340, 1945.544
1293.268, 1939.803
1295.197, 1934.891
1297.125, 1931.456
1299.054, 1928.455
1300.982, 1928.106
1302.911, 1933.921
1304.839, 1942.749
1306.767, 1946.994
1308.696, 1944.632
1310.624, 1947.230
1312.553, 1963.958
1314.481, 1980.134
1316.410, 1984.249
1318.338, 1977.427
1320.267, 1973.406
1322.195, 1973.533
1324.124, 1975.059
1326.052, 1975.681
1327.981, 1978.413
1329.909, 1988.480
1331.838, 2011.776
1333.766, 2024.878
1335.694, 2021.195
1337.623, 2016.289
1339.551, 2014.951
1341.480, 2016.591
1343.408, 2020.404
1345.337, 2027.875
1347.265, 2032.297
1349.194, 2029.501
1351.122, 2026.198
1353.051, 2026.460
1354.979, 2030.118
1356.908, 2036.892
1358.836, 2049.665
1360.765, 2059.042
1362.693, 2058.395
1364.621, 2056.345
1366.550, 2060.629
1368.478, 2071.044
1370.407, 2081.779
1372.335, 2094.086
1374.264, 2102.850
1376.192, 2101.217
1378.121, 2096.869
1380.049, 2102.076
1381.978, 2120.198
1383.906, 2133.078
1385.835, 2132.306
1387.763, 2134.365
1389.692, 2151.558
1391.620, 2175.499
1393.548, 2185.282
1395.477, 2170.583
1397.405, 2161.497
1399.334, 2158.280
1401.262, 2160.785
1403.191, 2171.681
1405.119, 2188.592
1407.048, 2201.369
1408.976, 2207.701
1410.905, 2215.880
1412.833, 2229.691
1414.762, 2243.780
1416.690, 2254.917
1418.619, 2263.331
1420.547, 2269.294
1422.475, 2272.355
1424.404, 2274.138
1426.332, 2268.860
1428.261, 2267.465
1430.189, 2280.992
1432.118, 2306.537
1434.046, 2325.950
1435.975, 2337.874
1437.903, 2343.106
1439.832, 2336.210
1441.760, 2327.583
1443.689, 2328.609
1445.617, 2339.945
1447.546, 2341.819
1449.474, 2323.890
1451.402, 2313.090
1453.331, 2320.365
1455.259, 2333.724
1457.188, 2340.978
1459.116, 2340.818
1461.045, 2341.779
1462.973, 2345.788
1464.902, 2347.374
1466.830, 2346.231
1468.759, 2341.503
1470.687, 2329.026
1472.616, 2306.700
1474.544, 2299.614
1476.473, 2323.665
1478.401, 2341.665
1480.329, 2340.521
1482.258, 2333.057
1484.186, 2333.085
1486.115, 2340.837
1488.043, 2348.351
1489.972, 2355.955
1491.900, 2361.723
1493.829, 2364.338
1495.757, 2364.963
1497.686, 2362.299
1499.614, 2357.507
1501.543, 2363.144
1503.471, 2388.875
1505.400, 2406.099
1507.328, 2398.552
1509.256, 2383.991
1511.185, 2374.902
1513.113, 2371.410
1515.042, 2377.147
1516.970, 2396.276
1518.899, 2411.932
1520.827, 2417.735
1522.756, 2418.313
1524.684, 2413.957
1526.613, 2407.146
1528.541, 2410.655
1530.470, 2430.840
1532.398, 2444.809
1534.327, 2445.941
1536.255, 2440.687
1538.183, 2429.264
1540.112, 2414.171
1542.040, 2405.228
1543.969, 2401.361
1545.897, 2406.442
1547.826, 2426.585
1549.754, 2449.924
1551.683, 2475.920
1553.611, 2500.309
1555.540, 2512.115
1557.468, 2508.331
1559.397, 2502.917
1561.325, 2491.859
1563.254, 2485.063
1565.182, 2487.762
1567.111, 2495.301
1569.039, 2500.828
1570.968, 2503.483
1572.896, 2508.895
1574.824, 2520.079
1576.753, 2530.855
1578.681, 2544.032
1580.610, 2553.697
1582.538, 2551.062
1584.467, 2536.259
1586.395, 2528.549
1588.324, 2533.139
1590.252, 2536.682
1592.181, 2540.569
1594.109, 2540.447
1596.038, 2529.450
1597.966, 2511.970
1599.895, 2504.128
1601.823, 2510.185
1603.751, 2519.064
1605.680, 2532.989
1607.608, 2547.730
1609.537, 2563.139
1611.465, 2577.413
1613.394, 2586.740
1615.322, 2589.361
1617.251, 2594.212
1619.179, 2599.876
1621.108, 2608.146
1623.036, 2624.835
1624.965, 2639.592
1626.893, 2642.522
1628.822, 2635.190
1630.750, 2627.771
1632.678, 2619.088
1634.607, 2614.441
1636.535, 2616.398
1638.464, 2620.743
1640.392, 2626.451
1642.321, 2632.192
1644.249, 2634.431
1646.178, 2630.697
1648.106, 2632.274
1650.035, 2641.705
1651.963, 2652.602
1653.892, 2669.278
1655.820, 2682.390
1657.749, 2682.054
1659.677, 2670.099
1661.605, 2657.429
1663.534, 2639.260
1665.462, 2632.573
1667.391, 2647.777
1669.319, 2664.963
1671.248, 2674.262
1673.176, 2678.870
1675.105, 2681.794
1677.033, 2680.674
1678.962, 2692.815
1680.890, 2738.254
1682.819, 2767.909
1684.747, 2761.327
1686.676, 2746.387
1688.604, 2745.028
1690.532, 2753.275
1692.461, 2754.466
1694.389, 2741.835
1696.318, 2741.932
1698.246, 2762.476
1700.175, 2787.028
1702.103, 2818.953
1704.032, 2845.874
1705.960, 2852.040
1707.889, 2838.576
1709.817, 2823.267
1711.746, 2795.310
1713.674, 2785.229
1715.603, 2813.742
1717.531, 2838.679
1719.459, 2832.350
1721.388, 2813.298
1723.316, 2811.523
1725.245, 2828.865
1727.173, 2846.073
1729.102, 2872.797
1731.030, 2885.484
1732.959, 2870.070
1734.887, 2852.260
1736.816, 2846.779
1738.744, 2850.154
1740.673, 2855.609
1742.601, 2863.943
1744.530, 2869.698
1746.458, 2865.715
1748.386, 2868.904
1750.315, 2890.606
1752.243, 2911.717
1754.172, 2915.928
1756.100, 2909.565
1758.029, 2911.902
1759.957, 2929.148
1761.886, 2933.746
1763.814, 2916.137
1765.743, 2900.014
1767.671, 2886.056
1769.600, 2879.723
1771.528, 2887.607
1773.457, 2905.985
1775.385, 2923.660
1777.313, 2940.519
1779.242, 2954.372
1781.170, 2964.854
1783.099, 2970.850
1785.027, 2971.814
1786.956, 2968.077
1788.884, 2955.536
1790.813, 2939.453
1792.741, 2936.335
1794.670, 2947.766
1796.598, 2957.432
1798.527, 2964.398
1800.455, 2968.944
1802.384, 2968.696
1804.312, 2969.011
1806.240, 2973.670
1808.169, 2981.383
1810.097, 2990.626
1812.026, 3001.392
1813.954, 3006.659
1815.883, 3000.028
1817.811, 3003.439
1819.740, 3037.216
1821.668, 3066.242
1823.597, 3060.458
1825.525, 3038.869
1827.454, 3031.763
1829.382, 3038.308
1831.311, 3045.257
1833.239, 3049.653
1835.167, 3062.442
1837.096, 3104.729
1839.024, 3134.118
1840.953, 3120.675
1842.881, 3089.885
1844.810, 3070.628
1846.738, 3062.251
1848.667, 3062.175
1850.595, 3077.205
1852.524, 3082.596
1854.452, 3064.896
1856.381, 3054.943
1858.309, 3069.161
1860.238, 3089.868
1862.166, 3102.222
1864.094, 3108.303
1866.023, 3114.440
1867.951, 3120.027
1869.880, 3125.922
1871.808, 3131.012
1873.737, 3136.557
1875.665, 3143.232
1877.594, 3149.225
1879.522, 3154.348
1881.451, 3158.005
1883.379, 3158.514
1885.308, 3156.271
1887.236, 3156.052
1889.165, 3158.580
1891.093, 3160.937
1893.021, 3165.675
1894.950, 3164.345
1896.878, 3144.301
1898.807, 3125.381
1900.735, 3126.829
1902.664, 3140.825
1904.592, 3149.138
1906.521, 3151.801
1908.449, 3159.856
1910.378, 3176.300
1912.306, 3193.048
1914.235, 3215.334
1916.163, 3228.293
1918.092, 3215.915
1920.020, 3195.950
1921.948, 3189.290
1923.877, 3193.735
1925.805, 3198.993
1927.734, 3207.578
1929.662, 3209.155
1931.591, 3195.425
1933.519, 3187.710
1935.448, 3195.791
1937.376, 3205.073
1939.305, 3200.346
1941.233, 3195.866
1943.162, 3220.121
1945.090, 3269.425
1947.019, 3286.950
1948.947, 3264.133
1950.875, 3246.889
1952.804, 3240.882
1954.732, 3239.299
1956.661, 3239.758
1958.589, 3244.707
1960.518, 3258.554
1962.446, 3276.023
1964.375, 3290.607
1966.303, 3301.979
1968.232, 3309.663
1970.160, 3313.632
1972.089, 3311.669
1974.017, 3294.138
1975.946, 3288.747
1977.874, 3316.786
1979.802, 3345.832
1981.731, 3355.029
1983.659, 3353.917
1985.588, 3353.141
1987.516, 3353.338
1989.445, 3362.275
1991.373, 3389.068
1993.302, 3398.712
1995.230, 3373.065
1997.159, 3359.191
1999.087, 3377.929
2001.016, 3394.738
2002.944, 3384.153
2004.873, 3370.175
2006.801, 3387.628
2008.729, 3423.421
2010.658, 3428.541
2012.586, 3402.063
2014.515, 3397.156
2016.443, 3426.576
2018.372, 3449.545
2020.300, 3452.597
2022.229, 3452.073
2024.157, 3456.262
2026.086, 3458.260
2028.014, 3448.091
2029.943, 3433.404
2031.871, 3432.242
2033.800, 3444.846
2035.728, 3449.438
2037.656, 3440.851
2039.585, 3436.413
2041.513, 3441.068
2043.442, 3442.606
2045.370, 3427.087
2047.299, 3421.004
2049.227, 3448.274
2051.156, 3483.860
2053.084, 3497.861
2055.013, 3497.531
2056.941, 3506.228
2058.870, 3523.645
2060.798, 3527.302
2062.727, 3508.371
2064.655, 3504.428
2066.583, 3538.918
2068.512, 3563.485
2070.440, 3552.627
2072.369, 3536.943
2074.297, 3536.575
2076.226, 3544.871
2078.154, 3551.971
2080.083, 3559.371
2082.011, 3575.626
2083.940, 3604.190
2085.868, 3620.983
2087.797, 3623.298
2089.725, 3617.844
2091.654, 3596.624
2093.582, 3583.582
2095.510, 3593.979
2097.439, 3608.109
2099.367, 3612.231
2101.296, 3613.461
2103.224, 3624.432
2105.153, 3640.165
2107.081, 3639.456
2109.010, 3620.043
2110.938, 3613.282
2112.867, 3621.632
2114.795, 3638.755
2116.724, 3673.844
2118.652, 3703.533
2120.581, 3717.424
2122.509, 3729.886
2124.438, 3747.500
2126.366, 3768.113
2128.294, 3787.849
2130.223, 3808.595
2132.151, 3841.577
2134.080, 3882.690
2136.008, 3896.907
2137.937, 3878.115
2139.865, 3869.595
2141.794, 3882.449
2143.722, 3896.790
2145.651, 3910.443
2147.579, 3923.166
2149.508, 3935.662
2151.436, 3946.466
2153.365, 3952.113
2155.293, 3956.157
2157.221, 3964.184
2159.150, 3975.104
2161.078, 3985.259
2163.007, 3994.591
2164.935, 4002.740
2166.864, 4008.333
2168.792, 4021.835
2170.721, 4050.628
2172.649, 4073.454
2174.578, 4081.143
2176.506, 4084.331
2178.435, 4090.417
2180.363, 4091.205
2182.292, 4071.483
2184.220, 4047.680
2186.148, 4049.073
2188.077, 4070.333
2190.005, 4087.312
2191.934, 4100.313
2193.862, 4100.760
2195.791, 4083.860
2197.719, 4084.083
2199.648, 4118.497
2201.576, 4133.120
2203.505, 4092.873
2205.433, 4058.187
2207.362, 4060.410
2209.290, 4071.903
2211.219, 4075.388
2213.147, 4075.258
2215.075, 4077.658
2217.004, 4081.076
2218.932, 4080.678
2220.861, 4076.500
2222.789, 4067.306
2224.718, 4051.885
2226.646, 4048.831
2228.575, 4062.743
2230.503, 4077.033
2232.432, 4087.566
2234.360, 4098.427
2236.289, 4113.917
2238.217, 4125.119
2240.146, 4124.808
2242.074, 4120.250
2244.002, 4115.222
2245.931, 4111.661
2247.859, 4114.497
2249.788, 4121.449
2251.716, 4124.925
2253.645, 4125.084
2255.573, 4118.888
2257.502, 4105.631
2259.430, 4103.080
2261.359, 4119.332
2263.287, 4124.433
2265.216, 4099.311
2267.144, 4084.464
2269.073, 4091.222
2271.001, 4107.689
2272.929, 4140.526
2274.858, 4167.820
2276.786, 4163.931
2278.715, 4153.109
2280.643, 4167.110
2282.572, 4192.274
2284.500, 4203.378
2286.429, 4202.050
2288.357, 4195.343
2290.286, 4183.341
2292.214, 4175.420
2294.143, 4172.135
2296.071, 4174.152
2298.000, 4190.326
2299.928, 4194.815
2301.856, 4171.999
2303.785, 4161.296
2305.713, 4181.546
2307.642, 4203.812
2309.570, 4214.392
2311.499, 4220.725
2313.427, 4229.417
2315.356, 4235.223
2317.284, 4225.545
2319.213, 4211.519
2321.141, 4213.189
2323.070, 4230.450
2324.998, 4274.717
2326.927, 4345.247
2328.855, 4359.406
2330.783, 4312.200
2332.712, 4271.383
2334.640, 4243.564
2336.569, 4224.331
2338.497, 4213.984
2340.426, 4210.353
2342.354, 4212.026
2344.283, 4221.448
2346.211, 4252.302
2348.140, 4273.538
2350.068, 4255.619
2351.997, 4235.681
2353.925, 4245.645
2355.854, 4265.119
2357.782, 4271.948
2359.710, 4272.350
2361.639, 4277.720
2363.567, 4286.322
2365.496, 4291.896
2367.424, 4294.796
2369.353, 4295.855
2371.281, 4295.417
2373.210, 4293.353
2375.138, 4290.048
2377.067, 4281.838
2378.995, 4264.323
2380.924, 4257.903
2382.852, 4276.737
2384.781, 4284.938
2386.709, 4257.760
2388.637, 4239.730
2390.566, 4258.764
2392.494, 4276.594
2394.423, 4267.920
2396.351, 4256.773
2398.280, 4260.318
2400.208, 4270.979
2402.137, 4283.226
2404.065, 4295.000
2405.994, 4302.254
2407.922, 4306.674
2409.851, 4315.160
2411.779, 4326.121
2413.708, 4329.138
2415.636, 4324.647
2417.564, 4316.983
2419.493, 4306.242
2421.421, 4301.650
2423.350, 4303.841
2425.278, 4311.266
2427.207, 4325.636
2429.135, 4336.854
2431.064, 4341.940
2432.992, 4344.433
2434.921, 4345.886
2436.849, 4343.365
2438.778, 4330.860
2440.706, 4324.000
2442.635, 4337.954
2444.563, 4348.153
2446.491, 4329.418
2448.420, 4312.500
2450.348, 4331.279
2452.277, 4356.257
2454.205, 4352.275
2456.134, 4334.750
2458.062, 4323.823
2459.991, 4318.875
2461.919, 4318.258
2463.848, 4322.943
2465.776, 4342.916
2467.705, 4372.953
2469.633, 4371.690
2471.562, 4337.900
2473.490, 4329.020
2475.418, 4352.174
2477.347, 4354.867
2479.275, 4331.528
2481.204, 4325.064
2483.132, 4344.573
2485.061, 4351.655
2486.989, 4333.605
2488.918, 4322.298
2490.846, 4323.164
2492.775, 4334.298
2494.703, 4365.975
2496.632, 4391.600
2498.560, 4401.633
2500.489, 4407.796
2502.417, 4413.161
2504.345, 4415.821
2506.274, 4417.510
2508.202, 4412.475
2510.131, 4383.617
2512.059, 4362.883
2513.988, 4396.418
2515.916, 4432.542
2517.845, 4405.503
2519.773, 4360.438
2521.702, 4351.529
2523.630, 4360.261
2525.559, 4363.042
2527.487, 4360.248
2529.416, 4349.985
2531.344, 4336.877
2533.272, 4337.248
2535.201, 4348.232
2537.129, 4349.192
2539.058, 4343.173
2540.986, 4347.737
2542.915, 4362.482
2544.843, 4366.656
2546.772, 4356.181
2548.700, 4359.538
2550.629, 4379.119
2552.557, 4392.221
2554.486, 4397.395
2556.414, 4400.276
2558.343, 4401.817
2560.271, 4403.017
2562.199, 4408.527
2564.128, 4404.886
2566.056, 4373.785
2567.985, 4368.181
2569.913, 4408.951
2571.842, 4430.013
2573.770, 4406.389
2575.699, 4388.612
2577.627, 4395.791
2579.556, 4406.263
2581.484, 4418.039
2583.413, 4426.146
2585.341, 4434.609
2587.270, 4430.658
2589.198, 4395.924
2591.126, 4370.097
2593.055, 4383.053
2594.983, 4397.094
2596.912, 4387.615
2598.840, 4374.523
2600.769, 4367.240
2602.697, 4366.438
2604.626, 4371.812
2606.554, 4385.750
2608.483, 4424.736
2610.411, 4457.715
2612.340, 4449.006
2614.268, 4425.697
2616.197, 4410.791
2618.125, 4404.225
2620.053, 4412.385
2621.982, 4422.894
2623.910, 4416.159
2625.839, 4402.719
2627.767, 4396.448
2629.696, 4395.474
2631.624, 4396.733
2633.553, 4400.990
2635.481, 4414.828
2637.410, 4430.079
2639.338, 4420.389
2641.267, 4398.768
2643.195, 4398.632
2645.124, 4410.826
2647.052, 4408.539
2648.980, 4395.757
2650.909, 4389.100
2652.837, 4386.766
2654.766, 4375.888
2656.694, 4361.728
2658.623, 4370.355
2660.551, 4395.362
2662.480, 4392.601
2664.408, 4366.309
2666.337, 4365.089
2668.265, 4383.745
2670.194, 4366.571
2672.122, 4320.892
2674.051, 4307.186
2675.979, 4325.355
2677.907, 4330.956
2679.836, 4324.219
2681.764, 4314.340
2683.693, 4302.185
2685.621, 4313.949
2687.550, 4347.479
2689.478, 4364.249
2691.407, 4361.421
2693.335, 4353.348
2695.264, 4339.579
2697.192, 4316.218
2699.121, 4283.492
2701.049, 4283.669
2702.978, 4317.138
2704.906, 4326.088
2706.834, 4305.055
2708.763, 4288.707
2710.691, 4276.853
2712.620, 4270.422
2714.548, 4268.829
2716.477, 4279.622
2718.405, 4302.351
2720.334, 4312.711
2722.262, 4309.166
2724.191, 4287.786
2726.119, 4245.686
2728.048, 4217.566
2729.976, 4204.094
2731.905, 4181.986
2733.833, 4150.092
2735.761, 4138.263
2737.690, 4150.063
2739.618, 4151.293
2741.547, 4141.573
2743.475, 4124.165
2745.404, 4099.193
2747.332, 4069.019
2749.261, 4033.586
2751.189, 4012.051
2753.118, 4005.748
2755.046, 3986.424
2756.975, 3955.249
2758.903, 3943.743
2760.832, 3951.718
2762.760, 3969.313
2764.688, 3994.778
2766.617, 3983.595
2768.545, 3936.753
2770.474, 3918.398
2772.402, 3923.788
2774.331, 3920.507
2776.259, 3909.183
2778.188, 3899.633
2780.116, 3893.187
2782.045, 3898.439
2783.973, 3913.956
2785.902, 3927.643
2787.830, 3939.846
2789.759, 3954.871
2791.687, 3968.750
2793.615, 3964.113
2795.544, 3947.561
2797.472, 3949.067
2799.401, 3959.793
2801.329, 3950.287
2803.258, 3931.725
2805.186, 3932.201
2807.115, 3942.291
2809.043, 3942.759
2810.972, 3934.850
2812.900, 3913.551
2814.829, 3890.841
2816.757, 3888.669
2818.686, 3893.751
2820.614, 3881.678
2822.542, 3868.146
2824.471, 3882.375
2826.399, 3900.574
2828.328, 3890.134
2830.256, 3875.085
2832.185, 3883.978
2834.113, 3896.687
2836.042, 3892.349
2837.970, 3885.397
2839.899, 3887.113
2841.827, 3891.374
2843.756, 3890.587
2845.684, 3893.676
2847.613, 3911.905
2849.541, 3926.225
2851.469, 3924.850
2853.398, 3919.286
2855.326, 3916.352
2857.255, 3909.874
2859.183, 3892.822
2861.112, 3880.786
2863.040, 3879.116
2864.969, 3882.826
2866.897, 3894.150
2868.826, 3899.852
2870.754, 3896.380
2872.683, 3884.830
2874.611, 3857.155
2876.540, 3844.985
2878.468, 3855.399
2880.396, 3867.001
2882.325, 3880.008
2884.253, 3877.040
2886.182, 3846.085
2888.110, 3838.790
2890.039, 3857.384
2891.967, 3874.370
2893.896, 3887.833
2895.824, 3882.106
2897.753, 3856.380
2899.681, 3847.591
2901.610, 3854.271
2903.538, 3869.896
2905.467, 3889.161
2907.395, 3885.801
2909.323, 3869.267
2911.252, 3872.445
2913.180, 3887.308
2915.109, 3898.336
2917.037, 3901.861
2918.966, 3879.313
2920.894, 3857.463
2922.823, 3885.918
2924.751, 3923.459
2926.680, 3921.055
2928.608, 3907.398
2930.537, 3900.580
2932.465, 3899.107
2934.394, 3906.372
2936.322, 3912.923
2938.250, 3915.947
2940.179, 3913.284
2942.107, 3895.068
2944.036, 3887.027
2945.964, 3909.025
2947.893, 3923.184
2949.821, 3921.565
2951.750, 3916.968
2953.678, 3910.223
2955.607, 3907.019
2957.535, 3907.961
2959.464, 3911.912
2961.392, 3918.413
2963.321, 3928.518
2965.249, 3942.187
2967.177, 3949.494
2969.106, 3950.569
2971.034, 3944.070
2972.963, 3932.677
2974.891, 3930.754
2976.820, 3936.607
2978.748, 3949.569
2980.677, 3962.585
2982.605, 3954.888
2984.534, 3944.810
2986.462, 3973.407
2988.391, 3996.745
2990.319, 3954.839
2992.248, 3912.058
2994.176, 3929.513
2996.104, 3949.328
2998.033, 3942.319
2999.961, 3929.371
3001.890, 3911.867
3003.818, 3902.843
3005.747, 3907.851
3007.675, 3914.433
3009.604, 3922.222
3011.532, 3922.069
3013.461, 3910.903
3015.389, 3894.458
3017.318, 3871.114
3019.246, 3879.174
3021.175, 3916.054
3023.103, 3919.110
3025.031, 3894.532
3026.960, 3886.457
3028.888, 3889.823
3030.817, 3889.807
3032.745, 3889.457
3034.674, 3892.879
3036.602, 3901.177
3038.531, 3921.125
3040.459, 3940.743
3042.388, 3950.705
3044.316, 3955.647
3046.245, 3952.716
3048.173, 3952.942
3050.102, 3964.305
3052.030, 3970.571
3053.959, 3967.828
3055.887, 3960.105
3057.816, 3944.330
3059.744, 3935.257
3061.673, 3934.280
3063.601, 3937.341
3065.530, 3944.342
3067.458, 3954.937
3069.386, 3966.931
3071.315, 3966.498
3073.243, 3956.629
3075.172, 3942.774
3077.100, 3931.696
3079.029, 3940.608
3080.957, 3953.231
3082.886, 3944.537
3084.814, 3942.041
3086.743, 3976.993
3088.671, 4004.354
3090.600, 3990.315
3092.528, 3980.962
3094.457, 3990.104
3096.385, 3990.499
3098.313, 3970.955
3100.242, 3958.096
3102.170, 3956.533
3104.099, 3952.542
3106.027, 3947.078
3107.956, 3941.149
3109.884, 3936.501
3111.813, 3937.287
3113.741, 3943.385
3115.670, 3958.788
3117.598, 3973.863
3119.527, 3980.150
3121.455, 3975.402
3123.384, 3941.447
3125.312, 3921.793
3127.240, 3945.883
3129.169, 3972.910
3131.097, 3995.018
3133.026, 4000.916
3134.954, 3982.986
3136.883, 3984.868
3138.811, 4013.718
3140.740, 4039.500
3142.668, 4060.114
3144.597, 4039.472
3146.525, 3996.954
3148.454, 4006.468
3150.382, 4038.198
3152.311, 4039.699
3154.239, 4031.545
3156.167, 4038.827
3158.096, 4043.279
3160.024, 4028.970
3161.953, 4016.361
3163.881, 4013.864
3165.810, 4012.817
3167.738, 4009.908
3169.667, 4016.606
3171.595, 4040.431
3173.524, 4045.621
3175.452, 4034.704
3177.381, 4037.546
3179.309, 4049.248
3181.238, 4048.142
3183.166, 4043.250
3185.094, 4051.807
3187.023, 4065.098
3188.951, 4080.275
3190.880, 4089.691
3192.808, 4091.538
3194.737, 4078.967
3196.665, 4038.669
3198.594, 4021.127
3200.522, 4051.220
3202.451, 4072.223
3204.379, 4084.085
3206.308, 4095.410
3208.236, 4103.865
3210.165, 4088.210
3212.093, 4064.524
3214.021, 4071.915
3215.950, 4090.068
3217.878, 4101.990
3219.807, 4108.131
3221.735, 4103.301
3223.664, 4099.762
3225.592, 4097.258
3227.521, 4106.050
3229.449, 4144.598
3231.378, 4140.651
3233.306, 4095.738
3235.235, 4081.195
3237.163, 4093.681
3239.092, 4108.438
3241.020, 4116.771
3242.948, 4085.874
3244.877, 4054.405
3246.805, 4059.418
3248.734, 4073.943
3250.662, 4080.553
3252.591, 4097.744
3254.519, 4139.784
3256.448, 4163.131
3258.376, 4159.817
3260.305, 4160.537
3262.233, 4164.749
3264.162, 4156.412
3266.090, 4139.034
3268.019, 4113.823
3269.947, 4094.361
3271.875, 4099.875
3273.804, 4112.750
3275.732, 4124.616
3277.661, 4132.445
3279.589, 4136.220
3281.518, 4131.508
3283.446, 4113.149
3285.375, 4101.402
3287.303, 4097.067
3289.232, 4104.235
3291.160, 4119.689
3293.089, 4135.798
3295.017, 4149.516
3296.946, 4154.563
3298.874, 4156.755
3300.802, 4155.389
3302.731, 4160.039
3304.659, 4180.992
3306.588, 4184.152
3308.516, 4160.935
3310.445, 4160.234
3312.373, 4182.579
3314.302, 4177.265
3316.230, 4161.348
3318.159, 4183.022
3320.087, 4211.212
3322.016, 4208.845
3323.944, 4197.549
3325.873, 4185.736
3327.801, 4177.099
3329.729, 4169.355
3331.658, 4175.139
3333.586, 4194.839
3335.515, 4218.528
3337.443, 4242.580
3339.372, 4254.224
3341.300, 4255.896
3343.229, 4251.671
3345.157, 4242.190
3347.086, 4216.774
3349.014, 4208.044
3350.943, 4232.774
3352.871, 4253.103
3354.800, 4259.408
3356.728, 4259.165
3358.656, 4253.023
3360.585, 4246.774
3362.513, 4246.317
3364.442, 4277.014
3366.370, 4306.158
3368.299, 4288.538
3370.227, 4282.467
3372.156, 4339.682
3374.084, 4364.204
3376.013, 4335.293
3377.941, 4330.569
3379.870, 4355.373
3381.798, 4370.545
3383.727, 4375.456
3385.655, 4367.296
3387.583, 4351.755
3389.512, 4318.434
3391.440, 4311.699
3393.369, 4367.500
3395.297, 4398.813
3397.226, 4365.762
3399.154, 4345.019
3401.083, 4336.526
3403.011, 4351.326
3404.940, 4376.549
3406.868, 4380.715
3408.797, 4384.281
3410.725, 4415.819
3412.654, 4437.938
3414.582, 4419.461
3416.510, 4420.408
3418.439, 4449.917
3420.367, 4460.360
3422.296, 4453.072
3424.224, 4472.015
3426.153, 4498.018
3428.081, 4492.370
3430.010, 4481.819
3431.938, 4485.255
3433.867, 4495.567
3435.795, 4515.776
3437.724, 4517.623
3439.652, 4494.611
3441.581, 4479.925
3443.509, 4474.522
3445.438, 4478.172
3447.366, 4491.244
3449.294, 4524.827
3451.223, 4550.171
3453.151, 4545.436
3455.080, 4541.911
3457.008, 4544.762
3458.937, 4547.549
3460.865, 4550.547
3462.794, 4557.170
3464.722, 4567.955
3466.651, 4593.366
3468.579, 4609.174
3470.508, 4578.145
3472.436, 4571.376
3474.365, 4613.139
3476.293, 4641.695
3478.221, 4648.920
3480.150, 4629.839
3482.078, 4599.866
3484.007, 4603.166
3485.935, 4620.706
3487.864, 4645.681
3489.792, 4655.884
3491.721, 4635.410
3493.649, 4634.403
3495.578, 4667.390
3497.506, 4661.383
3499.435, 4633.012
3501.363, 4637.629
3503.292, 4652.667
3505.220, 4645.873
3507.148, 4647.995
3509.077, 4683.463
3511.005, 4705.383
3512.934, 4707.791
3514.862, 4708.335
3516.791, 4709.966
3518.719, 4721.958
3520.648, 4741.792
3522.576, 4767.186
3524.505, 4797.667
3526.433, 4845.020
3528.362, 4866.451
3530.290, 4856.478
3532.219, 4869.734
3534.147, 4900.563
3536.075, 4922.257
3538.004, 4932.577
3539.932, 4923.704
3541.861, 4914.826
3543.789, 4916.334
3545.718, 4908.899
3547.646, 4886.754
3549.575, 4879.144
3551.503, 4887.244
3553.432, 4925.599
3555.360, 4966.766
3557.289, 4981.830
3559.217, 4989.114
3561.146, 4988.898
3563.074, 5011.604
3565.002, 5063.623
3566.931, 5069.621
3568.859, 5049.897
3570.788, 5046.175
3572.716, 5044.174
3574.645, 5024.650
3576.573, 5022.352
3578.502, 5068.710
3580.430, 5015.575
3582.359, 5097.336
3584.287, 5148.499
3586.216, 5170.703
3588.144, 5077.959
3590.073, 5133.054
3592.001, 5128.538
3593.929, 5121.330
3595.858, 5196.494
3597.786, 5119.142
3599.715, 5192.481
3601.643, 5205.303
3603.572, 5245.449
3605.500, 5225.618
3607.429, 5223.977
3609.357, 5281.808
3611.286, 5306.310
3613.214, 5278.575
3615.143, 5318.926
3617.071, 5236.912
3619.000, 5261.792
3620.928, 5332.639
3622.856, 5306.617
3624.785, 5346.771
3626.713, 5361.364
3628.642, 5260.723
3630.570, 5359.781
3632.499, 5372.108
3634.427, 5295.382
3636.356, 5386.819
3638.284, 5321.819
3640.213, 5312.309
3642.141, 5344.491
3644.070, 5332.684
3645.998, 5389.567
3647.927, 5379.770
3649.855, 5363.778
3651.783, 5373.428
3653.712, 5309.430
3655.640, 5381.330
3657.569, 5359.967
3659.497, 5384.576
3661.426, 5419.408
3663.354, 5373.743
3665.283, 5412.768
3667.211, 5319.802
3669.140, 5336.804
3671.068, 5341.679
3672.997, 5416.748
3674.925, 5408.853
3676.854, 5462.419
3678.782, 5500.135
3680.710, 5469.870
3682.639, 5456.898
3684.567, 5483.216
3686.496, 5519.558
3688.424, 5556.095
3690.353, 5542.204
3692.281, 5503.352
3694.210, 5443.474
3696.138, 5403.390
3698.067, 5391.897
3699.995, 5411.564
3701.924, 5453.501
3703.852, 5460.641
3705.781, 5459.298
3707.709, 5490.532
3709.637, 5503.134
3711.566, 5474.147
3713.494, 5475.028
3715.423, 5505.051
3717.351, 5500.455
3719.280, 5487.178
3721.208, 5498.301
3723.137, 5515.237
3725.065, 5534.208
3726.994, 5549.029
3728.922, 5561.302
3730.851, 5584.258
3732.779, 5602.405
3734.708, 5577.737
3736.636, 5576.450
3738.564, 5624.526
3740.493, 5657.787
3742.421, 5671.574
3744.350, 5694.396
3746.278, 5715.121
3748.207, 5721.235
3750.135, 5720.799
3752.064, 5717.123
3753.992, 5713.330
3755.921, 5710.162
3757.849, 5701.570
3759.778, 5697.719
3761.706, 5712.649
3763.635, 5728.083
3765.563, 5739.404
3767.491, 5733.221
3769.420, 5718.842
3771.348, 5755.076
3773.277, 5795.615
3775.205, 5797.027
3777.134, 5785.810
3779.062, 5763.653
3780.991, 5815.490
3782.919, 5907.931
3784.848, 5925.833
3786.776, 5918.156
3788.705, 5910.239
3790.633, 5908.608
3792.562, 5914.606
3794.490, 5920.592
3796.418, 5929.900
3798.347, 5956.676
3800.275, 5979.729
3802.204, 5973.589
3804.132, 6001.489
3806.061, 6063.047
3807.989, 6081.604
3809.918, 6082.166
3811.846, 6103.495
3813.775, 6116.541
3815.703, 6105.651
3817.632, 6106.277
3819.560, 6119.372
3821.489, 6141.399
3823.417, 6165.186
3825.345, 6185.910
3827.274, 6201.960
3829.202, 6213.899
3831.131, 6204.950
3833.059, 6185.796
3834.988, 6167.500
3836.916, 6179.140
3838.845, 6261.004
3840.773, 6299.448
3842.702, 6291.780
3844.630, 6320.045
3846.559, 6366.143
3848.487, 6416.185
3850.416, 6447.422
3852.344, 6449.939
3854.272, 6442.590
3856.201, 6431.095
3858.129, 6435.649
3860.058, 6451.271
3861.986, 6476.556
3863.915, 6487.451
3865.843, 6480.760
3867.772, 6497.741
3869.700, 6525.412
3871.629, 6554.410
3873.557, 6577.814
3875.486, 6592.959
3877.414, 6606.288
3879.343, 6615.792
3881.271, 6610.595
3883.199, 6601.893
3885.128, 6583.794
3887.056, 6601.635
3888.985, 6657.562
3890.913, 6698.325
3892.842, 6733.524
3894.770, 6769.204
3896.699, 6790.054
3898.627, 6802.444
3900.556, 6788.928
3902.484, 6755.204
3904.413, 6744.967
3906.341, 6757.623
3908.270, 6804.498
3910.198, 6834.547
3912.126, 6844.029
3914.055, 6832.915
3915.983, 6826.332
3917.912, 6855.172
3919.840, 6883.582
3921.769, 6909.636
3923.697, 6927.955
3925.626, 6939.225
3927.554, 6956.541
3929.483, 6992.461
3931.411, 7058.785
3933.340, 7072.691
3935.268, 7045.146
3937.197, 7070.850
3939.125, 7105.636
3941.053, 7117.749
3942.982, 7141.240
3944.910, 7177.742
3946.839, 7198.099
3948.767, 7218.393
3950.696, 7233.160
3952.624, 7251.320
3954.553, 7291.445
3956.481, 7307.464
3958.410, 7300.796
3960.338, 7300.979
3962.267, 7298.514
3964.195, 7263.819
3966.124, 7268.496
3968.052, 7304.212
3969.980, 7324.467
3971.909, 7343.882
3973.837, 7345.418
3975.766, 7358.635
3977.694, 7397.125
3979.623, 7405.234
3981.551, 7410.041
3983.480, 7444.636
3985.408, 7467.984
3987.337, 7484.730
3989.265, 7523.442
3991.194, 7560.361
3993.122, 7567.046
3995.051, 7573.137
3996.979, 7585.521
3998.907, 7617.997
4000.836, 7647.493
4002.764, 7634.042
4004.693, 7666.173
4006.621, 7767.792
4008.550, 7764.033
4010.478, 7710.669
4012.407, 7742.631
4014.335, 7793.768
4016.264, 7835.123
4018.192, 7860.932
4020.121, 7881.352
4022.049, 7928.827
4023.978, 7973.606
4025.906, 8003.355
4027.834, 8030.892
4029.763, 8060.701
4031.691, 8113.626
4033.620, 8157.488
4035.548, 8155.183
4037.477, 8188.340
4039.405, 8264.043
4041.334, 8314.688
4043.262, 8353.447
4045.191, 8380.927
4047.119, 8413.504
4049.048, 8461.053
4050.976, 8479.126
4052.905, 8487.305
4054.833, 8514.827
4056.761, 8545.907
4058.690, 8584.665
4060.618, 8618.936
4062.547, 8641.495
4064.475, 8638.060
4066.404, 8642.304
4068.332, 8685.939
4070.261, 8717.280
4072.189, 8716.272
4074.118, 8740.660
4076.046, 8793.995
4077.975, 8836.587
4079.903, 8855.209
4081.832, 8881.165
4083.760, 8889.671
4085.688, 8899.015
4087.617, 8953.399
4089.545, 8994.765
4091.474, 8995.166
4093.402, 8968.783
4095.331, 8976.596
4097.259, 9037.864
4099.188, 9088.396
4101.116, 9111.885
4103.045, 9122.210
4104.973, 9148.322
4106.902, 9200.656
4108.830, 9250.509
4110.759, 9294.312
4112.687, 9315.218
4114.616, 9330.969
4116.544, 9339.962
4118.473, 9357.643
4120.401, 9415.118
4122.330, 9474.058
4124.258, 9530.682
4126.187, 9547.412
4128.115, 9553.064
4130.043, 9616.691
4131.972, 9657.105
4133.900, 9675.164
4135.829, 9722.876
4137.757, 9756.274
4139.686, 9789.588
4141.614, 9856.637
4143.542, 9943.931
4145.471, 10007.39
4147.399, 10038.95
4149.328, 10069.83
4151.256, 10140.63
4153.185, 10221.12
4155.113, 10278.20
4157.042, 10336.03
4158.970, 10387.05
4160.899, 10416.70
4162.827, 10432.49
4164.756, 10468.81
4166.684, 10530.13
4168.613, 10592.18
4170.541, 10638.87
4172.470, 10691.85
4174.398, 10744.84
4176.327, 10789.55
4178.255, 10792.80
4180.184, 10796.26
4182.112, 10843.23
4184.041, 10900.13
4185.969, 10952.90
4187.897, 10993.51
4189.826, 11030.96
4191.754, 11064.37
4193.683, 11084.05
4195.611, 11106.35
4197.540, 11122.87
4199.468, 11139.19
4201.396, 11162.12
4203.325, 11162.35
4205.253, 11171.45
4207.182, 11251.09
4209.110, 11322.82
4211.039, 11363.88
4212.967, 11376.30
4214.896, 11373.38
4216.824, 11375.42
4218.753, 11374.28
4220.681, 11368.14
4222.610, 11420.18
4224.538, 11491.07
4226.467, 11545.94
4228.395, 11573.03
4230.324, 11576.94
4232.252, 11622.85
4234.181, 11689.31
4236.109, 11770.83
4238.038, 11803.21
4239.966, 11792.61
4241.895, 11847.75
4243.823, 11910.96
4245.751, 11936.05
4247.680, 11961.47
4249.608, 11991.78
4251.537, 12025.64
4253.465, 12067.21
4255.394, 12113.26
4257.322, 12208.55
4259.250, 12314.63
4261.179, 12289.74
4263.107, 12286.74
4265.036, 12388.04
4266.964, 12428.11
4268.893, 12435.51
4270.821, 12501.20
4272.750, 12528.21
4274.678, 12481.03
4276.607, 12540.28
4278.535, 12624.88
4280.464, 12586.11
4282.392, 12588.48
4284.321, 12663.55
4286.249, 12733.16
4288.178, 12780.10
4290.106, 12787.37
4292.035, 12774.88
4293.963, 12750.04
4295.892, 12738.03
4297.820, 12729.96
4299.749, 12715.53
4301.677, 12714.20
4303.605, 12723.47
4305.534, 12746.58
4307.462, 12740.76
4309.391, 12660.13
4311.319, 12644.40
4313.248, 12659.50
4315.176, 12642.77
4317.104, 12634.74
4319.033, 12651.40
4320.961, 12599.19
4322.890, 12552.49
4324.818, 12621.29
4326.747, 12644.28
4328.675, 12611.18
4330.604, 12623.89
4332.532, 12644.55
4334.461, 12657.89
4336.389, 12628.79
4338.318, 12580.36
4340.246, 12576.70
4342.175, 12596.35
4344.103, 12638.08
4346.032, 12573.60
4347.960, 12475.32
4349.889, 12430.69
4351.817, 12437.86
4353.746, 12484.75
4355.674, 12423.64
4357.603, 12375.36
4359.531, 12422.30
4361.459, 12497.97
4363.388, 12572.58
4365.316, 12587.64
4367.245, 12584.55
4369.173, 12579.88
4371.102, 12565.95
4373.030, 12554.17
4374.958, 12569.04
4376.887, 12548.92
4378.815, 12501.28
4380.744, 12560.63
4382.672, 12632.26
4384.601, 12630.27
4386.529, 12697.04
4388.458, 12795.08
4390.386, 12801.99
4392.315, 12838.37
4394.243, 12951.25
4396.172, 12953.44
4398.100, 12932.84
4400.029, 12995.68
4401.957, 13005.81
4403.886, 12973.42
4405.814, 13027.92
4407.743, 13090.30
4409.671, 13126.85
4411.600, 13154.48
4413.528, 13183.79
4415.457, 13221.52
4417.385, 13278.31
4419.313, 13361.73
4421.242, 13534.12
4423.170, 13706.50
4425.099, 13805.74
4427.027, 13992.84
4428.956, 14259.48
4430.884, 14576.19
4432.813, 14913.95
4434.741, 15268.52
4436.669, 15664.00
4438.598, 16114.73
4440.526, 16667.10
4442.455, 17155.34
4444.383, 17548.32
4446.312, 17818.10
4448.240, 17912.09
4450.169, 17825.71
4452.097, 17807.79
4454.026, 17707.76
4455.954, 17379.04
4457.883, 17047.06
4459.811, 16722.54
4461.740, 16333.88
4463.668, 16005.07
4465.597, 15774.68
4467.525, 15523.36
4469.454, 15286.15
4471.382, 15100.85
4473.311, 14923.51
4475.239, 14770.90
4477.167, 14732.43
4479.096, 14674.74
4481.024, 14560.39
4482.953, 14496.94
4484.881, 14480.81
4486.810, 14517.31
4488.738, 14530.60
4490.667, 14531.94
4492.595, 14581.03
4494.523, 14597.88
4496.452, 14570.81
4498.380, 14618.22
4500.309, 14685.98
4502.237, 14721.29
4504.166, 14798.14
4506.094, 14884.99
4508.023, 14883.46
4509.951, 14977.26
4511.880, 15192.12
4513.808, 15370.05
4515.737, 15608.49
4517.665, 15956.54
4519.594, 16336.58
4521.522, 16774.56
4523.451, 17320.08
4525.379, 17887.02
4527.308, 18488.67
4529.236, 19234.26
4531.165, 20029.28
4533.093, 20837.00
4535.021, 21703.62
4536.950, 22509.26
4538.878, 23161.42
4540.807, 23666.94
4542.735, 23998.24
4544.664, 24045.99
4546.592, 23960.58
4548.521, 23761.13
4550.449, 23316.29
4552.377, 22758.81
4554.306, 22153.20
4556.234, 21584.39
4558.163, 21031.08
4560.091, 20453.92
4562.020, 19896.34
4563.948, 19388.46
4565.877, 19036.00
4567.805, 18727.61
4569.734, 18421.80
4571.662, 18108.02
4573.591, 17825.35
4575.519, 17623.88
4577.448, 17389.56
4579.376, 17171.38
4581.305, 17076.09
4583.233, 16963.85
4585.162, 16824.85
4587.090, 16685.87
4589.019, 16629.54
4590.947, 16669.19
4592.875, 16539.34
4594.804, 16415.89
4596.732, 16490.14
4598.661, 16506.29
4600.589, 16489.15
4602.518, 16485.28
4604.446, 16497.34
4606.375, 16512.81
4608.303, 16461.62
4610.231, 16451.15
4612.160, 16508.96
4614.088, 16466.25
4616.017, 16449.75
4617.945, 16586.21
4619.874, 16632.78
4621.802, 16605.67
4623.731, 16496.87
4625.659, 16518.19
4627.588, 16626.56
4629.516, 16638.78
4631.445, 16638.85
4633.373, 16655.37
4635.302, 16737.60
4637.230, 16806.59
4639.159, 16815.35
4641.087, 16879.45
4643.016, 16958.98
4644.944, 17013.86
4646.873, 17092.66
4648.801, 17191.20
4650.729, 17329.80
4652.658, 17358.12
4654.586, 17308.21
4656.515, 17411.05
4658.443, 17495.26
4660.372, 17518.21
4662.300, 17586.78
4664.229, 17649.95
4666.157, 17679.78
4668.085, 17726.41
4670.014, 17792.50
4671.942, 17886.31
4673.871, 17968.12
4675.799, 18039.27
4677.728, 18112.52
4679.656, 18141.73
4681.585, 18142.98
4683.513, 18182.91
4685.442, 18225.07
4687.370, 18266.44
4689.299, 18374.09
4691.227, 18472.41
4693.156, 18531.40
4695.084, 18707.25
4697.013, 18859.33
4698.941, 18862.69
4700.870, 18957.53
4702.798, 19063.26
4704.727, 19067.40
4706.655, 19063.13
4708.583, 19088.14
4710.512, 19214.64
4712.440, 19312.32
4714.369, 19378.56
4716.297, 19483.21
4718.226, 19594.43
4720.154, 19700.21
4722.083, 19752.22
4724.011, 19780.95
4725.939, 19805.00
4727.868, 19924.57
4729.796, 20058.50
4731.725, 20145.47
4733.653, 20218.50
4735.582, 20295.48
4737.510, 20395.43
4739.439, 20517.16
4741.367, 20613.46
4743.296, 20579.37
4745.224, 20669.79
4747.153, 20836.06
4749.081, 20921.72
4751.010, 21001.83
4752.938, 21076.38
4754.867, 21082.24
4756.795, 21121.58
4758.724, 21211.67
4760.652, 21287.82
4762.581, 21352.76
4764.509, 21409.83
4766.438, 21488.89
4768.366, 21578.43
4770.294, 21674.94
4772.223, 21779.78
4774.151, 21907.34
4776.080, 22062.48
4778.008, 22297.02
4779.937, 22480.65
4781.865, 22470.02
4783.793, 22564.80
4785.722, 22724.30
4787.650, 22884.07
4789.579, 23052.70
4791.507, 23212.01
4793.436, 23307.06
4795.364, 23471.96
4797.293, 23682.26
4799.221, 23845.30
4801.150, 24048.44
4803.078, 24268.15
4805.007, 24369.54
4806.935, 24491.71
4808.864, 24672.35
4810.792, 24964.25
4812.721, 25230.11
4814.649, 25427.96
4816.578, 25490.35
4818.506, 25604.21
4820.435, 25810.93
4822.363, 25891.46
4824.292, 25988.15
4826.220, 26149.47
4828.148, 26165.84
4830.077, 26207.27
4832.005, 26355.31
4833.934, 26440.19
4835.862, 26450.62
4837.791, 26379.17
4839.719, 26354.12
4841.647, 26348.60
4843.576, 26344.95
4845.504, 26303.05
4847.433, 26275.45
4849.361, 26304.12
4851.290, 26320.63
4853.218, 26287.49
4855.147, 26148.45
4857.075, 26122.34
4859.004, 26133.33
4860.932, 26108.63
4862.861, 26061.89
4864.789, 25990.50
4866.718, 25884.50
4868.646, 25753.79
4870.575, 25650.17
4872.503, 25642.42
4874.432, 25558.74
4876.360, 25481.39
4878.289, 25582.73
4880.217, 25489.18
4882.146, 25345.61
4884.074, 25379.85
4886.002, 25321.87
4887.931, 25256.75
4889.859, 25390.79
4891.788, 25364.38
4893.716, 25291.35
4895.645, 25380.90
4897.573, 25359.96
4899.501, 25322.56
4901.430, 25477.44
4903.358, 25521.90
4905.287, 25487.89
4907.215, 25453.82
4909.144, 25415.06
4911.072, 25359.35
4913.001, 25247.02
4914.929, 25233.23
4916.858, 25313.96
4918.786, 25522.56
4920.715, 25519.51
4922.643, 25429.24
4924.572, 25448.66
4926.500, 25460.88
4928.429, 25438.63
4930.357, 25336.22
4932.286, 25328.43
4934.214, 25353.04
4936.143, 25315.25
4938.071, 25384.57
4940.000, 25469.42
4941.928, 25458.46
4943.856, 25381.46
4945.785, 25276.16
4947.713, 25177.17
4949.642, 25062.79
4951.570, 24972.04
4953.499, 24943.18
4955.427, 24805.07
4957.355, 24653.69
4959.284, 24608.61
4961.212, 24367.02
4963.141, 24125.79
4965.069, 24010.46
4966.998, 23851.46
4968.926, 23712.48
4970.855, 23629.56
4972.783, 23495.86
4974.712, 23324.23
4976.640, 23123.50
4978.569, 23024.77
4980.497, 22915.24
4982.426, 22755.50
4984.354, 22547.94
4986.283, 22355.20
4988.211, 22204.47
4990.140, 22155.79
4992.068, 22133.32
4993.997, 22101.04
4995.925, 22026.35
4997.854, 21928.87
4999.782, 21819.00
5001.710, 21701.69
5003.639, 21567.07
5005.567, 21444.67
5007.496, 21414.01
5009.424, 21376.56
5011.353, 21305.93
5013.281, 21159.13
5015.209, 21122.59
5017.138, 21109.25
5019.066, 20971.83
5020.995, 20861.14
5022.923, 20795.21
5024.852, 20781.81
5026.780, 20807.97
5028.709, 20815.17
5030.637, 20751.01
5032.566, 20661.75
5034.494, 20596.83
5036.423, 20580.26
5038.351, 20628.51
5040.280, 20608.83
5042.208, 20496.55
5044.137, 20541.29
5046.065, 20552.69
5047.994, 20477.46
5049.922, 20343.74
5051.851, 20264.89
5053.779, 20226.81
5055.708, 20138.98
5057.636, 20045.12
5059.564, 19962.48
5061.493, 19919.33
5063.421, 19774.13
5065.350, 19677.97
5067.278, 19835.48
5069.207, 19662.50
5071.135, 19464.06
5073.063, 19536.17
5074.992, 19429.42
5076.920, 19317.77
5078.849, 19295.68
5080.777, 19210.22
5082.706, 19110.60
5084.634, 19019.95
5086.563, 18996.96
5088.491, 18903.87
5090.420, 18743.91
5092.348, 18603.53
5094.277, 18516.71
5096.205, 18468.64
5098.134, 18419.52
5100.062, 18472.05
5101.991, 18487.77
5103.919, 18298.07
5105.848, 18179.22
5107.776, 18140.06
5109.705, 18181.20
5111.633, 18097.84
5113.562, 18064.51
5115.490, 18115.94
5117.418, 18092.23
5119.347, 18046.33
5121.275, 17985.72
5123.204, 17871.53
5125.132, 17803.21
5127.061, 17776.28
5128.989, 17769.70
5130.917, 17674.97
5132.846, 17582.26
5134.774, 17585.77
5136.703, 17465.83
5138.631, 17378.88
5140.560, 17399.79
5142.488, 17299.29
5144.417, 17219.71
5146.345, 17189.47
5148.274, 17178.84
5150.202, 17089.90
5152.131, 16995.61
5154.059, 17102.31
5155.988, 16995.59
5157.916, 16850.06
5159.845, 16853.11
5161.773, 16851.11
5163.702, 16878.28
5165.630, 16942.82
5167.559, 16947.36
5169.487, 16895.87
5171.416, 16808.63
5173.344, 16766.86
5175.272, 16631.48
5177.201, 16493.08
5179.129, 16529.29
5181.058, 16460.83
5182.986, 16329.69
5184.915, 16186.07
5186.843, 16094.36
5188.771, 15985.37
5190.700, 15847.02
5192.628, 15803.05
5194.557, 15748.55
5196.485, 15675.02
5198.414, 15607.08
5200.342, 15549.70
5202.271, 15519.95
5204.199, 15552.90
5206.128, 15506.38
5208.056, 15420.89
5209.985, 15328.24
5211.913, 15338.53
5213.842, 15303.81
5215.770, 15237.25
5217.699, 15276.92
5219.627, 15284.32
5221.556, 15235.45
5223.484, 15091.33
5225.413, 15123.16
5227.341, 15113.74
5229.270, 14983.05
5231.198, 15061.65
5233.126, 15042.80
5235.055, 14926.83
5236.983, 14909.85
5238.912, 14915.50
5240.840, 14917.44
5242.769, 14895.87
5244.697, 14859.03
5246.625, 14863.32
5248.554, 14913.32
5250.482, 14911.58
5252.411, 14841.31
5254.339, 14757.41
5256.268, 14787.59
5258.196, 14771.93
5260.125, 14730.63
5262.053, 14689.60
5263.982, 14724.43
5265.910, 14729.91
5267.839, 14689.78
5269.767, 14678.61
5271.696, 14717.95
5273.624, 14746.03
5275.553, 14644.41
5277.481, 14637.78
5279.410, 14674.92
5281.338, 14717.21
5283.267, 14693.33
5285.195, 14667.85
5287.124, 14663.60
5289.052, 14714.80
5290.980, 14649.65
5292.909, 14572.29
5294.837, 14591.96
5296.766, 14548.60
5298.694, 14519.33
5300.623, 14530.20
5302.551, 14596.83
5304.479, 14502.52
5306.408, 14380.58
5308.336, 14418.73
5310.265, 14468.14
5312.193, 14496.50
5314.122, 14499.85
5316.050, 14542.84
5317.979, 14506.72
5319.907, 14445.29
5321.836, 14475.72
5323.764, 14453.19
5325.693, 14412.86
5327.621, 14389.21
5329.550, 14440.04
5331.478, 14423.97
5333.407, 14344.28
5335.335, 14250.46
5337.264, 14216.51
5339.192, 14211.21
5341.121, 14212.33
5343.049, 14253.40
5344.978, 14216.97
5346.906, 14137.17
5348.834, 14141.46
5350.763, 14101.46
5352.691, 14045.92
5354.620, 14004.83
5356.548, 14045.11
5358.477, 14014.49
5360.405, 13964.63
5362.333, 14090.13
5364.262, 14063.23
5366.190, 13988.07
5368.119, 13955.00
5370.047, 13907.69
5371.976, 13951.78
5373.904, 14038.30
5375.833, 14019.73
5377.761, 13976.21
5379.690, 14003.21
5381.618, 14125.30
5383.547, 14066.12
5385.475, 14009.00
5387.404, 13986.45
5389.332, 13988.90
5391.261, 13923.31
5393.189, 13844.43
5395.118, 13787.49
5397.046, 13781.31
5398.975, 13786.16
5400.903, 13802.00
5402.832, 13841.03
5404.760, 13806.52
5406.688, 13783.36
5408.617, 13798.35
5410.545, 13847.90
5412.474, 13776.77
5414.402, 13693.79
5416.331, 13714.90
5418.259, 13614.46
5420.188, 13582.41
5422.116, 13606.91
5424.044, 13518.36
5425.973, 13476.14
5427.901, 13453.03
5429.830, 13417.86
5431.758, 13355.47
5433.687, 13277.68
5435.615, 13206.04
5437.544, 13165.14
5439.472, 13154.38
5441.401, 13118.35
5443.329, 13053.17
5445.258, 13047.70
5447.186, 12963.97
5449.115, 12868.95
5451.043, 12830.80
5452.972, 12844.89
5454.900, 12802.22
5456.829, 12727.06
5458.757, 12707.21
5460.686, 12637.78
5462.614, 12603.06
5464.542, 12628.24
5466.471, 12614.78
5468.399, 12594.11
5470.328, 12586.79
5472.256, 12599.89
5474.185, 12461.47
5476.113, 12414.96
5478.042, 12417.71
5479.970, 12278.37
5481.898, 12349.92
5483.827, 12361.78
5485.755, 12234.05
5487.684, 12294.13
5489.612, 12204.44
5491.541, 12068.09
5493.469, 12005.57
5495.398, 12012.26
5497.326, 11977.09
5499.255, 11907.73
5501.183, 11855.61
5503.112, 11876.03
5505.040, 11874.62
5506.969, 11834.60
5508.897, 11818.35
5510.826, 11760.23
5512.754, 11719.79
5514.683, 11729.33
5516.611, 11723.05
5518.540, 11673.39
5520.468, 11629.90
5522.396, 11642.25
5524.325, 11598.08
5526.253, 11635.79
5528.182, 11721.84
5530.110, 11747.85
5532.039, 11724.53
5533.967, 11733.52
5535.896, 11767.57
5537.824, 11667.79
5539.752, 11762.83
5541.681, 11836.49
5543.609, 11770.38
5545.538, 11740.96
5547.466, 11669.78
5549.395, 11605.04
5551.323, 11595.86
5553.252, 11584.66
5555.180, 11521.85
5557.109, 11435.51
5559.037, 11370.62
5560.966, 11344.93
5562.894, 11371.47
5564.823, 11390.57
5566.751, 11263.41
5568.680, 11182.39
5570.608, 11143.13
5572.537, 11152.80
5574.465, 11269.59
5576.394, 11318.89
5578.322, 11326.43
5580.250, 11318.96
5582.179, 11313.40
5584.107, 11167.37
5586.036, 11063.61
5587.964, 11108.45
5589.893, 11103.55
5591.821, 11047.77
5593.750, 11001.43
5595.678, 11011.68
5597.606, 10967.62
5599.535, 10985.67
5601.463, 11045.23
5603.392, 11095.76
5605.320, 11097.00
5607.249, 11100.56
5609.177, 11075.49
5611.106, 10966.74
5613.034, 10963.64
5614.963, 10995.76
5616.891, 11005.09
5618.820, 10945.21
5620.748, 10920.44
5622.677, 10920.06
5624.605, 10906.65
5626.534, 10803.18
5628.462, 10744.49
5630.391, 10752.58
5632.319, 10791.57
5634.248, 10769.11
5636.176, 10698.68
5638.104, 10672.29
5640.033, 10713.91
5641.961, 10795.53
5643.890, 10754.48
5645.818, 10770.93
5647.747, 10894.43
5649.675, 11026.41
5651.604, 11065.73
5653.532, 11017.28
5655.460, 10947.26
5657.389, 11054.30
5659.317, 11054.59
5661.246, 10979.00
5663.174, 10877.87
5665.103, 10840.81
5667.031, 10680.68
5668.960, 10636.43
5670.888, 10734.67
5672.817, 10689.68
5674.745, 10716.05
5676.674, 10739.56
5678.602, 10715.58
5680.531, 10656.91
5682.459, 10554.97
5684.388, 10428.51
5686.316, 10330.16
5688.245, 10381.41
5690.173, 10365.64
5692.102, 10271.10
5694.030, 10165.30
5695.958, 10232.64
5697.887, 10177.12
5699.815, 10101.08
5701.744, 10059.56
5703.672, 10071.73
5705.601, 10061.47
5707.529, 10003.00
5709.458, 9942.227
5711.386, 9969.734
5713.314, 9921.842
5715.243, 9869.823
5717.171, 9856.662
5719.100, 9898.312
5721.028, 9866.685
5722.957, 9837.094
5724.885, 9840.378
5726.814, 9883.592
5728.742, 10002.11
5730.671, 9968.231
5732.599, 9877.073
5734.528, 9862.050
5736.456, 9799.771
5738.385, 9789.854
5740.313, 9803.115
5742.242, 9799.830
5744.170, 9759.516
5746.099, 9733.873
5748.027, 9710.915
5749.956, 9677.609
5751.884, 9635.698
5753.813, 9543.555
5755.741, 9450.312
5757.669, 9395.086
5759.598, 9402.198
5761.526, 9439.719
5763.455, 9431.636
5765.383, 9408.392
5767.312, 9456.796
5769.240, 9537.004
5771.168, 9560.646
5773.097, 9540.618
5775.025, 9519.839
5776.954, 9537.266
5778.882, 9487.773
5780.811, 9433.613
5782.739, 9431.706
5784.668, 9389.878
5786.596, 9350.963
5788.525, 9300.670
5790.453, 9230.204
5792.382, 9143.727
5794.310, 9125.647
5796.239, 9089.782
5798.167, 9035.191
5800.096, 9022.765
5802.024, 8988.503
5803.953, 8922.665
5805.881, 8856.441
5807.810, 8821.086
5809.738, 8757.648
5811.667, 8791.296
5813.595, 8802.364
5815.523, 8736.018
5817.452, 8801.769
5819.380, 8735.298
5821.309, 8687.675
5823.237, 8699.937
5825.166, 8680.434
5827.094, 8597.519
5829.022, 8548.674
5830.951, 8532.575
5832.879, 8512.454
5834.808, 8446.168
5836.736, 8507.011
5838.665, 8533.025
5840.593, 8450.842
5842.522, 8490.692
5844.450, 8639.942
5846.379, 8678.452
5848.307, 8601.184
5850.236, 8557.708
5852.164, 8493.115
5854.093, 8377.657
5856.021, 8272.760
5857.950, 8231.050
5859.878, 8173.414
5861.807, 8161.633
5863.735, 8194.445
5865.664, 8233.381
5867.592, 8211.275
5869.521, 8209.650
5871.449, 8215.136
5873.377, 8197.623
5875.306, 8137.484
5877.234, 8065.085
5879.163, 8019.018
5881.091, 7981.350
5883.020, 7944.250
5884.948, 7930.732
5886.876, 7909.344
5888.805, 7842.329
5890.733, 7789.002
5892.662, 7818.502
5894.590, 7741.164
5896.519, 7758.726
5898.447, 7785.684
5900.376, 7752.206
5902.304, 7648.140
5904.233, 7647.465
5906.161, 7632.737
5908.090, 7604.764
5910.018, 7611.021
5911.947, 7605.529
5913.875, 7581.291
5915.804, 7507.552
5917.732, 7429.031
5919.661, 7488.629
5921.589, 7539.281
5923.518, 7515.215
5925.446, 7451.109
5927.375, 7401.132
5929.303, 7395.052
5931.231, 7369.184
5933.160, 7331.505
5935.088, 7300.731
5937.017, 7292.648
5938.945, 7296.565
5940.874, 7305.320
5942.802, 7278.719
5944.730, 7217.395
5946.659, 7207.929
5948.587, 7133.824
5950.516, 7109.688
5952.444, 7111.308
5954.373, 7080.107
5956.301, 7097.273
5958.230, 7086.828
5960.158, 7065.329
5962.087, 7045.850
5964.015, 7026.912
5965.944, 6968.092
5967.872, 6950.795
5969.801, 6940.762
5971.729, 6917.612
5973.658, 6925.801
5975.586, 6909.377
5977.515, 6884.569
5979.443, 6877.396
5981.372, 6890.315
5983.300, 6823.772
5985.229, 6839.351
5987.157, 6811.609
5989.085, 6745.837
5991.014, 6722.315
5992.942, 6686.026
5994.871, 6632.781
5996.799, 6626.166
5998.728, 6654.875
6000.656, 6635.688
6002.584, 6603.395
6004.513, 6570.426
6006.441, 6557.826
6008.370, 6561.108
6010.299, 6534.626
6012.227, 6532.954
6014.156, 6511.955
6016.084, 6526.183
6018.013, 6573.968
6019.941, 6428.142
6021.870, 6428.145
6023.798, 6448.081
6025.727, 6431.278
6027.655, 6385.818
6029.583, 6401.099
6031.512, 6360.383
6033.440, 6328.662
6035.369, 6320.521
6037.297, 6320.761
6039.226, 6323.429
6041.154, 6294.595
6043.083, 6255.914
6045.011, 6213.693
6046.939, 6173.374
6048.868, 6236.304
6050.796, 6131.030
6052.725, 6138.019
6054.653, 6210.701
6056.582, 6151.988
6058.510, 6166.640
6060.439, 6153.145
6062.367, 6119.854
6064.296, 6077.958
6066.224, 6031.425
6068.153, 5978.879
6070.081, 6004.778
6072.010, 5985.266
6073.938, 5930.430
6075.867, 5915.979
6077.795, 5895.906
6079.724, 5960.578
6081.652, 5957.556
6083.581, 5895.657
6085.509, 5860.549
6087.438, 5882.269
6089.366, 5872.742
6091.294, 5799.211
6093.223, 5733.849
6095.151, 5744.671
6097.080, 5762.660
6099.008, 5740.380
6100.937, 5702.376
6102.865, 5680.002
6104.793, 5684.069
6106.722, 5680.208
6108.650, 5646.167
6110.579, 5649.865
6112.507, 5656.989
6114.436, 5633.725
6116.364, 5598.711
6118.293, 5567.222
6120.221, 5575.910
6122.150, 5563.628
6124.078, 5519.918
6126.007, 5514.647
6127.935, 5568.368
6129.864, 5533.569
6131.792, 5511.869
6133.721, 5502.479
6135.649, 5406.008
6137.578, 5388.956
6139.506, 5437.104
6141.435, 5442.945
6143.363, 5403.980
6145.292, 5367.929
6147.220, 5349.225
6149.148, 5392.949
6151.077, 5386.024
6153.005, 5346.901
6154.934, 5326.686
6156.862, 5349.887
6158.791, 5358.102
6160.719, 5327.331
6162.647, 5295.213
6164.576, 5275.478
6166.504, 5251.209
6168.433, 5242.456
6170.361, 5202.328
6172.290, 5148.771
6174.218, 5143.498
6176.147, 5205.777
6178.075, 5193.172
6180.004, 5160.696
6181.932, 5132.018
6183.861, 5118.854
6185.789, 5115.767
6187.718, 5102.931
6189.646, 5085.865
6191.575, 5057.397
6193.503, 5023.289
6195.432, 5002.914
6197.360, 5009.406
6199.289, 5022.594
6201.217, 5009.915
6203.146, 4975.041
6205.074, 4955.740
6207.002, 4966.496
6208.931, 4978.689
6210.859, 4982.083
6212.788, 4949.012
6214.716, 4928.121
6216.645, 4909.153
6218.573, 4885.030
6220.501, 4988.280
6222.430, 4930.990
6224.358, 4821.049
6226.287, 4817.670
6228.215, 4895.402
6230.144, 4873.582
6232.072, 4835.255
6234.001, 4810.265
6235.929, 4795.539
6237.858, 4756.644
6239.786, 4705.908
6241.715, 4779.641
6243.643, 4721.110
6245.572, 4684.132
6247.500, 4686.179
6249.429, 4684.399
6251.357, 4648.455
6253.286, 4657.092
6255.214, 4696.439
6257.143, 4668.258
6259.071, 4619.550
6261.000, 4591.195
6262.928, 4574.829
6264.856, 4593.045
6266.785, 4638.983
6268.713, 4613.078
6270.642, 4542.817
6272.570, 4498.238
6274.499, 4519.374
6276.427, 4485.842
6278.355, 4452.578
6280.284, 4466.661
6282.212, 4485.719
6284.141, 4479.896
6286.069, 4490.662
6287.998, 4415.631
6289.926, 4411.053
6291.855, 4400.816
6293.783, 4377.123
6295.712, 4374.849
6297.640, 4393.092
6299.569, 4392.763
6301.497, 4360.447
6303.426, 4334.755
6305.354, 4307.851
6307.283, 4278.573
6309.211, 4328.764
6311.140, 4257.615
6313.068, 4267.625
6314.997, 4254.932
6316.925, 4234.823
6318.854, 4261.833
6320.782, 4272.205
6322.710, 4184.114
6324.639, 4194.036
6326.567, 4182.083
6328.496, 4163.479
6330.424, 4174.904
6332.353, 4120.163
6334.281, 4139.500
6336.209, 4102.799
6338.138, 4119.416
6340.066, 4113.441
6341.995, 4050.323
6343.923, 4067.953
6345.852, 4083.616
6347.780, 4021.022
6349.709, 4055.156
6351.637, 4075.320
6353.566, 4031.960
6355.494, 4038.698
6357.423, 3962.936
6359.351, 3964.514
6361.280, 3972.401
6363.208, 3943.335
6365.137, 3911.993
6367.065, 3925.140
6368.994, 3901.105
6370.922, 3878.312
6372.851, 3916.380
6374.779, 3922.012
6376.708, 3890.010
6378.636, 3873.767
6380.564, 3894.296
6382.493, 3867.733
6384.421, 3889.516
6386.350, 3846.634
6388.278, 3810.032
6390.207, 3824.055
6392.135, 3822.136
6394.063, 3832.794
6395.992, 3737.510
6397.920, 3750.881
6399.849, 3759.808
6401.777, 3736.488
6403.706, 3741.319
6405.634, 3750.843
6407.563, 3738.539
6409.491, 3755.846
6411.420, 3760.616
6413.348, 3727.604
6415.277, 3667.315
6417.205, 3611.668
6419.134, 3646.277
6421.062, 3641.632
6422.991, 3637.452
6424.919, 3637.555
6426.848, 3611.359
6428.776, 3555.557
6430.705, 3525.920
6432.633, 3594.506
6434.562, 3534.875
6436.490, 3495.546
6438.418, 3507.912
6440.347, 3531.630
6442.275, 3527.313
6444.204, 3473.733
6446.132, 3458.897
6448.061, 3477.014
6449.989, 3466.294
6451.917, 3466.384
6453.846, 3463.542
6455.774, 3407.737
6457.703, 3448.366
6459.631, 3445.513
6461.560, 3466.111
6463.488, 3463.473
6465.417, 3442.118
6467.345, 3416.097
6469.274, 3376.416
6471.202, 3323.046
6473.131, 3348.893
6475.059, 3311.721
6476.988, 3326.319
6478.916, 3347.268
6480.845, 3334.453
6482.773, 3336.932
6484.702, 3305.617
6486.630, 3322.335
6488.559, 3297.791
6490.487, 3266.041
6492.416, 3254.161
6494.344, 3252.102
6496.272, 3236.623
6498.201, 3206.593
6500.129, 3243.991
6502.058, 3217.257
6503.986, 3197.226
6505.915, 3216.524
6507.843, 3237.198
6509.771, 3212.974
6511.700, 3154.615
6513.628, 3145.002
6515.557, 3155.238
6517.485, 3152.484
6519.414, 3146.987
6521.342, 3131.993
6523.271, 3100.311
6525.199, 3077.500
6527.128, 3110.387
6529.056, 3123.189
6530.985, 3078.445
6532.913, 3058.867
6534.842, 3074.530
6536.770, 3079.243
6538.699, 3045.640
6540.627, 3038.876
6542.556, 2960.871
6544.484, 3017.760
6546.413, 3047.206
6548.341, 3027.919
6550.270, 3004.590
6552.198, 2991.610
6554.126, 2972.752
6556.055, 2962.859
6557.983, 2972.597
6559.912, 2957.443
6561.840, 2939.858
6563.769, 2947.642
6565.697, 2945.607
6567.625, 2904.602
6569.554, 2948.674
6571.482, 2902.210
6573.411, 2900.283
6575.339, 2864.136
6577.268, 2905.860
6579.196, 2929.779
6581.125, 2871.946
6583.053, 2850.201
6584.982, 2885.599
6586.910, 2843.596
6588.839, 2824.827
6590.767, 2831.378
6592.696, 2833.829
6594.624, 2843.295
6596.553, 2848.550
6598.481, 2811.894
6600.410, 2850.155
6602.338, 2815.927
6604.267, 2780.553
6606.195, 2790.047
6608.124, 2777.344
6610.052, 2746.202
6611.980, 2748.632
6613.909, 2781.060
6615.837, 2744.253
6617.766, 2710.434
6619.694, 2714.207
6621.623, 2701.431
6623.551, 2711.804
6625.479, 2703.843
##END=



