##NAMES=Grossular
##RRUFFID=R040066
##IDEAL CHEMISTRY=Ca_3_Al_2_(SiO_4_)_3_
##LOCALITY=Redding, Connecticut, USA
##OWNER=RRUFF
##SOURCE=University of Arizona Mineral Museum
##DESCRIPTION=Reddish orange coarsely crystalline
##STATUS=The identification of this mineral has been confirmed by X-ray diffraction and chemical analysis
##URL=https://www.rruff.net/odr/rruff_sample/R040066
##MEASURED CHEMISTRY=(Ca_2.90_Fe^2+^_0.08_Mn_0.02_)(Al_1.87_Fe^3+^_0.13_)(Si_1.00_O_4_)_3_
##DIFFRACTION SAMPLE DESCRIPTION=Powder
##CELL PARAMETERS=a: 11.8665 b: 11.8665 c: 11.8665 alpha: 90 beta: 90 gamma: 90 volume: 1670.9 crystal system: cubic
##FILETYPE=Raman RAW
##RAMAN WAVELENGTH=785

127.2798, 431.9871
129.2083, 548.9380
131.1367, 620.8052
133.0652, 619.5385
134.9937, 594.6621
136.9221, 556.1025
138.8506, 518.8517
140.7791, 530.0992
142.7075, 622.1357
144.6360, 696.1342
146.5645, 757.9365
148.4929, 794.8177
150.4214, 787.4095
152.3499, 757.6935
154.2783, 729.3920
156.2068, 700.8901
158.1353, 683.4409
160.0637, 675.2776
161.9922, 678.9528
163.9207, 681.2997
165.8491, 710.2458
167.7776, 778.4850
169.7061, 887.7418
171.6345, 1063.896
173.5630, 1388.010
175.4915, 1613.192
177.4199, 1725.038
179.3484, 1722.286
181.2769, 1544.463
183.2053, 1277.858
185.1338, 1076.184
187.0623, 950.6462
188.9907, 857.2658
190.9192, 802.8830
192.8477, 766.2833
194.7761, 749.1850
196.7046, 740.0493
198.6331, 728.7292
200.5615, 715.9426
202.4900, 710.0616
204.4185, 713.8393
206.3469, 717.5627
208.2754, 719.3488
210.2039, 722.2836
212.1323, 726.7010
214.0608, 733.8865
215.9893, 746.0253
217.9177, 763.4102
219.8462, 784.0409
221.7747, 803.2823
223.7031, 834.6104
225.6316, 873.3560
227.5601, 936.2405
229.4885, 1035.562
231.4170, 1165.637
233.3455, 1310.881
235.2739, 1476.715
237.2024, 1644.592
239.1309, 1835.246
241.0593, 1990.733
242.9878, 2137.565
244.9163, 2191.842
246.8447, 2036.721
248.7732, 1704.088
250.7017, 1430.288
252.6301, 1212.144
254.5586, 1062.305
256.4871, 1000.419
258.4155, 978.1389
260.3440, 979.9307
262.2725, 1003.549
264.2009, 1042.740
266.1294, 1098.825
268.0579, 1207.582
269.9863, 1382.359
271.9148, 1557.298
273.8433, 1775.331
275.7717, 1903.992
277.7002, 1844.018
279.6287, 1687.247
281.5571, 1518.426
283.4856, 1339.038
285.4141, 1202.736
287.3425, 1113.870
289.2710, 1042.136
291.1995, 983.7072
293.1279, 939.9969
295.0564, 912.7719
296.9849, 898.5209
298.9133, 892.7584
300.8418, 895.9933
302.7703, 917.6551
304.6987, 961.2816
306.6272, 1002.977
308.5557, 1039.559
310.4841, 1072.291
312.4126, 1100.761
314.3411, 1126.709
316.2695, 1143.741
318.1980, 1157.018
320.1265, 1206.586
322.0549, 1298.032
323.9834, 1382.156
325.9119, 1467.726
327.8403, 1513.879
329.7688, 1476.647
331.6973, 1418.635
333.6258, 1366.466
335.5542, 1331.006
337.4827, 1351.461
339.4112, 1431.658
341.3396, 1520.631
343.2681, 1617.995
345.1966, 1717.279
347.1250, 1788.265
349.0535, 1897.266
350.9820, 2029.899
352.9104, 2248.742
354.8389, 2609.966
356.7674, 3132.748
358.6958, 4016.232
360.6243, 5286.197
362.5528, 6767.023
364.4812, 8585.729
366.4097, 10317.05
368.3382, 12169.41
370.2666, 13522.48
372.1951, 13827.28
374.1236, 13180.16
376.0520, 11670.08
377.9805, 9293.197
379.9090, 7187.362
381.8374, 5406.428
383.7659, 4016.678
385.6944, 3162.518
387.6228, 2569.173
389.5513, 2179.276
391.4798, 1925.669
393.4082, 1735.695
395.3367, 1608.873
397.2652, 1532.400
399.1936, 1505.515
401.1221, 1521.497
403.0506, 1571.716
404.9790, 1685.304
406.9075, 1948.896
408.8360, 2191.324
410.7644, 2371.054
412.6929, 2441.200
414.6214, 2283.576
416.5498, 1927.268
418.4783, 1613.775
420.4068, 1340.559
422.3352, 1135.200
424.2637, 1015.576
426.1922, 934.5301
428.1206, 891.7293
430.0491, 863.4746
431.9776, 838.1428
433.9060, 818.2654
435.8345, 810.7479
437.7630, 812.9815
439.6914, 807.2844
441.6199, 792.5135
443.5484, 789.7288
445.4768, 805.7421
447.4053, 825.0779
449.3338, 850.8737
451.2622, 869.1226
453.1907, 870.5980
455.1192, 862.5104
457.0476, 849.6888
458.9761, 834.9274
460.9046, 827.9219
462.8330, 828.4847
464.7615, 830.7413
466.6900, 832.3864
468.6184, 842.0256
470.5469, 872.8269
472.4754, 897.5358
474.4038, 909.7922
476.3323, 909.9206
478.2608, 891.3657
480.1892, 863.5438
482.1177, 841.0963
484.0462, 825.5744
485.9746, 829.8641
487.9031, 856.6805
489.8316, 881.8618
491.7600, 900.1650
493.6885, 919.4307
495.6170, 938.7399
497.5454, 963.0710
499.4739, 998.3997
501.4024, 1036.895
503.3308, 1079.931
505.2593, 1116.226
507.1878, 1118.716
509.1162, 1090.489
511.0447, 1048.449
512.9731, 988.3734
514.9016, 948.2775
516.8301, 942.4210
518.7585, 944.4174
520.6870, 956.9937
522.6155, 965.0825
524.5439, 953.4778
526.4724, 940.2339
528.4009, 923.0925
530.3293, 928.1481
532.2578, 978.5399
534.1863, 1089.490
536.1147, 1359.959
538.0432, 1806.608
539.9717, 2359.892
541.9001, 3251.160
543.8286, 3771.829
545.7571, 3728.598
547.6855, 3408.436
549.6140, 2729.016
551.5425, 2020.954
553.4709, 1528.111
555.3994, 1204.430
557.3279, 1003.931
559.2563, 902.3737
561.1848, 837.4484
563.1133, 807.0294
565.0417, 787.9327
566.9702, 779.8015
568.8987, 778.1691
570.8271, 795.0649
572.7556, 798.9009
574.6841, 770.0374
576.6126, 743.1953
578.5411, 735.5103
580.4695, 738.7266
582.3980, 750.1197
584.3265, 764.2261
586.2549, 778.8454
588.1834, 788.5530
590.1119, 768.3389
592.0403, 715.4893
593.9688, 670.6445
595.8973, 633.9748
597.8257, 612.8066
599.7542, 612.1780
601.6827, 619.2721
603.6111, 635.5258
605.5396, 654.0174
607.4681, 676.2937
609.3965, 694.6835
611.3250, 694.6313
613.2535, 693.3327
615.1819, 711.1487
617.1104, 744.8004
619.0389, 790.7889
620.9673, 847.6320
622.8958, 892.7941
624.8243, 930.7499
626.7527, 935.4716
628.6812, 896.5797
630.6097, 838.2013
632.5381, 745.4023
634.4666, 657.8488
636.3951, 578.7364
638.3235, 516.7946
640.2520, 482.5720
642.1805, 461.2043
644.1089, 445.0874
646.0374, 431.1560
647.9659, 413.7784
649.8943, 396.1565
651.8228, 388.4629
653.7513, 390.0801
655.6797, 388.1569
657.6082, 382.0061
659.5367, 374.7031
661.4651, 362.0875
663.3936, 356.0733
665.3221, 361.8429
667.2505, 365.4409
669.1790, 363.8220
671.1075, 360.7480
673.0359, 356.7680
674.9644, 352.8216
676.8929, 347.6259
678.8214, 344.6703
680.7498, 348.9298
682.6783, 355.6062
684.6068, 357.6591
686.5352, 356.7475
688.4637, 357.7333
690.3922, 360.4812
692.3206, 362.9344
694.2491, 365.1978
696.1776, 366.6310
698.1060, 367.3894
700.0345, 366.7398
701.9630, 363.6462
703.8914, 361.4810
705.8199, 359.9798
707.7484, 361.1732
709.6768, 368.6378
711.6053, 373.6698
713.5338, 370.3321
715.4622, 365.7043
717.3907, 362.2887
719.3192, 362.0227
721.2476, 370.2045
723.1761, 379.7367
725.1046, 379.9008
727.0330, 374.1856
728.9615, 369.4207
730.8900, 366.2643
732.8184, 369.6349
734.7469, 379.7265
736.6754, 387.7939
738.6038, 393.5803
740.5323, 398.2051
742.4608, 401.4039
744.3892, 404.3911
746.3177, 406.8757
748.2462, 410.4669
750.1746, 414.9022
752.1031, 422.3349
754.0316, 435.6393
755.9600, 447.3627
757.8885, 452.1349
759.8170, 457.7159
761.7454, 467.5094
763.6739, 480.7439
765.6024, 499.8134
767.5308, 519.2380
769.4593, 531.8607
771.3878, 543.1344
773.3162, 560.8658
775.2447, 582.9734
777.1732, 608.3763
779.1016, 633.8406
781.0301, 645.8883
782.9586, 645.8658
784.8870, 645.1553
786.8155, 643.6619
788.7440, 646.1716
790.6724, 652.0483
792.6009, 672.5353
794.5294, 708.6256
796.4578, 754.7471
798.3863, 807.4680
800.3148, 886.8143
802.2432, 997.7494
804.1717, 1128.064
806.1002, 1267.036
808.0286, 1445.739
809.9571, 1672.970
811.8856, 1942.878
813.8140, 2250.603
815.7425, 2605.576
817.6710, 3071.326
819.5994, 3505.226
821.5279, 3900.052
823.4564, 4150.063
825.3848, 4160.196
827.3133, 4009.627
829.2418, 3697.298
831.1702, 3335.008
833.0987, 3032.724
835.0272, 2789.134
836.9556, 2610.441
838.8841, 2484.833
840.8126, 2393.412
842.7410, 2333.486
844.6695, 2304.857
846.5980, 2300.845
848.5264, 2296.741
850.4549, 2293.274
852.3834, 2284.615
854.3118, 2277.616
856.2403, 2315.479
858.1688, 2402.256
860.0972, 2552.138
862.0257, 2768.456
863.9542, 3116.743
865.8826, 3598.162
867.8111, 4353.772
869.7396, 5399.105
871.6680, 6786.981
873.5965, 8633.000
875.5250, 10244.57
877.4534, 11669.83
879.3819, 12201.84
881.3104, 11564.29
883.2388, 10439.69
885.1673, 8717.058
887.0958, 7071.468
889.0242, 5546.660
890.9527, 4299.568
892.8812, 3402.602
894.8096, 2722.702
896.7381, 2294.792
898.6666, 1974.414
900.5950, 1755.860
902.5235, 1579.480
904.4520, 1430.764
906.3804, 1308.729
908.3089, 1224.477
910.2374, 1150.170
912.1658, 1074.078
914.0943, 1000.869
916.0228, 933.2893
917.9512, 869.8228
919.8797, 806.5744
921.8082, 751.0981
923.7366, 711.0204
925.6651, 678.0177
927.5936, 646.7312
929.5220, 618.6109
931.4505, 592.7167
933.3790, 573.0301
935.3074, 565.5132
937.2359, 563.2068
939.1644, 557.4210
941.0928, 555.5352
943.0213, 573.0858
944.9498, 590.2119
946.8782, 585.3948
948.8067, 568.4299
950.7352, 546.6458
952.6636, 522.5944
954.5921, 496.1546
956.5206, 472.1926
958.4490, 456.8229
960.3775, 447.3355
962.3060, 439.6325
964.2344, 436.3960
966.1629, 441.5910
968.0914, 452.8997
970.0198, 468.3019
971.9483, 487.0176
973.8768, 509.8654
975.8052, 533.8061
977.7337, 553.6191
979.6622, 572.7908
981.5906, 598.5975
983.5191, 624.7826
985.4476, 641.1741
987.3760, 653.2397
989.3045, 665.3320
991.2330, 681.1143
993.1614, 703.7661
995.0899, 735.1750
997.0184, 779.9585
998.9468, 833.4313
1000.875, 901.5943
1002.804, 963.1346
1004.732, 1001.861
1006.661, 1004.262
1008.589, 939.2167
1010.518, 839.2300
1012.446, 729.5636
1014.375, 625.4958
1016.303, 543.3138
1018.232, 480.0057
1020.160, 436.2562
1022.088, 405.2086
1024.017, 379.9236
1025.945, 362.6912
1027.874, 359.1618
1029.802, 361.3250
1031.731, 366.5509
1033.659, 367.9580
1035.588, 354.0735
1037.516, 339.8035
1039.445, 338.6324
1041.373, 340.7953
1043.302, 342.3501
1045.230, 339.8776
1047.158, 326.2945
1049.087, 314.4552
1051.015, 314.3534
1052.944, 316.3137
1054.872, 316.0449
1056.801, 313.6776
1058.729, 307.9492
1060.658, 302.4289
1062.586, 298.3726
1064.515, 295.9586
1066.443, 295.3025
1068.372, 296.3107
1070.300, 299.8753
1072.229, 302.9226
1074.157, 304.2571
1076.086, 304.8747
1078.014, 304.1812
1079.943, 306.0708
1081.871, 313.8886
1083.799, 315.9863
1085.728, 307.1154
1087.656, 301.9531
1089.585, 303.8149
1091.513, 309.2068
1093.442, 318.5280
1095.370, 324.1218
1097.299, 324.0906
1099.227, 327.9640
1101.156, 337.1187
1103.084, 345.1202
1105.013, 351.2326
1106.941, 363.4286
1108.870, 382.2485
1110.798, 409.8016
1112.726, 446.1060
1114.655, 490.2070
1116.583, 542.2850
1118.512, 610.0683
1120.440, 685.8821
1122.369, 739.0986
1124.297, 768.2661
1126.226, 766.2707
1128.154, 738.0395
1130.083, 685.9078
1132.011, 622.6017
1133.940, 565.2786
1135.868, 516.3702
1137.797, 481.4937
1139.725, 454.4195
1141.653, 426.2484
1143.582, 405.3199
1145.510, 405.1965
1147.439, 406.3541
1149.367, 393.3116
1151.296, 380.7485
1153.224, 377.9934
1155.153, 374.8745
1157.081, 366.4353
1159.010, 358.9002
1160.938, 353.6905
1162.867, 349.5861
1164.795, 345.1773
1166.724, 346.5999
1168.652, 357.7202
1170.580, 358.6797
1172.509, 345.9010
1174.437, 338.3331
1176.366, 337.4722
1178.294, 333.4867
1180.223, 326.6620
1182.151, 326.7728
1184.080, 331.6002
1186.008, 328.4608
1187.937, 320.3965
1189.865, 316.7227
1191.794, 315.4501
1193.722, 313.4803
1195.651, 310.5292
1197.579, 303.9468
1199.507, 298.8839
1201.436, 302.1046
1203.364, 307.0561
1205.293, 309.4377
1207.221, 310.8377
1209.150, 309.8148
1211.078, 311.8868
1213.007, 322.2301
1214.935, 330.3373
1216.864, 333.6796
1218.792, 334.6094
1220.721, 332.3236
1222.649, 330.4806
1224.578, 329.0227
1226.506, 328.9500
1228.434, 330.2637
1230.363, 336.2955
1232.291, 345.7673
1234.220, 347.7319
1236.148, 345.1984
1238.077, 347.7378
1240.005, 352.8224
1241.934, 356.5402
1243.862, 359.3661
1245.791, 361.6641
1247.719, 363.4972
1249.648, 363.9447
1251.576, 365.6163
1253.505, 374.1877
1255.433, 375.9581
1257.361, 360.7083
1259.290, 350.0289
1261.218, 351.4535
1263.147, 349.8801
1265.075, 342.5965
1267.004, 336.4283
1268.932, 331.2666
1270.861, 328.4635
1272.789, 328.0826
1274.718, 331.8344
1276.646, 337.7957
1278.575, 341.0933
1280.503, 342.0241
1282.432, 337.4978
1284.360, 335.2959
1286.288, 344.4417
1288.217, 355.0269
1290.145, 361.0956
1292.074, 367.8725
1294.002, 376.2548
1295.931, 389.2458
1297.859, 407.9174
1299.788, 430.0447
1301.716, 455.6940
1303.645, 484.1082
1305.573, 514.9425
1307.502, 532.4626
1309.430, 537.4344
1311.359, 529.8045
1313.287, 515.2359
1315.215, 507.4130
1317.144, 496.7867
1319.072, 467.4701
1321.001, 438.1586
1322.929, 421.1854
1324.858, 405.7416
1326.786, 387.5122
1328.715, 371.4352
1330.643, 358.0909
1332.572, 351.3264
1334.500, 351.8269
1336.429, 351.6913
1338.357, 350.9041
1340.286, 353.9104
1342.214, 360.1842
1344.142, 367.8091
1346.071, 378.0096
1347.999, 389.2082
1349.928, 408.5147
1351.856, 445.7274
1353.785, 487.2329
1355.713, 530.9841
1357.642, 568.5651
1359.570, 598.1553
1361.499, 622.9169
1363.427, 643.4670
1365.356, 644.9105
1367.284, 626.8461
1369.213, 586.5027
1371.141, 535.6794
1373.069, 503.0770
1374.998, 478.7981
1376.926, 450.9481
1378.855, 423.2029
1380.783, 396.8652
1382.712, 374.0784
1384.640, 356.0648
1386.569, 340.4397
1388.497, 326.1729
1390.426, 321.4034
1392.354, 325.6218
1394.283, 319.1901
1396.211, 306.0914
1398.140, 303.6708
1400.068, 306.3079
1401.996, 306.2599
1403.925, 305.2301
1405.853, 303.6792
1407.782, 303.3654
1409.710, 305.3867
1411.639, 308.6904
1413.567, 315.0755
1415.496, 312.6670
1417.424, 301.1772
1419.353, 298.1956
1421.281, 302.9964
1423.210, 315.4911
1425.138, 327.4205
1427.067, 324.7169
1428.995, 319.8725
1430.923, 325.0011
1432.852, 326.5879
1434.780, 314.2617
1436.709, 308.4011
1438.637, 312.7319
1440.566, 317.4157
1442.494, 321.9505
1444.423, 320.2552
1446.351, 315.3979
1448.280, 315.4194
1450.208, 316.4961
1452.137, 314.4625
1454.065, 312.5514
1455.994, 309.5131
1457.922, 313.3664
1459.850, 331.4198
1461.779, 341.4138
1463.707, 342.1938
1465.636, 343.2966
1467.564, 346.5264
1469.493, 359.7303
1471.421, 377.8815
1473.350, 392.5701
1475.278, 413.3958
1477.207, 446.2990
1479.135, 484.9387
1481.064, 524.9043
1482.992, 585.0991
1484.921, 668.9632
1486.849, 722.3666
1488.777, 750.0282
1490.706, 775.1259
1492.634, 778.2464
1494.563, 722.3585
1496.491, 653.6149
1498.420, 587.7802
1500.348, 533.4229
1502.277, 493.8671
1504.205, 459.9996
1506.134, 431.0746
1508.062, 407.3344
1509.991, 389.5900
1511.919, 382.5146
1513.848, 379.2016
1515.776, 370.8799
1517.704, 367.7056
1519.633, 374.1771
1521.561, 381.9884
1523.490, 389.2605
1525.418, 405.0197
1527.347, 430.8614
1529.275, 470.8248
1531.204, 526.9226
1533.132, 604.9697
1535.061, 697.0745
1536.989, 803.5377
1538.918, 914.4646
1540.846, 1033.771
1542.775, 1099.452
1544.703, 1106.468
1546.631, 1073.979
1548.560, 1012.846
1550.488, 935.7388
1552.417, 852.3045
1554.345, 759.0927
1556.274, 685.9300
1558.202, 641.0443
1560.131, 616.0985
1562.059, 609.5605
1563.988, 617.0644
1565.916, 633.2704
1567.845, 652.3794
1569.773, 663.5978
1571.702, 657.4246
1573.630, 636.3347
1575.558, 599.0164
1577.487, 553.4128
1579.415, 500.9292
1581.344, 456.0928
1583.272, 421.5659
1585.201, 407.0952
1587.129, 395.3431
1589.058, 362.1425
1590.986, 339.2458
1592.915, 345.9717
1594.843, 342.5071
1596.772, 326.7566
1598.700, 316.8332
1600.629, 313.4523
1602.557, 320.6862
1604.485, 327.1022
1606.414, 323.1887
1608.342, 314.4348
1610.271, 297.7517
1612.199, 291.7738
1614.128, 296.2316
1616.056, 298.6443
1617.985, 297.8171
1619.913, 288.6314
1621.842, 281.7518
1623.770, 289.3447
1625.699, 290.4500
1627.627, 276.3815
1629.556, 271.2749
1631.484, 273.6698
1633.412, 275.2094
1635.341, 275.1547
1637.269, 271.9162
1639.198, 268.5212
1641.126, 266.0223
1643.055, 264.5800
1644.983, 264.1652
1646.912, 266.3723
1648.840, 268.9166
1650.769, 264.6862
1652.697, 259.4662
1654.626, 256.8459
1656.554, 255.3275
1658.483, 254.3022
1660.411, 256.3873
1662.339, 260.4565
1664.268, 258.6713
1666.196, 255.6704
1668.125, 256.6727
1670.053, 259.7378
1671.982, 265.8896
1673.910, 263.7212
1675.839, 252.5551
1677.767, 253.2555
1679.696, 259.9358
1681.624, 262.7793
1683.553, 264.0884
1685.481, 264.2688
1687.410, 266.9200
1689.338, 272.7954
1691.266, 273.5273
1693.195, 271.3489
1695.123, 271.4470
1697.052, 273.7237
1698.980, 278.5013
1700.909, 284.7670
1702.837, 292.5524
1704.766, 293.4920
1706.694, 289.3103
1708.623, 284.1095
1710.551, 282.3912
1712.480, 291.2436
1714.408, 299.7121
1716.337, 305.7936
1718.265, 305.2155
1720.193, 302.3684
1722.122, 317.7206
1724.050, 336.3199
1725.979, 338.5225
1727.907, 348.3091
1729.836, 372.2497
1731.764, 394.0569
1733.693, 411.0781
1735.621, 415.1682
1737.550, 419.5703
1739.478, 439.5751
1741.407, 461.8791
1743.335, 484.2034
1745.264, 498.1328
1747.192, 505.8966
1749.120, 522.1191
1751.049, 531.3779
1752.977, 514.2349
1754.906, 493.3801
1756.834, 471.9513
1758.763, 471.3551
1760.691, 481.5652
1762.620, 467.5496
1764.548, 449.2902
1766.477, 443.1128
1768.405, 437.5042
1770.334, 430.6926
1772.262, 419.3893
1774.191, 406.2936
1776.119, 398.3722
1778.047, 391.0258
1779.976, 382.0611
1781.904, 370.1060
1783.833, 354.9854
1785.761, 347.4147
1787.690, 341.5870
1789.618, 325.1013
1791.547, 311.6821
1793.475, 310.8187
1795.404, 305.8907
1797.332, 296.7174
1799.261, 292.8539
1801.189, 290.9836
1803.118, 287.3503
1805.046, 284.6963
1806.974, 284.6599
1808.903, 281.6278
1810.831, 276.5495
1812.760, 271.5941
1814.688, 269.6551
1816.617, 272.9968
1818.545, 277.0528
1820.474, 280.9938
1822.402, 272.7642
1824.331, 261.8624
1826.259, 267.8206
1828.188, 271.6876
1830.116, 265.9604
1832.045, 263.7418
1833.973, 264.8918
1835.901, 263.6274
1837.830, 261.8791
1839.758, 261.6977
1841.687, 259.2584
1843.615, 254.0109
1845.544, 250.3206
1847.472, 247.6019
1849.401, 242.7280
1851.329, 241.6476
1853.258, 247.2525
1855.186, 251.1116
1857.115, 253.0596
1859.043, 255.9938
1860.972, 257.0273
1862.900, 252.3494
1864.828, 251.2435
1866.757, 253.9173
1868.685, 250.0429
1870.614, 245.5046
1872.542, 251.5210
1874.471, 252.6658
1876.399, 244.0192
1878.328, 247.1939
1880.256, 256.9847
1882.185, 254.1206
1884.113, 249.2565
1886.042, 250.4807
1887.970, 248.0438
1889.899, 242.5100
1891.827, 242.5616
1893.755, 244.5788
1895.684, 246.9902
1897.612, 246.1720
1899.541, 241.8088
1901.469, 238.8479
1903.398, 237.5135
1905.326, 241.4868
1907.255, 244.1250
1909.183, 241.2157
1911.112, 245.7883
1913.040, 253.2239
1914.969, 250.3097
1916.897, 245.1658
1918.826, 240.6655
1920.754, 239.9304
1922.682, 242.2476
1924.611, 246.3386
1926.539, 248.7550
1928.468, 246.3248
1930.396, 248.2321
1932.325, 253.5056
1934.253, 247.1216
1936.182, 240.3022
1938.110, 244.1205
1940.039, 247.1844
1941.967, 246.8193
1943.896, 244.4437
1945.824, 242.6110
1947.753, 239.9463
1949.681, 239.5943
1951.609, 245.1826
1953.538, 244.6792
1955.466, 242.6411
1957.395, 248.8948
1959.323, 251.4248
1961.252, 245.2929
1963.180, 240.9892
1965.109, 240.3601
1967.037, 241.5380
1968.966, 243.4942
1970.894, 248.9185
1972.823, 245.6127
1974.751, 238.9385
1976.680, 244.4249
1978.608, 247.2842
1980.536, 243.1307
1982.465, 241.6898
1984.393, 243.6103
1986.322, 246.5929
1988.250, 248.2454
1990.179, 251.0548
1992.107, 251.1978
1994.036, 250.8011
1995.964, 257.6047
1997.893, 260.9993
1999.821, 259.5276
2001.750, 259.5681
2003.678, 260.0631
2005.607, 259.8751
2007.535, 264.2015
2009.464, 275.2244
2011.392, 284.1471
2013.320, 290.8513
2015.249, 299.9764
2017.177, 303.7399
2019.106, 299.6591
2021.034, 298.3766
2022.963, 300.6657
2024.891, 311.3733
2026.820, 321.1048
2028.748, 327.7350
2030.677, 347.9960
2032.605, 372.0319
2034.534, 390.5470
2036.462, 394.2761
2038.391, 383.2928
2040.319, 366.4349
2042.247, 346.6327
2044.176, 330.0807
2046.104, 313.9958
2048.033, 293.6293
2049.961, 283.2755
2051.890, 276.0501
2053.818, 261.8961
2055.747, 255.4356
2057.675, 254.9590
2059.604, 251.7524
2061.532, 248.8850
2063.461, 252.2484
2065.389, 252.3085
2067.318, 247.3520
2069.246, 245.2768
2071.175, 245.4718
2073.103, 246.3504
2075.031, 244.4163
2076.960, 242.4281
2078.888, 244.9609
2080.817, 242.5020
2082.745, 233.1582
2084.674, 230.2916
2086.602, 231.2262
2088.531, 234.3214
2090.459, 238.7161
2092.388, 243.8193
2094.316, 245.7244
2096.245, 244.5783
2098.173, 238.3184
2100.102, 235.9772
2102.030, 240.2659
2103.958, 238.1533
2105.887, 235.4087
2107.815, 239.0543
2109.744, 240.9344
2111.672, 241.1931
2113.601, 242.9232
2115.529, 242.1750
2117.458, 239.7782
2119.386, 236.7628
2121.315, 236.3895
2123.243, 244.8652
2125.172, 246.3166
2127.100, 240.5419
2129.029, 237.2727
2130.957, 237.3526
2132.885, 239.7967
2134.814, 242.8148
2136.742, 245.7509
2138.671, 246.2080
2140.599, 244.5345
2142.528, 242.5910
2144.456, 244.9808
2146.385, 245.9051
2148.313, 238.0329
2150.242, 234.5345
2152.170, 236.3273
2154.099, 241.6178
2156.027, 246.5500
2157.956, 251.5788
2159.884, 247.5050
2161.813, 240.2612
2163.741, 243.0595
2165.669, 245.6245
2167.598, 245.2256
2169.526, 254.4588
2171.455, 260.5926
2173.383, 249.5060
2175.312, 249.0936
2177.240, 255.7477
2179.169, 260.8021
2181.097, 264.3416
2183.026, 267.7327
2184.954, 271.4361
2186.883, 275.1129
2188.811, 276.7593
2190.740, 282.3328
2192.668, 291.4636
2194.596, 305.3185
2196.525, 321.2628
2198.453, 335.3528
2200.382, 345.8486
2202.310, 367.5376
2204.239, 409.4241
2206.167, 459.1362
2208.096, 522.4705
2210.024, 628.8173
2211.953, 746.7375
2213.881, 863.0565
2215.810, 930.9606
2217.738, 925.1345
2219.667, 829.5509
2221.595, 701.8217
2223.523, 570.1509
2225.452, 477.8636
2227.380, 408.1040
2229.309, 355.7458
2231.237, 326.2034
2233.166, 307.6919
2235.094, 292.9752
2237.023, 278.7269
2238.951, 267.0027
2240.880, 264.5873
2242.808, 263.5836
2244.737, 261.4496
2246.665, 254.1064
2248.594, 250.1863
2250.522, 254.7325
2252.450, 258.8482
2254.379, 260.4036
2256.307, 257.1097
2258.236, 250.3794
2260.164, 243.6082
2262.093, 250.4475
2264.021, 253.7664
2265.950, 247.1970
2267.878, 240.3907
2269.807, 237.1449
2271.735, 243.6445
2273.664, 245.9364
2275.592, 245.1434
2277.521, 243.7492
2279.449, 246.8954
2281.377, 254.2566
2283.306, 251.2820
2285.234, 245.5767
2287.163, 239.4021
2289.091, 242.9779
2291.020, 250.2619
2292.948, 257.1284
2294.877, 257.5482
2296.805, 253.6888
2298.734, 253.3298
2300.662, 254.0414
2302.591, 254.8478
2304.519, 248.3500
2306.448, 244.0060
2308.376, 249.0901
2310.304, 249.5351
2312.233, 247.3070
2314.161, 248.0280
2316.090, 249.8258
2318.018, 250.9251
2319.947, 251.7444
2321.875, 252.0724
2323.804, 252.2305
2325.732, 251.1525
2327.661, 249.6799
2329.589, 245.8109
2331.518, 239.1849
2333.446, 235.3678
2335.375, 235.9327
2337.303, 242.1122
2339.231, 248.4687
2341.160, 241.6671
2343.088, 239.2083
2345.017, 239.4066
2346.945, 241.7334
2348.874, 244.9910
2350.802, 246.0705
2352.731, 242.9134
2354.659, 240.4767
2356.588, 240.8636
2358.516, 239.8876
2360.445, 241.2725
2362.373, 249.9280
2364.302, 258.8122
2366.230, 261.9318
2368.158, 251.4761
2370.087, 247.8952
2372.015, 251.0787
2373.944, 252.9799
2375.872, 251.5997
2377.801, 247.7570
2379.729, 257.4103
2381.658, 264.4137
2383.586, 256.2562
2385.515, 254.6998
2387.443, 260.0634
2389.372, 262.8646
2391.300, 263.1515
2393.229, 264.1527
2395.157, 252.3447
2397.085, 254.3079
2399.014, 269.4462
2400.942, 265.5725
2402.871, 255.8628
2404.799, 252.7857
2406.728, 254.1368
2408.656, 252.2359
2410.585, 248.6094
2412.513, 251.7099
2414.442, 255.6706
2416.370, 261.4073
2418.299, 257.0786
2420.227, 249.5257
2422.156, 245.3556
2424.084, 247.8428
2426.012, 253.0724
2427.941, 258.7929
2429.869, 256.2383
2431.798, 253.9277
2433.726, 263.9470
2435.655, 264.0374
2437.583, 255.4524
2439.512, 253.1710
2441.440, 257.0397
2443.369, 261.6146
2445.297, 258.4129
2447.226, 254.6898
2449.154, 251.6889
2451.083, 247.9447
2453.011, 249.2368
2454.939, 252.7523
2456.868, 250.8116
2458.796, 249.4203
2460.725, 249.5160
2462.653, 258.5416
2464.582, 266.5959
2466.510, 267.8261
2468.439, 262.3980
2470.367, 256.7011
2472.296, 254.3910
2474.224, 259.1739
2476.153, 256.9129
2478.081, 256.4090
2480.010, 256.0072
2481.938, 252.4134
2483.866, 253.1505
2485.795, 257.0789
2487.723, 256.2271
2489.652, 249.8976
2491.580, 249.2887
2493.509, 249.2008
2495.437, 249.0314
2497.366, 251.8553
2499.294, 255.1021
2501.223, 251.4481
2503.151, 250.0682
2505.080, 253.9274
2507.008, 250.4662
2508.937, 245.7135
2510.865, 246.3656
2512.793, 248.1765
2514.722, 254.0268
2516.650, 253.5992
2518.579, 251.6104
2520.507, 251.2879
2522.436, 247.0345
2524.364, 245.4311
2526.293, 247.1366
2528.221, 257.1046
2530.150, 262.0624
2532.078, 257.5094
2534.007, 253.9263
2535.935, 258.8735
2537.864, 253.2075
2539.792, 242.0855
2541.720, 244.6326
2543.649, 250.6950
2545.577, 254.8625
2547.506, 253.5312
2549.434, 257.0521
2551.363, 259.0465
2553.291, 249.4587
2555.220, 243.7822
2557.148, 249.3962
2559.077, 254.2532
2561.005, 248.7551
2562.934, 249.5672
2564.862, 250.7862
2566.791, 244.2032
2568.719, 248.8943
2570.647, 249.2724
2572.576, 247.1384
2574.504, 247.8553
2576.433, 242.6664
2578.361, 247.8320
2580.290, 252.3805
2582.218, 249.4389
2584.147, 251.6154
2586.075, 248.0763
2588.004, 243.2500
2589.932, 246.9765
2591.861, 246.0429
2593.789, 246.5322
2595.718, 249.8082
2597.646, 248.3133
2599.574, 247.7193
2601.503, 251.2249
2603.431, 255.9463
2605.360, 253.4929
2607.288, 251.4515
2609.217, 252.1442
2611.145, 248.3104
2613.074, 243.5957
2615.002, 239.7756
2616.931, 241.7664
2618.859, 247.2821
2620.788, 247.3892
2622.716, 249.3332
2624.645, 248.0747
2626.573, 245.0159
2628.501, 242.6033
2630.430, 241.8331
2632.358, 245.6094
2634.287, 242.1422
2636.215, 237.6728
2638.144, 236.4140
2640.072, 237.1424
2642.001, 244.3883
2643.929, 236.1690
2645.858, 232.8600
2647.786, 240.7353
2649.715, 241.5477
2651.643, 242.4292
2653.572, 242.2305
2655.500, 240.0651
2657.428, 240.3511
2659.357, 239.4641
2661.285, 235.2653
2663.214, 234.7910
2665.142, 236.5000
2667.071, 240.2135
2668.999, 237.8138
2670.928, 236.2014
2672.856, 234.2615
2674.785, 232.9560
2676.713, 235.6444
2678.642, 236.3842
2680.570, 232.9633
2682.499, 231.4281
2684.427, 236.8985
2686.355, 234.8341
2688.284, 234.3266
2690.212, 239.2740
2692.141, 229.6200
2694.069, 226.4989
2695.998, 232.4440
2697.926, 235.5602
2699.855, 237.2188
2701.783, 235.1423
2703.712, 231.2949
2705.640, 237.2237
2707.569, 238.7570
2709.497, 231.0950
2711.426, 230.9078
2713.354, 230.4154
2715.282, 227.6440
2717.211, 233.9654
2719.139, 232.7075
2721.068, 227.4648
2722.996, 228.6811
2724.925, 229.9381
2726.853, 229.9389
2728.782, 230.9873
2730.710, 231.8977
2732.639, 232.2162
2734.567, 231.7863
2736.496, 230.5918
2738.424, 226.2810
2740.353, 220.1706
2742.281, 222.6831
2744.209, 222.3700
2746.138, 219.8959
2748.066, 227.5437
2749.995, 229.6282
2751.923, 226.0379
2753.852, 220.1794
2755.780, 224.5915
2757.709, 226.5712
2759.637, 216.9633
2761.566, 213.0931
2763.494, 214.5256
2765.423, 219.4983
2767.351, 220.8793
2769.280, 220.3969
2771.208, 220.8457
2773.136, 229.1915
2775.065, 227.6266
2776.993, 218.7677
2778.922, 207.0882
2780.850, 216.1127
2782.779, 221.7105
2784.707, 214.4481
2786.636, 219.4567
2788.564, 220.6810
2790.493, 216.3382
2792.421, 211.4439
2794.350, 213.6266
2796.278, 219.0538
2798.207, 219.4496
2800.135, 208.1272
2802.063, 205.2119
2803.992, 213.9094
2805.920, 210.5307
2807.849, 211.1360
2809.777, 214.1470
2811.706, 209.6088
2813.634, 207.3323
2815.563, 206.3152
2817.491, 202.3517
2819.420, 201.5887
2821.348, 202.7639
2823.277, 204.7151
2825.205, 201.3325
2827.134, 201.9463
2829.062, 203.5208
2830.990, 202.0821
2832.919, 201.7595
2834.847, 198.0617
2836.776, 192.4722
2838.704, 192.1873
2840.633, 196.8867
2842.561, 205.9734
2844.490, 203.9116
2846.418, 199.0083
2848.347, 194.7317
2850.275, 198.3190
2852.204, 195.0606
2854.132, 193.4200
2856.061, 194.9201
2857.989, 201.9160
2859.917, 201.5048
2861.846, 196.5006
2863.774, 200.2968
2865.703, 195.7027
2867.631, 191.5506
2869.560, 192.5387
2871.488, 193.2306
2873.417, 190.3394
2875.345, 187.9050
2877.274, 186.1046
2879.202, 187.7209
2881.131, 186.6729
2883.059, 183.0321
2884.988, 178.5785
2886.916, 179.6898
2888.844, 183.8451
2890.773, 181.9995
2892.701, 185.2620
2894.630, 190.1731
2896.558, 183.3538
2898.487, 176.1359
2900.415, 174.9269
2902.344, 177.2205
2904.272, 184.3781
2906.201, 179.9404
2908.129, 173.3481
2910.058, 176.7624
2911.986, 171.8381
2913.915, 171.5237
2915.843, 172.6655
2917.771, 167.0177
2919.700, 167.7745
2921.628, 167.1510
2923.557, 163.1848
2925.485, 172.3799
2927.414, 173.8264
2929.342, 157.2038
2931.271, 160.5733
2933.199, 174.4447
2935.128, 174.9577
2937.056, 166.7343
2938.985, 171.5939
2940.913, 165.1335
2942.842, 153.9895
2944.770, 163.1432
2946.698, 160.4156
2948.627, 156.1571
2950.555, 154.2209
2952.484, 154.3733
2954.412, 159.6173
2956.341, 161.6353
2958.269, 161.1113
2960.198, 159.5190
2962.126, 158.6215
2964.055, 165.0179
2965.983, 167.7564
2967.912, 161.2934
2969.840, 154.4891
2971.769, 152.4217
2973.697, 151.0214
2975.625, 151.7631
2977.554, 157.0334
2979.482, 149.2604
2981.411, 138.3570
2983.339, 135.7356
2985.268, 138.1173
2987.196, 143.1922
2989.125, 141.5945
2991.053, 142.7319
2992.982, 150.1214
2994.910, 149.8105
2996.839, 145.7865
2998.767, 143.1687
3000.696, 145.2355
3002.624, 141.4933
3004.552, 138.3028
3006.481, 134.8552
3008.409, 132.7948
3010.338, 128.5432
3012.266, 131.0246
3014.195, 138.2436
3016.123, 139.0701
3018.052, 135.5100
3019.980, 128.6381
3021.909, 135.1207
3023.837, 132.2300
3025.766, 132.6322
3027.694, 134.7142
3029.623, 123.4946
3031.551, 126.9498
3033.479, 132.5551
3035.408, 127.7502
3037.336, 131.4767
3039.265, 130.5146
3041.193, 125.5033
3043.122, 124.2729
3045.050, 121.2879
3046.979, 118.7280
3048.907, 122.0738
3050.836, 120.2098
3052.764, 118.3840
3054.693, 116.0272
3056.621, 116.4219
3058.550, 115.9314
3060.478, 116.3389
3062.406, 118.5785
3064.335, 113.7658
3066.263, 113.4811
3068.192, 111.5291
3070.120, 110.7729
3072.049, 110.4779
3073.977, 114.4556
3075.906, 109.9021
3077.834, 105.3628
3079.763, 110.2223
3081.691, 110.8961
3083.620, 107.1775
3085.548, 102.2591
3087.477, 103.1362
3089.405, 102.8811
3091.333, 104.7903
3093.262, 110.0255
3095.190, 101.7527
3097.119, 99.07979
3099.047, 102.2834
3100.976, 105.8936
3102.904, 105.0271
3104.833, 103.2937
3106.761, 97.02255
3108.690, 90.89836
3110.618, 95.58031
3112.547, 96.33018
3114.475, 96.55313
3116.404, 99.66844
3118.332, 92.81106
3120.260, 90.47473
3122.189, 88.95151
3124.117, 86.98824
3126.046, 87.00745
3127.974, 89.45757
3129.903, 94.94820
3131.831, 97.63817
3133.760, 87.80278
3135.688, 90.87782
3137.617, 89.95565
3139.545, 80.52132
3141.474, 91.66879
3143.402, 86.79977
3145.331, 80.40843
3147.259, 83.36712
3149.188, 83.25357
3151.116, 80.26631
3153.044, 77.32128
3154.973, 77.70729
3156.901, 86.10604
3158.830, 86.18779
3160.758, 84.19892
3162.687, 84.77750
3164.615, 76.60435
3166.544, 75.06770
3168.472, 77.10956
3170.401, 78.42777
3172.329, 71.61664
3174.258, 72.38390
3176.186, 75.65777
3178.115, 75.61319
3180.043, 66.16635
3181.971, 67.29708
3183.900, 69.04291
3185.828, 69.92554
3187.757, 74.03822
3189.685, 71.96996
3191.614, 66.65231
3193.542, 63.12915
3195.471, 66.39604
3197.399, 71.70560
3199.328, 70.49805
3201.256, 66.42837
3203.185, 63.56252
3205.113, 63.75489
3207.042, 69.03614
3208.970, 70.43005
3210.898, 65.70160
3212.827, 64.55081
3214.755, 65.98061
3216.684, 64.29337
3218.612, 62.01658
3220.541, 69.45733
3222.469, 59.51581
3224.398, 56.72039
3226.326, 60.79436
3228.255, 61.30977
3230.183, 67.92728
3232.112, 68.52797
3234.040, 65.27773
3235.969, 62.24724
3237.897, 60.04552
3239.825, 55.30107
3241.754, 58.42884
3243.682, 68.17878
3245.611, 62.76798
3247.539, 61.09549
3249.468, 59.67953
3251.396, 59.02336
3253.325, 62.78625
3255.253, 57.84861
3257.182, 57.22522
3259.110, 59.42067
3261.039, 59.41994
3262.967, 62.20215
3264.896, 63.00887
3266.824, 59.02103
3268.752, 52.91004
3270.681, 57.15579
3272.609, 54.31253
3274.538, 55.08257
3276.466, 58.51804
3278.395, 56.88181
3280.323, 52.94561
3282.252, 49.43496
3284.180, 50.54691
3286.109, 55.11201
3288.037, 50.36687
3289.966, 56.59757
3291.894, 59.09473
3293.823, 56.73645
3295.751, 57.23403
3297.679, 53.89468
3299.608, 56.78066
3301.536, 57.71422
3303.465, 51.84090
3305.393, 54.45218
3307.322, 56.63619
3309.250, 52.03655
3311.179, 48.46865
3313.107, 68.38922
3315.036, 71.84369
3316.964, 73.09770
3318.893, 71.87280
3320.821, 66.22713
3322.750, 56.02266
3324.678, 51.66136
3326.606, 53.50088
3328.535, 57.85291
3330.463, 56.93170
3332.392, 55.35363
3334.320, 61.86697
3336.249, 66.29252
3338.177, 64.78577
3340.106, 62.30827
3342.034, 56.15119
3343.963, 51.92415
3345.891, 49.47544
3347.820, 47.20204
3349.748, 50.81194
3351.677, 45.16726
3353.605, 46.89624
3355.533, 55.24858
3357.462, 48.08087
3359.390, 49.09425
3361.319, 48.87817
3363.247, 45.89011
3365.176, 42.76162
3367.104, 47.19776
3369.033, 43.81694
3370.961, 44.83622
3372.890, 45.01541
3374.818, 38.50802
3376.747, 46.64793
3378.675, 39.33549
3380.604, 36.44790
3382.532, 41.25429
3384.460, 45.14328
3386.389, 38.82821
3388.317, 37.66676
3390.246, 38.62883
3392.174, 39.33867
3394.103, 39.26196
3396.031, 42.88289
3397.960, 42.94512
3399.888, 40.16991
3401.817, 37.54087
3403.745, 38.28956
3405.674, 37.65998
3407.602, 36.32622
3409.531, 32.66361
3411.459, 29.54129
3413.387, 38.59196
3415.316, 39.38656
3417.244, 32.73397
3419.173, 28.28142
3421.101, 30.39302
3423.030, 29.12942
3424.958, 32.44675
3426.887, 35.89617
3428.815, 33.89917
3430.744, 27.42119
3432.672, 31.80950
3434.601, 25.59004
3436.529, 24.17316
3438.458, 29.79598
3440.386, 35.87292
3442.314, 27.71509
3444.243, 31.18092
3446.171, 29.77555
3448.100, 29.39664
3450.028, 32.36546
3451.957, 22.00994
3453.885, 32.93360
3455.814, 34.85790
3457.742, 30.28736
3459.671, 27.10623
3461.599, 25.55352
3463.528, 30.28456
3465.456, 34.69928
3467.385, 30.19510
3469.313, 20.03369
3471.241, 18.70241
3473.170, 26.71303
3475.098, 28.51562
3477.027, 28.36901
3478.955, 29.07341
3480.884, 29.15584
3482.812, 28.81745
3484.741, 28.50114
3486.669, 30.37304
3488.598, 31.43053
3490.526, 27.96015
3492.455, 21.13413
3494.383, 33.69252
3496.312, 36.45154
3498.240, 31.75447
3500.168, 30.48179
3502.097, 32.63599
3504.025, 26.17380
3505.954, 21.00355
3507.882, 21.60141
3509.811, 25.04108
3511.739, 23.58384
3513.668, 24.31065
3515.596, 20.78643
3517.525, 20.36532
3519.453, 25.43716
3521.382, 32.68201
3523.310, 32.34879
3525.239, 19.75169
3527.167, 17.49229
3529.095, 26.46370
3531.024, 34.19176
3532.952, 21.67871
3534.881, 23.09469
3536.809, 20.82241
3538.738, 21.66236
3540.666, 25.75164
3542.595, 26.13510
3544.523, 20.74064
3546.452, 27.36926
3548.380, 25.95092
3550.309, 23.15944
3552.237, 22.93745
3554.166, 14.84030
3556.094, 15.43313
3558.022, 23.01793
3559.951, 27.43526
3561.879, 24.50997
3563.808, 17.41609
3565.736, 16.57420
3567.665, 19.45127
3569.593, 25.27105
3571.522, 20.47185
3573.450, 12.19418
3575.379, 17.35890
3577.307, 15.24382
3579.236, 23.60739
3581.164, 28.35839
3583.093, 26.07080
3585.021, 19.10785
3586.949, 10.42480
3588.878, 13.99112
3590.806, 14.70883
3592.735, 17.70208
3594.663, 18.56466
3596.592, 14.33851
3598.520, 12.20763
3600.449, 22.55583
3602.377, 13.50101
3604.306, 9.964357
3606.234, 17.22709
3608.163, 23.39164
3610.091, 13.82924
3612.020, 16.53851
3613.948, 10.91383
3615.876, 17.67553
3617.805, 22.16572
3619.733, 12.67399
3621.662, 25.71638
3623.590, 19.93243
3625.519, 20.52662
3627.447, 19.91643
3629.376, 16.56748
3631.304, 13.83797
3633.233, 11.25581
3635.161, 15.32362
3637.090, 11.46223
3639.018, 6.333457
3640.947, 9.551942
3642.875, 17.76836
3644.803, 13.99300
3646.732, 6.374088
3648.660, 8.596495
3650.589, 14.27460
3652.517, 12.16059
3654.446, 4.683077
3656.374, 5.670220
3658.303, 13.93011
3660.231, 18.31763
3662.160, 14.97077
3664.088, 11.72904
3666.017, 8.000273
3667.945, 0.1879532
3669.874, 5.057618
3671.802, 13.18297
3673.730, 8.838379
3675.659, 9.009750
3677.587, 11.11053
3679.516, 9.129250
3681.444, 19.13042
3683.373, 16.75394
3685.301, 6.620408
3687.230, 9.451235
3689.158, 15.25119
3691.087, 15.22051
3693.015, 11.90413
3694.944, 3.596807
3696.872, 7.858347
3698.801, 6.708334
3700.729, 6.272685
3702.657, 14.55514
3704.586, 22.57194
3706.514, 8.416952
3708.443, 3.354394
3710.371, -1.219064
3712.300, 7.475791
3714.228, 7.738124
3716.157, 4.233981
3718.085, 12.37907
3720.014, 10.82755
3721.942, 11.88914
3723.871, 9.598783
3725.799, 6.865435
3727.728, 0.4249959
3729.656, -4.144474
3731.584, 1.447276
3733.513, 6.665823
3735.441, 4.820800
3737.370, 12.20349
3739.298, 10.59936
3741.227, 4.550704
3743.155, 2.212471
3745.084, 3.142576
3747.012, 5.803548
3748.941, 4.090655
3750.869, 4.768745
3752.798, 7.948727
3754.726, 9.250041
3756.655, 10.25133
3758.583, 13.65857
3760.511, 6.455089
3762.440, 4.861191
3764.368, 1.863021
3766.297, 4.975868
3768.225, 5.494299
3770.154, 1.480043
3772.082, -0.5231819
3774.011, 2.537270
3775.939, 13.31858
3777.868, 5.604434
3779.796, 6.107234
3781.725, 1.021814
3783.653, -3.397079
3785.582, 1.120210
3787.510, 3.374412
3789.438, 4.981572
3791.367, 2.855418
3793.295, 8.125041
3795.224, 5.112947
3797.152, -3.086406
3799.081, -5.405438
3801.009, 0.4267222
3802.938, 5.147664
3804.866, 10.79430
3806.795, 4.349284
3808.723, -4.949737
3810.652, -3.397725
3812.580, 2.111010
3814.509, 3.395997
3816.437, 3.357380
3818.365, 8.1857711E-02
3820.294, 3.822679
3822.222, 1.989111
3824.151, 0.7916421
3826.079, 5.579167
3828.008, 9.263027
3829.936, 6.437564
3831.865, 2.306509
3833.793, 2.593977
3835.722, 1.157803
3837.650, 6.110217
3839.579, 7.973050
3841.507, 3.255004
3843.436, -0.4473230
3845.364, 3.460565
3847.292, 10.75332
3849.221, 5.932650
3851.149, 0.8864995
3853.078, 5.287441
3855.006, 1.708792
3856.935, -0.7629507
3858.863, 0.8054395
3860.792, 0.6738214
3862.720, -1.681220
3864.649, 3.325847
3866.577, 3.817747
3868.506, 4.855713
3870.434, -7.280952
3872.363, 1.636071
3874.291, 3.999948
3876.219, -1.823764
3878.148, 1.828708
3880.076, 0.5232232
3882.005, 4.028832
3883.933, -2.938951
3885.862, 3.595375
3887.790, 1.726512
3889.719, 4.127389
3891.647, 7.121410
3893.576, 2.500252
3895.504, -2.923630
3897.433, 4.684157
3899.361, -1.496616
3901.290, 6.301332
3903.218, 0.9151748
3905.146, 1.009758
3907.075, 2.638815
3909.003, 8.041451
3910.932, 11.08403
3912.860, 3.447568
3914.789, -1.311903
3916.717, -0.1364637
3918.646, -0.7218329
3920.574, 0.7643959
3922.503, 6.489415
3924.431, 8.812901
3926.360, 1.542479
3928.288, -5.049996
3930.217, -0.2210404
3932.145, 8.381782
3934.073, 7.484820
3936.002, 1.023735
3937.930, -5.876065
3939.859, -1.878962
3941.787, 1.753635
3943.716, 1.744568
3945.644, 1.493762
3947.573, 1.511071
3949.501, 0.8410906
3951.430, 0.7539935
3953.358, -7.294863
3955.287, -3.419328
3957.215, 4.848144
3959.144, 7.4518621E-02
3961.072, 4.561598
3963.000, 4.833657
3964.929, 4.017816
3966.857, 5.359392
3968.786, 1.196528
3970.714, -3.937134
3972.643, -3.696508
3974.571, -2.181330
3976.500, -0.2662929
3978.428, -1.205703
3980.357, 1.404954
3982.285, -1.465092
3984.214, -5.075722
3986.142, -7.216553
3988.071, -7.031665
3989.999, -3.521882
3991.927, -8.772633
3993.856, 0.4400129
3995.784, -1.974988
3997.713, -0.8101192
3999.641, -1.428328
4001.570, -4.318963
4003.498, -9.121646
4005.427, -1.336877
4007.355, 4.615857
4009.284, -0.6334231
4011.212, 0.2337976
4013.141, -3.022988
4015.069, 2.389136
4016.998, -5.198669
4018.926, -2.721515
4020.854, -6.609476
4022.783, -4.058182
4024.711, -1.755609
4026.640, 4.467942
4028.568, 5.835618
4030.497, -1.165420
4032.425, -4.047389
4034.354, 1.055347
4036.282, 1.903386
4038.211, 3.862419
4040.139, -1.122090
4042.068, -1.184258
4043.996, 2.047954
4045.925, -0.2042804
4047.853, 0.5219979
4049.781, 2.9850891E-02
4051.710, -3.476488
4053.638, -2.124704
4055.567, 3.238795
4057.495, 1.905294
4059.424, -3.010022
4061.352, -3.853451
4063.281, -0.5016813
4065.209, 1.325466
4067.138, -1.491514
4069.066, 0.7522821
4070.995, -1.525568
4072.923, -0.8077927
4074.852, 1.327093
4076.780, -0.8146084
4078.708, -6.3238449E-02
4080.637, 0.9789587
4082.565, -4.815723
4084.494, -0.3013235
4086.422, -4.265444
4088.351, -6.483995
4090.279, 3.618547
4092.208, 4.504173
4094.136, -0.7300860
4096.065, -3.776141
4097.993, -7.249976
4099.922, -9.652239
4101.850, -7.544415
4103.779, -1.250255
4105.707, -1.619494
4107.636, -7.058262
4109.564, -2.079675
4111.493, 6.949454
4113.421, 3.089262
4115.350, -2.265252
4117.278, -0.6229399
4119.207, -3.843883
4121.135, 1.827500
4123.063, 4.270708
4124.992, -1.091475
4126.920, 0.3263145
4128.849, -0.5919468
4130.777, -2.788949
4132.706, 2.662869
4134.634, 2.779356
4136.563, -1.171391
4138.491, 1.802166
4140.419, 5.278657
4142.348, 5.705394
4144.276, -5.294186
4146.205, -3.662262
4148.133, 5.426587
4150.062, -5.432813
4151.990, -0.9478535
4153.919, 12.24353
4155.847, 1.620665
4157.776, -1.864486
4159.704, 5.283970
4161.633, 0.9902465
4163.561, 1.737698
4165.490, 3.119492
4167.418, -7.376855
4169.347, -9.355266
4171.275, -1.619567
4173.204, 2.3560289E-02
4175.132, 2.449313
4177.061, -1.610234
4178.989, -1.758006
4180.917, 11.52063
4182.846, -5.694078
4184.774, -5.453065
4186.703, 0.6456934
4188.631, -3.4932359E-03
4190.560, -3.958012
4192.488, -1.930707
4194.417, -0.4902704
4196.345, -10.44609
4198.273, -6.177411
4200.202, -1.934187
4202.130, -5.492802
4204.059, -6.996409
4205.987, -4.273242
4207.916, -2.580785
4209.844, -1.928898
4211.773, -3.485778
4213.701, -5.453964
4215.630, -1.361487
4217.558, 0.1790133
4219.487, -0.9437386
4221.415, 2.519418
4223.344, 3.214352
4225.272, 0.3512796
4227.201, -5.640807
4229.129, 2.243930
4231.058, -7.011129
4232.986, 8.353903
4234.915, 1.483883
4236.843, 8.951862
4238.771, 3.949634
4240.700, -2.314845
4242.628, -1.914123
4244.557, 5.801795
4246.485, 3.422984
4248.414, 2.994749
4250.342, 1.299364
4252.271, 10.18655
4254.199, 7.871165
4256.127, -1.701032
4258.056, 1.922195
4259.984, 4.008804
4261.913, 2.192627
4263.841, 2.769359
4265.770, 3.820998
4267.698, 5.962391
4269.627, -7.497983
4271.555, -8.885999
4273.484, 0.7921975
4275.412, 2.348840
4277.341, 2.8043211E-02
4279.269, 7.482615
4281.198, 2.881153
4283.126, -0.3879301
4285.055, -7.926368
4286.983, -3.112788
4288.912, -2.716894
4290.840, -9.9231191E-02
4292.769, -2.225854
4294.697, -2.090795
4296.625, -8.401587
4298.554, 2.234387
4300.482, -7.985931
4302.411, -1.803292
4304.339, -3.419520
4306.268, 3.882463
4308.196, -0.1995369
4310.125, -4.749957
4312.053, 0.3996208
4313.981, 1.102012
4315.910, 9.614472
4317.838, 0.4183660
4319.767, -1.264784
4321.695, 7.025656
4323.624, -1.633250
4325.552, 5.068878
4327.481, 6.272013
4329.409, -3.304188
4331.338, -5.603080
4333.266, -4.175230
4335.195, -5.094713
4337.123, -0.7391868
4339.052, 3.113386
4340.980, -2.334673
4342.909, -1.694458
4344.837, 1.105532
4346.766, -4.243480
4348.694, -3.767820
4350.623, -4.073739
4352.551, -9.370303
4354.479, -3.961322
4356.408, -3.206050
4358.336, -5.776037
4360.265, -5.442022
4362.193, -3.852322
4364.122, -8.574636
4366.050, -4.780610
4367.979, -4.623126
4369.907, 0.2082259
4371.835, -0.8063790
4373.764, -0.4568335
4375.692, -1.208022
##END=



