##NAMES=Grossular
##RRUFFID=R100146
##IDEAL CHEMISTRY=Ca_3_Al_2_(SiO_4_)_3_
##LOCALITY=Sri Lanka
##OWNER=RRUFF
##SOURCE=William W. Pinch
##DESCRIPTION=Red cut gemstone
##STATUS=The identification of this mineral has been confirmed only by single crystal X-ray diffraction
##URL=https://www.rruff.net/odr/rruff_sample/R100146
##DIFFRACTION SAMPLE DESCRIPTION=Single crystal, powder profile is calculated
##CELL PARAMETERS=a: 11.859 b: 11.859 c: 11.859 alpha: 90 beta: 90 gamma: 90 volume: 1667.6 crystal system: cubic
##FILETYPE=Raman RAW
##RAMAN WAVELENGTH=780

124.4028, 515.4619
126.3313, 516.6237
128.2598, 518.4504
130.1882, 521.8672
132.1167, 526.5386
134.0452, 534.5104
135.9736, 548.2838
137.9021, 563.0331
139.8306, 577.5060
141.7590, 591.4134
143.6875, 604.3282
145.6160, 616.1998
147.5444, 627.5124
149.4729, 638.2499
151.4014, 648.4899
153.3298, 657.4308
155.2583, 666.2661
157.1868, 675.7404
159.1152, 685.8181
161.0437, 699.7693
162.9722, 709.1786
164.9006, 734.6647
166.8291, 761.4403
168.7576, 822.0141
170.6860, 953.7716
172.6145, 1147.852
174.5430, 1349.566
176.4714, 1643.220
178.3999, 1813.481
180.3284, 1805.462
182.2568, 1699.703
184.1853, 1510.145
186.1138, 1270.112
188.0422, 1077.023
189.9707, 944.6672
191.8992, 843.6702
193.8276, 783.0350
195.7561, 741.4664
197.6846, 715.2592
199.6130, 699.9182
201.5415, 691.0845
203.4700, 690.1325
205.3984, 690.7122
207.3269, 691.9042
209.2554, 695.9098
211.1838, 704.6379
213.1123, 715.5976
215.0408, 725.9444
216.9692, 735.9229
218.8977, 750.1928
220.8262, 766.8956
222.7546, 791.6598
224.6831, 820.1846
226.6116, 865.1127
228.5400, 931.4562
230.4685, 1017.228
232.3970, 1121.280
234.3254, 1247.895
236.2539, 1373.574
238.1824, 1503.544
240.1108, 1620.262
242.0393, 1747.996
243.9678, 1833.054
245.8962, 1823.287
247.8247, 1722.892
249.7532, 1568.936
251.6816, 1347.545
253.6101, 1158.645
255.5386, 1022.906
257.4670, 932.0637
259.3955, 888.6656
261.3240, 882.2773
263.2524, 896.9720
265.1809, 933.2890
267.1094, 999.8439
269.0378, 1101.643
270.9663, 1221.666
272.8948, 1397.851
274.8232, 1545.490
276.7517, 1620.669
278.6802, 1623.133
280.6086, 1542.021
282.5371, 1379.112
284.4656, 1223.300
286.3940, 1079.453
288.3225, 962.9102
290.2510, 882.5853
292.1794, 825.2159
294.1079, 782.5627
296.0364, 754.1462
297.9648, 737.4633
299.8933, 732.6907
301.8218, 738.3968
303.7502, 756.4305
305.6787, 782.6152
307.6072, 819.3549
309.5356, 861.2675
311.4641, 907.1976
313.3926, 953.4854
315.3210, 987.6575
317.2495, 1004.541
319.1780, 1024.965
321.1064, 1044.344
323.0349, 1076.188
324.9634, 1132.582
326.8918, 1197.995
328.8203, 1258.444
330.7488, 1314.795
332.6772, 1368.816
334.6057, 1415.348
336.5342, 1473.899
338.4626, 1545.704
340.3911, 1628.003
342.3196, 1720.469
344.2480, 1822.955
346.1765, 1926.094
348.1050, 2036.494
350.0334, 2182.011
351.9619, 2335.616
353.8904, 2597.307
355.8188, 2917.452
357.7473, 3414.418
359.6758, 4113.398
361.6042, 5031.699
363.5327, 6248.210
365.4612, 7665.308
367.3896, 9059.060
369.3181, 10552.75
371.2466, 11426.30
373.1750, 11703.14
375.1035, 11328.70
377.0320, 9970.335
378.9604, 8328.566
380.8889, 6654.085
382.8174, 5086.298
384.7458, 3886.288
386.6743, 3070.787
388.6028, 2465.521
390.5313, 2091.918
392.4597, 1819.838
394.3882, 1645.201
396.3167, 1529.952
398.2451, 1462.774
400.1736, 1434.072
402.1021, 1431.712
404.0305, 1459.179
405.9590, 1535.726
407.8875, 1660.107
409.8159, 1826.856
411.7444, 2081.942
413.6729, 2261.934
415.6013, 2326.074
417.5298, 2281.055
419.4583, 2079.208
421.3867, 1790.916
423.3152, 1526.584
425.2437, 1288.986
427.1721, 1101.513
429.1006, 969.1317
431.0291, 866.0236
432.9575, 796.5958
434.8860, 742.7936
436.8145, 703.1711
438.7429, 673.0114
440.6714, 649.5658
442.5999, 632.4003
444.5283, 619.9933
446.4568, 612.2238
448.3853, 608.1920
450.3137, 608.4291
452.2422, 610.7206
454.1707, 616.7871
456.0991, 621.7805
458.0276, 623.1569
459.9561, 623.2083
461.8845, 622.1230
463.8130, 622.1329
465.7415, 627.5890
467.6699, 638.6186
469.5984, 654.5458
471.5269, 677.9935
473.4553, 701.4299
475.3838, 733.7538
477.3123, 753.2195
479.2407, 746.0389
481.1692, 726.9114
483.0977, 703.1708
485.0261, 679.3085
486.9546, 663.7655
488.8831, 656.6913
490.8115, 658.1531
492.7400, 668.7382
494.6685, 687.7377
496.5969, 714.4875
498.5254, 750.7444
500.4539, 799.5999
502.3823, 855.7761
504.3108, 928.2344
506.2393, 997.9134
508.1677, 1034.994
510.0962, 1040.084
512.0247, 1022.401
513.9531, 967.9771
515.8816, 932.1057
517.8101, 917.2445
519.7385, 917.0820
521.6670, 940.3486
523.5955, 962.2200
525.5239, 967.9590
527.4524, 966.4151
529.3809, 953.6736
531.3093, 942.3380
533.2378, 962.7546
535.1663, 1014.551
537.0947, 1140.768
539.0232, 1338.912
540.9517, 1632.880
542.8801, 2094.893
544.8086, 2494.567
546.7371, 2824.787
548.6655, 2957.558
550.5940, 2745.995
552.5225, 2351.739
554.4509, 1916.575
556.3794, 1474.436
558.3079, 1158.098
560.2363, 959.6240
562.1648, 823.2649
564.0933, 751.7059
566.0217, 705.8297
567.9502, 685.2226
569.8787, 674.1232
571.8071, 672.3822
573.7356, 672.0778
575.6641, 667.4074
577.5925, 662.8828
579.5210, 662.2547
581.4495, 666.5729
583.3779, 679.6566
585.3064, 700.1901
587.2349, 720.8182
589.1633, 742.9544
591.0918, 751.7247
593.0203, 740.9544
594.9487, 722.9873
596.8772, 692.6581
598.8057, 666.0363
600.7341, 650.2179
602.6626, 641.0203
604.5911, 637.6243
606.5195, 636.8401
608.4480, 633.0261
610.3765, 627.6290
612.3049, 624.9564
614.2334, 624.8406
616.1619, 632.3010
618.0903, 648.4150
620.0188, 670.9053
621.9473, 705.5334
623.8757, 736.9543
625.8042, 772.1180
627.7327, 789.9519
629.6611, 776.7573
631.5896, 743.5958
633.5181, 692.6096
635.4465, 633.1666
637.3750, 576.9868
639.3035, 525.3402
641.2319, 486.5904
643.1604, 461.9963
645.0889, 442.8704
647.0173, 430.5188
648.9458, 420.3270
650.8743, 412.8039
652.8027, 405.8715
654.7312, 399.2998
656.6597, 392.6792
658.5881, 386.1250
660.5166, 379.0102
662.4451, 369.8708
664.3735, 360.7993
666.3020, 354.5973
668.2305, 350.4805
670.1589, 346.4223
672.0874, 342.4377
674.0159, 338.3040
675.9443, 333.8281
677.8728, 331.5970
679.8013, 332.2594
681.7297, 332.3439
683.6582, 330.8289
685.5867, 329.7140
687.5151, 330.0378
689.4436, 330.2732
691.3721, 329.7213
693.3005, 328.9263
695.2290, 328.3886
697.1575, 327.7274
699.0859, 325.8914
701.0144, 326.4143
702.9429, 324.2808
704.8713, 326.5127
706.7998, 327.3206
708.7283, 326.7882
710.6567, 325.6994
712.5852, 323.8567
714.5137, 324.7393
716.4421, 330.1227
718.3706, 334.1852
720.2991, 334.5189
722.2275, 335.2163
724.1560, 337.4029
726.0845, 339.9887
728.0129, 342.5865
729.9414, 345.2791
731.8699, 348.4044
733.7983, 351.4123
735.7268, 353.0891
737.6553, 354.5348
739.5837, 358.0323
741.5122, 362.7481
743.4407, 365.8138
745.3691, 370.1539
747.2976, 374.7715
749.2261, 378.3966
751.1545, 384.5382
753.0830, 388.9750
755.0115, 394.4650
756.9399, 402.1107
758.8684, 409.1329
760.7969, 413.5649
762.7253, 419.8647
764.6538, 430.0207
766.5823, 441.3922
768.5107, 452.3392
770.4392, 464.5153
772.3677, 479.3834
774.2961, 495.7593
776.2246, 513.0177
778.1531, 530.6710
780.0815, 547.5208
782.0100, 564.3708
783.9385, 582.6373
785.8669, 602.6765
787.7954, 626.8401
789.7239, 655.1586
791.6523, 687.1279
793.5808, 722.4322
795.5093, 763.3316
797.4377, 809.3607
799.3662, 861.8894
801.2947, 917.9782
803.2231, 991.5750
805.1516, 1084.160
807.0801, 1197.514
809.0085, 1329.696
810.9370, 1488.207
812.8655, 1675.072
814.7939, 1891.690
816.7224, 2155.352
818.6509, 2427.269
820.5793, 2721.608
822.5078, 2971.615
824.4363, 3131.206
826.3647, 3196.997
828.2932, 3143.770
830.2217, 3006.667
832.1501, 2820.102
834.0786, 2612.419
836.0071, 2455.556
837.9355, 2349.729
839.8640, 2291.885
841.7925, 2281.230
843.7209, 2318.972
845.6494, 2402.803
847.5779, 2499.126
849.5063, 2605.816
851.4348, 2711.176
853.3633, 2812.616
855.2917, 2916.547
857.2202, 3009.568
859.1487, 3149.056
861.0771, 3314.747
863.0056, 3588.850
864.9341, 3951.164
866.8625, 4474.903
868.7910, 5166.282
870.7195, 6037.099
872.6479, 7192.665
874.5764, 8381.448
876.5049, 9711.223
878.4333, 10742.30
880.3618, 11330.89
882.2903, 11385.37
884.2188, 10686.85
886.1472, 9586.646
888.0757, 8188.880
890.0042, 6754.267
891.9326, 5485.746
893.8611, 4402.571
895.7896, 3548.560
897.7180, 2887.473
899.6465, 2385.253
901.5750, 2015.685
903.5034, 1736.232
905.4319, 1534.054
907.3604, 1371.939
909.2888, 1246.807
911.2173, 1143.513
913.1458, 1061.009
915.0742, 987.2670
917.0027, 922.3286
918.9312, 862.4449
920.8596, 807.6821
922.7881, 757.8055
924.7166, 713.2542
926.6450, 671.3742
928.5735, 631.6501
930.5020, 599.2328
932.4304, 575.2539
934.3589, 551.7617
936.2874, 527.3436
938.2158, 509.0223
940.1443, 498.2115
942.0728, 490.6260
944.0012, 486.3547
945.9297, 481.3698
947.8582, 474.7817
949.7866, 468.1580
951.7151, 459.7199
953.6436, 454.2242
955.5720, 440.7566
957.5005, 428.0934
959.4290, 417.1992
961.3574, 408.7540
963.2859, 402.8224
965.2144, 399.5757
967.1428, 397.1488
969.0713, 400.6436
970.9998, 413.4482
972.9282, 429.4243
974.8567, 448.3485
976.7852, 467.4218
978.7136, 485.4202
980.6421, 503.5720
982.5706, 523.1237
984.4990, 541.8118
986.4275, 557.0682
988.3560, 573.3052
990.2844, 591.5888
992.2129, 613.3441
994.1414, 637.7957
996.0698, 668.2828
997.9983, 708.7061
999.9268, 753.2494
1001.855, 806.4137
1003.784, 851.4808
1005.712, 887.8954
1007.641, 898.0733
1009.569, 864.1158
1011.498, 806.7863
1013.426, 728.9474
1015.354, 648.6565
1017.283, 573.3047
1019.211, 508.0656
1021.140, 457.0096
1023.068, 417.2812
1024.997, 389.2064
1026.925, 368.3839
1028.854, 353.6397
1030.782, 342.0330
1032.711, 331.3148
1034.639, 322.8826
1036.568, 318.1139
1038.496, 315.6339
1040.425, 316.5092
1042.353, 316.6404
1044.281, 311.6837
1046.210, 306.6431
1048.138, 305.2259
1050.067, 304.6822
1051.995, 303.1909
1053.924, 301.7772
1055.852, 301.4766
1057.781, 301.0259
1059.709, 299.0833
1061.638, 297.3926
1063.566, 297.4847
1065.495, 297.6752
1067.423, 297.3376
1069.352, 296.2621
1071.280, 294.0136
1073.208, 291.4257
1075.137, 288.3773
1077.065, 285.9131
1078.994, 285.4332
1080.922, 284.4004
1082.851, 281.1829
1084.779, 277.6881
1086.708, 274.7101
1088.636, 271.7723
1090.565, 268.6421
1092.493, 265.5878
1094.422, 261.6831
1096.350, 259.5130
1098.279, 261.3809
1100.207, 262.7313
1102.135, 262.1820
1104.064, 260.9717
1105.992, 258.2992
1107.921, 256.9371
1109.849, 257.7862
1111.778, 259.4785
1113.706, 262.5348
1115.635, 265.0372
1117.563, 266.3197
1119.492, 267.8081
1121.420, 269.6185
1123.349, 271.6396
1125.277, 275.0779
1127.206, 279.0833
1129.134, 283.3449
1131.063, 289.9197
1132.991, 295.5854
1134.919, 303.4996
1136.848, 311.2404
1138.776, 319.6061
1140.705, 329.4287
1142.633, 337.7396
1144.562, 349.2195
1146.490, 358.3076
1148.419, 364.9828
1150.347, 372.4418
1152.276, 380.7619
1154.204, 391.1035
1156.133, 403.0382
1158.061, 413.1432
1159.990, 422.5589
1161.918, 434.5235
1163.846, 450.1162
1165.775, 472.8125
1167.703, 501.0469
1169.632, 531.8795
1171.560, 565.8241
1173.489, 604.2563
1175.417, 645.7570
1177.346, 686.3977
1179.274, 731.7342
1181.203, 783.2758
1183.131, 847.1522
1185.060, 924.0784
1186.988, 1020.686
1188.917, 1143.335
1190.845, 1283.451
1192.773, 1449.654
1194.702, 1612.690
1196.630, 1782.812
1198.559, 1909.521
1200.487, 1989.277
1202.416, 1995.601
1204.344, 1914.493
1206.273, 1783.203
1208.201, 1597.898
1210.130, 1412.950
1212.058, 1233.380
1213.987, 1076.180
1215.915, 943.1711
1217.844, 832.5443
1219.772, 743.8957
1221.700, 674.7377
1223.629, 623.0908
1225.557, 580.9827
1227.486, 547.1092
1229.414, 519.3885
1231.343, 496.8119
1233.271, 478.5727
1235.200, 462.8717
1237.128, 446.1368
1239.057, 434.2799
1240.985, 421.4022
1242.914, 414.1839
1244.842, 406.8110
1246.771, 400.7383
1248.699, 397.4840
1250.627, 394.9327
1252.556, 392.3776
1254.484, 389.7151
1256.413, 386.6879
1258.341, 384.1302
1260.270, 383.0258
1262.198, 380.4000
1264.127, 375.3480
1266.055, 370.4676
1267.984, 366.0848
1269.912, 360.7535
1271.841, 354.4005
1273.769, 348.7311
1275.698, 343.7172
1277.626, 339.3803
1279.554, 335.4919
1281.483, 331.0110
1283.411, 326.6753
1285.340, 323.5485
1287.268, 321.7891
1289.197, 322.3685
1291.125, 323.4095
1293.054, 322.8591
1294.982, 323.1098
1296.911, 326.2427
1298.839, 328.5102
1300.768, 327.9562
1302.696, 328.3740
1304.625, 330.6714
1306.553, 334.2111
1308.481, 339.0562
1310.410, 342.9064
1312.338, 345.5401
1314.267, 346.4804
1316.195, 346.3426
1318.124, 348.1628
1320.052, 352.5841
1321.981, 363.0594
1323.909, 375.6768
1325.838, 383.8399
1327.766, 389.8088
1329.695, 395.4781
1331.623, 401.0004
1333.552, 406.4828
1335.480, 411.8837
1337.408, 417.4328
1339.337, 422.4608
1341.265, 425.0699
1343.194, 430.8080
1345.122, 440.0399
1347.051, 452.8022
1348.979, 469.0645
1350.908, 490.4259
1352.836, 514.0568
1354.765, 543.7996
1356.693, 573.3951
1358.622, 608.4811
1360.550, 647.5679
1362.479, 687.0004
1364.407, 731.1388
1366.335, 781.1702
1368.264, 841.3523
1370.192, 913.6279
1372.121, 997.5356
1374.049, 1095.770
1375.978, 1199.156
1377.906, 1313.038
1379.835, 1407.877
1381.763, 1484.335
1383.692, 1519.088
1385.620, 1514.771
1387.549, 1484.760
1389.477, 1434.723
1391.406, 1374.294
1393.334, 1306.879
1395.262, 1232.223
1397.191, 1158.623
1399.119, 1087.393
1401.048, 1026.755
1402.976, 979.2943
1404.905, 944.0043
1406.833, 920.3286
1408.762, 912.4947
1410.690, 920.9894
1412.619, 935.8428
1414.547, 957.7550
1416.476, 991.6758
1418.404, 1038.473
1420.333, 1098.725
1422.261, 1174.721
1424.189, 1270.754
1426.118, 1381.399
1428.046, 1510.842
1429.975, 1640.571
1431.903, 1775.232
1433.832, 1883.087
1435.760, 1962.571
1437.689, 1992.697
1439.617, 1972.310
1441.546, 1898.624
1443.474, 1783.123
1445.403, 1652.204
1447.331, 1513.239
1449.260, 1368.529
1451.188, 1230.495
1453.116, 1108.033
1455.045, 998.0452
1456.973, 898.3317
1458.902, 812.7855
1460.830, 743.1866
1462.759, 685.6024
1464.687, 640.1768
1466.616, 603.6160
1468.544, 575.4449
1470.473, 554.4586
1472.401, 539.3398
1474.330, 528.9306
1476.258, 522.0004
1478.187, 518.6052
1480.115, 516.4852
1482.043, 514.2057
1483.972, 514.5732
1485.900, 518.7783
1487.829, 522.0469
1489.757, 524.3641
1491.686, 532.2462
1493.614, 543.2542
1495.543, 550.8023
1497.471, 556.3719
1499.400, 560.0481
1501.328, 565.3787
1503.257, 575.8226
1505.185, 583.1531
1507.114, 584.4750
1509.042, 586.7521
1510.970, 590.8890
1512.899, 595.7581
1514.827, 600.6742
1516.756, 602.1273
1518.684, 603.0500
1520.613, 606.6185
1522.541, 613.6847
1524.470, 625.6350
1526.398, 639.4849
1528.327, 652.8969
1530.255, 675.5140
1532.184, 708.4247
1534.112, 744.5143
1536.041, 784.9294
1537.969, 834.6563
1539.897, 893.3076
1541.826, 962.6979
1543.754, 1037.507
1545.683, 1109.481
1547.611, 1194.132
1549.540, 1292.709
1551.468, 1412.883
1553.397, 1555.016
1555.325, 1722.735
1557.254, 1911.235
1559.182, 2122.634
1561.111, 2324.280
1563.039, 2499.926
1564.968, 2615.112
1566.896, 2652.055
1568.824, 2618.385
1570.753, 2494.800
1572.681, 2342.993
1574.610, 2163.485
1576.538, 1991.079
1578.467, 1831.695
1580.395, 1693.865
1582.324, 1586.430
1584.252, 1514.327
1586.181, 1477.738
1588.109, 1477.985
1590.038, 1509.748
1591.966, 1573.852
1593.895, 1665.681
1595.823, 1784.966
1597.751, 1927.486
1599.680, 2100.008
1601.608, 2309.060
1603.537, 2557.646
1605.465, 2849.738
1607.394, 3175.752
1609.322, 3536.996
1611.251, 3890.229
1613.179, 4217.412
1615.108, 4463.763
1617.036, 4604.459
1618.965, 4597.128
1620.893, 4468.844
1622.822, 4206.174
1624.750, 3898.228
1626.678, 3556.755
1628.607, 3226.835
1630.535, 2919.124
1632.464, 2657.992
1634.392, 2444.721
1636.321, 2291.349
1638.249, 2172.396
1640.178, 2081.510
1642.106, 2002.411
1644.035, 1936.084
1645.963, 1849.993
1647.892, 1744.752
1649.820, 1630.906
1651.749, 1513.728
1653.677, 1395.399
1655.605, 1284.926
1657.534, 1186.842
1659.462, 1100.809
1661.391, 1026.492
1663.319, 963.3074
1665.248, 910.9964
1667.176, 870.4522
1669.105, 838.1772
1671.033, 810.9150
1672.962, 788.1824
1674.890, 770.2151
1676.819, 755.6612
1678.747, 744.5531
1680.676, 733.6210
1682.604, 722.8644
1684.532, 712.3688
1686.461, 702.4024
1688.389, 689.2546
1690.318, 676.5672
1692.246, 663.6140
1694.175, 648.0159
1696.103, 636.6208
1698.032, 621.5258
1699.960, 605.4386
1701.889, 593.6063
1703.817, 581.7388
1705.746, 567.5322
1707.674, 553.2194
1709.603, 539.1520
1711.531, 529.2938
1713.459, 522.3546
1715.388, 515.1098
1717.316, 507.5067
1719.245, 501.9456
1721.173, 496.3318
1723.102, 490.5749
1725.030, 486.9761
1726.959, 481.0160
1728.887, 476.4387
1730.816, 473.7974
1732.744, 474.2275
1734.673, 476.2268
1736.601, 480.1146
1738.530, 481.6120
1740.458, 480.7319
1742.386, 482.3927
1744.315, 485.9605
1746.243, 490.6154
1748.172, 495.1225
1750.100, 500.1443
1752.029, 505.5044
1753.957, 511.0425
1755.886, 517.6238
1757.814, 523.4864
1759.743, 531.4956
1761.671, 541.4435
1763.600, 554.1865
1765.528, 566.8009
1767.457, 578.4926
1769.385, 590.4312
1771.313, 603.0474
1773.242, 617.8558
1775.170, 634.2886
1777.099, 651.2807
1779.027, 671.4707
1780.956, 696.2435
1782.884, 719.8095
1784.813, 750.3937
1786.741, 783.9562
1788.670, 819.4674
1790.598, 861.4195
1792.527, 905.9085
1794.455, 958.3085
1796.384, 1014.746
1798.312, 1077.144
1800.240, 1144.677
1802.169, 1216.173
1804.097, 1295.846
1806.026, 1375.199
1807.954, 1452.272
1809.883, 1532.172
1811.811, 1612.292
1813.740, 1687.379
1815.668, 1754.550
1817.597, 1813.683
1819.525, 1858.976
1821.454, 1889.325
1823.382, 1899.373
1825.311, 1890.559
1827.239, 1865.203
1829.167, 1825.667
1831.096, 1767.365
1833.024, 1709.404
1834.953, 1653.075
1836.881, 1587.168
1838.810, 1516.708
1840.738, 1449.004
1842.667, 1382.918
1844.595, 1318.918
1846.524, 1253.032
1848.452, 1185.875
1850.381, 1125.221
1852.309, 1067.834
1854.238, 1009.478
1856.166, 953.7956
1858.094, 901.8813
1860.023, 854.1145
1861.951, 809.9510
1863.880, 766.6772
1865.808, 726.6730
1867.737, 691.7711
1869.665, 659.8191
1871.594, 630.2791
1873.522, 606.1868
1875.451, 586.6014
1877.379, 571.3434
1879.308, 556.7626
1881.236, 541.1122
1883.165, 527.5963
1885.093, 516.3990
1887.021, 507.0874
1888.950, 499.0569
1890.878, 492.0219
1892.807, 484.9117
1894.735, 477.4008
1896.664, 470.8635
1898.592, 464.9701
1900.521, 458.7935
1902.449, 453.2236
1904.378, 448.4390
1906.306, 446.4367
1908.235, 446.3195
1910.163, 441.6974
1912.092, 434.3456
1914.020, 430.1760
1915.948, 417.1993
1917.877, 415.7719
1919.805, 408.2112
1921.734, 398.4536
1923.662, 395.6541
1925.591, 393.1035
1927.519, 387.3656
1929.448, 382.3472
1931.376, 378.4364
1933.305, 377.2150
1935.233, 375.3712
1937.162, 371.9050
1939.090, 364.8625
1941.019, 366.0020
1942.947, 364.3167
1944.875, 362.0501
1946.804, 363.4689
1948.732, 362.6916
1950.661, 356.3090
1952.589, 354.1627
1954.518, 354.5605
1956.446, 353.7297
1958.375, 352.3673
1960.303, 350.3846
1962.232, 349.6530
1964.160, 350.1160
1966.089, 352.0630
1968.017, 353.0049
1969.946, 350.7696
1971.874, 349.5625
1973.802, 349.9195
1975.731, 349.4074
1977.659, 348.1191
1979.588, 348.7911
1981.516, 348.5607
1983.445, 348.6917
1985.373, 349.0734
1987.302, 347.7729
1989.230, 347.3996
1991.159, 346.3876
1993.087, 344.2591
1995.016, 343.7969
1996.944, 343.9965
1998.873, 341.7981
2000.801, 340.9785
2002.729, 343.1720
2004.658, 343.2842
2006.586, 341.9864
2008.515, 341.9621
2010.443, 342.5820
2012.372, 343.8259
2014.300, 343.4110
2016.229, 342.4613
2018.157, 346.3253
2020.086, 349.7118
2022.014, 348.2294
2023.943, 347.4113
2025.871, 347.2019
2027.800, 345.2859
2029.728, 343.5176
2031.656, 343.0630
2033.585, 344.1174
2035.513, 346.1930
2037.442, 345.5430
2039.370, 344.2329
2041.299, 343.3887
2043.227, 343.8136
2045.156, 345.3106
2047.084, 346.1298
2049.013, 346.4259
2050.941, 348.3681
2052.870, 347.4180
2054.798, 351.2230
2056.727, 352.5057
2058.655, 352.8837
2060.583, 352.9006
2062.512, 355.5904
2064.440, 361.1704
2066.369, 368.9970
2068.297, 376.1623
2070.226, 379.5672
2072.154, 387.9122
2074.083, 401.7480
2076.011, 416.7398
2077.940, 432.6653
2079.868, 448.9974
2081.797, 466.6427
2083.725, 487.1682
2085.654, 516.2749
2087.582, 548.9293
2089.510, 581.7488
2091.439, 619.5866
2093.367, 660.6257
2095.296, 699.8719
2097.224, 733.6252
2099.153, 757.9612
2101.081, 787.7369
2103.010, 823.3589
2104.938, 861.3008
2106.867, 907.2377
2108.795, 966.2891
2110.724, 1018.918
2112.652, 1053.959
2114.581, 1058.446
2116.509, 1037.081
2118.438, 990.4393
2120.366, 927.0408
2122.294, 854.8386
2124.223, 780.7935
2126.151, 711.7361
2128.080, 649.0084
2130.008, 591.9575
2131.937, 542.0849
2133.865, 500.6559
2135.794, 464.0108
2137.722, 431.7252
2139.651, 407.0307
2141.579, 386.9061
2143.508, 369.3152
2145.436, 356.9603
2147.365, 348.2163
2149.293, 338.3430
2151.221, 330.3192
2153.150, 325.2999
2155.078, 320.1833
2157.007, 316.0249
2158.935, 313.0450
2160.864, 314.7010
2162.792, 309.2591
2164.721, 309.1907
2166.649, 309.6105
2168.578, 304.6380
2170.506, 300.6214
2172.435, 299.3813
2174.363, 307.2936
2176.292, 312.3593
2178.220, 307.1597
2180.148, 303.8547
2182.077, 302.6217
2184.005, 302.7124
2185.934, 301.8312
2187.862, 299.4848
2189.791, 299.5225
2191.719, 300.9256
2193.648, 303.6632
2195.576, 303.8190
2197.505, 301.5734
2199.433, 299.0517
2201.362, 297.8382
2203.290, 299.3275
2205.219, 301.5796
2207.147, 304.0294
2209.075, 306.0197
2211.004, 306.7414
2212.932, 308.0276
2214.861, 307.4998
2216.789, 309.2600
2218.718, 309.3486
2220.646, 310.1021
2222.575, 312.1781
2224.503, 315.5408
2226.432, 323.5911
2228.360, 324.9012
2230.289, 330.4401
2232.217, 336.3983
2234.146, 336.9936
2236.074, 340.1158
2238.002, 346.7554
2239.931, 354.9371
2241.859, 363.2296
2243.788, 370.7700
2245.716, 381.8300
2247.645, 395.9364
2249.573, 411.8826
2251.502, 431.5009
2253.430, 455.2369
2255.359, 482.3737
2257.287, 514.4638
2259.216, 552.0715
2261.144, 595.3568
2263.073, 649.2605
2265.001, 720.2790
2266.929, 808.2206
2268.858, 911.8957
2270.786, 1029.138
2272.715, 1159.106
2274.643, 1305.385
2276.572, 1449.286
2278.500, 1600.456
2280.429, 1762.544
2282.357, 1966.329
2284.286, 2214.676
2286.214, 2530.568
2288.143, 2851.224
2290.071, 3165.363
2292.000, 3362.778
2293.928, 3410.745
2295.856, 3272.799
2297.785, 2999.029
2299.713, 2624.770
2301.642, 2236.551
2303.570, 1882.962
2305.499, 1586.238
2307.427, 1339.920
2309.356, 1133.302
2311.284, 956.0842
2313.213, 806.6340
2315.141, 684.8034
2317.070, 594.8080
2318.998, 527.1884
2320.927, 478.6173
2322.855, 445.1505
2324.783, 420.6385
2326.712, 401.6213
2328.640, 381.1845
2330.569, 362.1812
2332.497, 352.0719
2334.426, 343.1512
2336.354, 334.2408
2338.283, 326.8155
2340.211, 320.9305
2342.140, 316.6326
2344.068, 311.5017
2345.997, 306.7717
2347.925, 304.5490
2349.854, 300.6072
2351.782, 296.0732
2353.710, 294.2933
2355.639, 293.4521
2357.567, 292.9373
2359.496, 291.3004
2361.424, 288.7135
2363.353, 284.4345
2365.281, 282.7534
2367.210, 282.4337
2369.138, 282.1772
2371.067, 282.3928
2372.995, 282.8141
2374.924, 282.9435
2376.852, 282.2094
2378.781, 280.4080
2380.709, 276.3723
2382.637, 272.8540
2384.566, 271.1385
2386.494, 271.2577
2388.423, 272.4533
2390.351, 274.3507
2392.280, 274.3408
2394.208, 273.2752
2396.137, 273.2316
2398.065, 272.6178
2399.994, 271.3372
2401.922, 269.8834
2403.851, 269.4791
2405.779, 270.1859
2407.708, 268.1263
2409.636, 266.7651
2411.564, 268.4133
2413.493, 268.8067
2415.421, 268.7912
2417.350, 270.2539
2419.278, 269.2232
2421.207, 267.0677
2423.135, 267.2063
2425.064, 268.0617
2426.992, 268.6732
2428.921, 265.8859
2430.849, 263.9502
2432.778, 264.2001
2434.706, 265.1057
2436.635, 265.7194
2438.563, 265.4260
2440.491, 264.6859
2442.420, 264.0381
2444.348, 263.9441
2446.277, 263.4861
2448.205, 264.7372
2450.134, 263.5389
2452.062, 263.9577
2453.991, 264.9980
2455.919, 262.2445
2457.848, 260.4445
2459.776, 260.3473
2461.705, 260.2350
2463.633, 259.3116
2465.562, 257.6820
2467.490, 258.3066
2469.418, 257.6511
2471.347, 259.2789
2473.275, 258.3962
2475.204, 259.6277
2477.132, 261.4093
2479.061, 260.2085
2480.989, 258.4818
2482.918, 259.3266
2484.846, 260.7303
2486.775, 261.9188
2488.703, 262.1344
2490.632, 260.5652
2492.560, 258.3687
2494.489, 258.6126
2496.417, 259.0440
2498.345, 259.1894
2500.274, 258.8979
2502.202, 259.0809
2504.131, 259.7256
2506.059, 258.4471
2507.988, 259.1682
2509.916, 259.4451
2511.845, 261.8363
2513.773, 260.7691
2515.702, 263.4754
2517.630, 264.6997
2519.559, 264.5119
2521.487, 262.7186
2523.416, 260.1898
2525.344, 259.6896
2527.272, 259.2679
2529.201, 258.5187
2531.129, 258.0745
2533.058, 258.0351
2534.986, 256.8522
2536.915, 255.8042
2538.843, 254.8535
2540.772, 255.0811
2542.700, 256.2272
2544.629, 255.5420
2546.557, 257.7759
2548.486, 255.5958
2550.414, 255.2002
2552.343, 255.6056
2554.271, 256.0445
2556.199, 254.2810
2558.128, 255.0743
2560.056, 257.3018
2561.985, 255.4924
2563.913, 255.0870
2565.842, 255.9042
2567.770, 253.7965
2569.699, 253.8132
2571.627, 255.5509
2573.556, 253.9219
2575.484, 253.3952
2577.413, 254.0668
2579.341, 252.2756
2581.270, 249.6079
2583.198, 247.3152
2585.126, 250.9236
2587.055, 252.0444
2588.983, 249.5559
2590.912, 249.6049
2592.840, 249.9372
2594.769, 249.8469
2596.697, 248.3286
2598.626, 247.9826
2600.554, 249.3347
2602.483, 247.5061
2604.411, 251.5974
2606.340, 246.2684
2608.268, 245.3987
2610.197, 246.4102
2612.125, 248.5111
2614.053, 252.4966
2615.982, 253.7118
2617.910, 251.4951
2619.839, 248.4029
2621.767, 246.2261
2623.696, 245.6165
2625.624, 245.3672
2627.553, 248.2682
2629.481, 247.3562
2631.410, 249.1661
2633.338, 250.7298
2635.267, 251.0678
2637.195, 249.2159
2639.124, 246.8296
2641.052, 245.0698
2642.980, 246.1596
2644.909, 247.4380
2646.837, 248.1114
2648.766, 246.6953
2650.694, 248.7142
2652.623, 251.9597
2654.551, 250.8109
2656.480, 249.4873
2658.408, 248.4245
2660.337, 247.3764
2662.265, 247.3756
2664.194, 246.3686
2666.122, 240.9087
2668.051, 243.3743
2669.979, 246.4688
2671.907, 241.7039
2673.836, 243.0912
2675.764, 245.2716
2677.693, 243.2964
2679.621, 242.0889
2681.550, 241.5284
2683.478, 241.2649
2685.407, 240.9582
2687.335, 239.7471
2689.264, 237.6056
2691.192, 237.8786
2693.121, 238.3788
2695.049, 238.0391
2696.978, 235.4505
2698.906, 234.0893
2700.834, 234.5033
2702.763, 234.3677
2704.691, 236.4852
2706.620, 239.7277
2708.548, 240.2990
2710.477, 237.5999
2712.405, 233.8936
2714.334, 233.0489
2716.262, 233.5980
2718.191, 235.3301
2720.119, 234.0580
2722.048, 236.6217
2723.976, 232.5904
2725.905, 234.6392
2727.833, 233.5561
2729.761, 232.5296
2731.690, 233.6892
2733.618, 235.6682
2735.547, 235.0599
2737.475, 231.3857
2739.404, 234.4530
2741.332, 232.8315
2743.261, 226.8085
2745.189, 229.0950
2747.118, 229.7093
2749.046, 228.6225
2750.975, 229.1955
2752.903, 228.2868
2754.832, 226.7983
2756.760, 226.1309
2758.688, 222.2173
2760.617, 221.1599
2762.545, 221.1924
2764.474, 220.3831
2766.402, 222.8349
2768.331, 221.2963
2770.259, 223.2916
2772.188, 223.3495
2774.116, 221.6414
2776.045, 223.3551
2777.973, 222.8091
2779.902, 220.5810
2781.830, 218.5291
2783.759, 218.7383
2785.687, 219.7639
2787.615, 220.0403
2789.544, 221.8484
2791.472, 220.8967
2793.401, 221.0140
2795.329, 217.8420
2797.258, 219.0910
2799.186, 217.3791
2801.115, 214.8073
2803.043, 214.3272
2804.972, 216.0719
2806.900, 220.2508
2808.829, 216.9673
2810.757, 214.3716
2812.686, 218.5748
2814.614, 215.9864
2816.542, 213.8834
2818.471, 215.0686
2820.399, 214.6246
2822.328, 215.3369
2824.256, 215.9283
2826.185, 210.5119
2828.113, 210.1226
2830.042, 211.8390
2831.970, 211.5801
2833.899, 212.3464
2835.827, 212.8573
2837.756, 212.2614
2839.684, 208.4870
2841.613, 207.2565
2843.541, 208.5618
2845.469, 209.6836
2847.398, 206.6376
2849.326, 202.9711
2851.255, 203.6206
2853.183, 205.4858
2855.112, 205.9744
2857.040, 204.0425
2858.969, 203.5595
2860.897, 204.1599
2862.826, 205.1530
2864.754, 205.5603
2866.683, 202.7225
2868.611, 200.0977
2870.540, 200.9390
2872.468, 199.6334
2874.396, 198.4724
2876.325, 198.4153
2878.253, 198.5847
2880.182, 196.4639
2882.110, 194.1782
2884.039, 195.8680
2885.967, 194.3158
2887.896, 194.2694
2889.824, 194.6991
2891.753, 194.2959
2893.681, 195.4623
2895.610, 196.2450
2897.538, 192.6394
2899.467, 194.2583
2901.395, 194.9900
2903.323, 187.6773
2905.252, 192.5411
2907.180, 194.6545
2909.109, 190.7512
2911.037, 192.0215
2912.966, 190.8319
2914.894, 188.6289
2916.823, 189.8313
2918.751, 186.4903
2920.680, 185.6046
2922.608, 189.8309
2924.537, 191.0237
2926.465, 190.1410
2928.394, 187.8552
2930.322, 184.4334
2932.250, 183.9757
2934.179, 184.8506
2936.107, 185.8150
2938.036, 186.4193
2939.964, 184.7105
2941.893, 182.3599
2943.821, 182.7317
2945.750, 180.1506
2947.678, 180.2807
2949.607, 179.8735
2951.535, 180.4933
2953.464, 179.2220
2955.392, 180.4051
2957.321, 179.2773
2959.249, 178.5742
2961.177, 178.0320
2963.106, 176.9812
2965.034, 176.2411
2966.963, 176.5612
2968.891, 174.0654
2970.820, 176.4143
2972.748, 174.7945
2974.677, 172.3521
2976.605, 171.1286
2978.534, 171.0538
2980.462, 173.5971
2982.391, 171.4272
2984.319, 173.3565
2986.248, 172.7509
2988.176, 172.2494
2990.104, 172.0172
2992.033, 169.2239
2993.961, 168.0998
2995.890, 168.2603
2997.818, 168.9233
2999.747, 167.9901
3001.675, 169.9462
3003.604, 167.4859
3005.532, 165.9816
3007.461, 166.5206
3009.389, 168.3644
3011.318, 170.1081
3013.246, 166.6199
3015.175, 165.0538
3017.103, 163.8271
3019.031, 160.4084
3020.960, 160.3016
3022.888, 160.0557
3024.817, 159.2328
3026.745, 161.4648
3028.674, 161.7253
3030.602, 162.6277
3032.531, 164.8731
3034.459, 160.0231
3036.388, 157.5656
3038.316, 157.2496
3040.245, 156.7039
3042.173, 157.1631
3044.102, 156.5928
3046.030, 154.6870
3047.958, 151.9406
3049.887, 150.1494
3051.815, 150.7916
3053.744, 153.5982
3055.672, 153.4162
3057.601, 150.0276
3059.529, 148.2396
3061.458, 151.4900
3063.386, 151.2977
3065.315, 150.7038
3067.243, 149.5148
3069.172, 146.0976
3071.100, 145.7358
3073.029, 147.2637
3074.957, 148.5736
3076.885, 144.9111
3078.814, 145.1465
3080.742, 144.5581
3082.671, 141.7440
3084.599, 145.3469
3086.528, 147.9573
3088.456, 147.7572
3090.385, 144.6310
3092.313, 142.4386
3094.242, 142.6594
3096.170, 142.8102
3098.099, 138.5911
3100.027, 137.3055
3101.956, 137.9358
3103.884, 139.5664
3105.813, 141.7345
3107.741, 142.2616
3109.669, 142.2823
3111.598, 142.8869
3113.526, 141.0222
3115.455, 138.4991
3117.383, 137.9237
3119.312, 135.4584
3121.240, 134.8884
3123.169, 131.5679
3125.097, 131.8815
3127.026, 130.1767
3128.954, 130.8072
3130.883, 130.5080
3132.811, 132.5899
3134.740, 133.2043
3136.668, 130.8254
3138.596, 129.9947
3140.525, 130.5853
3142.453, 131.2962
3144.382, 131.8493
3146.310, 129.0480
3148.239, 126.7656
3150.167, 130.9680
3152.096, 124.5358
3154.024, 123.8098
3155.953, 127.3694
3157.881, 125.9872
3159.810, 127.7481
3161.738, 128.7431
3163.667, 127.7145
3165.595, 124.4024
3167.523, 123.2820
3169.452, 122.7990
3171.380, 123.1725
3173.309, 125.6885
3175.237, 126.7959
3177.166, 124.8447
3179.094, 122.2267
3181.023, 123.4683
3182.951, 121.1058
3184.880, 124.0171
3186.808, 119.3285
3188.737, 120.9231
3190.665, 121.2727
3192.594, 121.1656
3194.522, 120.6747
3196.450, 119.1970
3198.379, 119.1519
3200.307, 121.1678
3202.236, 123.7484
3204.164, 124.6089
3206.093, 123.1017
3208.021, 124.8168
3209.950, 126.3531
3211.878, 121.1020
3213.807, 117.3507
3215.735, 117.5664
3217.664, 120.5231
3219.592, 124.3028
3221.521, 129.4514
3223.449, 130.4834
3225.377, 132.9611
3227.306, 142.4160
3229.234, 149.1085
3231.163, 152.9198
3233.091, 156.4633
3235.020, 160.8207
3236.948, 160.4846
3238.877, 157.7217
3240.805, 152.9773
3242.734, 146.2162
3244.662, 135.5159
3246.591, 134.5719
3248.519, 129.2713
3250.448, 119.1626
3252.376, 121.8292
3254.304, 121.5583
3256.233, 115.4507
3258.161, 106.5145
3260.090, 100.3285
3262.018, 99.62583
3263.947, 100.5058
3265.875, 101.8554
3267.804, 103.7134
3269.732, 99.09179
3271.661, 97.00395
3273.589, 97.20845
3275.518, 97.94967
3277.446, 99.86572
3279.375, 99.67415
3281.303, 98.28344
3283.231, 96.82730
3285.160, 96.04407
3287.088, 98.14616
3289.017, 102.9574
3290.945, 105.9769
3292.874, 101.1679
3294.802, 99.47716
3296.731, 103.0601
3298.659, 105.1277
3300.588, 101.2289
3302.516, 107.7741
3304.445, 107.3161
3306.373, 102.4181
3308.302, 98.26540
3310.230, 101.8231
3312.158, 93.96059
3314.087, 93.82726
3316.015, 98.49414
3317.944, 92.26327
3319.872, 92.04591
3321.801, 96.05319
3323.729, 97.56652
3325.658, 93.02151
3327.586, 92.68596
3329.515, 95.15906
3331.443, 94.15182
3333.372, 89.59604
3335.300, 87.54607
3337.229, 89.63435
3339.157, 91.02420
3341.085, 90.41677
3343.014, 93.62327
3344.942, 92.94911
3346.871, 98.92368
3348.799, 98.79330
3350.728, 102.0196
3352.656, 103.3234
3354.585, 103.1516
3356.513, 104.5188
3358.442, 102.3950
3360.370, 102.3491
3362.299, 106.9988
3364.227, 112.0696
3366.156, 115.9200
3368.084, 118.7339
3370.012, 121.3727
3371.941, 130.4026
3373.869, 138.6247
3375.798, 148.1024
3377.726, 161.4882
3379.655, 174.6574
3381.583, 189.1065
3383.512, 208.4164
3385.440, 226.1320
3387.369, 249.1014
3389.297, 263.7279
3391.226, 273.5593
3393.154, 274.0436
3395.083, 263.8463
3397.011, 250.1882
3398.939, 237.9841
3400.868, 226.0998
3402.796, 216.1896
3404.725, 210.3739
3406.653, 207.6298
3408.582, 207.6966
3410.510, 213.2529
3412.439, 221.2676
3414.367, 224.7899
3416.296, 221.2203
3418.224, 207.7604
3420.153, 192.9285
3422.081, 179.6141
3424.010, 158.7084
3425.938, 146.9086
3427.866, 144.2066
3429.795, 145.7110
3431.723, 146.3423
3433.652, 140.7341
3435.580, 136.9360
3437.509, 136.2964
3439.437, 136.4456
3441.366, 134.8446
3443.294, 132.7254
3445.223, 125.4702
3447.151, 119.9865
3449.080, 116.0608
3451.008, 109.4006
3452.937, 103.1881
3454.865, 105.1707
3456.793, 103.9066
3458.722, 99.40353
##END=



