##NAMES=Grunerite
##RRUFFID=R040150
##IDEAL CHEMISTRY=[box]Fe^2+^_2_Fe^2+^_5_Si_8_O_22_(OH)_2_
##LOCALITY=Smallwood mine, Heath Lake, Newfoundland, Canada
##OWNER=RRUFF
##SOURCE=University of Arizona Mineral Museum
##DESCRIPTION=Brown bladed crystals in parallel aggregate
##STATUS=The identification of this mineral has been confirmed by X-ray diffraction and chemical analysis
##URL=https://www.rruff.net/odr/rruff_sample/R040150
##MEASURED CHEMISTRY=(Fe_0.69_Mg_0.27_Ca_0.02_Mn_0.02_)_7_Si_8.02_O_22_((OH)_0.98_Cl_0.02_)_2_
##DIFFRACTION SAMPLE DESCRIPTION=Powder
##CELL PARAMETERS=a: 9.5556 b: 18.293 c: 5.3293 alpha: 90 beta: 102.024 gamma: 90 volume: 911.18 crystal system: monoclinic
##FILETYPE=Raman Processed
##RAMAN WAVELENGTH=785

187.8989, 27124.57
189.8274, 27265.81
191.7559, 27371.61
193.6843, 27526.09
195.6128, 27709.11
197.5413, 27789.41
199.4697, 27754.99
201.3982, 27697.13
203.3267, 27596.12
205.2551, 27513.58
207.1836, 27500.61
209.1121, 27495.17
211.0405, 27425.45
212.9690, 27313.10
214.8975, 27276.99
216.8259, 27318.98
218.7544, 27345.98
220.6829, 27345.43
222.6113, 27329.63
224.5398, 27285.27
226.4683, 27231.88
228.3967, 27189.32
230.3252, 27163.74
232.2537, 27155.52
234.1821, 27167.29
236.1106, 27193.19
238.0391, 27250.50
239.9675, 27272.84
241.8960, 27233.46
243.8245, 27171.79
245.7529, 27115.30
247.6814, 27058.52
249.6099, 26984.52
251.5383, 26885.47
253.4668, 26848.62
255.3953, 26977.32
257.3237, 27040.88
259.2522, 26915.26
261.1807, 26782.19
263.1091, 26817.23
265.0376, 26920.02
266.9661, 26908.66
268.8945, 26757.77
270.8230, 26685.80
272.7515, 26755.73
274.6799, 26792.20
276.6084, 26758.80
278.5369, 26723.88
280.4653, 26729.59
282.3938, 26741.87
284.3223, 26721.35
286.2507, 26668.86
288.1792, 26641.98
290.1077, 26654.05
292.0361, 26657.85
293.9646, 26649.82
295.8931, 26631.85
297.8215, 26604.86
299.7500, 26576.95
301.6785, 26540.89
303.6069, 26492.28
305.5354, 26469.46
307.4639, 26484.07
309.3923, 26440.85
311.3208, 26313.28
313.2493, 26226.83
315.1777, 26234.14
317.1062, 26246.81
319.0347, 26254.14
320.9631, 26253.42
322.8916, 26204.54
324.8201, 26122.78
326.7485, 26097.72
328.6770, 26125.65
330.6055, 26135.25
332.5340, 26119.54
334.4624, 26121.75
336.3909, 26136.71
338.3194, 26159.59
340.2478, 26211.74
342.1763, 26275.94
344.1048, 26308.48
346.0332, 26312.81
347.9617, 26327.58
349.8902, 26346.17
351.8186, 26337.58
353.7471, 26310.77
355.6756, 26267.11
357.6040, 26202.45
359.5325, 26122.10
361.4610, 26020.62
363.3894, 25914.70
365.3179, 25816.71
367.2464, 25721.96
369.1748, 25626.99
371.1033, 25512.62
373.0318, 25430.14
374.9602, 25408.07
376.8887, 25382.54
378.8172, 25317.26
380.7456, 25254.25
382.6741, 25228.09
384.6026, 25227.37
386.5310, 25232.29
388.4595, 25237.09
390.3880, 25227.51
392.3164, 25197.98
394.2449, 25167.05
396.1734, 25139.58
398.1018, 25110.28
400.0303, 25078.18
401.9588, 25037.21
403.8872, 24971.50
405.8157, 24913.97
407.7442, 24908.12
409.6726, 24918.69
411.6011, 24874.16
413.5296, 24788.79
415.4580, 24715.10
417.3865, 24659.33
419.3150, 24582.85
421.2434, 24472.81
423.1719, 24351.87
425.1004, 24218.37
427.0288, 24083.20
428.9573, 23935.22
430.8858, 23801.93
432.8142, 23733.89
434.7427, 23699.21
436.6712, 23628.25
438.5996, 23518.89
440.5281, 23405.21
442.4566, 23277.52
444.3850, 23171.41
446.3135, 23088.94
448.2420, 23027.72
450.1704, 23004.03
452.0989, 22982.42
454.0274, 22949.02
455.9558, 22897.14
457.8843, 22804.96
459.8128, 22686.08
461.7412, 22606.12
463.6697, 22573.04
465.5982, 22533.78
467.5266, 22483.03
469.4551, 22435.45
471.3836, 22397.79
473.3120, 22361.69
475.2405, 22324.00
477.1690, 22279.73
479.0974, 22216.31
481.0259, 22159.46
482.9544, 22146.39
484.8828, 22164.00
486.8113, 22161.60
488.7398, 22135.52
490.6682, 22108.97
492.5967, 22083.65
494.5252, 22056.16
496.4536, 22020.15
498.3821, 21995.47
500.3106, 21984.93
502.2390, 21995.84
504.1675, 22059.35
506.0960, 22108.27
508.0244, 22087.38
509.9529, 22046.07
511.8814, 22009.99
513.8098, 21967.96
515.7383, 21956.05
517.6667, 21971.15
519.5952, 21961.43
521.5237, 21917.61
523.4521, 21882.25
525.3806, 21866.11
527.3091, 21846.53
529.2375, 21838.08
531.1660, 21798.57
533.0945, 21692.47
535.0229, 21548.93
536.9514, 21403.58
538.8799, 21275.32
540.8083, 21162.46
542.7368, 21057.60
544.6653, 20946.28
546.5938, 20820.00
548.5222, 20694.64
550.4507, 20583.56
552.3792, 20504.43
554.3076, 20446.86
556.2361, 20371.89
558.1646, 20289.51
560.0930, 20209.80
562.0215, 20112.81
563.9500, 20019.38
565.8784, 19953.41
567.8069, 19893.43
569.7354, 19829.54
571.6638, 19751.67
573.5923, 19656.56
575.5208, 19573.41
577.4493, 19531.51
579.3777, 19510.11
581.3062, 19463.99
583.2347, 19398.14
585.1631, 19327.32
587.0916, 19254.22
589.0201, 19194.12
590.9485, 19141.89
592.8770, 19063.51
594.8055, 18962.42
596.7339, 18900.88
598.6624, 18903.20
600.5909, 18905.33
602.5193, 18860.84
604.4478, 18781.17
606.3763, 18697.42
608.3047, 18636.53
610.2332, 18603.08
612.1617, 18583.73
614.0901, 18564.27
616.0186, 18550.93
617.9471, 18539.50
619.8755, 18513.46
621.8040, 18488.79
623.7325, 18499.58
625.6609, 18529.29
627.5894, 18546.05
629.5179, 18542.89
631.4464, 18543.26
633.3748, 18614.56
635.3033, 18719.70
637.2318, 18782.26
639.1602, 18838.48
641.0887, 18938.14
643.0172, 19095.35
644.9456, 19278.57
646.8741, 19455.46
648.8026, 19635.20
650.7310, 19826.30
652.6595, 20013.80
654.5880, 20182.28
656.5164, 20352.87
658.4449, 20446.70
660.3734, 20416.43
662.3018, 20325.08
664.2303, 20183.07
666.1588, 19993.74
668.0872, 19781.89
670.0157, 19515.65
671.9442, 19186.59
673.8726, 18823.70
675.8011, 18490.58
677.7296, 18199.89
679.6580, 17943.42
681.5865, 17723.93
683.5150, 17526.75
685.4434, 17361.35
687.3719, 17229.30
689.3004, 17102.08
691.2288, 16967.57
693.1573, 16864.67
695.0858, 16805.16
697.0142, 16738.50
698.9427, 16649.80
700.8712, 16579.74
702.7996, 16497.41
704.7281, 16349.08
706.6566, 16224.59
708.5850, 16193.25
710.5135, 16156.00
712.4420, 16087.75
714.3704, 16055.13
716.2989, 16030.03
718.2274, 15946.23
720.1558, 15828.37
722.0843, 15768.92
724.0128, 15745.63
725.9412, 15692.33
727.8697, 15642.81
729.7982, 15620.84
731.7266, 15599.33
733.6551, 15559.99
735.5836, 15498.37
737.5120, 15424.12
739.4405, 15358.36
741.3690, 15315.58
743.2974, 15291.05
745.2259, 15273.51
747.1544, 15257.32
749.0828, 15232.70
751.0113, 15205.05
752.9398, 15168.17
754.8682, 15091.30
756.7967, 14995.64
758.7252, 14932.09
760.6536, 14889.12
762.5821, 14841.73
764.5106, 14792.38
766.4390, 14740.50
768.3675, 14687.59
770.2960, 14644.34
772.2244, 14615.56
774.1529, 14568.93
776.0814, 14491.68
778.0098, 14429.38
779.9383, 14404.39
781.8668, 14392.06
783.7952, 14356.36
785.7237, 14278.60
787.6522, 14187.84
789.5806, 14155.05
791.5091, 14170.77
793.4376, 14139.66
795.3660, 14076.46
797.2945, 14056.99
799.2230, 14045.90
801.1514, 13980.36
803.0799, 13888.01
805.0084, 13828.33
806.9368, 13800.94
808.8653, 13770.17
810.7938, 13722.14
812.7222, 13682.26
814.6507, 13667.88
816.5792, 13641.31
818.5076, 13585.13
820.4361, 13519.96
822.3646, 13446.50
824.2930, 13393.46
826.2215, 13386.93
828.1500, 13381.81
830.0784, 13352.68
832.0069, 13306.29
833.9354, 13228.36
835.8638, 13147.53
837.7923, 13121.57
839.7208, 13118.66
841.6492, 13056.37
843.5777, 12979.69
845.5062, 12965.06
847.4346, 12967.72
849.3631, 12957.95
851.2916, 12933.13
853.2200, 12873.01
855.1485, 12811.01
857.0770, 12795.01
859.0054, 12791.94
860.9339, 12751.83
862.8624, 12699.69
864.7908, 12656.09
866.7193, 12607.12
868.6478, 12581.20
870.5762, 12579.57
872.5047, 12520.02
874.4332, 12415.47
876.3616, 12382.06
878.2901, 12402.17
880.2186, 12397.10
882.1470, 12373.03
884.0755, 12336.24
886.0040, 12290.54
887.9324, 12257.69
889.8609, 12233.50
891.7894, 12196.30
893.7178, 12155.66
895.6463, 12151.28
897.5748, 12160.26
899.5032, 12103.83
901.4317, 12007.37
903.3602, 11976.08
905.2886, 11997.31
907.2171, 11973.02
909.1456, 11905.03
911.0740, 11855.05
913.0025, 11821.06
914.9310, 11790.21
916.8594, 11770.72
918.7879, 11759.99
920.7164, 11749.49
922.6448, 11695.53
924.5733, 11596.99
926.5018, 11534.94
928.4302, 11515.10
930.3587, 11492.41
932.2872, 11467.28
934.2156, 11427.71
936.1441, 11369.30
938.0726, 11320.44
940.0010, 11278.29
941.9295, 11254.41
943.8580, 11258.76
945.7864, 11246.67
947.7149, 11209.07
949.6434, 11187.86
951.5718, 11186.78
953.5003, 11190.34
955.4288, 11204.40
957.3572, 11199.83
959.2857, 11175.03
961.2142, 11130.03
963.1426, 11056.93
965.0711, 11006.40
966.9996, 10979.96
968.9280, 10955.90
970.8565, 10939.05
972.7850, 10908.22
974.7134, 10861.89
976.6419, 10821.43
978.5704, 10783.25
980.4988, 10742.48
982.4273, 10702.06
984.3558, 10669.27
986.2842, 10644.35
988.2127, 10604.17
990.1412, 10546.40
992.0696, 10543.01
993.9981, 10594.68
995.9266, 10593.24
997.8550, 10545.84
999.7835, 10526.33
1001.712, 10523.68
1003.640, 10524.18
1005.569, 10534.20
1007.497, 10542.22
1009.426, 10540.14
1011.354, 10536.77
1013.283, 10539.50
1015.211, 10515.66
1017.140, 10464.73
1019.068, 10433.47
1020.997, 10419.38
1022.925, 10403.60
1024.854, 10389.88
1026.782, 10360.44
1028.710, 10302.14
1030.639, 10222.42
1032.567, 10137.20
1034.496, 10057.81
1036.424, 9983.686
1038.353, 9916.520
1040.281, 9857.508
1042.210, 9810.149
1044.138, 9758.760
1046.067, 9678.223
1047.995, 9595.319
1049.924, 9533.577
1051.852, 9477.429
1053.781, 9448.222
1055.709, 9437.955
1057.637, 9390.546
1059.566, 9331.141
1061.494, 9323.627
1063.423, 9325.717
1065.351, 9278.479
1067.280, 9219.798
1069.208, 9169.142
1071.137, 9125.302
1073.065, 9116.041
1074.994, 9114.926
1076.922, 9100.162
1078.851, 9059.831
1080.779, 8957.380
1082.708, 8866.412
1084.636, 8860.963
1086.565, 8870.712
1088.493, 8831.552
1090.422, 8778.315
1092.350, 8754.293
1094.278, 8744.630
1096.207, 8724.560
1098.135, 8695.782
1100.064, 8655.914
1101.992, 8624.055
1103.921, 8630.870
1105.849, 8632.966
1107.778, 8594.139
1109.706, 8540.312
1111.635, 8507.154
1113.563, 8479.407
1115.492, 8418.851
1117.420, 8381.207
1119.349, 8388.608
1121.277, 8380.125
1123.205, 8351.824
1125.134, 8332.342
1127.062, 8328.884
1128.991, 8289.243
1130.919, 8210.133
1132.848, 8169.887
1134.776, 8156.860
1136.705, 8136.518
1138.633, 8121.731
1140.562, 8101.400
1142.490, 8072.546
1144.419, 8049.570
1146.347, 8020.826
1148.276, 7982.172
1150.204, 7947.650
1152.132, 7911.469
1154.061, 7883.546
1155.989, 7877.846
1157.918, 7856.650
1159.846, 7798.401
1161.775, 7760.526
1163.703, 7765.598
1165.632, 7770.518
1167.560, 7763.188
1169.489, 7746.635
1171.417, 7728.526
1173.346, 7698.527
1175.274, 7636.593
1177.203, 7582.955
1179.131, 7564.255
1181.059, 7549.537
1182.988, 7521.368
1184.916, 7503.063
1186.845, 7502.562
1188.773, 7489.779
1190.702, 7461.958
1192.630, 7437.071
1194.559, 7416.765
1196.487, 7392.479
1198.416, 7364.867
1200.344, 7353.360
1202.273, 7347.365
1204.201, 7317.563
1206.130, 7279.038
1208.058, 7246.392
1209.986, 7217.035
1211.915, 7191.323
1213.843, 7172.376
1215.772, 7159.257
1217.700, 7137.740
1219.629, 7120.533
1221.557, 7100.101
1223.486, 7051.139
1225.414, 7016.471
1227.343, 7016.509
1229.271, 6997.568
1231.200, 6952.902
1233.128, 6932.424
1235.057, 6932.833
1236.985, 6947.455
1238.913, 6961.084
1240.842, 6907.500
1242.770, 6837.149
1244.699, 6834.466
1246.627, 6836.851
1248.556, 6798.892
1250.484, 6774.323
1252.413, 6749.491
1254.341, 6712.879
1256.270, 6710.604
1258.198, 6705.705
1260.127, 6670.828
1262.055, 6638.284
1263.984, 6609.690
1265.912, 6601.543
1267.840, 6614.316
1269.769, 6614.432
1271.697, 6596.561
1273.626, 6546.471
1275.554, 6488.492
1277.483, 6472.459
1279.411, 6469.894
1281.340, 6458.352
1283.268, 6440.841
1285.197, 6405.906
1287.125, 6365.026
1289.054, 6331.474
1290.982, 6309.012
1292.911, 6294.643
1294.839, 6278.932
1296.767, 6258.591
1298.696, 6249.248
1300.624, 6259.922
1302.553, 6252.238
1304.481, 6224.146
1306.410, 6208.960
1308.338, 6203.609
1310.267, 6169.963
1312.195, 6125.506
1314.124, 6124.162
1316.052, 6134.021
1317.981, 6118.559
1319.909, 6087.089
1321.838, 6036.146
1323.766, 6001.590
1325.694, 6007.596
1327.623, 6003.857
1329.551, 5971.137
1331.480, 5955.915
1333.408, 5970.180
1335.337, 5945.942
1337.265, 5888.620
1339.194, 5856.621
1341.122, 5842.403
1343.051, 5826.305
1344.979, 5812.646
1346.908, 5811.344
1348.836, 5806.514
1350.765, 5789.587
1352.693, 5760.664
1354.621, 5711.501
1356.550, 5682.152
1358.478, 5686.751
1360.407, 5689.281
1362.335, 5683.631
1364.264, 5662.188
1366.192, 5631.081
1368.121, 5626.924
1370.049, 5631.345
1371.978, 5607.244
1373.906, 5565.848
1375.835, 5499.728
1377.763, 5453.420
1379.692, 5473.849
1381.620, 5465.330
1383.548, 5390.030
1385.477, 5359.518
1387.405, 5390.744
1389.334, 5409.102
1391.262, 5409.154
1393.191, 5388.387
1395.119, 5358.635
1397.048, 5349.940
1398.976, 5344.652
1400.905, 5323.661
1402.833, 5295.456
1404.762, 5259.915
1406.690, 5227.915
1408.619, 5198.949
1410.547, 5189.020
1412.475, 5200.650
1414.404, 5179.297
1416.332, 5134.661
1418.261, 5135.749
1420.189, 5157.290
1422.118, 5158.102
1424.046, 5141.580
1425.975, 5099.250
1427.903, 5060.450
1429.832, 5040.929
1431.760, 5025.077
1433.689, 5007.921
1435.617, 5005.760
1437.546, 5018.433
1439.474, 5021.218
1441.402, 5012.297
1443.331, 4978.094
1445.259, 4942.225
1447.188, 4933.241
1449.116, 4932.956
1451.045, 4935.657
1452.973, 4933.168
1454.902, 4916.032
1456.830, 4913.430
1458.759, 4932.579
1460.687, 4903.735
1462.616, 4841.707
1464.544, 4815.494
1466.473, 4801.438
1468.401, 4759.635
1470.329, 4728.069
1472.258, 4736.235
1474.186, 4748.566
1476.115, 4764.223
1478.043, 4741.750
1479.972, 4671.378
1481.900, 4659.685
1483.829, 4686.087
1485.757, 4668.921
1487.686, 4635.317
1489.614, 4619.113
1491.543, 4603.712
1493.471, 4574.659
1495.400, 4566.301
1497.328, 4594.482
1499.256, 4601.833
1501.185, 4583.986
1503.113, 4558.438
1505.042, 4528.128
1506.970, 4491.708
1508.899, 4466.773
1510.827, 4482.638
1512.756, 4494.843
1514.684, 4488.392
1516.613, 4472.896
1518.541, 4449.403
1520.470, 4441.613
1522.398, 4443.375
1524.327, 4415.797
1526.255, 4381.078
1528.183, 4370.768
1530.112, 4371.062
1532.040, 4382.505
1533.969, 4379.091
1535.897, 4354.395
1537.826, 4327.692
1539.754, 4300.603
1541.683, 4265.790
1543.611, 4233.454
1545.540, 4217.871
1547.468, 4221.786
1549.397, 4273.171
1551.325, 4291.365
1553.254, 4250.800
1555.182, 4214.660
1557.110, 4189.225
1559.039, 4175.634
1560.967, 4170.382
1562.896, 4169.049
1564.824, 4168.099
1566.753, 4175.481
1568.681, 4158.713
1570.610, 4093.826
1572.538, 4065.713
1574.467, 4075.867
1576.395, 4065.696
1578.324, 4046.504
1580.252, 4049.927
1582.181, 4051.208
1584.109, 4016.609
1586.037, 4001.344
1587.966, 4036.820
1589.894, 4048.414
1591.823, 4034.466
1593.751, 3994.995
1595.680, 3952.051
1597.608, 3952.670
1599.537, 3952.740
1601.465, 3913.381
1603.394, 3884.062
1605.322, 3880.519
1607.251, 3876.652
1609.179, 3872.582
1611.108, 3876.350
1613.036, 3871.528
1614.964, 3820.971
1616.893, 3787.635
1618.821, 3817.171
1620.750, 3825.940
1622.678, 3797.527
1624.607, 3772.818
1626.535, 3752.805
1628.464, 3745.980
1630.392, 3737.720
1632.321, 3712.480
1634.249, 3693.907
1636.178, 3694.565
1638.106, 3668.861
1640.035, 3619.599
1641.963, 3616.478
1643.891, 3632.487
1645.820, 3625.583
1647.748, 3614.884
1649.677, 3607.790
1651.605, 3609.267
1653.534, 3620.582
1655.462, 3569.063
1657.391, 3493.735
1659.319, 3515.067
1661.248, 3553.977
1663.176, 3554.079
1665.105, 3533.722
1667.033, 3494.667
1668.962, 3466.201
1670.890, 3453.009
1672.818, 3472.922
1674.747, 3497.110
1676.675, 3496.449
1678.604, 3476.233
1680.532, 3434.343
1682.461, 3401.169
1684.389, 3380.051
1686.318, 3375.259
1688.246, 3372.395
1690.175, 3343.457
1692.103, 3321.880
1694.032, 3325.714
1695.960, 3328.040
1697.889, 3326.327
1699.817, 3326.877
1701.745, 3322.111
1703.674, 3291.225
1705.602, 3263.209
1707.531, 3261.221
1709.459, 3247.939
1711.388, 3221.727
1713.316, 3227.049
1715.245, 3242.902
1717.173, 3220.232
1719.102, 3204.607
1721.030, 3249.058
1722.959, 3238.353
1724.887, 3161.620
1726.816, 3154.309
1728.744, 3177.799
1730.672, 3150.602
1732.601, 3126.284
1734.529, 3149.993
1736.458, 3149.008
1738.386, 3115.475
1740.315, 3100.752
1742.243, 3097.008
1744.172, 3095.815
1746.100, 3087.393
1748.029, 3066.312
1749.957, 3031.065
1751.886, 2983.681
1753.814, 3009.904
1755.743, 3056.136
1757.671, 3042.232
1759.599, 3018.406
1761.528, 3002.820
1763.456, 2991.773
1765.385, 2984.370
1767.313, 2979.978
1769.242, 2974.569
1771.170, 2966.194
1773.099, 2946.976
1775.027, 2910.939
1776.956, 2894.456
1778.884, 2893.765
1780.813, 2890.525
1782.741, 2886.462
1784.670, 2884.799
1786.598, 2874.863
1788.526, 2854.136
1790.455, 2848.469
1792.383, 2851.055
1794.312, 2850.492
1796.240, 2839.402
1798.169, 2810.217
1800.097, 2796.583
1802.026, 2799.809
1803.954, 2789.883
1805.883, 2777.598
1807.811, 2785.946
1809.740, 2776.489
1811.668, 2737.272
1813.597, 2713.401
1815.525, 2705.034
1817.453, 2702.180
1819.382, 2701.605
1821.310, 2705.679
1823.239, 2696.992
1825.167, 2675.512
1827.096, 2670.484
1829.024, 2669.285
1830.953, 2650.211
1832.881, 2632.654
1834.810, 2622.798
1836.738, 2623.577
1838.667, 2629.733
1840.595, 2630.293
1842.524, 2617.934
1844.452, 2570.918
1846.380, 2545.311
1848.309, 2548.605
1850.237, 2559.967
1852.166, 2567.041
1854.094, 2552.400
1856.023, 2539.995
1857.951, 2543.162
1859.880, 2520.882
1861.808, 2488.161
1863.737, 2489.595
1865.665, 2488.985
1867.594, 2459.395
1869.522, 2448.955
1871.451, 2457.963
1873.379, 2449.143
1875.307, 2435.005
1877.236, 2426.741
1879.164, 2420.647
1881.093, 2415.610
1883.021, 2421.036
1884.950, 2425.325
1886.878, 2400.617
1888.807, 2381.551
1890.735, 2385.024
1892.664, 2359.710
1894.592, 2320.484
1896.521, 2326.804
1898.449, 2329.485
1900.378, 2299.093
1902.306, 2291.493
1904.234, 2307.008
1906.163, 2312.757
1908.091, 2299.097
1910.020, 2248.563
1911.948, 2230.379
1913.877, 2253.858
1915.805, 2239.060
1917.734, 2211.035
1919.662, 2203.679
1921.591, 2200.200
1923.519, 2198.163
1925.448, 2183.882
1927.376, 2166.476
1929.305, 2167.162
1931.233, 2162.695
1933.161, 2144.722
1935.090, 2122.221
1937.018, 2104.298
1938.947, 2098.090
1940.875, 2100.655
1942.804, 2116.710
1944.732, 2123.987
1946.661, 2120.008
1948.589, 2117.537
1950.518, 2106.878
1952.446, 2072.184
1954.375, 2063.382
1956.303, 2072.782
1958.232, 2054.912
1960.160, 2032.255
1962.089, 2023.356
1964.017, 2010.742
1965.945, 1994.657
1967.874, 1991.912
1969.802, 1998.826
1971.731, 2015.845
1973.659, 2002.561
1975.588, 1969.708
1977.516, 1964.918
1979.445, 1969.270
1981.373, 1977.195
1983.302, 1966.222
1985.230, 1942.382
1987.159, 1937.576
1989.087, 1930.459
1991.016, 1903.513
1992.944, 1883.702
1994.872, 1872.664
1996.801, 1877.211
1998.729, 1875.222
2000.658, 1852.359
2002.586, 1835.589
2004.515, 1824.224
2006.443, 1828.185
2008.372, 1834.577
2010.300, 1834.087
2012.229, 1823.268
2014.157, 1808.012
2016.086, 1789.795
2018.014, 1782.886
2019.943, 1802.962
2021.871, 1786.685
2023.799, 1751.704
2025.728, 1765.473
2027.656, 1775.601
2029.585, 1765.459
2031.513, 1736.815
2033.442, 1706.592
2035.370, 1716.034
2037.299, 1712.550
2039.227, 1685.564
2041.156, 1689.272
2043.084, 1699.219
2045.013, 1684.745
2046.941, 1670.179
2048.869, 1657.679
2050.798, 1658.161
2052.726, 1661.447
2054.655, 1654.321
2056.583, 1632.460
2058.512, 1601.609
2060.440, 1607.152
2062.369, 1620.062
2064.297, 1610.683
2066.226, 1606.372
2068.154, 1605.788
2070.083, 1587.556
2072.011, 1576.746
2073.940, 1596.960
2075.868, 1595.416
2077.797, 1576.947
2079.725, 1565.839
2081.654, 1553.523
2083.582, 1534.688
2085.510, 1512.140
2087.439, 1495.622
2089.367, 1494.355
2091.296, 1510.977
2093.224, 1543.237
2095.153, 1513.152
2097.081, 1473.508
2099.010, 1468.504
2100.938, 1467.046
2102.867, 1464.227
2104.795, 1456.732
2106.724, 1446.445
2108.652, 1430.361
2110.581, 1432.411
2112.509, 1441.496
2114.438, 1434.571
2116.366, 1428.232
2118.294, 1426.754
2120.223, 1429.269
2122.151, 1420.040
2124.080, 1376.839
2126.008, 1380.721
2127.937, 1420.602
2129.865, 1403.956
2131.794, 1379.627
2133.722, 1368.443
2135.651, 1355.350
2137.579, 1345.660
2139.508, 1356.986
2141.436, 1360.606
2143.365, 1351.601
2145.293, 1348.855
2147.221, 1343.982
2149.150, 1330.683
2151.078, 1313.265
2153.007, 1294.618
2154.935, 1279.374
2156.864, 1271.475
2158.792, 1272.685
2160.721, 1269.193
2162.649, 1264.076
2164.578, 1263.655
2166.506, 1261.270
2168.435, 1255.874
2170.363, 1234.069
2172.292, 1228.818
2174.220, 1260.681
2176.148, 1247.065
2178.077, 1214.898
2180.005, 1210.290
2181.934, 1207.942
2183.862, 1205.256
2185.791, 1194.336
2187.719, 1187.202
2189.648, 1200.047
2191.576, 1207.335
2193.505, 1204.900
2195.433, 1188.088
2197.362, 1177.577
2199.290, 1173.026
2201.219, 1164.325
2203.147, 1155.865
2205.075, 1155.430
2207.004, 1143.363
2208.932, 1127.941
2210.861, 1116.984
2212.789, 1117.030
2214.718, 1130.242
2216.646, 1129.063
2218.575, 1121.282
2220.503, 1103.421
2222.432, 1099.328
2224.360, 1105.637
2226.289, 1101.905
2228.217, 1084.939
2230.146, 1061.607
2232.074, 1052.598
2234.002, 1048.444
2235.931, 1032.533
2237.859, 1042.239
2239.788, 1057.457
2241.716, 1037.599
2243.645, 1031.998
2245.573, 1033.789
2247.502, 1029.935
2249.430, 1030.251
2251.359, 1029.641
2253.287, 1010.865
2255.216, 998.4537
2257.144, 1022.138
2259.073, 1014.222
2261.001, 986.1221
2262.929, 998.5097
2264.858, 1005.380
2266.786, 996.7299
2268.715, 991.0375
2270.643, 974.8064
2272.572, 957.3985
2274.500, 956.9688
2276.429, 954.5609
2278.357, 946.7774
2280.286, 949.4838
2282.214, 945.7990
2284.143, 929.9290
2286.071, 918.4806
2288.000, 911.5566
2289.928, 912.5507
2291.856, 909.4351
2293.785, 905.6764
2295.713, 901.4207
2297.642, 898.8613
2299.570, 904.0659
2301.499, 887.7086
2303.427, 871.1993
2305.356, 889.9774
2307.284, 889.8643
2309.213, 866.6413
2311.141, 868.0208
2313.070, 878.8973
2314.998, 873.5690
2316.927, 868.2196
2318.855, 856.9716
2320.783, 835.9164
2322.712, 841.6355
2324.640, 847.8438
2326.569, 840.5870
2328.497, 829.3810
2330.426, 821.4708
2332.354, 840.5570
2334.283, 841.8055
2336.211, 822.9160
2338.140, 820.6323
2340.068, 814.5521
2341.997, 793.2440
2343.925, 789.5005
2345.854, 793.2770
2347.782, 792.4693
2349.710, 780.4361
2351.639, 758.9636
2353.567, 769.6382
2355.496, 780.0416
2357.424, 776.8935
2359.353, 763.5446
2361.281, 757.1564
2363.210, 759.1505
2365.138, 738.6426
2367.067, 727.3230
2368.995, 733.2048
2370.924, 729.0468
2372.852, 726.4269
2374.781, 717.2732
2376.709, 721.3035
2378.637, 733.8859
2380.566, 717.5848
2382.494, 715.8946
2384.423, 729.4120
2386.351, 721.8008
2388.280, 709.2427
2390.208, 713.4326
2392.137, 722.7468
2394.065, 716.9966
2395.994, 710.8615
2397.922, 696.2975
2399.851, 677.4838
2401.779, 666.1858
2403.708, 666.6523
2405.636, 667.7211
2407.564, 658.6180
2409.493, 660.9711
2411.421, 657.8060
2413.350, 640.3037
2415.278, 649.7073
2417.207, 656.3992
2419.135, 642.0074
2421.064, 639.4919
2422.992, 645.1760
2424.921, 637.7925
2426.849, 630.9980
2428.778, 629.9819
2430.706, 635.3159
2432.635, 639.6615
2434.563, 636.8218
2436.491, 634.2722
2438.420, 629.0513
2440.348, 619.3745
2442.277, 613.4059
2444.205, 603.0292
2446.134, 598.1699
2448.062, 596.7829
2449.991, 591.1597
2451.919, 586.0854
2453.848, 592.0627
2455.776, 590.4275
2457.705, 575.6141
2459.633, 570.9096
2461.562, 568.8987
2463.490, 571.3222
2465.418, 574.2315
2467.347, 575.1130
2469.275, 572.4283
2471.204, 561.1006
2473.132, 549.7896
2475.061, 560.5526
2476.989, 559.3560
2478.918, 552.9328
2480.846, 556.9019
2482.775, 538.7149
2484.703, 516.9164
2486.632, 527.1945
2488.560, 540.4171
2490.489, 537.8939
2492.417, 513.0427
2494.345, 512.5787
2496.274, 522.3741
2498.202, 517.8323
2500.131, 513.8784
2502.059, 513.7404
2503.988, 519.1800
2505.916, 512.5223
2507.845, 494.9310
2509.773, 479.4181
2511.702, 483.0256
2513.630, 496.3302
2515.559, 486.6727
2517.487, 476.9575
2519.416, 471.5980
2521.344, 479.4548
2523.272, 487.4026
2525.201, 485.8617
2527.129, 467.2629
2529.058, 464.3208
2530.986, 465.8310
2532.915, 461.3055
2534.843, 464.2447
2536.772, 464.1786
2538.700, 464.8271
2540.629, 462.2108
2542.557, 455.6081
2544.486, 446.2986
2546.414, 443.9952
2548.343, 443.2152
2550.271, 430.3661
2552.199, 432.4931
2554.128, 439.5129
2556.056, 428.4427
2557.985, 422.2216
2559.913, 423.4101
2561.842, 425.9876
2563.770, 422.0465
2565.699, 415.8545
2567.627, 417.1106
2569.556, 413.5668
2571.484, 409.2370
2573.413, 409.8313
2575.341, 400.3637
2577.270, 391.6966
2579.198, 399.3311
2581.126, 398.4578
2583.055, 394.5750
2584.983, 393.8185
2586.912, 389.9107
2588.840, 389.0040
2590.769, 396.0708
2592.697, 397.0540
2594.626, 389.6768
2596.554, 372.7919
2598.483, 373.2123
2600.411, 373.0409
2602.340, 360.9461
2604.268, 366.1262
2606.197, 369.2230
2608.125, 360.3430
2610.053, 352.9091
2611.982, 350.7455
2613.910, 355.4294
2615.839, 365.2497
2617.767, 366.5970
2619.696, 358.1502
2621.624, 353.1529
2623.553, 350.0525
2625.481, 349.4899
2627.410, 345.3141
2629.338, 338.9166
2631.267, 334.9647
2633.195, 338.2234
2635.124, 334.9249
2637.052, 329.3094
2638.980, 329.2266
2640.909, 330.2727
2642.837, 329.8118
2644.766, 312.7816
2646.694, 311.6809
2648.623, 315.7771
2650.551, 306.8886
2652.480, 303.6118
2654.408, 302.6289
2656.337, 301.9313
2658.265, 303.5970
2660.194, 308.3687
2662.122, 312.4192
2664.051, 297.5378
2665.979, 292.5528
2667.907, 304.9445
2669.836, 306.8290
2671.764, 297.9670
2673.693, 288.8286
2675.621, 289.0969
2677.550, 287.6411
2679.478, 285.6560
2681.407, 280.4254
2683.335, 279.6080
2685.264, 279.3372
2687.192, 275.8581
2689.121, 278.1610
2691.049, 280.6412
2692.978, 281.5038
2694.906, 281.1158
2696.834, 280.0064
2698.763, 277.4238
2700.691, 271.9963
2702.620, 267.0901
2704.548, 261.8270
2706.477, 255.9810
2708.405, 256.2654
2710.334, 255.4834
2712.262, 253.4456
2714.191, 255.6394
2716.119, 256.2278
2718.048, 256.3543
2719.976, 248.4578
2721.905, 244.2684
2723.833, 245.1108
2725.761, 243.8046
2727.690, 240.6164
2729.618, 251.1897
2731.547, 246.2613
2733.475, 242.1204
2735.404, 240.5354
2737.332, 237.7334
2739.261, 234.9727
2741.189, 231.0237
2743.118, 233.5585
2745.046, 228.8856
2746.975, 222.5044
2748.903, 217.6894
2750.832, 224.3953
2752.760, 235.6623
2754.688, 230.4065
2756.617, 214.2454
2758.545, 208.7157
2760.474, 206.7139
2762.402, 197.5022
2764.331, 194.6519
2766.259, 199.2850
2768.188, 202.1312
2770.116, 204.5350
2772.045, 206.6690
2773.973, 204.5466
2775.902, 207.0736
2777.830, 204.0469
2779.759, 196.9861
2781.687, 194.0039
2783.615, 190.1578
2785.544, 197.4702
2787.472, 199.3873
2789.401, 191.6333
2791.329, 186.5400
2793.258, 190.3316
2795.186, 192.6393
2797.115, 181.2282
2799.043, 173.9538
2800.972, 185.2315
2802.900, 191.0270
2804.829, 189.9789
2806.757, 172.4542
2808.686, 173.3759
2810.614, 175.8038
2812.542, 173.3999
2814.471, 172.1874
2816.399, 167.2389
2818.328, 169.8537
2820.256, 176.7217
2822.185, 173.5976
2824.113, 164.0827
2826.042, 168.7016
2827.970, 173.1553
2829.899, 169.9100
2831.827, 160.4509
2833.756, 163.0555
2835.684, 159.6643
2837.613, 155.4353
2839.541, 156.3625
2841.469, 150.7045
2843.398, 146.5562
2845.326, 148.5180
2847.255, 153.8238
2849.183, 153.9397
2851.112, 150.1754
2853.040, 151.9898
2854.969, 154.0704
2856.897, 155.1996
2858.826, 145.2934
2860.754, 139.8750
2862.683, 141.8987
2864.611, 144.3746
2866.540, 142.6636
2868.468, 146.0675
2870.396, 152.0046
2872.325, 143.0525
2874.253, 130.2589
2876.182, 128.4468
2878.110, 132.2614
2880.039, 133.4770
2881.967, 132.0227
2883.896, 129.7070
2885.824, 130.6868
2887.753, 134.9697
2889.681, 142.4974
2891.610, 135.7761
2893.538, 126.0990
2895.467, 120.4781
2897.395, 116.0370
2899.323, 114.9127
2901.252, 119.1242
2903.180, 123.2462
2905.109, 118.4165
2907.037, 119.3270
2908.966, 122.6114
2910.894, 121.2781
2912.823, 119.8863
2914.751, 123.6206
2916.680, 124.3023
2918.608, 111.7592
2920.537, 108.7124
2922.465, 116.1711
2924.394, 116.5789
2926.322, 108.0377
2928.250, 111.1569
2930.179, 119.1798
2932.107, 109.5678
2934.036, 104.9077
2935.964, 108.2899
2937.893, 116.5710
2939.821, 106.6148
2941.750, 101.9962
2943.678, 101.9555
2945.607, 103.0209
2947.535, 104.2346
2949.464, 99.84688
2951.392, 94.18478
2953.321, 95.02676
2955.249, 95.22643
2957.177, 91.83231
2959.106, 92.54069
2961.034, 97.94175
2962.963, 101.8202
2964.891, 103.7166
2966.820, 88.73940
2968.748, 89.24731
2970.677, 95.65607
2972.605, 98.26591
2974.534, 89.15993
2976.462, 87.75625
2978.391, 91.27805
2980.319, 87.77332
2982.248, 87.39219
2984.176, 86.11229
2986.104, 83.59396
2988.033, 84.17181
2989.961, 86.82082
2991.890, 85.38787
2993.818, 76.43605
2995.747, 79.40648
2997.675, 83.71179
2999.604, 85.21767
3001.532, 82.81428
3003.461, 85.25515
3005.389, 81.30614
3007.318, 75.85413
3009.246, 86.01862
3011.175, 80.05575
3013.103, 77.63821
3015.031, 81.41528
3016.960, 77.91810
3018.888, 71.12396
3020.817, 68.73152
3022.745, 73.50066
3024.674, 76.19559
3026.602, 77.72546
3028.531, 76.06175
3030.459, 67.50898
3032.388, 73.25698
3034.316, 78.06390
3036.245, 79.19318
3038.173, 78.56724
3040.102, 70.25375
3042.030, 69.33930
3043.958, 75.18925
3045.887, 68.59914
3047.815, 64.28114
3049.744, 63.97036
3051.672, 66.08750
3053.601, 66.27337
3055.529, 61.07184
3057.458, 56.56622
3059.386, 57.26589
3061.315, 69.30403
3063.243, 64.37227
3065.172, 55.00225
3067.100, 60.21246
3069.029, 61.64310
3070.957, 60.77767
3072.885, 60.34871
3074.814, 64.28447
3076.742, 58.04398
3078.671, 54.15996
3080.599, 54.65399
3082.528, 56.46061
3084.456, 58.30577
3086.385, 61.58640
3088.313, 64.13379
3090.242, 59.93633
3092.170, 61.02654
3094.099, 57.57527
3096.027, 50.21889
3097.956, 51.29678
3099.884, 57.75701
3101.813, 61.65317
3103.741, 61.13559
3105.669, 59.57135
3107.598, 51.55187
3109.526, 48.96392
3111.455, 53.24091
3113.383, 48.95158
3115.312, 57.76245
3117.240, 62.58867
3119.169, 55.77089
3121.097, 52.40530
3123.026, 59.44846
3124.954, 62.28510
3126.883, 52.47878
3128.811, 44.06778
3130.740, 41.83044
3132.668, 42.67774
3134.596, 43.67371
3136.525, 42.96204
3138.453, 44.47755
3140.382, 45.76915
3142.310, 44.13514
3144.239, 42.66557
3146.167, 41.99192
3148.096, 39.47311
3150.024, 34.45773
3151.953, 43.05366
3153.881, 48.21578
3155.810, 48.90353
3157.738, 48.30369
3159.667, 49.21704
3161.595, 48.85681
3163.523, 49.78064
3165.452, 49.39867
3167.380, 44.78826
3169.309, 41.61259
3171.237, 44.28247
3173.166, 50.65779
3175.094, 50.45355
3177.023, 43.15881
3178.951, 37.63127
3180.880, 38.26925
3182.808, 45.01726
3184.737, 50.02890
3186.665, 46.75114
3188.594, 44.11499
3190.522, 48.68401
3192.450, 51.48943
3194.379, 44.72902
3196.307, 49.81980
3198.236, 55.95255
3200.164, 38.66009
3202.093, 46.05640
3204.021, 47.50225
3205.950, 38.81305
3207.878, 39.95597
3209.807, 41.26291
3211.735, 36.40879
3213.664, 33.14191
3215.592, 50.08654
3217.521, 39.29566
3219.449, 29.94674
3221.377, 33.19485
3223.306, 37.85233
3225.234, 42.25644
3227.163, 38.60842
3229.091, 33.27810
3231.020, 36.81032
3232.948, 33.81282
3234.877, 31.20882
3236.805, 37.60705
3238.734, 46.73630
3240.662, 45.89299
3242.591, 45.98894
3244.519, 47.41175
3246.448, 45.37956
3248.376, 35.90996
3250.304, 34.88060
3252.233, 40.56871
3254.161, 45.19489
3256.090, 43.13508
3258.018, 39.32926
3259.947, 35.51036
3261.875, 32.47294
3263.804, 31.18439
3265.732, 38.79310
3267.661, 42.00902
3269.589, 39.85723
3271.518, 35.76792
3273.446, 34.47448
3275.375, 40.09948
3277.303, 36.21104
3279.231, 31.29430
3281.160, 35.05954
3283.088, 30.68527
3285.017, 34.55260
3286.945, 38.80932
3288.874, 40.47876
3290.802, 48.68387
3292.731, 44.62674
3294.659, 30.50527
3296.588, 25.30950
3298.516, 37.45232
3300.445, 28.51744
3302.373, 28.86087
3304.302, 32.46957
3306.230, 32.45646
3308.158, 29.75794
3310.087, 36.08386
3312.015, 40.59932
3313.944, 35.49131
3315.872, 17.05877
3317.801, 27.75972
3319.729, 33.74261
3321.658, 35.76630
3323.586, 31.26793
3325.515, 25.68063
3327.443, 32.42343
3329.372, 35.26769
3331.300, 37.17620
3333.229, 38.97757
3335.157, 26.55770
3337.085, 30.70874
3339.014, 37.88620
3340.942, 37.17417
3342.871, 26.35607
3344.799, 31.06319
3346.728, 41.93178
3348.656, 41.72956
3350.585, 31.05521
3352.513, 25.82592
3354.442, 21.97985
3356.370, 25.42006
3358.299, 27.25298
3360.227, 22.53517
3362.156, 33.82819
3364.084, 39.03432
3366.012, 39.43285
3367.941, 36.10983
3369.869, 29.06257
3371.798, 32.01219
3373.726, 24.58720
3375.655, 19.75948
3377.583, 25.39598
3379.512, 36.14202
3381.440, 31.91632
3383.369, 30.79950
3385.297, 35.76258
3387.226, 36.96797
3389.154, 18.75258
3391.083, 19.49189
3393.011, 29.42696
3394.939, 30.49109
3396.868, 22.04172
3398.796, 33.28925
3400.725, 30.62102
3402.653, 38.55166
3404.582, 40.47708
3406.510, 25.10794
3408.439, 24.09524
3410.367, 35.11985
3412.296, 28.17527
3414.224, 18.71683
3416.153, 23.92423
3418.081, 28.46156
3420.010, 44.01468
3421.938, 34.00393
3423.866, 22.60828
3425.795, 35.24564
3427.723, 32.85250
3429.652, 15.61355
3431.580, 19.12851
3433.509, 29.26222
3435.437, 25.74534
3437.366, 22.16987
3439.294, 21.22779
3441.223, 36.95473
3443.151, 46.39802
3445.080, 34.68751
3447.008, 35.96618
3448.937, 29.45620
3450.865, 27.08782
3452.793, 26.30244
3454.722, 25.01694
3456.650, 32.99413
3458.579, 26.83167
3460.507, 28.87421
3462.436, 28.34895
3464.364, 20.60837
3466.293, 22.21554
3468.221, 24.54394
3470.150, 25.76637
3472.078, 30.45433
3474.007, 32.60450
3475.935, 18.95206
3477.864, 9.040455
3479.792, 20.65463
3481.720, 20.17361
3483.649, 13.05280
3485.577, 24.52759
3487.506, 25.45792
3489.434, 21.11744
3491.363, 24.25397
3493.291, 24.57001
3495.220, 15.61604
3497.148, 29.24487
3499.077, 27.87501
3501.005, 16.10314
3502.934, 16.03423
3504.862, 27.12031
3506.791, 15.88978
3508.719, 29.29428
3510.647, 28.30891
3512.576, 26.67928
3514.504, 26.48355
3516.433, 18.49816
3518.361, 30.74850
3520.290, 28.69639
3522.218, 32.46751
3524.147, 33.70359
3526.075, 25.43875
3528.004, 27.77685
3529.932, 24.99867
3531.861, 20.48250
3533.789, 19.51080
3535.718, 19.91071
3537.646, 16.01737
3539.574, 18.61895
3541.503, 18.19292
3543.431, 29.00427
3545.360, 33.02880
3547.288, 23.03959
3549.217, 24.88832
3551.145, 24.26846
3553.074, 19.02140
3555.002, 24.71246
3556.931, 30.87914
3558.859, 21.28192
3560.788, 17.49706
3562.716, 15.81998
3564.645, 17.49046
3566.573, 17.39449
3568.501, 17.99902
3570.430, 25.73630
3572.358, 21.35460
3574.287, 15.28092
3576.215, 24.92702
3578.144, 29.30358
3580.072, 18.88171
3582.001, 18.06397
3583.929, 28.51609
3585.858, 16.12013
3587.786, 20.14767
3589.715, 25.25794
3591.643, 13.27465
3593.572, 18.87391
3595.500, 29.59726
3597.428, 29.10992
3599.357, 24.47003
3601.285, 23.20547
3603.214, 26.21231
3605.142, 26.27230
3607.071, 27.35446
3608.999, 26.02884
3610.928, 23.20720
3612.856, 22.11798
3614.785, 23.31131
3616.713, 20.26786
3618.642, 29.53611
3620.570, 26.39879
3622.499, 15.35081
3624.427, 13.25099
3626.355, 22.52002
3628.284, 14.55569
3630.212, 22.19579
3632.141, 25.47616
3634.069, 15.23443
3635.998, 6.030084
3637.926, 9.713685
3639.855, 16.20440
3641.783, 18.51675
3643.712, 14.55233
3645.640, 7.770125
3647.569, 7.673011
3649.497, 15.79668
3651.426, 21.78756
3653.354, 15.52127
3655.282, 9.626051
3657.211, 5.704025
3659.139, 10.70673
3661.068, 18.86460
3662.996, 18.24497
3664.925, 14.32189
3666.853, 28.09221
3668.782, 25.69291
3670.710, 20.15427
3672.639, 18.97112
3674.567, 20.02261
3676.496, 24.78510
3678.424, 33.20631
3680.353, 18.55563
3682.281, 11.61153
3684.209, 17.47999
3686.138, 26.51904
3688.066, 29.63062
3689.995, 19.77655
3691.923, 19.50078
3693.852, 19.91572
3695.780, 25.33242
3697.709, 25.60482
3699.637, 13.53851
3701.566, 2.928219
3703.494, 21.95943
3705.423, 16.30077
3707.351, 10.07107
3709.280, 5.392769
3711.208, 3.531010
3713.136, 9.943492
3715.065, 19.07460
3716.993, 10.51265
3718.922, -1.285560
3720.850, 5.066340
3722.779, 12.41504
3724.707, 8.985794
3726.636, 5.140796
3728.564, 18.84954
3730.493, 15.41707
3732.421, 12.39108
3734.350, 6.547127
3736.278, 7.932288
3738.207, 18.33165
3740.135, 23.62322
3742.063, 1.233402
3743.992, 19.44267
3745.920, 12.78498
3747.849, 14.79464
3749.777, 13.43003
3751.706, 9.177566
3753.634, 19.24802
3755.563, 5.365327
3757.491, 5.867222
3759.420, 14.57718
3761.348, 20.24446
3763.277, 20.90952
3765.205, 18.99070
3767.134, 17.61695
3769.062, 20.04372
3770.990, 26.54005
3772.919, 16.57586
3774.847, 11.89543
3776.776, 19.78698
3778.704, 22.85086
3780.633, 14.59460
3782.561, 12.82228
3784.490, 14.41077
3786.418, 13.93067
3788.347, 20.18650
3790.275, 17.33946
3792.204, 8.844206
3794.132, 7.741774
3796.061, 16.44996
3797.989, 19.38529
3799.917, 20.19650
3801.846, 15.67942
3803.774, 13.91154
3805.703, 6.684388
3807.631, 1.366080
3809.560, 4.012065
3811.488, 9.364350
3813.417, 25.15467
3815.345, 22.97797
3817.274, 11.87905
3819.202, 16.56268
3821.131, 22.92896
3823.059, 18.69408
3824.988, 9.553293
3826.916, 7.980610
3828.844, 12.35781
3830.773, 11.97597
3832.701, 11.73320
3834.630, 17.93216
3836.558, 14.22664
3838.487, 14.07189
3840.415, 20.05591
3842.344, 10.85860
3844.272, 19.24683
3846.201, 16.01383
3848.129, 13.11723
3850.058, 14.79951
3851.986, 15.66096
3853.915, 13.62488
3855.843, 14.61061
3857.771, 20.42719
3859.700, 16.47374
3861.628, 12.15575
3863.557, 17.41481
3865.485, 5.899667
3867.414, 8.346478
3869.342, 13.96926
3871.271, 13.68075
3873.199, 14.69946
3875.128, 18.03411
3877.056, 11.42006
3878.985, 15.60270
3880.913, 12.86455
3882.842, 9.037334
3884.770, 3.071460
3886.698, 11.27430
3888.627, 16.54604
3890.555, 3.710200
3892.484, 14.39207
3894.412, 15.91310
3896.341, 18.31986
3898.269, 5.747593
3900.198, 3.508921
3902.126, 15.69457
3904.055, 11.12791
3905.983, 4.310903
3907.912, 17.29683
3909.840, 13.46594
3911.769, 15.18308
3913.697, 11.99465
3915.625, 8.538241
3917.554, 14.94811
3919.482, 17.27424
3921.411, 18.38495
3923.339, 21.33724
3925.268, 17.57291
3927.196, 5.780902
3929.125, 9.818952
3931.053, 9.560749
3932.982, 5.269411
3934.910, 8.222570
3936.839, 16.96486
3938.767, 18.91786
3940.696, 16.67889
3942.624, 17.88223
3944.552, 16.27677
3946.481, 1.260700
3948.409, 7.251655
3950.338, 13.44386
3952.266, 12.40152
3954.195, 22.27348
3956.123, 13.78240
3958.052, 4.311083
3959.980, -2.959889
3961.909, -0.4170701
3963.837, 11.57215
3965.766, 6.130037
3967.694, 4.070271
3969.623, 8.223434
3971.551, 11.65812
3973.479, 21.03350
3975.408, 11.09647
3977.336, 10.73931
3979.265, 5.960773
3981.193, 4.758320
3983.122, 18.68484
3985.050, 21.31421
3986.979, 1.047011
3988.907, 11.60170
3990.836, 5.818200
3992.764, 17.97393
3994.693, 24.30994
3996.621, 23.18493
3998.550, 12.28278
4000.478, 2.048064
4002.406, 8.582328
4004.335, 16.91361
4006.263, 11.32954
4008.192, 22.34723
4010.120, 21.55192
4012.049, 29.28425
4013.977, 14.79964
4015.906, 10.70078
4017.834, 10.90275
4019.763, 2.771050
4021.691, 3.779017
4023.620, -6.620018
4025.548, -9.356357
4027.477, 13.38443
4029.405, 18.28150
4031.333, 9.175468
4033.262, 11.87557
4035.190, -6.8121530E-02
4037.119, -4.786750
4039.047, -5.060291
4040.976, 4.238871
4042.904, 15.11274
4044.833, 13.95737
4046.761, 10.49336
4048.690, 10.41593
4050.618, 7.934721
4052.547, 6.330477
4054.475, 12.29009
4056.404, 9.513927
4058.332, 9.200481
4060.260, 11.44433
4062.189, 19.47964
4064.117, 9.709384
4066.046, 19.81830
4067.974, 18.81996
4069.903, 17.08650
4071.831, 15.07465
4073.760, 19.85426
4075.688, 25.52088
4077.617, 14.12269
4079.545, 4.974018
4081.474, 14.55625
4083.402, 0.1303705
4085.331, -4.1338559E-02
4087.259, -2.039534
4089.188, 8.050076
4091.116, 26.51680
4093.044, 15.92972
4094.973, -2.504804
4096.901, 8.973441
4098.830, -0.8811508
4100.758, -8.470069
4102.687, 1.442161
4104.615, -9.5216773E-02
4106.544, 6.226765
4108.472, 11.20688
4110.401, 5.385643
4112.329, 8.988689
4114.258, 13.59400
4116.186, 11.12888
4118.115, -9.931152
4120.043, 6.799084
4121.972, 14.93518
4123.900, 17.94742
4125.829, 14.58556
4127.757, 11.24366
4129.686, 9.106892
4131.614, 13.22362
4133.542, 17.18102
4135.471, 17.08679
4137.399, 25.62724
4139.328, 21.16915
4141.256, 6.969347
4143.185, 3.293576
4145.113, 4.929045
4147.042, 7.761844
4148.970, 12.79868
4150.898, 6.872221
4152.827, -2.411867
4154.755, 3.108834
4156.684, 13.11198
4158.612, 15.01296
4160.541, 13.85498
4162.469, 6.196617
4164.398, 6.711484
4166.326, 12.81844
4168.255, 5.772397
4170.183, -0.1812338
4172.112, 7.273376
4174.040, 6.635890
4175.969, 8.189015
4177.897, 4.617936
4179.826, 12.32428
4181.754, 12.45354
4183.683, 3.046683
4185.611, 6.191382
4187.540, 1.951870
4189.468, 2.005331
4191.396, 7.633463
4193.325, 10.00044
4195.253, 17.93134
4197.182, 22.66584
4199.110, 15.34053
4201.039, 17.73693
4202.967, 9.332185
4204.896, 6.551836
4206.824, 11.22137
4208.752, 12.76293
4210.681, 19.69083
4212.609, 13.67520
4214.538, 16.35935
4216.466, 6.763170
4218.395, 21.93554
4220.323, -5.226907
4222.252, 13.75873
4224.180, 7.856740
4226.109, 22.09953
4228.037, 7.784446
4229.966, 14.59243
4231.894, 7.791589
4233.823, 9.512779
4235.751, 5.876490
4237.680, 9.679955
4239.608, 9.985734
4241.537, 3.450834
4243.465, 14.18442
4245.394, 5.498856
4247.322, 7.757210
4249.250, 10.95470
4251.179, 11.28329
4253.107, 15.98143
4255.036, 3.553660
4256.964, -5.772784
4258.893, 10.05881
4260.821, 14.66077
4262.750, 10.84719
4264.678, 14.35531
4266.606, 4.301612
4268.535, 12.62579
4270.463, 9.699227
4272.392, 11.60585
4274.320, 19.42232
4276.249, 18.87740
4278.177, 20.62024
4280.106, 16.62433
4282.034, 15.62167
4283.963, 20.25059
4285.891, -1.196305
4287.820, 9.472324
4289.748, 13.60470
4291.677, 17.53109
4293.605, 27.67624
4295.534, -0.8027403
4297.462, 20.74526
4299.391, 12.96661
4301.319, -0.8863586
4303.248, 4.225266
4305.176, 16.44838
4307.104, 17.36897
4309.033, 1.557109
4310.961, 4.207720
4312.890, 3.942301
4314.818, 13.11274
4316.747, 2.510411
4318.675, 2.709654
4320.604, 9.644298
4322.532, 16.37608
4324.460, 3.054520
4326.389, 4.438360
4328.317, 8.897963
4330.246, 7.565632
4332.174, 3.740011
4334.103, 8.441833
4336.031, 13.21384
4337.960, 15.11314
4339.888, 8.230325
4341.817, 7.952734
4343.745, 13.68396
4345.674, 6.583168
4347.602, 17.68654
4349.531, 10.99760
4351.459, 2.153517
4353.388, 18.18039
4355.316, 21.83527
4357.245, 9.374378
4359.173, 2.207732
4361.102, 12.56427
4363.030, 9.136300
4364.958, 5.218402
4366.887, 7.630192
4368.815, 11.29157
4370.744, 15.24279
4372.672, 21.93473
4374.601, 2.080562
4376.529, -12.94413
4378.458, 2.562047
4380.386, 13.71085
4382.314, 8.674051
##END=



