##NAMES=Grunerite
##RRUFFID=R060062
##IDEAL CHEMISTRY=[box]Fe^2+^_2_Fe^2+^_5_Si_8_O_22_(OH)_2_
##LOCALITY=2C mine, Broken Hill, New South Wales, Australia
##OWNER=RRUFF
##SOURCE=University of Arizona Mineral Museum
##DESCRIPTION=Aggregate of greenish-brown colored parallel acicular crystals
##STATUS=The identification of this mineral has been confirmed by X-ray diffraction and chemical analysis
##URL=https://www.rruff.net/odr/rruff_sample/R060062
##MEASURED CHEMISTRY=[box](Fe^2+^_4.32_Mg_1.90_Mn_0.54_Ca_0.22_)(Si_7.98_Al_0.02_)O_22_(OH)_2_
##DIFFRACTION SAMPLE DESCRIPTION=Powder
##CELL PARAMETERS=a: 9.5681 b: 18.27 c: 5.324 alpha: 90 beta: 102.107 gamma: 90 volume: 910 crystal system: monoclinic
##FILETYPE=Raman RAW
##RAMAN WAVELENGTH=780

83.81882, 119.5968
85.74729, 122.2668
87.67576, 124.3590
89.60423, 125.8779
91.53269, 126.6492
93.46116, 123.5844
95.38963, 115.0525
97.31809, 107.8253
99.24656, 101.8719
101.1750, 96.79427
103.1035, 92.45490
105.0320, 88.72781
106.9604, 85.46920
108.8889, 82.82002
110.8174, 80.41386
112.7458, 78.99039
114.6743, 79.03066
116.6028, 79.92499
118.5312, 80.60446
120.4597, 81.06779
122.3882, 81.18176
124.3166, 80.47823
126.2451, 80.10508
128.1736, 80.64894
130.1020, 81.72069
132.0305, 82.41801
133.9590, 82.70964
135.8874, 84.13992
137.8159, 87.19310
139.7444, 91.01363
141.6728, 95.55426
143.6013, 100.4418
145.5298, 105.3381
147.4582, 110.2169
149.3867, 114.5855
151.3152, 118.5057
153.2436, 121.5730
155.1721, 123.6005
157.1006, 124.8540
159.0290, 125.3584
160.9575, 125.2694
162.8860, 125.2795
164.8144, 125.4322
166.7429, 125.7550
168.6713, 125.8191
170.5998, 126.4170
172.5283, 128.8111
174.4567, 132.1897
176.3852, 134.4431
178.3137, 135.3719
180.2421, 135.4014
182.1706, 134.4507
184.0991, 132.9263
186.0275, 131.3357
187.9560, 129.1096
189.8845, 125.1568
191.8129, 119.0415
193.7414, 113.6927
195.6699, 109.8912
197.5983, 106.1580
199.5268, 101.9398
201.4553, 97.71478
203.3837, 93.88835
205.3122, 90.47267
207.2407, 87.41069
209.1691, 84.70152
211.0976, 82.33883
213.0261, 80.54249
214.9545, 78.91769
216.8830, 77.20284
218.8115, 75.45248
220.7399, 73.84222
222.6684, 72.51384
224.5969, 70.99091
226.5253, 68.92507
228.4538, 67.14267
230.3823, 66.20830
232.3107, 65.64040
234.2392, 64.90625
236.1677, 63.97227
238.0961, 63.33865
240.0246, 63.11198
241.9531, 62.86846
243.8815, 62.46340
245.8100, 62.07259
247.7385, 61.78466
249.6669, 61.60392
251.5954, 61.52034
253.5239, 61.53777
255.4523, 61.52825
257.3808, 61.49135
259.3093, 61.46764
261.2377, 61.48127
263.1662, 61.46653
265.0947, 61.38025
267.0231, 61.23975
268.9516, 61.04478
270.8801, 60.70413
272.8085, 60.70227
274.7370, 61.38804
276.6655, 62.16375
278.5939, 62.80767
280.5224, 63.31503
282.4509, 63.67116
284.3793, 63.88042
286.3078, 63.97258
288.2363, 63.94565
290.1647, 63.80334
292.0932, 63.33899
294.0217, 62.98829
295.9501, 63.06712
297.8786, 63.41402
299.8071, 63.72892
301.7355, 64.00812
303.6640, 64.27203
305.5925, 64.55927
307.5209, 64.77971
309.4494, 64.77956
311.3779, 64.79305
313.3063, 65.03876
315.2348, 65.43147
317.1633, 65.81617
319.0917, 66.19836
321.0202, 66.60797
322.9487, 67.02269
324.8771, 67.50561
326.8056, 68.20049
328.7341, 68.83479
330.6625, 69.01155
332.5910, 69.06738
334.5195, 69.68733
336.4479, 70.96887
338.3764, 71.82011
340.3049, 71.76338
342.2333, 71.86583
344.1618, 72.53361
346.0903, 73.12271
348.0187, 73.13429
349.9472, 72.80863
351.8757, 72.50620
353.8041, 72.24953
355.7326, 71.90796
357.6611, 71.57156
359.5895, 70.99554
361.5180, 70.11348
363.4465, 69.07704
365.3749, 67.85282
367.3034, 66.48952
369.2319, 65.09602
371.1603, 63.67556
373.0888, 62.35390
375.0172, 60.99123
376.9457, 60.00895
378.8742, 59.69828
380.8026, 59.44460
382.7311, 58.70333
384.6596, 58.01738
386.5880, 58.12582
388.5165, 58.88740
390.4450, 59.08562
392.3734, 58.61688
394.3019, 58.02654
396.2304, 57.23259
398.1588, 56.57985
400.0873, 56.49569
402.0158, 56.32661
403.9442, 55.43034
405.8727, 54.15224
407.8012, 53.49453
409.7296, 53.50465
411.6581, 52.93360
413.5866, 51.61197
415.5150, 50.28254
417.4435, 49.14573
419.3720, 48.04090
421.3004, 46.89392
423.2289, 45.71745
425.1574, 44.56141
427.0858, 43.47953
429.0143, 42.45618
430.9428, 41.47054
432.8712, 40.59793
434.7997, 39.95676
436.7282, 39.20042
438.6566, 37.91380
440.5851, 36.84730
442.5136, 36.53595
444.4420, 36.65258
446.3705, 36.80344
448.2990, 36.92754
450.2274, 36.75817
452.1559, 36.22009
454.0844, 35.90260
456.0128, 36.13459
457.9413, 36.24952
459.8698, 35.85086
461.7982, 35.55224
463.7267, 35.92247
465.6552, 36.57255
467.5836, 36.92529
469.5121, 37.04679
471.4406, 37.19587
473.3690, 37.38627
475.2975, 37.60656
477.2260, 37.87534
479.1544, 38.13925
481.0829, 38.29678
483.0114, 38.57839
484.9398, 39.27078
486.8683, 40.01194
488.7968, 40.33024
490.7253, 40.33741
492.6537, 40.63726
494.5822, 41.41653
496.5107, 41.90432
498.4391, 41.85790
500.3676, 41.94672
502.2961, 42.38688
504.2245, 42.83410
506.1530, 43.15568
508.0815, 43.36480
510.0099, 43.38233
511.9384, 43.30282
513.8668, 43.51525
515.7953, 44.12639
517.7238, 44.19424
519.6522, 43.62558
521.5807, 42.89632
523.5092, 41.82970
525.4376, 41.06850
527.3661, 41.13988
529.2946, 41.25263
531.2230, 40.99605
533.1515, 40.50237
535.0800, 39.84145
537.0084, 38.99426
538.9369, 38.11756
540.8654, 37.20205
542.7938, 36.55033
544.7223, 36.24746
546.6508, 35.95813
548.5792, 35.53164
550.5077, 35.18613
552.4362, 35.13783
554.3646, 35.12738
556.2931, 34.88789
558.2216, 34.49549
560.1500, 34.08469
562.0785, 33.61903
564.0070, 33.26804
565.9354, 33.09577
567.8639, 32.92295
569.7924, 32.64142
571.7208, 32.44281
573.6493, 32.54028
575.5778, 32.63204
577.5062, 32.53386
579.4347, 32.36550
581.3632, 32.22713
583.2916, 32.13120
585.2201, 32.09694
587.1486, 32.14964
589.0770, 32.34406
591.0055, 32.67764
592.9340, 32.96639
594.8624, 33.10231
596.7909, 33.44558
598.7194, 34.26203
600.6478, 35.03531
602.5763, 35.45267
604.5048, 35.92732
606.4332, 36.66552
608.3617, 37.72062
610.2902, 39.07841
612.2186, 40.74778
614.1471, 42.84546
616.0756, 45.36872
618.0040, 48.30889
619.9325, 51.59888
621.8610, 55.63524
623.7894, 60.79693
625.7179, 66.11617
627.6464, 71.75520
629.5748, 77.04424
631.5033, 81.90800
633.4318, 86.21361
635.3602, 89.71712
637.2887, 92.79318
639.2172, 95.27318
641.1456, 97.82185
643.0741, 102.3935
645.0026, 108.9294
646.9310, 114.9560
648.8595, 120.5825
650.7880, 125.3682
652.7164, 129.6955
654.6449, 132.0979
656.5734, 132.3316
658.5018, 130.6192
660.4303, 126.5682
662.3588, 121.2650
664.2872, 115.2331
666.2157, 108.3630
668.1442, 100.1313
670.0726, 91.28346
672.0011, 82.96523
673.9296, 75.09554
675.8580, 67.67222
677.7865, 60.80741
679.7150, 55.04375
681.6434, 50.36248
683.5719, 46.83660
685.5004, 44.68813
687.4288, 42.85575
689.3573, 41.08994
691.2858, 39.60519
693.2142, 38.50427
695.1427, 37.64622
697.0712, 37.14651
698.9996, 36.66973
700.9281, 35.86550
702.8566, 35.02221
704.7850, 34.57889
706.7135, 34.38783
708.6420, 33.95797
710.5704, 33.36501
712.4989, 33.01363
714.4274, 32.92007
716.3558, 33.11285
718.2843, 33.68880
720.2128, 33.98175
722.1412, 33.78399
724.0697, 33.46951
725.9982, 32.96365
727.9266, 32.66877
729.8551, 32.71693
731.7836, 32.85747
733.7120, 33.02653
735.6405, 33.25727
737.5690, 33.62906
739.4974, 34.02786
741.4259, 34.34191
743.3544, 34.45217
745.2828, 34.17966
747.2113, 33.65607
749.1398, 33.18884
751.0682, 32.78552
752.9967, 32.76093
754.9252, 33.29596
756.8536, 33.44586
758.7821, 32.86087
760.7106, 32.52231
762.6390, 32.65619
764.5675, 32.68165
766.4960, 32.35972
768.4244, 32.12125
770.3529, 32.28051
772.2814, 32.40363
774.2098, 32.11565
776.1383, 31.74380
778.0668, 31.61137
779.9952, 31.57470
781.9237, 31.37278
783.8521, 31.11028
785.7806, 31.11180
787.7090, 31.33531
789.6375, 31.50936
791.5660, 31.56714
793.4944, 31.40152
795.4229, 31.03170
797.3514, 30.83626
799.2798, 30.85450
801.2083, 30.71778
803.1368, 30.31457
805.0652, 30.26617
806.9937, 30.78274
808.9222, 31.16456
810.8506, 31.24739
812.7791, 31.16292
814.7076, 30.85363
816.6360, 30.59025
818.5645, 30.41047
820.4930, 30.44033
822.4214, 30.91627
824.3499, 31.30316
826.2784, 31.15308
828.2068, 30.87774
830.1353, 30.99798
832.0638, 31.26220
833.9922, 31.13389
835.9207, 30.80022
837.8492, 30.73648
839.7776, 30.83273
841.7061, 30.86216
843.6346, 30.88511
845.5630, 30.83319
847.4915, 30.72475
849.4200, 30.88103
851.3484, 31.26888
853.2769, 31.27262
855.2054, 30.82977
857.1339, 30.65965
859.0623, 30.90484
860.9908, 30.97407
862.9193, 30.74246
864.8477, 30.50375
866.7762, 30.19020
868.7047, 30.06761
870.6331, 30.30711
872.5616, 30.42956
874.4901, 30.32128
876.4185, 30.20066
878.3470, 30.05025
880.2755, 29.96163
882.2039, 30.10607
884.1324, 30.18170
886.0609, 29.83862
887.9893, 29.65593
889.9178, 30.18384
891.8463, 30.69846
893.7747, 30.53995
895.7032, 30.19576
897.6317, 30.22812
899.5601, 30.36258
901.4886, 30.12061
903.4171, 29.74588
905.3455, 29.69921
907.2740, 29.82668
909.2025, 29.85862
911.1309, 29.72845
913.0594, 29.13823
914.9879, 28.32019
916.9163, 28.26347
918.8448, 28.80437
920.7733, 28.94176
922.7017, 28.73133
924.6302, 28.48375
926.5587, 28.17297
928.4871, 28.14485
930.4156, 28.41273
932.3441, 28.57206
934.2725, 28.62218
936.2010, 28.72277
938.1295, 28.84538
940.0579, 28.95571
941.9864, 29.09826
943.9149, 29.29284
945.8433, 29.48745
947.7718, 29.91152
949.7003, 30.69891
951.6287, 31.13601
953.5572, 30.99586
955.4857, 31.01022
957.4141, 31.34590
959.3426, 31.72762
961.2711, 32.11699
963.1995, 32.52688
965.1280, 33.08379
967.0565, 33.36435
968.9849, 33.08421
970.9134, 32.86656
972.8419, 32.94171
974.7703, 32.95816
976.6988, 32.76565
978.6273, 32.59905
980.5557, 32.41179
982.4842, 32.44355
984.4127, 32.90713
986.3411, 33.39901
988.2696, 33.79574
990.1981, 34.17474
992.1265, 34.43657
994.0550, 34.84900
995.9835, 35.64561
997.9119, 36.44753
999.8404, 37.07058
1001.769, 37.64269
1003.697, 38.20689
1005.626, 38.88653
1007.554, 39.74311
1009.483, 40.56911
1011.411, 41.33928
1013.340, 42.06193
1015.268, 42.89364
1017.197, 43.36973
1019.125, 43.07594
1021.054, 42.44386
1022.982, 41.86338
1024.910, 40.98893
1026.839, 39.40361
1028.767, 37.69041
1030.696, 36.22803
1032.624, 34.75173
1034.553, 32.95195
1036.481, 31.38153
1038.410, 30.50372
1040.338, 29.61932
1042.267, 28.23747
1044.195, 27.01565
1046.124, 26.31859
1048.052, 25.78557
1049.980, 25.35266
1051.909, 24.86452
1053.837, 24.10240
1055.766, 23.52296
1057.694, 23.44999
1059.623, 23.41210
1061.551, 23.16724
1063.480, 22.92163
1065.408, 22.77871
1067.337, 22.69278
1069.265, 22.60268
1071.194, 22.55827
1073.122, 22.68542
1075.051, 22.74068
1076.979, 22.54773
1078.907, 22.34719
1080.836, 22.27792
1082.764, 22.20128
1084.693, 22.04191
1086.621, 21.87258
1088.550, 21.66010
1090.478, 21.54335
1092.407, 21.70476
1094.335, 21.72336
1096.264, 21.40952
1098.192, 21.08818
1100.121, 20.74028
1102.049, 20.54829
1103.978, 20.67412
1105.906, 20.68885
1107.834, 20.52356
1109.763, 20.32391
1111.691, 20.08464
1113.620, 19.75489
1115.548, 19.25033
1117.477, 18.93568
1119.405, 18.88935
1121.334, 18.84497
1123.262, 18.82878
1125.191, 18.76179
1127.119, 18.62063
1129.048, 18.48851
1130.976, 18.36322
1132.905, 18.23129
1134.833, 18.09184
1136.761, 17.98449
1138.690, 17.91925
1140.618, 17.88372
1142.547, 17.84584
1144.475, 17.85231
1146.404, 17.93489
1148.332, 17.82766
1150.261, 17.53558
1152.189, 17.53816
1154.118, 17.76102
1156.046, 17.69026
1157.975, 17.46469
1159.903, 17.51223
1161.832, 17.65698
1163.760, 17.58291
1165.688, 17.45996
1167.617, 17.41026
1169.545, 17.32763
1171.474, 17.19448
1173.402, 17.11387
1175.331, 17.19227
1177.259, 17.26945
1179.188, 17.11573
1181.116, 16.98519
1183.045, 17.21279
1184.973, 17.38508
1186.902, 17.12698
1188.830, 16.92862
1190.759, 17.04994
1192.687, 17.16975
1194.615, 17.23704
1196.544, 17.23290
1198.472, 17.07670
1200.401, 16.95732
1202.329, 16.93760
1204.258, 16.95200
1206.186, 16.99712
1208.115, 17.04597
1210.043, 17.08200
1211.972, 16.93363
1213.900, 16.61495
1215.829, 16.55680
1217.757, 16.75352
1219.686, 16.90255
1221.614, 16.96165
1223.542, 16.87186
1225.471, 16.74926
1227.399, 16.81556
1229.328, 16.90784
1231.256, 16.76152
1233.185, 16.58012
1235.113, 16.78335
1237.042, 17.08828
1238.970, 16.95224
1240.899, 16.65018
1242.827, 16.53138
1244.756, 16.54447
1246.684, 16.61654
1248.613, 16.73978
1250.541, 16.91985
1252.469, 17.02910
1254.398, 17.06239
1256.326, 17.08404
1258.255, 17.14113
1260.183, 17.11199
1262.112, 16.87313
1264.040, 16.68327
1265.969, 16.58923
1267.897, 16.66285
1269.826, 16.97355
1271.754, 17.12513
1273.683, 17.06047
1275.611, 16.94500
1277.540, 16.82428
1279.468, 16.68171
1281.396, 16.54587
1283.325, 16.52930
1285.253, 16.57668
1287.182, 16.64517
1289.110, 16.75106
1291.039, 16.91794
1292.967, 16.96446
1294.896, 16.67403
1296.824, 16.50988
1298.753, 16.79112
1300.681, 16.85092
1302.610, 16.47572
1304.538, 16.31713
1306.467, 16.47571
1308.395, 16.61545
1310.323, 16.74344
1312.252, 16.92338
1314.180, 17.05338
1316.109, 16.99737
1318.037, 16.85155
1319.966, 16.59128
1321.894, 16.33036
1323.823, 16.55662
1325.751, 16.91424
1327.680, 16.70703
1329.608, 16.36092
1331.537, 16.46588
1333.465, 16.60682
1335.394, 16.40216
1337.322, 16.27867
1339.250, 16.49484
1341.179, 16.58054
1343.107, 16.23536
1345.036, 16.13140
1346.964, 16.55366
1348.893, 16.70496
1350.821, 16.48477
1352.750, 16.24949
1354.678, 16.06310
1356.607, 16.22719
1358.535, 16.54283
1360.464, 16.38523
1362.392, 16.07477
1364.321, 16.12268
1366.249, 16.26497
1368.177, 16.31343
1370.106, 16.27833
1372.034, 16.14977
1373.963, 16.17925
1375.891, 16.47713
1377.820, 16.52140
1379.748, 16.17090
1381.677, 16.11922
1383.605, 16.43235
1385.534, 16.26561
1387.462, 15.77165
1389.391, 15.81250
1391.319, 16.12911
1393.248, 16.23054
1395.176, 16.22519
1397.104, 16.06151
1399.033, 15.92208
1400.961, 16.12625
1402.890, 16.28277
1404.818, 16.17570
1406.747, 16.28115
1408.675, 16.70516
1410.604, 16.59280
1412.532, 15.94177
1414.461, 15.71312
1416.389, 15.87357
1418.318, 16.02457
1420.246, 16.08694
1422.175, 16.13496
1424.103, 16.28334
1426.031, 16.39317
1427.960, 16.39671
1429.888, 16.45476
1431.817, 16.46208
1433.745, 16.23791
1435.674, 16.13120
1437.602, 16.25381
1439.531, 16.41956
1441.459, 16.50682
1443.388, 16.23635
1445.316, 15.81301
1447.245, 15.73909
1449.173, 15.90415
1451.102, 16.17606
1453.030, 16.30573
1454.958, 16.10570
1456.887, 15.91119
1458.815, 15.84090
1460.744, 15.69306
1462.672, 15.37300
1464.601, 15.24489
1466.529, 15.35803
1468.458, 15.38334
1470.386, 15.29122
1472.315, 15.22700
1474.243, 15.24556
1476.172, 15.30887
1478.100, 15.38705
1480.029, 15.49909
1481.957, 15.55971
1483.885, 15.64811
1485.814, 15.63924
1487.742, 15.42296
1489.671, 15.36628
1491.599, 15.34874
1493.528, 15.25690
1495.456, 15.26676
1497.385, 15.14582
1499.313, 14.98021
1501.242, 15.04014
1503.170, 15.05309
1505.099, 15.04081
1507.027, 15.02230
1508.956, 14.79769
1510.884, 14.69877
1512.813, 14.85395
1514.741, 15.02406
1516.669, 15.18985
1518.598, 15.11080
1520.526, 14.83434
1522.455, 14.65200
1524.383, 14.64241
1526.312, 14.93564
1528.240, 15.10313
1530.169, 15.03809
1532.097, 14.96918
1534.026, 14.73256
1535.954, 14.64194
1537.883, 14.82624
1539.811, 14.88039
1541.740, 14.81726
1543.668, 14.88459
1545.596, 14.93515
1547.525, 14.69669
1549.453, 14.55027
1551.382, 14.69051
1553.310, 14.64854
1555.239, 14.39147
1557.167, 14.40970
1559.096, 14.71013
1561.024, 14.82223
1562.953, 14.76317
1564.881, 14.64926
1566.810, 14.48740
1568.738, 14.37107
1570.667, 14.32697
1572.595, 14.20362
1574.523, 14.24662
1576.452, 14.49938
1578.380, 14.74150
1580.309, 14.90652
1582.237, 14.64774
1584.166, 14.36268
1586.094, 14.44793
1588.023, 14.38803
1589.951, 14.09892
1591.880, 14.06697
1593.808, 14.22997
1595.737, 14.21566
1597.665, 14.09590
1599.594, 13.98371
1601.522, 13.93722
1603.450, 13.98786
1605.379, 13.93701
1607.307, 13.81260
1609.236, 13.84567
1611.164, 13.97000
1613.093, 14.06505
1615.021, 14.15738
1616.950, 13.92043
1618.878, 13.53963
1620.807, 13.48623
1622.735, 13.62802
1624.663, 13.84767
1626.592, 13.90921
1628.520, 13.77014
1630.449, 13.63159
1632.377, 13.63348
1634.306, 13.67747
1636.234, 13.61052
1638.163, 13.39553
1640.091, 13.26720
1642.020, 13.44660
1643.948, 13.49975
1645.877, 13.20678
1647.805, 13.12786
1649.734, 13.28862
1651.662, 13.30947
1653.590, 13.29972
1655.519, 13.41542
1657.447, 13.58896
1659.376, 13.74363
1661.304, 13.62465
1663.233, 13.22400
1665.161, 12.90515
1667.090, 12.81008
1669.018, 13.13007
1670.947, 13.43280
1672.875, 13.33911
1674.804, 13.20579
1676.732, 13.08587
1678.661, 12.96994
1680.589, 12.94944
1682.517, 12.99735
1684.446, 13.06750
1686.374, 12.94778
1688.303, 12.80322
1690.231, 12.77426
1692.160, 12.71492
1694.088, 12.69665
1696.017, 12.87928
1697.945, 13.15976
1699.874, 13.16245
1701.802, 13.04980
1703.731, 12.93527
1705.659, 12.79980
1707.588, 12.68576
1709.516, 12.65548
1711.444, 12.63737
1713.373, 12.58334
1715.301, 12.64093
1717.230, 12.66545
1719.158, 12.56189
1721.087, 12.51224
1723.015, 12.53933
1724.944, 12.60298
1726.872, 12.53176
1728.801, 12.32701
1730.729, 12.35891
1732.658, 12.49852
1734.586, 12.51885
1736.515, 12.46554
1738.443, 12.42599
1740.371, 12.41987
1742.300, 12.39469
1744.228, 12.38385
1746.157, 12.37032
1748.085, 12.29531
1750.014, 12.16934
1751.942, 11.85127
1753.871, 11.64408
1755.799, 11.86529
1757.728, 12.08374
1759.656, 12.15651
1761.585, 12.08878
1763.513, 11.93980
1765.442, 11.70114
1767.370, 11.57888
1769.298, 11.55754
1771.227, 11.65534
1773.155, 11.87010
1775.084, 11.81015
1777.012, 11.63988
1778.941, 11.74065
1780.869, 11.91591
1782.798, 11.82481
1784.726, 11.54821
1786.655, 11.40327
1788.583, 11.64394
1790.512, 11.87209
1792.440, 11.71846
1794.369, 11.44473
1796.297, 11.30778
1798.225, 11.46670
1800.154, 11.68562
1802.082, 11.57013
1804.011, 11.37710
1805.939, 11.48229
1807.868, 11.50598
1809.796, 11.32202
1811.725, 11.28265
1813.653, 11.36596
1815.582, 11.26199
1817.510, 11.07188
1819.439, 11.10616
1821.367, 11.12720
1823.296, 11.01095
1825.224, 10.91125
1827.152, 10.82815
1829.081, 10.74356
1831.009, 10.66333
1832.938, 10.82913
1834.866, 11.06843
1836.795, 11.04442
1838.723, 10.98840
1840.652, 11.00819
1842.580, 10.89885
1844.509, 10.78473
1846.437, 10.68750
1848.366, 10.59418
1850.294, 10.52168
1852.223, 10.46941
1854.151, 10.43656
1856.079, 10.49936
1858.008, 10.55561
1859.936, 10.55043
1861.865, 10.65040
1863.793, 10.74923
1865.722, 10.58755
1867.650, 10.55129
1869.579, 10.77188
1871.507, 10.75948
1873.436, 10.60661
1875.364, 10.59221
1877.293, 10.53969
1879.221, 10.33079
1881.150, 10.21528
1883.078, 10.36775
1885.006, 10.49844
1886.935, 10.51162
1888.863, 10.48867
1890.792, 10.31759
1892.720, 10.08237
1894.649, 10.00907
1896.577, 10.00634
1898.506, 9.927286
1900.434, 9.895395
1902.363, 9.995679
1904.291, 9.995934
1906.220, 9.839964
1908.148, 9.844482
1910.077, 9.863007
1912.005, 9.928615
1913.933, 9.978792
1915.862, 9.817407
1917.790, 9.884805
1919.719, 10.10495
1921.647, 10.05790
1923.576, 9.854367
1925.504, 9.799360
1927.433, 9.833396
1929.361, 9.798147
1931.290, 9.720156
1933.218, 9.602980
1935.147, 9.537556
1937.075, 9.599897
1939.004, 9.787761
1940.932, 9.697016
1942.860, 9.293067
1944.789, 9.307898
1946.717, 9.627958
1948.646, 9.683165
1950.574, 9.607332
1952.503, 9.519953
1954.431, 9.372930
1956.360, 9.399598
1958.288, 9.425951
1960.217, 9.408981
1962.145, 9.449344
1964.074, 9.385179
1966.002, 9.301632
1967.931, 9.229557
1969.859, 9.148957
1971.787, 9.053190
1973.716, 8.978842
1975.644, 8.865012
1977.573, 8.897934
1979.501, 8.969072
1981.430, 8.873936
1983.358, 8.922726
1985.287, 9.065466
1987.215, 8.900051
1989.144, 8.897658
1991.072, 9.238082
1993.001, 9.148890
1994.929, 8.710451
1996.858, 8.597651
1998.786, 8.670333
2000.714, 8.729685
2002.643, 8.805204
2004.571, 8.693537
2006.500, 8.599180
2008.428, 8.785385
2010.357, 8.920000
2012.285, 8.809538
2014.214, 8.752845
2016.142, 8.721582
2018.071, 8.573327
2019.999, 8.447260
2021.928, 8.491362
2023.856, 8.519883
2025.785, 8.417704
2027.713, 8.393210
2029.641, 8.458014
2031.570, 8.444109
2033.498, 8.467380
2035.427, 8.488933
2037.355, 8.273634
2039.284, 8.236269
2041.212, 8.434459
2043.141, 8.523841
2045.069, 8.501547
2046.998, 8.228722
2048.926, 7.961977
2050.854, 7.900958
2052.783, 7.914241
2054.711, 8.024309
2056.640, 8.233472
2058.568, 8.183989
2060.497, 8.045638
2062.425, 7.961298
2064.354, 7.907274
2066.282, 7.962925
2068.211, 7.981515
2070.139, 7.937476
2072.068, 7.955289
2073.996, 8.010988
2075.925, 7.989058
2077.853, 7.861128
2079.781, 7.740335
2081.710, 7.863402
2083.638, 7.908221
2085.567, 7.772269
2087.495, 7.826163
2089.424, 7.884054
2091.352, 7.750983
2093.281, 7.598137
2095.209, 7.432537
2097.138, 7.530466
2099.066, 7.754929
2100.995, 7.629646
2102.923, 7.480800
2104.852, 7.426017
2106.780, 7.481359
2108.708, 7.437846
2110.637, 7.258769
2112.565, 7.361516
2114.494, 7.554216
2116.422, 7.506898
2118.351, 7.428674
2120.279, 7.519298
2122.208, 7.426543
2124.136, 7.228200
2126.065, 7.245035
2127.993, 7.476823
2129.922, 7.616839
2131.850, 7.359296
2133.779, 7.099714
2135.707, 7.050046
2137.635, 7.226503
2139.564, 7.374573
2141.492, 7.215625
2143.421, 7.074933
2145.349, 6.995644
2147.278, 6.947466
2149.206, 6.999779
2151.135, 6.940151
2153.063, 6.962912
2154.992, 7.101915
2156.920, 7.105342
2158.849, 6.996632
2160.777, 6.929484
2162.706, 6.959074
2164.634, 6.841656
2166.563, 6.776112
2168.491, 6.879888
2170.419, 6.826329
2172.348, 6.750570
2174.276, 6.699018
2176.205, 6.928658
2178.133, 7.070490
2180.062, 6.907240
2181.990, 6.861182
2183.919, 6.850099
2185.847, 6.658117
2187.776, 6.569491
2189.704, 6.674225
2191.633, 6.677018
2193.561, 6.623267
2195.490, 6.694239
2197.418, 6.709108
2199.346, 6.618845
2201.275, 6.356105
2203.203, 6.218475
2205.132, 6.410795
2207.060, 6.507977
2208.989, 6.542432
2210.917, 6.508864
2212.846, 6.373060
2214.774, 6.157991
2216.703, 6.192982
2218.631, 6.367958
2220.560, 6.468817
2222.488, 6.519890
2224.417, 6.543778
2226.345, 6.445151
2228.273, 6.282458
2230.202, 6.190265
2232.130, 6.206001
2234.059, 6.281260
2235.987, 6.339732
2237.916, 6.256214
2239.844, 6.157725
2241.773, 6.188007
2243.701, 6.262496
2245.630, 6.309799
2247.558, 6.290371
2249.487, 6.117594
2251.415, 5.948991
2253.344, 5.885386
2255.272, 5.837139
2257.200, 5.891868
2259.129, 6.036409
2261.057, 5.980456
2262.986, 6.027035
2264.914, 6.075694
2266.843, 5.988799
2268.771, 6.000231
2270.700, 6.047990
2272.628, 5.747627
2274.557, 5.421428
2276.485, 5.677591
2278.414, 5.997804
2280.342, 6.075541
2282.271, 5.921873
2284.199, 5.786361
2286.127, 5.747916
2288.056, 5.821475
2289.984, 5.717335
2291.913, 5.525427
2293.841, 5.552835
2295.770, 5.735362
2297.698, 5.668152
2299.627, 5.585366
2301.555, 5.579676
2303.484, 5.576547
2305.412, 5.575967
2307.341, 5.484855
2309.269, 5.419449
2311.198, 5.466861
2313.126, 5.565936
2315.054, 5.627055
2316.983, 5.626613
2318.911, 5.487443
2320.840, 5.343863
2322.768, 5.449916
2324.697, 5.520653
2326.625, 5.568428
2328.554, 5.590495
2330.482, 5.447315
2332.411, 5.305280
2334.339, 5.364367
2336.268, 5.368676
2338.196, 5.313572
2340.125, 5.327025
2342.053, 5.223709
2343.981, 5.217576
2345.910, 5.228275
2347.838, 5.133536
2349.767, 5.192484
2351.695, 5.212554
2353.624, 5.126534
2355.552, 5.124528
2357.481, 5.187263
2359.409, 5.019600
2361.338, 5.001624
2363.266, 5.279058
2365.195, 5.311519
2367.123, 5.058307
2369.052, 4.820771
2370.980, 4.872392
2372.908, 5.001626
2374.837, 5.137805
2376.765, 5.104239
2378.694, 4.893760
2380.622, 4.761389
2382.551, 4.823174
2384.479, 4.946429
2386.408, 5.099236
2388.336, 5.090269
2390.265, 5.065015
2392.193, 4.883207
2394.122, 4.724106
2396.050, 4.753371
2397.979, 4.780137
2399.907, 4.800253
2401.835, 4.702352
2403.764, 4.683752
2405.692, 4.656313
2407.621, 4.644190
2409.549, 4.720578
2411.478, 4.704105
2413.406, 4.670522
2415.335, 4.731168
2417.263, 4.633270
2419.192, 4.581775
2421.120, 4.587272
2423.049, 4.495812
2424.977, 4.537248
2426.906, 4.495994
2428.834, 4.341362
2430.762, 4.366313
2432.691, 4.435490
2434.619, 4.600054
2436.548, 4.550726
2438.476, 4.414567
2440.405, 4.354601
2442.333, 4.288036
2444.262, 4.231692
2446.190, 4.415648
2448.119, 4.471247
2450.047, 4.373736
2451.976, 4.333757
2453.904, 4.250826
2455.833, 4.194448
2457.761, 4.312388
2459.689, 4.234319
2461.618, 4.053288
2463.546, 4.090506
2465.475, 4.249526
2467.403, 4.385434
2469.332, 4.353469
2471.260, 4.234116
2473.189, 4.140249
2475.117, 4.032029
2477.046, 3.989936
2478.974, 3.897201
2480.903, 3.961181
2482.831, 4.093517
2484.760, 3.996706
2486.688, 3.945518
2488.616, 4.027043
2490.545, 4.025033
2492.473, 3.983660
2494.402, 3.956712
2496.330, 4.048691
2498.259, 4.152717
2500.187, 3.935378
2502.116, 3.979550
2504.044, 4.089952
2505.973, 3.845563
2507.901, 3.851844
2509.830, 3.909652
2511.758, 3.758855
2513.687, 3.788387
2515.615, 3.905387
2517.543, 3.826715
2519.472, 3.896163
2521.400, 3.925256
2523.329, 3.819489
2525.257, 3.819368
2527.186, 3.826754
2529.114, 3.615448
2531.043, 3.490638
2532.971, 3.631491
2534.900, 3.818979
2536.828, 3.865024
2538.757, 3.794797
2540.685, 3.830643
2542.614, 3.788004
2544.542, 3.708250
2546.470, 3.634828
2548.399, 3.581535
2550.327, 3.688164
2552.256, 3.596099
2554.184, 3.533598
2556.113, 3.724937
2558.041, 3.648915
2559.970, 3.400515
2561.898, 3.262178
2563.827, 3.490821
2565.755, 3.749734
2567.684, 3.597064
2569.612, 3.544642
2571.541, 3.605099
2573.469, 3.516201
2575.397, 3.414576
2577.326, 3.388015
2579.254, 3.488591
2581.183, 3.570732
2583.111, 3.624397
2585.040, 3.712846
2586.968, 3.661042
2588.897, 3.464681
2590.825, 3.317666
2592.754, 3.316288
2594.682, 3.404578
2596.611, 3.379151
2598.539, 3.337922
2600.468, 3.345675
2602.396, 3.217337
2604.324, 3.098427
2606.253, 3.123168
2608.181, 3.254655
2610.110, 3.368165
2612.038, 3.415123
2613.967, 3.147770
2615.895, 3.160104
2617.824, 3.339400
2619.752, 3.096675
2621.681, 2.927896
2623.609, 3.009751
2625.538, 3.135110
2627.466, 3.194417
2629.395, 3.235353
2631.323, 3.256413
2633.251, 3.235143
2635.180, 3.233383
2637.108, 3.269934
2639.037, 3.211617
2640.965, 3.125069
2642.894, 3.122267
2644.822, 3.138424
2646.751, 3.129086
2648.679, 3.101746
2650.608, 3.081501
2652.536, 3.068441
2654.465, 2.961708
2656.393, 2.866785
2658.322, 2.800622
2660.250, 2.957974
2662.178, 2.880947
2664.107, 2.818879
2666.035, 2.893695
2667.964, 2.745278
2669.892, 2.620723
2671.821, 2.657214
2673.749, 2.618733
2675.678, 2.627365
2677.606, 2.807197
2679.535, 2.677193
2681.463, 2.613321
2683.392, 3.052866
2685.320, 2.897028
2687.249, 2.673831
2689.177, 2.749090
2691.105, 2.767751
2693.034, 2.712919
2694.962, 2.801483
2696.891, 2.707080
2698.819, 2.745372
2700.748, 2.684459
2702.676, 2.957669
2704.605, 3.103519
2706.533, 3.128870
2708.462, 2.672773
2710.390, 2.838365
2712.319, 2.754804
2714.247, 2.661039
2716.176, 2.914120
2718.104, 2.528056
2720.032, 2.775646
2721.961, 2.770284
2723.889, 2.880697
2725.818, 2.740418
2727.746, 2.677578
2729.675, 2.865489
2731.603, 2.914561
2733.532, 2.745428
2735.460, 2.863199
2737.389, 2.468369
2739.317, 2.523355
2741.246, 2.772401
2743.174, 2.615881
2745.103, 2.738227
2747.031, 2.754370
2748.959, 2.287829
2750.888, 2.660716
2752.816, 2.670583
2754.745, 2.307688
2756.673, 2.651821
2758.602, 2.340315
2760.530, 2.262838
2762.459, 2.361467
2764.387, 2.276512
2766.316, 2.481004
2768.244, 2.406651
2770.173, 2.307372
2772.101, 2.316832
2774.030, 2.229517
2775.958, 2.052904
2777.886, 2.002194
2779.815, 2.077413
2781.743, 2.190284
2783.672, 2.354246
2785.600, 2.415200
2787.529, 2.029893
2789.457, 2.008051
2791.386, 2.214344
2793.314, 2.375131
2795.243, 2.249272
2797.171, 2.188391
2799.100, 2.279899
2801.028, 2.140828
2802.957, 2.028645
2804.885, 2.059151
2806.813, 2.005847
2808.742, 1.992192
2810.670, 1.997469
2812.599, 1.985870
2814.527, 1.913674
2816.456, 1.859860
2818.384, 1.994054
2820.313, 2.100157
2822.241, 2.114583
2824.170, 2.018826
2826.098, 1.879805
2828.027, 1.711851
2829.955, 1.622054
2831.884, 1.671823
2833.812, 1.757922
2835.740, 1.866826
2837.669, 1.955708
2839.597, 1.882212
2841.526, 1.787446
2843.454, 1.731565
2845.383, 1.967493
2847.311, 2.006650
2849.240, 1.787055
2851.168, 1.696295
2853.097, 1.692872
2855.025, 1.743107
2856.954, 1.763090
2858.882, 1.659318
2860.811, 1.682088
2862.739, 1.833471
2864.667, 1.682436
2866.596, 1.595948
2868.524, 1.598877
2870.453, 1.617218
2872.381, 1.563082
2874.310, 1.541317
2876.238, 1.593578
2878.167, 1.562169
2880.095, 1.548375
2882.024, 1.555811
2883.952, 1.372568
2885.881, 1.332240
2887.809, 1.472018
2889.738, 1.598071
2891.666, 1.750505
2893.594, 1.827201
2895.523, 1.624379
2897.451, 1.609369
2899.380, 1.608552
2901.308, 1.500445
2903.237, 1.662078
2905.165, 1.721174
2907.094, 1.587366
2909.022, 1.292639
2910.951, 1.389769
2912.879, 1.509810
2914.808, 1.422748
2916.736, 1.564921
2918.665, 1.502837
2920.593, 1.128825
2922.521, 1.165531
2924.450, 1.268448
2926.378, 1.269709
2928.307, 1.482702
2930.235, 1.496311
2932.164, 1.419311
2934.092, 1.274419
2936.021, 1.385442
2937.949, 1.452232
2939.878, 1.382352
2941.806, 1.176107
2943.735, 1.197545
2945.663, 1.125869
2947.592, 0.8851200
2949.520, 1.124271
2951.448, 1.272669
2953.377, 1.337744
2955.305, 1.404147
2957.234, 1.246813
2959.162, 1.201519
2961.091, 1.321273
2963.019, 1.148642
2964.948, 1.198136
2966.876, 1.373583
2968.805, 1.316834
2970.733, 1.279872
2972.662, 1.327936
2974.590, 1.431996
2976.519, 1.297278
2978.447, 1.251023
2980.375, 1.192400
2982.304, 1.112188
2984.232, 1.143565
2986.161, 1.146340
2988.089, 1.174489
2990.018, 1.125875
2991.946, 1.156092
2993.875, 1.165209
2995.803, 1.090716
2997.732, 1.040866
2999.660, 1.078124
3001.589, 1.178157
3003.517, 1.251791
3005.446, 1.055433
3007.374, 1.038847
3009.302, 1.342067
3011.231, 1.088289
3013.159, 0.9635418
3015.088, 0.9236473
3017.016, 0.9060271
3018.945, 1.002676
3020.873, 1.056345
3022.802, 1.033923
3024.730, 1.082384
3026.659, 1.212837
3028.587, 1.272857
3030.516, 1.170308
3032.444, 1.166934
3034.373, 1.027147
3036.301, 0.8201726
3038.229, 0.9064587
3040.158, 0.9145204
3042.086, 0.9487842
3044.015, 1.045191
3045.943, 0.9086298
3047.872, 1.064453
3049.800, 1.241860
3051.729, 1.091257
3053.657, 0.8145860
3055.586, 1.003985
3057.514, 1.362253
3059.443, 0.9837035
3061.371, 0.9592684
3063.300, 0.9028387
3065.228, 0.7606697
3067.156, 0.9575652
3069.085, 1.047201
3071.013, 1.020482
3072.942, 0.8778136
3074.870, 0.8558319
3076.799, 0.8863667
3078.727, 0.9174587
3080.656, 0.7963735
3082.584, 0.6744254
3084.513, 0.7782730
3086.441, 0.9747916
3088.370, 0.7825935
3090.298, 0.7873182
3092.227, 0.9119679
3094.155, 1.030942
3096.083, 1.089149
3098.012, 0.8499609
3099.940, 0.6168413
3101.869, 0.6703968
3103.797, 0.6968707
3105.726, 0.7727752
3107.654, 0.8857654
3109.583, 0.9048902
3111.511, 0.8706009
3113.440, 0.8730289
3115.368, 0.9348027
3117.297, 1.443605
3119.225, 1.349444
3121.154, 0.8573967
3123.082, 0.9681923
3125.010, 1.049569
3126.939, 0.9559215
3128.867, 0.8231834
3130.796, 0.6412284
3132.724, 0.4212454
3134.653, 0.7316895
3136.581, 0.9475455
3138.510, 0.7904203
3140.438, 0.9700966
3142.367, 0.9050900
3144.295, 0.7691925
3146.224, 0.7833157
3148.152, 0.7760571
3150.081, 0.7489018
3152.009, 0.7619876
3153.938, 0.8109787
3155.866, 0.7836834
3157.794, 0.7745619
3159.723, 0.7567464
3161.651, 0.7181280
3163.580, 0.5738614
3165.508, 0.5768813
3167.437, 0.6792505
3169.365, 0.6647664
3171.294, 0.6839337
3173.222, 0.7855033
3175.151, 0.8279395
3177.079, 0.5673642
3179.008, 0.5001484
3180.936, 0.5807190
3182.865, 0.6977204
3184.793, 0.8260179
3186.721, 0.5477644
3188.650, 0.5997835
3190.578, 0.7660372
3192.507, 0.2954875
3194.435, 0.7431132
3196.364, 0.8443853
3198.292, 0.6009979
3200.221, 0.9425617
3202.149, 0.9941098
3204.078, 0.7152663
3206.006, 0.4143036
3207.935, 0.7553083
3209.863, 0.5520695
3211.792, 0.4446645
3213.720, 0.6384911
3215.648, 0.8959980
3217.577, 0.6936281
3219.505, 0.4399364
3221.434, 0.3955712
3223.362, 0.8347120
3225.291, 0.6267375
3227.219, 0.5835408
3229.148, 0.6529728
3231.076, 0.3889694
3233.005, 0.3369555
3234.933, 0.4942223
3236.862, 0.6550637
3238.790, 0.6957255
3240.719, 0.8848348
3242.647, 0.9320375
3244.575, 0.8214777
3246.504, 0.5436230
3248.432, 0.6877042
3250.361, 0.6944958
3252.289, 0.6115116
3254.218, 0.5546843
3256.146, 0.6336535
3258.074, 0.8329056
3260.003, 0.8919595
3261.931, 0.7240707
3263.860, 0.5507921
3265.788, 0.7126285
3267.717, 0.7504383
3269.645, 0.6548871
3271.574, 0.9579810
3273.502, 0.5195001
3275.431, 0.4393146
3277.359, 0.7406451
3279.288, 0.7610956
3281.216, 0.5249626
3283.145, 0.6063678
3285.073, 0.7217261
3287.001, 0.5605247
3288.930, 0.4766107
3290.858, 0.5726628
3292.787, 0.7169131
3294.715, 0.7636361
3296.644, 0.4884810
3298.572, 0.4426943
3300.501, 0.5507117
3302.429, 0.6935630
3304.358, 0.8557984
3306.286, 0.7477538
3308.215, 0.5688101
3310.143, 0.3965414
3312.072, 0.2704740
3314.000, 0.4282880
3315.928, 0.6427442
3317.857, 0.5773628
3319.785, 0.2664789
3321.714, 0.7439551
3323.642, 0.2065962
3325.571, 6.2791876E-02
3327.499, 0.4965997
3329.428, 0.4146765
3331.356, 0.4132100
3333.285, 0.5788087
3335.213, 0.7408046
3337.142, 0.7499350
3339.070, 0.5701897
3340.999, 0.6690403
3342.927, 0.7756306
3344.855, 0.7016305
3346.784, 0.5866772
3348.712, 0.5538087
3350.641, 0.4526232
3352.569, 0.4064292
3354.498, 0.6464087
3356.426, 0.6944683
3358.355, 0.6198068
3360.283, 0.5354070
3362.212, 0.4793221
3364.140, 0.6174542
3366.069, 0.5870066
3367.997, 0.4807042
3369.926, 0.5061415
3371.854, 0.8945345
3373.782, 0.7190846
3375.711, 0.7395647
3377.639, 0.8511928
3379.568, 0.8595153
3381.496, 0.5697591
3383.425, 0.6993904
3385.353, 0.5999988
3387.282, 0.3745547
3389.210, 0.4323776
3391.139, 0.3275944
3393.067, 0.4598878
3394.996, 0.5539824
3396.924, 0.5162309
3398.853, 0.2483007
3400.781, 0.5936804
3402.709, 0.7849966
3404.638, 0.8305292
3406.566, 0.2933809
3408.495, 0.5088564
3410.423, 0.4228463
3412.352, 0.3245591
3414.280, 0.6462321
3416.209, 0.1943067
3418.137, 0.5095062
3420.066, 0.5186111
3421.994, 0.6679443
3423.923, 0.5139219
3425.851, 0.4537198
3427.780, 0.6971493
3429.708, 0.7726005
3431.636, 0.5840201
3433.565, 0.7428132
3435.493, 0.2812155
3437.422, 0.3641921
3439.350, 0.6821849
3441.279, 0.5093217
3443.207, 0.6741277
3445.136, 0.7104568
3447.064, 0.1625978
3448.993, 0.6309558
3450.921, 0.6599668
3452.850, 0.2378572
3454.778, 0.6716780
3456.707, 0.3119584
3458.635, 0.2356109
3460.563, 0.3725407
3462.492, 0.2873234
3464.420, 0.5525838
3466.349, 0.4803849
3468.277, 0.3781225
3470.206, 0.4075637
3472.134, 6.4148389E-02
3474.063, 0.4127228
3475.991, 0.2887657
3477.920, 0.3998314
3479.848, 0.5642412
3481.777, 0.3210051
3483.705, 0.5095260
3485.634, 2.8730914E-02
3487.562, 0.1081470
3489.490, 0.1273409
3491.419, 0.5046414
3493.347, 2.7480453E-02
3495.276, 9.1703102E-02
3497.204, 0.3864932
3499.133, 0.3588883
3501.061, 0.4662102
3502.990, 0.1744609
3504.918, 8.6982399E-02
3506.847, 1.1387280E-02
3508.775, 0.2709274
3510.704, 0.1390923
3512.632, 0.1743052
3514.561, 0.3064854
3516.489, 0.4372694
3518.417, 0.4993702
3520.346, 0.4358005
3522.274, 0.3385085
3524.203, 0.5519629
3526.131, 0.6102821
3528.060, 0.3475289
3529.988, 0.3161397
3531.917, 0.2322014
3533.845, 6.5486424E-02
3535.774, 0.1928373
3537.702, 0.5187676
3539.631, 0.4730624
3541.559, 0.5846887
3543.488, 0.4419044
3545.416, 0.4024351
3547.344, 0.5258313
3549.273, 0.5858333
3551.201, 0.9841323
3553.130, 0.7058073
3555.058, 0.5231563
3556.987, 0.5477785
3558.915, 0.5030744
3560.844, 0.5027888
3562.772, 0.2811238
3564.701, 0.1297530
3566.629, 0.2802082
3568.558, 0.6034598
3570.486, 0.4439735
3572.415, 0.2071000
3574.343, 0.2030015
3576.271, 0.3137427
3578.200, 0.3477027
3580.128, 0.1991386
3582.057, 0.2343340
3583.985, 4.5444358E-02
3585.914, 3.6746211E-02
3587.842, 0.2055910
3589.771, 0.3290675
3591.699, 0.3753116
3593.628, 0.2500616
3595.556, 0.2986135
3597.485, 0.2151387
3599.413, 0.1393095
3601.342, 0.7508758
3603.270, 0.5774163
3605.198, 0.3287505
3607.127, 0.4234148
3609.055, 0.5945569
3610.984, 0.5250369
3612.912, 0.5553775
3614.841, 0.9518682
3616.769, 0.6521389
3618.698, 0.5759559
3620.626, 0.8990170
3622.555, 0.5503538
3624.483, 0.5163621
3626.412, 0.6398653
3628.340, 0.7444357
3630.269, 0.6789410
3632.197, 0.5346851
3634.125, 0.7569301
3636.054, 0.5766252
3637.982, 0.5679081
3639.911, 0.6051838
3641.839, 0.6364562
3643.768, 0.6820650
3645.696, 0.4589868
3647.625, 0.1950916
3649.553, 0.3041748
3651.482, 0.3978809
3653.410, 0.3548994
3655.339, 0.4078674
3657.267, 0.2911867
3659.196, 0.3944791
3661.124, 0.4514965
3663.052, 0.2337587
3664.981, 8.3485022E-02
3666.909, 0.6575193
3668.838, 0.4562181
3670.766, 0.3638352
3672.695, 0.1535501
3674.623, 0.3328519
3676.552, 0.8343531
3678.480, 0.4325067
3680.409, 0.6652454
3682.337, 0.6103231
3684.266, 0.3463465
3686.194, 0.1802190
3688.123, 0.2541245
3690.051, 0.4798785
3691.979, 0.6135691
3693.908, 0.5519801
3695.836, 0.5563411
3697.765, 0.3146116
3699.693, -0.1034042
3701.622, -3.0947380E-02
3703.550, 0.3036448
3705.479, 0.2080230
3707.407, 0.3293406
3709.336, 0.5120617
3711.264, 0.3860865
3713.193, -4.1501500E-02
3715.121, 0.2330441
3717.050, 0.1325604
3718.978, -4.4309702E-03
3720.906, 0.2018733
3722.835, 0.4033670
3724.763, 0.1343068
3726.692, 0.1900715
3728.620, 0.2990094
3730.549, 0.3943425
3732.477, 0.2258912
3734.406, 4.4574011E-02
3736.334, 0.1201805
3738.263, 0.1717783
3740.191, 0.2103474
3742.120, 0.3644564
3744.048, 0.3976279
3745.977, 0.3565738
3747.905, 0.3116672
3749.833, 0.2645135
3751.762, 0.6325814
3753.690, 0.5262336
3755.619, 0.2095909
3757.547, 0.2429467
3759.476, 0.4750739
3761.404, 0.4957313
3763.333, 0.4366581
3765.261, 0.1215497
3767.190, 0.4963890
3769.118, 0.5830941
3771.047, 0.3842414
3772.975, 0.2882646
3774.904, 0.3638204
3776.832, 0.2723631
3778.760, 0.1815803
3780.689, 8.7600499E-02
3782.617, 0.4635572
3784.546, 0.5999522
3786.474, 0.1665029
3788.403, 0.2173763
3790.331, 0.4847972
3792.260, 4.5532669E-04
3794.188, 6.2304478E-02
3796.117, 0.3974187
3798.045, 0.4526634
3799.974, 0.1517350
3801.902, -0.1274723
3803.831, 0.2262853
3805.759, 0.4320655
3807.688, 0.5502714
3809.616, 0.4290432
3811.544, 0.3435570
3813.473, 0.4465647
3815.401, 0.1588604
3817.330, 4.5502149E-02
3819.258, 3.3809621E-02
3821.187, 0.1180126
3823.115, 0.2847836
3825.044, 0.4285499
3826.972, 0.4096892
3828.901, 0.2260150
3830.829, 0.6031092
3832.758, 0.2880923
3834.686, 0.4500416
3836.615, 0.3655530
3838.543, 0.2436429
3840.471, 0.4429638
3842.400, 0.4508178
3844.328, 0.3333057
3846.257, 0.5442497
3848.185, 8.9919567E-02
3850.114, -0.1434672
3852.042, 2.1260830E-02
3853.971, 0.2347963
3855.899, 0.3051018
3857.828, 0.4150771
3859.756, 0.1740246
3861.685, 0.3251089
3863.613, 0.1703949
3865.542, -0.2023757
3867.470, -0.1571489
3869.398, 0.2352324
3871.327, -1.5628779E-02
3873.255, -8.1973307E-02
3875.184, 8.1025012E-02
3877.112, 0.1507305
3879.041, 0.3606391
3880.969, 0.3821615
3882.898, 0.4724390
3884.826, 0.8850950
3886.755, 0.5678627
3888.683, 0.5713159
3890.612, 0.5029860
3892.540, 0.3622337
3894.469, 0.3892826
3896.397, 0.2767908
3898.325, 0.2568638
3900.254, 0.6980735
3902.182, 0.2486568
3904.111, 0.5517979
3906.039, 0.1572658
3907.968, -4.4642441E-02
3909.896, 0.1877404
3911.825, 0.3421963
3913.753, 0.2923177
3915.682, 0.4221825
3917.610, 0.6729878
3919.539, -0.1831362
3921.467, 0.4486515
3923.396, -8.2104688E-04
3925.324, -0.2234173
3927.252, 8.3612159E-02
3929.181, 0.2318178
3931.109, 0.1076067
3933.038, 0.3668178
3934.966, 0.1081775
3936.895, 0.4252658
3938.823, 0.5519718
3940.752, 0.1279249
3942.680, 7.1257629E-02
3944.609, 0.3950369
3946.537, 0.3667796
3948.466, -9.8064043E-02
3950.394, 0.5076929
3952.323, 0.4567426
3954.251, 0.7157778
3956.179, 0.1121958
3958.108, 0.2297357
3960.036, 0.4825934
3961.965, 0.3345918
3963.893, 0.2041666
3965.822, 0.2508045
3967.750, 0.4856335
3969.679, 0.4919216
3971.607, 0.3158170
3973.536, 8.2198411E-02
3975.464, 0.2632681
3977.393, 0.3544123
3979.321, 0.2937956
3981.250, 0.3789118
3983.178, 0.2360502
3985.106, 0.4675325
3987.035, 4.2821910E-02
3988.963, 0.6293635
3990.892, 0.4742198
3992.820, 0.1489558
3994.749, 0.1287471
3996.677, 0.2018138
3998.606, 0.3137931
4000.534, 0.3589326
4002.463, 0.1655513
4004.391, -2.8999841E-02
4006.320, -0.1182680
4008.248, 0.2753948
4010.177, 0.2214490
4012.105, 0.2025619
4014.033, 0.4029688
4015.962, 0.4580144
4017.890, 0.4541541
4019.819, 0.2663535
4021.747, 0.4186909
4023.676, 0.2090465
4025.604, 0.2793743
4027.533, 0.1285843
4029.461, 8.4269300E-02
4031.390, 0.1835351
4033.318, 0.2457399
4035.247, 0.2038379
4037.175, -0.1148178
4039.104, -6.1145559E-02
4041.032, 0.2186494
4042.960, 0.4973208
4044.889, 0.1073977
4046.817, 1.4359510E-02
4048.746, 3.5541030E-03
4050.674, 9.1981247E-02
4052.603, 0.3009850
4054.531, 0.3283477
4056.460, 0.2880345
4058.388, 0.1023562
4060.317, 0.2754571
4062.245, 0.1546674
4064.174, 0.2264586
4066.102, 0.2230692
4068.031, 0.2033638
4069.959, 0.1480574
4071.887, 0.1982102
4073.816, 0.4008377
4075.744, 0.3451579
4077.673, 2.4780249E-02
4079.601, -0.1021765
4081.530, 6.2356580E-02
4083.458, 0.3381749
4085.387, 0.3237381
4087.315, 0.2086963
4089.244, 2.1851251E-02
4091.172, 9.9278703E-02
4093.101, 0.2444993
4095.029, 0.1190219
4096.958, 0.1218273
4098.886, -0.2318670
4100.814, 0.3390975
4102.743, 0.2008197
4104.671, -9.3286157E-02
4106.600, 0.2430636
4108.528, 0.3931051
4110.457, 4.3277562E-02
4112.385, -4.8408870E-02
4114.313, 6.6875391E-02
4116.242, -5.4457050E-02
4118.170, -8.2609273E-02
4120.099, 0.1165233
4122.027, -0.1213557
4123.956, 6.7028537E-02
4125.884, 0.4613131
4127.813, 0.1839394
4129.741, 0.2818689
4131.670, -1.2265390E-03
4133.598, 7.0146777E-02
4135.527, 0.4550821
4137.455, 0.4051000
4139.384, 5.6871220E-02
4141.312, -6.4621054E-02
4143.241, -0.1791504
4145.169, 0.1977694
4147.098, 0.3819625
4149.026, 0.3656843
4150.955, 0.4826199
4152.883, -5.4352310E-02
4154.812, 0.2290982
4156.740, 0.3517485
4158.668, 7.5596988E-02
4160.597, 0.1899632
4162.525, 0.4320468
4164.454, 0.2059773
4166.382, 2.6621761E-02
4168.311, 0.1971177
4170.239, 0.2085175
4172.167, -2.2517011E-02
4174.096, 0.6213294
4176.024, 0.5089957
4177.953, -0.1756545
4179.881, 5.9362128E-02
4181.810, 0.1657626
4183.738, 0.3180339
4185.667, 0.2900939
4187.595, 9.0866446E-02
4189.524, 0.1952368
4191.452, 0.4410915
4193.381, 0.2971117
4195.309, -0.1202227
4197.238, 0.1234655
4199.166, -0.2493756
4201.095, 2.5585230E-02
4203.023, 0.3463451
4204.952, 0.4150320
4206.880, 0.3176937
4208.809, 0.3975373
4210.737, 0.4119685
4212.666, 0.3471894
4214.594, 0.1308764
4216.522, 0.1850603
4218.451, 0.2699711
4220.379, 8.8900409E-04
4222.308, 2.1561440E-02
4224.236, 0.1830451
4226.165, 0.7132753
4228.093, 0.5055887
4230.021, 0.2596682
4231.950, -0.1552621
4233.878, -0.1037148
4235.807, 0.2881624
4237.735, 0.1128720
4239.664, -6.9693282E-02
4241.592, -7.3850192E-02
4243.521, -0.1042571
4245.449, -0.1470874
4247.378, -0.1188024
4249.306, 4.9943510E-02
4251.235, 0.1863999
4253.163, 0.1506929
4255.092, 9.0767093E-02
4257.020, -7.6446213E-02
4258.949, 0.2656267
4260.877, 0.2694942
4262.806, 0.3917739
4264.734, -3.3826359E-02
4266.663, -0.2459405
4268.591, -3.2906460E-03
4270.520, 0.1349492
4272.448, 0.3020173
4274.376, -0.1133886
4276.305, 1.4016920E-02
4278.233, 2.0779470E-02
4280.162, 4.1269489E-02
4282.090, 0.1876082
4284.019, 0.2300018
4285.947, 0.1822217
4287.875, 0.2219516
4289.804, 0.2867505
4291.732, 9.6869700E-02
4293.661, -9.1064893E-02
4295.589, -1.1390400E-02
4297.518, -2.1742821E-02
4299.446, 0.1860555
4301.375, 6.5958463E-02
4303.303, 0.4671801
4305.232, 0.1382398
4307.160, 0.3058905
4309.089, 4.7915298E-02
4311.017, -0.1181472
4312.946, -0.3490166
4314.874, -0.3130032
4316.803, 0.2871206
4318.731, 0.3721884
4320.660, -0.1148681
4322.588, -8.2184277E-02
4324.517, 0.1569969
4326.445, 9.3891189E-02
4328.374, -9.7565819E-03
4330.302, 0.1494669
4332.230, 0.1446242
##END=



