##NAMES=Gustavite
##RRUFFID=R100203
##IDEAL CHEMISTRY=AgPbBi_3_S_6_
##LOCALITY=Level 390, Vein 14, Mina Herminia, Julcani District, Huancavelica, Peru
##OWNER=RRUFF
##SOURCE=William W Pinch
##DESCRIPTION=Elongated black metallic crystals with striations, on a matrix of tetrahedrite, R100204.
##STATUS=The identification of this mineral is confirmed by single-crystal X-ray diffraction and chemical analysis
##URL=https://www.rruff.net/odr/rruff_sample/R100203
##MEASURED CHEMISTRY=Ag_1.02_Pb_0.96_Bi_1.86_Sb_1.17_(S_5.97_As_0.03_)
##DIFFRACTION SAMPLE DESCRIPTION=Single crystal, powder profile is calculated
##CELL PARAMETERS=a: 6.9821 b: 19.351 c: 8.3987 alpha: 90 beta: 107.631 gamma: 90 volume: 1081.5 crystal system: monoclinic
##FILETYPE=Raman RAW
##RAMAN WAVELENGTH=780

162.9722, 81.31685
164.9006, 80.96111
166.8291, 81.19106
168.7576, 81.60732
170.6860, 81.87943
172.6145, 82.01504
174.5430, 82.00698
176.4714, 81.47529
178.3999, 81.35599
180.3284, 82.11668
182.2568, 82.95732
184.1853, 83.29604
186.1138, 83.27910
188.0422, 83.31090
189.9707, 83.41999
191.8992, 83.53603
193.8276, 83.90289
195.7561, 84.00087
197.6846, 83.48269
199.6130, 82.57766
201.5415, 81.45812
203.4700, 79.90075
205.3984, 79.17412
207.3269, 80.02085
209.2554, 80.37165
211.1838, 79.25187
213.1123, 77.61409
215.0408, 76.13416
216.9692, 74.82284
218.8977, 73.90305
220.8262, 73.60555
222.7546, 72.99942
224.6831, 71.62574
226.6116, 70.33224
228.5400, 69.47763
230.4685, 69.04599
232.3970, 69.07372
234.3254, 69.65970
236.2539, 70.19772
238.1824, 70.53285
240.1108, 71.12764
242.0393, 72.39556
243.9678, 73.81226
245.8962, 74.79771
247.8247, 75.47244
249.7532, 76.96174
251.6816, 79.50294
253.6101, 81.38135
255.5386, 81.77475
257.4670, 81.98554
259.3955, 82.94836
261.3240, 83.94852
263.2524, 83.63237
265.1809, 82.09138
267.1094, 80.68614
269.0378, 79.46776
270.9663, 78.50610
272.8948, 78.33980
274.8232, 77.89703
276.7517, 76.44772
278.6802, 74.21586
280.6086, 71.77267
282.5371, 69.12995
284.4656, 66.20824
286.3940, 62.59975
288.3225, 59.41182
290.2510, 57.18217
292.1794, 55.26875
294.1079, 53.02456
296.0364, 50.67043
297.9648, 48.76141
299.8933, 47.32097
301.8218, 46.26434
303.7502, 46.27489
305.6787, 45.75136
307.6072, 43.82016
309.5356, 41.47929
311.4641, 39.63631
313.3926, 38.22477
315.3210, 37.18095
317.2495, 36.60053
319.1780, 36.04334
321.1064, 35.32660
323.0349, 34.79260
324.9634, 34.80904
326.8918, 34.86398
328.8203, 34.40620
330.7488, 33.56554
332.6772, 32.80188
334.6057, 32.10563
336.5342, 31.57655
338.4626, 31.20867
340.3911, 31.00516
342.3196, 31.15949
344.2480, 31.31579
346.1765, 31.19824
348.1050, 30.83277
350.0334, 30.30094
351.9619, 29.31576
353.8904, 28.91708
355.8188, 29.79689
357.7473, 30.12975
359.6758, 28.68342
361.6042, 27.14924
363.5327, 26.92084
365.4612, 27.56909
367.3896, 27.76028
369.3181, 27.29544
371.2466, 27.24236
373.1750, 27.87668
375.1035, 28.25581
377.0320, 27.88334
378.9604, 27.45575
380.8889, 27.56310
382.8174, 27.81935
384.7458, 27.38492
386.6743, 26.20928
388.6028, 25.70324
390.5313, 25.98170
392.4597, 26.44026
394.3882, 27.35119
396.3167, 27.72897
398.2451, 26.48920
400.1736, 25.05692
402.1021, 25.29545
404.0305, 26.75396
405.9590, 26.84264
407.8875, 25.48435
409.8159, 24.72433
411.7444, 25.07002
413.6729, 25.45566
415.6013, 25.43236
417.5298, 25.40997
419.4583, 25.81072
421.3867, 25.56993
423.3152, 26.10847
425.2437, 25.37463
427.1721, 24.94333
429.1006, 24.87819
431.0291, 24.99629
432.9575, 25.42499
434.8860, 25.79075
436.8145, 26.14503
438.7429, 26.23774
440.6714, 25.69956
442.5999, 24.77836
444.5283, 23.89727
446.4568, 23.09317
448.3853, 22.95504
450.3137, 23.91366
452.2422, 24.49274
454.1707, 24.20918
456.0991, 23.81844
458.0276, 23.36657
459.9561, 23.13549
461.8845, 23.82150
463.8130, 24.78928
465.7415, 24.56046
467.6699, 23.08460
469.5984, 22.19962
471.5269, 22.35878
473.4553, 22.56704
475.3838, 22.75679
477.3123, 22.93834
479.2407, 23.26696
481.1692, 23.44901
483.0977, 22.99009
485.0261, 22.29149
486.9546, 22.21904
488.8831, 22.84174
490.8115, 23.22174
492.7400, 23.35516
494.6685, 23.19162
496.5969, 22.53531
498.5254, 21.86307
500.4539, 21.11937
502.3823, 20.65058
504.3108, 20.83911
506.2393, 21.36569
508.1677, 21.78766
510.0962, 22.10347
512.0247, 22.28045
513.9531, 22.28114
515.8816, 22.24232
517.8101, 22.17344
519.7385, 22.04788
521.6670, 21.89502
523.5955, 21.62676
525.5239, 20.98102
527.4524, 20.38798
529.3809, 20.24887
531.3093, 20.50918
533.2378, 21.25423
535.1663, 22.56986
537.0947, 22.38656
539.0232, 20.23524
540.9517, 19.13809
542.8801, 20.08722
544.8086, 21.07166
546.7371, 21.47044
548.6655, 21.43321
550.5940, 20.56643
552.5225, 19.64939
554.4509, 19.99681
556.3794, 19.54434
558.3079, 19.42283
560.2363, 19.85814
562.1648, 19.38461
564.0933, 19.92237
566.0217, 20.10862
567.9502, 19.25800
569.8787, 18.79235
571.8071, 19.42650
573.7356, 20.19301
575.6641, 20.87460
577.5925, 21.13714
579.5210, 20.12405
581.4495, 18.49581
583.3779, 18.04316
585.3064, 18.60769
587.2349, 19.11405
589.1633, 19.50994
591.0918, 19.65556
593.0203, 19.42172
594.9487, 19.12374
596.8772, 18.77197
598.8057, 18.43894
600.7341, 18.10415
602.6626, 17.85377
604.5911, 17.70755
606.5195, 17.73646
608.4480, 18.21943
610.3765, 18.94085
612.3049, 19.01731
614.2334, 18.34649
616.1619, 18.06632
618.0903, 18.52769
620.0188, 18.77928
621.9473, 18.48140
623.8757, 18.40780
625.8042, 19.15607
627.7327, 19.63932
629.6611, 19.04253
631.5896, 18.16788
633.5181, 17.57121
635.4465, 17.24585
637.3750, 17.31411
639.3035, 17.68293
641.2319, 17.70398
643.1604, 17.26128
645.0889, 17.22556
647.0173, 17.93310
648.9458, 18.13881
650.8743, 17.33294
652.8027, 17.07194
654.7312, 18.29708
656.6597, 19.18113
658.5881, 18.33182
660.5166, 17.41357
662.4451, 17.79656
664.3735, 18.55861
666.3020, 18.49572
668.2305, 17.91576
670.1589, 17.68176
672.0874, 17.77238
674.0159, 17.79683
675.9443, 17.77247
677.8728, 17.43371
679.8013, 16.61346
681.7297, 16.35198
683.6582, 17.14975
685.5867, 17.64189
687.5151, 17.18200
689.4436, 16.61531
691.3721, 16.22223
693.3005, 15.95000
695.2290, 15.80737
697.1575, 15.72921
699.0859, 15.58671
701.0144, 15.47235
702.9429, 15.58546
704.8713, 15.91577
706.7998, 16.51155
708.7283, 17.32006
710.6567, 17.61208
712.5852, 17.30299
714.5137, 16.78961
716.4421, 15.93671
718.3706, 15.51023
720.2991, 15.95018
722.2275, 16.40463
724.1560, 16.81861
726.0845, 17.00042
728.0129, 16.55488
729.9414, 16.19554
731.8699, 16.72743
733.7983, 16.37460
735.7268, 17.16948
737.6553, 16.57549
739.5837, 16.69775
741.5122, 17.21013
743.4407, 17.00280
745.3691, 17.12877
747.2976, 17.31230
749.2261, 16.94989
751.1545, 17.39794
753.0830, 17.22189
755.0115, 16.92468
756.9399, 16.25743
758.8684, 15.95442
760.7969, 16.45128
762.7253, 16.78346
764.6538, 16.57726
766.5823, 16.27944
768.5107, 15.98619
770.4392, 15.81435
772.3677, 15.83437
774.2961, 16.03020
776.2246, 16.54248
778.1531, 17.09429
780.0815, 17.16933
782.0100, 17.00398
783.9385, 17.40581
785.8669, 18.19331
787.7954, 17.94747
789.7239, 16.59962
791.6523, 16.12607
793.5808, 16.78776
795.5093, 17.03978
797.4377, 16.76315
799.3662, 16.59631
801.2947, 16.57240
803.2231, 16.80792
805.1516, 17.54538
807.0801, 17.89350
809.0085, 17.51827
810.9370, 16.81531
812.8655, 15.40059
814.7939, 14.54960
816.7224, 15.23416
818.6509, 16.20327
820.5793, 17.09651
822.5078, 17.45349
824.4363, 16.16409
826.3647, 14.67976
828.2932, 15.32513
830.2217, 14.63014
832.1501, 16.58986
834.0786, 15.38492
836.0071, 15.75745
837.9355, 17.22336
839.8640, 17.42959
841.7925, 16.62527
843.7209, 16.51166
845.6494, 17.09816
847.5779, 17.54513
849.5063, 17.80292
851.4348, 17.39356
853.3633, 16.09704
855.2917, 15.20630
857.2202, 15.00780
859.1487, 14.88238
861.0771, 14.71982
863.0056, 14.64457
864.9341, 14.54850
866.8625, 14.74891
868.7910, 15.64707
870.7195, 16.33965
872.6479, 16.32313
874.5764, 16.32465
876.5049, 17.07038
878.4333, 17.40983
880.3618, 16.24840
882.2903, 14.92917
884.2188, 14.34580
886.1472, 14.15409
888.0757, 14.18364
890.0042, 14.31138
891.9326, 14.52672
893.8611, 14.65988
895.7896, 14.32954
897.7180, 13.88394
899.6465, 13.98251
901.5750, 14.39848
903.5034, 14.67681
905.4319, 14.79998
907.3604, 14.67083
909.2888, 14.32763
911.2173, 13.87849
913.1458, 13.36905
915.0742, 13.47395
917.0027, 14.19378
918.9312, 14.49792
920.8596, 14.35279
922.7881, 14.25724
924.7166, 14.30144
926.6450, 13.54370
928.5735, 13.46836
930.5020, 13.69604
932.4304, 12.98445
934.3589, 14.05135
936.2874, 14.35079
938.2158, 13.84015
940.1443, 12.18013
942.0728, 11.89975
944.0012, 13.84003
945.9297, 14.88620
947.8582, 14.23007
949.7866, 13.49643
951.7151, 12.99603
953.6436, 12.61553
955.5720, 12.23838
957.5005, 12.27451
959.4290, 13.22918
961.3574, 13.66465
963.2859, 12.60941
965.2144, 12.05847
967.1428, 13.36319
969.0713, 14.02062
970.9998, 12.53909
972.9282, 11.50314
974.8567, 11.93682
976.7852, 12.69776
978.7136, 13.86744
980.6421, 14.50368
982.5706, 13.76771
984.4990, 13.03409
986.4275, 12.91002
988.3560, 13.02685
990.2844, 13.35510
992.2129, 13.64314
994.1414, 13.85661
996.0698, 13.84002
997.9983, 13.37958
999.9268, 12.81987
1001.855, 12.35132
1003.784, 11.89254
1005.712, 11.22386
1007.641, 10.76275
1009.569, 10.92948
1011.498, 11.24224
1013.426, 11.34703
1015.354, 11.48536
1017.283, 11.93145
1019.211, 12.35462
1021.140, 12.58199
1023.068, 12.60143
1024.997, 12.20948
1026.925, 11.86048
1028.854, 12.01327
1030.782, 12.18860
1032.711, 11.93912
1034.639, 11.68085
1036.568, 11.59619
1038.496, 11.79492
1040.425, 12.80403
1042.353, 13.55806
1044.281, 13.03839
1046.210, 12.29433
1048.138, 11.88562
1050.067, 11.73157
1051.995, 12.02156
1053.924, 12.22976
1055.852, 11.88101
1057.781, 11.48292
1059.709, 11.30609
1061.638, 11.27844
1063.566, 11.47292
1065.495, 11.64258
1067.423, 11.52938
1069.352, 11.49221
1071.280, 12.18358
1073.208, 12.39459
1075.137, 10.59057
1077.065, 9.346879
1078.994, 10.48265
1080.922, 11.85327
1082.851, 12.57200
1084.779, 13.03011
1086.708, 13.59238
1088.636, 13.64684
1090.565, 12.34602
1092.493, 11.41613
1094.422, 11.76259
1096.350, 12.18557
1098.279, 12.36366
1100.207, 12.42116
1102.135, 12.49538
1104.064, 12.28216
1105.992, 11.07809
1107.921, 10.66312
1109.849, 12.30033
1111.778, 13.19404
1113.706, 12.33749
1115.635, 11.65810
1117.563, 11.38356
1119.492, 11.35466
1121.420, 11.68194
1123.349, 12.00585
1125.277, 11.70901
1127.206, 12.45697
1129.134, 11.12957
1131.063, 10.19317
1132.991, 9.711870
1134.919, 9.597240
1136.848, 9.893653
1138.776, 10.43473
1140.705, 11.34238
1142.633, 11.81695
1144.562, 11.83591
1146.490, 11.56361
1148.419, 10.99196
1150.347, 10.84693
1152.276, 11.09597
1154.204, 11.21114
1156.133, 11.27159
1158.061, 12.13620
1159.990, 13.29913
1161.918, 12.35331
1163.846, 12.48778
1165.775, 10.18573
1167.703, 10.89333
1169.632, 9.908414
1171.560, 8.568542
1173.489, 9.319909
1175.417, 10.64414
1177.346, 10.74929
1179.274, 10.31363
1181.203, 9.689433
1183.131, 9.236722
1185.060, 9.024514
1186.988, 9.391305
1188.917, 11.45279
1190.845, 12.80445
1192.773, 11.61942
1194.702, 10.55979
1196.630, 10.55854
1198.559, 10.75714
1200.487, 11.09192
1202.416, 11.11125
1204.344, 10.50161
1206.273, 10.35853
1208.201, 10.97815
1210.130, 11.58262
1212.058, 12.13528
1213.987, 11.79650
1215.915, 11.95286
1217.844, 11.83618
1219.772, 11.31171
1221.700, 11.45340
1223.629, 10.82403
1225.557, 10.64413
1227.486, 10.73873
1229.414, 10.09865
1231.343, 9.292340
1233.271, 10.09016
1235.200, 9.474246
1237.128, 10.66204
1239.057, 9.649240
1240.985, 10.01001
1242.914, 10.73682
1244.842, 11.20287
1246.771, 11.28603
1248.699, 10.76101
1250.627, 10.05327
1252.556, 8.804472
1254.484, 8.447002
1256.413, 10.34864
1258.341, 11.31580
1260.270, 9.919307
1262.198, 9.404367
1264.127, 10.67010
1266.055, 11.28916
1267.984, 10.98559
1269.912, 10.72669
1271.841, 10.50061
1273.769, 10.80287
1275.698, 11.48327
1277.626, 11.06317
1279.554, 11.23022
1281.483, 10.16585
1283.411, 10.78611
1285.340, 10.60067
1287.268, 10.19415
1289.197, 10.26561
1291.125, 10.48126
1293.054, 10.83826
1294.982, 10.82184
1296.911, 9.799138
1298.839, 9.119921
1300.768, 9.261290
1302.696, 9.826342
1304.625, 10.93914
1306.553, 11.29006
1308.481, 10.61526
1310.410, 9.730637
1312.338, 8.764438
1314.267, 8.744740
1316.195, 9.597982
1318.124, 10.85304
1320.052, 12.07868
1321.981, 11.81237
1323.909, 10.83572
1325.838, 10.35658
1327.766, 10.15954
1329.695, 9.971965
1331.623, 10.00085
1333.552, 10.61389
1335.480, 11.14410
1337.408, 11.26675
1339.337, 11.26832
1341.265, 11.18013
1343.194, 11.05253
1345.122, 10.84684
1347.051, 10.81850
1348.979, 10.99688
1350.908, 10.91931
1352.836, 10.61980
1354.765, 10.36503
1356.693, 10.21833
1358.622, 10.37575
1360.550, 10.70655
1362.479, 11.28426
1364.407, 11.58945
1366.335, 10.93159
1368.264, 10.27728
1370.192, 9.985113
1372.121, 10.20429
1374.049, 11.38867
1375.978, 11.93952
1377.906, 11.42891
1379.835, 10.84950
1381.763, 10.24159
1383.692, 9.500839
1385.620, 8.781528
1387.549, 9.686515
1389.477, 8.796596
1391.406, 10.12687
1393.334, 8.541306
1395.262, 8.888289
1397.191, 9.567774
1399.119, 9.509296
1401.048, 9.547952
1402.976, 10.17279
1404.905, 10.19599
1406.833, 9.175376
1408.762, 8.958856
1410.690, 9.768194
1412.619, 10.47381
1414.547, 10.92778
1416.476, 10.41083
1418.404, 9.504919
1420.333, 9.654987
1422.261, 10.12574
1424.189, 10.03250
1426.118, 9.840739
1428.046, 10.02424
1429.975, 9.893401
1431.903, 8.959706
1433.832, 8.398760
1435.760, 8.317311
1437.689, 9.464071
1439.617, 11.64734
1441.546, 11.65884
1443.474, 10.13527
1445.403, 9.366407
1447.331, 9.003070
1449.260, 8.367019
1451.188, 8.061612
1453.116, 8.827054
1455.045, 9.683162
1456.973, 10.35685
1458.902, 10.68825
1460.830, 10.48460
1462.759, 10.43840
1464.687, 10.58896
1466.616, 10.37586
1468.544, 9.953185
1470.473, 10.38126
1472.401, 10.75598
1474.330, 8.902981
1476.258, 7.488315
1478.187, 9.041436
1480.115, 10.33157
1482.043, 9.822536
1483.972, 9.477878
1485.900, 9.697824
1487.829, 10.10355
1489.757, 10.65395
1491.686, 10.25221
1493.614, 9.364206
1495.543, 9.396916
1497.471, 9.740771
1499.400, 9.608607
1501.328, 9.578312
1503.257, 10.06694
1505.185, 10.37520
1507.114, 10.34007
1509.042, 9.747243
1510.970, 10.12620
1512.899, 8.840571
1514.827, 10.00310
1516.756, 9.855590
1518.684, 9.035259
1520.613, 7.921594
1522.541, 7.476991
1524.470, 8.847915
1526.398, 10.33087
1528.327, 11.75862
1530.255, 11.89435
1532.184, 10.61909
1534.112, 9.496607
1536.041, 8.732426
1537.969, 8.810401
1539.897, 9.291561
1541.826, 9.867666
1543.754, 10.03631
1545.683, 10.12063
1547.611, 10.33012
1549.540, 9.800582
1551.468, 10.47125
1553.397, 10.10628
1555.325, 10.24019
1557.254, 10.62529
1559.182, 10.08112
1561.111, 9.340034
1563.039, 9.195891
1564.968, 9.348567
1566.896, 9.721278
1568.824, 10.15372
1570.753, 10.90425
1572.681, 10.85716
1574.610, 10.02550
1576.538, 9.134177
1578.467, 8.489216
1580.395, 9.303060
1582.324, 10.06237
1584.252, 9.315951
1586.181, 8.721201
1588.109, 9.087358
1590.038, 9.012436
1591.966, 8.153812
1593.895, 8.234750
1595.823, 7.941288
1597.751, 8.476748
1599.680, 7.842711
1601.608, 8.210389
1603.537, 8.572689
1605.465, 8.328440
1607.394, 8.695724
1609.322, 10.00438
1611.251, 10.68711
1613.179, 10.69555
1615.108, 10.20188
1617.036, 9.560531
1618.965, 9.406679
1620.893, 9.226851
1622.822, 8.576385
1624.750, 8.186008
1626.678, 8.198231
1628.607, 8.523250
1630.535, 9.031723
1632.464, 8.835293
1634.392, 8.608989
1636.321, 9.933908
1638.249, 10.96268
1640.178, 10.19510
1642.106, 9.327724
1644.035, 8.621037
1645.963, 7.931015
1647.892, 7.458612
1649.820, 9.028173
1651.749, 8.177344
1653.677, 9.542269
1655.605, 8.166393
1657.534, 8.560613
1659.462, 8.873081
1661.391, 8.816195
1663.319, 8.626108
1665.248, 8.333027
1667.176, 7.817430
1669.105, 7.580948
1671.033, 8.649288
1672.962, 9.306495
1674.890, 8.362047
1676.819, 7.927199
1678.747, 8.373870
1680.676, 7.826837
1682.604, 6.718191
1684.532, 6.006119
1686.461, 6.069675
1688.389, 7.726768
1690.318, 8.712666
1692.246, 8.112391
1694.175, 7.694406
1696.103, 7.607616
1698.032, 7.922073
1699.960, 8.399323
1701.889, 8.755606
1703.817, 8.839266
1705.746, 8.400949
1707.674, 8.539734
1709.603, 9.484613
1711.531, 9.414612
1713.459, 8.554409
1715.388, 7.190235
1717.316, 6.311352
1719.245, 7.294367
1721.173, 8.288697
1723.102, 8.942126
1725.030, 8.453805
1726.959, 9.167431
1728.887, 8.003610
1730.816, 9.328963
1732.744, 9.078597
1734.673, 8.675737
1736.601, 8.780723
1738.530, 8.700023
1740.458, 8.401506
1742.386, 8.359429
1744.315, 8.397320
1746.243, 8.066800
1748.172, 7.832388
1750.100, 8.072171
1752.029, 8.350225
1753.957, 8.637248
1755.886, 8.339712
1757.814, 7.724866
1759.743, 7.180306
1761.671, 7.195516
1763.600, 8.815882
1765.528, 9.608905
1767.457, 8.856638
1769.385, 8.086640
1771.313, 7.391456
1773.242, 7.020150
1775.170, 7.079781
1777.099, 6.963283
1779.027, 8.388281
1780.956, 7.810203
1782.884, 8.623666
1784.813, 10.12934
1786.741, 8.977761
1788.670, 7.521863
1790.598, 7.898006
1792.527, 7.601906
1794.455, 5.730508
1796.384, 6.364244
1798.312, 8.561196
1800.240, 8.325693
1802.169, 7.641345
1804.097, 8.385603
1806.026, 8.444464
1807.954, 7.312104
1809.883, 7.032877
1811.811, 7.353646
1813.740, 7.010931
1815.668, 6.976296
1817.597, 8.583480
1819.525, 9.266362
1821.454, 8.632346
1823.382, 7.055779
1825.311, 5.342476
1827.239, 5.183042
1829.167, 5.644266
1831.096, 6.252917
1833.024, 7.126719
1834.953, 7.177995
1836.881, 8.063199
1838.810, 7.438136
1840.738, 7.716466
1842.667, 7.868119
1844.595, 7.055032
1846.524, 6.820115
1848.452, 7.179700
1850.381, 8.173009
1852.309, 8.772769
1854.238, 7.313330
1856.166, 6.141047
1858.094, 6.029564
1860.023, 6.914624
1861.951, 6.189120
1863.880, 7.267422
1865.808, 6.155612
1867.737, 6.583495
1869.665, 6.884160
1871.594, 6.694366
1873.522, 7.060190
1875.451, 7.451807
1877.379, 6.561482
1879.308, 5.716050
1881.236, 5.409699
1883.165, 5.680880
1885.093, 5.301372
1887.021, 5.932951
1888.950, 5.512896
1890.878, 6.270352
1892.807, 6.872691
1894.735, 7.010627
1896.664, 6.661026
1898.592, 6.181722
1900.521, 6.248631
1902.449, 6.809460
1904.378, 6.448492
1906.306, 7.968806
1908.235, 6.730262
1910.163, 7.590922
1912.092, 8.627359
1914.020, 7.136159
1915.948, 6.723751
1917.877, 8.029231
1919.805, 7.570593
1921.734, 6.404551
1923.662, 7.073157
1925.591, 7.654034
1927.519, 7.142291
1929.448, 6.798523
1931.376, 6.646840
1933.305, 6.443421
1935.233, 6.267733
1937.162, 6.278842
1939.090, 6.627715
1941.019, 6.275356
1942.947, 6.347118
1944.875, 6.207356
1946.804, 5.924941
1948.732, 5.638652
1950.661, 4.660315
1952.589, 4.619604
1954.518, 5.219766
1956.446, 5.993311
1958.375, 6.466107
1960.303, 6.293253
1962.232, 6.068106
1964.160, 6.000953
1966.089, 7.671693
1968.017, 8.601780
1969.946, 6.748513
1971.874, 5.486306
1973.802, 5.336632
1975.731, 5.593161
1977.659, 5.807733
1979.588, 5.271860
1981.516, 5.389230
1983.445, 6.442732
1985.373, 6.181796
1987.302, 5.675258
1989.230, 7.384717
1991.159, 7.905038
1993.087, 6.281472
1995.016, 5.946812
1996.944, 6.407462
1998.873, 6.142176
2000.801, 6.320162
2002.729, 7.467736
2004.658, 7.802783
2006.586, 7.367019
2008.515, 6.489090
2010.443, 5.657820
2012.372, 5.001428
2014.300, 5.318537
2016.229, 6.188109
2018.157, 5.969690
2020.086, 5.546881
2022.014, 5.241643
2023.943, 6.122655
2025.871, 5.380523
2027.800, 6.459769
2029.728, 4.886171
2031.656, 4.447444
2033.585, 4.498923
2035.513, 4.879361
2037.442, 4.934293
2039.370, 4.904993
2041.299, 4.798715
2043.227, 5.406749
2045.156, 6.563014
2047.084, 5.736725
2049.013, 5.185789
2050.941, 7.153565
2052.870, 7.175047
2054.798, 5.159788
2056.727, 5.698421
2058.655, 6.534006
2060.583, 6.031655
2062.512, 5.186727
2064.440, 4.318145
2066.369, 4.620377
2068.297, 5.036070
2070.226, 4.648737
2072.154, 5.320002
2074.083, 5.082597
2076.011, 5.933092
2077.940, 5.052019
2079.868, 5.899261
2081.797, 6.302114
2083.725, 6.046050
2085.654, 5.043343
2087.582, 4.674289
2089.510, 5.980310
2091.439, 7.041865
2093.367, 7.489769
2095.296, 6.611190
2097.224, 5.726547
2099.153, 5.621038
2101.081, 4.879544
2103.010, 3.842521
2104.938, 3.038544
2106.867, 3.545741
2108.795, 6.264413
2110.724, 6.662598
2112.652, 5.879800
2114.581, 6.246928
2116.509, 6.416002
2118.438, 5.935111
2120.366, 5.528682
2122.294, 5.225561
2124.223, 4.776838
2126.151, 5.333218
2128.080, 7.079462
2130.008, 7.013137
2131.937, 6.262395
2133.865, 5.638158
2135.794, 5.554382
2137.722, 5.950737
2139.651, 6.514175
2141.579, 6.429163
2143.508, 4.969228
2145.436, 4.711064
2147.365, 5.371376
2149.293, 5.922123
2151.221, 5.674201
2153.150, 6.238851
2155.078, 5.017893
2157.007, 6.341548
2158.935, 4.991393
2160.864, 4.125308
2162.792, 4.352511
2164.721, 4.688609
2166.649, 4.903908
2168.578, 5.041044
2170.506, 4.748960
2172.435, 5.209671
2174.363, 5.084076
2176.292, 5.066650
2178.220, 5.288826
2180.148, 4.841413
2182.077, 4.927703
2184.005, 5.083871
2185.934, 5.538410
2187.862, 6.321587
2189.791, 5.752337
2191.719, 6.163747
2193.648, 5.636897
2195.576, 5.980908
2197.505, 5.897112
2199.433, 5.523082
2201.362, 5.049333
2203.290, 4.513339
2205.219, 4.068860
2207.147, 3.833691
2209.075, 4.055378
2211.004, 4.368676
2212.932, 4.678243
2214.861, 4.357122
2216.789, 3.988417
2218.718, 3.910092
2220.646, 2.777431
2222.575, 3.126783
2224.503, 2.967339
2226.432, 3.593946
2228.360, 5.566125
2230.289, 6.107051
2232.217, 5.684615
2234.146, 4.601692
2236.074, 4.558747
2238.002, 5.504702
2239.931, 5.839466
2241.859, 5.515706
2243.788, 4.529815
2245.716, 3.284773
2247.645, 2.556044
2249.573, 4.205031
2251.502, 4.895288
2253.430, 4.482074
2255.359, 6.255790
2257.287, 6.860507
2259.216, 6.707785
2261.144, 6.795054
2263.073, 6.179359
2265.001, 5.458004
2266.929, 4.438778
2268.858, 3.651795
2270.786, 3.121764
2272.715, 3.255502
2274.643, 4.843439
2276.572, 5.245359
2278.500, 4.788676
2280.429, 3.772944
2282.357, 3.660310
2284.286, 3.217708
2286.214, 3.633989
2288.143, 3.068481
2290.071, 4.156601
2292.000, 4.824712
2293.928, 5.204634
2295.856, 5.721365
2297.785, 5.385931
2299.713, 4.315584
2301.642, 4.030025
2303.570, 4.043420
2305.499, 4.147124
2307.427, 4.041572
2309.356, 3.901545
2311.284, 4.317390
2313.213, 3.989366
2315.141, 4.635786
2317.070, 5.875229
2318.998, 5.418211
2320.927, 6.072971
2322.855, 4.524395
2324.783, 6.300241
2326.712, 5.126698
2328.640, 4.970013
2330.569, 5.488111
2332.497, 5.483297
2334.426, 5.184941
2336.354, 4.691048
2338.283, 4.174650
2340.211, 3.790322
2342.140, 3.598322
2344.068, 3.486944
2345.997, 3.381508
2347.925, 3.437145
2349.854, 3.478218
2351.782, 3.466296
2353.710, 3.723068
2355.639, 4.630090
2357.567, 5.719808
2359.496, 4.870798
2361.424, 4.062743
2363.353, 4.575483
2365.281, 5.074327
2367.210, 5.258036
2369.138, 4.703969
2371.067, 4.226517
2372.995, 4.084928
2374.924, 3.985278
2376.852, 3.746652
2378.781, 4.255112
2380.709, 3.884949
2382.637, 4.138489
2384.566, 5.064207
2386.494, 4.860792
2388.423, 4.938979
2390.351, 6.964771
2392.280, 5.939631
2394.208, 3.201245
2396.137, 1.280331
2398.065, 2.176464
2399.994, 5.026220
2401.922, 4.530045
2403.851, 3.253535
2405.779, 2.243684
2407.708, 3.560867
2409.636, 4.362634
2411.564, 2.774398
2413.493, 2.580955
2415.421, 3.129308
2417.350, 3.585747
2419.278, 3.772737
2421.207, 3.821439
2423.135, 4.086333
2425.064, 4.128898
2426.992, 4.000739
2428.921, 4.499867
2430.849, 4.222848
2432.778, 2.800352
2434.706, 2.520182
2436.635, 3.064451
2438.563, 2.438731
2440.491, 4.018522
2442.420, 2.806343
2444.348, 3.224791
2446.277, 4.159460
2448.205, 4.986226
2450.134, 5.110417
2452.062, 3.732355
2453.991, 4.539638
2455.919, 3.318725
2457.848, 4.694659
2459.776, 5.407587
2461.705, 5.424577
2463.633, 5.667017
2465.562, 6.274408
2467.490, 4.453507
2469.418, 2.668442
2471.347, 2.137609
2473.275, 1.096289
2475.204, 1.044186
2477.132, 0.9988874
2479.061, 1.616425
2480.989, 3.468652
2482.918, 4.098538
2484.846, 3.776600
2486.775, 3.049541
2488.703, 2.398730
2490.632, 3.456422
2492.560, 5.220661
2494.489, 4.918842
2496.417, 3.546981
2498.345, 2.044464
2500.274, 3.355220
2502.202, 3.489341
2504.131, 2.015146
2506.059, 3.667797
2507.988, 4.743053
2509.916, 3.884234
2511.845, 4.703681
2513.773, 4.765053
2515.702, 4.517015
2517.630, 2.959527
2519.559, 4.265814
2521.487, 5.103331
2523.416, 4.965767
2525.344, 2.241099
2527.272, 3.977129
2529.201, 2.300854
2531.129, 0.5939558
2533.058, 2.652950
2534.986, 3.339919
2536.915, 3.045876
2538.843, 2.651708
2540.772, 3.544043
2542.700, 4.556875
2544.629, 3.363714
2546.557, 3.450999
2548.486, 4.186336
2550.414, 3.323407
2552.343, 2.260715
2554.271, 1.675791
2556.199, 3.315291
2558.128, 3.557271
2560.056, 2.544559
2561.985, 1.849636
2563.913, 2.693007
2565.842, 4.280286
2567.770, 3.514603
2569.699, 3.358902
2571.627, 3.978422
2573.556, 3.908171
2575.484, 3.531146
2577.413, 3.055066
2579.341, 2.737566
2581.270, 2.859153
2583.198, 3.290302
2585.126, 3.052250
2587.055, 3.071062
2588.983, 3.348604
2590.912, 1.901843
2592.840, 2.051157
2594.769, 4.051213
2596.697, 3.869419
2598.626, 2.546117
2600.554, 0.8485019
2602.483, 2.118489
2604.411, 3.486269
2606.340, 4.142070
2608.268, 4.015049
2610.197, 4.000504
2612.125, 4.229891
2614.053, 4.190445
2615.982, 3.539438
2617.910, 3.301985
2619.839, 2.445320
2621.767, 2.161953
2623.696, 1.489139
2625.624, 0.9471977
2627.553, 1.635447
2629.481, 1.502816
2631.410, 2.589740
2633.338, 2.296636
2635.267, 2.496787
2637.195, 2.784854
2639.124, 2.928867
2641.052, 3.053114
2642.980, 3.893243
2644.909, 3.499273
2646.837, 2.375648
2648.766, 1.952207
2650.694, 3.062159
2652.623, 4.730933
2654.551, 5.328285
2656.480, 4.265230
2658.408, 2.653202
2660.337, 2.270496
2662.265, 1.266680
2664.194, 0.6432458
2666.122, 1.918948
2668.051, 3.497339
2669.979, 3.905269
2671.907, 1.789577
2673.836, 0.9721231
2675.764, 1.472608
2677.693, 3.011690
2679.621, 3.613327
2681.550, 3.383026
2683.478, 3.971413
2685.407, 3.303909
2687.335, 3.526731
2689.264, 2.421252
2691.192, 1.300256
2693.121, 1.145802
2695.049, 2.043178
2696.978, 2.952657
2698.906, 2.830384
2700.834, 1.973856
2702.763, 2.876648
2704.691, 2.534660
2706.620, 1.349742
2708.548, 2.426726
2710.477, 2.457974
2712.405, 1.752289
2714.334, 1.812216
2716.262, 1.972680
2718.191, 2.215747
2720.119, 2.940305
2722.048, 1.935310
2723.976, 0.6616977
2725.905, 0.3456976
2727.833, 2.875515
2729.761, 4.375934
2731.690, 2.287083
2733.618, 1.935582
2735.547, 2.435391
2737.475, 3.198890
2739.404, 1.895161
2741.332, 1.655455
2743.261, 2.559600
2745.189, 1.667085
2747.118, 1.589824
2749.046, 1.990959
2750.975, 1.130739
2752.903, 2.527355
2754.832, 4.292772
2756.760, 3.990287
2758.688, 4.421063
2760.617, 4.353501
2762.545, 2.953502
2764.474, 1.591056
2766.402, 1.713176
2768.331, 1.197569
2770.259, 0.9602857
2772.188, 1.538276
2774.116, 1.270491
2776.045, 1.477661
2777.973, 2.418905
2779.902, 3.262534
2781.830, 2.232277
2783.759, 3.184646
2785.687, 3.786431
2787.615, 0.9036125
2789.544, 0.6896767
2791.472, 1.386908
2793.401, 2.061917
2795.329, 2.889701
2797.258, 3.561516
2799.186, 3.768742
2801.115, 2.644389
2803.043, 1.268404
2804.972, 0.5328708
2806.900, 1.499472
2808.829, 2.392192
2810.757, 2.840246
2812.686, 2.766076
2814.614, 2.632550
2816.542, 3.109310
2818.471, 4.066814
2820.399, 2.631429
2822.328, 2.589111
2824.256, 3.594642
2826.185, 2.654895
2828.113, 1.786129
2830.042, 1.780513
2831.970, 3.289674
2833.899, 3.784083
2835.827, 2.753449
2837.756, 3.257358
2839.684, 1.960750
2841.613, 2.434032
2843.541, 1.626996
2845.469, 1.120023
2847.398, 0.5010161
2849.326, 0.4386229
2851.255, 2.323594
2853.183, 2.441895
2855.112, 1.111612
2857.040, -1.139100
2858.969, 0.9941556
2860.897, 1.469368
2862.826, 0.5934728
2864.754, 2.632313
2866.683, 3.260786
2868.611, 2.730753
2870.540, 1.790204
2872.468, 2.203843
2874.396, 2.804779
2876.325, 2.973484
2878.253, 2.288748
2880.182, 1.784648
2882.110, 1.468171
2884.039, 0.9893882
2885.967, 1.233271
2887.896, 1.532175
2889.824, 1.401339
2891.753, 2.301847
2893.681, 0.8941785
2895.610, 3.376836
2897.538, 3.966841
2899.467, 3.205302
2901.395, 1.892611
2903.323, 0.6656782
2905.252, 2.214937
2907.180, 2.981879
2909.109, 2.073650
2911.037, 1.158131
2912.966, 1.321375
2914.894, 1.785938
2916.823, 1.078685
2918.751, 1.787148
2920.680, 1.790826
2922.608, 0.4602289
2924.537, 2.223102
2926.465, 2.193886
2928.394, 0.7848762
2930.322, -0.1501451
2932.250, 0.8131996
2934.179, 1.291734
2936.107, 0.1150763
2938.036, -0.1435077
2939.964, 0.4732219
2941.893, 1.353271
2943.821, 1.585289
2945.750, 1.223451
2947.678, 1.482274
2949.607, 1.290707
2951.535, 1.489820
2953.464, 0.7950319
2955.392, 1.051418
2957.321, 0.3677384
2959.249, 1.789106
2961.177, 0.6690443
2963.106, 0.2349833
2965.034, 1.894190
2966.963, 3.091481
2968.891, 3.066975
2970.820, 3.582346
2972.748, 3.561996
2974.677, 2.687974
2976.605, 3.297405
2978.534, 1.759610
2980.462, 1.923634
2982.391, 2.727232
2984.319, 2.292486
2986.248, 1.565660
2988.176, 1.107703
2990.104, 0.9918920
2992.033, 0.6382203
2993.961, 0.2779510
2995.890, 0.4369201
2997.818, -4.3237791E-03
2999.747, 0.6710507
3001.675, 1.577235
3003.604, 1.651448
3005.532, 1.116624
3007.461, 2.348802
3009.389, 2.165325
3011.318, 4.0339381E-02
3013.246, 2.612742
3015.175, 1.002107
3017.103, -1.119642
3019.031, 1.269233
3020.960, 2.245802
3022.888, 2.322496
3024.817, 1.979562
3026.745, 1.605910
3028.674, 0.7492778
3030.602, 0.3741136
3032.531, 0.9053634
3034.459, 1.286282
3036.388, 2.381883
3038.316, 3.158260
3040.245, 2.197216
3042.173, 0.1437043
3044.102, -0.1184498
3046.030, 1.118007
3047.958, 1.317124
3049.887, 1.430381
3051.815, 1.604166
3053.744, 1.779837
3055.672, 1.363561
3057.601, 1.523903
3059.529, 1.931587
3061.458, 2.103855
3063.386, 1.126970
3065.315, 0.9126433
3067.243, 1.665503
3069.172, 2.890213
3071.100, 2.876143
3073.029, 2.337360
3074.957, 1.770011
3076.885, 1.777018
3078.814, 1.527245
3080.742, 1.749781
3082.671, 1.506932
3084.599, 2.175676
3086.528, 2.207093
3088.456, 1.822588
3090.385, 1.087309
3092.313, -5.5676758E-02
3094.242, 0.1258051
3096.170, 0.6290046
3098.099, -0.9222415
3100.027, 1.658945
3101.956, 2.418752
3103.884, 1.030954
3105.813, 0.3801067
3107.741, 1.731429
3109.669, 2.155524
3111.598, 1.291210
3113.526, 2.267643
3115.455, 0.8330000
3117.383, -0.4333227
3119.312, 2.7484870E-02
3121.240, 1.273418
3123.169, 1.828973
3125.097, 2.025014
3127.026, 2.120967
3128.954, 1.067355
3130.883, 1.385883
3132.811, 1.500142
3134.740, 0.1395352
3136.668, 1.224897
3138.596, 0.5278748
3140.525, 0.2147076
3142.453, 3.052603
3144.382, 0.4518470
3146.310, -0.5232354
3148.239, 0.9296742
3150.167, 3.489995
3152.096, 3.192737
3154.024, 2.112303
3155.953, 1.231510
3157.881, 1.133240
3159.810, 0.5640098
3161.738, 0.6415416
3163.667, 0.1643023
3165.595, 0.5274736
3167.523, -1.107072
3169.452, 1.016799
3171.380, 1.116952
3173.309, 0.6290348
3175.237, -0.5409425
3177.166, -1.009688
3179.094, -0.2483482
3181.023, -0.5132040
3182.951, 0.3748626
3184.880, 0.1512958
3186.808, 1.221858
3188.737, 1.102686
3190.665, -0.4531951
3192.594, -1.180840
3194.522, -0.8207790
3196.450, -0.1834593
3198.379, 1.259104
3200.307, 1.488514
3202.236, 1.168266
3204.164, 2.220593
3206.093, 0.7820511
3208.021, 0.2282507
3209.950, 0.1899343
3211.878, -1.188135
3213.807, -1.855449
3215.735, -0.7587516
3217.664, 0.6992943
3219.592, 0.7130193
3221.521, 1.138250
3223.449, 1.795418
3225.377, 2.329319
3227.306, 2.455622
3229.234, 2.119301
3231.163, 1.092970
3233.091, 0.4339842
3235.020, 0.8009110
3236.948, 1.292263
3238.877, 1.605355
3240.805, 1.586309
3242.734, 1.316906
3244.662, 1.488323
3246.591, 0.1069936
3248.519, -0.4146224
3250.448, 2.1646200E-02
3252.376, -1.660158
3254.304, -0.7823251
3256.233, 1.002437
3258.161, 2.117007
3260.090, 1.216952
3262.018, 0.3214162
3263.947, 0.5665690
3265.875, 0.8367477
3267.804, -0.4128725
3269.732, -1.079965
3271.661, -0.6627063
3273.589, -0.9988540
3275.518, -0.8062406
3277.446, -8.3229288E-02
3279.375, -0.1400566
3281.303, 0.9583594
3283.231, 1.732733
3285.160, 1.447476
3287.088, 1.923567
3289.017, 1.650159
3290.945, 1.430503
3292.874, 0.7911578
3294.802, -0.2952996
3296.731, -1.156321
3298.659, -0.6271986
3300.588, 1.562272
3302.516, 1.360283
3304.445, 0.6551093
3306.373, 0.4773928
3308.302, 0.8886897
3310.230, 0.6880831
3312.158, 0.6062121
3314.087, 1.798382
3316.015, 0.2488006
3317.944, 0.6083149
3319.872, 0.4561672
3321.801, 1.447247
3323.729, 1.361473
3325.658, 2.938787
3327.586, 1.571905
3329.515, 1.639958
3331.443, 1.436751
3333.372, 0.2859102
3335.300, -1.009364
3337.229, -1.847193
3339.157, -0.7727023
3341.085, 0.7862644
3343.014, 1.133307
3344.942, 1.265957
3346.871, 1.783593
3348.799, 1.394775
3350.728, 1.348084
3352.656, 0.5929936
3354.585, 0.7969574
3356.513, 0.3186603
3358.442, 0.2428428
3360.370, 1.331957
3362.299, 0.5137675
3364.227, 0.3894996
3366.156, 0.4117301
3368.084, -0.1297698
3370.012, 0.2818562
3371.941, -0.6248987
3373.869, 0.8392112
3375.798, 1.727729
3377.726, 1.959784
3379.655, 2.216317
3381.583, 0.8659868
3383.512, 2.030032
3385.440, 1.475199
3387.369, 2.064109
3389.297, 1.494467
3391.226, 0.6156862
3393.154, 1.273484
3395.083, 0.5114837
3397.011, 1.230202
3398.939, -6.7625232E-02
3400.868, -0.7129881
3402.796, -1.067057
3404.725, -1.242807
3406.653, -1.165148
3408.582, -0.9018192
3410.510, -0.2653419
3412.439, -6.3053541E-02
3414.367, 1.040732
3416.296, 1.287579
3418.224, 4.101996
3420.153, 3.719746
3422.081, -0.2677816
3424.010, 2.007886
3425.938, 1.582251
3427.866, 1.513982
3429.795, 2.186795
3431.723, 2.564019
3433.652, 2.161518
3435.580, 2.004347
3437.509, 1.748026
3439.437, 1.242720
3441.366, 1.382425
3443.294, 0.3802238
3445.223, 1.191085
3447.151, 1.183601
3449.080, 0.3952672
3451.008, -0.2720699
3452.937, -2.240512
3454.865, 0.5309408
3456.793, 1.048082
3458.722, -1.406726
##END=



