##NAMES=Gyrolite
##RRUFFID=R060163
##IDEAL CHEMISTRY=NaCa_16_(Si_23_Al)O_60_(OH)_8_·14H_2_O
##LOCALITY=Bombay, India
##OWNER=RRUFF
##SOURCE=Marcus Origlieri
##DESCRIPTION=Spherical aggregate of thin pseudohexagonal blades
##STATUS=The identification of this mineral has been confirmed by X-ray diffraction and chemical analysis
##URL=https://www.rruff.net/odr/rruff_sample/R060163
##MEASURED CHEMISTRY=(Ca_15.50_[box]_0.50_)(Si_23.00_Al_1.00_)O_60_(OH)_6_·14H_2_O
##DIFFRACTION SAMPLE DESCRIPTION=Powder
##CELL PARAMETERS=a: 9.8343 b: 9.814 c: 22.487 alpha: 96.35 beta: 92.24 gamma: 120.35 volume: 1850 crystal system: triclinic
##FILETYPE=Raman Processed
##RAMAN WAVELENGTH=780

133.5173, 69.78828
135.4458, 70.46310
137.3743, 71.10722
139.3027, 71.71884
141.2312, 72.26084
143.1597, 73.19422
145.0881, 73.34931
147.0166, 71.95166
148.9450, 69.89102
150.8735, 68.18092
152.8020, 66.78055
154.7304, 65.55115
156.6589, 64.43855
158.5874, 63.58641
160.5158, 63.19507
162.4443, 62.93769
164.3728, 62.47155
166.3012, 61.87313
168.2297, 61.43033
170.1582, 61.40986
172.0866, 61.07230
174.0151, 60.06556
175.9436, 58.96294
177.8720, 58.27214
179.8005, 57.78553
181.7290, 56.96208
183.6574, 55.40100
185.5859, 54.45398
187.5144, 54.25686
189.4428, 54.60144
191.3713, 55.51624
193.2998, 56.88868
195.2282, 58.60909
197.1567, 60.77888
199.0852, 62.89749
201.0136, 65.10149
202.9421, 67.06973
204.8706, 69.18026
206.7990, 70.60593
208.7275, 70.56131
210.6560, 68.99942
212.5844, 66.85769
214.5129, 63.75020
216.4414, 60.68960
218.3698, 57.58567
220.2983, 54.82254
222.2268, 52.66779
224.1552, 51.03381
226.0837, 49.59974
228.0122, 48.09259
229.9406, 47.53710
231.8691, 48.20692
233.7976, 49.44637
235.7260, 51.23100
237.6545, 53.23611
239.5830, 55.11803
241.5114, 56.86901
243.4399, 58.55600
245.3684, 60.15001
247.2968, 61.77502
249.2253, 63.59823
251.1538, 65.29557
253.0822, 66.47401
255.0107, 67.38763
256.9392, 68.86319
258.8676, 70.98089
260.7961, 73.07320
262.7246, 74.95353
264.6530, 77.08810
266.5815, 79.73344
268.5100, 82.68102
270.4384, 85.88885
272.3669, 89.32838
274.2954, 92.51243
276.2238, 95.68104
278.1523, 97.61900
280.0808, 98.12740
282.0092, 97.04006
283.9377, 93.74538
285.8662, 89.17924
287.7946, 84.58738
289.7231, 79.96655
291.6516, 76.18042
293.5800, 73.51396
295.5085, 70.96293
297.4370, 68.42419
299.3654, 65.66165
301.2939, 62.19038
303.2224, 58.47953
305.1508, 55.58657
307.0793, 53.44138
309.0078, 51.81464
310.9362, 50.90644
312.8647, 50.07620
314.7932, 49.02647
316.7216, 48.06562
318.6501, 47.49479
320.5786, 47.21796
322.5070, 46.84102
324.4355, 46.34969
326.3640, 46.20274
328.2924, 46.56381
330.2209, 47.14375
332.1494, 47.76916
334.0778, 48.70249
336.0063, 50.16032
337.9348, 52.08281
339.8632, 54.40890
341.7917, 57.18029
343.7202, 59.59071
345.6486, 61.64478
347.5771, 63.13362
349.5056, 64.17484
351.4340, 64.48772
353.3625, 63.68978
355.2910, 62.00727
357.2194, 59.77016
359.1479, 56.94427
361.0764, 54.04867
363.0048, 50.71218
364.9333, 47.95366
366.8618, 46.18987
368.7902, 44.74308
370.7187, 43.24642
372.6472, 41.78730
374.5756, 40.43072
376.5041, 39.17462
378.4326, 38.24542
380.3610, 37.75513
382.2895, 37.42092
384.2180, 37.24179
386.1464, 37.25187
388.0749, 37.52614
390.0034, 37.92027
391.9318, 38.29555
393.8603, 38.66536
395.7888, 39.09383
397.7172, 39.82983
399.6457, 39.99535
401.5742, 39.36556
403.5026, 38.56786
405.4311, 37.76656
407.3596, 36.91005
409.2880, 35.78599
411.2165, 34.63253
413.1450, 34.12801
415.0734, 34.38665
417.0019, 34.60995
418.9304, 34.72602
420.8588, 35.02136
422.7873, 35.78114
424.7158, 36.40750
426.6442, 36.35697
428.5727, 36.16614
430.5012, 36.53529
432.4296, 37.38066
434.3581, 37.92747
436.2866, 38.10616
438.2150, 38.36158
440.1435, 38.77345
442.0720, 39.19432
444.0004, 39.42639
445.9289, 39.79379
447.8574, 40.69738
449.7858, 41.75298
451.7143, 42.28149
453.6428, 42.29836
455.5712, 42.36491
457.4997, 42.56538
459.4282, 42.32554
461.3566, 41.37558
463.2851, 40.25742
465.2136, 39.21002
467.1420, 38.08135
469.0705, 36.54200
470.9990, 34.92698
472.9274, 33.93450
474.8559, 33.47536
476.7844, 33.03168
478.7128, 32.58643
480.6413, 32.12379
482.5698, 31.52899
484.4982, 31.12355
486.4267, 31.11861
488.3552, 31.19310
490.2836, 31.21455
492.2121, 31.10744
494.1406, 30.72627
496.0690, 30.16149
497.9975, 29.64074
499.9260, 29.18251
501.8544, 28.58270
503.7829, 27.82300
505.7114, 26.91228
507.6398, 25.59730
509.5683, 24.41125
511.4968, 23.73843
513.4252, 23.30473
515.3537, 22.81645
517.2822, 22.32725
519.2106, 21.91337
521.1391, 21.57140
523.0676, 21.37824
524.9960, 21.32256
526.9245, 21.47338
528.8530, 21.86196
530.7814, 22.41259
532.7099, 23.10694
534.6384, 23.95605
536.5668, 24.88155
538.4953, 25.99928
540.4238, 27.62299
542.3522, 29.67958
544.2807, 31.42406
546.2092, 32.59463
548.1376, 34.20149
550.0661, 35.94999
551.9946, 38.57752
553.9230, 42.04404
555.8515, 46.64754
557.7800, 52.62069
559.7084, 59.76044
561.6369, 68.32176
563.5654, 77.65715
565.4938, 86.88560
567.4223, 96.00293
569.3508, 102.7786
571.2792, 107.5957
573.2077, 108.1407
575.1362, 102.9284
577.0646, 96.73765
578.9931, 89.23720
580.9216, 83.43505
582.8500, 80.68714
584.7785, 80.86426
586.7070, 84.49144
588.6354, 90.61905
590.5639, 98.33665
592.4924, 107.2948
594.4208, 114.1684
596.3493, 119.2043
598.2778, 120.8006
600.2062, 118.7109
602.1347, 113.7628
604.0632, 105.1816
605.9916, 95.65178
607.9201, 85.34502
609.8486, 75.65576
611.7770, 67.16544
613.7055, 60.01304
615.6340, 54.50126
617.5624, 50.44227
619.4909, 47.33747
621.4194, 45.16140
623.3478, 43.41451
625.2763, 42.10974
627.2048, 40.97099
629.1332, 40.04091
631.0617, 39.05893
632.9902, 38.11584
634.9186, 36.79818
636.8471, 34.64371
638.7756, 32.45177
640.7040, 30.78699
642.6325, 29.42252
644.5610, 27.99074
646.4894, 26.61822
648.4179, 25.75949
650.3464, 25.32745
652.2748, 24.75988
654.2033, 24.00855
656.1318, 23.31260
658.0602, 22.69751
659.9887, 22.17147
661.9172, 21.80650
663.8456, 21.42214
665.7741, 20.83463
667.7026, 20.39215
669.6310, 20.39869
671.5595, 20.52960
673.4880, 20.52329
675.4164, 20.42787
677.3449, 20.21934
679.2734, 19.98406
681.2018, 19.98887
683.1303, 20.21516
685.0588, 20.38476
686.9872, 20.46426
688.9157, 20.63841
690.8442, 20.90934
692.7726, 21.27182
694.7011, 21.73837
696.6296, 22.28203
698.5580, 23.13291
700.4865, 23.74703
702.4149, 23.83295
704.3434, 23.57910
706.2719, 23.01644
708.2003, 22.29064
710.1288, 21.48416
712.0573, 20.65086
713.9857, 20.00257
715.9142, 19.53282
717.8427, 19.03922
719.7711, 18.49436
721.6996, 18.15638
723.6281, 18.10656
725.5565, 17.94234
727.4850, 17.54983
729.4135, 17.33760
731.3419, 17.48960
733.2704, 17.58970
735.1989, 17.36657
737.1273, 17.23877
739.0558, 17.59241
740.9843, 17.95107
742.9127, 17.93657
744.8412, 17.80105
746.7697, 17.79977
748.6981, 17.93299
750.6266, 18.22597
752.5551, 18.64691
754.4835, 19.00935
756.4120, 19.30355
758.3405, 19.59601
760.2689, 19.88035
762.1974, 20.13095
764.1259, 20.33334
766.0543, 20.77974
767.9828, 21.62654
769.9113, 22.26629
771.8397, 22.51224
773.7682, 22.60526
775.6967, 22.71913
777.6251, 22.56901
779.5536, 21.87024
781.4821, 21.05160
783.4105, 20.30554
785.3390, 19.66902
787.2675, 19.26994
789.1959, 18.97686
791.1244, 18.51874
793.0529, 18.00786
794.9813, 17.75570
796.9098, 17.70901
798.8383, 17.71464
800.7667, 17.76067
802.6952, 17.76563
804.6237, 17.72347
806.5521, 17.63629
808.4806, 17.49206
810.4091, 17.37427
812.3375, 17.28963
814.2660, 17.25366
816.1945, 17.27609
818.1229, 17.32760
820.0514, 17.49077
821.9799, 17.55218
823.9083, 17.34401
825.8368, 17.17355
827.7653, 17.18958
829.6937, 17.24490
831.6222, 17.32419
833.5507, 17.36197
835.4791, 17.22204
837.4076, 17.06984
839.3361, 17.14094
841.2645, 17.28590
843.1930, 17.29727
845.1215, 17.19392
847.0499, 17.02084
848.9784, 16.62220
850.9069, 16.78109
852.8353, 16.84196
854.7638, 16.81010
856.6923, 16.40771
858.6207, 16.48377
860.5492, 16.36809
862.4777, 16.24455
864.4061, 16.38795
866.3346, 16.03946
868.2631, 16.17862
870.1915, 16.12313
872.1200, 16.15672
874.0485, 15.99739
875.9769, 15.79209
877.9054, 15.58543
879.8339, 15.35879
881.7623, 15.16873
883.6908, 15.00458
885.6193, 14.89357
887.5477, 14.89943
889.4762, 14.89560
891.4047, 14.84227
893.3331, 14.74012
895.2616, 14.47165
897.1901, 14.26579
899.1185, 14.37574
901.0470, 14.51924
902.9755, 14.43512
904.9039, 14.27724
906.8324, 14.19909
908.7609, 14.18443
910.6893, 14.19891
912.6178, 14.20316
914.5463, 13.93738
916.4747, 14.13705
918.4032, 14.23870
920.3317, 14.24761
922.2601, 13.88600
924.1886, 14.00284
926.1171, 13.92793
928.0455, 13.84517
929.9740, 14.02935
931.9025, 13.72163
933.8309, 13.90158
935.7594, 13.88686
937.6879, 13.87680
939.6163, 13.69133
941.5448, 13.56123
943.4733, 13.50292
945.4017, 13.55524
947.3302, 13.72195
949.2587, 13.89782
951.1871, 14.09182
953.1156, 14.17731
955.0441, 14.12719
956.9725, 14.00705
958.9010, 13.76596
960.8295, 13.67458
962.7579, 13.82601
964.6864, 13.96541
966.6149, 14.11007
968.5433, 14.14764
970.4718, 13.85347
972.4003, 13.81130
974.3287, 14.33015
976.2572, 14.67599
978.1857, 14.62743
980.1141, 14.64621
982.0426, 14.76486
983.9711, 15.00397
985.8995, 15.44686
987.8280, 15.84706
989.7565, 16.09914
991.6849, 16.40531
993.6134, 16.81657
995.5419, 17.29102
997.4703, 17.78972
999.3988, 18.43700
1001.327, 19.32788
1003.256, 20.19978
1005.184, 20.89245
1007.113, 21.77258
1009.041, 22.97074
1010.970, 24.31299
1012.898, 25.69847
1014.827, 27.36581
1016.755, 29.51345
1018.683, 31.65587
1020.612, 33.51183
1022.540, 35.63337
1024.469, 38.48210
1026.397, 41.08058
1028.326, 43.07711
1030.254, 44.64855
1032.183, 45.82882
1034.111, 46.66402
1036.040, 47.20476
1037.968, 47.34697
1039.897, 46.62212
1041.825, 46.18385
1043.754, 46.43017
1045.682, 47.13300
1047.610, 48.48643
1049.539, 49.91528
1051.467, 51.55436
1053.396, 52.65019
1055.324, 53.22264
1057.253, 52.70953
1059.181, 50.76861
1061.110, 48.01181
1063.038, 44.23175
1064.967, 40.24064
1066.895, 36.04394
1068.824, 32.20476
1070.752, 28.86599
1072.681, 25.90650
1074.609, 23.32055
1076.537, 21.13450
1078.466, 19.43399
1080.394, 17.93539
1082.323, 16.59095
1084.251, 15.43500
1086.180, 14.46543
1088.108, 13.69310
1090.037, 13.12732
1091.965, 12.74585
1093.894, 12.61341
1095.822, 12.50391
1097.751, 12.43596
1099.679, 12.34326
1101.608, 12.17629
1103.536, 12.01453
1105.464, 11.84651
1107.393, 11.76088
1109.321, 11.82051
1111.250, 11.80976
1113.178, 11.66148
1115.107, 11.59500
1117.035, 11.67442
1118.964, 11.69091
1120.892, 11.60936
1122.821, 11.53245
1124.749, 11.47622
1126.678, 11.45445
1128.606, 11.44027
1130.535, 11.43756
1132.463, 11.46690
1134.391, 11.32039
1136.320, 11.00566
1138.248, 10.76714
1140.177, 10.62060
1142.105, 10.53718
1144.034, 10.47632
1145.962, 10.46212
1147.891, 10.49065
1149.819, 10.44768
1151.748, 10.40869
1153.676, 10.62914
1155.605, 10.95173
1157.533, 11.03173
1159.462, 10.95394
1161.390, 10.83434
1163.318, 10.67635
1165.247, 10.43611
1167.175, 10.23390
1169.104, 10.29180
1171.032, 10.37384
1172.961, 10.23804
1174.889, 10.00593
1176.818, 9.719332
1178.746, 9.509126
1180.675, 9.485956
1182.603, 9.497914
1184.532, 9.419526
1186.460, 9.414548
1188.389, 9.714337
1190.317, 9.865055
1192.245, 9.575267
1194.174, 9.360662
1196.102, 9.362945
1198.031, 9.362812
1199.959, 9.302407
1201.888, 9.354630
1203.816, 9.586899
1205.745, 9.676282
1207.673, 9.570598
1209.602, 9.535595
1211.530, 9.594286
1213.459, 9.538546
1215.387, 9.377579
1217.316, 9.399220
1219.244, 9.558873
1221.172, 9.605010
1223.101, 9.551875
1225.029, 9.317074
1226.958, 9.055555
1228.886, 9.270306
1230.815, 9.632066
1232.743, 9.583360
1234.672, 9.360343
1236.600, 9.196000
1238.529, 9.138224
1240.457, 9.211285
1242.386, 9.280661
1244.314, 9.314878
1246.243, 9.272808
1248.171, 9.042841
1250.099, 8.943994
1252.028, 9.205826
1253.956, 9.374871
1255.885, 9.277653
1257.813, 9.153398
1259.742, 9.051988
1261.670, 8.994571
1263.599, 8.961258
1265.527, 9.034840
1267.456, 9.236134
1269.384, 9.187513
1271.313, 8.947285
1273.241, 9.022254
1275.170, 9.267215
1277.098, 9.223987
1279.026, 9.034500
1280.955, 8.992764
1282.883, 9.028259
1284.812, 8.996649
1286.740, 8.981923
1288.669, 9.163027
1290.597, 9.331922
1292.526, 9.159284
1294.454, 9.007613
1296.383, 9.311133
1298.311, 9.446498
1300.240, 9.064886
1302.168, 8.940443
1304.097, 9.257429
1306.025, 9.394285
1307.953, 9.299743
1309.882, 9.268948
1311.810, 9.333430
1313.739, 9.458262
1315.667, 9.556674
1317.596, 9.525416
1319.524, 9.461345
1321.453, 9.404623
1323.381, 9.355631
1325.310, 9.414034
1327.238, 9.556352
1329.167, 9.689507
1331.095, 9.735907
1333.024, 9.745684
1334.952, 9.738962
1336.880, 9.617558
1338.809, 9.581102
1340.737, 9.757345
1342.666, 9.792072
1344.594, 9.609528
1346.523, 9.518325
1348.451, 9.525710
1350.380, 9.601877
1352.308, 9.742492
1354.237, 9.838117
1356.165, 9.843995
1358.094, 9.710073
1360.022, 9.610256
1361.951, 9.627030
1363.879, 9.649166
1365.807, 9.659283
1367.736, 9.677050
1369.664, 9.782451
1371.593, 9.842657
1373.521, 9.789021
1375.450, 9.776647
1377.378, 9.807076
1379.307, 9.739591
1381.235, 9.592170
1383.164, 9.528871
1385.092, 9.528110
1387.021, 9.544917
1388.949, 9.531661
1390.878, 9.408512
1392.806, 9.296195
1394.734, 9.363117
1396.663, 9.478563
1398.591, 9.468185
1400.520, 9.471221
1402.448, 9.576184
1404.377, 9.563231
1406.305, 9.372807
1408.234, 9.332641
1410.162, 9.498723
1412.091, 9.607434
1414.019, 9.598576
1415.948, 9.490993
1417.876, 9.417170
1419.805, 9.630853
1421.733, 9.767863
1423.661, 9.388598
1425.590, 9.111365
1427.518, 9.266798
1429.447, 9.394553
1431.375, 9.412279
1433.304, 9.466491
1435.232, 9.577966
1437.161, 9.630197
1439.089, 9.611773
1441.018, 9.565356
1442.946, 9.494312
1444.875, 9.415613
1446.803, 9.407836
1448.731, 9.503668
1450.660, 9.503351
1452.588, 9.367301
1454.517, 9.328714
1456.445, 9.380411
1458.374, 9.423399
1460.302, 9.441998
1462.231, 9.462524
1464.159, 9.499736
1466.088, 9.447659
1468.016, 9.388260
1469.945, 9.459847
1471.873, 9.535509
1473.802, 9.472585
1475.730, 9.381580
1477.658, 9.311696
1479.587, 9.259842
1481.515, 9.186548
1483.444, 8.705001
1485.372, 9.193579
1487.301, 9.475892
1489.229, 9.563006
1491.158, 8.870326
1493.086, 9.184592
1495.015, 9.095325
1496.943, 8.989500
1498.872, 9.445498
1500.800, 8.866231
1502.729, 9.347239
1504.657, 9.327167
1506.585, 9.220130
1508.514, 9.082930
1510.442, 8.945523
1512.371, 8.903204
1514.299, 8.956619
1516.228, 8.997502
1518.156, 8.977661
1520.085, 8.886309
1522.013, 8.879242
1523.942, 9.082790
1525.870, 9.091380
1527.799, 8.933587
1529.727, 9.036750
1531.656, 9.107579
1533.584, 8.946974
1535.512, 8.829150
1537.441, 8.854635
1539.369, 8.916434
1541.298, 9.000970
1543.226, 9.072434
1545.155, 9.073777
1547.083, 9.026892
1549.012, 8.939625
1550.940, 9.035839
1552.869, 9.291741
1554.797, 9.403977
1556.726, 9.422465
1558.654, 9.307302
1560.583, 9.155855
1562.511, 9.178263
1564.439, 9.227087
1566.368, 9.168042
1568.296, 9.138845
1570.225, 9.287053
1572.153, 9.297012
1574.082, 9.105733
1576.010, 9.137372
1577.939, 9.279406
1579.867, 9.379378
1581.796, 9.472973
1583.724, 9.359066
1585.653, 9.156397
1587.581, 9.117404
1589.510, 9.136514
1591.438, 9.081588
1593.366, 9.116886
1595.295, 9.271091
1597.223, 9.438502
1599.152, 9.460494
1601.080, 9.278768
1603.009, 9.171464
1604.937, 9.272127
1606.866, 9.479458
1608.794, 9.722368
1610.723, 9.734285
1612.651, 9.564768
1614.580, 9.475765
1616.508, 9.422684
1618.437, 9.465044
1620.365, 9.613095
1622.293, 9.671901
1624.222, 9.607659
1626.150, 9.505960
1628.079, 9.531754
1630.007, 9.656723
1631.936, 9.679182
1633.864, 9.633855
1635.793, 9.476749
1637.721, 9.308444
1639.650, 9.335236
1641.578, 9.424626
1643.507, 9.441263
1645.435, 9.282676
1647.364, 9.110959
1649.292, 9.235978
1651.220, 9.371541
1653.149, 9.252588
1655.077, 9.203233
1657.006, 9.281251
1658.934, 9.279079
1660.863, 9.333045
1662.791, 9.246704
1664.720, 8.998006
1666.648, 9.068145
1668.577, 9.239748
1670.505, 9.196247
1672.434, 9.115646
1674.362, 9.026254
1676.291, 8.935819
1678.219, 8.959674
1680.147, 8.892877
1682.076, 8.730412
1684.004, 8.708423
1685.933, 8.640958
1687.861, 8.535457
1689.790, 8.524412
1691.718, 8.516290
1693.647, 8.367399
1695.575, 8.097581
1697.504, 8.001362
1699.432, 8.084628
1701.361, 8.324108
1703.289, 8.401495
1705.218, 8.186234
1707.146, 8.070957
1709.074, 8.032187
1711.003, 7.979553
1712.931, 7.919415
1714.860, 7.974560
1716.788, 8.028210
1718.717, 7.791048
1720.645, 7.715417
1722.574, 7.844900
1724.502, 7.869492
1726.431, 7.837443
1728.359, 7.837658
1730.288, 7.924251
1732.216, 8.031098
1734.145, 7.999377
1736.073, 7.765184
1738.001, 7.726836
1739.930, 7.800987
1741.858, 7.670375
1743.787, 7.609275
1745.715, 7.664602
1747.644, 7.572969
1749.572, 7.459744
1751.501, 7.478117
1753.429, 7.506135
1755.358, 7.475623
1757.286, 7.474024
1759.215, 7.581500
1761.143, 7.561482
1763.072, 7.363521
1765.000, 7.294514
1766.928, 7.327414
1768.857, 7.277671
1770.785, 7.212158
1772.714, 7.272163
1774.642, 7.380454
1776.571, 7.443778
1778.499, 7.269300
1780.428, 7.044568
1782.356, 7.121448
1784.285, 7.122771
1786.213, 7.169191
1788.142, 7.252154
1790.070, 6.988769
1791.999, 6.807528
1793.927, 6.910100
1795.855, 7.035703
1797.784, 7.038909
1799.712, 7.115987
1801.641, 7.225206
1803.569, 7.295852
1805.498, 7.257777
1807.426, 7.069120
1809.355, 6.970841
1811.283, 6.952851
1813.212, 6.817996
1815.140, 6.680984
1817.069, 6.813788
1818.997, 6.906848
1820.926, 6.763326
1822.854, 6.717584
1824.782, 6.826376
1826.711, 6.978871
1828.639, 6.998944
1830.568, 6.740268
1832.496, 6.657155
1834.425, 6.754979
1836.353, 6.832358
1838.282, 6.795759
1840.210, 6.525764
1842.139, 6.418619
1844.067, 6.696147
1845.996, 6.885558
1847.924, 6.826424
1849.853, 6.773444
1851.781, 6.706919
1853.709, 6.570127
1855.638, 6.511793
1857.566, 6.495644
1859.495, 6.435494
1861.423, 6.460645
1863.352, 6.581996
1865.280, 6.508121
1867.209, 6.252752
1869.137, 6.272024
1871.066, 6.540896
1872.994, 6.577007
1874.923, 6.463261
1876.851, 6.368141
1878.780, 6.276849
1880.708, 6.240358
1882.636, 6.334527
1884.565, 6.381567
1886.493, 6.220949
1888.422, 6.139805
1890.350, 6.253755
1892.279, 6.413405
1894.207, 6.449144
1896.136, 6.189299
1898.064, 6.074694
1899.993, 6.280260
1901.921, 6.365061
1903.850, 6.273836
1905.778, 6.111837
1907.707, 5.996949
1909.635, 6.022420
1911.563, 6.079804
1913.492, 6.177561
1915.420, 6.219725
1917.349, 6.176764
1919.277, 6.088768
1921.206, 6.160175
1923.134, 6.249753
1925.063, 6.127382
1926.991, 6.063903
1928.920, 6.134132
1930.848, 6.223006
1932.777, 6.152406
1934.705, 6.128337
1936.634, 6.140193
1938.562, 6.038427
1940.490, 5.990289
1942.419, 6.142575
1944.347, 6.238731
1946.276, 6.139052
1948.204, 5.940299
1950.133, 5.770335
1952.061, 5.711710
1953.990, 5.720744
1955.918, 5.802116
1957.847, 5.832989
1959.775, 5.858697
1961.704, 5.737180
1963.632, 5.618741
1965.561, 5.795002
1967.489, 5.848462
1969.417, 5.550289
1971.346, 5.537398
1973.274, 5.760842
1975.203, 5.928494
1977.131, 5.967472
1979.060, 5.610433
1980.988, 5.456283
1982.917, 5.621107
1984.845, 5.694939
1986.774, 5.627166
1988.702, 5.521088
1990.631, 5.559927
1992.559, 5.616130
1994.488, 5.502409
1996.416, 5.451276
1998.344, 5.392325
2000.273, 5.338594
2002.201, 5.476449
2004.130, 5.485504
2006.058, 5.394545
2007.987, 5.440133
2009.915, 5.407629
2011.844, 5.191795
2013.772, 5.284682
2015.701, 5.397379
2017.629, 5.342542
2019.558, 5.367548
2021.486, 5.349711
2023.415, 5.372296
2025.343, 5.456316
2027.271, 5.258512
2029.200, 5.098666
2031.128, 5.115245
2033.057, 5.131940
2034.985, 5.118468
2036.914, 5.198161
2038.842, 5.139018
2040.771, 4.985837
2042.699, 4.967468
2044.628, 5.005444
2046.556, 5.179942
2048.485, 5.220252
2050.413, 4.992049
2052.342, 4.920667
2054.270, 5.077928
2056.198, 5.264497
2058.127, 5.330713
2060.055, 5.201361
2061.984, 4.910655
2063.912, 4.679326
2065.841, 4.821459
2067.769, 4.993320
2069.698, 4.984051
2071.626, 4.891950
2073.555, 4.850532
2075.483, 4.813163
2077.412, 4.749557
2079.340, 4.792634
2081.269, 4.821349
2083.197, 4.832210
2085.125, 4.734204
2087.054, 4.624536
2088.982, 4.831605
2090.911, 4.849690
2092.839, 4.740877
2094.768, 4.363154
2096.696, 4.824159
2098.625, 5.078884
2100.553, 5.138425
2102.482, 4.418158
2104.410, 4.704850
2106.339, 4.587994
2108.267, 4.454597
2110.196, 4.883009
2112.124, 4.276167
2114.052, 4.695674
2115.981, 4.705477
2117.909, 4.902794
2119.838, 4.694072
2121.766, 4.610765
2123.695, 4.933617
2125.623, 5.031579
2127.552, 4.776116
2129.480, 4.985352
2131.409, 4.364321
2133.337, 4.471862
2135.266, 4.893740
2137.194, 4.658697
2139.123, 4.875351
2141.051, 4.919978
2142.979, 4.182786
2144.908, 4.805250
2146.836, 4.839710
2148.765, 4.270408
2150.693, 4.846288
2152.622, 4.360220
2154.550, 4.253207
2156.479, 4.431447
2158.407, 4.312321
2160.336, 4.662030
2162.264, 4.560076
2164.193, 4.417762
2166.121, 4.451562
2168.050, 3.986319
2169.978, 4.446898
2171.906, 4.275066
2173.835, 4.417586
2175.763, 4.631365
2177.692, 4.299553
2179.620, 4.545346
2181.549, 3.895413
2183.477, 3.994968
2185.406, 4.013813
2187.334, 4.511716
2189.263, 3.866149
2191.191, 3.944880
2193.120, 4.331999
2195.048, 4.287611
2196.977, 4.423635
2198.905, 4.025551
2200.833, 4.129226
2202.762, 4.094593
2204.690, 4.537881
2206.619, 4.603870
2208.547, 4.214849
2210.476, 3.827751
2212.404, 4.305434
2214.333, 3.963468
2216.261, 4.063696
2218.190, 3.707231
2220.118, 3.745087
2222.047, 3.776684
2223.975, 4.010423
2225.904, 3.631226
2227.832, 4.047102
2229.760, 4.003450
2231.689, 4.095156
2233.617, 4.171808
2235.546, 3.631812
2237.474, 3.597320
2239.403, 4.286143
2241.331, 3.871873
2243.260, 3.680240
2245.188, 3.646884
2247.117, 4.360479
2249.045, 4.379793
2250.974, 3.569214
2252.902, 4.249898
2254.831, 4.013127
2256.759, 4.048996
2258.688, 3.985393
2260.616, 3.951239
2262.544, 3.542550
2264.473, 3.627423
2266.401, 4.113615
2268.330, 3.915617
2270.258, 4.182527
2272.187, 3.602172
2274.115, 3.524739
2276.044, 3.580795
2277.972, 3.685543
2279.901, 3.401277
2281.829, 3.894977
2283.758, 3.870683
2285.686, 3.397515
2287.615, 3.411282
2289.543, 3.344204
2291.471, 4.118814
2293.400, 3.736196
2295.328, 3.271638
2297.257, 3.724468
2299.185, 3.883260
2301.114, 3.644521
2303.042, 3.617019
2304.971, 3.188764
2306.899, 3.375082
2308.828, 3.350030
2310.756, 3.673235
2312.685, 3.246591
2314.613, 3.683178
2316.542, 3.276648
2318.470, 3.748186
2320.398, 3.323833
2322.327, 3.697540
2324.255, 3.118649
2326.184, 3.229241
2328.112, 3.394490
2330.041, 3.736256
2331.969, 3.399368
2333.898, 3.783005
2335.826, 3.534333
2337.755, 3.697225
2339.683, 3.631899
2341.612, 3.280924
2343.540, 3.735604
2345.469, 3.455491
2347.397, 3.671533
2349.325, 3.083953
2351.254, 3.473289
2353.182, 3.652315
2355.111, 3.788005
2357.039, 3.741475
2358.968, 3.613735
2360.896, 3.613421
2362.825, 3.400437
2364.753, 2.876914
2366.682, 2.997736
2368.610, 3.313487
2370.539, 3.532608
2372.467, 3.097554
2374.396, 3.366512
2376.324, 3.318496
2378.252, 3.570440
2380.181, 3.247383
2382.109, 3.608884
2384.038, 3.049974
2385.966, 3.480996
2387.895, 3.643419
2389.823, 2.794797
2391.752, 3.233184
2393.680, 3.174577
2395.609, 3.165969
2397.537, 3.100559
2399.466, 2.991240
2401.394, 3.022160
2403.323, 3.030609
2405.251, 2.949422
2407.179, 2.905891
2409.108, 2.924022
2411.036, 3.041821
2412.965, 2.883675
2414.893, 2.753065
2416.822, 3.031627
2418.750, 3.137320
2420.679, 3.063307
2422.607, 2.865644
2424.536, 2.807468
2426.464, 2.903254
2428.393, 2.814987
2430.321, 2.719665
2432.250, 2.713445
2434.178, 2.661801
2436.106, 2.650350
2438.035, 2.738711
2439.963, 2.879478
2441.892, 2.956607
2443.820, 2.881918
2445.749, 2.823355
2447.677, 2.809612
2449.606, 2.864705
2451.534, 2.855823
2453.463, 2.780310
2455.391, 2.577436
2457.320, 2.522175
2459.248, 2.642310
2461.177, 2.793102
2463.105, 2.845191
2465.033, 2.731368
2466.962, 2.749210
2468.890, 2.713948
2470.819, 2.439057
2472.747, 2.690284
2474.676, 2.924212
2476.604, 2.573569
2478.533, 2.433917
2480.461, 2.441767
2482.390, 2.502393
2484.318, 2.529207
2486.247, 2.528049
2488.175, 2.490608
2490.104, 2.493797
2492.032, 2.554060
2493.960, 2.510291
2495.889, 2.440910
2497.817, 2.425950
2499.746, 2.548445
2501.674, 2.659997
2503.603, 2.670072
2505.531, 2.651644
2507.460, 2.683960
2509.388, 2.741987
2511.317, 2.534276
2513.245, 2.340301
2515.174, 2.403235
2517.102, 2.291904
2519.031, 2.204462
2520.959, 2.449425
2522.887, 2.358178
2524.816, 2.181073
2526.744, 2.420242
2528.673, 2.498185
2530.601, 2.467958
2532.530, 2.446170
2534.458, 2.477947
2536.387, 2.588440
2538.315, 2.293120
2540.244, 2.207620
2542.172, 2.321083
2544.101, 2.084433
2546.029, 2.102761
2547.958, 2.328360
2549.886, 2.089585
2551.814, 2.128846
2553.743, 2.442005
2555.671, 2.254979
2557.600, 2.155352
2559.528, 2.269681
2561.457, 2.247485
2563.385, 2.221015
2565.314, 2.235834
2567.242, 2.288258
2569.171, 2.297526
2571.099, 2.118999
2573.028, 2.323666
2574.956, 2.466965
2576.885, 2.335748
2578.813, 2.382924
2580.741, 2.360435
2582.670, 2.508973
2584.598, 2.368777
2586.527, 2.087604
2588.455, 2.000081
2590.384, 2.118514
2592.312, 2.248698
2594.241, 2.386955
2596.169, 2.472075
2598.098, 2.342011
2600.026, 2.126058
2601.955, 2.227167
2603.883, 2.307794
2605.812, 2.211038
2607.740, 2.153434
2609.668, 2.150720
2611.597, 2.134031
2613.525, 2.204820
2615.454, 2.266179
2617.382, 2.154326
2619.311, 2.086236
2621.239, 2.068110
2623.168, 2.085438
2625.096, 2.044220
2627.025, 1.947595
2628.953, 1.986177
2630.882, 1.957746
2632.810, 2.047785
2634.739, 2.336847
2636.667, 2.209754
2638.595, 1.982481
2640.524, 1.986940
2642.452, 2.125968
2644.381, 2.117903
2646.309, 1.873705
2648.238, 1.897228
2650.166, 1.872515
2652.095, 1.802715
2654.023, 1.938573
2655.952, 2.097977
2657.880, 2.115633
2659.809, 1.998032
2661.737, 1.946951
2663.666, 1.992418
2665.594, 1.708982
2667.522, 1.651582
2669.451, 1.915995
2671.379, 1.754203
2673.308, 1.781317
2675.236, 2.050387
2677.165, 2.020039
2679.093, 1.843913
2681.022, 1.713207
2682.950, 1.822137
2684.879, 1.940005
2686.807, 2.038291
2688.736, 1.844235
2690.664, 1.763851
2692.593, 1.748844
2694.521, 1.908905
2696.449, 1.862970
2698.378, 1.784019
2700.306, 1.856966
2702.235, 1.768631
2704.163, 1.732531
2706.092, 1.964401
2708.020, 1.896334
2709.949, 1.774477
2711.877, 1.673931
2713.806, 1.767388
2715.734, 1.833992
2717.663, 1.820947
2719.591, 1.605216
2721.520, 1.555085
2723.448, 1.691754
2725.376, 1.551796
2727.305, 1.576121
2729.233, 1.823282
2731.162, 2.043235
2733.090, 2.015481
2735.019, 1.867612
2736.947, 1.780433
2738.876, 1.612021
2740.804, 1.617634
2742.733, 1.785951
2744.661, 1.581371
2746.590, 1.588530
2748.518, 1.791785
2750.447, 1.758737
2752.375, 1.781246
2754.303, 1.575977
2756.232, 1.703505
2758.160, 1.894870
2760.089, 1.741999
2762.017, 1.576486
2763.946, 1.594150
2765.874, 1.728385
2767.803, 1.835045
2769.731, 1.859912
2771.660, 1.689816
2773.588, 1.372371
2775.517, 1.477014
2777.445, 1.685046
2779.374, 1.626963
2781.302, 1.553099
2783.230, 1.539999
2785.159, 1.591694
2787.087, 1.465628
2789.016, 1.578425
2790.944, 1.821715
2792.873, 1.377393
2794.801, 1.306306
2796.730, 1.680990
2798.658, 1.544656
2800.587, 1.668188
2802.515, 1.902282
2804.444, 1.769913
2806.372, 1.645301
2808.301, 1.544424
2810.229, 1.565750
2812.157, 1.664580
2814.086, 1.730129
2816.014, 1.721266
2817.943, 1.735080
2819.871, 1.669550
2821.800, 1.531543
2823.728, 1.241075
2825.657, 1.179712
2827.585, 1.353874
2829.514, 1.632203
2831.442, 1.568105
2833.371, 1.484851
2835.299, 1.746582
2837.228, 1.428610
2839.156, 1.315625
2841.084, 1.472155
2843.013, 1.316503
2844.941, 1.240889
2846.870, 1.337234
2848.798, 1.413536
2850.727, 1.465662
2852.655, 1.519605
2854.584, 1.346348
2856.512, 1.041484
2858.441, 0.9673325
2860.369, 1.082222
2862.298, 1.187883
2864.226, 1.432759
2866.155, 1.430106
2868.083, 1.322352
2870.011, 1.418891
2871.940, 1.442460
2873.868, 1.580544
2875.797, 1.497264
2877.725, 1.296895
2879.654, 1.314883
2881.582, 1.423110
2883.511, 1.199995
2885.439, 1.074921
2887.368, 1.437527
2889.296, 1.574126
2891.225, 1.645147
2893.153, 1.616682
2895.082, 1.406914
2897.010, 1.223877
2898.938, 1.095080
2900.867, 1.334903
2902.795, 1.660002
2904.724, 1.578726
2906.652, 1.143516
2908.581, 1.422067
2910.509, 1.410873
2912.438, 1.359576
2914.366, 1.550808
2916.295, 1.583648
2918.223, 1.449482
2920.152, 1.008504
2922.080, 1.109730
2924.008, 1.249163
2925.937, 1.177660
2927.865, 1.404647
2929.794, 1.338411
2931.722, 1.185897
2933.651, 1.235930
2935.579, 1.208843
2937.508, 1.254607
2939.436, 1.102100
2941.365, 1.127394
2943.293, 1.217113
2945.221, 1.197842
2947.150, 1.504669
2949.078, 1.595317
2951.007, 1.480796
2952.935, 1.413918
2954.864, 0.9300817
2956.792, 0.9403956
2958.721, 1.242570
2960.649, 1.131397
2962.578, 0.8162064
2964.506, 0.8737447
2966.435, 1.163088
2968.363, 1.434488
2970.292, 1.482173
2972.220, 1.351566
2974.148, 1.210344
2976.077, 1.202115
2978.005, 1.381660
2979.934, 1.569905
2981.862, 1.268443
2983.791, 1.254076
2985.719, 1.567873
2987.648, 1.647332
2989.576, 1.327818
2991.505, 1.205633
2993.433, 1.310741
2995.362, 1.372543
2997.290, 1.252954
2999.219, 1.204328
3001.147, 1.283935
3003.075, 1.172092
3005.004, 1.163733
3006.932, 1.124750
3008.861, 1.164746
3010.789, 1.186011
3012.718, 1.249329
3014.646, 1.295648
3016.575, 1.347077
3018.503, 1.457622
3020.432, 1.421146
3022.360, 1.242833
3024.289, 1.274661
3026.217, 1.172486
3028.146, 1.108327
3030.074, 1.067973
3032.002, 1.370500
3033.931, 1.469319
3035.859, 1.318731
3037.788, 1.385416
3039.716, 1.295891
3041.645, 1.150025
3043.573, 1.400813
3045.502, 1.586009
3047.430, 1.506744
3049.359, 1.369722
3051.287, 1.282046
3053.216, 1.255030
3055.144, 1.205475
3057.073, 1.073543
3059.001, 1.061563
3060.929, 1.300356
3062.858, 1.391824
3064.786, 1.131878
3066.715, 1.263516
3068.643, 1.067620
3070.572, 0.6299993
3072.500, 0.9279195
3074.429, 0.8268403
3076.357, 0.7854226
3078.286, 1.092816
3080.214, 1.164979
3082.143, 1.144070
3084.071, 1.111443
3086.000, 0.9358295
3087.928, 1.011855
3089.856, 1.038029
3091.785, 1.055176
3093.713, 1.112611
3095.642, 1.283200
3097.570, 1.278436
3099.499, 1.171513
3101.427, 1.126794
3103.356, 1.207218
3105.284, 1.038911
3107.213, 0.8172633
3109.141, 1.262372
3111.070, 1.367156
3112.998, 1.217746
3114.927, 0.9041895
3116.855, 1.217497
3118.783, 1.133930
3120.712, 1.056184
3122.640, 1.244883
3124.569, 1.221298
3126.497, 1.136722
3128.426, 0.9348359
3130.354, 0.9221737
3132.283, 1.323726
3134.211, 1.146575
3136.140, 0.7793325
3138.068, 0.9456108
3139.997, 1.197112
3141.925, 1.173014
3143.854, 1.107427
3145.782, 1.558163
3147.710, 1.551123
3149.639, 1.372306
3151.567, 1.245225
3153.496, 1.317319
3155.424, 1.141088
3157.353, 1.132840
3159.281, 1.292694
3161.210, 1.350471
3163.138, 1.387947
3165.067, 1.301148
3166.995, 1.097652
3168.924, 0.6833686
3170.852, 1.153610
3172.781, 1.526450
3174.709, 1.418563
3176.637, 1.306055
3178.566, 0.9821721
3180.494, 0.8767158
3182.423, 1.094510
3184.351, 1.022239
3186.280, 0.8822066
3188.208, 0.7955598
3190.137, 0.8006636
3192.065, 0.9849436
3193.994, 1.175455
3195.922, 1.204929
3197.851, 1.039426
3199.779, 0.9110308
3201.708, 1.248824
3203.636, 1.538356
3205.564, 1.444725
3207.493, 0.8157111
3209.421, 1.074077
3211.350, 1.206506
3213.278, 0.8664501
3215.207, 0.9042133
3217.135, 0.8432912
3219.064, 0.9280980
3220.992, 1.123601
3222.921, 0.8430378
3224.849, 0.9125392
3226.778, 1.062522
3228.706, 1.153450
3230.635, 1.088084
3232.563, 1.190811
3234.491, 1.262219
3236.420, 1.198052
3238.348, 1.125749
3240.277, 0.9150116
3242.205, 0.7418075
3244.134, 0.6957721
3246.062, 0.8327134
3247.991, 0.8419087
3249.919, 0.7592030
3251.848, 0.6644768
3253.776, 0.5999889
3255.705, 1.313880
3257.633, 1.251349
3259.562, 0.8664263
3261.490, 0.7915983
3263.418, 1.195666
3265.347, 1.222871
3267.275, 0.9875597
3269.204, 0.7123542
3271.132, 0.6070678
3273.061, 0.8625408
3274.989, 1.285612
3276.918, 1.495886
3278.846, 0.9944195
3280.775, 1.253632
3282.703, 1.366891
3284.632, 1.196136
3286.560, 0.9485096
3288.489, 0.6553564
3290.417, 0.6546833
3292.345, 0.9204028
3294.274, 1.258840
3296.202, 0.9900214
3298.131, 0.7648249
3300.059, 0.7556037
3301.988, 0.8661585
3303.916, 0.7452438
3305.845, 0.5639125
3307.773, 0.6233696
3309.702, 0.8118247
3311.630, 0.8161676
3313.559, 0.9553376
3315.487, 1.143698
3317.416, 1.194930
3319.344, 1.058399
3321.272, 0.9440854
3323.201, 0.9317116
3325.129, 0.9660723
3327.058, 0.9498308
3328.986, 0.7143320
3330.915, 0.5971699
3332.843, 0.7063408
3334.772, 0.8820453
3336.700, 0.9273631
3338.629, 0.9138050
3340.557, 1.043632
3342.486, 1.032032
3344.414, 0.8010157
3346.343, 0.8320333
3348.271, 0.9384937
3350.199, 1.079567
3352.128, 1.137574
3354.056, 0.9949786
3355.985, 0.9848385
3357.913, 0.9430166
3359.842, 0.7480242
3361.770, 0.4936768
3363.699, 0.7963231
3365.627, 0.8290348
3367.556, 0.9965703
3369.484, 1.136371
3371.413, 0.6782348
3373.341, 0.8158910
3375.270, 0.9125184
3377.198, 0.8998628
3379.126, 0.8467343
3381.055, 0.8004951
3382.983, 1.126326
3384.912, 1.149495
3386.840, 0.9150466
3388.769, 0.8008081
3390.697, 0.7607750
3392.626, 0.7497318
3394.554, 0.9956343
3396.483, 1.240980
3398.411, 0.6297939
3400.340, 0.8969650
3402.268, 1.094140
3404.197, 1.030025
3406.125, 0.8785636
3408.053, 0.8830497
3409.982, 0.9390667
3411.910, 0.9758908
3413.839, 1.004051
3415.767, 1.049907
3417.696, 0.8246342
3419.624, 0.7730035
3421.553, 0.9600936
3423.481, 1.153615
3425.410, 0.8146914
3427.338, 0.5533523
3429.267, 0.3216554
3431.195, 0.2759965
3433.124, 0.5068809
3435.052, 0.8009211
3436.980, 1.169849
3438.909, 0.9826641
3440.837, 0.6721212
3442.766, 0.8380639
3444.694, 1.016923
3446.623, 0.8315297
3448.551, 0.6954033
3450.480, 0.6653458
3452.408, 0.5661379
3454.337, 0.9013215
3456.265, 0.8303152
3458.194, 0.4394981
3460.122, 0.2530294
3462.051, 0.8088477
3463.979, 0.4976008
3465.907, 0.9520178
3467.836, 0.9362959
3469.764, 0.4212917
3471.693, 1.006482
3473.621, 0.5212476
3475.550, 0.6298805
3477.478, 0.8225827
3479.407, 0.7151092
3481.335, 0.7964870
3483.264, 0.5367706
3485.192, 0.7188499
3487.121, 0.8992954
3489.049, 0.8059148
3490.978, 0.8948223
3492.906, 0.6917120
3494.834, 0.7012256
3496.763, 0.5421680
3498.691, 0.2822563
3500.620, 0.9939069
3502.548, 1.072080
3504.477, 0.8433529
3506.405, 0.5791420
3508.334, 0.5326574
3510.262, 0.9474350
3512.191, 0.3332759
3514.119, 0.2132174
3516.048, 0.3918329
3517.976, 0.6010551
3519.905, 0.8912131
3521.833, 0.5492868
3523.761, 0.3470349
3525.690, 0.2134483
3527.618, 0.2159093
3529.547, 0.5804399
3531.475, 0.8049423
3533.404, 0.6017123
3535.332, 0.6687869
3537.261, 1.020454
3539.189, 1.234543
3541.118, 1.025688
3543.046, 0.8176572
3544.975, 0.8589907
3546.903, 0.8281730
3548.832, 0.5203855
3550.760, 0.8502725
3552.688, 0.4573838
3554.617, 0.6000744
3556.545, 0.9550130
3558.474, 1.029032
3560.402, 0.9105852
3562.331, 1.256750
3564.259, 1.031560
3566.188, 0.8490808
3568.116, 0.8570064
3570.045, 0.5845467
3571.973, 0.3676525
3573.902, 0.7235030
3575.830, 0.8973963
3577.759, 0.7023099
3579.687, 0.3888012
3581.615, 0.2604010
3583.544, 0.5318974
3585.472, 1.178989
3587.401, 1.085615
3589.329, 0.5009307
3591.258, 1.135958
3593.186, 1.405126
3595.115, 0.6951353
3597.043, 0.7464498
3598.972, 1.296438
3600.900, 1.345308
3602.829, 1.331588
3604.757, 1.377226
3606.686, 1.572469
3608.614, 1.481624
3610.542, 1.129722
3612.471, 1.138765
3614.399, 1.862467
3616.328, 1.953844
3618.256, 1.751633
3620.185, 1.838026
3622.113, 2.223858
3624.042, 1.961193
3625.970, 2.366796
3627.899, 2.066483
3629.827, 1.755571
3631.756, 1.851853
3633.684, 2.049335
3635.613, 1.556047
3637.541, 1.263729
3639.469, 1.775766
3641.398, 1.823707
3643.326, 1.127872
3645.255, 0.8538101
3647.183, 0.8303719
3649.112, 0.8157108
3651.040, 0.9407238
3652.969, 0.9466778
3654.897, 0.7943820
3656.826, 0.9633984
3658.754, 1.304077
3660.683, 0.9149233
3662.611, 0.5812629
3664.540, 0.5126646
3666.468, 0.5558862
3668.396, 0.6755064
3670.325, 0.5875431
3672.253, 0.6557968
3674.182, 0.7481951
3676.110, 0.8004325
3678.039, 0.7228552
3679.967, 0.2601191
3681.896, 0.5802728
3683.824, 0.1351769
3685.753, -2.5483770E-02
3687.681, 0.1825755
3689.610, 0.3652444
3691.538, 0.6385392
3693.467, 0.6821635
3695.395, 0.4737769
3697.323, 0.5819738
3699.252, 0.5708155
3701.180, 0.2217628
3703.109, 0.2894794
3705.037, 1.5281820E-02
3706.966, 9.3786001E-02
3708.894, 0.5297856
3710.823, 0.7952603
3712.751, 0.6678794
3714.680, 0.4479428
3716.608, 0.1622241
3718.537, 0.3927847
3720.465, 0.4858805
3722.394, 0.3993640
3724.322, 0.2685237
3726.250, 0.1941400
3728.179, 0.4899048
3730.107, 0.3492029
3732.036, 4.5399621E-02
3733.964, 0.3117452
3735.893, 0.6060253
3737.821, 0.2629500
3739.750, -6.0813390E-02
3741.678, 0.1366722
3743.607, -0.2216965
3745.535, 0.1343171
3747.464, 0.7115987
3749.392, 0.8639470
3751.321, 0.7490645
3753.249, 0.4486419
3755.177, 0.1059237
3757.106, 0.1848473
3759.034, 0.2662379
3760.963, 0.1740829
3762.891, 0.1509640
3764.820, 0.6260880
3766.748, 0.5864063
3768.677, 0.6632780
3770.605, 0.4886775
3772.534, 0.5860310
3774.462, 0.6359571
3776.391, 2.9253131E-03
3778.319, 0.4266852
3780.248, 2.2867011E-02
3782.176, 0.4191879
3784.104, 0.6268638
3786.033, 0.2326780
3787.961, -4.2418979E-02
3789.890, 0.4788502
3791.818, -0.2065934
3793.747, 0.3007662
3795.675, 0.3538217
3797.604, 0.2617728
3799.532, 0.1262523
3801.461, -3.3459261E-02
3803.389, 3.3267539E-02
3805.318, 0.1748758
3807.246, -9.5072657E-02
3809.175, 0.1767131
3811.103, 7.8618638E-02
3813.031, -6.8487681E-02
3814.960, 0.1518750
3816.888, 0.3586104
3818.817, 0.8045166
3820.745, 0.2096785
3822.674, -8.8911407E-02
3824.602, 8.3527736E-02
3826.531, 0.2415328
3828.459, 0.1362107
3830.388, -1.6715240E-03
3832.316, 0.3994109
3834.245, 0.1868103
3836.173, -0.2008351
3838.102, 0.2073424
3840.030, 0.3723423
3841.958, 0.2087720
3843.887, 0.3538992
3845.815, -6.0768150E-02
3847.744, 0.5608490
3849.672, -6.1459010E-03
3851.601, -4.0492881E-02
3853.529, 0.3120911
3855.458, 0.3070828
3857.386, 0.1012448
3859.315, 0.4765566
3861.243, 0.5379671
3863.172, -0.1437467
3865.100, 0.2759979
3867.029, 0.4695881
3868.957, 0.4405002
3870.885, 0.5745345
3872.814, 0.6731378
3874.742, 0.1546993
3876.671, 0.3551973
3878.599, -0.1122385
3880.528, 0.3623174
3882.456, 0.4964964
3884.385, 0.3587375
3886.313, 2.3109050E-02
3888.242, -0.6778634
3890.170, -5.0302640E-02
3892.099, 0.1292822
3894.027, -0.1346113
3895.956, 0.4162089
3897.884, 0.4579073
3899.813, 0.2773508
3901.741, 0.2685723
3903.669, 0.1075047
3905.598, 0.4163304
3907.526, 0.2295849
3909.455, 0.5754375
3911.383, 0.4029342
3913.312, -0.1594722
3915.240, -0.2034636
3917.169, 4.8780449E-02
3919.097, -9.9126592E-02
3921.026, 0.2479668
3922.954, -0.3372234
3924.883, -0.1845434
3926.811, 0.1685917
3928.740, 0.1064914
3930.668, 0.4608320
3932.596, 0.5852035
3934.525, 1.4246850E-02
3936.453, 0.2759320
3938.382, 0.1482242
3940.310, 0.2537062
3942.239, 0.1133391
3944.167, -1.8950710E-02
3946.096, 0.1385406
3948.024, 0.3782025
3949.953, 0.3925354
3951.881, 0.1307861
3953.810, -0.1343787
3955.738, 0.2134152
3957.667, 0.2284417
3959.595, 0.3852500
3961.523, 7.2220027E-02
3963.452, -6.6207950E-03
3965.380, -2.0588670E-02
3967.309, 7.3510231E-03
3969.237, 0.2797369
3971.166, -0.1001994
3973.094, 6.3441079E-03
3975.023, 0.3284490
3976.951, -4.3781482E-02
3978.880, 0.5102847
3980.808, 3.8623851E-02
3982.737, 7.9317667E-02
3984.665, -0.1025809
3986.594, -0.1051728
3988.522, 0.1465349
3990.450, 0.2022023
3992.379, 2.9898681E-02
3994.307, 0.2096913
3996.236, -8.0624614E-03
3998.164, 3.7018821E-02
4000.093, 6.6090323E-02
4002.021, 0.1276986
4003.950, 0.3005077
4005.878, 0.2173305
4007.807, -6.0118940E-02
4009.735, -4.0851150E-02
4011.664, 1.6116509E-02
4013.592, 5.4246191E-02
4015.521, 0.1228269
4017.449, 0.1278895
4019.377, -0.2439570
4021.306, -1.4373250E-02
4023.234, 0.1917701
4025.163, 0.2856472
4027.091, 0.5316465
4029.020, 0.1378989
4030.948, 0.1974201
4032.877, 0.4755138
4034.805, -0.2774526
4036.734, 6.2491588E-02
4038.662, -8.1270851E-02
4040.591, 1.8676691E-02
4042.519, 0.4477831
4044.448, 0.5149482
4046.376, 0.2456128
4048.304, 0.1336536
4050.233, -0.3902708
4052.161, 0.3044930
4054.090, -0.1064387
4056.018, -0.3180201
4057.947, -0.4519399
4059.875, 7.4198231E-02
4061.804, 0.1783627
4063.732, -3.3647310E-02
4065.661, 0.1621243
4067.589, 4.4220700E-03
4069.518, 5.0895680E-02
4071.446, -0.4568854
4073.375, -0.2757921
4075.303, -1.5473570E-02
4077.231, -8.2840830E-02
4079.160, -0.2483928
4081.088, 3.2642230E-02
4083.017, 0.2182559
4084.945, -1.1939790E-02
4086.874, -0.1118865
4088.802, 0.1149444
4090.731, 0.4465562
4092.659, 0.2691145
4094.588, 0.2762691
4096.516, -6.4363137E-02
4098.444, 0.1522151
4100.373, 0.4998683
4102.301, 0.3639954
4104.230, -0.2391525
4106.158, -0.2389475
4108.087, 9.1790147E-02
4110.015, -0.7306105
4111.944, 6.6563539E-02
4113.872, -0.5466884
4115.801, 0.3702329
4117.729, -7.7419557E-02
4119.658, -0.1253838
4121.586, -0.3347052
4123.515, 0.3751769
4125.443, 0.4599441
4127.372, -4.2952150E-02
4129.300, -0.2281028
4131.229, -0.1383076
4133.157, 0.4156611
4135.085, 0.4268393
4137.014, 8.7049328E-02
4138.942, -0.5060410
4140.871, -0.1949123
4142.799, -0.2238166
4144.728, 7.8007624E-02
4146.656, 0.2039143
4148.584, 0.3077578
4150.513, -3.9824020E-02
4152.441, -0.6763631
4154.370, -0.3406202
4156.298, 0.5925633
4158.227, -0.1477116
4160.155, -0.1399007
4162.084, 6.6578478E-02
4164.012, 8.6487249E-02
4165.941, 0.3424966
4167.869, 0.2730062
4169.798, -9.5816953E-03
4171.726, 0.3098063
4173.655, 0.5495937
4175.583, 4.0576130E-02
4177.512, -0.3989818
4179.440, -0.1421728
4181.369, -2.1823859E-03
4183.297, -0.3960586
4185.226, -0.1826085
4187.154, -0.1108281
4189.083, -0.2540777
4191.011, 0.1088343
4192.939, -0.3833262
4194.868, -0.2928213
4196.796, -0.1083177
4198.725, 0.2719411
4200.653, 0.2048695
4202.582, 0.2958301
4204.510, 0.1055285
4206.438, -0.2454045
4208.367, -6.9504738E-02
4210.295, 0.1334740
4212.224, -9.3329787E-02
4214.152, -0.2680840
4216.081, 0.2165131
4218.009, 0.2457014
4219.938, -2.5688310E-03
4221.866, -0.6641549
4223.795, 0.1693832
4225.723, -0.1816028
4227.652, 0.2735278
4229.580, -0.1857824
4231.509, 0.3030978
4233.437, -9.2895441E-02
4235.366, -0.3339171
4237.294, -0.1497982
4239.223, -0.3482093
4241.151, -0.1644004
4243.080, -0.3210932
4245.008, -0.2036213
4246.937, -0.1424596
4248.865, -0.1253536
4250.793, 0.1210798
4252.722, 1.7975541E-02
4254.650, 2.2609530E-02
4256.579, -0.2447342
4258.507, 0.1210228
4260.436, -0.1666402
4262.364, -8.8465013E-02
4264.292, 4.9908601E-02
4266.221, 4.4299491E-02
4268.149, 0.1291528
4270.078, 0.4835199
4272.006, 0.3159429
4273.935, 0.2113374
4275.863, 0.4774573
4277.792, -0.1804530
4279.720, -0.4130988
4281.649, 0.1198135
4283.577, -0.2615331
4285.506, 0.5479025
4287.434, 0.6295068
4289.363, 0.3434917
4291.291, 0.1200931
4293.220, 0.3356950
4295.148, 7.3231578E-02
4297.077, -1.2366520E-02
4299.005, 8.4742077E-02
4300.934, 0.1329786
4302.862, -0.1330598
4304.791, 5.4111779E-02
4306.719, 0.3617665
4308.647, 0.2881981
4310.576, -0.1567940
4312.504, 4.4664599E-02
4314.433, 4.9780190E-02
4316.361, -0.3447812
4318.290, -7.1957327E-02
4320.218, 0.1549448
4322.146, 0.3973637
4324.075, -0.2642080
4326.003, 1.2301940E-02
4327.932, -1.4030870E-02
4329.860, -4.7347449E-02
4331.789, 0.6604301
4333.717, 2.7356140E-02
4335.646, 0.1065984
4337.574, 2.1730360E-02
4339.503, 0.1612643
4341.431, 0.4116399
4343.360, 0.1021583
4345.288, 0.6031374
4347.217, 4.1614100E-02
4349.145, -8.6490028E-02
4351.074, 0.2553026
4353.002, 0.1320009
4354.931, -0.1342797
4356.859, 0.2572895
4358.788, -3.0514291E-02
4360.716, 6.7950390E-02
4362.645, -4.8792299E-02
4364.573, -0.1317043
4366.501, 2.9571520E-02
4368.430, 5.0368581E-02
4370.358, 0.1265479
4372.287, -0.1519526
4374.215, -0.1949455
4376.144, 5.0366051E-02
4378.072, -0.2913025
4380.000, -7.2011799E-03
4381.929, -7.8428589E-02
##END=



