##NAMES=Hagendorfite
##RRUFFID=R130128
##IDEAL CHEMISTRY=Na_2_MnFe^2+^Fe^3+^(PO_4_)_3_
##LOCALITY=Hagendorf, Waidhaus, Vohenstrauß, Oberpfälzer Wald, Upper Palatinate, Bavaria, Germany
##OWNER=RRUFF
##SOURCE=Rock Currier
##DESCRIPTION=Black massive, associated with dark brown wolfeite
##STATUS=The identification of this mineral has been confirmed only by single crystal X-ray diffraction
##URL=https://www.rruff.net/odr/rruff_sample/R130128
##DIFFRACTION SAMPLE DESCRIPTION=Single crystal, powder profile is calculated
##CELL PARAMETERS=a: 11.93 b: 12.581 c: 6.498 alpha: 90 beta: 114.75 gamma: 90 volume: 885.6 crystal system: monoclinic
##FILETYPE=Raman Processed
##RAMAN WAVELENGTH=532

215.5366, 126.4298
217.4651, 127.4689
219.3935, 128.1196
221.3220, 128.6752
223.2505, 129.2202
225.1789, 129.7158
227.1074, 130.3504
229.0359, 131.2743
230.9643, 132.4105
232.8928, 133.3835
234.8213, 133.9131
236.7497, 134.5081
238.6782, 135.4632
240.6067, 136.7996
242.5351, 138.2216
244.4636, 139.8037
246.3921, 141.4427
248.3205, 142.6151
250.2490, 143.2356
252.1775, 143.4429
254.1059, 143.3618
256.0344, 142.9671
257.9629, 142.3151
259.8913, 141.1430
261.8198, 139.6669
263.7483, 138.8025
265.6767, 138.9114
267.6052, 139.3587
269.5337, 139.7705
271.4621, 140.0870
273.3906, 140.4720
275.3191, 141.0835
277.2475, 141.7738
279.1760, 142.1867
281.1045, 142.2558
283.0329, 142.0187
284.9614, 141.4660
286.8899, 140.4314
288.8183, 139.2913
290.7468, 138.0472
292.6753, 136.6968
294.6037, 135.2426
296.5322, 133.6327
298.4607, 131.9579
300.3891, 130.2268
302.3176, 128.4331
304.2461, 126.6664
306.1745, 125.0190
308.1030, 123.4199
310.0315, 121.7028
311.9599, 119.7227
313.8884, 117.7637
315.8169, 115.8900
317.7453, 114.0756
319.6738, 112.4837
321.6023, 111.1939
323.5307, 110.1141
325.4592, 109.1576
327.3877, 108.1390
329.3161, 107.3738
331.2446, 107.0467
333.1731, 107.0996
335.1015, 107.2315
337.0300, 107.2593
338.9585, 107.4056
340.8869, 108.0063
342.8154, 109.4108
344.7439, 110.7141
346.6723, 111.7862
348.6008, 112.6556
350.5292, 113.0587
352.4577, 112.9269
354.3862, 112.3875
356.3146, 111.3896
358.2431, 109.8346
360.1716, 108.2081
362.1000, 106.5321
364.0285, 104.8270
365.9570, 103.3084
367.8854, 101.8670
369.8139, 100.6552
371.7424, 99.91965
373.6708, 99.69885
375.5993, 99.26408
377.5278, 98.10831
379.4562, 96.68987
381.3847, 95.87460
383.3132, 96.28422
385.2416, 96.64584
387.1701, 96.56738
389.0986, 96.11697
391.0270, 95.63608
392.9555, 94.91340
394.8840, 94.31547
396.8124, 94.21030
398.7409, 94.56528
400.6694, 95.36050
402.5978, 97.14470
404.5263, 99.51696
406.4548, 101.0052
408.3832, 100.8486
410.3117, 100.2905
412.2402, 99.93221
414.1686, 99.86787
416.0971, 99.51125
418.0256, 98.23286
419.9540, 96.68801
421.8825, 95.91210
423.8110, 96.41717
425.7394, 97.21162
427.6679, 98.11497
429.5964, 99.14021
431.5248, 100.3885
433.4533, 102.1652
435.3818, 103.9976
437.3102, 105.5648
439.2387, 107.1183
441.1672, 108.0677
443.0956, 108.3619
445.0241, 107.9801
446.9526, 106.9353
448.8810, 104.4344
450.8095, 102.1555
452.7380, 100.7547
454.6664, 100.4965
456.5949, 100.3285
458.5234, 100.1471
460.4518, 100.1255
462.3803, 100.4030
464.3088, 101.1568
466.2372, 101.8848
468.1657, 102.8611
470.0942, 103.8443
472.0226, 103.6967
473.9511, 101.8038
475.8796, 99.53561
477.8080, 97.49780
479.7365, 95.72173
481.6650, 93.98930
483.5934, 92.09275
485.5219, 90.30505
487.4504, 89.01909
489.3788, 88.38736
491.3073, 87.74534
493.2358, 86.89448
495.1642, 85.86600
497.0927, 84.76906
499.0212, 83.52602
500.9496, 82.26924
502.8781, 81.08353
504.8066, 79.96455
506.7350, 78.75601
508.6635, 77.29924
510.5920, 75.81495
512.5204, 74.49069
514.4489, 73.25329
516.3774, 72.29858
518.3058, 71.60175
520.2343, 71.23223
522.1628, 71.28745
524.0912, 72.15260
526.0197, 72.95127
527.9482, 73.24564
529.8766, 72.86149
531.8051, 72.96508
533.7336, 73.88101
535.6620, 75.04544
537.5905, 75.99314
539.5190, 76.61252
541.4474, 77.48274
543.3759, 78.82096
545.3044, 80.44450
547.2328, 82.01237
549.1613, 83.39825
551.0898, 84.87925
553.0182, 86.61852
554.9467, 88.53934
556.8752, 90.37951
558.8036, 92.42078
560.7321, 94.11961
562.6606, 95.06105
564.5891, 94.90416
566.5175, 95.31432
568.4460, 96.65649
570.3745, 98.47813
572.3029, 100.2427
574.2314, 101.5044
576.1599, 103.7296
578.0883, 107.5501
580.0168, 112.4553
581.9453, 117.0003
583.8737, 120.8479
585.8022, 124.8574
587.7307, 129.7692
589.6591, 135.4363
591.5876, 139.8551
593.5161, 143.4208
595.4445, 145.3978
597.3729, 145.1797
599.3014, 142.6932
601.2299, 138.8759
603.1583, 132.7057
605.0868, 125.8445
607.0153, 119.6658
608.9437, 114.2387
610.8722, 109.4625
612.8007, 105.3491
614.7291, 101.8708
616.6576, 98.95897
618.5861, 96.77760
620.5145, 94.80157
622.4430, 92.87531
624.3715, 90.99290
626.2999, 89.16677
628.2284, 86.95002
630.1569, 85.16919
632.0853, 84.23823
634.0138, 84.12852
635.9423, 84.31670
637.8707, 84.98116
639.7992, 85.73876
641.7277, 86.30866
643.6561, 86.41666
645.5846, 86.99268
647.5131, 88.74763
649.4415, 90.65156
651.3700, 91.54813
653.2985, 91.38940
655.2269, 90.74034
657.1554, 89.73917
659.0839, 88.37516
661.0123, 86.55993
662.9408, 83.75735
664.8693, 81.06320
666.7977, 78.59776
668.7262, 76.38037
670.6547, 74.39787
672.5831, 72.60788
674.5116, 71.14436
676.4401, 70.05118
678.3685, 69.35020
680.2970, 68.80880
682.2255, 68.52161
684.1539, 68.28539
686.0824, 67.95678
688.0109, 67.53901
689.9393, 67.25349
691.8678, 67.19209
693.7963, 67.24624
695.7247, 67.35999
697.6532, 67.60247
699.5817, 67.78895
701.5101, 67.95167
703.4386, 68.05026
705.3671, 68.00107
707.2955, 67.74301
709.2240, 67.61083
711.1525, 67.86709
713.0809, 68.24522
715.0094, 68.36394
716.9379, 67.95011
718.8663, 67.58678
720.7948, 67.28220
722.7233, 67.07638
724.6517, 67.03284
726.5802, 67.20979
728.5087, 67.43403
730.4371, 67.65856
732.3656, 67.88029
734.2941, 68.08908
736.2225, 68.39320
738.1510, 68.57070
740.0795, 68.48033
742.0079, 68.18709
743.9364, 67.95650
745.8649, 67.68118
747.7933, 67.66860
749.7218, 68.23172
751.6503, 69.48414
753.5787, 70.01318
755.5072, 69.22146
757.4357, 68.33154
759.3641, 67.93102
761.2926, 67.98116
763.2211, 68.11478
765.1495, 68.35279
767.0780, 68.59623
769.0065, 68.78908
770.9349, 68.91553
772.8634, 69.06564
774.7919, 69.40725
776.7203, 69.66656
778.6488, 69.58754
780.5773, 69.16598
782.5057, 68.80161
784.4342, 68.44662
786.3627, 68.25800
788.2911, 68.36250
790.2196, 68.87180
792.1481, 69.33758
794.0765, 69.80679
796.0050, 70.17263
797.9335, 70.36353
799.8619, 70.42313
801.7904, 70.17258
803.7189, 69.00644
805.6473, 67.93044
807.5758, 67.88822
809.5043, 69.45911
811.4327, 70.54367
813.3612, 70.72363
815.2897, 70.50216
817.2181, 70.33156
819.1466, 70.16662
821.0751, 70.19375
823.0035, 70.77808
824.9320, 71.37285
826.8605, 71.38467
828.7889, 70.43829
830.7174, 70.04298
832.6459, 70.86622
834.5743, 72.01346
836.5028, 72.43677
838.4313, 71.85812
840.3597, 71.49780
842.2882, 71.64528
844.2167, 72.01087
846.1451, 72.40372
848.0736, 72.92219
850.0021, 73.04920
851.9305, 72.26270
853.8590, 71.33530
855.7875, 71.04810
857.7159, 71.70520
859.6444, 72.27029
861.5729, 72.75538
863.5013, 73.07736
865.4298, 73.12927
867.3583, 72.86536
869.2867, 72.67520
871.2152, 72.67057
873.1437, 72.74607
875.0721, 72.82429
877.0006, 72.87644
878.9291, 73.00347
880.8575, 73.08013
882.7860, 73.31992
884.7145, 74.01574
886.6429, 75.17371
888.5714, 76.08712
890.4999, 76.21579
892.4283, 76.40207
894.3568, 77.18319
896.2853, 78.76453
898.2137, 80.22339
900.1422, 81.42030
902.0707, 82.61662
903.9991, 83.93372
905.9276, 85.37392
907.8561, 86.98306
909.7845, 88.82076
911.7130, 90.78561
913.6415, 92.80763
915.5699, 94.88409
917.4984, 97.13522
919.4269, 99.85122
921.3553, 102.4299
923.2838, 104.3140
925.2123, 105.6896
927.1407, 108.1169
929.0692, 112.1920
930.9976, 116.3963
932.9261, 119.6521
934.8546, 122.5386
936.7830, 126.7642
938.7115, 133.1373
940.6400, 139.8404
942.5684, 146.3405
944.4969, 152.8378
946.4254, 159.9476
948.3538, 167.8688
950.2823, 175.9272
952.2108, 183.7191
954.1392, 191.7055
956.0677, 200.5475
957.9962, 210.4543
959.9246, 220.3648
961.8531, 230.6919
963.7816, 240.5230
965.7100, 248.9729
967.6385, 256.2154
969.5670, 261.4908
971.4954, 265.4333
973.4239, 266.9936
975.3524, 265.1383
977.2808, 260.1245
979.2093, 252.1515
981.1378, 240.0553
983.0662, 226.2556
984.9947, 211.4160
986.9232, 195.4172
988.8516, 181.4509
990.7801, 169.7251
992.7086, 159.7783
994.6370, 151.7632
996.5655, 145.5522
998.4940, 140.4149
1000.422, 136.4868
1002.351, 133.2086
1004.279, 130.3656
1006.208, 128.0626
1008.136, 126.6061
1010.065, 126.3082
1011.993, 126.1192
1013.922, 125.9359
1015.850, 125.7222
1017.779, 125.4159
1019.707, 124.8904
1021.636, 124.6266
1023.564, 124.6912
1025.493, 124.9870
1027.421, 125.4538
1029.349, 126.0713
1031.278, 126.8659
1033.206, 127.8970
1035.135, 129.0074
1037.063, 130.0606
1038.992, 131.0739
1040.920, 132.3156
1042.849, 133.9299
1044.777, 135.6051
1046.706, 137.4591
1048.634, 139.3073
1050.563, 140.7044
1052.491, 141.5399
1054.420, 142.3194
1056.348, 143.3394
1058.276, 144.2427
1060.205, 144.7298
1062.133, 144.7872
1064.062, 144.5459
1065.990, 143.8551
1067.919, 143.0368
1069.847, 142.2025
1071.776, 141.3386
1073.704, 140.6248
1075.633, 140.0620
1077.561, 139.5933
1079.490, 139.1104
1081.418, 138.7048
1083.347, 138.6787
1085.275, 139.2960
1087.203, 139.5771
1089.132, 138.9915
1091.060, 138.0630
1092.989, 137.2942
1094.917, 136.7104
1096.846, 136.2940
1098.774, 135.9975
1100.703, 135.8837
1102.631, 136.0830
1104.560, 136.5867
1106.488, 136.7820
1108.417, 136.1806
1110.345, 135.8549
1112.273, 136.3340
1114.202, 137.3509
1116.130, 138.4957
1118.059, 139.9424
1119.987, 141.0262
1121.916, 141.4844
1123.844, 141.6181
1125.773, 141.7266
1127.701, 142.0091
1129.630, 141.6892
1131.558, 140.9884
1133.487, 139.5190
1135.415, 136.9529
1137.344, 133.3203
1139.272, 129.2368
1141.200, 124.5505
1143.129, 119.6725
1145.057, 114.4147
1146.986, 109.1696
1148.914, 104.3744
1150.843, 99.98410
1152.771, 96.28649
1154.700, 93.52531
1156.628, 91.31936
1158.557, 89.54055
1160.485, 88.20853
1162.414, 87.07640
1164.342, 86.13611
1166.271, 85.39601
1168.199, 85.04375
1170.127, 84.85550
1172.056, 84.34100
1173.984, 83.38625
1175.913, 82.66660
1177.841, 82.44014
1179.770, 82.42200
1181.698, 82.43687
1183.627, 82.47971
1185.555, 82.48631
1187.484, 82.29082
1189.412, 82.25229
1191.341, 82.67533
1193.269, 83.29035
1195.198, 83.47753
1197.126, 82.90279
1199.054, 82.44566
1200.983, 82.08222
1202.911, 81.89815
1204.840, 82.12020
1206.768, 82.68342
1208.697, 82.90939
1210.625, 82.65172
1212.554, 82.22460
1214.482, 81.55130
1216.411, 80.85448
1218.339, 80.53304
1220.268, 80.65566
1222.196, 80.92055
1224.125, 81.54663
1226.053, 82.05752
1227.981, 82.09060
1229.910, 81.64963
1231.838, 81.38557
1233.767, 81.33025
1235.695, 81.39700
1237.624, 81.81454
1239.552, 82.23161
1241.481, 81.96050
1243.409, 80.88969
1245.338, 80.38791
1247.266, 81.07275
1249.195, 81.89263
1251.123, 82.30513
1253.052, 82.39370
1254.980, 82.35625
1256.908, 82.06924
1258.837, 81.97054
1260.765, 82.46040
1262.694, 82.94370
1264.622, 82.79252
1266.551, 81.81635
1268.479, 81.28123
1270.408, 81.24568
1272.336, 81.53828
1274.265, 82.42980
1276.193, 83.54867
1278.122, 84.10030
1280.050, 83.99623
1281.979, 83.89468
1283.907, 83.86964
1285.835, 83.89157
1287.764, 83.97320
1289.692, 84.07590
1291.621, 84.06149
1293.549, 83.80914
1295.478, 83.71497
1297.406, 84.14732
1299.335, 84.60197
1301.263, 84.58145
1303.192, 83.97806
1305.120, 83.70811
1307.049, 84.08775
1308.977, 84.44149
1310.906, 84.70105
1312.834, 84.80231
1314.762, 84.55697
1316.691, 83.72890
1318.619, 83.32285
1320.548, 83.79936
1322.476, 84.25230
1324.405, 84.09026
1326.333, 83.59749
1328.262, 83.49833
1330.190, 83.87008
1332.119, 84.35039
1334.047, 85.22588
1335.976, 85.79692
1337.904, 85.34769
1339.833, 84.12801
1341.761, 83.63831
1343.689, 84.33459
1345.618, 84.92171
1347.546, 85.11185
1349.475, 85.04736
1351.403, 84.77517
1353.332, 84.25755
1355.260, 83.94714
1357.189, 83.98214
1359.117, 84.05946
1361.046, 84.15638
1362.974, 84.24105
1364.903, 84.22392
1366.831, 84.05117
1368.760, 84.07278
1370.688, 84.47998
1372.616, 84.82352
1374.545, 84.95736
1376.473, 84.92097
1378.402, 84.72835
1380.330, 84.36935
1382.259, 84.23274
1384.187, 84.60966
1386.116, 84.91513
1388.044, 84.74821
1389.973, 84.34943
1391.901, 84.19634
1393.830, 84.34389
1395.758, 84.44323
1397.687, 84.27474
1399.615, 84.21315
1401.543, 84.59983
1403.472, 85.20247
1405.400, 85.33105
1407.329, 84.65515
1409.257, 84.18136
1411.186, 84.07471
1413.114, 84.04408
1415.043, 83.93975
1416.971, 83.79612
1418.900, 83.73316
1420.828, 83.80779
1422.757, 83.80293
1424.685, 83.56814
1426.614, 83.36954
1428.542, 83.43456
1430.470, 83.65041
1432.399, 83.63094
1434.327, 83.26664
1436.256, 83.20511
1438.184, 84.02134
1440.113, 84.68804
1442.041, 84.34109
1443.970, 83.41008
1445.898, 82.91850
1447.827, 82.99543
1449.755, 82.96415
1451.684, 82.46714
1453.612, 82.07925
1455.541, 82.27628
1457.469, 82.80669
1459.397, 82.85861
1461.326, 82.22276
1463.254, 81.83546
1465.183, 81.97279
1467.111, 82.21706
1469.040, 82.47210
1470.968, 82.68470
1472.897, 82.73020
1474.825, 82.58273
1476.754, 82.29676
1478.682, 81.62614
1480.611, 81.10613
1482.539, 81.04703
1484.468, 81.25568
1486.396, 81.36729
1488.324, 81.33624
1490.253, 81.35728
1492.181, 81.51286
1494.110, 81.59863
1496.038, 81.57632
1497.967, 81.41660
1499.895, 81.02409
1501.824, 80.40616
1503.752, 79.89197
1505.681, 79.52599
1507.609, 79.26894
1509.538, 79.15149
1511.466, 79.13020
1513.395, 79.11355
1515.323, 79.12974
1517.251, 79.42989
1519.180, 80.19123
1521.108, 80.76479
1523.037, 80.81241
1524.965, 80.68533
1526.894, 80.57890
1528.822, 80.50194
1530.751, 80.55495
1532.679, 80.82430
1534.608, 80.96162
1536.536, 80.87723
1538.465, 80.70339
1540.393, 80.42123
1542.322, 80.13864
1544.250, 80.13464
1546.178, 80.46420
1548.107, 80.82828
1550.035, 81.19370
1551.964, 81.53327
1553.892, 81.91396
1555.821, 82.18576
1557.749, 82.06917
1559.678, 81.43910
1561.606, 81.15663
1563.535, 81.55573
1565.463, 81.88892
1567.392, 81.99718
1569.320, 82.04104
1571.249, 82.19656
1573.177, 82.42942
1575.105, 82.45152
1577.034, 81.95085
1578.962, 81.70120
1580.891, 81.99431
1582.819, 82.25860
1584.748, 82.24575
1586.676, 81.99876
1588.605, 81.53137
1590.533, 80.70354
1592.462, 80.23831
1594.390, 80.30289
1596.319, 80.50488
1598.247, 80.77361
1600.176, 81.07037
1602.104, 81.39576
1604.032, 81.72550
1605.961, 81.87658
1607.889, 81.85986
1609.818, 81.63247
1611.746, 80.96486
1613.675, 80.33199
1615.603, 79.96597
1617.532, 79.86257
1619.460, 80.08629
1621.389, 80.69001
1623.317, 81.04895
1625.246, 81.00925
1627.174, 80.85756
1629.103, 80.68041
1631.031, 80.43737
1632.959, 79.94094
1634.888, 79.30739
1636.816, 79.18401
1638.745, 79.77760
1640.673, 80.15737
1642.602, 80.10940
1644.530, 79.82188
1646.459, 79.06350
1648.387, 78.30675
1650.316, 78.41155
1652.244, 79.33768
1654.173, 79.81649
1656.101, 79.53964
1658.030, 79.23483
1659.958, 79.05125
1661.886, 78.99516
1663.815, 79.19882
1665.743, 79.51039
1667.672, 79.55910
1669.600, 79.32433
1671.529, 79.03977
1673.457, 78.63930
1675.386, 78.40598
1677.314, 78.57267
1679.243, 78.87681
1681.171, 79.05688
1683.100, 79.14873
1685.028, 79.33589
1686.957, 79.64262
1688.885, 79.92647
1690.813, 80.25761
1692.742, 80.40454
1694.670, 80.14506
1696.599, 79.70640
1698.527, 79.33116
1700.456, 79.01979
1702.384, 78.71523
1704.313, 78.33308
1706.241, 78.29980
1708.170, 79.13718
1710.098, 79.81546
1712.027, 79.49716
1713.955, 78.80103
1715.884, 78.59495
1717.812, 78.84680
1719.740, 79.11839
1721.669, 79.47429
1723.597, 79.48531
1725.526, 78.62801
1727.454, 77.85451
1729.383, 77.92961
1731.311, 78.37366
1733.240, 78.46660
1735.168, 78.22231
1737.097, 77.92001
1739.025, 77.53898
1740.954, 77.27953
1742.882, 77.32704
1744.811, 77.37648
1746.739, 77.10622
1748.667, 76.78077
1750.596, 76.91792
1752.524, 77.47587
1754.453, 77.69333
1756.381, 77.42908
1758.310, 77.05166
1760.238, 76.42428
1762.167, 75.98940
1764.095, 76.10539
1766.024, 76.52178
1767.952, 76.94398
1769.880, 77.34508
1771.809, 77.43071
1773.737, 77.07761
1775.666, 76.73557
1777.594, 76.55584
1779.523, 76.37409
1781.451, 76.04781
1783.380, 75.72143
1785.308, 75.54372
1787.237, 75.52587
1789.165, 75.81744
1791.094, 76.59173
1793.022, 77.08699
1794.951, 77.00778
1796.879, 76.84389
1798.807, 76.81779
1800.736, 76.77956
1802.664, 76.53242
1804.593, 76.12519
1806.521, 75.79540
1808.450, 75.52927
1810.378, 75.37008
1812.307, 75.26257
1814.235, 75.32820
1816.164, 75.90871
1818.092, 76.36778
1820.021, 75.94850
1821.949, 75.07929
1823.878, 74.92824
1825.806, 75.67575
1827.734, 76.19901
1829.663, 76.45753
1831.591, 76.58677
1833.520, 76.47564
1835.448, 76.39072
1837.377, 76.48391
1839.305, 76.66980
1841.234, 76.86307
1843.162, 77.05193
1845.091, 77.07686
1847.019, 76.80239
1848.948, 76.68929
1850.876, 76.95919
1852.805, 77.15490
1854.733, 77.11134
1856.661, 77.00141
1858.590, 76.91042
1860.518, 76.87301
1862.447, 77.04544
1864.375, 77.45495
1866.304, 77.58758
1868.232, 77.30591
1870.161, 77.01305
1872.089, 76.67514
1874.018, 76.52171
1875.946, 76.86370
1877.875, 77.30220
1879.803, 77.35784
1881.732, 77.13281
1883.660, 76.98921
1885.589, 76.93241
1887.517, 77.04881
1889.445, 77.48959
1891.374, 77.76115
1893.302, 77.41595
1895.231, 77.16999
1897.159, 77.74190
1899.088, 78.54894
1901.016, 78.64440
1902.945, 78.13926
1904.873, 77.76784
1906.802, 77.48180
1908.730, 77.59087
1910.659, 78.67563
1912.587, 79.38500
1914.516, 79.19658
1916.444, 78.67216
1918.372, 77.94582
1920.301, 77.28210
1922.229, 77.27422
1924.158, 77.91976
1926.086, 78.29704
1928.015, 78.23685
1929.943, 78.22469
1931.872, 78.35182
1933.800, 78.39461
1935.729, 78.16061
1937.657, 77.96577
1939.586, 78.08163
1941.514, 78.36472
1943.443, 78.59380
1945.371, 78.77012
1947.299, 78.80840
1949.228, 78.68015
1951.156, 78.56686
1953.085, 78.58110
1955.013, 78.40882
1956.942, 77.72561
1958.870, 77.08080
1960.799, 76.76045
1962.727, 76.74938
1964.656, 77.20439
1966.584, 77.96545
1968.513, 78.25696
1970.441, 77.97353
1972.370, 77.89094
1974.298, 78.24976
1976.226, 78.48692
1978.155, 78.32500
1980.083, 78.17729
1982.012, 78.30918
1983.940, 78.53737
1985.869, 78.71104
1987.797, 78.80582
1989.726, 78.65125
1991.654, 78.12516
1993.583, 78.07125
1995.511, 78.90562
1997.440, 79.37766
1999.368, 79.02885
2001.297, 78.76035
2003.225, 79.00848
2005.153, 79.27235
2007.082, 79.11553
2009.010, 78.77922
2010.939, 78.70852
2012.867, 78.85423
2014.796, 78.86799
2016.724, 78.70982
2018.653, 78.73803
2020.581, 79.08941
2022.510, 79.36803
2024.438, 79.34937
2026.367, 79.35873
2028.295, 79.59367
2030.224, 79.89852
2032.152, 80.18570
2034.080, 80.40951
2036.009, 80.46155
2037.937, 80.34261
2039.866, 80.07092
2041.794, 79.27915
2043.723, 79.07140
2045.651, 80.03072
2047.580, 80.69054
2049.508, 80.49870
2051.437, 80.27974
2053.365, 80.67411
2055.294, 81.04593
2057.222, 80.53592
2059.151, 79.53820
2061.079, 79.11818
2063.008, 79.23447
2064.936, 79.37413
2066.865, 79.52166
2068.793, 79.60177
2070.721, 79.51382
2072.650, 79.57093
2074.578, 80.23508
2076.507, 80.60458
2078.435, 79.78924
2080.364, 78.83652
2082.292, 78.96617
2084.220, 79.65723
2086.149, 79.65345
2088.077, 78.98806
2090.006, 78.85955
2091.934, 79.53792
2093.863, 79.85225
2095.791, 79.47591
2097.720, 79.38199
2099.648, 79.98534
2101.577, 80.52624
2103.505, 80.77608
2105.434, 80.75723
2107.362, 80.27332
2109.291, 79.68648
2111.219, 79.44746
2113.147, 79.53168
2115.076, 79.91696
2117.004, 80.61824
2118.933, 81.10247
2120.861, 81.21396
2122.790, 81.38316
2124.718, 81.77392
2126.647, 81.99034
2128.575, 81.66276
2130.504, 81.50211
2132.432, 82.19013
2134.361, 82.91431
2136.289, 82.94044
2138.218, 82.50610
2140.146, 81.81168
2142.074, 81.01647
2144.003, 80.95315
2145.931, 81.63672
2147.860, 82.38345
2149.788, 83.19727
2151.717, 83.71217
2153.645, 83.86782
2155.574, 83.69563
2157.502, 82.75956
2159.431, 82.07971
2161.359, 82.53517
2163.288, 83.13981
2165.216, 82.79278
2167.145, 82.08139
2169.073, 82.13951
2171.001, 82.79485
2172.930, 82.98469
2174.858, 82.69376
2176.787, 82.73958
2178.715, 83.25701
2180.644, 83.48499
2182.572, 83.12371
2184.501, 82.97530
2186.429, 83.42274
2188.358, 83.93102
2190.286, 84.61821
2192.215, 84.90850
2194.143, 83.96358
2196.072, 82.72781
2198.000, 82.51247
2199.928, 82.90897
2201.857, 82.78376
2203.785, 82.17417
2205.714, 82.04534
2207.642, 82.46088
2209.571, 82.49174
2211.499, 81.91019
2213.428, 81.75744
2215.356, 82.46622
2217.285, 83.04198
2219.213, 83.06918
2221.142, 82.99656
2223.070, 83.02121
2224.999, 83.01065
2226.927, 82.89025
2228.855, 82.65836
2230.784, 82.15964
2232.712, 81.60620
2234.641, 81.59904
2236.569, 82.07895
2238.498, 82.45058
2240.426, 82.70943
2242.355, 82.68518
2244.283, 82.28842
2246.212, 82.08788
2248.140, 82.30134
2250.069, 82.38795
2251.997, 82.17966
2253.926, 81.86729
2255.854, 81.24403
2257.782, 80.88046
2259.711, 81.33390
2261.639, 81.98020
2263.568, 82.41343
2265.496, 82.52871
2267.425, 81.84744
2269.353, 80.79012
2271.282, 80.82125
2273.210, 81.72236
2275.139, 81.83672
2277.067, 81.04823
2278.996, 80.56207
2280.924, 80.61594
2282.853, 80.52112
2284.781, 79.87682
2286.709, 79.60595
2288.638, 80.26984
2290.566, 80.68165
2292.495, 80.31433
2294.423, 79.83260
2296.352, 79.31571
2298.280, 79.09107
2300.209, 79.75302
2302.137, 80.56778
2304.066, 80.57085
2305.994, 80.09356
2307.923, 79.78853
2309.851, 79.62981
2311.780, 79.48439
2313.708, 79.33720
2315.636, 79.41109
2317.565, 79.71678
2319.493, 80.24832
2321.422, 81.13212
2323.350, 81.75318
2325.279, 82.08345
2327.207, 81.96724
2329.136, 81.11466
2331.064, 80.26408
2332.993, 79.36330
2334.921, 78.96628
2336.850, 79.90249
2338.778, 80.82322
2340.707, 80.64867
2342.635, 79.93978
2344.563, 79.00047
2346.492, 78.17606
2348.420, 78.31068
2350.349, 78.98514
2352.277, 78.97532
2354.206, 78.43616
2356.134, 78.38164
2358.063, 78.87061
2359.991, 79.20283
2361.920, 79.28108
2363.848, 79.45757
2365.777, 79.77789
2367.705, 80.08760
2369.634, 80.45493
2371.562, 80.60751
2373.490, 80.35440
2375.419, 80.20963
2377.347, 80.63783
2379.276, 80.78918
2381.204, 79.69758
2383.133, 78.90125
2385.061, 79.88475
2386.990, 81.05264
2388.918, 80.76717
2390.847, 80.03223
2392.775, 80.22192
2394.704, 80.77892
2396.632, 80.47411
2398.561, 79.75710
2400.489, 79.95139
2402.417, 80.85881
2404.346, 81.18125
2406.274, 80.89932
2408.203, 81.15601
2410.131, 82.27409
2412.060, 82.48404
2413.988, 81.50807
2415.917, 80.89383
2417.845, 80.82363
2419.774, 80.85571
2421.702, 80.91151
2423.631, 81.02035
2425.559, 81.25414
2427.488, 81.43611
2429.416, 81.36098
2431.344, 81.45861
2433.273, 82.24845
2435.201, 82.80228
2437.130, 82.38943
2439.058, 81.83852
2440.987, 81.67112
2442.915, 81.64436
2444.844, 81.58474
2446.772, 81.51155
2448.701, 81.48399
2450.629, 81.44791
2452.558, 81.21105
2454.486, 80.91617
2456.415, 81.00650
2458.343, 81.37447
2460.271, 81.53376
2462.200, 81.49854
2464.128, 81.37929
2466.057, 81.17870
2467.985, 81.00666
2469.914, 80.87114
2471.842, 80.75023
2473.771, 80.56763
2475.699, 80.72985
2477.628, 81.44556
2479.556, 81.66859
2481.485, 81.06144
2483.413, 80.89333
2485.342, 81.65529
2487.270, 82.21498
2489.198, 82.21812
2491.127, 82.05623
2493.055, 81.64110
2494.984, 81.37193
2496.912, 81.49450
2498.841, 81.63670
2500.769, 81.70702
2502.698, 81.67326
2504.626, 81.38045
2506.555, 81.12885
2508.483, 81.05580
2510.412, 81.18775
2512.340, 81.83572
2514.269, 82.42669
2516.197, 82.26553
2518.125, 81.78287
2520.054, 81.27129
2521.982, 80.97953
2523.911, 81.52385
2525.839, 82.37072
2527.768, 82.49039
2529.696, 82.13139
2531.625, 81.82500
2533.553, 81.65914
2535.482, 82.25336
2537.410, 83.34274
2539.339, 83.19018
2541.267, 82.02664
2543.196, 81.28606
2545.124, 81.02102
2547.052, 81.62414
2548.981, 83.30231
2550.909, 83.48100
2552.838, 81.76579
2554.766, 81.28630
2556.695, 82.26141
2558.623, 82.84520
2560.552, 82.84714
2562.480, 82.74780
2564.409, 82.55710
2566.337, 82.45759
2568.266, 82.58129
2570.194, 82.56145
2572.123, 82.33115
2574.051, 82.08959
2575.979, 81.84399
2577.908, 81.64143
2579.836, 81.41734
2581.765, 81.41389
2583.693, 81.96977
2585.622, 82.29490
2587.550, 81.90883
2589.479, 81.75084
2591.407, 82.16423
2593.336, 82.58765
2595.264, 83.00951
2597.193, 83.05288
2599.121, 82.15414
2601.050, 81.43542
2602.978, 81.53090
2604.906, 81.74361
2606.835, 81.88672
2608.763, 81.85959
2610.692, 81.45128
2612.620, 81.10778
2614.549, 81.05588
2616.477, 81.20557
2618.406, 81.72327
2620.334, 82.13023
2622.263, 81.97229
2624.191, 81.69103
2626.120, 81.70780
2628.048, 81.65905
2629.977, 80.98702
2631.905, 80.44221
2633.833, 80.88435
2635.762, 81.55309
2637.690, 81.70207
2639.619, 81.66634
2641.547, 81.65262
2643.476, 81.80604
2645.404, 82.70605
2647.333, 83.44083
2649.261, 82.60865
2651.190, 81.39075
2653.118, 81.27355
2655.047, 81.67789
2656.975, 81.88708
2658.904, 82.05145
2660.832, 82.37032
2662.760, 82.78487
2664.689, 83.53366
2666.617, 84.07567
2668.546, 83.21052
2670.474, 81.89368
2672.403, 81.61918
2674.331, 82.01640
2676.260, 82.76373
2678.188, 83.53063
2680.117, 83.76386
2682.045, 83.69783
2683.974, 83.75035
2685.902, 83.76936
2687.831, 83.37234
2689.759, 82.80830
2691.688, 82.53653
2693.616, 82.43183
2695.544, 82.32493
2697.473, 82.20781
2699.401, 81.99400
2701.330, 81.81442
2703.258, 81.97620
2705.187, 82.31194
2707.115, 82.55813
2709.044, 82.70589
2710.972, 82.69035
2712.901, 82.60464
2714.829, 82.60780
2716.758, 82.66402
2718.686, 82.74907
2720.615, 82.81625
2722.543, 82.77937
2724.471, 82.66765
2726.400, 82.48645
2728.328, 82.28393
2730.257, 82.05807
2732.185, 81.91958
2734.114, 82.09465
2736.042, 82.44556
2737.971, 82.91383
2739.899, 83.31034
2741.828, 83.38201
2743.756, 83.23491
2745.685, 82.83067
2747.613, 82.45698
2749.542, 82.55447
2751.470, 82.82926
2753.398, 83.07882
2755.327, 83.17609
2757.255, 82.76196
2759.184, 82.37155
2761.112, 82.89458
2763.041, 83.42067
2764.969, 82.74260
2766.898, 81.95820
2768.826, 82.16699
2770.755, 82.48875
2772.683, 81.78776
2774.612, 81.31776
2776.540, 82.60380
2778.469, 83.89078
2780.397, 83.89562
2782.325, 83.53407
2784.254, 83.17542
2786.182, 82.98811
2788.111, 83.22216
2790.039, 83.47923
2791.968, 83.77649
2793.896, 83.67503
2795.825, 82.51558
2797.753, 81.72522
2799.682, 82.29159
2801.610, 82.92760
2803.539, 83.18942
2805.467, 83.25848
2807.396, 83.11478
2809.324, 82.92805
2811.252, 82.65153
2813.181, 82.53954
2815.109, 82.72269
2817.038, 83.01246
2818.966, 83.56580
2820.895, 83.72581
2822.823, 83.23787
2824.752, 82.89873
2826.680, 82.90627
2828.609, 83.04446
2830.537, 83.41434
2832.466, 83.57199
2834.394, 83.50029
2836.323, 83.01381
2838.251, 81.95721
2840.179, 81.55527
2842.108, 82.06978
2844.036, 82.70789
2845.965, 83.53106
2847.893, 83.40929
2849.822, 82.38063
2851.750, 81.92318
2853.679, 82.07854
2855.607, 82.19242
2857.536, 82.26629
2859.464, 82.39157
2861.393, 82.51218
2863.321, 82.21395
2865.250, 81.75686
2867.178, 82.07582
2869.106, 82.78516
2871.035, 82.71611
2872.963, 82.38657
2874.892, 83.03835
2876.820, 83.93925
2878.749, 84.16603
2880.677, 83.92752
2882.606, 83.19527
2884.534, 82.47459
2886.463, 82.16338
2888.391, 82.27238
2890.320, 83.14793
2892.248, 83.98665
2894.177, 84.47674
2896.105, 84.39563
2898.033, 82.94099
2899.962, 82.05407
2901.890, 82.80208
2903.819, 83.66060
2905.747, 84.51331
2907.676, 84.48535
2909.604, 82.71582
2911.533, 81.78166
2913.461, 82.27413
2915.390, 82.96913
2917.318, 83.85287
2919.247, 84.25439
2921.175, 84.11824
2923.104, 83.44035
2925.032, 82.18494
2926.960, 82.22059
2928.889, 83.69328
2930.817, 84.03169
2932.746, 83.31580
2934.674, 83.29053
2936.603, 83.74815
2938.531, 83.77914
2940.460, 83.53234
2942.388, 83.36295
2944.317, 83.27749
2946.245, 83.29480
2948.174, 83.39598
2950.102, 83.61024
2952.031, 83.82631
2953.959, 83.89462
2955.887, 83.95374
2957.816, 84.21539
2959.744, 84.36157
2961.673, 84.22290
2963.601, 83.92017
2965.530, 83.25835
2967.458, 82.87581
2969.387, 83.03938
2971.315, 83.50584
2973.244, 84.52664
2975.172, 84.68506
2977.101, 83.10496
2979.029, 82.67863
2980.958, 84.01397
2982.886, 84.28487
2984.814, 83.42920
2986.743, 83.24043
2988.671, 83.75843
2990.600, 83.92408
2992.528, 83.79689
2994.457, 83.72594
2996.385, 83.62353
2998.314, 83.04738
3000.242, 82.46821
3002.171, 82.89104
3004.099, 83.52546
3006.028, 83.30950
3007.956, 82.93940
3009.885, 82.80981
3011.813, 82.94646
3013.741, 83.69122
3015.670, 84.16103
3017.598, 83.88968
3019.527, 83.57381
3021.455, 83.39399
3023.384, 83.22410
3025.312, 82.90053
3027.241, 82.95349
3029.169, 83.47797
3031.098, 83.58848
3033.026, 83.22044
3034.955, 83.25616
3036.883, 83.67202
3038.812, 83.85063
3040.740, 83.84370
3042.668, 83.73155
3044.597, 83.65067
3046.525, 84.14841
3048.454, 84.53835
3050.382, 83.33767
3052.311, 82.26683
3054.239, 82.91813
3056.168, 83.90185
3058.096, 84.90868
3060.025, 85.06811
3061.953, 83.52266
3063.882, 82.57681
3065.810, 82.98454
3067.739, 83.47319
3069.667, 83.81580
3071.595, 84.28391
3073.524, 84.89420
3075.452, 85.17910
3077.381, 85.10790
3079.309, 84.62966
3081.238, 83.93992
3083.166, 84.02768
3085.095, 84.42868
3087.023, 84.09000
3088.952, 83.71481
3090.880, 84.48685
3092.809, 85.18867
3094.737, 84.60209
3096.666, 84.07658
3098.594, 84.43246
3100.522, 84.73653
3102.451, 84.62968
3104.379, 84.55071
3106.308, 84.57764
3108.236, 84.32867
3110.165, 83.63611
3112.093, 83.51575
3114.022, 83.96581
3115.950, 84.06705
3117.879, 83.94939
3119.807, 84.12447
3121.736, 84.35259
3123.664, 84.11819
3125.593, 83.71140
3127.521, 83.11474
3129.449, 82.97229
3131.378, 84.41196
3133.306, 85.28651
3135.235, 84.12199
3137.163, 83.58369
3139.092, 84.44412
3141.020, 85.28944
3142.949, 86.14222
3144.877, 85.82253
3146.806, 84.42140
3148.734, 84.21996
3150.663, 84.93640
3152.591, 84.94972
3154.520, 84.56309
3156.448, 84.43507
3158.376, 84.30416
3160.305, 83.62576
3162.233, 83.19810
3164.162, 83.89558
3166.090, 84.50154
3168.019, 84.52244
3169.947, 84.54678
3171.876, 84.80955
3173.804, 84.84672
3175.733, 84.59042
3177.661, 84.63181
3179.590, 84.95151
3181.518, 85.02446
3183.447, 84.96251
3185.375, 85.20975
3187.303, 85.50721
3189.232, 85.35689
3191.160, 85.20994
3193.089, 85.72826
3195.017, 85.90374
3196.946, 84.91367
3198.874, 84.51577
3200.803, 85.79702
3202.731, 86.25645
3204.660, 85.52741
3206.588, 85.00124
3208.517, 84.75816
3210.445, 85.20902
3212.374, 85.97519
3214.302, 85.55502
3216.230, 84.78080
3218.159, 85.03881
3220.087, 85.41704
3222.016, 85.01456
3223.944, 84.72353
3225.873, 85.08617
3227.801, 85.11858
3229.730, 84.24386
3231.658, 84.02637
3233.587, 84.66670
3235.515, 84.94827
3237.444, 84.90903
3239.372, 84.87198
3241.301, 85.00035
3243.229, 86.15550
3245.157, 87.14751
3247.086, 86.29146
3249.014, 85.35356
3250.943, 85.50576
3252.871, 85.92838
3254.800, 86.58587
3256.728, 86.71703
3258.657, 85.91496
3260.585, 85.84437
3262.514, 86.47874
3264.442, 86.35367
3266.371, 85.89572
3268.299, 86.55455
3270.228, 87.48001
3272.156, 87.42953
3274.084, 87.10191
3276.013, 86.80144
3277.941, 86.63940
3279.870, 86.67139
3281.798, 86.92317
3283.727, 87.48392
3285.655, 87.34742
3287.584, 86.49489
3289.512, 86.68211
3291.441, 87.37402
3293.369, 86.91816
3295.298, 86.11073
3297.226, 85.80466
3299.155, 85.79266
3301.083, 86.05346
3303.011, 86.28569
3304.940, 86.44726
3306.868, 86.34026
3308.797, 85.90961
3310.725, 86.18719
3312.654, 87.00678
3314.582, 86.43127
3316.511, 85.32094
3318.439, 85.83178
3320.368, 86.62143
3322.296, 86.44604
3324.225, 86.10275
3326.153, 85.89182
3328.082, 85.81721
3330.010, 85.93497
3331.938, 85.87196
3333.867, 85.56287
3335.795, 86.15550
3337.724, 87.26418
3339.652, 88.00398
3341.581, 88.21157
3343.509, 87.18136
3345.438, 86.26185
3347.366, 86.26792
3349.295, 86.57999
3351.223, 87.39421
3353.152, 87.27341
3355.080, 86.13479
3357.009, 85.54776
3358.937, 85.51415
3360.865, 86.12985
3362.794, 86.79543
3364.722, 86.54625
3366.651, 86.13477
3368.579, 85.85159
3370.508, 86.13181
3372.436, 87.37524
3374.365, 87.79085
3376.293, 86.92693
3378.222, 86.57049
3380.150, 86.63982
3382.079, 86.96200
3384.007, 87.24944
3385.936, 86.89889
3387.864, 86.57950
3389.792, 86.67180
3391.721, 86.97609
3393.649, 87.66368
3395.578, 87.88342
3397.506, 87.61361
3399.435, 87.74773
3401.363, 88.19120
3403.292, 88.78991
3405.220, 89.05766
3407.148, 87.96867
3409.077, 87.08115
3411.005, 87.61122
3412.934, 88.03934
3414.862, 88.10182
3416.791, 87.92463
3418.719, 87.54359
3420.648, 87.85720
3422.576, 88.42740
3424.505, 88.12080
3426.433, 87.68625
3428.362, 87.89806
3430.290, 88.20601
3432.219, 88.48058
3434.147, 88.54885
3436.075, 88.36092
3438.004, 87.94968
3439.932, 87.45947
3441.861, 87.74587
3443.789, 88.13822
3445.718, 87.17432
3447.646, 86.49528
3449.575, 87.58385
3451.503, 88.15652
3453.432, 87.53460
3455.360, 87.60135
3457.289, 88.40406
3459.217, 88.70257
3461.146, 88.59599
3463.074, 87.94209
3465.002, 87.59965
3466.931, 88.89629
3468.859, 89.49805
3470.788, 88.51271
3472.716, 88.02950
3474.645, 88.38682
3476.573, 88.68220
3478.502, 88.85912
3480.430, 88.52724
3482.359, 88.28069
3484.287, 89.13988
3486.216, 89.56319
3488.144, 88.79296
3490.073, 88.33125
3492.001, 88.49272
3493.929, 88.60112
3495.858, 88.62766
3497.786, 88.33167
3499.715, 88.15168
3501.643, 89.07380
3503.572, 89.56187
3505.500, 88.56528
3507.429, 88.07101
3509.357, 88.35108
3511.286, 88.60178
3513.214, 88.81984
3515.143, 89.25407
3517.071, 89.56136
3519.000, 89.03146
3520.928, 88.78167
3522.856, 89.64442
3524.785, 90.35440
3526.713, 90.80445
3528.642, 90.54847
3530.570, 89.83298
3532.499, 89.35293
3534.427, 89.20009
3536.356, 89.78767
3538.284, 90.03768
3540.213, 89.31728
3542.141, 88.76389
3544.070, 88.51780
3545.998, 88.49503
3547.927, 88.75674
3549.855, 89.99019
3551.783, 90.95149
3553.712, 89.94289
3555.640, 89.48914
3557.569, 90.43559
3559.497, 91.00352
3561.426, 90.99370
3563.354, 90.79981
3565.283, 90.58569
3567.211, 90.84571
3569.140, 90.92029
3571.068, 90.10923
3572.997, 89.50522
3574.925, 89.32838
3576.854, 89.67094
3578.782, 90.42907
3580.710, 91.04961
3582.639, 91.45025
3584.567, 91.25263
3586.496, 91.25571
3588.424, 91.88540
3590.353, 92.43820
3592.281, 92.87284
3594.210, 92.07524
3596.138, 90.86884
3598.067, 91.45793
3599.995, 92.46365
3601.924, 92.90827
3603.852, 92.93401
3605.781, 92.35098
3607.709, 91.98903
3609.637, 91.86949
3611.566, 92.24214
3613.494, 92.58492
3615.423, 91.80913
3617.351, 91.26969
3619.280, 91.76565
3621.208, 92.13008
3623.137, 92.23532
3625.065, 92.16482
3626.994, 92.03547
3628.922, 92.10478
3630.851, 92.25469
3632.779, 92.45450
3634.708, 92.53143
3636.636, 92.35296
3638.564, 92.46423
3640.493, 92.90440
3642.421, 93.98720
3644.350, 94.95055
3646.278, 94.89888
3648.207, 94.59605
3650.135, 94.32034
3652.064, 93.82334
3653.992, 93.15524
3655.921, 92.65482
3657.849, 92.41563
3659.778, 92.86994
3661.706, 93.19153
3663.635, 92.56438
3665.563, 92.94463
3667.491, 94.37439
3669.420, 94.50566
3671.348, 93.99438
3673.277, 94.28279
3675.205, 94.58900
3677.134, 94.31626
3679.062, 94.27426
3680.991, 94.57920
3682.919, 94.39375
3684.848, 94.05640
3686.776, 94.66593
3688.705, 95.35604
3690.633, 95.49963
3692.562, 95.50668
3694.490, 95.41507
3696.418, 95.83631
3698.347, 96.47539
3700.275, 96.44740
3702.204, 95.98585
3704.132, 95.10185
3706.061, 94.34449
3707.989, 93.74995
3709.918, 94.25387
3711.846, 95.39948
3713.775, 95.59466
3715.703, 95.34709
3717.632, 94.83745
3719.560, 94.77555
3721.489, 95.51382
3723.417, 95.54468
3725.345, 95.05919
3727.274, 94.62099
3729.202, 94.67048
3731.131, 95.99880
3733.059, 96.56593
3734.988, 95.57093
3736.916, 95.48421
3738.845, 95.98663
3740.773, 95.87894
3742.702, 95.67506
3744.630, 95.85290
3746.559, 95.79741
3748.487, 95.18510
3750.416, 95.85593
3752.344, 97.19794
3754.272, 97.75354
3756.201, 97.58813
3758.129, 96.32856
3760.058, 96.01884
3761.986, 97.27784
3763.915, 97.49593
3765.843, 96.95554
3767.772, 95.70370
3769.700, 95.21382
3771.629, 96.62715
3773.557, 97.12092
3775.486, 96.22401
3777.414, 96.65835
3779.343, 97.45558
3781.271, 96.60183
3783.199, 96.44576
3785.128, 98.35678
3787.056, 98.63902
3788.985, 97.19569
3790.913, 96.76604
3792.842, 96.88769
3794.770, 97.20329
3796.699, 97.49393
3798.627, 97.66982
3800.556, 98.22865
3802.484, 98.89465
3804.413, 97.74630
3806.341, 96.65016
3808.270, 97.44559
3810.198, 98.25778
3812.126, 98.76771
3814.055, 99.19730
3815.983, 99.54414
3817.912, 99.95126
3819.840, 99.95567
3821.769, 98.87720
3823.697, 98.62696
3825.626, 99.35559
3827.554, 100.1532
3829.483, 100.6763
3831.411, 100.1920
3833.340, 100.0019
3835.268, 100.5877
3837.197, 101.0430
3839.125, 101.2478
3841.053, 100.7604
3842.982, 100.2930
3844.910, 100.3801
3846.839, 100.7410
3848.767, 101.3009
3850.696, 100.9760
3852.624, 100.4225
3854.553, 101.0871
3856.481, 101.5123
3858.410, 100.6003
3860.338, 101.2031
3862.267, 102.7627
3864.195, 101.9847
3866.124, 101.0177
3868.052, 102.0544
3869.980, 102.4135
3871.909, 101.3128
3873.837, 100.8723
3875.766, 101.0993
3877.694, 102.4923
3879.623, 103.3793
3881.551, 103.0188
3883.480, 102.9963
3885.408, 103.3147
3887.337, 103.0913
3889.265, 102.7805
3891.194, 102.8392
3893.122, 102.6678
3895.051, 102.1828
3896.979, 102.1993
3898.907, 102.5132
3900.836, 102.7295
3902.764, 103.2054
3904.693, 104.1934
3906.621, 104.5166
3908.550, 104.3284
3910.478, 104.5012
3912.407, 104.4938
3914.335, 103.4522
3916.264, 103.6499
3918.192, 105.0087
3920.121, 104.7633
3922.049, 104.2401
3923.978, 105.2690
3925.906, 105.9537
3927.834, 105.6155
3929.763, 105.6905
3931.691, 105.8809
3933.620, 105.5285
3935.548, 105.1496
3937.477, 104.8681
3939.405, 105.4048
3941.334, 106.4271
3943.262, 105.9646
3945.191, 105.6570
3947.119, 107.0776
3949.048, 107.8794
3950.976, 107.8153
3952.905, 107.7178
3954.833, 107.4550
3956.761, 106.5659
3958.690, 106.3051
3960.618, 106.8694
3962.547, 107.5652
3964.475, 108.0796
3966.404, 107.5529
3968.332, 107.4930
3970.261, 108.9138
3972.189, 108.9757
3974.118, 108.3580
3976.046, 109.0183
3977.975, 109.7447
3979.903, 109.9514
3981.832, 110.0173
3983.760, 109.9944
3985.688, 109.7576
3987.617, 109.7389
3989.545, 110.3092
3991.474, 111.2108
3993.402, 112.1977
3995.331, 110.5117
3997.259, 108.6457
3999.188, 108.9960
4001.116, 110.1932
4003.045, 111.8586
4004.973, 111.9118
4006.902, 111.4362
4008.830, 111.9298
4010.759, 111.9815
4012.687, 111.2030
4014.615, 111.5184
4016.544, 112.3615
4018.472, 112.9784
4020.401, 113.3081
4022.329, 113.2013
4024.258, 113.6521
4026.186, 114.3177
4028.115, 114.8161
4030.043, 114.5117
4031.972, 113.1030
4033.900, 112.5805
4035.829, 113.0371
4037.757, 115.2630
4039.686, 116.6913
4041.614, 115.9994
4043.542, 115.3925
4045.471, 115.1318
4047.399, 115.9933
4049.328, 116.5343
4051.256, 115.5169
4053.185, 115.6887
4055.113, 116.6395
4057.042, 116.7027
4058.970, 117.0562
4060.899, 118.4970
4062.827, 118.5574
4064.756, 117.5060
4066.684, 116.5225
4068.613, 116.3900
4070.541, 117.9735
4072.469, 117.7569
4074.398, 116.3744
4076.326, 117.6368
4078.255, 119.0902
4080.183, 119.1853
4082.112, 119.2369
4084.040, 119.3662
4085.969, 119.8374
4087.897, 120.2865
4089.826, 120.4220
4091.754, 120.9642
4093.683, 121.8179
4095.611, 122.6920
4097.540, 123.3009
4099.468, 123.5243
4101.396, 123.5075
4103.325, 123.3081
4105.253, 122.8370
4107.182, 122.4769
4109.110, 122.3253
4111.039, 122.8792
4112.967, 123.8737
4114.896, 124.6547
4116.824, 125.3529
4118.752, 126.0431
4120.681, 126.5797
4122.609, 127.0752
4124.538, 127.8802
4126.466, 128.4330
4128.395, 128.5208
4130.323, 128.5267
4132.252, 128.8283
4134.180, 130.4777
4136.109, 131.4419
4138.037, 131.2455
4139.966, 131.6327
4141.894, 132.2102
4143.823, 132.1681
4145.751, 132.5338
4147.680, 133.5303
4149.608, 135.2282
4151.537, 136.5620
4153.465, 135.7056
4155.394, 135.9790
4157.322, 137.7603
4159.250, 138.0003
4161.179, 138.3907
4163.107, 140.9734
4165.036, 142.6298
4166.964, 143.2317
4168.893, 143.6859
4170.821, 144.0362
4172.750, 144.1837
4174.678, 144.7346
4176.606, 145.6401
4178.535, 146.7051
4180.463, 147.7744
4182.392, 148.7498
4184.320, 150.3492
4186.249, 151.9527
4188.177, 151.7893
4190.106, 152.8325
4192.034, 155.7026
4193.963, 155.9426
4195.891, 155.5890
4197.820, 157.3064
4199.748, 159.0681
4201.677, 160.5154
4203.605, 162.0493
4205.534, 163.3980
4207.462, 164.2638
4209.391, 165.1674
4211.319, 166.1673
4213.248, 167.3130
4215.176, 168.5301
4217.104, 169.8339
4219.033, 170.8790
4220.961, 171.8271
4222.890, 172.9743
4224.818, 174.4058
4226.747, 176.2322
4228.675, 177.7861
4230.604, 178.9536
4232.532, 178.8004
4234.460, 180.7082
4236.389, 184.6105
4238.317, 185.2957
4240.246, 185.4095
4242.174, 186.6069
4244.103, 188.3089
##END=



