##NAMES=Halite
##RRUFFID=R070292
##IDEAL CHEMISTRY=NaCl
##LOCALITY=Stassfurt, Stassfurt Deposit, Saxony-Anhalt, Germany
##OWNER=RRUFF
##SOURCE=Michael Scott
##DESCRIPTION=Blue to colorless cube
##STATUS=The identification of this mineral has been confirmed by X-ray diffraction
##URL=https://www.rruff.net/odr/rruff_sample/R070292
##DIFFRACTION SAMPLE DESCRIPTION=Powder
##CELL PARAMETERS=a: 5.64167 b: 5.64167 c: 5.64167 alpha: 90 beta: 90 gamma: 90 volume: 179.565 crystal system: cubic
##FILETYPE=Raman RAW
##RAMAN WAVELENGTH=532

173.9221, 621.7894
175.8506, 636.7756
177.7791, 647.5912
179.7075, 653.8917
181.6360, 656.6501
183.5645, 656.1238
185.4929, 648.0869
187.4214, 644.4663
189.3499, 647.6931
191.2783, 655.6075
193.2068, 662.8872
195.1353, 669.5711
197.0637, 675.2781
198.9922, 679.7882
200.9207, 683.0594
202.8491, 685.0942
204.7776, 684.0956
206.7061, 681.3043
208.6345, 681.2266
210.5630, 686.8619
212.4915, 693.9271
214.4199, 699.6599
216.3484, 704.8375
218.2769, 707.6307
220.2053, 705.3625
222.1338, 697.8570
224.0623, 695.5564
225.9907, 701.3732
227.9192, 710.8807
229.8477, 719.7948
231.7761, 728.7198
233.7046, 735.9751
235.6331, 741.4547
237.5615, 745.2189
239.4900, 746.3988
241.4185, 742.0507
243.3469, 736.3879
245.2754, 734.2256
247.2039, 736.9633
249.1323, 741.5145
251.0608, 747.8796
252.9893, 758.3158
254.9177, 763.2413
256.8462, 756.6056
258.7747, 746.0240
260.7031, 741.2335
262.6316, 748.0662
264.5601, 755.6083
266.4885, 759.8384
268.4170, 759.4146
270.3455, 761.3299
272.2739, 768.9860
274.2024, 779.0642
276.1309, 786.1397
278.0593, 785.9618
279.9878, 786.2910
281.9163, 790.4505
283.8447, 798.9540
285.7732, 806.0549
287.7017, 810.9019
289.6301, 813.7203
291.5586, 814.2027
293.4871, 809.7681
295.4155, 805.3379
297.3440, 801.9947
299.2725, 799.3585
301.2009, 799.9199
303.1294, 806.7436
305.0579, 816.7888
306.9863, 824.3995
308.9148, 831.0143
310.8433, 834.2662
312.7717, 830.2659
314.7002, 818.4000
316.6287, 812.5168
318.5571, 820.1873
320.4856, 834.2038
322.4141, 841.5378
324.3425, 837.5740
326.2710, 833.4422
328.1995, 832.9270
330.1279, 836.0312
332.0564, 840.3513
333.9849, 847.3348
335.9133, 854.7748
337.8418, 859.0041
339.7703, 857.6578
341.6987, 857.3701
343.6272, 861.1813
345.5557, 869.6381
347.4841, 876.3412
349.4126, 881.1498
351.3411, 884.2010
353.2695, 885.4016
355.1980, 884.3387
357.1265, 882.6573
359.0549, 881.2760
360.9834, 880.4228
362.9119, 877.4388
364.8403, 870.1301
366.7688, 862.3452
368.6973, 856.8419
370.6257, 853.2150
372.5542, 852.5227
374.4827, 855.8397
376.4111, 862.7280
378.3396, 869.2322
380.2681, 877.0027
382.1965, 883.2333
384.1250, 886.1749
386.0535, 885.7355
387.9819, 883.6158
389.9104, 878.1761
391.8389, 871.1775
393.7673, 868.1895
395.6958, 871.4917
397.6243, 875.9756
399.5527, 880.7081
401.4812, 885.9973
403.4097, 888.3815
405.3381, 883.5596
407.2666, 876.7626
409.1951, 876.1640
411.1235, 886.5187
413.0520, 895.3292
414.9805, 897.3748
416.9089, 893.5762
418.8374, 891.6107
420.7659, 893.0935
422.6943, 896.0552
424.6228, 899.1823
426.5513, 902.3352
428.4797, 905.9583
430.4082, 910.6659
432.3367, 916.0251
434.2651, 920.6937
436.1936, 926.1963
438.1221, 929.6937
440.0505, 928.7292
441.9790, 922.5272
443.9075, 917.9321
445.8359, 915.0143
447.7644, 914.6838
449.6929, 918.2923
451.6213, 934.8511
453.5498, 946.3305
455.4783, 946.2654
457.4067, 935.8864
459.3352, 929.4682
461.2637, 930.4436
463.1921, 933.9895
465.1206, 936.9703
467.0491, 939.1506
468.9775, 941.0579
470.9060, 941.8801
472.8345, 942.5447
474.7629, 945.1814
476.6914, 952.1013
478.6199, 957.6872
480.5483, 959.0573
482.4768, 954.0786
484.4053, 953.0718
486.3337, 960.7433
488.2622, 969.4330
490.1907, 971.0757
492.1191, 962.6838
494.0476, 957.0999
495.9761, 959.5584
497.9045, 968.1447
499.8330, 973.9375
501.7615, 973.0388
503.6899, 973.1595
505.6184, 979.2885
507.5469, 991.0760
509.4753, 1000.074
511.4038, 1001.945
513.3323, 1001.586
515.2607, 1003.424
517.1892, 1014.278
519.1177, 1019.077
521.0461, 1010.410
522.9746, 994.0696
524.9031, 984.5124
526.8315, 986.2274
528.7600, 991.7584
530.6885, 999.4150
532.6169, 1011.370
534.5454, 1017.656
536.4739, 1012.081
538.4023, 1004.279
540.3308, 1003.190
542.2593, 1011.349
544.1877, 1019.518
546.1162, 1026.177
548.0447, 1031.265
549.9731, 1034.354
551.9016, 1035.690
553.8301, 1035.174
555.7585, 1030.950
557.6870, 1023.463
559.6155, 1019.352
561.5439, 1021.215
563.4724, 1025.833
565.4009, 1031.474
567.3293, 1039.287
569.2578, 1046.046
571.1863, 1051.134
573.1147, 1055.006
575.0432, 1058.419
576.9717, 1061.468
578.9001, 1063.863
580.8286, 1064.458
582.7571, 1063.329
584.6855, 1065.632
586.6140, 1075.618
588.5425, 1085.315
590.4709, 1090.671
592.3994, 1091.661
594.3279, 1090.455
596.2563, 1085.008
598.1848, 1078.726
600.1133, 1075.310
602.0417, 1075.002
603.9702, 1076.957
605.8987, 1083.931
607.8271, 1092.904
609.7556, 1097.726
611.6841, 1095.029
613.6125, 1091.808
615.5410, 1089.731
617.4695, 1088.840
619.3979, 1090.281
621.3264, 1097.142
623.2549, 1103.787
625.1833, 1106.646
627.1118, 1105.438
629.0403, 1104.086
630.9688, 1102.313
632.8972, 1101.193
634.8257, 1101.838
636.7542, 1102.891
638.6826, 1107.766
640.6111, 1123.672
642.5396, 1142.607
644.4680, 1149.652
646.3965, 1135.136
648.3250, 1121.960
650.2534, 1117.379
652.1819, 1121.439
654.1104, 1126.898
656.0388, 1136.865
657.9673, 1145.399
659.8958, 1147.880
661.8242, 1144.642
663.7527, 1144.186
665.6812, 1150.690
667.6096, 1158.885
669.5381, 1165.474
671.4666, 1169.430
673.3950, 1173.170
675.3235, 1179.234
677.2520, 1183.875
679.1804, 1181.202
681.1089, 1165.708
683.0374, 1157.134
684.9658, 1166.780
686.8943, 1187.702
688.8228, 1198.065
690.7512, 1187.527
692.6797, 1178.277
694.6082, 1177.089
696.5366, 1182.196
698.4651, 1186.213
700.3936, 1187.128
702.3220, 1188.644
704.2505, 1193.499
706.1790, 1203.487
708.1074, 1207.771
710.0359, 1200.630
711.9644, 1192.696
713.8928, 1191.683
715.8213, 1197.513
717.7498, 1204.318
719.6782, 1211.880
721.6067, 1219.444
723.5352, 1226.620
725.4636, 1234.981
727.3921, 1239.887
729.3206, 1240.362
731.2490, 1237.524
733.1775, 1231.722
735.1060, 1219.925
737.0344, 1213.570
738.9629, 1220.111
740.8914, 1234.041
742.8198, 1244.950
744.7483, 1251.700
746.6768, 1256.372
748.6052, 1257.695
750.5337, 1256.795
752.4622, 1258.485
754.3906, 1263.616
756.3191, 1269.985
758.2476, 1279.084
760.1760, 1289.806
762.1045, 1294.241
764.0330, 1282.240
765.9614, 1272.812
767.8899, 1275.260
769.8184, 1290.815
771.7468, 1298.169
773.6753, 1288.540
775.6038, 1278.746
777.5322, 1278.263
779.4607, 1286.851
781.3892, 1294.909
783.3176, 1302.169
785.2461, 1307.676
787.1746, 1310.126
789.1030, 1307.550
791.0315, 1307.933
792.9600, 1315.811
794.8884, 1323.473
796.8169, 1323.245
798.7454, 1313.856
800.6738, 1309.723
802.6023, 1318.924
804.5308, 1331.521
806.4592, 1340.117
808.3877, 1342.454
810.3162, 1344.158
812.2446, 1343.978
814.1731, 1343.839
816.1016, 1345.948
818.0300, 1350.581
819.9585, 1355.565
821.8870, 1361.640
823.8154, 1367.184
825.7439, 1370.375
827.6724, 1369.825
829.6008, 1369.090
831.5293, 1368.597
833.4578, 1368.013
835.3862, 1366.422
837.3147, 1362.884
839.2432, 1361.369
841.1716, 1362.846
843.1001, 1367.045
845.0286, 1374.351
846.9570, 1387.822
848.8855, 1398.034
850.8140, 1402.686
852.7424, 1403.674
854.6709, 1403.714
856.5994, 1402.159
858.5278, 1401.143
860.4563, 1400.267
862.3848, 1400.566
864.3132, 1403.774
866.2417, 1411.792
868.1702, 1417.774
870.0986, 1416.347
872.0271, 1413.281
873.9556, 1417.752
875.8840, 1442.990
877.8125, 1457.558
879.7410, 1449.781
881.6694, 1433.576
883.5979, 1428.881
885.5264, 1438.718
887.4548, 1448.786
889.3833, 1455.725
891.3118, 1460.424
893.2402, 1463.759
895.1687, 1465.342
897.0972, 1466.034
899.0256, 1463.086
900.9541, 1460.472
902.8826, 1465.350
904.8110, 1480.676
906.7395, 1490.538
908.6680, 1486.302
910.5964, 1477.757
912.5249, 1474.765
914.4534, 1479.391
916.3818, 1482.828
918.3103, 1480.393
920.2388, 1478.322
922.1672, 1483.574
924.0957, 1501.478
926.0242, 1513.000
927.9526, 1512.410
929.8811, 1508.413
931.8096, 1507.635
933.7380, 1510.103
935.6665, 1513.555
937.5950, 1518.688
939.5234, 1523.786
941.4519, 1527.668
943.3804, 1529.741
945.3088, 1532.715
947.2373, 1537.495
949.1658, 1542.280
951.0942, 1546.092
953.0227, 1548.935
954.9512, 1551.351
956.8796, 1553.448
958.8081, 1554.994
960.7366, 1555.436
962.6650, 1554.962
964.5935, 1555.561
966.5220, 1557.132
968.4504, 1560.146
970.3789, 1565.722
972.3074, 1573.337
974.2358, 1579.124
976.1643, 1580.902
978.0928, 1583.892
980.0212, 1592.177
981.9497, 1602.204
983.8782, 1605.945
985.8066, 1599.146
987.7351, 1595.772
989.6636, 1603.175
991.5920, 1615.466
993.5205, 1623.351
995.4490, 1623.945
997.3774, 1624.314
999.3059, 1623.302
1001.234, 1623.072
1003.163, 1626.507
1005.091, 1633.862
1007.020, 1642.374
1008.948, 1656.814
1010.877, 1667.805
1012.805, 1666.333
1014.734, 1651.020
1016.662, 1643.687
1018.591, 1655.972
1020.519, 1668.975
1022.448, 1673.660
1024.376, 1669.548
1026.304, 1667.668
1028.233, 1669.028
1030.161, 1671.248
1032.090, 1672.823
1034.018, 1674.667
1035.947, 1679.149
1037.875, 1686.165
1039.804, 1696.222
1041.732, 1716.467
1043.661, 1737.959
1045.589, 1743.939
1047.518, 1724.930
1049.446, 1709.068
1051.375, 1695.982
1053.303, 1689.756
1055.231, 1697.180
1057.160, 1724.339
1059.088, 1744.578
1061.017, 1757.281
1062.945, 1762.011
1064.874, 1752.141
1066.802, 1730.516
1068.731, 1722.019
1070.659, 1737.947
1072.588, 1756.336
1074.516, 1768.672
1076.445, 1775.677
1078.373, 1781.736
1080.302, 1787.509
1082.230, 1791.439
1084.158, 1792.136
1086.087, 1791.142
1088.015, 1790.815
1089.944, 1790.171
1091.872, 1792.904
1093.801, 1806.754
1095.729, 1819.072
1097.658, 1815.500
1099.586, 1795.513
1101.515, 1788.661
1103.443, 1812.599
1105.372, 1836.512
1107.300, 1844.721
1109.229, 1838.126
1111.157, 1835.910
1113.085, 1841.985
1115.014, 1847.651
1116.942, 1851.751
1118.871, 1854.085
1120.799, 1853.113
1122.728, 1846.225
1124.656, 1844.506
1126.585, 1854.999
1128.513, 1868.352
1130.442, 1876.735
1132.370, 1880.037
1134.299, 1883.632
1136.227, 1889.211
1138.156, 1894.158
1140.084, 1896.852
1142.012, 1897.607
1143.941, 1899.411
1145.869, 1902.723
1147.798, 1906.526
1149.726, 1911.902
1151.655, 1917.270
1153.583, 1918.855
1155.512, 1914.623
1157.440, 1915.523
1159.369, 1930.426
1161.297, 1945.155
1163.226, 1948.934
1165.154, 1943.084
1167.083, 1938.589
1169.011, 1934.772
1170.939, 1935.478
1172.868, 1944.460
1174.796, 1958.536
1176.725, 1969.330
1178.653, 1975.584
1180.582, 1980.227
1182.510, 1983.600
1184.439, 1985.436
1186.367, 1983.886
1188.296, 1977.751
1190.224, 1978.218
1192.153, 1992.775
1194.081, 2006.205
1196.010, 2009.359
1197.938, 2006.446
1199.866, 2007.764
1201.795, 2015.091
1203.723, 2022.728
1205.652, 2029.424
1207.580, 2035.284
1209.509, 2040.804
1211.437, 2046.634
1213.366, 2048.906
1215.294, 2040.616
1217.223, 2036.036
1219.151, 2043.557
1221.080, 2060.414
1223.008, 2072.934
1224.937, 2079.535
1226.865, 2084.988
1228.793, 2092.148
1230.722, 2097.175
1232.650, 2091.154
1234.579, 2074.002
1236.507, 2073.809
1238.436, 2109.197
1240.364, 2141.696
1242.293, 2149.793
1244.221, 2140.821
1246.150, 2133.424
1248.078, 2127.806
1250.007, 2124.320
1251.935, 2121.536
1253.864, 2121.865
1255.792, 2129.177
1257.720, 2145.837
1259.649, 2155.328
1261.577, 2149.699
1263.506, 2146.969
1265.434, 2155.249
1267.363, 2169.920
1269.291, 2180.241
1271.220, 2184.356
1273.148, 2191.271
1275.077, 2210.053
1277.005, 2225.519
1278.934, 2223.898
1280.862, 2209.429
1282.791, 2200.670
1284.719, 2200.633
1286.647, 2202.865
1288.576, 2204.708
1290.504, 2207.855
1292.433, 2215.353
1294.361, 2228.768
1296.290, 2238.525
1298.218, 2241.404
1300.147, 2243.069
1302.075, 2242.800
1304.004, 2242.818
1305.932, 2250.569
1307.861, 2276.583
1309.789, 2294.639
1311.718, 2297.967
1313.646, 2297.813
1315.574, 2303.668
1317.503, 2314.777
1319.431, 2319.789
1321.360, 2312.910
1323.288, 2310.321
1325.217, 2319.572
1327.145, 2334.678
1329.074, 2351.220
1331.002, 2369.415
1332.931, 2378.530
1334.859, 2371.038
1336.788, 2362.899
1338.716, 2359.734
1340.645, 2361.140
1342.573, 2367.582
1344.501, 2382.558
1346.430, 2391.814
1348.358, 2384.629
1350.287, 2380.082
1352.215, 2392.762
1354.144, 2419.000
1356.072, 2433.824
1358.001, 2430.755
1359.929, 2425.149
1361.858, 2414.198
1363.786, 2404.164
1365.715, 2399.154
1367.643, 2399.490
1369.572, 2407.688
1371.500, 2430.645
1373.428, 2450.062
1375.357, 2459.266
1377.285, 2463.192
1379.214, 2468.235
1381.142, 2474.238
1383.071, 2473.184
1384.999, 2456.299
1386.928, 2445.706
1388.856, 2456.320
1390.785, 2476.592
1392.713, 2490.733
1394.642, 2497.848
1396.570, 2507.708
1398.499, 2529.389
1400.427, 2543.636
1402.355, 2538.671
1404.284, 2522.101
1406.212, 2509.074
1408.141, 2496.934
1410.069, 2496.348
1411.998, 2519.264
1413.926, 2541.309
1415.855, 2548.582
1417.783, 2546.477
1419.712, 2551.493
1421.640, 2574.555
1423.569, 2586.351
1425.497, 2576.603
1427.426, 2565.884
1429.354, 2566.372
1431.282, 2575.293
1433.211, 2582.259
1435.139, 2586.498
1437.068, 2591.230
1438.996, 2598.181
1440.925, 2604.567
1442.853, 2609.055
1444.782, 2611.532
1446.710, 2610.473
1448.639, 2603.308
1450.567, 2602.809
1452.496, 2616.684
1454.424, 2633.292
1456.353, 2645.347
1458.281, 2654.205
1460.209, 2663.970
1462.138, 2675.729
1464.066, 2684.765
1465.995, 2689.204
1467.923, 2691.330
1469.852, 2689.487
1471.780, 2686.160
1473.709, 2693.045
1475.637, 2716.016
1477.566, 2731.440
1479.494, 2731.068
1481.423, 2725.860
1483.351, 2718.012
1485.280, 2709.509
1487.208, 2707.614
1489.136, 2713.359
1491.065, 2723.546
1492.993, 2744.940
1494.922, 2762.835
1496.850, 2766.557
1498.779, 2761.743
1500.707, 2764.401
1502.636, 2783.054
1504.564, 2791.961
1506.493, 2781.115
1508.421, 2772.249
1510.350, 2775.000
1512.278, 2785.971
1514.207, 2799.223
1516.135, 2815.859
1518.063, 2830.919
1519.992, 2852.877
1521.920, 2862.887
1523.849, 2836.558
1525.777, 2803.090
1527.706, 2814.232
1529.634, 2874.199
1531.563, 2903.383
1533.491, 2871.924
1535.420, 2850.206
1537.348, 2872.919
1539.277, 2907.369
1541.205, 2915.128
1543.134, 2900.726
1545.062, 2899.562
1546.990, 2918.335
1548.919, 2938.334
1550.847, 2958.265
1552.776, 2973.813
1554.704, 2979.486
1556.633, 2978.129
1558.561, 2978.833
1560.490, 2983.102
1562.418, 2984.151
1564.347, 2977.506
1566.275, 2970.747
1568.204, 2966.792
1570.132, 2966.351
1572.061, 2972.355
1573.989, 2985.617
1575.917, 2996.785
1577.846, 3003.891
1579.774, 3009.570
1581.703, 3012.407
1583.631, 3016.037
1585.560, 3028.072
1587.488, 3047.697
1589.417, 3054.657
1591.345, 3040.598
1593.274, 3029.358
1595.202, 3028.995
1597.131, 3033.647
1599.059, 3040.093
1600.988, 3048.184
1602.916, 3056.874
1604.844, 3065.425
1606.773, 3077.507
1608.701, 3100.755
1610.630, 3118.885
1612.558, 3121.293
1614.487, 3115.235
1616.415, 3113.727
1618.344, 3117.449
1620.272, 3118.676
1622.201, 3112.868
1624.129, 3111.405
1626.058, 3120.253
1627.986, 3132.267
1629.915, 3141.154
1631.843, 3147.396
1633.771, 3156.641
1635.700, 3171.672
1637.628, 3181.970
1639.557, 3182.445
1641.485, 3181.481
1643.414, 3183.215
1645.342, 3185.596
1647.271, 3183.921
1649.199, 3176.970
1651.128, 3175.398
1653.056, 3185.955
1654.985, 3191.423
1656.913, 3178.826
1658.842, 3167.989
1660.770, 3177.590
1662.698, 3203.215
1664.627, 3220.954
1666.555, 3228.860
1668.484, 3235.024
1670.412, 3239.201
1672.341, 3243.180
1674.269, 3247.523
1676.198, 3252.024
1678.126, 3256.722
1680.055, 3261.668
1681.983, 3264.628
1683.912, 3262.247
1685.840, 3265.100
1687.769, 3277.270
1689.697, 3292.773
1691.625, 3312.542
1693.554, 3332.218
1695.482, 3341.343
1697.411, 3338.208
1699.339, 3337.486
1701.268, 3342.427
1703.196, 3345.497
1705.125, 3338.641
1707.053, 3335.174
1708.982, 3351.316
1710.910, 3378.664
1712.839, 3383.386
1714.767, 3358.720
1716.696, 3347.146
1718.624, 3359.710
1720.552, 3375.550
1722.481, 3393.420
1724.409, 3406.775
1726.338, 3405.877
1728.266, 3394.509
1730.195, 3394.207
1732.123, 3408.455
1734.052, 3417.892
1735.980, 3415.811
1737.909, 3414.258
1739.837, 3415.518
1741.766, 3421.644
1743.694, 3438.837
1745.623, 3463.750
1747.551, 3476.709
1749.479, 3473.284
1751.408, 3477.238
1753.336, 3500.105
1755.265, 3519.831
1757.193, 3525.766
1759.122, 3523.757
1761.050, 3517.201
1762.979, 3507.493
1764.907, 3500.388
1766.836, 3495.277
1768.764, 3497.915
1770.693, 3512.756
1772.621, 3530.123
1774.550, 3549.264
1776.478, 3565.740
1778.406, 3574.102
1780.335, 3575.946
1782.263, 3576.048
1784.192, 3573.063
1786.120, 3577.955
1788.049, 3600.132
1789.977, 3618.468
1791.906, 3622.872
1793.834, 3620.473
1795.763, 3613.176
1797.691, 3604.617
1799.620, 3610.589
1801.548, 3634.693
1803.477, 3653.714
1805.405, 3667.308
1807.333, 3672.317
1809.262, 3655.032
1811.190, 3640.616
1813.119, 3656.386
1815.047, 3690.432
1816.976, 3708.418
1818.904, 3707.088
1820.833, 3703.015
1822.761, 3687.143
1824.690, 3681.941
1826.618, 3693.872
1828.547, 3714.555
1830.475, 3748.284
1832.404, 3783.192
1834.332, 3794.161
1836.260, 3778.647
1838.189, 3772.655
1840.117, 3782.307
1842.046, 3790.189
1843.974, 3794.738
1845.903, 3797.251
1847.831, 3792.885
1849.760, 3790.749
1851.688, 3806.354
1853.617, 3835.593
1855.545, 3844.286
1857.474, 3825.776
1859.402, 3822.096
1861.331, 3850.441
1863.259, 3870.152
1865.188, 3855.028
1867.116, 3839.824
1869.044, 3851.065
1870.973, 3877.118
1872.901, 3898.495
1874.830, 3914.790
1876.758, 3919.694
1878.687, 3906.305
1880.615, 3906.523
1882.544, 3941.021
1884.472, 3971.734
1886.401, 3977.657
1888.329, 3972.291
1890.258, 3966.591
1892.186, 3961.550
1894.115, 3961.498
1896.043, 3967.375
1897.971, 3971.913
1899.900, 3969.034
1901.828, 3973.712
1903.757, 4000.544
1905.685, 4022.731
1907.614, 4016.855
1909.542, 4001.227
1911.471, 4005.010
1913.399, 4026.569
1915.328, 4039.304
1917.256, 4036.093
1919.185, 4041.183
1921.113, 4066.423
1923.042, 4084.415
1924.970, 4078.840
1926.898, 4075.079
1928.827, 4098.621
1930.755, 4130.596
1932.684, 4133.007
1934.612, 4109.296
1936.541, 4099.450
1938.469, 4107.008
1940.398, 4118.330
1942.326, 4134.011
1944.255, 4147.183
1946.183, 4154.878
1948.112, 4159.439
1950.040, 4161.383
1951.969, 4161.890
1953.897, 4161.283
1955.825, 4160.260
1957.754, 4167.526
1959.682, 4188.026
1961.611, 4199.566
1963.539, 4180.735
1965.468, 4179.503
1967.396, 4231.929
1969.325, 4281.033
1971.253, 4279.935
1973.182, 4254.783
1975.110, 4245.743
1977.039, 4252.364
1978.967, 4269.178
1980.896, 4305.252
1982.824, 4319.188
1984.752, 4292.224
1986.681, 4273.216
1988.609, 4272.502
1990.538, 4285.313
1992.466, 4326.035
1994.395, 4366.038
1996.323, 4362.275
1998.252, 4330.848
2000.180, 4325.217
2002.109, 4347.389
2004.037, 4364.419
2005.966, 4371.834
2007.894, 4377.178
2009.823, 4382.855
2011.751, 4386.058
2013.679, 4380.735
2015.608, 4377.062
2017.536, 4384.816
2019.465, 4400.708
2021.393, 4420.173
2023.322, 4443.446
2025.250, 4454.854
2027.179, 4448.203
2029.107, 4445.762
2031.036, 4448.329
2032.964, 4455.916
2034.893, 4474.037
2036.821, 4490.718
2038.750, 4497.448
2040.678, 4501.462
2042.606, 4512.628
2044.535, 4527.227
2046.463, 4534.146
2048.392, 4533.468
2050.320, 4532.806
2052.249, 4529.847
2054.177, 4537.884
2056.106, 4572.648
2058.034, 4599.527
2059.963, 4603.253
2061.891, 4601.136
2063.820, 4603.618
2065.748, 4607.819
2067.677, 4609.068
2069.605, 4608.454
2071.533, 4611.761
2073.462, 4619.800
2075.390, 4624.666
2077.319, 4622.731
2079.247, 4629.342
2081.176, 4651.449
2083.104, 4673.816
2085.033, 4693.711
2086.961, 4708.417
2088.890, 4714.457
2090.818, 4715.476
2092.747, 4715.478
2094.675, 4714.171
2096.604, 4707.641
2098.532, 4694.137
2100.460, 4697.839
2102.389, 4734.167
2104.317, 4757.271
2106.246, 4752.530
2108.174, 4754.851
2110.103, 4783.094
2112.031, 4805.938
2113.960, 4800.724
2115.888, 4788.874
2117.817, 4792.429
2119.745, 4804.420
2121.674, 4808.696
2123.602, 4807.146
2125.531, 4813.155
2127.459, 4828.446
2129.387, 4838.810
2131.316, 4842.401
2133.244, 4841.424
2135.173, 4830.036
2137.101, 4822.957
2139.030, 4822.322
2140.958, 4831.243
2142.887, 4861.612
2144.815, 4895.568
2146.744, 4905.013
2148.672, 4898.621
2150.601, 4908.728
2152.529, 4934.046
2154.458, 4949.196
2156.386, 4951.743
2158.314, 4954.369
2160.243, 4960.071
2162.171, 4962.564
2164.100, 4952.785
2166.028, 4949.751
2167.957, 4964.716
2169.885, 4985.152
2171.814, 5007.917
2173.742, 5026.182
2175.671, 5026.986
2177.599, 5016.114
2179.528, 5010.546
2181.456, 5010.343
2183.385, 5020.079
2185.313, 5040.895
2187.241, 5064.757
2189.170, 5096.649
2191.098, 5109.625
2193.027, 5082.287
2194.955, 5062.005
2196.884, 5068.651
2198.812, 5086.452
2200.741, 5114.261
2202.669, 5140.822
2204.598, 5153.835
2206.526, 5157.090
2208.455, 5157.355
2210.383, 5154.889
2212.312, 5149.852
2214.240, 5141.828
2216.168, 5145.960
2218.097, 5165.823
2220.025, 5181.092
2221.954, 5184.405
2223.882, 5193.785
2225.811, 5226.262
2227.739, 5249.508
2229.668, 5241.314
2231.596, 5230.503
2233.525, 5239.299
2235.453, 5253.997
2237.382, 5261.123
2239.310, 5261.297
2241.239, 5250.378
2243.167, 5232.639
2245.095, 5237.894
2247.024, 5265.685
2248.952, 5280.066
2250.881, 5276.538
2252.809, 5269.891
2254.738, 5254.752
2256.666, 5253.738
2258.595, 5283.118
2260.523, 5310.461
2262.452, 5325.171
2264.380, 5335.095
2266.309, 5345.910
2268.237, 5352.524
2270.166, 5347.464
2272.094, 5337.223
2274.022, 5325.141
2275.951, 5317.487
2277.879, 5337.305
2279.808, 5380.076
2281.736, 5402.453
2283.665, 5398.789
2285.593, 5402.090
2287.522, 5422.661
2289.450, 5431.735
2291.379, 5416.221
2293.307, 5413.018
2295.236, 5431.387
2297.164, 5457.436
2299.093, 5498.988
2301.021, 5528.742
2302.949, 5521.020
2304.878, 5505.077
2306.806, 5505.863
2308.735, 5513.204
2310.663, 5512.813
2312.592, 5508.184
2314.520, 5507.752
2316.449, 5511.242
2318.377, 5516.685
2320.306, 5524.112
2322.234, 5530.909
2324.163, 5535.989
2326.091, 5555.327
2328.020, 5600.540
2329.948, 5618.848
2331.876, 5574.710
2333.805, 5548.859
2335.733, 5573.925
2337.662, 5601.513
2339.590, 5618.112
2341.519, 5627.325
2343.447, 5627.145
2345.376, 5624.737
2347.304, 5618.849
2349.233, 5619.977
2351.161, 5650.629
2353.090, 5691.488
2355.018, 5707.440
2356.947, 5701.755
2358.875, 5681.993
2360.803, 5648.718
2362.732, 5634.951
2364.660, 5643.428
2366.589, 5655.214
2368.517, 5671.038
2370.446, 5681.529
2372.374, 5680.669
2374.303, 5695.677
2376.231, 5748.028
2378.160, 5783.094
2380.088, 5772.138
2382.017, 5760.316
2383.945, 5766.522
2385.874, 5772.638
2387.802, 5767.667
2389.730, 5760.687
2391.659, 5749.903
2393.587, 5748.627
2395.516, 5777.922
2397.444, 5818.883
2399.373, 5846.805
2401.301, 5864.186
2403.230, 5875.466
2405.158, 5881.654
2407.087, 5890.410
2409.015, 5901.825
2410.944, 5891.841
2412.872, 5859.354
2414.801, 5847.527
2416.729, 5860.773
2418.657, 5877.636
2420.586, 5897.149
2422.514, 5914.136
2424.443, 5933.377
2426.371, 5940.419
2428.300, 5923.311
2430.228, 5909.514
2432.157, 5902.890
2434.085, 5903.731
2436.014, 5915.467
2437.942, 5929.634
2439.871, 5941.760
2441.799, 5954.287
2443.728, 5976.617
2445.656, 5992.172
2447.584, 5971.112
2449.513, 5945.499
2451.441, 5970.481
2453.370, 6011.846
2455.298, 5994.352
2457.227, 5950.136
2459.155, 5961.260
2461.084, 6013.042
2463.012, 6042.542
2464.941, 6051.520
2466.869, 6067.469
2468.798, 6092.594
2470.726, 6098.373
2472.655, 6081.842
2474.583, 6081.368
2476.511, 6102.722
2478.440, 6106.230
2480.368, 6079.161
2482.297, 6064.586
2484.225, 6080.928
2486.154, 6090.449
2488.082, 6077.054
2490.011, 6077.337
2491.939, 6110.535
2493.868, 6130.783
2495.796, 6110.708
2497.725, 6100.218
2499.653, 6137.416
2501.582, 6168.616
2503.510, 6153.029
2505.438, 6139.158
2507.367, 6170.810
2509.295, 6202.597
2511.224, 6188.771
2513.152, 6168.536
2515.081, 6181.909
2517.009, 6204.738
2518.938, 6209.521
2520.866, 6206.246
2522.795, 6209.372
2524.723, 6216.082
2526.652, 6216.050
2528.580, 6216.453
2530.509, 6245.584
2532.437, 6291.153
2534.365, 6313.308
2536.294, 6314.434
2538.222, 6309.736
2540.151, 6299.422
2542.079, 6278.719
2544.008, 6245.060
2545.936, 6248.164
2547.865, 6289.569
2549.793, 6317.226
2551.722, 6328.166
2553.650, 6334.064
2555.579, 6332.976
2557.507, 6343.372
2559.436, 6379.958
2561.364, 6400.022
2563.292, 6401.027
2565.221, 6391.424
2567.149, 6367.169
2569.078, 6351.392
2571.006, 6349.012
2572.935, 6354.510
2574.863, 6368.247
2576.792, 6386.863
2578.720, 6419.595
2580.649, 6440.573
2582.577, 6439.376
2584.506, 6436.176
2586.434, 6432.527
2588.363, 6437.624
2590.291, 6466.000
2592.219, 6488.229
2594.148, 6490.180
2596.076, 6484.926
2598.005, 6467.707
2599.933, 6460.329
2601.862, 6479.271
2603.790, 6502.709
2605.719, 6520.681
2607.647, 6533.577
2609.576, 6543.814
2611.504, 6546.549
2613.433, 6524.747
2615.361, 6508.729
2617.290, 6534.790
2619.218, 6567.036
2621.146, 6576.138
2623.075, 6574.065
2625.003, 6559.947
2626.932, 6554.394
2628.860, 6597.835
2630.789, 6648.972
2632.717, 6646.628
2634.646, 6627.242
2636.574, 6640.552
2638.503, 6665.037
2640.431, 6671.795
2642.360, 6668.193
2644.288, 6661.520
2646.217, 6656.543
2648.145, 6668.674
2650.073, 6684.947
2652.002, 6674.676
2653.930, 6653.534
2655.859, 6649.880
2657.787, 6658.990
2659.716, 6668.715
2661.644, 6682.868
2663.573, 6723.296
2665.501, 6771.631
2667.430, 6767.446
2669.358, 6736.511
2671.287, 6748.893
2673.215, 6790.605
2675.144, 6824.988
2677.072, 6848.990
2679.000, 6843.799
2680.929, 6820.374
2682.857, 6812.151
2684.786, 6817.835
2686.714, 6837.655
2688.643, 6864.191
2690.571, 6865.615
2692.500, 6847.111
2694.428, 6824.608
2696.357, 6805.009
2698.285, 6821.023
2700.214, 6862.233
2702.142, 6890.181
2704.071, 6904.363
2705.999, 6894.781
2707.927, 6869.340
2709.856, 6871.780
2711.784, 6893.858
2713.713, 6906.612
2715.641, 6911.180
2717.570, 6911.905
2719.498, 6910.925
2721.427, 6918.929
2723.355, 6934.021
2725.284, 6950.852
2727.212, 6965.937
2729.141, 6962.079
2731.069, 6947.008
2732.998, 6946.878
2734.926, 6959.054
2736.854, 6979.666
2738.783, 7002.424
2740.711, 6999.409
2742.640, 6980.785
2744.568, 6971.041
2746.497, 6971.374
2748.425, 6990.176
2750.354, 7019.797
2752.282, 7038.741
2754.211, 7049.670
2756.139, 7056.716
2758.068, 7062.283
2759.996, 7071.672
2761.925, 7083.261
2763.853, 7091.310
2765.781, 7100.253
2767.710, 7127.246
2769.638, 7156.059
2771.567, 7155.556
2773.495, 7141.168
2775.424, 7137.245
2777.352, 7136.911
2779.281, 7120.835
2781.209, 7108.444
2783.138, 7138.690
2785.066, 7179.022
2786.995, 7186.773
2788.923, 7186.495
2790.852, 7208.372
2792.780, 7237.778
2794.708, 7267.026
2796.637, 7285.823
2798.565, 7277.047
2800.494, 7263.588
2802.422, 7268.455
2804.351, 7274.295
2806.279, 7259.484
2808.208, 7249.475
2810.136, 7266.273
2812.065, 7285.871
2813.993, 7289.122
2815.922, 7295.086
2817.850, 7326.239
2819.779, 7346.359
2821.707, 7321.205
2823.635, 7311.109
2825.564, 7359.218
2827.492, 7400.781
2829.421, 7404.510
2831.349, 7404.493
2833.278, 7416.295
2835.206, 7413.930
2837.135, 7377.513
2839.063, 7361.904
2840.992, 7405.947
2842.920, 7431.726
2844.849, 7410.716
2846.777, 7409.757
2848.706, 7447.186
2850.634, 7452.160
2852.563, 7397.737
2854.491, 7368.965
2856.419, 7382.794
2858.348, 7407.608
2860.276, 7445.295
2862.205, 7475.334
2864.133, 7496.297
2866.062, 7508.015
2867.990, 7509.959
2869.919, 7507.302
2871.847, 7500.222
2873.776, 7515.009
2875.704, 7547.540
2877.633, 7572.051
2879.561, 7587.576
2881.490, 7584.972
2883.418, 7573.686
2885.346, 7601.463
2887.275, 7643.604
2889.203, 7630.762
2891.132, 7596.772
2893.060, 7607.387
2894.989, 7632.966
2896.917, 7617.857
2898.846, 7600.857
2900.774, 7637.419
2902.703, 7680.633
2904.631, 7685.996
2906.560, 7680.108
2908.488, 7679.417
2910.417, 7682.360
2912.345, 7691.413
2914.273, 7697.785
2916.202, 7697.199
2918.130, 7692.300
2920.059, 7673.363
2921.987, 7669.494
2923.916, 7688.935
2925.844, 7720.002
2927.773, 7769.772
2929.701, 7806.476
2931.630, 7828.704
2933.558, 7824.188
2935.487, 7786.260
2937.415, 7771.370
2939.344, 7788.661
2941.272, 7803.088
2943.200, 7813.385
2945.129, 7817.633
2947.057, 7817.202
2948.986, 7827.435
2950.914, 7844.480
2952.843, 7845.402
2954.771, 7837.081
2956.700, 7841.848
2958.628, 7854.032
2960.557, 7863.958
2962.485, 7871.542
2964.414, 7875.016
2966.342, 7877.758
2968.271, 7879.917
2970.199, 7887.972
2972.127, 7914.367
2974.056, 7936.351
2975.984, 7934.831
2977.913, 7933.038
2979.841, 7940.020
2981.770, 7952.358
2983.698, 7977.427
2985.627, 7984.984
2987.555, 7937.065
2989.484, 7935.677
2991.412, 8006.380
2993.341, 8033.536
2995.269, 8004.077
2997.198, 7984.697
2999.126, 7980.254
3001.054, 7999.885
3002.983, 8039.990
3004.911, 8047.823
3006.840, 8036.018
3008.768, 8055.542
3010.697, 8086.626
3012.625, 8074.756
3014.554, 8050.951
3016.482, 8067.687
3018.411, 8093.899
3020.339, 8099.777
3022.268, 8102.628
3024.196, 8121.758
3026.125, 8132.006
3028.053, 8109.641
3029.981, 8102.068
3031.910, 8145.455
3033.838, 8174.819
3035.767, 8175.889
3037.695, 8169.253
3039.624, 8155.468
3041.552, 8146.130
3043.481, 8139.248
3045.409, 8165.723
3047.338, 8223.279
3049.266, 8246.811
3051.195, 8242.691
3053.123, 8245.120
3055.052, 8249.152
3056.980, 8232.649
3058.908, 8216.707
3060.837, 8246.669
3062.765, 8278.585
3064.694, 8256.228
3066.622, 8237.438
3068.551, 8273.278
3070.479, 8308.587
3072.408, 8321.862
3074.336, 8330.506
3076.265, 8339.363
3078.193, 8345.842
3080.122, 8349.910
3082.050, 8348.204
3083.979, 8338.522
3085.907, 8350.938
3087.835, 8386.242
3089.764, 8394.683
3091.692, 8386.116
3093.621, 8406.355
3095.549, 8437.579
3097.478, 8438.259
3099.406, 8430.457
3101.335, 8446.083
3103.263, 8465.858
3105.192, 8477.921
3107.120, 8484.003
3109.049, 8485.239
3110.977, 8478.791
3112.906, 8457.894
3114.834, 8448.987
3116.762, 8462.057
3118.691, 8479.784
3120.619, 8501.375
3122.548, 8530.812
3124.476, 8565.206
3126.405, 8571.471
3128.333, 8556.206
3130.262, 8542.267
3132.190, 8532.341
3134.119, 8531.523
3136.047, 8537.811
3137.976, 8550.864
3139.904, 8568.235
3141.833, 8595.561
3143.761, 8612.891
3145.689, 8607.484
3147.618, 8598.704
3149.546, 8579.772
3151.475, 8594.081
3153.403, 8648.935
3155.332, 8678.906
3157.260, 8678.614
3159.189, 8677.055
3161.117, 8676.099
3163.046, 8692.602
3164.974, 8710.544
3166.903, 8693.678
3168.831, 8671.229
3170.760, 8672.469
3172.688, 8688.413
3174.616, 8733.887
3176.545, 8756.629
3178.473, 8715.185
3180.402, 8687.700
3182.330, 8683.774
3184.259, 8698.674
3186.187, 8735.439
3188.116, 8763.635
3190.044, 8782.654
3191.973, 8781.063
3193.901, 8770.410
3195.830, 8775.013
3197.758, 8791.682
3199.687, 8832.930
3201.615, 8860.388
3203.543, 8826.971
3205.472, 8806.376
3207.400, 8855.835
3209.329, 8872.371
3211.257, 8829.774
3213.186, 8812.171
3215.114, 8835.765
3217.043, 8858.774
3218.971, 8879.995
3220.900, 8882.610
3222.828, 8879.125
3224.757, 8901.873
3226.685, 8931.847
3228.614, 8953.920
3230.542, 8957.958
3232.470, 8916.486
3234.399, 8892.165
3236.327, 8926.612
3238.256, 8946.521
3240.184, 8941.267
3242.113, 8940.106
3244.041, 8945.884
3245.970, 8968.881
3247.898, 9003.810
3249.827, 9038.304
3251.755, 9054.794
3253.684, 8987.577
3255.612, 8936.438
3257.541, 9030.138
3259.469, 9104.679
3261.397, 9050.024
3263.326, 9025.187
3265.254, 9071.597
3267.183, 9107.906
3269.111, 9127.179
3271.040, 9134.304
3272.968, 9129.602
3274.897, 9095.336
3276.825, 9060.255
3278.754, 9084.784
3280.682, 9124.542
3282.611, 9151.481
3284.539, 9149.364
3286.468, 9085.182
3288.396, 9062.288
3290.324, 9155.271
3292.253, 9187.517
3294.181, 9155.016
3296.110, 9144.094
3298.038, 9156.524
3299.967, 9190.844
3301.895, 9228.907
3303.824, 9239.739
3305.752, 9234.875
3307.681, 9201.812
3309.609, 9195.198
3311.538, 9251.423
3313.466, 9285.224
3315.395, 9277.183
3317.323, 9238.791
3319.251, 9172.309
3321.180, 9208.153
3323.108, 9294.488
3325.037, 9267.824
3326.965, 9218.573
3328.894, 9279.592
3330.822, 9348.819
3332.751, 9383.963
3334.679, 9377.554
3336.608, 9304.958
3338.536, 9278.338
3340.465, 9309.291
3342.393, 9318.589
3344.322, 9312.098
3346.250, 9346.389
3348.178, 9391.160
3350.107, 9399.755
3352.035, 9397.573
3353.964, 9408.650
3355.892, 9406.109
3357.821, 9370.962
3359.749, 9359.358
3361.678, 9385.268
3363.606, 9406.584
3365.535, 9420.789
3367.463, 9414.888
3369.392, 9399.333
3371.320, 9380.222
3373.249, 9380.680
3375.177, 9439.192
3377.105, 9483.389
3379.034, 9478.853
3380.962, 9466.607
3382.891, 9448.729
3384.819, 9468.818
3386.748, 9517.293
3388.676, 9510.923
3390.605, 9482.744
3392.533, 9483.410
3394.462, 9495.922
3396.390, 9521.738
3398.319, 9524.034
3400.247, 9475.516
3402.176, 9467.208
3404.104, 9518.611
3406.032, 9530.885
3407.961, 9517.682
3409.889, 9543.274
3411.818, 9575.461
3413.746, 9551.597
3415.675, 9534.521
3417.603, 9574.939
3419.532, 9604.946
3421.460, 9607.241
3423.389, 9607.862
3425.317, 9608.497
3427.246, 9601.956
3429.174, 9592.818
3431.103, 9598.824
3433.031, 9603.961
3434.959, 9585.348
3436.888, 9573.736
3438.816, 9580.640
3440.745, 9598.434
3442.673, 9627.711
3444.602, 9663.990
3446.530, 9700.864
3448.459, 9680.666
3450.387, 9649.960
3452.316, 9687.665
3454.244, 9725.419
3456.173, 9723.451
3458.101, 9713.646
3460.030, 9690.309
3461.958, 9711.900
3463.886, 9769.744
3465.815, 9754.118
3467.743, 9711.218
3469.672, 9750.928
3471.600, 9802.932
3473.529, 9811.870
3475.457, 9815.730
3477.386, 9830.569
3479.314, 9829.903
3481.243, 9811.572
3483.171, 9773.544
3485.100, 9732.238
3487.028, 9742.126
3488.957, 9768.270
3490.885, 9781.598
3492.813, 9793.876
3494.742, 9810.620
3496.670, 9822.135
3498.599, 9826.969
3500.527, 9813.729
3502.456, 9792.060
3504.384, 9794.813
3506.313, 9810.790
3508.241, 9832.609
3510.170, 9859.674
3512.098, 9899.172
3514.027, 9911.734
3515.955, 9887.210
3517.884, 9870.254
3519.812, 9863.414
3521.740, 9884.069
3523.669, 9901.244
3525.597, 9867.471
3527.526, 9845.139
3529.454, 9869.232
3531.383, 9882.166
3533.311, 9879.946
3535.240, 9857.524
3537.168, 9836.676
3539.097, 9900.771
3541.025, 9958.751
3542.954, 9911.050
3544.882, 9881.550
3546.811, 9930.130
3548.739, 9954.894
3550.667, 9951.552
3552.596, 9940.462
3554.524, 9931.074
3556.453, 9951.952
3558.381, 9970.538
3560.310, 9960.689
3562.238, 9947.029
3564.167, 9932.911
3566.095, 9933.892
3568.024, 9948.793
3569.952, 9963.560
3571.881, 9974.606
3573.809, 9973.143
3575.738, 9974.175
3577.666, 9993.745
3579.594, 9988.449
3581.523, 9947.366
3583.451, 9982.820
3585.380, 10065.52
3587.308, 10072.22
3589.237, 10064.86
3591.165, 10120.52
3593.094, 10138.16
3595.022, 10080.16
3596.951, 10035.18
3598.879, 10012.06
3600.808, 9995.667
3602.736, 10002.20
3604.665, 10088.21
3606.593, 10149.25
3608.521, 10110.70
3610.450, 10093.65
3612.378, 10132.63
3614.307, 10151.79
3616.235, 10151.71
3618.164, 10130.61
3620.092, 10101.52
3622.021, 10059.80
3623.949, 10050.35
3625.878, 10095.30
3627.806, 10155.09
3629.735, 10218.39
3631.663, 10182.56
3633.592, 10125.88
3635.520, 10182.33
3637.448, 10221.12
3639.377, 10171.52
3641.305, 10137.14
3643.234, 10130.37
3645.162, 10140.46
3647.091, 10163.49
3649.019, 10200.58
3650.948, 10232.65
3652.876, 10262.18
3654.805, 10236.94
3656.733, 10122.82
3658.662, 10109.67
3660.590, 10170.53
3662.519, 10233.40
3664.447, 10264.90
3666.375, 10209.52
3668.304, 10187.31
3670.232, 10257.12
3672.161, 10308.22
3674.089, 10333.81
3676.018, 10301.93
3677.946, 10256.69
3679.875, 10248.38
3681.803, 10241.61
3683.732, 10213.39
3685.660, 10216.86
3687.589, 10245.31
3689.517, 10255.48
3691.446, 10253.20
3693.374, 10230.17
3695.302, 10229.42
3697.231, 10293.78
3699.159, 10312.81
3701.088, 10290.67
3703.016, 10295.98
3704.945, 10308.96
3706.873, 10298.25
3708.802, 10284.11
3710.730, 10268.51
3712.659, 10271.39
3714.587, 10291.29
3716.516, 10305.52
3718.444, 10322.47
3720.373, 10376.54
3722.301, 10398.87
3724.229, 10333.25
3726.158, 10313.49
3728.086, 10342.04
3730.015, 10383.59
3731.943, 10413.86
3733.872, 10391.71
3735.800, 10354.46
3737.729, 10302.02
3739.657, 10291.12
3741.586, 10317.59
3743.514, 10330.75
3745.443, 10342.66
3747.371, 10378.92
3749.300, 10402.07
3751.228, 10390.67
3753.156, 10401.32
3755.085, 10427.57
3757.013, 10423.30
3758.942, 10398.64
3760.870, 10338.61
3762.799, 10317.26
3764.727, 10376.77
3766.656, 10368.33
3768.584, 10318.74
3770.513, 10346.46
3772.441, 10396.89
3774.370, 10431.20
3776.298, 10451.63
3778.227, 10456.24
3780.155, 10452.38
3782.083, 10445.68
3784.012, 10454.27
3785.940, 10458.55
3787.869, 10436.17
3789.797, 10446.55
3791.726, 10502.48
3793.654, 10514.32
3795.583, 10495.45
3797.511, 10453.03
3799.440, 10430.67
3801.368, 10454.32
3803.297, 10439.62
3805.225, 10391.44
3807.154, 10472.60
3809.082, 10563.51
3811.010, 10500.95
3812.939, 10469.55
3814.867, 10518.45
3816.796, 10558.81
3818.724, 10579.79
3820.653, 10546.24
3822.581, 10511.23
3824.510, 10508.45
3826.438, 10536.10
3828.367, 10590.31
3830.295, 10592.26
3832.224, 10565.42
3834.152, 10537.61
3836.081, 10534.45
3838.009, 10591.48
3839.938, 10594.54
3841.866, 10550.78
3843.794, 10528.27
3845.723, 10524.39
3847.651, 10542.96
3849.580, 10548.63
3851.508, 10541.64
3853.437, 10541.59
3855.365, 10550.67
3857.294, 10595.72
3859.222, 10603.82
3861.151, 10505.42
3863.079, 10520.15
3865.008, 10629.55
3866.936, 10597.55
3868.865, 10520.15
3870.793, 10481.73
3872.721, 10460.03
3874.650, 10454.43
3876.578, 10472.29
3878.507, 10498.10
3880.435, 10505.55
3882.364, 10500.32
3884.292, 10484.36
3886.221, 10461.03
3888.149, 10436.66
3890.078, 10467.43
3892.006, 10499.43
3893.935, 10472.88
3895.863, 10458.82
3897.792, 10468.42
3899.720, 10472.91
3901.648, 10464.46
3903.577, 10413.74
3905.505, 10392.17
3907.434, 10438.75
3909.362, 10449.88
3911.291, 10431.46
3913.219, 10419.77
3915.148, 10393.98
3917.076, 10321.49
3919.005, 10303.55
3920.933, 10338.39
3922.862, 10385.72
3924.790, 10418.61
3926.719, 10371.19
3928.647, 10345.23
3930.575, 10389.49
3932.504, 10394.77
3934.432, 10365.03
3936.361, 10320.00
3938.289, 10301.27
3940.218, 10331.04
3942.146, 10362.13
3944.075, 10380.12
3946.003, 10352.59
3947.932, 10322.38
3949.860, 10306.77
3951.789, 10306.00
3953.717, 10318.45
3955.646, 10300.58
3957.574, 10277.33
3959.502, 10269.57
3961.431, 10294.45
3963.359, 10344.46
3965.288, 10303.13
3967.216, 10225.28
3969.145, 10242.13
3971.073, 10265.49
3973.002, 10240.95
3974.930, 10220.96
3976.859, 10222.29
3978.787, 10237.12
3980.716, 10252.44
3982.644, 10252.87
3984.573, 10222.20
3986.501, 10177.46
3988.429, 10143.82
3990.358, 10154.11
3992.286, 10203.51
3994.215, 10204.06
3996.143, 10184.93
3998.072, 10176.14
4000.000, 10174.46
4001.929, 10187.89
4003.857, 10175.49
4005.786, 10152.69
4007.714, 10172.09
4009.643, 10184.55
4011.571, 10164.26
4013.500, 10168.80
4015.428, 10144.87
4017.356, 10099.88
4019.285, 10109.87
4021.213, 10137.45
4023.142, 10124.46
4025.070, 10108.32
4026.999, 10114.25
4028.927, 10095.33
4030.856, 10064.01
4032.784, 10064.09
4034.713, 10070.85
4036.641, 10082.27
4038.570, 10101.49
4040.498, 10122.73
4042.427, 10117.27
4044.355, 10088.20
4046.283, 10064.72
4048.212, 10053.61
4050.140, 10052.50
4052.069, 10042.56
4053.997, 10034.10
4055.926, 10020.53
4057.854, 9996.269
4059.783, 9984.285
4061.711, 10001.76
4063.640, 10023.89
4065.568, 10006.51
4067.497, 9996.558
4069.425, 10018.75
4071.354, 10015.48
4073.282, 9992.754
4075.210, 10002.95
4077.139, 10004.83
4079.067, 9959.884
4080.996, 9950.170
4082.924, 9948.861
4084.853, 9943.084
4086.781, 9943.149
4088.710, 9971.058
4090.638, 9977.954
4092.567, 9942.109
4094.495, 9920.140
4096.424, 9910.831
4098.352, 9900.646
4100.280, 9896.633
4102.209, 9904.045
4104.138, 9929.592
4106.066, 9934.594
4107.994, 9880.674
4109.923, 9860.106
4111.852, 9882.213
4113.780, 9894.404
4115.708, 9896.020
4117.637, 9891.259
4119.565, 9874.917
4121.494, 9847.966
4123.422, 9841.218
4125.351, 9842.145
4127.279, 9841.679
4129.208, 9835.365
4131.136, 9822.952
4133.064, 9838.948
4134.993, 9850.181
4136.921, 9819.078
4138.850, 9795.531
4140.778, 9790.816
4142.707, 9784.301
4144.635, 9782.166
4146.563, 9797.909
4148.492, 9820.102
4150.421, 9848.725
4152.349, 9805.946
4154.277, 9745.261
4156.206, 9724.001
4158.135, 9718.393
4160.063, 9739.337
4161.991, 9765.966
4163.920, 9769.729
4165.849, 9734.702
4167.777, 9722.552
4169.705, 9741.559
4171.634, 9748.199
4173.563, 9730.668
4175.491, 9679.924
4177.419, 9641.918
4179.348, 9601.352
4181.276, 9650.240
4183.205, 9721.818
4185.133, 9684.116
4187.062, 9641.356
4188.990, 9617.083
4190.918, 9639.495
4192.847, 9662.525
4194.775, 9603.813
4196.704, 9587.525
4198.632, 9634.126
4200.561, 9641.725
4202.489, 9637.999
4204.418, 9625.264
4206.346, 9623.329
4208.274, 9629.632
4210.203, 9612.225
4212.132, 9599.072
4214.060, 9633.121
4215.988, 9629.500
4217.917, 9579.001
4219.846, 9592.087
4221.774, 9614.500
4223.702, 9595.691
4225.631, 9561.946
4227.560, 9519.874
4229.488, 9521.734
4231.416, 9539.949
4233.345, 9552.594
4235.273, 9553.354
4237.202, 9543.698
4239.130, 9497.145
4241.059, 9468.998
4242.987, 9515.756
4244.916, 9549.383
4246.844, 9558.313
4248.772, 9521.260
4250.701, 9499.172
4252.629, 9534.002
4254.558, 9543.328
4256.486, 9536.285
4258.415, 9523.913
4260.343, 9525.639
4262.271, 9549.664
4264.200, 9602.050
4266.129, 9636.375
4268.057, 9556.901
4269.985, 9512.646
4271.914, 9534.404
4273.843, 9568.796
4275.771, 9583.562
4277.699, 9520.188
4279.628, 9499.849
4281.557, 9528.666
4283.485, 9551.164
4285.413, 9574.046
4287.342, 9616.269
4289.271, 9600.819
4291.199, 9555.930
4293.127, 9590.710
4295.056, 9624.363
4296.984, 9617.246
4298.913, 9618.020
4300.841, 9623.683
4302.770, 9633.711
4304.698, 9629.027
4306.626, 9602.358
4308.555, 9619.401
4310.483, 9639.444
4312.412, 9617.208
4314.340, 9591.684
4316.269, 9569.771
4318.197, 9552.203
4320.126, 9565.780
4322.054, 9643.382
4323.982, 9647.905
4325.911, 9607.238
4327.840, 9603.620
4329.768, 9633.902
4331.696, 9699.977
4333.625, 9666.422
4335.554, 9608.225
4337.482, 9627.977
4339.410, 9641.484
4341.339, 9634.515
4343.268, 9596.148
4345.196, 9581.197
4347.124, 9634.062
4349.053, 9660.776
4350.981, 9659.595
4352.910, 9637.063
4354.838, 9634.966
4356.767, 9667.455
4358.695, 9692.190
4360.624, 9699.443
4362.552, 9670.932
4364.480, 9650.349
4366.409, 9645.894
4368.337, 9668.556
4370.266, 9685.613
4372.194, 9661.563
4374.123, 9678.178
4376.051, 9708.136
4377.979, 9662.007
4379.908, 9646.559
4381.837, 9700.381
4383.765, 9700.279
4385.693, 9687.559
4387.622, 9702.805
4389.551, 9725.479
4391.479, 9744.764
4393.407, 9713.699
4395.336, 9683.066
4397.265, 9673.182
4399.193, 9674.793
4401.121, 9699.104
4403.050, 9806.066
4404.979, 9795.624
4406.907, 9675.855
4408.835, 9673.743
4410.764, 9716.273
4412.692, 9768.188
4414.621, 9765.174
4416.549, 9731.746
4418.478, 9715.574
4420.406, 9709.332
4422.334, 9711.330
4424.263, 9715.309
4426.191, 9726.612
4428.120, 9755.732
4430.048, 9770.733
4431.977, 9771.854
4433.905, 9759.893
4435.834, 9746.321
4437.762, 9734.828
4439.690, 9767.491
4441.619, 9797.419
4443.548, 9784.361
4445.476, 9766.642
4447.404, 9755.260
4449.333, 9776.261
4451.262, 9779.446
4453.190, 9751.999
4455.118, 9764.183
4457.047, 9794.261
4458.976, 9830.531
4460.904, 9841.232
4462.832, 9834.368
4464.761, 9845.384
4466.689, 9834.418
4468.618, 9788.242
4470.546, 9757.156
4472.475, 9739.117
4474.403, 9733.657
4476.332, 9737.934
4478.260, 9746.650
4480.188, 9743.861
4482.117, 9756.978
4484.045, 9790.082
4485.974, 9820.177
4487.902, 9835.174
4489.831, 9819.853
4491.759, 9805.687
4493.688, 9797.485
4495.616, 9810.590
4497.545, 9808.230
4499.473, 9786.294
4501.401, 9774.453
4503.330, 9787.552
4505.259, 9835.719
4507.187, 9866.772
4509.115, 9882.305
4511.044, 9900.616
4512.973, 9860.916
4514.901, 9784.137
4516.829, 9793.375
4518.758, 9806.748
4520.687, 9783.603
4522.615, 9819.540
4524.543, 9863.506
4526.472, 9867.778
4528.400, 9860.307
4530.329, 9850.990
4532.257, 9863.365
4534.186, 9853.287
4536.114, 9818.465
4538.042, 9813.729
4539.971, 9825.312
4541.899, 9847.977
4543.828, 9865.429
4545.756, 9875.567
4547.685, 9872.179
4549.613, 9878.676
4551.542, 9885.691
4553.470, 9826.227
4555.398, 9792.764
4557.327, 9809.371
4559.256, 9812.498
4561.184, 9818.417
4563.112, 9853.996
4565.041, 9823.846
4566.970, 9776.228
4568.898, 9808.712
4570.826, 9837.826
4572.755, 9853.566
4574.684, 9870.654
4576.612, 9887.926
4578.540, 9903.986
4580.469, 9896.444
4582.397, 9877.312
4584.326, 9848.355
4586.254, 9854.842
4588.183, 9877.480
4590.111, 9878.480
4592.040, 9887.089
4593.968, 9899.897
4595.896, 9865.969
4597.825, 9864.809
4599.753, 9912.853
4601.682, 9877.790
4603.610, 9848.741
4605.539, 9912.069
4607.467, 9902.324
4609.396, 9864.589
4611.324, 9880.226
4613.253, 9845.961
4615.181, 9782.239
4617.109, 9779.778
4619.038, 9828.770
4620.967, 9911.015
4622.895, 9936.191
4624.823, 9936.077
4626.752, 9922.911
4628.681, 9929.896
4630.609, 9943.923
4632.537, 9956.001
4634.466, 9946.499
4636.395, 9926.530
4638.323, 9908.006
4640.251, 9926.304
4642.180, 9965.524
4644.108, 9949.133
4646.037, 9908.252
4647.965, 9853.663
4649.894, 9870.366
4651.822, 9902.484
4653.750, 9921.818
4655.679, 9959.441
4657.607, 9972.434
4659.536, 9882.792
4661.464, 9903.770
4663.393, 9969.425
4665.321, 9922.739
4667.250, 9940.953
4669.178, 10002.10
4671.106, 9899.291
4673.035, 9857.950
4674.964, 9921.608
4676.892, 9957.760
4678.820, 9961.439
4680.749, 9923.026
4682.678, 9962.414
4684.606, 9984.249
4686.534, 9914.068
4688.463, 9896.428
4690.392, 9914.033
4692.320, 9948.971
4694.248, 9928.169
4696.177, 9884.105
4698.105, 9895.561
4700.034, 9937.680
4701.962, 9984.316
4703.891, 9946.245
4705.819, 9920.745
4707.748, 9931.420
4709.676, 9918.239
4711.604, 9909.842
4713.533, 9918.931
4715.461, 9889.486
4717.390, 9872.876
4719.318, 9905.301
4721.247, 9902.862
4723.175, 9882.412
4725.104, 9850.716
4727.032, 9902.942
4728.961, 9963.569
4730.889, 9899.646
4732.817, 9860.936
4734.746, 9860.683
4736.675, 9894.738
4738.603, 9899.502
4740.531, 9877.022
4742.460, 9887.285
4744.389, 9892.125
4746.317, 9883.790
4748.245, 9862.972
4750.174, 9873.390
4752.103, 9932.880
4754.031, 9900.164
4755.959, 9874.971
4757.888, 9905.966
4759.816, 9882.222
4761.745, 9854.157
4763.673, 9868.201
4765.602, 9873.108
4767.530, 9874.366
4769.458, 9878.413
4771.387, 9882.149
4773.315, 9882.890
4775.244, 9874.757
4777.172, 9873.215
4779.101, 9878.021
4781.029, 9891.279
4782.958, 9889.261
4784.886, 9868.964
4786.814, 9807.465
4788.743, 9816.280
4790.672, 9876.223
4792.600, 9843.057
4794.528, 9809.256
4796.457, 9800.599
4798.386, 9855.499
4800.314, 9890.194
4802.242, 9885.405
4804.171, 9901.517
4806.100, 9908.845
4808.028, 9894.896
4809.956, 9818.170
4811.885, 9772.281
4813.813, 9799.839
4815.742, 9822.932
4817.670, 9831.016
4819.599, 9819.450
4821.527, 9848.706
4823.456, 9868.131
4825.384, 9846.200
4827.313, 9749.021
4829.241, 9706.903
4831.169, 9821.995
4833.098, 9809.815
4835.026, 9766.271
4836.955, 9798.776
4838.883, 9766.318
4840.812, 9728.622
4842.740, 9749.656
4844.669, 9722.033
4846.597, 9699.645
4848.525, 9774.541
4850.454, 9751.813
4852.383, 9716.757
4854.311, 9790.366
4856.239, 9803.260
4858.168, 9769.527
4860.097, 9707.758
4862.025, 9727.980
4863.953, 9756.170
4865.882, 9663.145
4867.811, 9655.954
4869.739, 9705.767
4871.667, 9741.036
4873.596, 9777.150
4875.524, 9801.646
4877.453, 9799.865
4879.381, 9717.935
4881.310, 9629.813
4883.238, 9682.897
4885.167, 9724.267
4887.095, 9738.479
4889.023, 9714.789
4890.952, 9713.377
4892.880, 9720.229
4894.809, 9698.914
4896.737, 9671.617
4898.666, 9659.193
4900.594, 9713.367
4902.522, 9698.465
4904.451, 9643.713
4906.380, 9606.485
4908.308, 9643.299
4910.236, 9698.657
4912.165, 9678.710
4914.094, 9657.085
4916.022, 9638.858
4917.950, 9615.170
4919.879, 9648.348
4921.808, 9686.457
4923.736, 9627.669
4925.664, 9637.865
4927.593, 9658.014
4929.521, 9588.133
4931.450, 9593.862
4933.378, 9639.563
4935.307, 9678.022
4937.235, 9653.192
4939.164, 9599.084
4941.092, 9539.449
4943.021, 9546.730
4944.949, 9567.132
4946.877, 9547.345
4948.806, 9626.717
4950.734, 9683.176
4952.663, 9582.804
4954.591, 9554.481
4956.520, 9563.551
4958.448, 9585.471
4960.377, 9522.784
4962.305, 9490.047
4964.233, 9558.132
4966.162, 9525.387
4968.091, 9498.097
4970.019, 9531.746
4971.947, 9537.257
4973.876, 9515.087
4975.805, 9477.768
4977.733, 9531.449
4979.661, 9563.931
4981.590, 9544.267
4983.519, 9575.716
4985.447, 9554.552
4987.375, 9478.027
4989.304, 9448.678
4991.232, 9432.813
4993.161, 9429.935
4995.089, 9471.184
4997.018, 9514.041
4998.946, 9539.718
5000.875, 9529.624
5002.803, 9455.242
5004.731, 9373.405
5006.660, 9392.327
5008.588, 9390.104
5010.517, 9379.823
5012.445, 9395.734
5014.374, 9362.815
5016.302, 9335.614
5018.230, 9369.869
5020.159, 9399.395
5022.088, 9424.947
5024.016, 9454.887
5025.944, 9438.098
5027.873, 9411.362
5029.802, 9391.774
5031.730, 9356.846
5033.658, 9365.741
5035.587, 9421.584
5037.516, 9382.059
5039.444, 9341.199
5041.372, 9327.534
5043.301, 9356.292
5045.229, 9359.057
5047.158, 9334.301
5049.086, 9301.648
5051.015, 9281.999
5052.943, 9264.826
5054.872, 9214.341
5056.800, 9256.452
5058.729, 9307.396
5060.657, 9277.661
5062.585, 9279.147
5064.514, 9278.586
5066.442, 9248.257
5068.371, 9177.152
5070.299, 9150.115
5072.228, 9195.753
5074.156, 9224.508
5076.085, 9214.932
5078.013, 9186.169
5079.941, 9238.604
5081.870, 9267.648
5083.799, 9258.043
5085.727, 9204.690
5087.655, 9221.014
5089.584, 9240.606
5091.513, 9155.554
5093.441, 9120.356
5095.369, 9107.267
5097.298, 9082.580
5099.227, 9052.284
5101.155, 9051.932
5103.083, 9093.783
5105.012, 9125.755
5106.940, 9150.456
5108.869, 9155.451
5110.797, 9064.771
5112.726, 9042.624
5114.654, 9073.290
5116.583, 9043.440
5118.511, 9093.521
5120.439, 9155.315
5122.368, 9137.049
5124.296, 9066.594
5126.225, 9022.620
5128.153, 9058.709
5130.082, 9047.806
5132.010, 9040.456
5133.938, 9048.194
5135.867, 9005.609
5137.796, 8962.036
5139.724, 8940.880
5141.652, 8990.217
5143.581, 8968.281
5145.510, 8925.463
5147.438, 8948.611
5149.366, 8968.911
5151.295, 8983.854
5153.224, 8991.441
5155.152, 8929.769
5157.080, 8911.559
5159.009, 8956.490
5160.938, 8924.081
5162.866, 8882.370
5164.794, 8856.708
5166.723, 8865.670
5168.651, 8901.046
5170.580, 8948.951
5172.508, 9001.444
5174.437, 8870.113
5176.365, 8809.032
5178.293, 8954.250
5180.222, 8917.155
5182.150, 8890.596
5184.079, 8907.991
5186.007, 8887.793
5187.936, 8869.842
5189.864, 8854.301
5191.793, 8830.408
5193.721, 8814.844
5195.649, 8817.181
5197.578, 8844.285
5199.507, 8856.890
5201.435, 8841.867
5203.363, 8803.747
5205.292, 8758.209
5207.221, 8782.565
5209.149, 8826.524
5211.077, 8788.887
5213.006, 8753.894
5214.935, 8752.305
5216.863, 8801.156
5218.791, 8803.576
5220.720, 8799.515
5222.648, 8796.582
5224.577, 8761.874
5226.505, 8740.718
5228.434, 8729.912
5230.362, 8706.360
5232.291, 8737.044
5234.219, 8742.802
5236.147, 8678.117
5238.076, 8665.558
5240.004, 8657.994
5241.933, 8645.779
5243.861, 8654.008
5245.790, 8635.208
5247.718, 8622.882
5249.646, 8682.384
5251.575, 8642.873
5253.504, 8598.468
5255.432, 8599.387
5257.360, 8641.739
5259.289, 8664.589
5261.218, 8646.515
5263.146, 8545.810
5265.074, 8544.891
5267.003, 8562.361
5268.932, 8515.140
5270.860, 8537.562
5272.788, 8562.298
5274.717, 8566.619
5276.646, 8560.893
5278.574, 8535.743
5280.502, 8513.319
5282.431, 8527.739
5284.359, 8525.688
5286.288, 8482.813
5288.216, 8408.606
5290.145, 8520.994
5292.073, 8508.794
5294.001, 8415.934
5295.930, 8437.717
5297.858, 8474.409
5299.787, 8477.042
5301.715, 8420.910
5303.644, 8376.892
5305.572, 8367.039
5307.501, 8379.635
5309.429, 8370.233
5311.357, 8387.981
5313.286, 8411.843
5315.215, 8417.908
5317.143, 8366.854
5319.071, 8328.096
5321.000, 8315.847
5322.929, 8297.280
5324.857, 8269.632
5326.785, 8261.370
5328.714, 8299.034
5330.643, 8249.637
5332.571, 8225.184
5334.499, 8249.529
5336.428, 8265.829
5338.356, 8254.477
5340.285, 8242.771
5342.213, 8273.853
5344.142, 8168.139
5346.070, 8127.145
5347.999, 8189.188
5349.927, 8216.464
5351.855, 8256.638
5353.784, 8269.516
5355.712, 8210.684
5357.641, 8111.765
5359.569, 8102.015
5361.498, 8175.907
5363.426, 8152.965
5365.354, 8129.263
5367.283, 8111.417
5369.212, 8093.481
5371.140, 8074.941
5373.068, 8060.843
5374.997, 8054.207
5376.926, 8059.310
5378.854, 8074.026
5380.782, 8071.731
5382.711, 8032.257
5384.640, 8005.710
5386.568, 7992.976
5388.496, 7980.206
5390.425, 7931.625
5392.354, 7967.537
5394.282, 8016.605
5396.210, 8027.938
5398.139, 8011.298
5400.067, 7961.542
5401.996, 7918.161
5403.924, 7949.170
5405.853, 7957.250
5407.781, 7953.519
5409.709, 7948.611
5411.638, 7964.022
5413.566, 7974.217
5415.495, 7943.627
5417.423, 7848.469
5419.352, 7803.001
5421.280, 7800.674
5423.209, 7814.452
5425.137, 7785.523
5427.065, 7786.689
5428.994, 7781.289
5430.923, 7747.014
5432.851, 7739.428
5434.779, 7739.951
5436.708, 7749.825
5438.637, 7776.362
5440.565, 7760.734
5442.493, 7768.156
5444.422, 7797.668
5446.351, 7739.688
5448.279, 7746.292
5450.207, 7733.292
5452.136, 7629.837
5454.064, 7702.355
5455.993, 7722.878
5457.921, 7682.243
5459.850, 7652.269
5461.778, 7645.728
5463.707, 7610.692
5465.635, 7558.649
5467.563, 7622.477
5469.492, 7610.401
5471.420, 7572.647
5473.349, 7563.602
5475.277, 7597.532
5477.206, 7574.801
5479.134, 7534.487
5481.063, 7565.741
5482.991, 7550.014
5484.920, 7531.835
5486.848, 7519.127
5488.776, 7469.792
5490.705, 7500.368
5492.634, 7513.573
5494.562, 7457.500
5496.490, 7482.714
5498.419, 7474.327
5500.348, 7445.085
5502.276, 7433.557
5504.204, 7401.755
5506.133, 7385.828
5508.062, 7390.804
5509.990, 7407.660
5511.918, 7396.059
5513.847, 7393.440
5515.775, 7400.882
5517.704, 7352.686
5519.632, 7333.990
5521.561, 7318.597
5523.489, 7288.185
5525.417, 7312.948
5527.346, 7337.682
5529.274, 7354.504
5531.203, 7366.481
5533.131, 7300.517
5535.060, 7273.508
5536.988, 7273.534
5538.917, 7233.821
5540.845, 7286.893
5542.773, 7279.095
5544.702, 7199.577
5546.631, 7181.933
5548.559, 7170.066
5550.487, 7182.457
5552.416, 7216.198
5554.345, 7197.906
5556.273, 7200.277
5558.201, 7219.488
5560.130, 7234.305
5562.059, 7140.076
5563.987, 7130.379
5565.915, 7141.939
5567.844, 7089.566
5569.772, 7080.261
5571.701, 7107.673
5573.629, 7122.540
5575.558, 7068.334
5577.486, 7020.083
5579.415, 7016.015
5581.343, 7043.036
5583.271, 7066.341
5585.200, 7025.135
5587.128, 7044.932
5589.057, 7093.629
5590.985, 6995.794
5592.914, 7000.590
5594.842, 7008.965
5596.771, 6980.481
5598.699, 6957.863
5600.628, 6995.979
5602.556, 6957.126
5604.484, 6834.564
5606.413, 6949.149
5608.342, 6956.254
5610.270, 6919.991
5612.198, 6899.217
5614.127, 6855.021
5616.056, 6854.491
5617.984, 6877.376
5619.912, 6892.612
5621.841, 6839.608
5623.770, 6786.217
5625.698, 6780.475
5627.626, 6830.421
5629.555, 6825.400
5631.483, 6768.987
5633.412, 6732.400
5635.340, 6762.134
5637.269, 6772.987
5639.197, 6723.852
5641.125, 6685.550
5643.054, 6719.194
5644.982, 6715.155
5646.911, 6675.026
5648.839, 6650.261
5650.768, 6678.624
5652.696, 6656.895
5654.625, 6645.005
5656.553, 6635.986
5658.481, 6617.562
5660.410, 6654.955
5662.339, 6596.305
5664.267, 6557.533
5666.195, 6638.842
5668.124, 6575.678
5670.053, 6553.916
5671.981, 6546.917
5673.909, 6506.977
5675.838, 6579.621
5677.767, 6556.353
5679.695, 6523.312
5681.623, 6560.917
5683.552, 6443.037
5685.480, 6380.100
5687.409, 6392.909
5689.337, 6445.817
5691.266, 6415.922
5693.194, 6385.575
5695.123, 6391.475
5697.051, 6436.316
5698.979, 6488.828
5700.908, 6413.932
5702.836, 6349.237
5704.765, 6362.125
5706.693, 6357.972
5708.622, 6376.967
5710.550, 6350.811
5712.479, 6284.735
5714.407, 6313.603
5716.336, 6316.499
5718.264, 6300.447
5720.192, 6286.248
5722.121, 6308.254
5724.050, 6219.978
5725.978, 6232.817
5727.906, 6295.456
5729.835, 6210.211
5731.764, 6268.846
5733.692, 6263.255
5735.620, 6202.214
5737.549, 6175.492
5739.478, 6186.926
5741.406, 6194.828
5743.334, 6197.142
5745.263, 6199.520
5747.191, 6180.650
5749.120, 6155.107
5751.048, 6135.019
5752.977, 6121.160
5754.905, 6067.233
5756.833, 6073.398
5758.762, 6116.219
5760.690, 6140.224
5762.619, 6022.075
5764.547, 6068.068
5766.476, 6104.978
5768.404, 6079.999
5770.333, 6044.356
5772.261, 6042.156
5774.189, 6046.379
5776.118, 6041.625
5778.047, 6019.545
5779.975, 5948.704
5781.903, 5932.731
5783.832, 5950.384
5785.761, 5961.531
5787.689, 5928.893
5789.617, 5917.288
5791.546, 5914.474
5793.475, 5905.877
5795.403, 5874.440
5797.331, 5904.100
5799.260, 5892.271
5801.188, 5847.728
5803.117, 5860.649
5805.045, 5827.721
5806.974, 5818.870
5808.902, 5817.139
5810.831, 5794.014
5812.759, 5830.313
5814.688, 5816.310
5816.616, 5788.478
5818.544, 5770.649
5820.473, 5730.353
5822.401, 5712.728
5824.330, 5705.979
5826.258, 5695.175
5828.187, 5671.242
5830.115, 5695.153
5832.044, 5720.294
5833.972, 5710.819
5835.900, 5665.411
5837.829, 5707.850
5839.758, 5632.472
5841.686, 5588.770
5843.614, 5628.519
5845.543, 5648.979
5847.472, 5640.407
5849.400, 5612.886
5851.328, 5583.992
5853.257, 5569.058
5855.186, 5564.782
5857.114, 5546.490
5859.042, 5537.331
5860.971, 5551.015
5862.899, 5588.670
5864.828, 5543.917
5866.756, 5535.680
5868.685, 5556.156
5870.613, 5530.368
5872.542, 5463.598
5874.470, 5479.149
5876.398, 5488.091
5878.327, 5443.265
5880.255, 5471.643
5882.184, 5455.307
5884.112, 5441.010
5886.041, 5434.138
5887.969, 5412.061
5889.897, 5394.079
5891.826, 5387.811
5893.755, 5367.460
5895.683, 5330.891
5897.611, 5330.417
5899.540, 5322.566
5901.469, 5306.165
5903.397, 5303.236
5905.325, 5331.174
5907.254, 5313.261
5909.183, 5268.713
5911.111, 5255.086
5913.039, 5276.478
5914.968, 5250.547
5916.896, 5252.951
5918.825, 5248.458
5920.753, 5255.717
5922.682, 5292.744
5924.610, 5222.280
5926.539, 5191.454
5928.467, 5215.953
5930.396, 5240.813
5932.324, 5144.404
5934.252, 5160.676
5936.181, 5186.104
5938.109, 5172.615
5940.038, 5124.043
5941.966, 5105.068
5943.895, 5121.241
5945.823, 5115.288
5947.752, 5087.065
5949.680, 5065.337
5951.608, 5135.667
5953.537, 5137.292
5955.466, 5118.666
5957.394, 5103.104
5959.322, 5067.476
5961.251, 5064.320
5963.180, 4995.853
5965.108, 4966.867
5967.036, 5022.587
5968.965, 5040.010
5970.894, 5013.724
5972.822, 4976.938
5974.750, 4979.549
5976.679, 5020.146
5978.607, 4915.732
5980.536, 4909.390
5982.464, 4932.596
5984.393, 4929.679
5986.321, 4893.010
5988.250, 4913.897
5990.178, 4889.111
5992.106, 4849.100
5994.035, 4848.719
5995.963, 4922.676
5997.892, 4908.965
5999.820, 4837.143
6001.749, 4809.150
6003.677, 4837.944
6005.605, 4828.138
6007.534, 4783.617
6009.463, 4752.890
6011.391, 4752.184
6013.319, 4772.204
6015.248, 4779.395
6017.177, 4788.609
6019.105, 4774.333
6021.033, 4746.879
6022.962, 4717.113
6024.891, 4666.592
6026.819, 4692.815
6028.747, 4713.964
6030.676, 4701.421
6032.604, 4666.546
6034.533, 4648.805
6036.461, 4670.368
6038.390, 4686.588
6040.318, 4675.944
6042.247, 4648.288
6044.175, 4683.759
6046.104, 4657.462
6048.032, 4620.123
6049.960, 4605.528
6051.889, 4613.817
6053.817, 4595.136
6055.746, 4558.053
6057.674, 4542.328
6059.603, 4541.567
6061.531, 4531.969
6063.460, 4483.295
6065.388, 4530.094
6067.316, 4509.379
6069.245, 4492.137
6071.174, 4557.273
6073.102, 4452.664
6075.030, 4433.134
6076.959, 4453.107
6078.888, 4454.434
6080.816, 4418.909
6082.744, 4388.438
6084.673, 4435.026
6086.602, 4408.442
6088.530, 4378.147
6090.458, 4398.602
6092.387, 4323.708
6094.315, 4381.204
6096.244, 4347.703
6098.172, 4309.676
6100.101, 4335.685
6102.029, 4331.670
6103.958, 4340.305
6105.886, 4303.019
6107.814, 4267.694
6109.743, 4262.047
6111.671, 4267.020
6113.600, 4243.775
6115.528, 4262.541
6117.457, 4217.242
6119.385, 4167.032
6121.313, 4246.517
6123.242, 4239.153
6125.171, 4189.303
6127.099, 4207.037
6129.027, 4230.369
6130.956, 4177.119
6132.885, 4164.192
6134.813, 4171.592
6136.741, 4175.562
6138.670, 4160.293
6140.599, 4129.016
6142.527, 4108.165
6144.455, 4115.882
6146.384, 4138.518
6148.313, 4137.206
6150.241, 4109.529
6152.169, 4088.044
6154.098, 4073.992
6156.026, 4116.536
6157.955, 4077.703
6159.883, 4011.528
6161.812, 4025.538
6163.740, 4030.755
6165.668, 4031.939
6167.597, 4029.736
6169.525, 3992.055
6171.454, 3941.436
6173.382, 3975.491
6175.311, 4010.016
6177.239, 3989.041
6179.168, 3943.890
6181.096, 3913.330
6183.024, 3910.805
6184.953, 3887.000
6186.882, 3860.166
6188.810, 3849.152
6190.738, 3851.265
6192.667, 3857.947
6194.596, 3864.196
6196.524, 3879.692
6198.452, 3809.186
6200.381, 3828.315
6202.310, 3900.585
6204.238, 3858.814
6206.166, 3770.533
6208.095, 3788.808
6210.023, 3785.368
6211.952, 3798.641
6213.880, 3832.783
6215.809, 3754.072
6217.737, 3737.441
6219.666, 3764.219
6221.594, 3742.654
6223.522, 3712.211
6225.451, 3736.191
6227.379, 3710.468
6229.308, 3691.612
6231.236, 3701.274
6233.165, 3724.109
6235.093, 3726.525
6237.021, 3680.308
6238.950, 3648.758
6240.879, 3692.032
6242.807, 3697.536
6244.735, 3669.888
6246.664, 3632.907
6248.593, 3568.119
6250.521, 3589.422
6252.449, 3608.722
6254.378, 3611.955
6256.307, 3592.107
6258.235, 3556.097
6260.163, 3540.406
6262.092, 3535.879
6264.021, 3503.970
6265.949, 3487.588
6267.877, 3510.514
6269.806, 3557.530
6271.734, 3578.335
6273.663, 3506.721
6275.591, 3482.682
6277.520, 3475.783
6279.448, 3487.856
6281.376, 3538.836
6283.305, 3498.736
6285.233, 3459.481
6287.162, 3437.354
6289.090, 3434.567
6291.019, 3435.139
6292.947, 3419.705
6294.876, 3401.223
6296.804, 3402.770
6298.732, 3407.086
6300.661, 3411.847
6302.590, 3397.980
6304.518, 3346.125
6306.446, 3338.964
6308.375, 3341.086
6310.304, 3328.443
6312.232, 3337.051
6314.160, 3344.684
6316.089, 3306.869
6318.018, 3298.326
6319.946, 3283.295
6321.874, 3285.208
6323.803, 3289.564
6325.731, 3300.045
6327.660, 3310.137
6329.588, 3238.260
6331.517, 3268.839
6333.445, 3251.203
6335.374, 3198.387
6337.302, 3166.420
6339.230, 3183.310
6341.159, 3221.051
6343.087, 3171.895
6345.016, 3157.186
6346.944, 3156.494
6348.873, 3160.288
6350.801, 3169.552
6352.729, 3169.919
6354.658, 3149.803
6356.587, 3134.300
6358.515, 3140.672
6360.443, 3134.195
6362.372, 3105.621
6364.301, 3085.888
6366.229, 3085.189
6368.157, 3116.421
6370.086, 3110.879
6372.015, 3070.605
6373.943, 3037.359
6375.871, 3035.073
6377.800, 3027.383
6379.729, 3049.308
6381.657, 3019.166
6383.585, 3003.509
6385.514, 3001.716
6387.442, 3002.576
6389.371, 3025.522
6391.299, 2954.365
6393.228, 2985.822
6395.156, 2996.200
6397.084, 2960.152
6399.013, 2930.379
6400.941, 2951.579
6402.870, 2998.160
6404.798, 2988.063
6406.727, 2944.849
6408.655, 2904.448
6410.584, 2889.723
6412.512, 2900.963
6414.440, 2915.064
6416.369, 2873.906
6418.298, 2891.216
6420.226, 2887.760
6422.154, 2896.277
6424.083, 2897.876
6426.012, 2865.937
6427.940, 2846.489
6429.868, 2824.795
6431.797, 2797.050
6433.726, 2816.289
6435.654, 2859.212
6437.582, 2862.593
6439.511, 2810.108
6441.439, 2826.578
6443.368, 2827.482
6445.296, 2790.230
6447.225, 2758.876
6449.153, 2784.402
6451.082, 2817.822
6453.010, 2789.103
6454.938, 2783.888
6456.867, 2719.014
6458.795, 2718.798
6460.724, 2743.212
6462.652, 2745.730
6464.581, 2730.052
6466.509, 2712.151
6468.438, 2632.217
6470.366, 2675.494
6472.295, 2638.530
6474.223, 2657.660
6476.151, 2688.898
6478.080, 2680.923
6480.009, 2665.254
6481.937, 2638.868
6483.865, 2622.565
6485.794, 2650.099
6487.723, 2639.967
6489.651, 2650.469
6491.579, 2645.511
6493.508, 2571.933
6495.437, 2610.342
6497.365, 2660.016
6499.293, 2569.303
6501.222, 2556.699
6503.150, 2600.089
6505.079, 2611.274
6507.007, 2580.843
6508.936, 2580.492
6510.864, 2541.746
6512.792, 2544.990
6514.721, 2558.009
6516.649, 2553.744
6518.578, 2520.586
6520.506, 2488.432
6522.435, 2502.777
6524.363, 2523.171
6526.292, 2533.658
6528.220, 2491.083
6530.148, 2495.511
6532.077, 2511.584
6534.006, 2493.645
6535.934, 2461.109
6537.862, 2477.295
6539.791, 2455.796
6541.720, 2399.200
6543.648, 2445.430
6545.576, 2437.862
6547.505, 2439.082
6549.434, 2486.578
6551.362, 2448.837
6553.290, 2396.588
6555.219, 2360.120
6557.147, 2392.195
6559.076, 2416.575
6561.004, 2418.897
6562.933, 2404.160
6564.861, 2382.646
6566.790, 2381.421
6568.718, 2376.618
6570.646, 2346.798
##END=



