##NAMES=Halite
##RRUFFID=R070586
##IDEAL CHEMISTRY=NaCl
##LOCALITY=Heringen, Werra Valley, Hesse, Germany
##OWNER=RRUFF
##SOURCE=James Shigley
##DESCRIPTION=Colorless to blue-tinted crystal fragments
##STATUS=The identification of this mineral has been confirmed by X-ray diffraction and chemical analysis
##URL=https://www.rruff.net/odr/rruff_sample/R070586
##MEASURED CHEMISTRY=Na_1.00_Cl_1.00_
##DIFFRACTION SAMPLE DESCRIPTION=Powder
##CELL PARAMETERS=a: 5.6429 b: 5.6429 c: 5.6429 alpha: 90 beta: 90 gamma: 90 volume: 179.68 crystal system: cubic
##FILETYPE=Raman RAW
##RAMAN WAVELENGTH=532

167.5005, 3351.887
169.4290, 3375.375
171.3574, 3387.295
173.2859, 3400.464
175.2144, 3418.522
177.1428, 3441.563
179.0713, 3461.299
180.9998, 3469.577
182.9282, 3474.070
184.8567, 3481.968
186.7852, 3494.092
188.7136, 3505.855
190.6421, 3515.682
192.5706, 3524.857
194.4990, 3537.132
196.4275, 3552.278
198.3560, 3569.172
200.2844, 3588.596
202.2129, 3614.234
204.1414, 3634.800
206.0698, 3643.686
207.9983, 3639.831
209.9268, 3645.762
211.8552, 3669.355
213.7837, 3698.178
215.7122, 3721.789
217.6406, 3727.275
219.5691, 3742.328
221.4976, 3780.876
223.4260, 3838.358
225.3545, 3881.895
227.2830, 3889.338
229.2114, 3890.157
231.1399, 3907.023
233.0684, 3966.080
234.9968, 4012.400
236.9253, 4029.121
238.8538, 4021.119
240.7822, 4017.118
242.7107, 4022.185
244.6392, 4031.677
246.5676, 4042.310
248.4961, 4054.709
250.4246, 4067.799
252.3530, 4082.006
254.2815, 4096.942
256.2100, 4113.217
258.1384, 4127.798
260.0669, 4144.793
261.9954, 4168.781
263.9238, 4203.723
265.8523, 4233.302
267.7808, 4247.885
269.7092, 4253.657
271.6377, 4270.595
273.5662, 4301.420
275.4946, 4332.914
277.4231, 4360.834
279.3516, 4394.598
281.2800, 4419.985
283.2085, 4431.216
285.1370, 4430.151
287.0654, 4432.554
288.9939, 4440.907
290.9224, 4453.271
292.8508, 4466.428
294.7793, 4478.752
296.7078, 4493.621
298.6362, 4509.794
300.5647, 4527.886
302.4932, 4550.068
304.4216, 4581.283
306.3501, 4606.991
308.2786, 4622.955
310.2070, 4629.909
312.1355, 4633.693
314.0640, 4628.670
315.9924, 4624.691
317.9209, 4628.849
319.8494, 4647.046
321.7778, 4662.563
323.7063, 4670.208
325.6348, 4674.211
327.5632, 4683.183
329.4917, 4698.881
331.4202, 4717.949
333.3486, 4739.819
335.2771, 4767.228
337.2056, 4791.551
339.1340, 4816.188
341.0625, 4836.916
342.9910, 4847.593
344.9194, 4837.162
346.8479, 4830.671
348.7764, 4841.712
350.7048, 4874.586
352.6333, 4887.279
354.5618, 4866.661
356.4902, 4831.523
358.4187, 4797.339
360.3472, 4765.556
362.2756, 4731.144
364.2041, 4693.969
366.1326, 4653.319
368.0610, 4609.484
369.9895, 4564.046
371.9180, 4513.582
373.8464, 4453.235
375.7749, 4368.629
377.7034, 4310.811
379.6318, 4297.063
381.5603, 4303.032
383.4888, 4300.031
385.4172, 4279.947
387.3457, 4264.651
389.2742, 4264.303
391.2026, 4276.810
393.1311, 4278.734
395.0596, 4263.776
396.9880, 4246.000
398.9165, 4230.952
400.8450, 4217.651
402.7734, 4210.049
404.7019, 4211.200
406.6304, 4215.804
408.5588, 4219.462
410.4873, 4223.630
412.4158, 4227.519
414.3442, 4229.184
416.2727, 4227.781
418.2012, 4225.434
420.1296, 4225.823
422.0581, 4223.339
423.9866, 4211.897
425.9150, 4188.291
427.8435, 4175.797
429.7720, 4188.689
431.7004, 4214.033
433.6289, 4222.675
435.5574, 4201.629
437.4858, 4182.913
439.4143, 4184.664
441.3428, 4206.485
443.2712, 4220.950
445.1997, 4218.800
447.1282, 4212.090
449.0566, 4206.004
450.9851, 4198.748
452.9136, 4190.597
454.8420, 4178.892
456.7705, 4168.998
458.6990, 4169.043
460.6274, 4194.569
462.5559, 4213.665
464.4844, 4215.714
466.4128, 4205.066
468.3413, 4198.857
470.2698, 4200.664
472.1982, 4207.795
474.1267, 4216.207
476.0552, 4226.832
477.9836, 4226.317
479.9121, 4213.821
481.8406, 4205.137
483.7690, 4195.834
485.6975, 4180.032
487.6260, 4166.685
489.5544, 4170.541
491.4829, 4192.473
493.4114, 4204.632
495.3398, 4194.471
497.2683, 4179.477
499.1968, 4175.776
501.1252, 4185.471
503.0537, 4185.558
504.9822, 4163.013
506.9106, 4139.566
508.8391, 4136.292
510.7676, 4156.167
512.6960, 4169.716
514.6245, 4168.447
516.5530, 4163.112
518.4814, 4160.990
520.4099, 4166.093
522.3384, 4162.239
524.2668, 4144.303
526.1953, 4121.551
528.1238, 4113.092
530.0522, 4126.812
531.9807, 4137.478
533.9092, 4144.728
535.8376, 4152.930
537.7661, 4160.878
539.6946, 4157.453
541.6230, 4138.334
543.5515, 4120.695
545.4800, 4110.523
547.4084, 4116.999
549.3369, 4122.739
551.2654, 4124.534
553.1938, 4127.083
555.1223, 4137.241
557.0508, 4143.264
558.9792, 4145.545
560.9077, 4147.806
562.8362, 4146.182
564.7646, 4116.547
566.6931, 4081.202
568.6216, 4069.574
570.5500, 4087.453
572.4785, 4103.232
574.4070, 4100.583
576.3354, 4099.336
578.2639, 4107.267
580.1924, 4127.706
582.1208, 4134.802
584.0493, 4134.102
585.9778, 4134.898
587.9063, 4135.532
589.8347, 4126.175
591.7632, 4108.630
593.6917, 4105.963
595.6201, 4117.744
597.5486, 4129.596
599.4771, 4122.357
601.4055, 4107.306
603.3340, 4092.784
605.2625, 4080.747
607.1909, 4069.909
609.1194, 4059.909
611.0479, 4053.573
612.9763, 4049.151
614.9048, 4046.010
616.8333, 4052.481
618.7617, 4075.435
620.6902, 4086.368
622.6187, 4075.107
624.5471, 4049.331
626.4756, 4041.706
628.4041, 4046.388
630.3325, 4054.118
632.2610, 4061.832
634.1895, 4072.701
636.1179, 4064.288
638.0464, 4034.953
639.9749, 4007.701
641.9033, 4001.530
643.8318, 4020.817
645.7603, 4032.504
647.6887, 4022.514
649.6172, 4000.296
651.5457, 3988.817
653.4741, 3992.917
655.4026, 3992.632
657.3311, 3986.151
659.2595, 3978.961
661.1880, 3975.102
663.1165, 3971.169
665.0449, 3968.463
666.9734, 3963.572
668.9019, 3954.016
670.8303, 3943.844
672.7588, 3948.299
674.6873, 3963.838
676.6157, 3984.394
678.5442, 3997.050
680.4727, 3988.957
682.4011, 3975.052
684.3296, 3966.058
686.2581, 3963.893
688.1865, 3953.192
690.1150, 3946.490
692.0435, 3950.484
693.9719, 3953.191
695.9004, 3948.177
697.8289, 3948.116
699.7573, 3944.088
701.6858, 3925.489
703.6143, 3906.729
705.5427, 3904.739
707.4712, 3913.013
709.3997, 3919.509
711.3281, 3920.385
713.2566, 3916.137
715.1851, 3904.474
717.1135, 3897.661
719.0420, 3899.870
720.9705, 3909.952
722.8989, 3918.837
724.8274, 3930.327
726.7559, 3938.886
728.6843, 3932.082
730.6128, 3906.786
732.5413, 3880.651
734.4697, 3863.465
736.3982, 3849.503
738.3267, 3840.040
740.2551, 3838.098
742.1836, 3846.849
744.1121, 3863.479
746.0405, 3878.295
747.9690, 3890.013
749.8975, 3903.087
751.8259, 3910.858
753.7544, 3899.094
755.6829, 3866.204
757.6113, 3841.164
759.5398, 3829.738
761.4683, 3829.663
763.3967, 3839.556
765.3252, 3854.590
767.2537, 3859.943
769.1821, 3851.369
771.1106, 3839.717
773.0391, 3834.603
774.9675, 3837.891
776.8960, 3834.834
778.8245, 3815.658
780.7529, 3794.917
782.6814, 3782.697
784.6099, 3781.126
786.5383, 3787.208
788.4668, 3808.273
790.3953, 3825.162
792.3237, 3820.746
794.2522, 3799.375
796.1807, 3783.634
798.1091, 3778.408
800.0376, 3775.498
801.9661, 3774.888
803.8945, 3780.500
805.8230, 3785.169
807.7515, 3789.349
809.6799, 3787.525
811.6084, 3780.026
813.5369, 3769.219
815.4653, 3761.180
817.3938, 3759.960
819.3223, 3756.100
821.2507, 3743.342
823.1792, 3723.286
825.1077, 3712.761
827.0361, 3715.430
828.9646, 3718.311
830.8931, 3725.439
832.8215, 3741.261
834.7500, 3749.973
836.6785, 3748.301
838.6069, 3740.392
840.5354, 3725.625
842.4639, 3700.909
844.3923, 3682.606
846.3208, 3676.167
848.2493, 3672.976
850.1777, 3669.543
852.1062, 3669.134
854.0347, 3663.478
855.9631, 3639.569
857.8916, 3620.668
859.8201, 3627.516
861.7485, 3662.599
863.6770, 3684.080
865.6055, 3677.714
867.5339, 3664.470
869.4624, 3654.265
871.3909, 3648.400
873.3193, 3644.701
875.2478, 3645.309
877.1763, 3645.455
879.1047, 3640.406
881.0332, 3631.036
882.9617, 3627.007
884.8901, 3637.226
886.8186, 3644.628
888.7471, 3639.577
890.6755, 3621.830
892.6040, 3612.343
894.5325, 3622.986
896.4609, 3628.337
898.3894, 3613.309
900.3179, 3585.560
902.2463, 3567.933
904.1748, 3565.789
906.1033, 3566.964
908.0317, 3568.765
909.9602, 3575.598
911.8887, 3576.405
913.8171, 3563.563
915.7456, 3549.780
917.6741, 3541.234
919.6025, 3537.939
921.5310, 3536.623
923.4595, 3542.804
925.3879, 3545.502
927.3164, 3533.868
929.2449, 3516.358
931.1733, 3509.231
933.1018, 3518.481
935.0303, 3520.273
936.9587, 3510.340
938.8872, 3502.517
940.8157, 3495.628
942.7441, 3483.257
944.6726, 3475.772
946.6011, 3478.732
948.5295, 3486.990
950.4580, 3493.745
952.3865, 3498.161
954.3149, 3495.130
956.2434, 3477.969
958.1719, 3460.235
960.1003, 3449.717
962.0288, 3442.480
963.9573, 3439.428
965.8857, 3445.515
967.8142, 3452.583
969.7427, 3448.068
971.6711, 3437.921
973.5996, 3433.527
975.5281, 3441.200
977.4565, 3444.236
979.3850, 3435.169
981.3135, 3410.812
983.2419, 3397.031
985.1704, 3412.498
987.0989, 3424.993
989.0273, 3407.618
990.9558, 3367.688
992.8843, 3358.590
994.8127, 3393.512
996.7412, 3419.370
998.6697, 3407.277
1000.598, 3383.077
1002.527, 3372.451
1004.455, 3372.117
1006.384, 3373.640
1008.312, 3381.017
1010.240, 3394.176
1012.169, 3396.606
1014.097, 3374.134
1016.026, 3358.071
1017.954, 3356.615
1019.883, 3362.744
1021.811, 3363.653
1023.740, 3364.988
1025.668, 3362.976
1027.597, 3347.442
1029.525, 3332.925
1031.454, 3340.372
1033.382, 3360.155
1035.311, 3367.606
1037.239, 3368.006
1039.167, 3371.226
1041.096, 3376.755
1043.024, 3372.943
1044.953, 3369.061
1046.881, 3370.618
1048.810, 3371.194
1050.738, 3364.002
1052.667, 3356.371
1054.595, 3363.156
1056.524, 3379.290
1058.452, 3381.002
1060.381, 3356.981
1062.309, 3330.494
1064.238, 3329.957
1066.166, 3354.005
1068.094, 3360.566
1070.023, 3344.897
1071.951, 3329.956
1073.880, 3336.875
1075.808, 3352.000
1077.737, 3346.122
1079.665, 3322.957
1081.594, 3304.751
1083.522, 3304.042
1085.451, 3312.296
1087.379, 3316.511
1089.308, 3315.254
1091.236, 3315.909
1093.165, 3319.215
1095.093, 3321.768
1097.021, 3322.820
1098.950, 3321.218
1100.878, 3317.249
1102.807, 3317.774
1104.735, 3320.327
1106.664, 3313.268
1108.592, 3292.019
1110.521, 3286.571
1112.449, 3297.596
1114.378, 3306.245
1116.306, 3303.741
1118.235, 3298.845
1120.163, 3298.930
1122.092, 3295.922
1124.020, 3292.009
1125.948, 3291.566
1127.877, 3294.582
1129.805, 3292.419
1131.734, 3293.363
1133.662, 3309.407
1135.591, 3325.052
1137.519, 3328.328
1139.448, 3318.618
1141.376, 3310.043
1143.305, 3303.288
1145.233, 3296.901
1147.162, 3293.436
1149.090, 3288.414
1151.019, 3278.909
1152.947, 3275.476
1154.875, 3294.249
1156.804, 3311.768
1158.732, 3305.228
1160.661, 3277.642
1162.589, 3257.995
1164.518, 3257.545
1166.446, 3261.486
1168.375, 3267.521
1170.303, 3271.523
1172.232, 3271.218
1174.160, 3266.821
1176.089, 3268.952
1178.017, 3281.226
1179.946, 3284.883
1181.874, 3271.629
1183.802, 3252.110
1185.731, 3250.403
1187.659, 3269.252
1189.588, 3281.067
1191.516, 3274.905
1193.445, 3258.012
1195.373, 3247.577
1197.302, 3249.727
1199.230, 3259.380
1201.159, 3268.358
1203.087, 3267.431
1205.016, 3257.261
1206.944, 3238.611
1208.873, 3234.573
1210.801, 3262.973
1212.729, 3290.325
1214.658, 3291.738
1216.586, 3266.148
1218.515, 3244.074
1220.443, 3235.478
1222.372, 3238.766
1224.300, 3242.538
1226.229, 3242.646
1228.157, 3240.849
1230.086, 3234.818
1232.014, 3223.200
1233.943, 3200.149
1235.871, 3191.893
1237.800, 3211.640
1239.728, 3242.869
1241.656, 3253.683
1243.585, 3220.759
1245.513, 3203.674
1247.442, 3227.182
1249.370, 3260.480
1251.299, 3272.964
1253.227, 3263.595
1255.156, 3254.711
1257.084, 3248.134
1259.013, 3241.718
1260.941, 3238.299
1262.870, 3235.762
1264.798, 3228.648
1266.727, 3218.547
1268.655, 3217.064
1270.583, 3231.950
1272.512, 3240.589
1274.440, 3235.256
1276.369, 3220.954
1278.297, 3218.040
1280.226, 3232.881
1282.154, 3247.578
1284.083, 3259.659
1286.011, 3266.219
1287.940, 3262.322
1289.868, 3244.133
1291.797, 3238.071
1293.725, 3257.936
1295.654, 3274.240
1297.582, 3276.728
1299.510, 3274.493
1301.439, 3270.535
1303.367, 3262.208
1305.296, 3257.495
1307.224, 3259.018
1309.153, 3264.670
1311.081, 3279.958
1313.010, 3301.933
1314.938, 3307.245
1316.867, 3283.751
1318.795, 3268.497
1320.724, 3283.124
1322.652, 3305.516
1324.581, 3316.133
1326.509, 3313.483
1328.438, 3311.377
1330.366, 3311.750
1332.294, 3311.686
1334.223, 3309.464
1336.151, 3307.396
1338.080, 3307.279
1340.008, 3312.116
1341.937, 3309.874
1343.865, 3295.816
1345.794, 3279.313
1347.722, 3259.058
1349.651, 3241.101
1351.579, 3242.526
1353.508, 3269.252
1355.436, 3295.025
1357.365, 3326.241
1359.293, 3344.952
1361.221, 3327.384
1363.150, 3285.150
1365.078, 3266.494
1367.007, 3283.695
1368.935, 3301.122
1370.864, 3307.103
1372.792, 3308.461
1374.721, 3309.986
1376.649, 3310.906
1378.578, 3309.295
1380.506, 3301.539
1382.435, 3298.119
1384.363, 3304.715
1386.292, 3313.964
1388.220, 3318.033
1390.148, 3317.371
1392.077, 3313.689
1394.005, 3299.186
1395.934, 3290.791
1397.862, 3300.028
1399.791, 3317.024
1401.719, 3319.363
1403.648, 3327.730
1405.576, 3332.667
1407.505, 3334.357
1409.433, 3323.081
1411.362, 3328.549
1413.290, 3327.307
1415.219, 3325.790
1417.147, 3333.614
1419.075, 3324.224
1421.004, 3331.901
1422.932, 3332.764
1424.861, 3336.747
1426.789, 3333.977
1428.718, 3333.292
1430.646, 3339.362
1432.575, 3341.691
1434.503, 3338.144
1436.432, 3342.324
1438.360, 3332.698
1440.289, 3333.590
1442.217, 3341.418
1444.146, 3359.973
1446.074, 3370.661
1448.002, 3364.449
1449.931, 3359.683
1451.859, 3366.236
1453.788, 3380.509
1455.716, 3392.976
1457.645, 3406.333
1459.573, 3411.602
1461.502, 3402.357
1463.430, 3392.211
1465.359, 3387.557
1467.287, 3384.571
1469.216, 3382.982
1471.144, 3388.555
1473.073, 3394.917
1475.001, 3407.602
1476.929, 3415.308
1478.858, 3403.526
1480.786, 3379.740
1482.715, 3377.717
1484.643, 3409.346
1486.572, 3428.609
1488.500, 3412.481
1490.429, 3396.954
1492.357, 3413.206
1494.286, 3444.321
1496.214, 3444.292
1498.143, 3408.321
1500.071, 3386.084
1502.000, 3392.346
1503.928, 3405.016
1505.856, 3416.949
1507.785, 3426.921
1509.713, 3428.817
1511.642, 3420.870
1513.570, 3414.639
1515.499, 3407.828
1517.427, 3405.285
1519.356, 3413.819
1521.284, 3427.901
1523.213, 3437.299
1525.141, 3443.501
1527.070, 3451.781
1528.998, 3464.071
1530.927, 3470.562
1532.855, 3468.750
1534.783, 3460.992
1536.712, 3445.060
1538.640, 3421.250
1540.569, 3411.337
1542.497, 3420.858
1544.426, 3434.736
1546.354, 3451.733
1548.283, 3468.379
1550.211, 3482.354
1552.140, 3493.589
1554.068, 3501.449
1555.997, 3504.334
1557.925, 3505.551
1559.854, 3509.982
1561.782, 3511.288
1563.710, 3497.969
1565.639, 3475.278
1567.567, 3470.150
1569.496, 3496.734
1571.424, 3516.984
1573.353, 3534.637
1575.281, 3537.239
1577.210, 3504.725
1579.138, 3460.216
1581.067, 3446.744
1582.995, 3475.819
1584.924, 3497.613
1586.852, 3508.666
1588.781, 3514.501
1590.709, 3514.907
1592.637, 3512.141
1594.566, 3507.660
1596.494, 3500.861
1598.423, 3492.328
1600.351, 3479.694
1602.280, 3472.590
1604.208, 3473.505
1606.137, 3477.867
1608.065, 3486.420
1609.994, 3496.554
1611.922, 3498.731
1613.851, 3489.104
1615.779, 3481.952
1617.708, 3476.442
1619.636, 3475.304
1621.564, 3483.919
1623.493, 3495.116
1625.421, 3498.502
1627.350, 3493.316
1629.278, 3490.041
1631.207, 3493.142
1633.135, 3490.490
1635.064, 3468.206
1636.992, 3450.496
1638.921, 3461.546
1640.849, 3490.874
1642.778, 3501.332
1644.706, 3486.249
1646.635, 3481.823
1648.563, 3502.087
1650.491, 3521.315
1652.420, 3540.073
1654.348, 3546.918
1656.277, 3516.007
1658.205, 3449.417
1660.134, 3418.715
1662.062, 3439.858
1663.991, 3462.598
1665.919, 3481.806
1667.848, 3495.111
1669.776, 3498.072
1671.705, 3494.829
1673.633, 3493.092
1675.562, 3491.675
1677.490, 3500.858
1679.418, 3532.198
1681.347, 3558.096
1683.275, 3567.792
1685.204, 3570.881
1687.132, 3576.852
1689.061, 3583.734
1690.989, 3580.959
1692.918, 3563.512
1694.846, 3553.679
1696.775, 3563.827
1698.703, 3570.550
1700.632, 3561.323
1702.560, 3546.051
1704.489, 3535.933
1706.417, 3531.019
1708.345, 3531.050
1710.274, 3540.938
1712.202, 3544.867
1714.131, 3528.848
1716.059, 3519.346
1717.988, 3542.620
1719.916, 3576.110
1721.845, 3576.982
1723.773, 3540.501
1725.702, 3518.775
1727.630, 3518.051
1729.559, 3522.431
1731.487, 3531.177
1733.416, 3543.025
1735.344, 3559.946
1737.272, 3578.723
1739.201, 3593.196
1741.129, 3604.318
1743.058, 3604.833
1744.986, 3579.738
1746.915, 3565.149
1748.843, 3572.032
1750.772, 3586.446
1752.700, 3605.567
1754.629, 3623.891
1756.557, 3624.484
1758.486, 3599.355
1760.414, 3588.219
1762.343, 3603.785
1764.271, 3614.453
1766.199, 3612.562
1768.128, 3605.462
1770.056, 3592.659
1771.985, 3579.617
1773.913, 3582.810
1775.842, 3610.032
1777.770, 3625.977
1779.699, 3625.980
1781.627, 3623.002
1783.556, 3618.442
1785.484, 3612.678
1787.413, 3602.322
1789.341, 3591.425
1791.270, 3589.728
1793.198, 3597.531
1795.126, 3609.113
1797.055, 3626.369
1798.983, 3642.823
1800.912, 3665.189
1802.840, 3677.814
1804.769, 3663.122
1806.697, 3638.341
1808.626, 3635.265
1810.554, 3653.031
1812.483, 3664.131
1814.411, 3664.451
1816.340, 3665.311
1818.268, 3667.888
1820.197, 3672.502
1822.125, 3683.090
1824.053, 3692.426
1825.982, 3690.632
1827.910, 3679.898
1829.839, 3671.229
1831.767, 3665.914
1833.696, 3662.229
1835.624, 3662.188
1837.553, 3661.175
1839.481, 3651.798
1841.410, 3645.049
1843.338, 3655.133
1845.267, 3675.132
1847.195, 3682.672
1849.124, 3675.306
1851.052, 3672.181
1852.980, 3679.520
1854.909, 3683.617
1856.837, 3685.060
1858.766, 3679.211
1860.694, 3653.340
1862.623, 3623.119
1864.551, 3619.377
1866.480, 3643.374
1868.408, 3659.682
1870.337, 3667.008
1872.265, 3667.701
1874.194, 3654.211
1876.122, 3643.252
1878.051, 3644.057
1879.979, 3647.888
1881.907, 3646.586
1883.836, 3640.837
1885.764, 3631.814
1887.693, 3616.465
1889.621, 3613.001
1891.550, 3628.196
1893.478, 3643.813
1895.407, 3662.471
1897.335, 3673.178
1899.264, 3667.464
1901.192, 3653.062
1903.121, 3635.422
1905.049, 3617.501
1906.978, 3619.543
1908.906, 3646.033
1910.834, 3664.995
1912.763, 3668.408
1914.691, 3666.735
1916.620, 3660.263
1918.548, 3652.978
1920.477, 3647.184
1922.405, 3643.030
1924.334, 3641.907
1926.262, 3643.959
1928.191, 3643.789
1930.119, 3641.464
1932.048, 3637.826
1933.976, 3627.259
1935.905, 3623.115
1937.833, 3633.513
1939.761, 3648.186
1941.690, 3666.516
1943.618, 3680.438
1945.547, 3666.047
1947.475, 3619.089
1949.404, 3592.584
1951.332, 3592.619
1953.261, 3599.814
1955.189, 3622.639
1957.118, 3636.674
1959.046, 3626.354
1960.975, 3610.932
1962.903, 3602.485
1964.832, 3600.222
1966.760, 3605.034
1968.688, 3616.049
1970.617, 3623.049
1972.545, 3625.420
1974.474, 3626.870
1976.402, 3632.230
1978.331, 3630.622
1980.259, 3608.527
1982.188, 3587.978
1984.116, 3581.115
1986.045, 3588.177
1987.973, 3619.844
1989.902, 3672.682
1991.830, 3689.214
1993.759, 3648.786
1995.687, 3619.659
1997.615, 3603.561
1999.544, 3596.384
2001.472, 3605.355
2003.401, 3613.672
2005.329, 3608.547
2007.258, 3600.379
2009.186, 3604.355
2011.115, 3617.614
2013.043, 3623.392
2014.972, 3621.349
2016.900, 3624.533
2018.829, 3637.696
2020.757, 3643.523
2022.686, 3633.557
2024.614, 3621.823
2026.542, 3608.764
2028.471, 3602.163
2030.399, 3615.046
2032.328, 3636.239
2034.256, 3643.804
2036.185, 3638.021
2038.113, 3628.756
2040.042, 3609.668
2041.970, 3603.111
2043.899, 3619.311
2045.827, 3633.462
2047.756, 3635.706
2049.684, 3641.947
2051.613, 3670.659
2053.541, 3699.287
2055.469, 3702.381
2057.398, 3686.305
2059.326, 3667.138
2061.255, 3645.120
2063.183, 3626.617
2065.112, 3609.700
2067.040, 3608.803
2068.969, 3633.677
2070.897, 3658.646
2072.826, 3678.209
2074.754, 3690.778
2076.683, 3690.539
2078.611, 3686.783
2080.540, 3693.650
2082.468, 3705.422
2084.396, 3702.640
2086.325, 3683.745
2088.253, 3669.762
2090.182, 3662.093
2092.110, 3656.160
2094.039, 3648.521
2095.967, 3648.566
2097.896, 3664.972
2099.824, 3671.615
2101.753, 3695.122
2103.681, 3708.105
2105.610, 3711.130
2107.538, 3674.371
2109.467, 3688.985
2111.395, 3683.011
2113.323, 3676.193
2115.252, 3698.037
2117.180, 3667.065
2119.109, 3688.455
2121.037, 3688.943
2122.966, 3698.997
2124.894, 3688.337
2126.823, 3684.074
2128.751, 3700.534
2130.680, 3705.519
2132.608, 3692.474
2134.537, 3669.319
2136.465, 3652.224
2138.394, 3640.891
2140.322, 3635.756
2142.250, 3641.241
2144.179, 3662.019
2146.107, 3673.438
2148.036, 3664.227
2149.964, 3658.304
2151.893, 3668.008
2153.821, 3675.783
2155.750, 3666.077
2157.678, 3655.916
2159.607, 3663.290
2161.535, 3680.338
2163.464, 3697.891
2165.392, 3713.416
2167.321, 3698.917
2169.249, 3652.697
2171.177, 3625.872
2173.106, 3626.916
2175.034, 3625.229
2176.963, 3609.181
2178.891, 3602.868
2180.820, 3627.054
2182.748, 3646.330
2184.677, 3632.927
2186.605, 3616.221
2188.534, 3626.933
2190.462, 3649.788
2192.391, 3662.559
2194.319, 3665.120
2196.248, 3652.604
2198.176, 3624.735
2200.104, 3600.639
2202.033, 3579.793
2203.961, 3570.864
2205.890, 3577.885
2207.818, 3587.046
2209.747, 3593.288
2211.675, 3601.595
2213.604, 3619.914
2215.532, 3634.295
2217.461, 3634.605
2219.389, 3626.861
2221.318, 3613.384
2223.246, 3599.161
2225.175, 3599.829
2227.103, 3612.858
2229.031, 3606.083
2230.960, 3578.285
2232.888, 3566.792
2234.817, 3578.644
2236.745, 3584.417
2238.674, 3575.567
2240.602, 3569.784
2242.531, 3573.419
2244.459, 3579.999
2246.388, 3583.910
2248.316, 3592.718
2250.245, 3627.436
2252.173, 3654.954
2254.102, 3622.038
2256.030, 3559.777
2257.958, 3535.016
2259.887, 3542.303
2261.815, 3564.438
2263.744, 3599.931
2265.672, 3614.586
2267.601, 3603.297
2269.529, 3588.995
2271.458, 3574.916
2273.386, 3556.934
2275.315, 3522.497
2277.243, 3500.757
2279.172, 3503.564
2281.100, 3515.322
2283.029, 3540.937
2284.957, 3559.318
2286.885, 3545.620
2288.814, 3522.440
2290.742, 3518.722
2292.671, 3526.002
2294.599, 3525.283
2296.528, 3517.903
2298.456, 3512.614
2300.385, 3508.823
2302.313, 3511.408
2304.242, 3519.432
2306.170, 3518.965
2308.099, 3543.946
2310.027, 3558.403
2311.956, 3562.903
2313.884, 3527.617
2315.813, 3543.706
2317.741, 3539.205
2319.669, 3533.861
2321.598, 3557.179
2323.526, 3527.680
2325.455, 3550.545
2327.383, 3552.506
2329.312, 3564.034
2331.240, 3554.847
2333.169, 3552.059
2335.097, 3569.991
2337.026, 3576.451
2338.954, 3564.879
2340.883, 3577.015
2342.811, 3546.793
2344.740, 3553.741
2346.668, 3576.725
2348.596, 3566.195
2350.525, 3578.710
2352.453, 3582.448
2354.382, 3546.299
2356.310, 3579.518
2358.239, 3582.737
2360.167, 3541.377
2362.096, 3526.904
2364.024, 3537.894
2365.953, 3555.206
2367.881, 3566.293
2369.810, 3570.969
2371.738, 3566.231
2373.667, 3556.141
2375.595, 3546.474
2377.523, 3538.995
2379.452, 3542.505
2381.380, 3556.092
2383.309, 3574.044
2385.237, 3595.847
2387.166, 3607.299
2389.094, 3605.247
2391.023, 3603.415
2392.951, 3603.369
2394.880, 3603.193
2396.808, 3604.636
2398.737, 3603.350
2400.665, 3599.217
2402.594, 3591.692
2404.522, 3574.912
2406.450, 3563.937
2408.379, 3567.821
2410.307, 3578.041
2412.236, 3595.077
2414.164, 3609.635
2416.093, 3612.767
2418.021, 3609.102
2419.950, 3601.381
2421.878, 3593.102
2423.807, 3588.415
2425.735, 3589.200
2427.664, 3607.098
2429.592, 3635.689
2431.521, 3641.613
2433.449, 3624.237
2435.377, 3617.978
2437.306, 3625.274
2439.234, 3629.441
2441.163, 3629.539
2443.091, 3629.246
2445.020, 3630.447
2446.948, 3622.220
2448.877, 3596.866
2450.805, 3583.516
2452.734, 3601.610
2454.662, 3612.871
2456.591, 3599.455
2458.519, 3588.948
2460.448, 3593.504
2462.376, 3598.869
2464.304, 3593.149
2466.233, 3591.153
2468.161, 3612.776
2470.090, 3629.055
2472.018, 3607.464
2473.947, 3577.479
2475.875, 3568.421
2477.804, 3574.904
2479.732, 3600.602
2481.661, 3629.476
2483.589, 3618.048
2485.518, 3583.863
2487.446, 3580.301
2489.375, 3598.700
2491.303, 3601.978
2493.231, 3590.972
2495.160, 3586.342
2497.088, 3587.802
2499.017, 3606.937
2500.945, 3650.703
2502.874, 3650.860
2504.802, 3596.955
2506.731, 3580.744
2508.659, 3622.968
2510.588, 3647.935
2512.516, 3634.818
2514.445, 3622.316
2516.373, 3608.816
2518.302, 3607.922
2520.230, 3634.002
2522.158, 3645.555
2524.087, 3624.242
2526.015, 3604.987
2527.944, 3601.786
2529.872, 3603.005
2531.801, 3607.650
2533.729, 3609.929
2535.658, 3600.922
2537.586, 3595.820
2539.515, 3610.366
2541.443, 3624.009
2543.372, 3616.816
2545.300, 3608.922
2547.229, 3621.722
2549.157, 3639.103
2551.085, 3651.146
2553.014, 3650.794
2554.942, 3614.305
2556.871, 3569.885
2558.799, 3566.389
2560.728, 3585.780
2562.656, 3603.305
2564.585, 3614.162
2566.513, 3598.895
2568.442, 3569.198
2570.370, 3566.868
2572.299, 3586.199
2574.227, 3599.615
2576.156, 3606.709
2578.084, 3601.448
2580.012, 3587.030
2581.941, 3592.750
2583.869, 3619.730
2585.798, 3644.233
2587.726, 3669.031
2589.655, 3665.902
2591.583, 3632.395
2593.512, 3612.534
2595.440, 3608.879
2597.369, 3610.490
2599.297, 3616.518
2601.226, 3625.180
2603.154, 3639.593
2605.083, 3649.880
2607.011, 3658.122
2608.939, 3654.885
2610.868, 3637.279
2612.796, 3616.167
2614.725, 3583.968
2616.653, 3578.250
2618.582, 3634.422
2620.510, 3665.324
2622.439, 3650.529
2624.367, 3634.895
2626.296, 3617.816
2628.224, 3623.201
2630.153, 3672.695
2632.081, 3709.485
2634.010, 3712.724
2635.938, 3706.894
2637.866, 3689.857
2639.795, 3677.517
2641.723, 3673.240
2643.652, 3675.712
2645.580, 3693.819
2647.509, 3701.731
2649.437, 3672.922
2651.366, 3656.243
2653.294, 3689.023
2655.223, 3709.717
2657.151, 3680.400
2659.080, 3658.572
2661.008, 3672.697
2662.937, 3696.321
2664.865, 3725.605
2666.793, 3747.561
2668.722, 3751.699
2670.650, 3751.682
2672.579, 3751.406
2674.507, 3753.031
2676.436, 3761.152
2678.364, 3765.642
2680.293, 3757.524
2682.221, 3746.885
2684.150, 3730.870
2686.078, 3726.545
2688.007, 3766.214
2689.935, 3793.900
2691.864, 3757.637
2693.792, 3724.368
2695.720, 3747.913
2697.649, 3779.822
2699.577, 3775.058
2701.506, 3801.550
2703.434, 3817.517
2705.363, 3823.527
2707.291, 3789.752
2709.220, 3807.351
2711.148, 3804.360
2713.077, 3800.527
2715.005, 3825.355
2716.934, 3797.368
2718.862, 3821.741
2720.791, 3825.214
2722.719, 3838.252
2724.647, 3830.574
2726.576, 3829.297
2728.504, 3848.739
2730.433, 3856.710
2732.361, 3846.648
2734.290, 3860.295
2736.218, 3800.990
2738.147, 3846.984
2740.075, 3884.287
2742.004, 3836.509
2743.932, 3789.852
2745.861, 3803.930
2747.789, 3833.040
2749.718, 3867.278
2751.646, 3886.186
2753.574, 3862.567
2755.503, 3839.574
2757.431, 3848.510
2759.360, 3855.118
2761.288, 3834.209
2763.217, 3818.544
2765.145, 3831.868
2767.074, 3845.024
2769.002, 3835.735
2770.931, 3835.788
2772.859, 3874.329
2774.788, 3902.959
2776.716, 3893.992
2778.645, 3891.337
2780.573, 3932.158
2782.501, 3954.129
2784.430, 3913.043
2786.358, 3883.773
2788.287, 3892.991
2790.215, 3903.766
2792.144, 3905.119
2794.072, 3906.437
2796.001, 3910.317
2797.929, 3915.733
2799.858, 3927.396
2801.786, 3928.576
2803.715, 3910.032
2805.643, 3900.879
2807.572, 3911.639
2809.500, 3923.885
2811.428, 3939.976
2813.357, 3946.091
2815.285, 3940.553
2817.214, 3926.928
2819.142, 3900.674
2821.071, 3893.150
2822.999, 3921.795
2824.928, 3932.544
2826.856, 3916.714
2828.785, 3920.681
2830.713, 3949.427
2832.642, 3951.438
2834.570, 3915.984
2836.499, 3918.140
2838.427, 3969.265
2840.355, 3982.129
2842.284, 3958.836
2844.212, 3950.222
2846.141, 3956.011
2848.069, 3951.484
2849.998, 3937.666
2851.926, 3935.356
2853.855, 3941.957
2855.783, 3942.460
2857.712, 3937.117
2859.640, 3919.685
2861.569, 3900.363
2863.497, 3910.951
2865.426, 3937.671
2867.354, 3950.375
2869.282, 3953.293
2871.211, 3945.600
2873.139, 3940.513
2875.068, 3970.745
2876.996, 4000.819
2878.925, 3972.586
2880.853, 3936.893
2882.782, 3944.440
2884.710, 3962.944
2886.639, 3964.394
2888.567, 3968.638
2890.496, 3999.165
2892.424, 4023.355
2894.353, 4023.637
2896.281, 4014.874
2898.209, 3995.717
2900.138, 3982.753
2902.066, 3989.487
2903.995, 3990.400
2905.923, 3975.507
2907.852, 3966.624
2909.780, 3969.664
2911.709, 3979.996
2913.637, 4005.598
2915.566, 4017.151
2917.494, 4009.527
2919.423, 4008.761
2921.351, 4018.568
2923.280, 4029.797
2925.208, 4042.909
2927.136, 4052.130
2929.065, 4057.050
2930.993, 4035.383
2932.922, 3993.974
2934.850, 3992.148
2936.779, 4021.764
2938.707, 4042.321
2940.636, 4055.086
2942.564, 4063.185
2944.493, 4067.111
2946.421, 4066.889
2948.350, 4064.275
2950.278, 4062.310
2952.207, 4059.199
2954.135, 4049.241
2956.063, 4041.940
2957.992, 4052.003
2959.920, 4058.594
2961.849, 4031.660
2963.777, 4022.627
2965.706, 4075.787
2967.634, 4106.192
2969.563, 4051.320
2971.491, 4013.977
2973.420, 4031.589
2975.348, 4049.637
2977.277, 4060.566
2979.205, 4078.203
2981.134, 4112.166
2983.062, 4118.699
2984.990, 4088.666
2986.919, 4069.122
2988.847, 4060.381
2990.776, 4054.824
2992.704, 4052.960
2994.633, 4064.886
2996.561, 4084.094
2998.490, 4072.222
3000.418, 4049.350
3002.347, 4059.413
3004.275, 4087.904
3006.204, 4128.178
3008.132, 4157.527
3010.061, 4138.402
3011.989, 4111.093
3013.917, 4101.775
3015.846, 4100.745
3017.774, 4107.399
3019.703, 4113.406
3021.631, 4116.932
3023.560, 4116.872
3025.488, 4108.042
3027.417, 4108.059
3029.345, 4124.818
3031.274, 4139.912
3033.202, 4153.595
3035.131, 4147.526
3037.059, 4118.159
3038.988, 4115.546
3040.916, 4137.763
3042.844, 4149.459
3044.773, 4150.444
3046.701, 4130.038
3048.630, 4106.575
3050.558, 4131.265
3052.487, 4163.292
3054.415, 4127.334
3056.344, 4091.444
3058.272, 4124.684
3060.201, 4163.969
3062.129, 4167.616
3064.058, 4167.102
3065.986, 4175.446
3067.915, 4177.597
3069.843, 4157.860
3071.771, 4158.299
3073.700, 4196.676
3075.628, 4190.774
3077.557, 4131.312
3079.485, 4129.228
3081.414, 4189.954
3083.342, 4233.934
3085.271, 4260.992
3087.199, 4266.877
3089.128, 4259.336
3091.056, 4252.163
3092.985, 4246.584
3094.913, 4245.183
3096.842, 4245.266
3098.770, 4237.355
3100.698, 4240.226
3102.627, 4287.959
3104.555, 4307.519
3106.484, 4259.403
3108.412, 4226.158
3110.341, 4233.413
3112.269, 4232.924
3114.198, 4210.622
3116.126, 4217.763
3118.055, 4252.678
3119.983, 4248.979
3121.912, 4216.667
3123.840, 4235.046
3125.769, 4277.666
3127.697, 4267.316
3129.625, 4241.302
3131.554, 4249.097
3133.482, 4263.784
3135.411, 4262.492
3137.339, 4255.432
3139.268, 4241.860
3141.196, 4235.876
3143.125, 4258.363
3145.053, 4253.917
3146.982, 4204.669
3148.910, 4203.942
3150.839, 4265.030
3152.767, 4290.822
3154.696, 4280.271
3156.624, 4262.246
3158.552, 4240.400
3160.481, 4225.049
3162.409, 4215.011
3164.338, 4210.619
3166.266, 4209.241
3168.195, 4209.958
3170.123, 4211.220
3172.052, 4212.289
3173.980, 4213.500
3175.909, 4214.692
3177.837, 4212.726
3179.766, 4202.783
3181.694, 4218.779
3183.623, 4268.793
3185.551, 4286.045
3187.479, 4276.742
3189.408, 4274.837
3191.336, 4273.260
3193.265, 4248.710
3195.193, 4220.138
3197.122, 4209.300
3199.050, 4208.873
3200.979, 4221.473
3202.907, 4230.684
3204.836, 4226.588
3206.764, 4225.828
3208.693, 4231.740
3210.621, 4240.146
3212.550, 4253.180
3214.478, 4247.051
3216.406, 4226.407
3218.335, 4227.292
3220.263, 4235.332
3222.192, 4199.434
3224.120, 4164.716
3226.049, 4203.855
3227.977, 4249.356
3229.906, 4258.179
3231.834, 4251.833
3233.763, 4226.334
3235.691, 4218.721
3237.620, 4240.537
3239.548, 4254.696
3241.477, 4257.253
3243.405, 4271.296
3245.333, 4290.472
3247.262, 4278.589
3249.190, 4255.348
3251.119, 4268.037
3253.047, 4277.250
3254.976, 4228.613
3256.904, 4189.756
3258.833, 4203.499
3260.761, 4227.874
3262.690, 4257.071
3264.618, 4279.966
3266.547, 4296.024
3268.475, 4289.967
3270.404, 4263.415
3272.332, 4231.572
3274.260, 4207.232
3276.189, 4231.037
3278.117, 4263.222
3280.046, 4243.439
3281.974, 4229.637
3283.903, 4275.667
3285.831, 4296.012
3287.760, 4241.505
3289.688, 4230.341
3291.617, 4278.832
3293.545, 4275.572
3295.474, 4224.654
3297.402, 4251.639
3299.331, 4311.126
3301.259, 4284.946
3303.188, 4241.325
3305.116, 4259.200
3307.044, 4282.593
3308.973, 4283.374
3310.901, 4280.279
3312.830, 4274.053
3314.758, 4281.573
3316.687, 4304.606
3318.615, 4305.502
3320.544, 4287.798
3322.472, 4270.116
3324.401, 4263.010
3326.329, 4301.919
3328.258, 4340.934
3330.186, 4340.009
3332.115, 4327.968
3334.043, 4309.342
3335.971, 4305.989
3337.900, 4330.198
3339.828, 4332.573
3341.757, 4312.943
3343.685, 4317.286
3345.614, 4335.816
3347.542, 4348.273
3349.471, 4350.444
3351.399, 4329.206
3353.328, 4308.141
3355.256, 4299.438
3357.185, 4296.517
3359.113, 4303.053
3361.042, 4284.087
3362.970, 4237.293
3364.898, 4251.998
3366.827, 4307.303
3368.755, 4310.376
3370.684, 4295.179
3372.612, 4302.501
3374.541, 4313.629
3376.469, 4316.871
3378.398, 4319.945
3380.326, 4327.536
3382.255, 4326.170
3384.183, 4314.867
3386.112, 4306.537
3388.040, 4304.971
3389.969, 4327.741
3391.897, 4354.244
3393.825, 4357.094
3395.754, 4346.294
3397.682, 4309.928
3399.611, 4298.804
3401.539, 4332.354
3403.468, 4345.095
3405.396, 4330.070
3407.325, 4329.563
3409.253, 4335.450
3411.182, 4305.678
3413.110, 4279.804
3415.039, 4315.384
3416.967, 4351.565
3418.896, 4364.425
3420.824, 4355.709
3422.752, 4314.914
3424.681, 4297.972
3426.609, 4303.556
3428.538, 4293.178
3430.466, 4282.741
3432.395, 4317.469
3434.323, 4355.616
3436.252, 4363.108
3438.180, 4359.045
3440.109, 4339.371
3442.037, 4340.674
3443.966, 4366.301
3445.894, 4363.350
3447.823, 4336.598
3449.751, 4309.015
3451.679, 4288.701
3453.608, 4289.348
3455.536, 4295.171
3457.465, 4301.043
3459.393, 4300.788
3461.322, 4291.583
3463.250, 4288.511
3465.179, 4292.182
3467.107, 4312.498
3469.036, 4336.075
3470.964, 4332.174
3472.893, 4330.742
3474.821, 4368.537
3476.750, 4390.799
3478.678, 4377.438
3480.606, 4352.180
3482.535, 4317.280
3484.463, 4323.736
3486.392, 4349.630
3488.320, 4328.998
3490.249, 4306.264
3492.177, 4337.330
3494.106, 4353.294
3496.034, 4296.947
3497.963, 4296.397
3499.891, 4359.443
3501.820, 4345.879
3503.748, 4285.003
3505.677, 4295.171
3507.605, 4314.312
3509.533, 4264.261
3511.462, 4227.922
3513.390, 4244.298
3515.319, 4271.655
3517.247, 4305.827
3519.176, 4327.424
3521.104, 4335.773
3523.033, 4323.313
3524.961, 4305.997
3526.890, 4302.178
3528.818, 4296.089
3530.747, 4279.406
3532.675, 4272.979
3534.604, 4283.460
3536.532, 4270.050
3538.460, 4250.735
3540.389, 4294.305
3542.317, 4337.913
3544.246, 4298.380
3546.174, 4262.417
3548.103, 4255.454
3550.031, 4279.846
3551.960, 4334.358
3553.888, 4300.401
3555.817, 4230.299
3557.745, 4265.310
3559.674, 4317.613
3561.602, 4319.272
3563.531, 4309.918
3565.459, 4293.409
3567.387, 4299.116
3569.316, 4325.638
3571.244, 4363.629
3573.173, 4387.593
3575.101, 4315.405
3577.030, 4258.779
3578.958, 4317.067
3580.887, 4340.797
3582.815, 4303.257
3584.744, 4284.581
3586.672, 4286.759
3588.601, 4295.629
3590.529, 4307.919
3592.458, 4329.916
3594.386, 4331.289
3596.314, 4280.621
3598.243, 4277.176
3600.171, 4333.229
3602.100, 4318.043
3604.028, 4269.322
3605.957, 4292.635
3607.885, 4324.751
3609.814, 4315.675
3611.742, 4303.537
3613.671, 4295.542
3615.599, 4284.714
3617.528, 4274.541
3619.456, 4309.676
3621.385, 4346.288
3623.313, 4318.464
3625.241, 4294.755
3627.170, 4302.988
3629.098, 4310.913
3631.027, 4313.618
3632.955, 4337.587
3634.884, 4362.387
3636.812, 4343.976
3638.741, 4316.252
3640.669, 4298.426
3642.598, 4287.923
3644.526, 4286.750
3646.455, 4278.078
3648.383, 4267.690
3650.312, 4279.962
3652.240, 4297.090
3654.168, 4290.411
3656.097, 4305.873
3658.025, 4372.099
3659.954, 4392.795
3661.882, 4371.145
3663.811, 4364.531
3665.739, 4356.936
3667.668, 4305.964
3669.596, 4286.689
3671.525, 4350.289
3673.453, 4364.829
3675.382, 4322.814
3677.310, 4324.958
3679.239, 4351.153
3681.167, 4381.864
3683.095, 4390.149
3685.024, 4351.577
3686.952, 4328.537
3688.881, 4330.334
3690.809, 4318.181
3692.738, 4301.142
3694.666, 4298.905
3696.595, 4304.135
3698.523, 4314.021
3700.452, 4325.787
3702.380, 4340.499
3704.309, 4336.643
3706.237, 4330.335
3708.166, 4370.433
3710.094, 4411.403
3712.022, 4423.563
3713.951, 4423.446
3715.879, 4411.101
3717.808, 4423.321
3719.736, 4440.528
3721.665, 4398.162
3723.593, 4355.454
3725.522, 4357.036
3727.450, 4361.212
3729.379, 4358.486
3731.307, 4353.722
3733.236, 4348.594
3735.164, 4344.458
3737.093, 4347.459
3739.021, 4361.011
3740.949, 4384.773
3742.878, 4423.652
3744.806, 4436.634
3746.735, 4425.693
3748.663, 4379.683
3750.592, 4350.988
3752.520, 4385.305
3754.449, 4396.113
3756.377, 4360.443
3758.306, 4363.590
3760.234, 4389.584
3762.163, 4413.125
3764.091, 4423.325
3766.020, 4413.731
3767.948, 4394.205
3769.876, 4365.477
3771.805, 4361.678
3773.733, 4375.635
3775.662, 4410.479
3777.590, 4426.015
3779.519, 4400.877
3781.447, 4371.582
3783.376, 4343.830
3785.304, 4349.375
3787.233, 4367.169
3789.161, 4368.180
3791.090, 4376.758
3793.018, 4407.407
3794.947, 4390.843
3796.875, 4338.613
3798.803, 4361.708
3800.732, 4399.550
3802.660, 4393.911
3804.589, 4387.961
3806.517, 4392.657
3808.446, 4380.490
3810.374, 4362.022
3812.303, 4379.457
3814.231, 4393.190
3816.160, 4368.554
3818.088, 4351.505
3820.017, 4349.327
3821.945, 4357.416
3823.874, 4374.928
3825.802, 4417.941
3827.730, 4428.822
3829.659, 4371.606
3831.587, 4356.180
3833.516, 4384.222
3835.444, 4405.214
3837.373, 4415.065
3839.301, 4413.038
3841.230, 4388.506
3843.158, 4338.668
3845.087, 4308.060
3847.015, 4300.302
3848.944, 4339.428
3850.872, 4375.953
3852.801, 4380.837
3854.729, 4379.556
3856.657, 4376.458
3858.586, 4374.727
3860.514, 4385.428
3862.443, 4439.866
3864.371, 4471.173
3866.300, 4446.583
3868.228, 4430.972
3870.157, 4424.655
3872.085, 4410.141
3874.014, 4393.689
3875.942, 4374.405
3877.871, 4388.044
3879.799, 4433.800
3881.728, 4458.526
3883.656, 4467.957
3885.584, 4465.367
3887.513, 4448.872
3889.441, 4423.918
3891.370, 4424.266
3893.298, 4431.798
3895.227, 4430.475
3897.155, 4439.151
3899.084, 4471.514
3901.012, 4509.838
3902.941, 4542.054
3904.869, 4522.223
3906.798, 4492.476
3908.726, 4482.119
3910.655, 4479.995
3912.583, 4489.742
3914.511, 4513.686
3916.440, 4540.550
3918.368, 4578.775
3920.297, 4594.850
3922.225, 4559.540
3924.154, 4530.178
3926.082, 4512.052
3928.011, 4544.718
3929.939, 4581.843
3931.868, 4544.149
3933.796, 4522.286
3935.725, 4540.523
3937.653, 4574.729
3939.582, 4600.000
3941.510, 4580.409
3943.438, 4566.860
3945.367, 4569.421
3947.295, 4595.246
3949.224, 4617.382
3951.152, 4598.338
3953.081, 4594.518
3955.009, 4613.787
3956.938, 4627.319
3958.866, 4643.792
3960.795, 4629.804
3962.723, 4612.889
3964.652, 4665.800
3966.580, 4686.553
3968.509, 4655.088
3970.437, 4657.902
3972.365, 4683.746
3974.294, 4694.855
3976.222, 4701.835
3978.151, 4714.591
3980.079, 4697.065
3982.008, 4676.931
3983.936, 4673.775
3985.865, 4689.450
3987.793, 4726.299
3989.722, 4754.306
3991.650, 4768.967
3993.579, 4745.752
3995.507, 4738.035
3997.436, 4758.914
3999.364, 4777.355
4001.292, 4784.166
4003.221, 4759.430
4005.149, 4747.767
4007.078, 4769.513
4009.006, 4773.991
4010.935, 4765.029
4012.863, 4779.490
4014.792, 4804.271
4016.720, 4841.638
4018.649, 4852.878
4020.577, 4836.155
4022.506, 4821.907
4024.434, 4816.556
4026.363, 4843.464
4028.291, 4845.582
4030.219, 4815.304
4032.148, 4824.975
4034.076, 4853.380
4036.005, 4892.822
4037.933, 4900.683
4039.862, 4841.752
4041.790, 4862.275
4043.719, 4925.699
4045.647, 4932.247
4047.576, 4932.849
4049.504, 4924.667
4051.433, 4916.397
4053.361, 4909.336
4055.290, 4887.313
4057.218, 4890.445
4059.146, 4937.729
4061.075, 4947.112
4063.003, 4924.863
4064.932, 4974.736
4066.860, 5011.855
4068.789, 4976.468
4070.717, 4944.638
4072.646, 4934.717
4074.574, 4941.208
4076.503, 4946.038
4078.431, 4961.579
4080.360, 4955.613
4082.288, 4926.188
4084.217, 4923.261
4086.145, 4949.569
4088.073, 4975.146
4090.002, 4987.452
4091.930, 5018.369
4093.859, 5029.266
4095.787, 5001.675
4097.716, 4966.031
4099.645, 4966.489
4101.573, 5016.281
4103.501, 5047.838
4105.430, 5069.333
4107.358, 5052.318
4109.287, 5005.440
4111.215, 4983.394
4113.144, 5006.832
4115.072, 5029.559
4117.000, 5022.129
4118.929, 5028.991
4120.857, 5057.121
4122.786, 5063.404
4124.714, 5034.177
4126.643, 5045.869
4128.571, 5080.011
4130.500, 5090.977
4132.428, 5097.488
4134.356, 5063.039
4136.285, 5078.844
4138.214, 5136.137
4140.142, 5101.903
4142.070, 5057.314
4143.999, 5075.543
4145.928, 5097.931
4147.856, 5117.618
4149.784, 5149.202
4151.713, 5179.455
4153.642, 5174.349
4155.570, 5151.968
4157.498, 5111.864
4159.427, 5079.403
4161.355, 5077.543
4163.284, 5112.379
4165.212, 5141.358
4167.141, 5153.648
4169.069, 5141.505
4170.998, 5149.904
4172.926, 5209.419
4174.854, 5205.324
4176.783, 5156.628
4178.711, 5150.583
4180.640, 5165.541
4182.568, 5196.275
4184.497, 5203.357
4186.425, 5186.562
4188.354, 5176.255
4190.282, 5173.876
4192.211, 5198.213
4194.139, 5202.217
4196.067, 5179.189
4197.996, 5211.332
4199.925, 5256.021
4201.853, 5263.023
4203.781, 5280.704
4205.710, 5316.432
4207.639, 5310.832
4209.567, 5286.133
4211.495, 5263.096
4213.424, 5253.299
4215.353, 5253.382
4217.281, 5282.555
4219.209, 5307.040
4221.138, 5295.864
4223.066, 5305.759
4224.995, 5329.895
4226.923, 5323.176
4228.852, 5306.531
4230.780, 5284.072
4232.708, 5295.064
4234.637, 5327.780
4236.565, 5341.630
4238.494, 5343.199
4240.422, 5322.274
4242.351, 5369.404
4244.279, 5440.569
4246.208, 5397.177
4248.136, 5378.688
4250.064, 5461.118
4251.993, 5437.723
4253.922, 5366.547
4255.850, 5341.352
4257.778, 5350.050
4259.707, 5398.781
4261.636, 5401.909
4263.564, 5392.029
4265.492, 5412.639
4267.421, 5435.679
4269.350, 5455.358
4271.278, 5448.626
4273.206, 5437.510
4275.135, 5445.927
4277.063, 5449.627
4278.992, 5446.671
4280.920, 5436.940
4282.849, 5436.918
4284.777, 5465.788
4286.706, 5468.165
4288.634, 5451.330
4290.563, 5464.809
4292.491, 5466.037
4294.419, 5429.539
4296.348, 5420.890
4298.276, 5442.769
4300.205, 5531.395
4302.133, 5553.278
4304.062, 5464.051
4305.990, 5444.813
4307.919, 5464.176
4309.847, 5496.003
4311.775, 5502.455
4313.704, 5481.696
4315.633, 5494.720
4317.561, 5530.936
4319.489, 5600.949
4321.418, 5577.314
4323.347, 5489.375
4325.275, 5480.209
4327.203, 5497.914
4329.132, 5521.074
4331.061, 5550.442
4332.989, 5572.940
4334.917, 5563.813
4336.846, 5541.683
4338.774, 5513.141
4340.703, 5495.957
4342.631, 5497.134
4344.560, 5536.888
4346.488, 5545.488
4348.417, 5527.981
4350.345, 5560.428
4352.273, 5567.847
4354.202, 5483.909
4356.130, 5472.625
4358.059, 5512.749
4359.987, 5561.641
4361.916, 5581.696
4363.844, 5557.708
4365.772, 5558.031
4367.701, 5565.548
4369.630, 5560.927
4371.558, 5557.514
4373.486, 5556.927
4375.415, 5553.094
4377.344, 5565.276
4379.272, 5614.668
4381.200, 5602.204
4383.129, 5560.901
4385.058, 5558.830
4386.986, 5555.573
4388.914, 5542.888
4390.843, 5579.915
4392.771, 5606.688
4394.700, 5565.626
4396.628, 5548.194
4398.557, 5559.256
4400.485, 5590.976
4402.414, 5608.075
4404.342, 5596.506
4406.271, 5590.964
4408.199, 5586.974
4410.127, 5568.455
4412.056, 5579.889
4413.984, 5619.286
4415.913, 5635.634
4417.841, 5628.876
4419.770, 5582.013
4421.698, 5594.924
4423.627, 5621.765
4425.555, 5556.279
4427.483, 5520.552
4429.412, 5539.300
4431.341, 5603.274
4433.269, 5654.427
4435.197, 5655.329
4437.126, 5617.465
4439.055, 5568.274
4440.983, 5563.668
4442.911, 5560.709
4444.840, 5551.996
4446.769, 5608.656
4448.697, 5652.414
4450.625, 5595.728
4452.554, 5573.992
4454.482, 5585.553
4456.411, 5606.962
4458.339, 5631.458
4460.268, 5658.628
4462.196, 5637.169
4464.125, 5611.601
4466.053, 5621.848
4467.981, 5626.486
4469.910, 5622.201
4471.838, 5603.631
4473.767, 5598.513
4475.695, 5611.638
4477.624, 5618.457
4479.552, 5614.530
4481.480, 5590.981
4483.409, 5580.750
4485.338, 5580.050
4487.266, 5566.207
4489.194, 5580.944
4491.123, 5635.686
4493.052, 5583.540
4494.980, 5532.291
4496.908, 5564.624
4498.837, 5567.536
4500.766, 5553.823
4502.694, 5569.957
4504.622, 5569.772
4506.551, 5550.730
4508.479, 5567.504
4510.408, 5583.271
4512.336, 5572.777
4514.265, 5566.935
4516.193, 5561.100
4518.122, 5545.250
4520.050, 5527.495
4521.979, 5510.938
4523.907, 5502.388
4525.835, 5509.767
4527.764, 5535.869
4529.692, 5551.173
4531.621, 5543.880
4533.549, 5475.375
4535.478, 5504.434
4537.406, 5588.679
4539.335, 5571.986
4541.263, 5558.974
4543.191, 5578.378
4545.120, 5556.583
4547.049, 5545.107
4548.977, 5582.212
4550.905, 5580.536
4552.834, 5568.512
4554.763, 5615.651
4556.691, 5608.347
4558.619, 5551.628
4560.548, 5528.570
4562.477, 5526.325
4564.405, 5543.477
4566.333, 5523.698
4568.262, 5513.247
4570.190, 5559.785
4572.119, 5575.342
4574.047, 5570.105
4575.976, 5575.998
4577.904, 5583.619
4579.833, 5585.165
4581.761, 5541.562
4583.689, 5506.239
4585.618, 5508.549
4587.546, 5504.981
4589.475, 5503.000
4591.403, 5507.578
4593.332, 5530.682
4595.260, 5559.655
4597.188, 5578.899
4599.117, 5556.019
4601.046, 5502.818
4602.974, 5500.371
4604.902, 5519.540
4606.831, 5551.425
4608.760, 5552.534
4610.688, 5552.439
4612.616, 5577.204
4614.545, 5597.452
4616.474, 5597.908
4618.402, 5544.068
4620.330, 5504.802
4622.259, 5494.829
4624.188, 5544.949
4626.116, 5555.282
4628.044, 5487.151
4629.973, 5502.467
4631.901, 5541.398
4633.830, 5573.479
4635.758, 5536.975
4637.687, 5485.969
4639.615, 5485.952
4641.543, 5502.133
4643.472, 5529.718
4645.400, 5580.417
4647.329, 5598.813
4649.257, 5580.979
4651.186, 5582.095
4653.114, 5591.098
4655.043, 5602.706
4656.971, 5582.747
4658.899, 5564.653
4660.828, 5583.567
4662.757, 5574.146
4664.685, 5552.256
4666.613, 5536.674
4668.542, 5536.929
4670.471, 5551.623
4672.399, 5588.911
4674.327, 5594.208
4676.256, 5562.721
4678.185, 5521.499
4680.113, 5519.729
4682.041, 5571.394
4683.970, 5561.247
4685.898, 5550.519
4687.827, 5579.146
4689.755, 5573.071
4691.684, 5562.543
4693.612, 5599.595
4695.541, 5561.044
4697.469, 5511.304
4699.397, 5601.958
4701.326, 5615.348
4703.254, 5555.661
4705.183, 5529.902
4707.111, 5494.082
4709.040, 5446.579
4710.968, 5480.397
4712.896, 5530.194
4714.825, 5570.691
4716.754, 5605.411
4718.682, 5597.304
4720.610, 5496.688
4722.539, 5532.765
4724.468, 5588.624
4726.396, 5546.960
4728.324, 5521.660
4730.253, 5510.289
4732.182, 5484.534
4734.110, 5511.018
4736.038, 5564.414
4737.967, 5578.933
4739.896, 5542.917
4741.824, 5480.556
4743.752, 5508.221
4745.681, 5526.814
4747.609, 5514.620
4749.538, 5516.996
4751.466, 5512.790
4753.395, 5492.992
4755.323, 5511.646
4757.251, 5511.691
4759.180, 5462.526
4761.108, 5503.293
4763.037, 5547.510
4764.965, 5509.491
4766.894, 5501.110
4768.822, 5514.036
4770.751, 5541.398
4772.679, 5536.364
4774.607, 5512.897
4776.536, 5499.993
4778.465, 5474.222
4780.393, 5438.669
4782.321, 5391.025
4784.250, 5404.682
4786.179, 5456.387
4788.107, 5452.115
4790.035, 5439.904
4791.964, 5432.543
4793.893, 5438.402
4795.821, 5458.955
4797.749, 5482.386
4799.678, 5425.499
4801.606, 5394.765
4803.535, 5427.606
4805.463, 5399.485
4807.392, 5382.518
4809.320, 5404.174
4811.249, 5410.289
4813.177, 5428.668
4815.105, 5491.377
4817.034, 5425.614
4818.962, 5370.585
4820.891, 5416.102
4822.819, 5432.063
4824.748, 5434.771
4826.676, 5449.342
4828.604, 5428.472
4830.533, 5407.463
4832.462, 5424.912
4834.390, 5415.145
4836.318, 5393.095
4838.247, 5379.690
4840.176, 5379.301
4842.104, 5388.103
4844.032, 5405.810
4845.961, 5389.391
4847.890, 5374.500
4849.818, 5449.698
4851.746, 5444.524
4853.675, 5396.932
4855.604, 5402.563
4857.532, 5422.423
4859.460, 5429.794
4861.389, 5357.002
4863.317, 5368.230
4865.246, 5418.449
4867.174, 5335.726
4869.103, 5323.164
4871.031, 5367.798
4872.959, 5344.080
4874.888, 5387.401
4876.816, 5462.350
4878.745, 5410.276
4880.673, 5354.015
4882.602, 5326.177
4884.530, 5363.762
4886.459, 5378.203
4888.387, 5366.304
4890.315, 5364.501
4892.244, 5356.838
4894.173, 5351.559
4896.101, 5393.345
4898.029, 5429.764
4899.958, 5447.315
4901.887, 5436.566
4903.815, 5417.555
4905.743, 5392.871
4907.672, 5344.987
4909.601, 5333.456
4911.529, 5351.302
4913.457, 5343.421
4915.386, 5334.216
4917.314, 5332.755
4919.243, 5360.828
4921.171, 5366.204
4923.100, 5348.642
4925.028, 5329.906
4926.957, 5329.312
4928.885, 5331.430
4930.813, 5275.342
4932.742, 5277.753
4934.670, 5320.859
4936.599, 5318.553
4938.527, 5323.712
4940.456, 5336.452
4942.384, 5349.817
4944.313, 5304.147
4946.241, 5257.161
4948.170, 5356.476
4950.098, 5388.423
4952.026, 5367.374
4953.955, 5352.716
4955.884, 5335.389
4957.812, 5321.111
4959.740, 5314.614
4961.669, 5346.099
4963.598, 5367.314
4965.526, 5311.689
4967.454, 5305.870
4969.383, 5326.377
4971.312, 5336.209
4973.240, 5358.379
4975.168, 5370.290
4977.097, 5351.443
4979.025, 5333.593
4980.954, 5315.770
4982.882, 5296.483
4984.811, 5255.692
4986.739, 5232.455
4988.667, 5251.424
4990.596, 5315.517
4992.524, 5326.266
4994.453, 5256.049
4996.381, 5315.629
4998.310, 5344.011
5000.238, 5287.422
5002.167, 5290.296
5004.095, 5300.026
5006.023, 5298.399
5007.952, 5281.598
5009.881, 5267.784
5011.809, 5262.540
5013.737, 5273.422
5015.666, 5277.632
5017.595, 5280.802
5019.523, 5324.483
5021.451, 5293.157
5023.380, 5236.519
5025.309, 5266.491
5027.237, 5321.445
5029.165, 5359.114
5031.094, 5334.041
5033.022, 5282.248
5034.951, 5259.988
5036.879, 5317.048
5038.808, 5296.461
5040.736, 5266.724
5042.665, 5279.229
5044.593, 5260.309
5046.521, 5273.671
5048.450, 5345.088
5050.378, 5327.860
5052.307, 5305.127
5054.235, 5296.431
5056.164, 5260.168
5058.092, 5232.611
5060.021, 5226.598
5061.949, 5264.524
5063.878, 5278.343
5065.806, 5264.716
5067.734, 5232.650
5069.663, 5228.907
5071.592, 5243.241
5073.520, 5264.870
5075.448, 5251.257
5077.377, 5230.401
5079.306, 5225.833
5081.234, 5182.567
5083.162, 5179.968
5085.091, 5245.793
5087.020, 5245.085
5088.948, 5243.458
5090.876, 5254.837
5092.805, 5191.615
5094.733, 5154.996
5096.662, 5151.454
5098.590, 5126.184
5100.519, 5163.636
5102.447, 5218.942
5104.375, 5200.275
5106.304, 5192.510
5108.232, 5193.616
5110.161, 5197.934
5112.089, 5213.234
5114.018, 5204.141
5115.946, 5160.022
5117.875, 5189.562
5119.803, 5174.344
5121.731, 5100.740
5123.660, 5163.531
5125.589, 5158.093
5127.517, 5112.115
5129.445, 5205.496
5131.374, 5218.023
5133.303, 5171.768
5135.231, 5121.483
5137.159, 5107.376
5139.088, 5110.218
5141.017, 5113.086
5142.945, 5176.811
5144.873, 5192.017
5146.802, 5140.187
5148.730, 5169.462
5150.659, 5156.463
5152.587, 5109.976
5154.516, 5147.773
5156.444, 5116.302
5158.373, 5060.293
5160.301, 5058.325
5162.229, 5079.559
5164.158, 5126.597
5166.086, 5196.490
5168.015, 5163.054
5169.943, 5132.107
5171.872, 5141.500
5173.800, 5158.279
5175.729, 5155.123
5177.657, 5127.487
5179.586, 5064.206
5181.514, 5103.201
5183.442, 5146.787
5185.371, 5077.592
5187.300, 5028.521
5189.228, 5013.282
5191.156, 5034.803
5193.085, 5096.201
5195.014, 5099.492
5196.942, 5056.115
5198.870, 5071.875
5200.799, 5093.816
5202.728, 5106.077
5204.656, 5091.903
5206.584, 5114.788
5208.513, 5089.596
5210.441, 4971.908
5212.370, 4992.748
5214.298, 5026.186
5216.227, 5035.263
5218.155, 5034.358
5220.083, 4986.625
5222.012, 4951.844
5223.940, 5047.785
5225.869, 5023.265
5227.797, 4994.489
5229.726, 5032.833
5231.654, 5032.611
5233.583, 5010.037
5235.511, 4982.944
5237.439, 4978.696
5239.368, 5017.383
5241.297, 5045.302
5243.225, 4972.680
5245.153, 5001.542
5247.082, 5016.232
5249.011, 4965.369
5250.939, 4988.735
5252.867, 5000.417
5254.796, 4993.935
5256.725, 5021.294
5258.653, 4985.915
5260.581, 4945.637
5262.510, 4969.178
5264.438, 4958.204
5266.367, 4935.539
5268.295, 4915.024
5270.224, 4897.929
5272.152, 4941.213
5274.081, 5000.954
5276.009, 4991.033
5277.938, 4972.455
5279.866, 4962.601
5281.794, 4968.420
5283.723, 4901.943
5285.651, 4890.877
5287.580, 4929.876
5289.508, 4923.008
5291.437, 4888.801
5293.365, 4872.569
5295.294, 4919.838
5297.222, 4886.669
5299.150, 4876.704
5301.079, 4913.947
5303.008, 4927.979
5304.936, 4898.367
5306.864, 4877.830
5308.793, 4934.965
5310.722, 4904.548
5312.650, 4903.479
5314.578, 4970.478
5316.507, 4872.834
5318.436, 4849.061
5320.364, 4887.960
5322.292, 4894.696
5324.221, 4892.426
5326.149, 4900.935
5328.078, 4918.130
5330.006, 4839.256
5331.935, 4831.190
5333.863, 4877.284
5335.792, 4866.172
5337.720, 4900.931
5339.648, 4915.974
5341.577, 4871.180
5343.505, 4851.224
5345.434, 4843.091
5347.362, 4844.126
5349.291, 4861.172
5351.219, 4836.163
5353.147, 4824.082
5355.076, 4860.030
5357.005, 4814.161
5358.933, 4769.146
5360.861, 4762.600
5362.790, 4830.493
5364.719, 4864.660
5366.647, 4834.001
5368.575, 4748.791
5370.504, 4772.266
5372.433, 4780.492
5374.361, 4759.883
5376.289, 4726.743
5378.218, 4764.876
5380.146, 4796.772
5382.075, 4782.987
5384.003, 4760.304
5385.932, 4738.278
5387.860, 4733.292
5389.789, 4766.260
5391.717, 4726.629
5393.646, 4704.087
5395.574, 4727.746
5397.502, 4707.700
5399.431, 4693.617
5401.359, 4698.550
5403.288, 4730.413
5405.216, 4707.500
5407.145, 4707.534
5409.073, 4733.993
5411.002, 4714.884
5412.930, 4731.260
5414.858, 4741.072
5416.787, 4706.796
5418.716, 4660.475
5420.644, 4650.479
5422.572, 4662.965
5424.501, 4649.473
5426.430, 4624.198
5428.358, 4601.534
5430.286, 4589.941
5432.215, 4592.601
5434.144, 4626.009
5436.072, 4644.625
5438.000, 4596.679
5439.929, 4606.410
5441.857, 4607.816
5443.786, 4589.771
5445.714, 4591.346
5447.643, 4620.546
5449.571, 4623.655
5451.500, 4574.958
5453.428, 4581.613
5455.356, 4579.717
5457.285, 4557.655
5459.213, 4517.565
5461.142, 4530.535
5463.070, 4586.045
5464.999, 4643.707
5466.927, 4588.887
5468.855, 4543.058
5470.784, 4514.972
5472.713, 4499.249
5474.641, 4461.212
5476.569, 4501.439
5478.498, 4557.929
5480.427, 4527.868
5482.355, 4474.187
5484.283, 4489.610
5486.212, 4542.750
5488.141, 4430.158
5490.069, 4470.250
5491.997, 4536.458
5493.926, 4537.286
5495.854, 4472.634
5497.783, 4489.780
5499.711, 4522.221
5501.640, 4477.118
5503.568, 4476.956
5505.497, 4476.605
5507.425, 4450.312
5509.354, 4369.784
5511.282, 4416.407
5513.210, 4468.950
5515.139, 4469.188
5517.067, 4443.835
5518.996, 4377.564
5520.924, 4360.752
5522.853, 4440.333
5524.781, 4420.127
5526.710, 4439.854
5528.638, 4452.679
5530.566, 4384.789
5532.495, 4380.405
5534.424, 4367.107
5536.352, 4344.586
5538.280, 4352.004
5540.209, 4376.457
5542.138, 4376.928
5544.066, 4358.150
5545.994, 4399.545
5547.923, 4382.879
5549.852, 4361.200
5551.780, 4364.229
5553.708, 4337.509
5555.637, 4390.388
5557.565, 4414.308
5559.494, 4332.598
5561.422, 4366.867
5563.351, 4334.361
5565.279, 4290.383
5567.208, 4336.521
5569.136, 4300.988
5571.064, 4310.610
5572.993, 4342.050
5574.921, 4282.068
5576.850, 4284.633
5578.778, 4294.306
5580.707, 4289.991
5582.635, 4272.504
5584.563, 4272.970
5586.492, 4286.650
5588.421, 4299.731
5590.349, 4286.561
5592.277, 4245.435
5594.206, 4229.824
5596.135, 4253.618
5598.063, 4248.465
5599.991, 4214.200
5601.920, 4220.442
5603.849, 4288.969
5605.777, 4252.347
5607.705, 4194.935
5609.634, 4167.137
5611.563, 4188.001
5613.491, 4167.832
5615.419, 4206.684
5617.348, 4238.777
5619.276, 4198.542
5621.205, 4174.507
5623.133, 4170.453
5625.062, 4183.470
5626.990, 4208.497
5628.918, 4171.988
5630.847, 4144.307
5632.775, 4159.146
5634.704, 4245.190
5636.632, 4200.297
5638.561, 4188.361
5640.489, 4195.496
5642.418, 4151.740
5644.346, 4139.078
5646.274, 4114.293
5648.203, 4084.512
5650.132, 4074.945
5652.060, 4122.744
5653.988, 4173.370
5655.917, 4181.999
5657.846, 4115.670
5659.774, 4094.250
5661.702, 4104.380
5663.631, 4123.329
5665.560, 4133.952
5667.488, 4070.113
5669.416, 4063.472
5671.345, 4093.668
5673.273, 4083.882
5675.202, 4045.599
5677.130, 4062.857
5679.059, 4096.027
5680.987, 4073.695
5682.916, 4045.810
5684.844, 4051.837
5686.772, 4063.658
5688.701, 4044.397
5690.629, 4042.887
5692.558, 4043.708
5694.486, 4033.878
5696.415, 4009.423
5698.343, 4069.723
5700.271, 4077.588
5702.200, 4046.201
5704.129, 4016.729
5706.057, 4028.653
5707.985, 4020.384
5709.914, 4005.929
5711.843, 4006.514
5713.771, 4027.866
5715.699, 4035.455
5717.628, 4019.622
5719.557, 3990.206
5721.485, 4002.442
5723.413, 3988.780
5725.342, 3955.417
5727.271, 3927.191
5729.199, 3958.563
5731.127, 3940.975
5733.056, 3925.644
5734.984, 3933.003
5736.913, 3944.633
5738.841, 3928.740
5740.770, 3906.429
5742.698, 3908.059
5744.626, 3995.426
5746.555, 3943.872
5748.483, 3925.736
5750.412, 3950.449
5752.340, 3959.615
5754.269, 3850.175
5756.197, 3864.155
5758.126, 3904.219
5760.054, 3853.014
5761.982, 3917.745
5763.911, 3941.564
5765.840, 3894.364
5767.768, 3813.214
5769.696, 3848.083
5771.625, 3865.362
5773.554, 3845.422
5775.482, 3818.308
5777.410, 3869.500
5779.339, 3877.647
5781.268, 3833.905
5783.196, 3783.811
5785.124, 3801.012
5787.053, 3816.764
5788.981, 3795.574
5790.910, 3784.523
5792.838, 3831.756
5794.767, 3787.082
5796.695, 3787.782
5798.624, 3820.193
5800.552, 3837.930
5802.480, 3757.010
5804.409, 3727.121
5806.337, 3754.304
5808.266, 3782.812
5810.194, 3723.810
5812.123, 3747.413
5814.051, 3729.847
5815.979, 3706.896
5817.908, 3753.353
5819.837, 3789.480
5821.765, 3768.204
5823.693, 3730.423
5825.622, 3713.417
5827.551, 3739.730
5829.479, 3699.091
5831.407, 3698.620
5833.336, 3737.628
5835.265, 3705.521
5837.193, 3679.003
5839.121, 3674.557
5841.050, 3681.299
5842.979, 3683.348
5844.907, 3656.239
5846.835, 3702.794
5848.764, 3710.610
5850.692, 3654.532
5852.621, 3690.240
5854.549, 3612.682
5856.478, 3587.925
5858.406, 3636.979
5860.334, 3696.577
5862.263, 3669.812
5864.191, 3635.423
5866.120, 3630.644
5868.048, 3650.714
5869.977, 3623.744
5871.905, 3664.701
5873.834, 3678.431
5875.762, 3647.902
5877.690, 3615.933
5879.619, 3619.196
5881.548, 3579.233
5883.476, 3575.753
5885.404, 3643.678
5887.333, 3626.357
5889.262, 3603.842
5891.190, 3607.830
5893.118, 3616.919
5895.047, 3585.203
5896.976, 3575.388
5898.904, 3600.621
5900.832, 3623.526
5902.761, 3612.842
5904.689, 3541.995
5906.618, 3518.241
5908.546, 3522.004
5910.475, 3540.905
5912.403, 3574.779
5914.332, 3527.125
5916.260, 3529.748
5918.188, 3542.887
5920.117, 3537.381
5922.045, 3548.551
5923.974, 3525.080
5925.902, 3510.788
5927.831, 3528.796
5929.759, 3577.456
5931.688, 3561.676
5933.616, 3528.985
5935.545, 3521.304
5937.473, 3525.732
5939.401, 3494.626
5941.330, 3530.204
5943.259, 3519.446
5945.187, 3504.676
5947.115, 3511.353
5949.044, 3452.202
5950.973, 3452.175
5952.901, 3449.122
5954.829, 3447.828
5956.758, 3469.547
5958.687, 3428.899
5960.615, 3452.169
5962.543, 3469.487
5964.472, 3443.677
5966.400, 3392.171
5968.329, 3392.318
5970.257, 3457.244
5972.186, 3476.396
5974.114, 3439.691
5976.042, 3512.502
5977.971, 3557.592
5979.899, 3517.216
5981.828, 3459.633
5983.756, 3441.557
5985.685, 3400.153
5987.613, 3386.542
5989.542, 3380.135
5991.470, 3359.096
5993.398, 3320.159
5995.327, 3360.240
5997.256, 3345.960
5999.184, 3323.598
6001.112, 3332.922
6003.041, 3384.079
6004.970, 3357.707
6006.898, 3309.292
6008.826, 3331.551
6010.755, 3389.200
6012.684, 3311.365
6014.612, 3348.188
6016.540, 3341.427
6018.469, 3332.648
6020.397, 3358.098
6022.326, 3391.967
6024.254, 3374.746
6026.183, 3339.879
6028.111, 3307.011
6030.040, 3294.083
6031.968, 3345.318
6033.896, 3359.590
6035.825, 3347.385
6037.753, 3309.204
6039.682, 3259.575
6041.610, 3263.143
6043.539, 3238.216
6045.467, 3228.695
6047.396, 3249.758
6049.324, 3289.124
6051.253, 3307.546
6053.181, 3277.057
6055.109, 3289.686
6057.038, 3283.237
6058.967, 3220.451
6060.895, 3257.365
6062.823, 3252.145
6064.752, 3266.240
6066.681, 3263.585
6068.609, 3218.717
6070.537, 3211.810
6072.466, 3168.205
6074.395, 3224.671
6076.323, 3242.010
6078.251, 3148.763
6080.180, 3164.836
6082.108, 3165.214
6084.037, 3187.344
6085.965, 3187.344
6087.894, 3164.459
6089.822, 3228.811
6091.750, 3257.952
6093.679, 3221.563
6095.607, 3169.727
6097.536, 3145.170
6099.464, 3168.208
6101.393, 3119.436
6103.321, 3172.727
6105.250, 3196.255
6107.178, 3166.747
6109.106, 3207.565
6111.035, 3155.755
6112.964, 3172.916
6114.892, 3150.100
6116.820, 3100.344
6118.749, 3119.894
6120.678, 3118.049
6122.606, 3160.261
6124.534, 3135.014
6126.463, 3097.927
6128.392, 3131.748
6130.320, 3137.192
6132.248, 3105.597
6134.177, 3095.460
6136.105, 3086.878
6138.034, 3070.594
6139.962, 3115.777
6141.891, 3069.471
6143.819, 3108.290
6145.748, 3157.687
6147.676, 3143.299
6149.604, 3050.081
6151.533, 3106.742
6153.461, 3078.829
6155.390, 3073.333
6157.318, 3101.653
6159.247, 3105.892
6161.175, 3062.610
6163.104, 3073.576
6165.032, 3070.921
6166.961, 3064.761
6168.889, 3072.196
6170.817, 3071.047
6172.746, 3043.870
6174.675, 3071.998
6176.603, 3064.719
6178.531, 3018.910
6180.460, 3004.793
6182.389, 2998.416
6184.317, 2990.670
6186.245, 3026.531
6188.174, 3063.254
6190.103, 3062.928
6192.031, 3060.232
6193.959, 3016.600
6195.888, 2950.099
6197.816, 2953.668
6199.745, 2997.074
6201.673, 2983.712
6203.602, 2997.350
6205.530, 3033.575
6207.458, 3031.503
6209.387, 3003.637
6211.315, 2989.387
6213.244, 3012.919
6215.172, 2947.607
6217.101, 2981.051
6219.029, 3015.181
6220.958, 2999.533
6222.886, 2964.898
6224.814, 2960.435
6226.743, 2955.216
6228.672, 2945.551
6230.600, 2926.978
6232.528, 2924.646
6234.457, 2976.519
6236.386, 2960.565
6238.314, 2966.696
6240.242, 2946.103
6242.171, 2900.473
6244.100, 2871.586
6246.028, 2914.227
6247.956, 2899.408
6249.885, 2860.879
6251.813, 2861.419
6253.742, 2888.824
6255.670, 2903.296
6257.599, 2925.415
6259.527, 2879.212
6261.456, 2824.146
6263.384, 2827.768
6265.313, 2861.698
6267.241, 2856.300
6269.169, 2907.104
6271.098, 2856.241
6273.026, 2797.820
6274.955, 2821.652
6276.883, 2870.328
6278.812, 2815.773
6280.740, 2836.666
6282.669, 2885.645
6284.597, 2854.507
6286.525, 2838.763
6288.454, 2852.685
6290.383, 2794.628
6292.311, 2844.429
6294.239, 2852.725
6296.168, 2843.829
6298.097, 2804.842
6300.025, 2766.001
6301.953, 2802.748
6303.882, 2822.729
6305.811, 2782.454
6307.739, 2743.112
6309.667, 2745.798
6311.596, 2777.631
6313.524, 2786.666
6315.453, 2711.737
6317.381, 2777.375
6319.310, 2810.116
6321.238, 2768.523
6323.167, 2732.554
6325.095, 2798.865
6327.023, 2767.610
6328.952, 2777.940
6330.880, 2753.794
6332.809, 2749.399
6334.737, 2760.357
6336.666, 2722.775
6338.594, 2691.227
6340.522, 2721.055
6342.451, 2730.137
6344.380, 2742.692
6346.308, 2736.276
6348.236, 2684.061
6350.165, 2666.667
6352.094, 2696.046
6354.022, 2679.132
6355.950, 2672.721
6357.879, 2671.638
6359.808, 2663.437
6361.736, 2696.279
6363.664, 2698.341
6365.593, 2667.642
6367.521, 2686.334
6369.450, 2687.339
6371.378, 2659.680
6373.307, 2694.222
6375.235, 2715.454
6377.164, 2698.062
6379.092, 2691.395
6381.021, 2693.340
6382.949, 2679.135
6384.877, 2645.844
6386.806, 2652.019
6388.734, 2639.893
6390.663, 2657.160
6392.591, 2683.593
6394.520, 2663.693
6396.448, 2606.860
6398.377, 2591.700
6400.305, 2622.246
6402.233, 2641.257
6404.162, 2643.939
6406.091, 2640.237
6408.019, 2628.370
6409.947, 2610.969
6411.876, 2619.037
6413.805, 2645.254
6415.733, 2636.083
6417.661, 2656.087
6419.590, 2622.862
6421.519, 2574.095
6423.447, 2645.544
6425.375, 2648.772
6427.304, 2592.594
6429.232, 2575.928
6431.161, 2602.719
6433.089, 2598.106
6435.018, 2553.616
6436.946, 2556.061
6438.875, 2591.695
6440.803, 2586.518
6442.731, 2620.289
6444.660, 2621.614
6446.588, 2587.991
6448.517, 2553.531
6450.445, 2516.424
6452.374, 2599.026
6454.302, 2520.379
6456.230, 2550.784
6458.159, 2572.512
6460.088, 2540.350
6462.016, 2527.225
6463.944, 2566.411
6465.873, 2590.843
6467.802, 2539.433
6469.730, 2507.032
6471.658, 2538.428
6473.587, 2563.012
6475.516, 2536.733
6477.444, 2540.673
6479.372, 2491.162
6481.301, 2474.903
6483.229, 2460.240
6485.158, 2502.319
6487.086, 2532.677
6489.015, 2494.595
6490.943, 2480.791
6492.872, 2487.947
6494.800, 2469.398
6496.729, 2460.224
6498.657, 2521.314
6500.585, 2564.388
6502.514, 2525.688
6504.442, 2475.798
6506.371, 2491.409
6508.299, 2498.887
6510.228, 2487.929
6512.156, 2420.992
6514.085, 2440.642
6516.013, 2502.620
6517.941, 2448.758
6519.870, 2491.801
6521.799, 2463.688
6523.727, 2445.901
6525.655, 2425.650
6527.584, 2445.549
6529.513, 2446.551
6531.441, 2397.251
6533.369, 2410.547
6535.298, 2408.076
6537.227, 2448.448
6539.155, 2457.545
6541.083, 2381.854
6543.012, 2355.911
6544.940, 2401.829
6546.869, 2410.971
6548.797, 2428.242
6550.726, 2404.141
6552.654, 2369.051
6554.583, 2373.791
6556.511, 2364.448
6558.439, 2360.116
6560.368, 2372.326
6562.296, 2357.548
6564.225, 2412.024
6566.153, 2341.510
6568.082, 2327.614
6570.010, 2332.064
6571.938, 2366.347
6573.867, 2364.109
##END=



