##NAMES=Halite
##RRUFFID=R070586
##IDEAL CHEMISTRY=NaCl
##LOCALITY=Heringen, Werra Valley, Hesse, Germany
##OWNER=RRUFF
##SOURCE=James Shigley
##DESCRIPTION=Colorless to blue-tinted crystal fragments
##STATUS=The identification of this mineral has been confirmed by X-ray diffraction and chemical analysis
##URL=https://www.rruff.net/odr/rruff_sample/R070586
##MEASURED CHEMISTRY=Na_1.00_Cl_1.00_
##DIFFRACTION SAMPLE DESCRIPTION=Powder
##CELL PARAMETERS=a: 5.6429 b: 5.6429 c: 5.6429 alpha: 90 beta: 90 gamma: 90 volume: 179.68 crystal system: cubic
##FILETYPE=Raman Processed
##RAMAN WAVELENGTH=780

362.3828, 1905.487
364.3113, 1846.074
366.2398, 1759.270
368.1682, 1695.971
370.0967, 1661.409
372.0252, 1629.088
373.9536, 1595.870
375.8821, 1566.344
377.8106, 1546.374
379.7390, 1527.326
381.6675, 1498.974
383.5960, 1465.901
385.5245, 1449.577
387.4529, 1453.414
389.3814, 1451.210
391.3099, 1436.993
393.2383, 1426.150
395.1668, 1428.727
397.0953, 1432.727
399.0237, 1429.973
400.9522, 1423.271
402.8807, 1421.440
404.8091, 1424.935
406.7376, 1416.498
408.6661, 1389.912
410.5945, 1374.963
412.5230, 1391.106
414.4515, 1404.600
416.3799, 1395.406
418.3084, 1379.087
420.2369, 1375.660
422.1653, 1382.378
424.0938, 1380.962
426.0223, 1370.354
427.9507, 1367.068
429.8792, 1379.435
431.8077, 1387.193
433.7361, 1380.318
435.6646, 1370.470
437.5931, 1366.219
439.5215, 1363.317
441.4500, 1353.177
443.3785, 1337.276
445.3069, 1323.808
447.2354, 1312.564
449.1639, 1306.859
451.0923, 1312.861
453.0208, 1317.499
454.9493, 1313.681
456.8777, 1308.251
458.8062, 1308.355
460.7347, 1312.719
462.6631, 1318.750
464.5916, 1325.968
466.5201, 1325.490
468.4485, 1312.928
470.3770, 1302.905
472.3055, 1298.409
474.2339, 1297.417
476.1624, 1302.471
478.0909, 1308.033
480.0193, 1306.913
481.9478, 1301.341
483.8763, 1299.400
485.8047, 1301.301
487.7332, 1295.282
489.6617, 1272.664
491.5901, 1259.195
493.5186, 1264.357
495.4471, 1272.269
497.3755, 1280.153
499.3040, 1284.419
501.2325, 1279.777
503.1609, 1270.103
505.0894, 1261.801
507.0179, 1254.891
508.9464, 1248.876
510.8748, 1243.292
512.8033, 1239.323
514.7318, 1235.256
516.6602, 1235.788
518.5887, 1250.261
520.5172, 1260.784
522.4456, 1247.568
524.3741, 1226.647
526.3026, 1220.090
528.2310, 1225.909
530.1595, 1232.031
532.0880, 1239.382
534.0164, 1243.095
535.9449, 1241.009
537.8734, 1238.004
539.8018, 1233.621
541.7303, 1230.606
543.6588, 1229.583
545.5872, 1230.701
547.5157, 1237.468
549.4442, 1246.100
551.3726, 1245.597
553.3011, 1235.079
555.2296, 1226.407
557.1580, 1217.797
559.0865, 1214.474
561.0150, 1222.764
562.9434, 1225.289
564.8719, 1210.556
566.8004, 1197.379
568.7288, 1198.906
570.6573, 1206.679
572.5858, 1215.742
574.5142, 1224.791
576.4427, 1227.014
578.3712, 1221.527
580.2996, 1216.577
582.2281, 1210.705
584.1566, 1207.729
586.0850, 1211.082
588.0135, 1211.618
589.9420, 1201.889
591.8704, 1194.263
593.7989, 1198.180
595.7274, 1206.283
597.6558, 1214.049
599.5843, 1220.005
601.5128, 1218.871
603.4412, 1210.833
605.3697, 1202.153
607.2982, 1190.937
609.2266, 1190.036
611.1551, 1206.059
613.0836, 1214.334
615.0120, 1202.560
616.9405, 1191.388
618.8690, 1193.985
620.7974, 1197.204
622.7259, 1189.143
624.6544, 1178.327
626.5828, 1178.046
628.5113, 1186.074
630.4398, 1190.812
632.3682, 1191.574
634.2967, 1196.606
636.2252, 1207.661
638.1536, 1213.750
640.0821, 1210.625
642.0106, 1208.845
643.9390, 1215.222
645.8675, 1218.685
647.7960, 1212.492
649.7244, 1204.325
651.6529, 1198.001
653.5814, 1193.987
655.5098, 1196.259
657.4383, 1202.594
659.3668, 1202.635
661.2952, 1197.429
663.2237, 1194.593
665.1522, 1194.281
667.0806, 1196.190
669.0091, 1202.447
670.9376, 1204.940
672.8660, 1198.670
674.7945, 1192.020
676.7230, 1184.666
678.6514, 1181.846
680.5799, 1190.119
682.5084, 1200.671
684.4368, 1203.900
686.3653, 1203.488
688.2938, 1207.543
690.2222, 1213.921
692.1507, 1213.919
694.0792, 1207.434
696.0076, 1201.016
697.9361, 1195.052
699.8646, 1192.849
701.7930, 1197.277
703.7215, 1199.117
705.6500, 1194.427
707.5784, 1192.203
709.5069, 1198.349
711.4354, 1202.405
713.3638, 1196.168
715.2923, 1187.828
717.2208, 1182.192
719.1492, 1181.213
721.0777, 1193.057
723.0062, 1209.540
724.9346, 1206.921
726.8631, 1188.383
728.7916, 1185.602
730.7200, 1203.132
732.6485, 1211.199
734.5770, 1201.510
736.5054, 1197.528
738.4339, 1208.204
740.3624, 1212.538
742.2908, 1199.301
744.2193, 1190.473
746.1478, 1200.141
748.0762, 1208.444
750.0047, 1200.208
751.9332, 1189.250
753.8617, 1188.320
755.7902, 1190.832
757.7186, 1189.817
759.6471, 1186.280
761.5756, 1180.095
763.5040, 1172.604
765.4325, 1174.848
767.3610, 1188.037
769.2894, 1191.874
771.2179, 1181.563
773.1464, 1178.244
775.0748, 1185.727
777.0033, 1190.389
778.9318, 1189.530
780.8602, 1189.421
782.7887, 1192.068
784.7172, 1194.024
786.6456, 1194.374
788.5741, 1193.375
790.5026, 1189.273
792.4310, 1186.025
794.3595, 1187.793
796.2880, 1190.542
798.2164, 1190.084
800.1449, 1187.763
802.0734, 1185.061
804.0018, 1182.752
805.9303, 1183.022
807.8588, 1185.488
809.7872, 1188.340
811.7157, 1191.571
813.6442, 1191.814
815.5726, 1188.707
817.5011, 1187.799
819.4296, 1189.317
821.3580, 1193.535
823.2865, 1201.950
825.2150, 1205.621
827.1434, 1200.589
829.0719, 1197.899
831.0004, 1202.064
832.9288, 1205.840
834.8573, 1208.671
836.7858, 1206.992
838.7142, 1196.091
840.6427, 1184.814
842.5712, 1177.198
844.4996, 1172.307
846.4281, 1168.808
848.3566, 1168.322
850.2850, 1173.642
852.2135, 1182.403
854.1420, 1193.377
856.0704, 1203.831
857.9989, 1207.360
859.9274, 1205.394
861.8558, 1201.475
863.7843, 1196.407
865.7128, 1193.663
867.6412, 1193.148
869.5697, 1193.032
871.4982, 1193.374
873.4266, 1198.601
875.3551, 1209.613
877.2836, 1211.548
879.2120, 1201.079
881.1405, 1190.970
883.0690, 1180.752
884.9974, 1179.265
886.9259, 1196.345
888.8544, 1203.840
890.7828, 1185.883
892.7113, 1175.128
894.6398, 1181.927
896.5682, 1190.500
898.4967, 1198.668
900.4252, 1203.813
902.3536, 1202.253
904.2821, 1200.916
906.2106, 1207.060
908.1390, 1210.223
910.0675, 1200.388
911.9960, 1188.302
913.9244, 1181.497
915.8529, 1177.894
917.7814, 1174.773
919.7098, 1174.396
921.6383, 1180.968
923.5668, 1190.332
925.4952, 1200.192
927.4237, 1206.897
929.3522, 1200.969
931.2806, 1189.794
933.2091, 1190.395
935.1376, 1197.299
937.0660, 1193.073
938.9945, 1182.008
940.9230, 1183.820
942.8514, 1195.894
944.7799, 1196.955
946.7084, 1187.732
948.6368, 1186.700
950.5653, 1194.229
952.4938, 1194.489
954.4222, 1185.746
956.3507, 1188.870
958.2792, 1208.186
960.2076, 1210.414
962.1361, 1187.180
964.0646, 1184.875
965.9930, 1215.113
967.9215, 1224.990
969.8500, 1206.711
971.7784, 1196.548
973.7069, 1198.238
975.6354, 1198.096
977.5638, 1194.282
979.4923, 1191.783
981.4208, 1190.472
983.3492, 1194.151
985.2777, 1206.368
987.2062, 1210.572
989.1346, 1200.762
991.0631, 1195.659
992.9916, 1201.157
994.9200, 1202.207
996.8485, 1193.060
998.7770, 1188.718
1000.705, 1195.126
1002.634, 1198.060
1004.562, 1190.370
1006.491, 1191.234
1008.419, 1211.578
1010.348, 1223.895
1012.276, 1216.382
1014.205, 1209.121
1016.133, 1207.495
1018.062, 1209.821
1019.990, 1219.262
1021.919, 1223.096
1023.847, 1213.509
1025.776, 1206.162
1027.704, 1207.438
1029.632, 1209.535
1031.561, 1210.475
1033.489, 1210.897
1035.418, 1209.852
1037.346, 1209.605
1039.275, 1210.256
1041.203, 1212.883
1043.132, 1223.802
1045.060, 1228.159
1046.989, 1210.883
1048.917, 1201.968
1050.846, 1222.872
1052.774, 1235.170
1054.703, 1218.559
1056.631, 1203.191
1058.559, 1198.644
1060.488, 1197.974
1062.416, 1202.457
1064.345, 1204.741
1066.273, 1201.234
1068.202, 1196.996
1070.130, 1189.813
1072.059, 1188.201
1073.987, 1198.659
1075.916, 1208.166
1077.844, 1214.802
1079.773, 1218.127
1081.701, 1215.049
1083.630, 1212.719
1085.558, 1200.292
1087.486, 1214.396
1089.415, 1222.423
1091.343, 1224.697
1093.272, 1203.992
1095.200, 1212.960
1097.129, 1210.037
1099.057, 1206.626
1100.986, 1219.771
1102.914, 1202.408
1104.843, 1215.290
1106.771, 1216.099
1108.700, 1222.433
1110.628, 1216.802
1112.557, 1214.868
1114.485, 1224.901
1116.413, 1228.308
1118.342, 1221.300
1120.270, 1227.986
1122.199, 1210.205
1124.127, 1213.894
1126.056, 1226.846
1127.984, 1220.440
1129.913, 1227.344
1131.841, 1222.228
1133.770, 1224.872
1135.698, 1223.462
1137.627, 1227.732
1139.555, 1237.927
1141.484, 1241.383
1143.412, 1238.030
1145.340, 1240.437
1147.269, 1247.783
1149.197, 1247.986
1151.126, 1242.136
1153.054, 1232.528
1154.983, 1222.092
1156.911, 1226.830
1158.840, 1239.479
1160.768, 1241.356
1162.697, 1235.989
1164.625, 1224.212
1166.554, 1211.223
1168.482, 1207.898
1170.411, 1211.620
1172.339, 1223.570
1174.267, 1234.371
1176.196, 1228.132
1178.124, 1219.864
1180.053, 1227.282
1181.981, 1236.579
1183.910, 1235.151
1185.838, 1231.708
1187.767, 1232.365
1189.695, 1233.690
1191.624, 1232.259
1193.552, 1232.731
1195.481, 1241.196
1197.409, 1244.481
1199.338, 1233.185
1201.266, 1228.594
1203.194, 1239.536
1205.123, 1246.720
1207.051, 1244.540
1208.980, 1245.311
1210.908, 1251.433
1212.837, 1257.257
1214.765, 1262.734
1216.694, 1263.240
1218.622, 1258.219
1220.551, 1255.727
1222.479, 1256.123
1224.408, 1252.323
1226.336, 1245.500
1228.265, 1249.524
1230.193, 1260.881
1232.121, 1261.822
1234.050, 1255.936
1235.978, 1253.162
1237.907, 1253.133
1239.835, 1255.872
1241.764, 1259.917
1243.692, 1264.845
1245.621, 1269.982
1247.549, 1273.596
1249.478, 1273.234
1251.406, 1267.008
1253.335, 1262.378
1255.263, 1262.543
1257.192, 1264.200
1259.120, 1265.597
1261.048, 1269.210
1262.977, 1278.557
1264.905, 1282.699
1266.834, 1278.657
1268.762, 1275.788
1270.691, 1272.496
1272.619, 1277.648
1274.548, 1292.803
1276.476, 1299.680
1278.405, 1299.413
1280.333, 1290.956
1282.262, 1277.074
1284.190, 1279.400
1286.119, 1292.147
1288.047, 1299.668
1289.975, 1304.262
1291.904, 1314.522
1293.832, 1322.157
1295.761, 1315.030
1297.689, 1303.577
1299.618, 1292.361
1301.546, 1288.324
1303.475, 1298.035
1305.403, 1308.347
1307.332, 1313.315
1309.260, 1319.064
1311.189, 1329.563
1313.117, 1335.135
1315.046, 1332.853
1316.974, 1331.082
1318.902, 1330.086
1320.831, 1335.613
1322.759, 1345.892
1324.688, 1350.122
1326.616, 1350.699
1328.545, 1349.991
1330.473, 1349.365
1332.402, 1355.208
1334.330, 1356.826
1336.259, 1337.698
1338.187, 1323.369
1340.116, 1335.339
1342.044, 1345.042
1343.973, 1340.214
1345.901, 1335.205
1347.829, 1334.495
1349.758, 1336.430
1351.686, 1339.828
1353.615, 1340.622
1355.543, 1339.911
1357.472, 1338.302
1359.400, 1334.403
1361.329, 1335.387
1363.257, 1339.381
1365.186, 1337.360
1367.114, 1334.263
1369.043, 1337.169
1370.971, 1338.917
1372.900, 1330.421
1374.828, 1320.381
1376.756, 1317.587
1378.685, 1316.726
1380.613, 1313.291
1382.542, 1307.664
1384.470, 1301.079
1386.399, 1297.349
1388.327, 1296.391
1390.256, 1296.426
1392.184, 1297.647
1394.113, 1295.446
1396.041, 1293.116
1397.970, 1298.894
1399.898, 1306.925
1401.827, 1314.683
1403.755, 1320.373
1405.683, 1318.258
1407.612, 1314.904
1409.540, 1315.219
1411.469, 1312.244
1413.397, 1304.509
1415.326, 1305.023
1417.254, 1310.981
1419.183, 1313.948
1421.111, 1315.285
1423.040, 1307.029
1424.968, 1292.784
1426.897, 1291.534
1428.825, 1298.187
1430.754, 1306.078
1432.682, 1310.086
1434.610, 1300.004
1436.539, 1290.002
1438.467, 1287.285
1440.396, 1288.445
1442.324, 1297.031
1444.253, 1300.780
1446.181, 1296.419
1448.110, 1291.576
1450.038, 1287.825
1451.967, 1288.363
1453.895, 1289.643
1455.824, 1283.030
1457.752, 1273.026
1459.681, 1267.441
1461.609, 1265.832
1463.537, 1265.431
1465.466, 1267.002
1467.394, 1269.757
1469.323, 1270.200
1471.251, 1272.122
1473.180, 1270.408
1475.108, 1265.021
1477.037, 1269.163
1478.965, 1277.919
1480.894, 1285.537
1482.822, 1285.418
1484.751, 1264.786
1486.679, 1253.655
1488.608, 1270.157
1490.536, 1278.007
1492.464, 1263.149
1494.393, 1258.154
1496.322, 1270.950
1498.250, 1271.921
1500.178, 1261.346
1502.107, 1253.171
1504.035, 1249.000
1505.964, 1262.476
1507.892, 1275.811
1509.821, 1264.627
1511.749, 1257.811
1513.678, 1271.315
1515.606, 1276.742
1517.535, 1263.330
1519.463, 1254.046
1521.392, 1252.214
1523.320, 1250.770
1525.249, 1254.086
1527.177, 1260.385
1529.105, 1263.038
1531.034, 1263.375
1532.962, 1259.577
1534.891, 1243.708
1536.819, 1230.788
1538.748, 1224.412
1540.676, 1223.858
1542.605, 1229.972
1544.533, 1235.648
1546.462, 1237.824
1548.390, 1243.944
1550.319, 1249.267
1552.247, 1245.414
1554.176, 1242.619
1556.104, 1241.684
1558.032, 1241.520
1559.961, 1242.936
1561.889, 1246.948
1563.818, 1254.924
1565.746, 1255.024
1567.675, 1248.070
1569.603, 1247.173
1571.532, 1251.893
1573.460, 1251.457
1575.389, 1245.083
1577.317, 1238.962
1579.246, 1235.092
1581.174, 1228.663
1583.103, 1228.209
1585.031, 1232.447
1586.959, 1231.622
1588.888, 1230.896
1590.816, 1227.542
1592.745, 1225.452
1594.673, 1236.252
1596.602, 1246.074
1598.530, 1244.528
1600.459, 1235.795
1602.387, 1226.724
1604.316, 1227.052
1606.244, 1226.442
1608.173, 1219.143
1610.101, 1217.729
1612.030, 1223.664
1613.958, 1222.603
1615.886, 1214.315
1617.815, 1213.421
1619.743, 1215.032
1621.672, 1200.481
1623.600, 1182.179
1625.529, 1193.653
1627.457, 1214.169
1629.386, 1209.478
1631.314, 1204.119
1633.243, 1216.184
1635.171, 1215.801
1637.100, 1201.116
1639.028, 1196.685
1640.957, 1192.916
1642.885, 1190.690
1644.813, 1190.304
1646.742, 1190.060
1648.670, 1191.497
1650.599, 1188.399
1652.527, 1188.936
1654.456, 1191.467
1656.384, 1184.224
1658.313, 1174.919
1660.241, 1172.147
1662.170, 1173.540
1664.098, 1185.510
1666.027, 1188.896
1667.955, 1176.300
1669.884, 1172.632
1671.812, 1177.837
1673.740, 1176.302
1675.669, 1168.465
1677.597, 1172.916
1679.526, 1180.403
1681.454, 1179.398
1683.383, 1179.671
1685.311, 1177.675
1687.240, 1176.825
1689.168, 1182.226
1691.097, 1186.002
1693.025, 1180.132
1694.954, 1164.847
1696.882, 1161.885
1698.811, 1177.352
1700.739, 1179.431
1702.667, 1170.075
1704.596, 1169.682
1706.524, 1174.909
1708.453, 1179.834
1710.381, 1175.454
1712.310, 1172.861
1714.238, 1182.979
1716.167, 1191.301
1718.095, 1180.195
1720.024, 1162.297
1721.952, 1153.478
1723.881, 1146.883
1725.809, 1146.116
1727.738, 1149.727
1729.666, 1156.453
1731.594, 1156.382
1733.523, 1151.736
1735.451, 1148.802
1737.380, 1144.472
1739.308, 1149.043
1741.237, 1149.890
1743.165, 1139.215
1745.094, 1129.436
1747.022, 1120.360
1748.951, 1113.865
1750.879, 1116.476
1752.808, 1119.215
1754.736, 1119.648
1756.665, 1118.398
1758.593, 1112.648
1760.521, 1112.599
1762.450, 1119.747
1764.378, 1118.867
1766.307, 1115.247
1768.235, 1115.943
1770.164, 1105.574
1772.092, 1097.658
1774.021, 1105.737
1775.949, 1109.732
1777.878, 1105.218
1779.806, 1098.760
1781.735, 1097.527
1783.663, 1101.499
1785.592, 1100.368
1787.520, 1096.030
1789.448, 1093.822
1791.377, 1094.354
1793.305, 1092.698
1795.234, 1087.787
1797.162, 1092.851
1799.091, 1095.360
1801.019, 1082.676
1802.948, 1075.371
1804.876, 1075.513
1806.805, 1074.783
1808.733, 1073.622
1810.662, 1076.906
1812.590, 1084.170
1814.519, 1084.869
1816.447, 1076.815
1818.375, 1065.456
1820.304, 1065.473
1822.232, 1069.959
1824.161, 1075.394
1826.089, 1079.572
1828.018, 1062.470
1829.946, 1050.635
1831.875, 1056.004
1833.803, 1061.992
1835.732, 1067.007
1837.660, 1064.663
1839.589, 1054.041
1841.517, 1049.674
1843.446, 1054.443
1845.374, 1054.315
1847.302, 1051.501
1849.231, 1052.046
1851.159, 1049.616
1853.088, 1047.254
1855.016, 1045.305
1856.945, 1046.132
1858.873, 1051.464
1860.802, 1047.235
1862.730, 1032.345
1864.659, 1021.542
1866.587, 1014.350
1868.516, 1002.882
1870.444, 1005.349
1872.373, 1013.910
1874.301, 1016.511
1876.229, 1016.025
1878.158, 1008.478
1880.086, 1009.991
1882.015, 1016.264
1883.943, 1008.029
1885.872, 1003.930
1887.800, 1009.054
1889.729, 1004.812
1891.657, 998.3958
1893.586, 1004.412
1895.514, 1010.074
1897.443, 1008.175
1899.371, 1004.052
1901.300, 987.6438
1903.228, 971.3898
1905.156, 967.7138
1907.085, 975.9629
1909.013, 979.7601
1910.942, 974.3560
1912.870, 971.8747
1914.799, 967.7362
1916.727, 968.6649
1918.656, 974.9938
1920.584, 970.4127
1922.513, 965.5269
1924.441, 959.5344
1926.370, 956.1608
1928.298, 958.6119
1930.227, 955.2686
1932.155, 953.3094
1934.083, 964.5101
1936.012, 966.6159
1937.940, 955.2325
1939.869, 947.9294
1941.797, 944.7053
1943.726, 946.1904
1945.654, 951.1074
1947.583, 958.4138
1949.511, 947.8912
1951.440, 932.4787
1953.368, 939.7729
1955.297, 944.8069
1957.225, 939.3576
1959.154, 938.9984
1961.082, 939.1044
1963.010, 925.8869
1964.939, 913.5665
1966.867, 920.5793
1968.796, 929.2967
1970.724, 927.2488
1972.653, 925.1876
1974.581, 928.7755
1976.510, 922.9447
1978.438, 912.5947
1980.367, 907.7596
1982.295, 907.5228
1984.224, 909.5203
1986.152, 914.4891
1988.081, 913.2488
1990.009, 899.6188
1991.938, 889.3705
1993.866, 886.6190
1995.794, 893.3686
1997.723, 897.7820
1999.651, 889.9762
2001.580, 888.8671
2003.508, 889.7137
2005.437, 880.9902
2007.365, 875.5162
2009.294, 883.0413
2011.222, 883.9131
2013.151, 883.4482
2015.079, 880.2974
2017.008, 867.9554
2018.936, 866.0363
2020.865, 869.0441
2022.793, 866.1734
2024.721, 860.8677
2026.650, 858.8995
2028.578, 860.5590
2030.507, 861.6689
2032.435, 859.8581
2034.364, 852.4622
2036.292, 845.0192
2038.221, 845.2289
2040.149, 846.5754
2042.078, 848.7691
2044.006, 848.1873
2045.935, 841.9941
2047.863, 841.8677
2049.792, 840.7170
2051.720, 831.4713
2053.648, 828.9164
2055.577, 828.4843
2057.505, 822.8552
2059.434, 818.4668
2061.362, 814.4901
2063.291, 812.0291
2065.219, 811.8026
2067.148, 811.6399
2069.076, 808.2338
2071.005, 803.2574
2072.933, 801.7314
2074.862, 802.5441
2076.790, 797.1615
2078.719, 791.5099
2080.647, 790.4627
2082.575, 791.7493
2084.504, 792.4064
2086.432, 788.1769
2088.361, 782.3799
2090.289, 774.8010
2092.218, 770.8524
2094.146, 772.4421
2096.075, 783.2888
2098.003, 790.7701
2099.932, 789.8268
2101.860, 781.9760
2103.789, 768.6417
2105.717, 766.7221
2107.646, 768.2789
2109.574, 763.9662
2111.502, 762.4567
2113.431, 762.4595
2115.359, 758.2730
2117.288, 755.1119
2119.216, 754.7851
2121.145, 752.1085
2123.073, 749.0068
2125.002, 753.2047
2126.930, 751.8210
2128.859, 743.4623
2130.787, 740.4466
2132.716, 737.9595
2134.644, 737.6531
2136.573, 732.9464
2138.501, 721.4465
2140.429, 723.5385
2142.358, 730.3719
2144.286, 735.6561
2146.215, 732.8802
2148.143, 722.0096
2150.072, 713.0648
2152.000, 705.1567
2153.929, 700.9589
2155.857, 702.5308
2157.786, 707.8903
2159.714, 701.8771
2161.643, 697.2949
2163.571, 701.4180
2165.500, 705.8157
2167.428, 706.5995
2169.356, 699.2507
2171.285, 693.0103
2173.213, 686.7880
2175.142, 685.1306
2177.070, 685.8609
2178.999, 683.9683
2180.927, 689.5692
2182.856, 701.7246
2184.784, 692.1552
2186.713, 679.0660
2188.641, 678.3687
2190.570, 673.4091
2192.498, 666.9572
2194.427, 670.4045
2196.355, 674.3741
2198.283, 672.7493
2200.212, 674.3509
2202.140, 677.1883
2204.069, 667.5933
2205.997, 660.0613
2207.926, 663.4782
2209.854, 659.0194
2211.783, 656.5781
2213.711, 678.1688
2215.640, 677.9739
2217.568, 658.1591
2219.497, 654.6401
2221.425, 650.8408
2223.354, 640.7054
2225.282, 637.9289
2227.210, 640.0923
2229.139, 645.5351
2231.067, 643.7535
2232.996, 637.9624
2234.924, 628.9418
2236.853, 628.3949
2238.781, 645.5211
2240.710, 644.2318
2242.638, 631.1906
2244.567, 617.5637
2246.495, 610.9684
2248.424, 612.1652
2250.352, 613.8371
2252.281, 614.1026
2254.209, 610.3958
2256.137, 611.5966
2258.066, 611.5259
2259.994, 605.5761
2261.923, 604.1956
2263.851, 607.8845
2265.780, 603.9344
2267.708, 595.6186
2269.637, 577.7877
2271.565, 575.6039
2273.494, 590.4024
2275.422, 586.5725
2277.351, 582.2161
2279.279, 580.5265
2281.208, 576.5919
2283.136, 583.5367
2285.064, 600.5849
2286.993, 592.3639
2288.921, 575.9345
2290.850, 574.4821
2292.778, 574.2526
2294.707, 572.3803
2296.635, 573.1343
2298.564, 574.1005
2300.492, 575.8752
2302.421, 571.3503
2304.349, 564.5873
2306.278, 562.8234
2308.206, 563.7123
2310.135, 559.8891
2312.063, 548.8722
2313.991, 544.8413
2315.920, 550.4531
2317.848, 550.2315
2319.777, 547.7846
2321.705, 549.4223
2323.634, 550.0981
2325.562, 550.4484
2327.491, 553.9704
2329.419, 550.5847
2331.348, 536.3210
2333.276, 530.5454
2335.205, 528.7335
2337.133, 536.0306
2339.062, 538.8467
2340.990, 531.3458
2342.918, 527.4678
2344.847, 527.6607
2346.775, 525.3463
2348.704, 521.0123
2350.632, 521.6949
2352.561, 519.8849
2354.489, 513.4520
2356.418, 508.7311
2358.346, 508.9227
2360.275, 509.9103
2362.203, 512.3200
2364.132, 508.2614
2366.060, 505.2336
2367.989, 510.4140
2369.917, 508.9158
2371.845, 503.4421
2373.774, 493.6795
2375.702, 491.3828
2377.631, 495.6563
2379.559, 493.1759
2381.488, 490.1979
2383.416, 485.1987
2385.345, 486.5368
2387.273, 487.7773
2389.202, 490.1626
2391.130, 487.9357
2393.059, 479.4587
2394.987, 482.5180
2396.916, 483.5066
2398.844, 472.6796
2400.772, 476.9308
2402.701, 480.5302
2404.629, 473.3839
2406.558, 468.4031
2408.486, 467.3918
2410.415, 470.5911
2412.343, 466.6697
2414.272, 463.2815
2416.200, 465.2994
2418.129, 458.8399
2420.057, 447.8225
2421.986, 447.5050
2423.914, 452.7665
2425.843, 458.7990
2427.771, 457.0057
2429.699, 447.5294
2431.628, 447.1802
2433.556, 444.2552
2435.485, 438.0224
2437.413, 441.7704
2439.342, 446.0531
2441.270, 444.7774
2443.199, 444.9018
2445.127, 439.2141
2447.056, 429.3530
2448.984, 417.5767
2450.913, 411.1818
2452.841, 422.1270
2454.770, 427.6590
2456.698, 428.1795
2458.626, 429.5094
2460.555, 427.0497
2462.483, 428.0437
2464.412, 424.1075
2466.340, 417.8624
2468.269, 416.9572
2470.197, 414.4502
2472.126, 409.4952
2474.054, 407.4151
2475.983, 411.9657
2477.911, 408.2401
2479.840, 402.1747
2481.768, 401.3116
2483.697, 404.8477
2485.625, 408.8696
2487.553, 401.6451
2489.482, 402.5681
2491.410, 402.4477
2493.339, 398.5273
2495.267, 393.6053
2497.196, 386.2285
2499.124, 375.7367
2501.053, 379.3595
2502.981, 395.3834
2504.910, 397.1020
2506.838, 394.9379
2508.767, 387.6906
2510.695, 382.4209
2512.624, 379.8809
2514.552, 376.8731
2516.480, 372.9358
2518.409, 364.0464
2520.337, 367.1608
2522.266, 370.1159
2524.194, 361.3462
2526.123, 360.5699
2528.051, 359.6273
2529.980, 359.9244
2531.908, 362.6645
2533.837, 364.2623
2535.765, 364.3960
2537.694, 363.9199
2539.622, 364.5894
2541.551, 362.1595
2543.479, 355.6142
2545.407, 355.6481
2547.336, 351.2134
2549.264, 352.2608
2551.193, 360.0578
2553.121, 357.6395
2555.050, 355.6336
2556.978, 347.5095
2558.907, 340.8212
2560.835, 345.0131
2562.764, 348.3940
2564.692, 344.6859
2566.621, 338.9742
2568.549, 336.9617
2570.478, 340.1687
2572.406, 338.5894
2574.334, 333.2404
2576.263, 321.1470
2578.191, 319.5992
2580.120, 327.1310
2582.048, 326.1587
2583.977, 320.6691
2585.905, 321.1840
2587.834, 317.7201
2589.762, 313.9404
2591.691, 316.0996
2593.619, 319.9506
2595.548, 320.0375
2597.476, 313.2741
2599.405, 296.2549
2601.333, 296.6785
2603.261, 314.8361
2605.190, 312.0132
2607.118, 303.7605
2609.047, 303.3094
2610.975, 313.8540
2612.904, 315.8818
2614.832, 308.9346
2616.761, 294.0742
2618.689, 285.8415
2620.618, 295.9756
2622.546, 293.5542
2624.475, 293.4443
2626.403, 297.8612
2628.332, 284.6577
2630.260, 280.5387
2632.188, 291.9326
2634.117, 292.1688
2636.045, 285.1297
2637.974, 279.1694
2639.902, 275.9315
2641.831, 280.8141
2643.759, 280.1683
2645.688, 278.1497
2647.616, 282.2710
2649.545, 283.3438
2651.473, 286.4370
2653.402, 280.7425
2655.330, 266.3138
2657.259, 268.9249
2659.187, 266.4529
2661.115, 259.2540
2663.044, 266.5826
2664.972, 272.1279
2666.901, 270.0387
2668.829, 271.5429
2670.758, 266.1613
2672.686, 260.6088
2674.615, 276.2060
2676.543, 273.3557
2678.472, 257.7862
2680.400, 256.9872
2682.329, 256.6608
2684.257, 257.1043
2686.186, 252.3770
2688.114, 252.8395
2690.042, 259.0302
2691.971, 247.7076
2693.899, 247.9302
2695.828, 258.7596
2697.756, 250.2957
2699.685, 250.4101
2701.613, 251.9295
2703.542, 247.4097
2705.470, 240.7050
2707.399, 236.1113
2709.327, 237.3638
2711.256, 230.5267
2713.184, 225.4340
2715.113, 238.4518
2717.041, 237.4491
2718.969, 229.0717
2720.898, 227.0173
2722.826, 231.4844
2724.755, 229.4349
2726.683, 223.5839
2728.612, 220.0191
2730.540, 217.1480
2732.469, 217.0313
2734.397, 219.0060
2736.326, 232.3064
2738.254, 231.7947
2740.183, 223.4990
2742.111, 223.2311
2744.040, 226.2283
2745.968, 220.5602
2747.896, 207.7706
2749.825, 201.6824
2751.753, 201.9187
2753.682, 209.0892
2755.610, 214.6053
2757.539, 209.6707
2759.467, 200.0813
2761.396, 193.6618
2763.324, 197.9602
2765.253, 205.6634
2767.181, 208.2165
2769.110, 203.1430
2771.038, 191.3795
2772.967, 190.3916
2774.895, 195.6422
2776.823, 201.5821
2778.752, 195.2789
2780.680, 185.3026
2782.609, 187.1599
2784.537, 189.1250
2786.466, 188.0305
2788.394, 188.1916
2790.323, 187.3963
2792.251, 182.5440
2794.180, 178.4207
2796.108, 172.9994
2798.037, 172.3607
2799.965, 176.4726
2801.894, 173.1877
2803.822, 174.7805
2805.750, 180.9890
2807.679, 182.6669
2809.607, 175.0202
2811.536, 170.3030
2813.464, 173.8683
2815.393, 164.6927
2817.321, 161.5869
2819.250, 167.5815
2821.178, 164.2670
2823.107, 161.6835
2825.035, 167.3070
2826.964, 161.1604
2828.892, 160.5981
2830.821, 158.8027
2832.749, 155.8779
2834.677, 157.5439
2836.606, 154.8977
2838.534, 148.8510
2840.463, 157.7620
2842.391, 160.3300
2844.320, 151.8163
2846.248, 148.6182
2848.177, 151.0154
2850.105, 157.5519
2852.034, 153.1544
2853.962, 150.9878
2855.891, 150.8304
2857.819, 145.9018
2859.748, 140.5322
2861.676, 142.0666
2863.604, 147.0067
2865.533, 140.2601
2867.461, 134.4190
2869.390, 139.0991
2871.318, 141.3933
2873.247, 142.5794
2875.175, 140.5470
2877.104, 136.5517
2879.032, 143.5875
2880.961, 149.8060
2882.889, 149.3281
2884.818, 140.6154
2886.746, 131.1352
2888.675, 128.5552
2890.603, 129.9919
2892.531, 127.6736
2894.460, 127.5391
2896.388, 126.3873
2898.317, 124.7170
2900.245, 123.3062
2902.174, 124.8812
2904.102, 121.2021
2906.031, 124.0367
2907.959, 128.7968
2909.888, 128.2513
2911.816, 124.4954
2913.745, 124.2649
2915.673, 120.9909
2917.602, 121.2322
2919.530, 118.4511
2921.458, 118.3690
2923.387, 123.5330
2925.315, 110.1865
2927.244, 98.95100
2929.172, 105.5008
2931.101, 112.9576
2933.029, 112.4163
2934.958, 109.4172
2936.886, 114.0782
2938.815, 115.6485
2940.743, 113.3974
2942.672, 109.7853
2944.600, 109.2300
2946.529, 106.1407
2948.457, 107.2631
2950.385, 108.1740
2952.314, 103.1518
2954.242, 100.4923
2956.171, 106.0649
2958.099, 106.7908
2960.028, 105.8499
2961.956, 102.4123
2963.885, 105.3058
2965.813, 107.5292
2967.742, 105.4040
2969.670, 94.63644
2971.599, 95.35658
2973.527, 102.3050
2975.456, 113.6546
2977.384, 110.6668
2979.313, 102.9246
2981.241, 97.85010
2983.170, 97.47438
2985.098, 97.17719
2987.027, 98.28574
2988.955, 97.95316
2990.884, 104.9144
2992.812, 92.93413
2994.740, 81.30730
2996.669, 87.75287
2998.597, 97.15543
3000.526, 94.60171
3002.454, 88.88382
3004.383, 84.79577
3006.311, 81.64246
3008.240, 78.69139
3010.168, 76.06643
3012.097, 74.00050
3014.025, 70.88848
3015.954, 72.27849
3017.882, 84.03571
3019.811, 85.66673
3021.739, 84.08549
3023.667, 85.11427
3025.596, 80.98715
3027.524, 80.21495
3029.453, 78.10466
3031.381, 74.10727
3033.310, 68.60153
3035.238, 75.03262
3037.167, 81.30267
3039.095, 73.49391
3041.024, 74.36559
3042.952, 78.25027
3044.881, 83.85892
3046.809, 82.68806
3048.738, 77.85569
3050.666, 72.66240
3052.594, 71.16805
3054.523, 71.69125
3056.451, 68.42763
3058.380, 65.87106
3060.308, 74.38776
3062.237, 71.39027
3064.165, 64.67559
3066.094, 60.25286
3068.022, 67.05300
3069.951, 67.13737
3071.879, 68.27772
3073.808, 71.95317
3075.736, 57.36946
3077.665, 51.17797
3079.593, 63.42679
3081.521, 82.45290
3083.450, 77.67225
3085.378, 68.91144
3087.307, 57.00458
3089.235, 61.24303
3091.164, 64.17906
3093.092, 62.31659
3095.021, 59.77877
3096.949, 70.69057
3098.878, 72.34769
3100.806, 68.62607
3102.735, 63.35933
3104.663, 59.08173
3106.592, 53.19921
3108.520, 55.32061
3110.448, 65.65029
3112.377, 58.18086
3114.305, 51.34354
3116.234, 52.46957
3118.162, 66.49594
3120.091, 63.92902
3122.019, 57.44967
3123.948, 50.89755
3125.876, 61.76677
3127.805, 65.59171
3129.733, 60.20506
3131.662, 51.72033
3133.590, 52.26077
3135.519, 55.27552
3137.447, 54.10418
3139.375, 49.68678
3141.304, 53.60231
3143.232, 51.01274
3145.161, 49.81132
3147.089, 55.26640
3149.018, 46.38786
3150.946, 45.31266
3152.875, 47.81404
3154.803, 45.67591
3156.732, 47.31057
3158.660, 53.29225
3160.589, 51.59772
3162.517, 37.08313
3164.446, 41.64634
3166.374, 39.40724
3168.302, 36.27417
3170.231, 45.21914
3172.159, 46.57701
3174.088, 48.23907
3176.016, 46.39841
3177.945, 38.18389
3179.873, 46.20232
3181.802, 36.37787
3183.730, 31.51310
3185.659, 49.53434
3187.587, 33.78215
3189.516, 44.28500
3191.444, 56.28969
3193.373, 35.86952
3195.301, 46.64596
3197.229, 43.56091
3199.158, 36.02461
3201.086, 40.40615
3203.015, 45.88120
3204.943, 42.96821
3206.872, 37.75689
3208.800, 36.28839
3210.729, 27.13000
3212.657, 31.51685
3214.586, 36.66805
3216.514, 28.97182
3218.443, 29.55781
3220.371, 38.09703
3222.300, 41.36152
3224.228, 33.13292
3226.156, 18.60063
3228.085, 15.30784
3230.013, 25.82386
3231.942, 46.37761
3233.870, 39.53788
3235.799, 33.39510
3237.727, 37.89568
3239.656, 46.61501
3241.584, 24.20237
3243.513, 32.71791
3245.441, 34.78021
3247.370, 24.35980
3249.298, 34.56007
3251.227, 28.64937
3253.155, 19.08809
3255.083, 17.66450
3257.012, 26.82719
3258.940, 36.61008
3260.869, 35.69409
3262.797, 31.67485
3264.726, 41.45337
3266.654, 30.33582
3268.583, 23.17298
3270.511, 24.83065
3272.440, 32.76474
3274.368, 33.74433
3276.297, 39.84860
3278.225, 39.54607
3280.154, 27.58093
3282.082, 18.75986
3284.010, 16.65361
3285.939, 23.19682
3287.867, 32.12098
3289.796, 26.92610
3291.724, 21.07012
3293.653, 33.35522
3295.581, 42.48685
3297.510, 17.25788
3299.438, 21.40916
3301.367, 25.44394
3303.295, 29.12511
3305.224, 36.05287
3307.152, 21.58284
3309.081, 35.75751
3311.009, 39.34935
3312.938, 24.77261
3314.866, 37.22608
3316.794, 24.13943
3318.723, 21.19162
3320.651, 29.64054
3322.580, 27.29865
3324.508, 19.42488
3326.437, 21.15992
3328.365, 24.94783
3330.294, 22.80077
3332.222, 32.05030
3334.151, 37.16615
3336.079, 30.01389
3338.008, 15.68208
3339.936, 10.20882
3341.865, 15.60336
3343.793, 22.68392
3345.721, 26.36052
3347.650, 25.26222
3349.578, 26.22128
3351.507, 19.54298
3353.435, 20.40643
3355.364, 29.84906
3357.292, 28.31130
3359.221, 24.63399
3361.149, 24.31592
3363.078, 29.71223
3365.006, 32.64493
3366.935, 33.24622
3368.863, 24.53378
3370.792, 27.84813
3372.720, 26.34276
3374.648, 24.63974
3376.577, 29.64683
3378.505, 22.28906
3380.434, 27.18971
3382.362, 27.19711
3384.291, 29.44397
3386.219, 26.84134
3388.148, 25.73649
3390.076, 29.48291
3392.005, 30.54309
3393.933, 19.96022
3395.862, 24.90627
3397.790, 30.91729
3399.719, 27.79520
3401.647, 21.87729
3403.575, 17.57268
3405.504, 20.63618
3407.432, 26.43330
3409.361, 26.66146
3411.289, 26.11236
3413.218, 22.45380
3415.146, 19.64784
3417.075, 19.67451
3419.003, 21.23177
3420.932, 15.94709
3422.860, 17.70040
3424.789, 23.31854
3426.717, 25.95040
3428.646, 21.09435
3430.574, 26.90135
3432.502, 22.05809
3434.431, 15.24101
3436.359, 23.65647
3438.288, 33.52029
3440.216, 32.11669
3442.145, 28.21857
3444.073, 25.25532
3446.002, 21.28288
3447.930, 13.14606
3449.859, 16.00396
3451.787, 21.79940
3453.716, 25.13120
3455.644, 26.13161
3457.573, 17.81824
3459.501, 21.53170
3461.429, 20.42532
3463.358, 19.12138
3465.286, 24.52758
3467.215, 17.56891
3469.143, 22.86869
3471.072, 23.27517
3473.000, 25.92114
3474.929, 23.71759
3476.857, 23.01185
3478.786, 27.15735
3480.714, 28.61666
3482.643, 16.67067
3484.571, 29.35033
3486.500, 24.59244
3488.428, 13.72150
3490.356, 10.66886
3492.285, 15.31939
3494.213, 2.004216
3496.142, 4.699594
3498.070, 15.58371
3499.999, 22.41194
3501.927, 19.47796
3503.856, 11.54060
3505.784, 17.83794
3507.713, 21.35108
3509.641, 12.86864
3511.570, 0.7032561
3513.498, 14.42777
3515.427, 22.71112
3517.355, 17.50636
3519.283, 15.63879
3521.212, 24.75009
3523.140, 34.17841
3525.069, 6.033201
3526.997, 18.92105
3528.926, 28.53244
3530.854, 17.16062
3532.783, 24.80307
3534.711, 12.88463
3536.640, 16.08464
3538.568, 18.60073
3540.497, 13.76584
3542.425, 8.865875
3544.354, 15.29091
3546.282, 17.89242
3548.210, 20.00785
3550.139, 17.98953
3552.067, 8.430201
3553.996, 5.641262
3555.924, 7.109079
3557.853, 6.060590
3559.781, 5.907608
3561.710, 11.32101
3563.638, 22.33072
3565.567, 14.89152
3567.495, 8.501768
3569.424, 13.95849
3571.352, 19.49771
3573.281, 5.966938
3575.209, 6.452749
3577.137, 11.01159
3579.066, 19.79378
3580.994, 21.88458
3582.923, 11.07411
3584.851, 6.837894
3586.780, 11.72790
3588.708, 13.28240
3590.637, 11.91182
3592.565, 12.79967
3594.494, 21.53465
3596.422, 26.50958
3598.351, 27.96124
3600.279, 16.66562
3602.208, 10.80323
3604.136, 22.84202
3606.064, 14.07900
3607.993, 2.272121
3609.921, 12.87783
3611.850, 26.67567
3613.778, 28.65491
3615.707, 21.20720
3617.635, 23.86512
3619.564, 10.94169
3621.492, 7.934956
3623.421, 13.06899
3625.349, 18.50603
3627.278, 29.57283
3629.206, 12.83566
3631.135, 12.82051
3633.063, 26.59871
3634.991, 27.76291
3636.920, 7.038352
3638.848, 23.94955
3640.777, 9.949966
3642.705, 9.692372
3644.634, 8.011463
3646.562, 3.974637
3648.491, 14.85838
3650.419, -5.030179
3652.348, 8.849730
3654.276, 10.50948
3656.205, 9.124730
3658.133, 14.44392
3660.062, 14.64153
3661.990, 7.358580
3663.918, 7.640092
3665.847, 12.35988
3667.775, 14.96612
3669.704, 18.44198
3671.632, 30.83592
3673.561, 24.07782
3675.489, 2.513369
3677.418, 1.617983
3679.346, 2.144973
3681.275, -5.271944
3683.203, 0.8959124
3685.132, 14.88064
3687.060, 4.056430
3688.989, 12.29916
3690.917, 12.86537
3692.845, 4.773107
3694.774, 25.76331
3696.702, 24.60815
3698.631, 10.25267
3700.559, 1.884330
3702.488, 9.146915
3704.416, 21.57029
3706.345, 19.81608
3708.273, 4.344338
3710.202, -13.78570
3712.130, 7.269113
3714.059, 14.96057
3715.987, 9.613150
3717.916, 22.47515
3719.844, 20.85034
3721.772, 13.93980
3723.701, 10.49439
3725.629, 7.564627
3727.558, 10.41282
3729.486, 11.15895
3731.415, -13.68398
3733.343, -1.483482
3735.272, 10.58362
3737.200, 19.60410
3739.129, 19.01462
3741.057, 6.229564
3742.986, -9.032669
3744.914, 6.068831
3746.843, 12.48676
3748.771, 9.774156
3750.699, 23.90861
3752.628, 33.11999
3754.556, 19.52251
3756.485, 11.87100
3758.413, 8.191846
3760.342, -1.456470
3762.270, 5.996670
3764.199, 19.19081
3766.127, 22.11624
3768.056, 11.46323
3769.984, -0.8262082
3771.913, -1.623048
3773.841, 5.967535
3775.770, 15.27295
3777.698, 8.322363
3779.626, -7.152059
3781.555, -1.745005
3783.483, 23.04846
3785.412, 5.586270
3787.340, 4.751245
3789.269, 7.078285
3791.197, 6.571859
3793.126, 5.803183
3795.054, 3.612365
3796.983, 11.04601
3798.911, 15.83325
3800.840, 5.580399
3802.768, 5.530342
3804.697, 8.021679
3806.625, 5.845048
3808.553, 10.75880
3810.482, -13.62662
3812.410, 0.3197797
3814.339, 11.06187
3816.267, 16.79413
3818.196, 20.83274
3820.124, 23.11187
3822.053, 21.21350
3823.981, 8.115512
3825.910, 7.016574
3827.838, 7.197262
3829.767, 7.644884
3831.695, 4.412929
3833.624, 7.292801
3835.552, 18.10373
3837.480, -3.853541
3839.409, 10.24409
3841.337, 14.23908
3843.266, 9.753481
3845.194, 2.926351
3847.123, -1.573443
3849.051, -0.7507665
3850.980, 5.463349
3852.908, 6.037621
3854.837, 7.110000
3856.765, -0.1556349
3858.694, -0.5398649
3860.622, 13.37587
3862.551, 14.71642
3864.479, -12.30922
3866.407, 3.940753
3868.336, -3.015745
3870.264, -12.67257
3872.193, 4.632038
3874.121, 14.54527
3876.050, 17.46478
3877.978, -7.557488
3879.907, 3.501189
3881.835, 0.1001312
3883.764, -3.893629
3885.692, 12.24304
3887.621, -8.714919
3889.549, 7.102513
3891.478, 8.239985
3893.406, 16.09599
3895.334, 9.403181
3897.263, 7.204251
3899.191, 19.55859
3901.120, 23.85482
3903.048, 15.48720
3904.977, 23.77051
3906.905, 2.304059
3908.834, 6.943462
3910.762, 22.84606
3912.691, 15.21017
3914.619, 23.75927
3916.548, 26.14441
3918.476, 0.5155054
3920.405, 23.60559
3922.333, 25.62619
3924.261, 6.013244
3926.190, 27.43402
3928.118, -1.873018
3930.047, 4.170581
3931.975, 3.220043
3933.904, -7.0743710E-02
3935.832, 11.53606
3937.761, 11.58118
3939.689, -2.433728
3941.618, -15.32558
3943.546, -21.11868
3945.475, -7.060306
3947.403, 10.21376
3949.332, -4.654307
3951.260, -8.123402
3953.188, -1.301481
3955.117, 4.080113
3957.045, 8.233727
3958.974, 11.60455
3960.902, 7.468721
3962.831, 2.462561
3964.759, 6.758738
3966.688, 3.505430
3968.616, 8.571164
3970.545, 2.122164
3972.473, 2.949949
3974.402, -10.82999
3976.330, 5.706708
3978.259, 14.85213
3980.187, 17.00377
3982.115, -8.786139
3984.044, 1.504507
3985.972, -2.664191
3987.901, -7.425979
3989.829, 7.943011
3991.758, -13.78303
3993.686, 1.266767
3995.615, 1.636215
3997.543, 8.724591
3999.472, 1.263971
4001.400, -1.702804
4003.329, -6.960130
4005.257, -3.963442
4007.186, -6.692451
4009.114, 3.118773
4011.042, 5.216617
4012.971, -7.683178
4014.899, -0.1331044
4016.828, 1.388176
4018.756, -3.455876
4020.685, -2.310351
4022.613, 13.00505
4024.542, -2.755731
4026.470, -9.466107
4028.399, -6.584772
4030.327, 4.752214
4032.256, 21.08706
4034.184, 5.618703
4036.113, -6.900766
4038.041, -2.754670
4039.969, -22.59506
4041.898, -6.268855
4043.826, -10.13515
4045.755, -6.372957
4047.683, -6.857314
4049.612, -1.583730
4051.540, 22.59971
4053.469, 14.61757
4055.397, -1.304253
4057.326, 22.11360
4059.254, 16.18131
4061.183, 7.557924
4063.111, 14.09994
4065.040, 1.372686
4066.968, -1.303760
4068.896, 5.651906
4070.825, -2.135443
4072.753, -13.34348
4074.682, -13.00654
4076.610, 6.163215
4078.539, 1.394429
4080.467, -2.511927
4082.396, 10.04993
4084.324, 5.049766
4086.253, 6.611279
4088.181, 7.774807
4090.110, 4.783169
4092.038, 3.532310
4093.967, 0.3725375
4095.895, 11.25520
4097.824, 0.9750461
4099.752, -19.93172
4101.681, 11.19433
4103.609, 1.323018
4105.538, 1.564410
4107.466, 2.221066
4109.395, -6.031672
4111.323, -8.249371
4113.251, -3.373558
4115.180, -8.217260
4117.108, -16.73221
4119.037, 5.690505
4120.965, -1.799268
4122.894, -0.9132067
4124.822, 3.788378
4126.750, 8.033242
4128.679, 2.705155
4130.607, 2.192675
4132.536, -0.5428514
4134.464, -3.660032
4136.393, 0.1360892
4138.321, 5.873514
4140.250, 7.748872
4142.178, 2.823982
4144.107, 4.890561
4146.035, -15.07764
4147.964, 3.409164
4149.892, -1.467948
4151.821, -8.684649
4153.749, -20.72214
4155.678, -8.534986
4157.606, 12.03202
4159.535, 1.587800
4161.463, -14.13731
4163.392, -1.293044
4165.320, 1.064495
4167.249, -10.90403
4169.177, 5.246924
4171.105, 8.660396
4173.034, -1.421039
4174.962, 1.644961
4176.891, 10.24367
4178.819, 10.25819
4180.748, 3.274648
4182.676, 5.523890
4184.604, 10.74630
4186.533, 1.728513
4188.461, -10.95854
4190.390, -9.106442
4192.318, 1.187133
4194.247, 17.74024
4196.175, 1.592554
4198.104, -14.14259
4200.032, -5.243983
4201.961, 19.98546
4203.889, 8.817295
4205.818, 12.67762
4207.746, 5.065196
4209.675, -7.483371
4211.603, -2.951696
4213.532, 1.119628
4215.460, -3.807512
4217.389, 3.583029
4219.317, 19.24026
4221.246, 12.67461
4223.174, -6.945057
4225.103, -12.34029
4227.031, 4.966723
4228.959, -12.79655
4230.888, -17.60592
4232.816, 10.99467
4234.745, 12.55457
4236.673, -1.080226
4238.602, 2.842577
4240.530, -4.550508
4242.458, -0.5916352
4244.387, -6.087288
4246.315, -6.414926
4248.244, 4.133645
4250.172, 5.920540
4252.101, 10.45961
4254.029, 16.01757
4255.958, -0.3349182
4257.886, 7.057686
4259.815, 10.32506
4261.743, -3.919908
4263.672, 13.84724
4265.600, 22.15658
4267.529, 10.20847
4269.457, 14.06363
4271.386, 3.058137
4273.314, -2.607348
4275.243, -15.98786
4277.171, -8.799339
4279.100, -13.00071
4281.028, -5.745425
4282.957, -9.261993
4284.885, -5.439940
4286.813, 12.06850
4288.742, 7.393153
4290.670, 4.767961
4292.599, 5.767659
4294.527, -4.548442
4296.456, 2.683552
4298.384, 1.528246
4300.313, -5.554375
4302.241, 5.641184
4304.169, 13.22691
4306.098, -6.927022
4308.026, -8.254397
4309.955, 1.655868
4311.883, -3.578231
4313.812, -4.917466
4315.740, -10.67382
4317.669, -4.245725
4319.597, 4.572084
4321.526, -6.400803
4323.454, -8.333502
4325.383, -2.787762
4327.311, 1.051877
4329.240, -11.25550
4331.168, -22.87356
4333.097, -10.64730
4335.025, 4.244520
4336.954, -0.5322715
4338.882, -6.944933
4340.811, 9.106333
4342.739, -0.6502922
4344.667, -13.03791
4346.596, -2.127120
##END=



