##NAMES=Halotrichite
##RRUFFID=R070673
##IDEAL CHEMISTRY=Fe^2+^Al_2_(SO_4_)_4_·22H_2_O
##LOCALITY=Orphan mine, Grand Canyon, Coconino County, Arizona, USA
##OWNER=RRUFF
##SOURCE=Malcolm Alter
##DESCRIPTION=Loose aggregates of pale blue silky fibers
##STATUS=The identification of this mineral is confirmed by single-crystal X-ray diffraction and chemical analysis
##URL=https://www.rruff.net/odr/rruff_sample/R070673
##MEASURED CHEMISTRY=(Fe_0.98_Ni_0.02_)Al_2.00_(S_1.00_O_4_)_4_·22H_2_O ; H_2_O estimated by difference
##DIFFRACTION SAMPLE DESCRIPTION=Single crystal, powder profile is calculated
##CELL PARAMETERS=a: 6.203 b: 24.32 c: 21.32 alpha: 90 beta: 100.37 gamma: 90 volume: 3165 crystal system: monoclinic
##FILETYPE=Raman RAW
##RAMAN WAVELENGTH=532

186.1052, 3211.351
188.0337, 3209.548
189.9622, 3220.340
191.8906, 3236.558
193.8191, 3245.851
195.7476, 3244.124
197.6760, 3243.054
199.6045, 3247.295
201.5330, 3259.860
203.4614, 3272.249
205.3899, 3282.382
207.3183, 3291.926
209.2468, 3304.629
211.1753, 3321.841
213.1037, 3338.172
215.0322, 3351.294
216.9607, 3359.802
218.8891, 3369.337
220.8176, 3383.400
222.7461, 3397.472
224.6745, 3405.635
226.6030, 3396.509
228.5315, 3393.722
230.4599, 3407.840
232.3884, 3439.534
234.3169, 3466.367
236.2453, 3483.383
238.1738, 3493.859
240.1023, 3501.400
242.0307, 3503.635
243.9592, 3506.932
245.8877, 3515.163
247.8161, 3527.857
249.7446, 3534.543
251.6731, 3525.565
253.6015, 3513.393
255.5300, 3513.335
257.4585, 3534.398
259.3870, 3547.739
261.3154, 3539.020
263.2439, 3511.456
265.1724, 3493.941
267.1008, 3494.253
269.0293, 3499.485
270.9578, 3499.228
272.8862, 3492.195
274.8147, 3484.441
276.7432, 3476.551
278.6716, 3468.766
280.6001, 3464.280
282.5286, 3470.052
284.4570, 3474.345
286.3855, 3469.026
288.3140, 3448.951
290.2424, 3433.833
292.1709, 3430.029
294.0994, 3434.467
296.0278, 3435.026
297.9563, 3428.296
299.8848, 3422.438
301.8132, 3420.754
303.7417, 3427.075
305.6702, 3431.521
307.5986, 3430.872
309.5271, 3428.030
311.4556, 3429.742
313.3840, 3438.040
315.3125, 3447.477
317.2410, 3456.524
319.1694, 3467.509
321.0979, 3473.367
323.0264, 3467.515
324.9548, 3458.805
326.8833, 3456.133
328.8117, 3464.873
330.7402, 3469.816
332.6687, 3464.593
334.5971, 3450.846
336.5256, 3443.688
338.4541, 3450.403
340.3825, 3456.397
342.3110, 3453.889
344.2395, 3440.808
346.1679, 3428.159
348.0964, 3415.971
350.0249, 3402.643
351.9533, 3392.123
353.8818, 3383.656
355.8103, 3380.440
357.7387, 3383.453
359.6672, 3393.991
361.5957, 3403.211
363.5241, 3414.131
365.4526, 3421.881
367.3811, 3422.587
369.3095, 3410.647
371.2380, 3401.406
373.1665, 3400.249
375.0949, 3404.926
377.0234, 3402.251
378.9519, 3379.627
380.8803, 3362.766
382.8088, 3366.203
384.7373, 3404.742
386.6657, 3427.296
388.5942, 3421.738
390.5227, 3402.166
392.4511, 3391.474
394.3796, 3392.070
396.3081, 3399.584
398.2365, 3411.677
400.1650, 3427.688
402.0935, 3445.828
404.0219, 3472.283
405.9504, 3494.968
407.8789, 3505.441
409.8073, 3499.908
411.7358, 3500.299
413.6643, 3513.191
415.5927, 3534.532
417.5212, 3552.581
419.4497, 3563.528
421.3781, 3578.139
423.3066, 3600.420
425.2351, 3629.961
427.1635, 3666.280
429.0920, 3713.978
431.0205, 3762.967
432.9489, 3807.419
434.8774, 3848.537
436.8059, 3885.603
438.7343, 3914.704
440.6628, 3937.732
442.5913, 3962.416
444.5197, 3999.537
446.4482, 4031.581
448.3767, 4045.494
450.3051, 4039.244
452.2336, 4036.912
454.1621, 4048.686
456.0905, 4066.545
458.0190, 4079.464
459.9475, 4083.800
461.8759, 4090.737
463.8044, 4104.686
465.7329, 4116.167
467.6613, 4125.172
469.5898, 4132.266
471.5183, 4142.083
473.4467, 4150.544
475.3752, 4150.291
477.3037, 4142.281
479.2321, 4126.330
481.1606, 4111.879
483.0891, 4096.141
485.0175, 4077.560
486.9460, 4059.580
488.8745, 4046.113
490.8029, 4034.219
492.7314, 4018.754
494.6599, 3996.514
496.5883, 3972.872
498.5168, 3957.190
500.4453, 3952.166
502.3737, 3936.800
504.3022, 3894.820
506.2307, 3844.656
508.1591, 3808.996
510.0876, 3787.174
512.0161, 3767.445
513.9446, 3750.920
515.8730, 3735.189
517.8015, 3711.341
519.7300, 3671.668
521.6584, 3639.474
523.5869, 3632.677
525.5154, 3639.213
527.4438, 3636.651
529.3723, 3609.835
531.3008, 3590.781
533.2292, 3593.164
535.1577, 3610.861
537.0862, 3618.495
539.0146, 3609.298
540.9431, 3597.639
542.8716, 3591.024
544.8000, 3590.816
546.7285, 3593.119
548.6570, 3596.671
550.5854, 3598.037
552.5139, 3599.748
554.4424, 3603.517
556.3708, 3612.199
558.2993, 3621.771
560.2278, 3631.106
562.1563, 3642.312
564.0847, 3662.753
566.0132, 3678.363
567.9417, 3683.860
569.8701, 3689.057
571.7986, 3702.535
573.7270, 3718.608
575.6555, 3731.604
577.5839, 3753.589
579.5124, 3787.405
581.4409, 3824.019
583.3693, 3860.492
585.2978, 3896.517
587.2263, 3930.622
589.1547, 3962.367
591.0832, 3996.332
593.0117, 4040.475
594.9401, 4086.874
596.8686, 4125.252
598.7971, 4149.770
600.7255, 4171.932
602.6540, 4202.943
604.5825, 4245.055
606.5109, 4289.964
608.4394, 4322.170
610.3679, 4335.352
612.2963, 4350.144
614.2248, 4368.727
616.1533, 4381.799
618.0817, 4378.055
620.0102, 4373.140
621.9387, 4379.209
623.8671, 4395.003
625.7956, 4403.226
627.7241, 4387.270
629.6525, 4370.448
631.5810, 4366.501
633.5095, 4374.946
635.4379, 4377.353
637.3664, 4363.940
639.2949, 4343.661
641.2233, 4324.362
643.1518, 4312.768
645.0803, 4302.302
647.0087, 4283.139
648.9372, 4261.521
650.8657, 4244.131
652.7941, 4232.438
654.7226, 4213.971
656.6511, 4188.911
658.5795, 4168.293
660.5080, 4162.343
662.4365, 4164.159
664.3649, 4150.240
666.2934, 4117.020
668.2219, 4080.716
670.1503, 4056.476
672.0788, 4050.570
674.0073, 4047.893
675.9357, 4041.856
677.8642, 4031.939
679.7927, 4020.895
681.7211, 4011.356
683.6496, 4006.572
685.5781, 4007.247
687.5065, 4005.665
689.4350, 3993.497
691.3635, 3967.621
693.2919, 3948.621
695.2204, 3945.476
697.1489, 3952.156
699.0773, 3947.197
701.0058, 3930.223
702.9343, 3912.552
704.8627, 3897.802
706.7912, 3892.061
708.7197, 3903.373
710.6481, 3920.202
712.5766, 3928.876
714.5051, 3924.158
716.4335, 3917.346
718.3620, 3914.326
720.2905, 3921.028
722.2189, 3930.188
724.1474, 3939.628
726.0759, 3938.569
728.0043, 3926.708
729.9328, 3905.555
731.8613, 3892.616
733.7897, 3898.117
735.7182, 3916.884
737.6467, 3930.256
739.5751, 3932.925
741.5036, 3931.147
743.4321, 3926.387
745.3605, 3923.186
747.2890, 3928.754
749.2175, 3943.034
751.1459, 3954.309
753.0744, 3954.937
755.0029, 3958.081
756.9313, 3964.892
758.8598, 3972.021
760.7883, 3974.560
762.7167, 3974.332
764.6452, 3973.830
766.5737, 3978.636
768.5021, 3990.982
770.4306, 4007.495
772.3591, 4026.831
774.2875, 4045.492
776.2160, 4058.149
778.1445, 4062.019
780.0729, 4060.533
782.0014, 4054.273
783.9299, 4045.609
785.8583, 4039.825
787.7868, 4038.057
789.7153, 4039.965
791.6437, 4045.556
793.5722, 4055.368
795.5007, 4068.468
797.4291, 4089.942
799.3576, 4103.127
801.2861, 4101.603
803.2145, 4094.089
805.1430, 4093.083
807.0715, 4099.895
808.9999, 4105.701
810.9284, 4104.772
812.8569, 4101.998
814.7853, 4106.974
816.7138, 4128.450
818.6423, 4146.082
820.5707, 4149.914
822.4992, 4144.383
824.4277, 4145.351
826.3561, 4150.420
828.2846, 4158.050
830.2131, 4174.077
832.1415, 4201.681
834.0700, 4221.011
835.9985, 4222.824
837.9269, 4220.030
839.8554, 4220.419
841.7839, 4228.439
843.7123, 4237.432
845.6408, 4246.186
847.5693, 4255.194
849.4977, 4266.543
851.4262, 4281.562
853.3547, 4295.861
855.2831, 4310.234
857.2116, 4320.148
859.1401, 4321.631
861.0685, 4318.185
862.9970, 4323.628
864.9255, 4347.560
866.8539, 4369.266
868.7824, 4384.933
870.7109, 4392.374
872.6393, 4390.491
874.5678, 4372.644
876.4963, 4360.479
878.4247, 4366.084
880.3532, 4382.681
882.2817, 4394.728
884.2101, 4398.892
886.1386, 4403.869
888.0671, 4409.036
889.9955, 4416.153
891.9240, 4429.103
893.8525, 4448.936
895.7809, 4468.182
897.7094, 4486.689
899.6379, 4502.615
901.5663, 4511.536
903.4948, 4508.565
905.4233, 4510.744
907.3517, 4528.462
909.2802, 4548.257
911.2087, 4555.494
913.1371, 4546.216
915.0656, 4540.423
916.9941, 4539.934
918.9225, 4544.610
920.8510, 4553.944
922.7795, 4568.758
924.7079, 4583.669
926.6364, 4594.733
928.5649, 4605.248
930.4933, 4618.653
932.4218, 4639.971
934.3503, 4666.429
936.2787, 4707.028
938.2072, 4739.720
940.1357, 4748.891
942.0641, 4742.517
943.9926, 4743.992
945.9211, 4758.835
947.8495, 4772.647
949.7780, 4781.476
951.7065, 4793.909
953.6349, 4810.488
955.5634, 4833.346
957.4919, 4853.896
959.4203, 4869.580
961.3488, 4877.309
963.2773, 4893.486
965.2057, 4933.017
967.1342, 4976.899
969.0627, 5016.866
970.9911, 5042.025
972.9196, 5063.336
974.8481, 5082.499
976.7766, 5106.725
978.7050, 5136.306
980.6335, 5170.628
982.5620, 5205.864
984.4904, 5232.516
986.4189, 5264.438
988.3474, 5306.488
990.2758, 5359.562
992.2043, 5413.252
994.1328, 5467.139
996.0612, 5522.550
997.9897, 5580.910
999.9182, 5635.605
1001.847, 5684.629
1003.775, 5740.045
1005.704, 5812.160
1007.632, 5898.073
1009.560, 5986.626
1011.489, 6081.394
1013.417, 6189.455
1015.346, 6285.773
1017.274, 6364.554
1019.203, 6446.036
1021.131, 6535.813
1023.060, 6630.571
1024.988, 6745.423
1026.917, 6890.603
1028.845, 7032.697
1030.774, 7163.799
1032.702, 7279.751
1034.631, 7368.060
1036.559, 7421.621
1038.488, 7477.667
1040.416, 7544.423
1042.344, 7615.718
1044.273, 7689.882
1046.201, 7752.612
1048.130, 7798.495
1050.058, 7843.931
1051.987, 7883.423
1053.915, 7892.063
1055.844, 7843.555
1057.772, 7796.957
1059.701, 7791.052
1061.629, 7784.479
1063.558, 7742.193
1065.486, 7662.110
1067.414, 7592.765
1069.343, 7524.806
1071.271, 7451.058
1073.200, 7371.691
1075.128, 7288.367
1077.057, 7187.907
1078.985, 7080.944
1080.914, 6991.146
1082.842, 6927.123
1084.771, 6866.355
1086.699, 6785.942
1088.628, 6685.285
1090.556, 6606.237
1092.484, 6556.628
1094.413, 6511.119
1096.341, 6447.938
1098.270, 6367.631
1100.198, 6309.475
1102.127, 6283.781
1104.055, 6268.500
1105.984, 6248.362
1107.912, 6217.207
1109.841, 6179.328
1111.769, 6154.684
1113.698, 6148.377
1115.626, 6141.056
1117.555, 6120.422
1119.483, 6098.957
1121.411, 6104.778
1123.340, 6122.416
1125.268, 6134.794
1127.197, 6137.520
1129.125, 6132.243
1131.054, 6118.816
1132.982, 6112.270
1134.911, 6126.481
1136.839, 6150.444
1138.768, 6170.329
1140.696, 6179.900
1142.625, 6186.436
1144.553, 6196.613
1146.482, 6197.836
1148.410, 6187.848
1150.339, 6178.305
1152.267, 6184.375
1154.195, 6203.653
1156.124, 6222.433
1158.052, 6231.356
1159.981, 6231.922
1161.909, 6233.872
1163.838, 6247.018
1165.766, 6271.484
1167.695, 6293.820
1169.623, 6303.851
1171.552, 6309.648
1173.480, 6314.345
1175.409, 6314.131
1177.337, 6306.579
1179.266, 6309.855
1181.194, 6327.311
1183.122, 6344.019
1185.051, 6346.625
1186.979, 6333.130
1188.908, 6326.779
1190.836, 6341.559
1192.765, 6376.238
1194.693, 6418.987
1196.622, 6461.115
1198.550, 6482.277
1200.479, 6483.113
1202.407, 6484.596
1204.336, 6489.432
1206.264, 6494.849
1208.193, 6494.188
1210.121, 6485.410
1212.049, 6486.135
1213.978, 6503.898
1215.906, 6517.275
1217.835, 6521.877
1219.763, 6525.108
1221.692, 6537.667
1223.620, 6558.229
1225.549, 6571.342
1227.477, 6578.507
1229.406, 6582.021
1231.334, 6581.820
1233.263, 6575.396
1235.191, 6565.123
1237.120, 6549.572
1239.048, 6542.369
1240.976, 6554.504
1242.905, 6585.637
1244.833, 6608.517
1246.762, 6616.486
1248.690, 6618.306
1250.619, 6613.454
1252.547, 6612.916
1254.476, 6622.458
1256.404, 6638.747
1258.333, 6629.513
1260.261, 6573.952
1262.190, 6532.196
1264.118, 6534.440
1266.047, 6570.229
1267.975, 6593.836
1269.903, 6599.663
1271.832, 6603.522
1273.760, 6607.308
1275.689, 6613.548
1277.617, 6614.349
1279.546, 6601.845
1281.474, 6594.364
1283.403, 6607.041
1285.331, 6620.073
1287.260, 6613.602
1289.188, 6594.816
1291.117, 6591.444
1293.045, 6609.346
1294.974, 6624.338
1296.902, 6633.926
1298.830, 6638.242
1300.759, 6625.019
1302.687, 6596.907
1304.616, 6592.210
1306.544, 6627.308
1308.473, 6659.152
1310.401, 6663.281
1312.330, 6658.447
1314.258, 6664.092
1316.187, 6681.318
1318.115, 6699.477
1320.044, 6725.405
1321.972, 6744.071
1323.901, 6742.576
1325.829, 6730.101
1327.757, 6728.202
1329.686, 6754.555
1331.614, 6759.613
1333.543, 6718.471
1335.471, 6684.060
1337.400, 6696.348
1339.328, 6742.940
1341.257, 6762.846
1343.185, 6739.896
1345.114, 6731.451
1347.042, 6768.066
1348.971, 6810.944
1350.899, 6823.688
1352.828, 6810.021
1354.756, 6808.616
1356.684, 6829.901
1358.613, 6852.394
1360.541, 6867.948
1362.470, 6878.812
1364.398, 6891.717
1366.327, 6908.729
1368.255, 6919.779
1370.184, 6909.382
1372.112, 6910.031
1374.041, 6942.438
1375.969, 6990.444
1377.898, 7021.379
1379.826, 7027.358
1381.755, 7028.927
1383.683, 7020.503
1385.611, 7013.017
1387.540, 7015.270
1389.468, 7023.625
1391.397, 7022.917
1393.325, 7006.101
1395.254, 6999.847
1397.182, 7013.345
1399.111, 7033.991
1401.039, 7053.841
1402.968, 7071.703
1404.896, 7089.948
1406.825, 7110.113
1408.753, 7125.035
1410.682, 7128.237
1412.610, 7130.558
1414.538, 7141.204
1416.467, 7156.707
1418.395, 7168.098
1420.324, 7176.735
1422.252, 7179.764
1424.181, 7159.448
1426.109, 7144.476
1428.038, 7161.388
1429.966, 7208.411
1431.895, 7244.814
1433.823, 7270.627
1435.752, 7282.733
1437.680, 7272.208
1439.609, 7258.809
1441.537, 7259.223
1443.465, 7274.472
1445.394, 7290.479
1447.322, 7311.620
1449.251, 7327.280
1451.179, 7327.738
1453.108, 7324.985
1455.036, 7328.812
1456.965, 7339.715
1458.893, 7368.396
1460.822, 7438.315
1462.750, 7491.222
1464.679, 7506.236
1466.607, 7508.278
1468.536, 7517.731
1470.464, 7532.218
1472.392, 7552.677
1474.321, 7582.838
1476.249, 7615.643
1478.178, 7651.102
1480.106, 7681.666
1482.035, 7702.276
1483.963, 7716.682
1485.892, 7737.623
1487.820, 7778.148
1489.749, 7806.288
1491.677, 7790.725
1493.606, 7772.859
1495.534, 7789.275
1497.463, 7832.119
1499.391, 7880.258
1501.319, 7939.354
1503.248, 7990.715
1505.176, 8022.540
1507.105, 8051.689
1509.033, 8092.497
1510.962, 8135.789
1512.890, 8167.934
1514.819, 8191.858
1516.747, 8215.482
1518.676, 8235.752
1520.604, 8258.867
1522.533, 8290.617
1524.461, 8325.371
1526.390, 8351.412
1528.318, 8367.175
1530.246, 8397.566
1532.175, 8455.603
1534.103, 8511.855
1536.032, 8545.033
1537.960, 8568.158
1539.889, 8614.795
1541.817, 8705.132
1543.746, 8778.278
1545.674, 8829.736
1547.603, 8864.521
1549.531, 8874.215
1551.460, 8876.468
1553.388, 8897.585
1555.317, 8942.978
1557.245, 8975.589
1559.173, 8981.910
1561.102, 8999.013
1563.030, 9038.915
1564.959, 9086.816
1566.887, 9130.697
1568.816, 9170.280
1570.744, 9202.266
1572.673, 9224.628
1574.601, 9240.265
1576.530, 9241.855
1578.458, 9245.348
1580.387, 9268.493
1582.315, 9303.409
1584.244, 9319.976
1586.172, 9314.794
1588.100, 9322.845
1590.029, 9358.864
1591.957, 9391.845
1593.886, 9411.123
1595.814, 9417.346
1597.743, 9407.160
1599.671, 9377.376
1601.600, 9348.374
1603.528, 9327.456
1605.457, 9300.610
1607.385, 9267.409
1609.314, 9226.487
1611.242, 9171.391
1613.171, 9108.080
1615.099, 9062.845
1617.027, 9046.392
1618.956, 9007.497
1620.884, 8903.750
1622.813, 8807.228
1624.741, 8770.813
1626.670, 8760.665
1628.598, 8713.583
1630.527, 8628.130
1632.455, 8548.060
1634.384, 8483.633
1636.312, 8417.579
1638.241, 8334.623
1640.169, 8253.594
1642.098, 8196.889
1644.026, 8158.574
1645.954, 8113.605
1647.883, 8057.149
1649.811, 8007.524
1651.740, 7978.777
1653.668, 7946.465
1655.597, 7886.787
1657.525, 7821.725
1659.454, 7790.165
1661.382, 7791.679
1663.311, 7774.740
1665.239, 7719.706
1667.168, 7677.772
1669.096, 7677.556
1671.025, 7686.056
1672.953, 7673.865
1674.881, 7650.255
1676.810, 7643.289
1678.738, 7656.707
1680.667, 7662.674
1682.595, 7649.460
1684.524, 7638.304
1686.452, 7646.998
1688.381, 7657.273
1690.309, 7642.895
1692.238, 7610.452
1694.166, 7597.140
1696.095, 7608.528
1698.023, 7629.261
1699.952, 7674.573
1701.880, 7706.461
1703.808, 7683.317
1705.737, 7642.632
1707.665, 7650.720
1709.594, 7704.635
1711.522, 7734.016
1713.451, 7718.173
1715.379, 7711.214
1717.308, 7737.317
1719.236, 7767.635
1721.165, 7785.941
1723.093, 7793.775
1725.022, 7795.344
1726.950, 7791.367
1728.879, 7779.341
1730.807, 7747.639
1732.735, 7731.627
1734.664, 7757.030
1736.592, 7789.293
1738.521, 7800.834
1740.449, 7797.254
1742.378, 7793.365
1744.306, 7786.491
1746.235, 7791.943
1748.163, 7832.083
1750.092, 7852.506
1752.020, 7815.185
1753.949, 7772.109
1755.877, 7774.400
1757.806, 7808.646
1759.734, 7821.679
1761.662, 7804.286
1763.591, 7804.036
1765.519, 7837.480
1767.448, 7868.426
1769.376, 7892.432
1771.305, 7904.252
1773.233, 7891.285
1775.162, 7861.311
1777.090, 7844.205
1779.019, 7841.572
1780.947, 7847.795
1782.876, 7880.136
1784.804, 7898.238
1786.733, 7877.747
1788.661, 7855.576
1790.589, 7864.038
1792.518, 7894.585
1794.446, 7919.904
1796.375, 7938.452
1798.303, 7956.282
1800.232, 7975.249
1802.160, 7988.160
1804.089, 7987.862
1806.017, 7984.180
1807.946, 7976.667
1809.874, 7971.831
1811.803, 7990.907
1813.731, 8039.713
1815.660, 8064.907
1817.588, 8058.009
1819.516, 8047.756
1821.445, 8037.013
1823.373, 8032.162
1825.302, 8035.182
1827.230, 8046.601
1829.159, 8068.111
1831.087, 8097.623
1833.016, 8125.362
1834.944, 8148.187
1836.873, 8169.083
1838.801, 8188.488
1840.730, 8203.784
1842.658, 8217.740
1844.587, 8226.152
1846.515, 8225.150
1848.443, 8217.564
1850.372, 8206.744
1852.300, 8192.097
1854.229, 8188.134
1856.157, 8199.441
1858.086, 8213.960
1860.014, 8229.738
1861.943, 8243.433
1863.871, 8253.530
1865.800, 8260.051
1867.728, 8261.727
1869.657, 8258.759
1871.585, 8259.368
1873.514, 8263.273
1875.442, 8272.114
1877.370, 8289.858
1879.299, 8307.464
1881.227, 8322.535
1883.156, 8334.085
1885.084, 8339.463
1887.013, 8340.188
1888.941, 8342.785
1890.870, 8343.382
1892.798, 8356.763
1894.727, 8404.528
1896.655, 8432.380
1898.584, 8407.462
1900.512, 8386.338
1902.441, 8411.573
1904.369, 8455.837
1906.297, 8476.387
1908.226, 8475.143
1910.154, 8470.417
1912.083, 8457.740
1914.011, 8469.642
1915.940, 8530.952
1917.868, 8577.431
1919.797, 8564.996
1921.725, 8547.010
1923.654, 8573.788
1925.582, 8616.840
1927.511, 8622.788
1929.439, 8595.227
1931.368, 8581.139
1933.296, 8588.640
1935.224, 8593.923
1937.153, 8590.349
1939.081, 8588.777
1941.010, 8592.727
1942.938, 8601.223
1944.867, 8617.631
1946.795, 8636.853
1948.724, 8643.832
1950.652, 8636.328
1952.581, 8643.984
1954.509, 8678.961
1956.438, 8706.814
1958.366, 8722.409
1960.295, 8732.754
1962.223, 8733.345
1964.151, 8733.553
1966.080, 8742.492
1968.008, 8755.950
1969.937, 8764.670
1971.865, 8769.842
1973.794, 8781.584
1975.722, 8805.163
1977.651, 8818.391
1979.579, 8812.631
1981.508, 8807.074
1983.436, 8804.856
1985.365, 8809.661
1987.293, 8829.184
1989.222, 8853.626
1991.150, 8863.580
1993.078, 8861.382
1995.007, 8876.669
1996.935, 8920.216
1998.864, 8941.578
2000.792, 8913.468
2002.721, 8898.658
2004.649, 8913.651
2006.578, 8940.561
2008.506, 8979.726
2010.435, 9017.616
2012.363, 9036.848
2014.292, 9040.353
2016.220, 9039.402
2018.149, 9033.205
2020.077, 9037.313
2022.005, 9059.777
2023.934, 9071.196
2025.862, 9062.576
2027.791, 9047.885
2029.719, 9022.351
2031.648, 9003.890
2033.576, 9010.390
2035.505, 9031.111
2037.433, 9048.199
2039.362, 9062.511
2041.290, 9083.715
2043.219, 9117.669
2045.147, 9136.183
2047.076, 9110.167
2049.004, 9110.599
2050.933, 9177.834
2052.861, 9237.085
2054.789, 9248.670
2056.718, 9238.508
2058.646, 9222.934
2060.575, 9208.516
2062.503, 9215.909
2064.432, 9244.434
2066.360, 9266.353
2068.289, 9280.513
2070.217, 9293.476
2072.146, 9308.044
2074.074, 9317.430
2076.002, 9308.577
2077.931, 9307.688
2079.859, 9329.562
2081.788, 9365.016
2083.716, 9420.464
2085.645, 9476.702
2087.573, 9473.659
2089.502, 9409.129
2091.430, 9395.817
2093.359, 9468.549
2095.287, 9509.369
2097.216, 9498.660
2099.144, 9488.128
2101.073, 9496.943
2103.001, 9498.809
2104.929, 9477.675
2106.858, 9453.291
2108.786, 9442.831
2110.715, 9440.932
2112.643, 9427.371
2114.572, 9410.216
2116.500, 9445.866
2118.429, 9544.668
2120.357, 9601.356
2122.286, 9577.954
2124.214, 9565.679
2126.143, 9586.345
2128.071, 9607.347
2130.000, 9616.785
2131.928, 9626.754
2133.856, 9659.142
2135.785, 9688.850
2137.713, 9675.230
2139.642, 9632.573
2141.570, 9603.295
2143.499, 9588.223
2145.427, 9605.846
2147.356, 9662.486
2149.284, 9707.277
2151.213, 9727.320
2153.141, 9745.772
2155.070, 9779.173
2156.998, 9797.929
2158.927, 9771.770
2160.855, 9743.783
2162.783, 9755.197
2164.712, 9781.936
2166.640, 9782.817
2168.569, 9766.951
2170.497, 9777.563
2172.426, 9815.066
2174.354, 9839.795
2176.283, 9846.559
2178.211, 9868.763
2180.140, 9924.684
2182.068, 9956.431
2183.997, 9924.497
2185.925, 9897.916
2187.854, 9907.894
2189.782, 9932.645
2191.710, 9973.874
2193.639, 10008.40
2195.567, 9988.428
2197.496, 9940.462
2199.424, 9952.196
2201.353, 10022.61
2203.281, 10058.92
2205.210, 10054.66
2207.138, 10058.24
2209.067, 10075.65
2210.995, 10088.66
2212.924, 10088.22
2214.852, 10090.72
2216.781, 10105.38
2218.709, 10122.60
2220.637, 10144.19
2222.566, 10162.14
2224.494, 10167.78
2226.423, 10166.91
2228.351, 10168.72
2230.280, 10172.01
2232.208, 10162.44
2234.137, 10141.51
2236.065, 10170.87
2237.994, 10262.25
2239.922, 10299.38
2241.851, 10243.74
2243.779, 10205.04
2245.708, 10215.15
2247.636, 10234.95
2249.564, 10249.47
2251.493, 10275.21
2253.421, 10348.57
2255.350, 10411.11
2257.278, 10391.96
2259.207, 10346.03
2261.135, 10362.18
2263.064, 10416.40
2264.992, 10436.18
2266.921, 10426.09
2268.849, 10423.72
2270.778, 10429.96
2272.706, 10443.21
2274.635, 10470.41
2276.563, 10484.99
2278.491, 10460.05
2280.420, 10461.33
2282.348, 10522.97
2284.277, 10580.36
2286.205, 10615.57
2288.134, 10633.70
2290.062, 10621.79
2291.991, 10609.53
2293.919, 10638.99
2295.848, 10676.56
2297.776, 10661.47
2299.705, 10614.29
2301.633, 10594.67
2303.562, 10602.40
2305.490, 10636.81
2307.418, 10712.51
2309.347, 10740.97
2311.275, 10704.34
2313.204, 10687.65
2315.132, 10706.27
2317.061, 10728.54
2318.989, 10744.99
2320.918, 10768.31
2322.846, 10808.66
2324.775, 10849.47
2326.703, 10879.03
2328.632, 10908.03
2330.560, 10961.88
2332.489, 11004.66
2334.417, 10978.42
2336.345, 10918.77
2338.274, 10888.70
2340.202, 10886.61
2342.131, 10917.29
2344.059, 10974.05
2345.988, 10996.08
2347.916, 10974.17
2349.845, 10982.41
2351.773, 11060.85
2353.702, 11085.69
2355.630, 11009.70
2357.559, 10972.25
2359.487, 11004.87
2361.416, 11046.06
2363.344, 11094.37
2365.272, 11119.53
2367.201, 11076.93
2369.129, 11045.46
2371.058, 11098.34
2372.986, 11159.46
2374.915, 11147.93
2376.843, 11115.10
2378.772, 11137.29
2380.700, 11185.34
2382.629, 11187.00
2384.557, 11159.94
2386.486, 11177.37
2388.414, 11229.71
2390.343, 11249.90
2392.271, 11233.41
2394.199, 11218.65
2396.128, 11203.59
2398.056, 11203.44
2399.985, 11223.31
2401.913, 11251.30
2403.842, 11294.36
2405.770, 11329.11
2407.699, 11349.22
2409.627, 11362.73
2411.556, 11358.16
2413.484, 11367.52
2415.413, 11429.59
2417.341, 11477.03
2419.270, 11440.34
2421.198, 11400.03
2423.126, 11443.90
2425.055, 11505.34
2426.983, 11503.20
2428.912, 11473.32
2430.840, 11472.54
2432.769, 11488.34
2434.697, 11480.60
2436.626, 11461.79
2438.554, 11500.47
2440.483, 11592.64
2442.411, 11623.86
2444.340, 11584.12
2446.268, 11601.03
2448.197, 11685.47
2450.125, 11721.94
2452.053, 11688.84
2453.982, 11676.93
2455.910, 11713.43
2457.839, 11739.58
2459.767, 11725.06
2461.696, 11732.69
2463.624, 11802.80
2465.553, 11847.51
2467.481, 11830.47
2469.410, 11808.34
2471.338, 11795.99
2473.267, 11797.57
2475.195, 11824.40
2477.124, 11855.55
2479.052, 11891.88
2480.980, 11910.83
2482.909, 11871.07
2484.837, 11823.38
2486.766, 11832.62
2488.694, 11868.73
2490.623, 11888.00
2492.551, 11897.55
2494.480, 11906.00
2496.408, 11917.20
2498.337, 11955.61
2500.265, 12011.60
2502.194, 12018.97
2504.122, 11982.17
2506.051, 11966.30
2507.979, 11972.90
2509.907, 12022.87
2511.836, 12121.53
2513.764, 12159.64
2515.693, 12098.60
2517.621, 12085.13
2519.550, 12151.60
2521.478, 12179.00
2523.407, 12144.13
2525.335, 12137.80
2527.264, 12184.39
2529.192, 12223.32
2531.121, 12237.44
2533.049, 12246.07
2534.978, 12236.38
2536.906, 12250.72
2538.834, 12352.84
2540.763, 12401.40
2542.691, 12306.30
2544.620, 12231.23
2546.548, 12258.58
2548.477, 12315.33
2550.405, 12378.25
2552.334, 12431.17
2554.262, 12461.43
2556.191, 12477.36
2558.119, 12477.61
2560.048, 12475.82
2561.976, 12480.15
2563.905, 12495.06
2565.833, 12535.56
2567.761, 12581.08
2569.690, 12611.89
2571.618, 12624.63
2573.547, 12603.56
2575.475, 12566.55
2577.404, 12538.66
2579.332, 12526.40
2581.261, 12557.74
2583.189, 12611.79
2585.118, 12627.42
2587.046, 12619.07
2588.975, 12639.21
2590.903, 12684.00
2592.832, 12748.80
2594.760, 12822.31
2596.688, 12828.95
2598.617, 12776.82
2600.545, 12731.05
2602.474, 12695.11
2604.402, 12695.25
2606.331, 12735.26
2608.259, 12784.50
2610.188, 12843.80
2612.116, 12877.51
2614.045, 12882.54
2615.973, 12901.92
2617.902, 12940.93
2619.830, 12987.98
2621.759, 13064.11
2623.687, 13078.40
2625.615, 13008.34
2627.544, 12989.96
2629.472, 13044.33
2631.401, 13079.46
2633.329, 13073.90
2635.258, 13078.46
2637.186, 13105.31
2639.115, 13136.29
2641.043, 13176.48
2642.972, 13206.70
2644.900, 13224.61
2646.829, 13231.21
2648.757, 13216.85
2650.686, 13216.00
2652.614, 13236.73
2654.542, 13270.31
2656.471, 13327.78
2658.399, 13369.73
2660.328, 13384.23
2662.256, 13394.40
2664.185, 13397.02
2666.113, 13416.24
2668.042, 13484.98
2669.970, 13527.73
2671.899, 13508.95
2673.827, 13502.50
2675.756, 13538.82
2677.684, 13560.23
2679.613, 13524.56
2681.541, 13514.72
2683.469, 13571.50
2685.398, 13633.03
2687.326, 13685.03
2689.255, 13725.53
2691.183, 13754.48
2693.112, 13766.57
2695.040, 13733.30
2696.969, 13729.40
2698.897, 13839.86
2700.826, 13895.98
2702.754, 13791.76
2704.683, 13707.67
2706.611, 13688.46
2708.540, 13716.14
2710.468, 13829.40
2712.396, 13913.44
2714.325, 13909.19
2716.253, 13892.54
2718.182, 13878.04
2720.110, 13873.03
2722.039, 13876.39
2723.967, 13898.05
2725.896, 13966.66
2727.824, 14018.15
2729.753, 14014.46
2731.681, 14016.67
2733.610, 14050.32
2735.538, 14075.06
2737.467, 14067.82
2739.395, 14064.77
2741.323, 14065.99
2743.252, 14094.76
2745.180, 14198.66
2747.109, 14264.05
2749.037, 14249.16
2750.966, 14228.69
2752.894, 14224.54
2754.823, 14224.02
2756.751, 14216.15
2758.680, 14222.32
2760.608, 14257.81
2762.537, 14284.55
2764.465, 14290.67
2766.394, 14299.51
2768.322, 14333.70
2770.250, 14342.37
2772.179, 14274.76
2774.107, 14258.51
2776.036, 14334.77
2777.964, 14383.41
2779.893, 14366.75
2781.821, 14364.49
2783.750, 14408.24
2785.678, 14439.08
2787.607, 14433.78
2789.535, 14474.32
2791.464, 14591.11
2793.392, 14636.55
2795.321, 14559.79
2797.249, 14513.58
2799.177, 14533.40
2801.106, 14547.30
2803.034, 14553.69
2804.963, 14564.19
2806.891, 14579.89
2808.820, 14600.47
2810.748, 14622.75
2812.677, 14666.20
2814.605, 14740.45
2816.534, 14743.35
2818.462, 14672.81
2820.391, 14644.31
2822.319, 14665.60
2824.248, 14679.82
2826.176, 14686.92
2828.104, 14730.68
2830.033, 14806.17
2831.961, 14853.73
2833.890, 14874.68
2835.818, 14871.43
2837.747, 14855.36
2839.675, 14898.96
2841.604, 14979.19
2843.532, 15003.50
2845.461, 14989.67
2847.389, 14974.86
2849.318, 14966.32
2851.246, 14984.25
2853.175, 15014.68
2855.103, 15025.09
2857.031, 15032.56
2858.960, 15066.96
2860.888, 15108.61
2862.817, 15132.38
2864.745, 15150.39
2866.674, 15175.61
2868.602, 15202.86
2870.531, 15228.17
2872.459, 15250.68
2874.388, 15269.87
2876.316, 15284.12
2878.245, 15292.98
2880.173, 15295.83
2882.102, 15284.66
2884.030, 15285.58
2885.958, 15332.20
2887.887, 15363.75
2889.815, 15334.88
2891.744, 15328.47
2893.672, 15373.91
2895.601, 15413.17
2897.529, 15430.22
2899.458, 15440.18
2901.386, 15433.40
2903.315, 15446.59
2905.243, 15489.20
2907.172, 15514.03
2909.100, 15512.47
2911.029, 15524.06
2912.957, 15558.18
2914.885, 15574.29
2916.814, 15571.18
2918.742, 15588.64
2920.671, 15622.84
2922.599, 15598.30
2924.528, 15534.50
2926.456, 15581.94
2928.385, 15706.55
2930.313, 15748.89
2932.242, 15743.42
2934.170, 15769.30
2936.099, 15808.05
2938.027, 15833.47
2939.956, 15844.93
2941.884, 15840.47
2943.813, 15827.32
2945.741, 15797.27
2947.669, 15788.10
2949.598, 15877.10
2951.526, 15937.64
2953.455, 15828.16
2955.383, 15760.31
2957.312, 15862.20
2959.240, 15966.59
2961.169, 16018.58
2963.097, 16035.24
2965.026, 16000.78
2966.954, 15996.08
2968.883, 16051.03
2970.811, 16085.58
2972.740, 16058.69
2974.668, 16085.59
2976.596, 16176.19
2978.525, 16201.54
2980.453, 16156.82
2982.382, 16169.17
2984.310, 16234.49
2986.239, 16252.61
2988.167, 16233.22
2990.096, 16209.94
2992.024, 16196.38
2993.953, 16236.72
2995.881, 16297.30
2997.810, 16309.16
2999.738, 16318.42
3001.667, 16399.71
3003.595, 16477.94
3005.523, 16478.71
3007.452, 16465.38
3009.380, 16492.37
3011.309, 16490.31
3013.237, 16395.91
3015.166, 16348.96
3017.094, 16444.19
3019.023, 16515.31
3020.951, 16527.79
3022.880, 16554.79
3024.808, 16608.46
3026.737, 16638.03
3028.665, 16628.67
3030.594, 16639.04
3032.522, 16668.08
3034.450, 16693.00
3036.379, 16711.62
3038.307, 16711.31
3040.236, 16696.67
3042.164, 16648.70
3044.093, 16616.83
3046.021, 16716.45
3047.950, 16842.63
3049.878, 16906.24
3051.807, 16917.30
3053.735, 16835.84
3055.664, 16779.42
3057.592, 16827.49
3059.521, 16870.73
3061.449, 16842.79
3063.377, 16852.86
3065.306, 16933.16
3067.234, 16984.06
3069.163, 16983.70
3071.091, 16997.19
3073.020, 17034.73
3074.948, 17037.78
3076.877, 17012.90
3078.805, 17022.45
3080.734, 17052.40
3082.662, 17046.07
3084.591, 17024.47
3086.519, 17028.36
3088.448, 17050.81
3090.376, 17089.54
3092.304, 17136.23
3094.233, 17202.94
3096.161, 17243.38
3098.090, 17226.13
3100.018, 17197.93
3101.947, 17150.73
3103.875, 17141.44
3105.804, 17189.58
3107.732, 17231.94
3109.661, 17265.69
3111.589, 17263.06
3113.518, 17223.72
3115.446, 17274.94
3117.375, 17388.20
3119.303, 17388.52
3121.231, 17334.00
3123.160, 17340.17
3125.088, 17375.22
3127.017, 17404.38
3128.945, 17428.67
3130.874, 17455.67
3132.802, 17467.60
3134.731, 17440.59
3136.659, 17425.09
3138.588, 17435.45
3140.516, 17457.42
3142.445, 17495.47
3144.373, 17520.89
3146.302, 17532.90
3148.230, 17522.97
3150.158, 17496.60
3152.087, 17476.04
3154.015, 17478.37
3155.944, 17593.41
3157.872, 17730.24
3159.801, 17733.51
3161.729, 17700.12
3163.658, 17705.74
3165.586, 17721.44
3167.515, 17738.24
3169.443, 17748.95
3171.372, 17755.31
3173.300, 17748.47
3175.229, 17720.92
3177.157, 17707.54
3179.085, 17710.41
3181.014, 17744.24
3182.942, 17802.04
3184.871, 17833.10
3186.799, 17851.58
3188.728, 17909.31
3190.656, 17962.65
3192.585, 17944.35
3194.513, 17918.37
3196.442, 17929.27
3198.370, 17962.78
3200.299, 18048.77
3202.227, 18083.33
3204.156, 17999.63
3206.084, 18002.38
3208.012, 18108.46
3209.941, 18128.46
3211.869, 18060.45
3213.798, 18037.86
3215.726, 18051.39
3217.655, 18106.66
3219.583, 18151.26
3221.512, 18090.49
3223.440, 18027.73
3225.369, 18046.34
3227.297, 18092.87
3229.226, 18184.64
3231.154, 18219.88
3233.083, 18146.06
3235.011, 18135.75
3236.939, 18199.96
3238.868, 18248.68
3240.796, 18276.86
3242.725, 18292.99
3244.653, 18291.15
3246.582, 18229.15
3248.510, 18180.43
3250.439, 18265.69
3252.367, 18341.43
3254.296, 18316.98
3256.224, 18285.37
3258.153, 18269.48
3260.081, 18278.89
3262.010, 18317.10
3263.938, 18341.17
3265.866, 18349.51
3267.795, 18382.93
3269.723, 18426.98
3271.652, 18434.61
3273.580, 18422.36
3275.509, 18423.69
3277.437, 18405.70
3279.366, 18304.77
3281.294, 18258.01
3283.223, 18334.00
3285.151, 18396.75
3287.080, 18392.46
3289.008, 18461.49
3290.937, 18593.16
3292.865, 18667.07
3294.793, 18683.79
3296.722, 18631.07
3298.650, 18565.71
3300.579, 18568.00
3302.507, 18596.17
3304.436, 18646.06
3306.364, 18674.60
3308.293, 18658.12
3310.221, 18677.54
3312.150, 18763.88
3314.078, 18798.94
3316.007, 18785.20
3317.935, 18809.59
3319.864, 18853.59
3321.792, 18877.74
3323.720, 18892.42
3325.649, 18911.13
3327.577, 18927.24
3329.506, 18949.31
3331.434, 18944.46
3333.363, 18890.19
3335.291, 18888.07
3337.220, 18948.41
3339.148, 18949.17
3341.077, 18908.48
3343.005, 18942.70
3344.934, 19007.14
3346.862, 19050.55
3348.791, 19075.54
3350.719, 19073.74
3352.647, 19072.79
3354.576, 19074.67
3356.504, 19093.91
3358.433, 19129.62
3360.361, 19203.47
3362.290, 19292.76
3364.218, 19246.56
3366.147, 19153.13
3368.075, 19217.66
3370.004, 19293.72
3371.932, 19233.90
3373.861, 19192.59
3375.789, 19248.27
3377.718, 19283.96
3379.646, 19279.00
3381.574, 19303.62
3383.503, 19357.71
3385.431, 19399.43
3387.360, 19434.91
3389.288, 19491.22
3391.217, 19525.46
3393.145, 19460.26
3395.074, 19424.57
3397.002, 19477.44
3398.931, 19536.05
3400.859, 19593.07
3402.788, 19601.08
3404.716, 19572.39
3406.645, 19592.46
3408.573, 19637.95
3410.501, 19674.74
3412.430, 19702.88
3414.358, 19730.83
3416.287, 19738.51
3418.215, 19711.71
3420.144, 19711.71
3422.072, 19748.70
3424.001, 19791.96
3425.929, 19838.43
3427.858, 19902.40
3429.786, 19943.10
3431.715, 19873.16
3433.643, 19820.29
3435.572, 19883.30
3437.500, 19907.17
3439.428, 19817.83
3441.357, 19804.42
3443.285, 19861.96
3445.214, 19844.65
3447.142, 19797.52
3449.071, 19840.27
3450.999, 19895.14
3452.928, 19900.03
3454.856, 19891.65
3456.785, 19858.18
3458.713, 19905.42
3460.642, 20044.22
3462.570, 20074.68
3464.499, 20029.53
3466.427, 20072.51
3468.355, 20143.51
3470.284, 20186.87
3472.212, 20195.99
3474.141, 20131.85
3476.069, 20127.38
3477.998, 20219.41
3479.926, 20280.33
3481.855, 20305.43
3483.783, 20274.60
3485.712, 20226.49
3487.640, 20221.15
3489.569, 20223.54
3491.497, 20205.36
3493.426, 20201.16
3495.354, 20224.33
3497.282, 20255.34
3499.211, 20289.25
3501.139, 20269.37
3503.068, 20239.13
3504.996, 20296.97
3506.925, 20364.79
3508.853, 20399.11
3510.782, 20402.54
3512.710, 20362.16
3514.639, 20340.53
3516.567, 20340.80
3518.496, 20362.60
3520.424, 20391.07
3522.353, 20397.46
3524.281, 20391.05
3526.209, 20374.03
3528.138, 20356.32
3530.066, 20341.89
3531.995, 20319.22
3533.923, 20289.68
3535.852, 20297.59
3537.780, 20317.16
3539.709, 20289.26
3541.637, 20263.16
3543.566, 20278.10
3545.494, 20306.42
3547.423, 20355.96
3549.351, 20325.68
3551.280, 20225.55
3553.208, 20200.30
3555.136, 20224.06
3557.065, 20292.77
3558.993, 20324.91
3560.922, 20256.96
3562.850, 20214.34
3564.779, 20243.38
3566.707, 20255.72
3568.636, 20249.55
3570.564, 20187.47
3572.493, 20132.39
3574.421, 20179.63
3576.350, 20236.03
3578.278, 20269.57
3580.207, 20273.10
3582.135, 20247.13
3584.063, 20253.61
3585.992, 20260.04
3587.920, 20127.10
3589.849, 20016.04
3591.777, 20082.13
3593.706, 20146.96
3595.634, 20161.36
3597.563, 20139.96
3599.491, 20090.55
3601.420, 20064.96
3603.348, 20060.17
3605.277, 20075.30
3607.205, 20099.13
3609.134, 20135.48
3611.062, 20155.38
3612.990, 20156.00
3614.919, 20152.76
3616.847, 20143.21
3618.776, 20093.29
3620.704, 20057.09
3622.633, 20096.13
3624.561, 20139.85
3626.490, 20175.93
3628.418, 20169.31
3630.347, 20124.06
3632.275, 20085.79
3634.204, 20071.18
3636.132, 20129.97
3638.061, 20157.28
3639.989, 20074.36
3641.917, 20056.16
3643.846, 20134.44
3645.774, 20121.63
3647.703, 20062.63
3649.631, 20049.27
3651.560, 20072.85
3653.488, 20175.49
3655.417, 20203.44
3657.345, 20112.45
3659.274, 20123.04
3661.202, 20207.95
3663.131, 20237.72
3665.059, 20222.15
3666.988, 20126.03
3668.916, 20070.29
3670.844, 20090.19
3672.773, 20175.41
3674.701, 20300.55
3676.630, 20196.84
3678.558, 20071.51
3680.487, 20224.78
3682.415, 20360.09
3684.344, 20374.97
3686.272, 20319.24
3688.201, 20207.05
3690.129, 20128.14
3692.058, 20105.63
3693.986, 20211.77
3695.915, 20313.95
3697.843, 20360.82
3699.771, 20359.61
3701.700, 20310.68
3703.628, 20274.95
3705.557, 20254.37
3707.485, 20256.00
3709.414, 20264.69
3711.342, 20269.04
3713.271, 20289.90
3715.199, 20329.65
3717.128, 20387.30
3719.056, 20435.17
3720.985, 20407.40
3722.913, 20389.43
3724.842, 20441.43
3726.770, 20458.98
3728.698, 20422.90
3730.627, 20409.82
3732.555, 20423.11
3734.484, 20478.96
3736.412, 20529.62
3738.341, 20543.22
3740.269, 20563.49
3742.198, 20597.63
3744.126, 20653.79
3746.055, 20705.58
3747.983, 20719.27
3749.912, 20684.71
3751.840, 20574.72
3753.769, 20541.23
3755.697, 20603.44
3757.625, 20610.44
3759.554, 20598.17
3761.482, 20620.36
3763.411, 20657.13
3765.339, 20708.67
3767.268, 20722.70
3769.196, 20697.75
3771.125, 20688.91
3773.053, 20687.05
3774.982, 20665.46
3776.910, 20680.18
3778.839, 20757.54
3780.767, 20801.53
3782.696, 20808.45
3784.624, 20779.64
3786.552, 20752.45
3788.481, 20762.05
3790.409, 20800.83
3792.338, 20871.35
3794.266, 20894.27
3796.195, 20883.87
3798.123, 20906.60
3800.052, 20939.78
3801.980, 20984.21
3803.909, 20988.89
3805.837, 20946.64
3807.766, 20933.19
3809.694, 20934.80
3811.623, 20895.46
3813.551, 20889.71
3815.479, 20987.15
3817.408, 21027.68
3819.336, 21003.95
3821.265, 21073.64
3823.193, 21158.46
3825.122, 21154.71
3827.050, 21141.46
3828.979, 21148.81
3830.907, 21117.69
3832.836, 21072.30
3834.764, 21136.98
3836.693, 21214.16
3838.621, 21221.10
3840.550, 21221.04
3842.478, 21223.37
3844.406, 21226.66
3846.335, 21230.82
3848.263, 21228.54
3850.192, 21291.39
3852.120, 21553.07
3854.049, 21642.10
3855.977, 21581.64
3857.906, 21541.91
3859.834, 21529.96
3861.763, 21557.25
3863.691, 21604.66
3865.620, 21671.46
3867.548, 21672.42
3869.477, 21651.07
3871.405, 21680.61
3873.333, 21712.33
3875.262, 21716.58
3877.190, 21776.82
3879.119, 21887.21
3881.047, 21911.29
3882.976, 21928.84
3884.904, 22047.97
3886.833, 22148.72
3888.761, 22182.18
3890.690, 22201.96
3892.618, 22226.01
3894.547, 22237.54
3896.475, 22264.36
3898.404, 22354.51
3900.332, 22437.39
3902.260, 22473.54
3904.189, 22514.06
3906.117, 22561.90
3908.046, 22548.09
3909.974, 22569.26
3911.903, 22689.64
3913.831, 22732.34
3915.760, 22698.00
3917.688, 22651.89
3919.617, 22685.58
3921.545, 22850.69
3923.474, 22911.66
3925.402, 22917.58
3927.331, 22933.41
3929.259, 22964.14
3931.188, 23040.63
3933.116, 23045.66
3935.044, 23047.17
3936.973, 23140.13
3938.901, 23185.96
3940.830, 23129.28
3942.758, 23159.08
3944.687, 23319.88
3946.615, 23402.61
3948.544, 23425.74
3950.472, 23430.29
3952.401, 23448.12
3954.329, 23509.60
3956.258, 23573.58
3958.186, 23591.97
3960.115, 23568.50
3962.043, 23578.21
3963.971, 23611.06
3965.900, 23637.79
3967.828, 23684.72
3969.757, 23769.85
3971.685, 23844.49
3973.614, 23857.84
3975.542, 23880.76
3977.471, 23914.80
3979.399, 23909.38
3981.328, 23968.89
3983.256, 24133.85
3985.185, 24219.10
3987.113, 24204.07
3989.042, 24161.54
3990.970, 24175.42
3992.898, 24260.75
3994.827, 24304.06
3996.755, 24293.46
3998.684, 24363.82
4000.612, 24481.06
4002.541, 24491.65
4004.469, 24510.53
4006.398, 24603.23
4008.326, 24623.51
4010.255, 24613.59
4012.183, 24718.50
4014.112, 24805.87
4016.040, 24774.36
4017.969, 24750.96
4019.897, 24773.16
4021.825, 24803.32
4023.754, 24843.09
4025.682, 24929.60
4027.611, 24950.83
4029.539, 24938.47
4031.468, 25018.83
4033.396, 25105.37
4035.325, 25159.34
4037.253, 25187.05
4039.182, 25196.54
4041.110, 25193.33
4043.039, 25221.70
4044.967, 25386.81
4046.896, 25441.18
4048.824, 25337.79
4050.752, 25350.15
4052.681, 25430.19
4054.609, 25551.85
4056.538, 25622.15
4058.466, 25619.20
4060.395, 25619.66
4062.323, 25627.16
4064.252, 25663.76
4066.180, 25695.80
4068.109, 25694.37
4070.037, 25720.02
4071.966, 25772.18
4073.894, 25809.59
4075.823, 25855.46
4077.751, 25929.83
4079.679, 26045.72
4081.608, 26157.75
4083.536, 26168.97
4085.465, 26179.29
4087.393, 26232.24
4089.322, 26240.02
4091.250, 26226.85
4093.179, 26280.46
4095.107, 26346.26
4097.036, 26378.04
4098.964, 26417.84
4100.893, 26485.31
4102.821, 26550.80
4104.750, 26595.43
4106.678, 26617.74
4108.606, 26653.36
4110.535, 26700.49
4112.463, 26686.51
4114.392, 26647.24
4116.320, 26665.30
4118.249, 26731.13
4120.177, 26791.74
4122.105, 26876.55
4124.034, 26946.54
4125.962, 26912.02
4127.891, 26934.42
4129.819, 27106.83
4131.748, 27155.25
4133.676, 27098.59
4135.605, 27110.84
4137.533, 27146.53
4139.462, 27171.11
4141.390, 27189.37
4143.319, 27219.71
4145.247, 27263.44
4147.176, 27286.29
4149.104, 27245.45
4151.033, 27338.99
4152.961, 27488.34
4154.890, 27520.90
4156.818, 27553.90
4158.747, 27560.25
4160.675, 27606.61
4162.604, 27759.14
4164.532, 27792.71
4166.460, 27771.97
4168.389, 27862.53
4170.317, 27907.31
4172.246, 27890.32
4174.174, 27943.44
4176.103, 27990.90
4178.031, 27961.52
4179.959, 27999.02
4181.888, 28107.51
4183.816, 28195.60
4185.745, 28269.19
4187.673, 28245.52
4189.602, 28269.40
4191.530, 28396.80
4193.459, 28405.36
4195.387, 28379.40
4197.316, 28406.89
4199.244, 28457.18
4201.173, 28525.32
4203.101, 28489.91
4205.030, 28463.65
4206.958, 28617.94
4208.887, 28696.58
4210.815, 28681.19
4212.744, 28694.35
4214.672, 28707.99
4216.601, 28713.34
4218.529, 28790.75
4220.458, 28920.24
4222.386, 28966.91
4224.314, 29005.11
4226.243, 29101.85
4228.171, 29128.64
4230.100, 29093.84
4232.028, 29114.39
4233.957, 29135.70
4235.885, 29101.27
4237.813, 29123.78
4239.742, 29201.05
4241.670, 29329.57
4243.599, 29416.58
4245.527, 29343.61
4247.456, 29336.54
4249.384, 29377.16
4251.313, 29435.49
4253.241, 29445.05
4255.170, 29345.83
4257.098, 29334.60
4259.027, 29373.40
4260.955, 29388.67
4262.884, 29428.43
4264.812, 29519.09
4266.741, 29537.14
4268.669, 29540.27
4270.598, 29610.49
4272.526, 29677.31
4274.455, 29720.91
4276.383, 29717.28
4278.312, 29692.02
4280.240, 29647.62
4282.168, 29681.07
4284.097, 29784.52
4286.025, 29828.69
4287.954, 29803.76
4289.882, 29629.11
4291.811, 29612.95
4293.739, 29706.17
4295.667, 29701.48
4297.596, 29691.10
4299.524, 29731.45
4301.453, 29684.84
4303.381, 29640.24
4305.310, 29838.59
4307.238, 29947.86
4309.167, 29851.45
4311.095, 29947.84
4313.024, 30051.08
4314.952, 29902.71
4316.881, 29855.07
4318.809, 29946.29
4320.738, 29989.97
4322.666, 30007.30
4324.595, 30012.00
4326.523, 29958.93
4328.452, 29884.74
4330.380, 29903.98
4332.309, 30014.56
4334.237, 30234.23
4336.166, 30145.29
4338.094, 29945.83
4340.022, 29961.79
4341.951, 29970.42
4343.879, 29933.73
4345.808, 29960.75
4347.736, 29988.22
4349.665, 29955.05
4351.593, 29932.51
4353.521, 29943.05
4355.450, 30076.09
4357.378, 30146.58
4359.307, 30053.37
4361.235, 30117.44
4363.164, 30226.33
4365.092, 30160.46
4367.021, 30109.34
4368.949, 30116.88
4370.878, 30116.83
4372.806, 30110.84
4374.735, 30062.44
4376.663, 30151.68
4378.592, 30311.79
4380.520, 30240.73
4382.449, 30165.28
4384.377, 30184.23
4386.306, 30220.64
4388.234, 30268.48
4390.163, 30325.83
4392.091, 30378.82
4394.020, 30420.92
4395.948, 30381.82
4397.876, 30373.86
4399.805, 30474.19
4401.733, 30526.23
4403.662, 30531.31
4405.590, 30512.44
4407.519, 30495.66
4409.447, 30481.38
4411.375, 30298.17
4413.304, 30169.70
4415.232, 30370.96
4417.161, 30465.44
4419.089, 30447.47
4421.018, 30392.64
4422.946, 30391.87
4424.875, 30513.36
4426.803, 30442.91
4428.732, 30350.58
4430.660, 30479.73
4432.589, 30527.26
4434.517, 30477.46
4436.446, 30442.10
4438.374, 30462.68
4440.303, 30569.94
4442.231, 30443.31
4444.160, 30286.39
4446.088, 30439.39
4448.017, 30535.89
4449.945, 30535.01
4451.874, 30502.34
4453.802, 30511.22
4455.730, 30615.79
4457.659, 30663.60
4459.587, 30649.36
4461.516, 30510.57
4463.444, 30549.13
4465.373, 30758.21
4467.301, 30546.74
4469.229, 30390.57
4471.158, 30546.13
4473.086, 30657.41
4475.015, 30707.27
4476.943, 30653.04
4478.872, 30729.63
4480.800, 30902.01
4482.729, 30782.25
4484.657, 30678.14
4486.586, 30760.02
4488.514, 30720.87
4490.443, 30681.73
4492.371, 30893.92
4494.300, 30929.26
4496.228, 30800.61
4498.157, 30888.20
4500.085, 30945.46
4502.014, 30876.86
4503.942, 30794.96
4505.871, 30759.01
4507.799, 30849.50
4509.728, 30879.41
4511.656, 30840.09
4513.584, 30723.12
4515.513, 30712.31
4517.441, 30874.68
4519.370, 30966.60
4521.298, 30987.86
4523.227, 30910.90
4525.155, 30862.40
4527.083, 30832.79
4529.012, 30782.50
4530.940, 30755.40
4532.869, 30764.11
4534.797, 30840.49
4536.726, 30909.36
4538.654, 30922.29
4540.583, 31009.48
4542.511, 31101.85
4544.440, 31119.33
4546.368, 31037.81
4548.297, 30908.75
4550.225, 30953.08
4552.154, 30941.54
4554.082, 30816.71
4556.011, 31054.55
4557.939, 31242.84
4559.868, 31044.01
4561.796, 30990.18
4563.725, 31062.19
4565.653, 31209.11
4567.582, 31265.72
4569.510, 31215.21
4571.438, 31077.57
4573.367, 30969.42
4575.295, 30931.98
4577.224, 31013.76
4579.152, 31114.11
4581.081, 31156.04
4583.009, 31161.38
4584.938, 31132.64
4586.866, 31032.45
4588.794, 31035.49
4590.723, 31142.49
4592.651, 31102.86
4594.580, 31094.84
4596.508, 31185.80
4598.437, 31161.12
4600.365, 31082.14
4602.294, 30986.59
4604.222, 30981.92
4606.151, 31030.93
4608.079, 31067.53
4610.008, 31066.28
4611.936, 31040.53
4613.865, 31097.57
4615.793, 31126.54
4617.722, 31097.18
4619.650, 31068.57
4621.579, 31082.37
4623.507, 31186.18
4625.436, 31175.85
4627.364, 31109.93
4629.292, 31048.77
4631.221, 31123.00
4633.149, 31265.51
4635.078, 31222.98
4637.006, 31174.41
4638.935, 31169.12
4640.863, 31255.08
4642.792, 31300.20
4644.720, 31221.27
4646.648, 31147.33
4648.577, 31107.16
4650.505, 31137.47
4652.434, 31120.02
4654.362, 31095.76
4656.291, 31151.46
4658.219, 31222.33
4660.148, 31262.07
4662.076, 31101.47
4664.005, 31053.23
4665.933, 31188.54
4667.862, 31268.96
4669.790, 31281.39
4671.719, 31222.02
4673.647, 31052.91
4675.576, 30968.12
4677.504, 31228.45
4679.433, 31248.35
4681.361, 31153.68
4683.290, 31159.62
4685.218, 31107.27
4687.146, 31021.44
4689.075, 30998.88
4691.003, 31021.17
4692.932, 31063.54
4694.860, 31014.66
4696.789, 30962.78
4698.717, 30942.09
4700.646, 31108.45
4702.574, 31198.93
4704.502, 31066.05
4706.431, 31030.38
4708.359, 31078.26
4710.288, 31204.71
4712.216, 31314.82
4714.145, 31351.97
4716.073, 31209.88
4718.002, 31162.59
4719.930, 31193.26
4721.859, 31168.77
4723.787, 31181.29
4725.716, 31224.70
4727.644, 31156.29
4729.573, 31155.27
4731.501, 31245.44
4733.430, 31219.66
4735.358, 31161.67
4737.287, 31113.81
4739.215, 31071.85
4741.144, 31070.94
4743.072, 31138.33
4745.000, 31157.59
4746.929, 31167.29
4748.857, 31232.83
4750.786, 31170.49
4752.714, 31062.85
4754.643, 31044.67
4756.571, 31006.13
4758.500, 30990.66
4760.428, 31159.58
4762.356, 31227.58
4764.285, 31194.18
4766.213, 31214.97
4768.142, 31125.75
4770.070, 30952.86
4771.999, 31132.15
4773.927, 31275.26
4775.856, 31270.45
4777.784, 31173.47
4779.713, 31146.19
4781.641, 31259.75
4783.570, 31162.38
4785.498, 31045.87
4787.427, 31008.60
4789.355, 31122.80
4791.284, 31216.24
4793.212, 31141.97
4795.141, 31180.65
4797.069, 31205.37
4798.998, 31067.46
4800.926, 31144.67
4802.854, 31293.64
4804.783, 31314.35
4806.711, 31265.50
4808.640, 31201.22
4810.568, 31181.96
4812.497, 31248.34
4814.425, 31334.69
4816.354, 31305.46
4818.282, 31238.83
4820.210, 31183.18
4822.139, 31253.11
4824.067, 31288.69
4825.996, 31260.79
4827.924, 31127.92
4829.853, 31097.65
4831.781, 31173.03
4833.710, 31219.42
4835.638, 31183.15
4837.567, 31078.19
4839.495, 31022.18
4841.424, 31036.81
4843.352, 31107.08
4845.281, 31030.94
4847.209, 31077.34
4849.138, 31290.93
4851.066, 31192.72
4852.995, 31094.87
4854.923, 31103.94
4856.852, 31194.99
4858.780, 31181.15
4860.708, 30996.37
4862.637, 31077.12
4864.565, 31145.07
4866.494, 31090.23
4868.422, 31056.79
4870.351, 31099.24
4872.279, 31249.57
4874.208, 31258.40
4876.136, 31206.96
4878.064, 31133.11
4879.993, 30894.41
4881.921, 30766.08
4883.850, 30933.86
4885.778, 31044.76
4887.707, 31059.42
4889.635, 30964.32
4891.564, 31012.66
4893.492, 31081.33
4895.421, 31098.09
4897.349, 30919.30
4899.278, 30795.27
4901.206, 30861.21
4903.135, 30960.72
4905.063, 31003.66
4906.992, 30942.26
4908.920, 31051.42
4910.849, 31136.61
4912.777, 31076.79
4914.706, 31012.12
4916.634, 31013.99
4918.563, 31107.86
4920.491, 31014.11
4922.419, 30942.46
4924.348, 31021.95
4926.276, 31025.21
4928.205, 30974.87
4930.133, 30889.76
4932.062, 30843.86
4933.990, 30869.42
4935.918, 30976.06
4937.847, 30879.35
4939.775, 30792.37
4941.704, 30801.37
4943.632, 30893.98
4945.561, 30973.24
4947.489, 30993.09
4949.418, 30849.39
4951.346, 30751.21
4953.275, 30763.50
4955.203, 30777.52
4957.132, 30817.71
4959.060, 30877.58
4960.989, 30923.09
4962.917, 30883.28
4964.846, 30789.38
4966.774, 30903.57
4968.703, 30953.47
4970.631, 30908.52
4972.560, 30865.95
4974.488, 30830.21
4976.417, 30796.13
4978.345, 30732.77
4980.273, 30694.61
4982.202, 30725.06
4984.130, 30951.21
4986.059, 30930.02
4987.987, 30772.67
4989.916, 30737.39
4991.844, 30814.06
4993.772, 30870.15
4995.701, 30695.61
4997.629, 30716.89
4999.558, 30796.18
5001.486, 30769.35
5003.415, 30658.41
5005.343, 30541.85
5007.272, 30465.21
5009.200, 30554.56
5011.129, 30615.93
5013.057, 30543.17
5014.986, 30553.53
5016.914, 30600.43
5018.843, 30654.37
5020.771, 30688.90
5022.700, 30687.44
5024.628, 30653.00
5026.557, 30659.87
5028.485, 30654.42
5030.414, 30630.26
5032.342, 30630.98
5034.271, 30559.92
5036.199, 30453.12
5038.127, 30452.78
5040.056, 30466.95
5041.984, 30496.02
5043.913, 30583.59
5045.841, 30540.02
5047.770, 30437.13
5049.698, 30348.71
5051.626, 30441.96
5053.555, 30566.21
5055.483, 30602.52
5057.412, 30480.83
5059.340, 30396.18
5061.269, 30449.26
5063.197, 30508.52
5065.126, 30485.77
5067.054, 30369.76
5068.983, 30350.17
5070.911, 30385.64
5072.840, 30438.53
5074.768, 30422.95
5076.697, 30421.92
5078.625, 30422.78
5080.554, 30334.64
5082.482, 30405.19
5084.411, 30513.25
5086.339, 30478.94
5088.268, 30364.43
5090.196, 30293.08
5092.125, 30355.20
5094.053, 30428.67
5095.981, 30423.56
5097.910, 30301.04
5099.838, 30138.69
5101.767, 30196.30
5103.695, 30433.77
5105.624, 30254.09
5107.552, 30189.89
5109.480, 30272.78
5111.409, 30370.29
5113.337, 30313.67
5115.266, 30221.42
5117.194, 30277.92
5119.123, 30226.07
5121.051, 30200.25
5122.980, 30312.29
5124.908, 30174.55
5126.837, 30063.54
5128.765, 30107.69
5130.694, 30066.13
5132.622, 30119.61
5134.551, 30242.47
5136.479, 30166.08
5138.408, 30149.61
5140.336, 30218.26
5142.265, 30412.45
5144.193, 30322.17
5146.122, 30178.62
5148.050, 30210.90
5149.979, 30231.48
5151.907, 30255.04
5153.835, 30273.18
5155.764, 30090.32
5157.692, 30027.49
5159.621, 30103.08
5161.549, 30013.46
5163.478, 30065.10
5165.406, 30199.43
5167.334, 30272.04
5169.263, 30146.83
5171.191, 29995.35
5173.120, 29960.35
5175.048, 29966.10
5176.977, 30024.05
5178.905, 30117.84
5180.834, 30058.49
5182.762, 30036.39
5184.691, 30051.86
5186.619, 29985.62
5188.548, 30003.08
5190.476, 30045.07
5192.405, 30030.26
5194.333, 29915.36
5196.262, 29864.40
5198.190, 29955.60
5200.119, 29877.45
5202.047, 29813.38
5203.976, 29808.02
5205.904, 29861.72
5207.833, 29841.19
5209.761, 29800.26
5211.689, 29853.19
5213.618, 29787.26
5215.546, 29728.86
5217.475, 29753.34
5219.403, 29804.31
5221.332, 29829.04
5223.260, 29816.79
5225.188, 29765.97
5227.117, 29763.61
5229.045, 29774.06
5230.974, 29750.14
5232.902, 29561.68
5234.831, 29469.01
5236.759, 29595.09
5238.688, 29566.03
5240.616, 29629.59
5242.545, 29746.79
5244.473, 29567.47
5246.402, 29516.72
5248.330, 29543.72
5250.259, 29541.28
5252.187, 29490.40
5254.116, 29415.26
5256.044, 29350.24
5257.973, 29458.66
5259.901, 29470.03
5261.830, 29390.02
5263.758, 29317.88
5265.687, 29444.45
5267.615, 29488.52
5269.543, 29199.82
5271.472, 29299.13
5273.400, 29347.69
5275.329, 29262.33
5277.257, 29332.10
5279.186, 29342.93
5281.114, 29311.24
5283.042, 29295.38
5284.971, 29262.35
5286.899, 29184.44
5288.828, 29076.66
5290.756, 29252.03
5292.685, 29325.31
5294.613, 29271.25
5296.542, 29197.03
5298.470, 29100.59
5300.399, 29028.01
5302.327, 29008.72
5304.256, 28986.21
5306.184, 28951.69
5308.113, 28921.63
5310.041, 28953.03
5311.970, 28996.77
5313.898, 29017.91
5315.827, 28995.98
5317.755, 29034.22
5319.684, 28996.14
5321.612, 28882.68
5323.541, 28899.55
5325.469, 28934.48
5327.397, 28927.59
5329.326, 28833.94
5331.254, 28866.85
5333.183, 28870.03
5335.111, 28804.76
5337.040, 28780.82
5338.968, 28810.21
5340.896, 28788.10
5342.825, 28534.46
5344.753, 28592.60
5346.682, 28710.04
5348.610, 28759.63
5350.539, 28652.60
5352.467, 28712.17
5354.396, 28734.51
5356.324, 28418.96
5358.253, 28553.49
5360.181, 28633.68
5362.110, 28495.46
5364.038, 28561.62
5365.967, 28481.81
5367.895, 28377.38
5369.824, 28445.20
5371.752, 28465.31
5373.681, 28437.09
5375.609, 28381.41
5377.538, 28359.07
5379.466, 28233.35
5381.395, 28167.77
5383.323, 28345.83
5385.251, 28312.77
5387.180, 28224.33
5389.108, 28170.49
5391.037, 28266.81
5392.965, 28214.60
5394.894, 28126.12
5396.822, 28115.91
5398.750, 28194.33
5400.679, 28155.22
5402.607, 28019.76
5404.536, 27915.81
5406.464, 27932.29
5408.393, 28000.78
5410.321, 28065.37
5412.250, 27987.56
5414.178, 27898.55
5416.107, 27833.18
5418.035, 27800.08
5419.964, 27776.41
5421.892, 27713.68
5423.821, 27642.12
5425.749, 27768.72
5427.678, 27773.71
5429.606, 27746.73
5431.535, 27808.72
5433.463, 27680.91
5435.392, 27620.53
5437.320, 27652.66
5439.249, 27690.64
5441.177, 27531.52
5443.105, 27407.54
5445.034, 27448.83
5446.962, 27666.72
5448.891, 27629.08
5450.819, 27483.20
5452.748, 27475.96
5454.676, 27515.79
5456.604, 27491.36
5458.533, 27378.12
5460.461, 27176.76
5462.390, 27285.82
5464.318, 27345.21
5466.247, 27179.12
5468.175, 27194.94
5470.104, 27158.93
5472.032, 27115.44
5473.961, 27168.50
5475.889, 27122.87
5477.818, 27118.91
5479.746, 27149.39
5481.675, 27076.22
5483.603, 27025.62
5485.532, 26988.99
5487.460, 26947.34
5489.389, 26833.87
5491.317, 26916.19
5493.246, 26988.20
5495.174, 26831.62
5497.103, 26781.83
5499.031, 26754.59
5500.959, 26759.16
5502.888, 26915.41
5504.816, 26785.35
5506.745, 26720.79
5508.673, 26803.11
5510.602, 26775.21
5512.530, 26697.05
5514.458, 26711.07
5516.387, 26855.69
5518.315, 26791.74
5520.244, 26702.70
5522.172, 26611.08
5524.101, 26493.76
5526.029, 26498.80
5527.958, 26550.42
5529.886, 26563.16
5531.815, 26422.29
5533.743, 26257.46
5535.672, 26223.99
5537.600, 26306.28
5539.529, 26299.24
5541.457, 26270.89
5543.386, 26250.36
5545.314, 26247.74
5547.243, 26267.45
5549.171, 26227.72
5551.100, 26151.60
5553.028, 26070.29
5554.957, 26069.06
5556.885, 26092.87
5558.813, 26128.32
5560.742, 26179.83
5562.670, 26117.24
5564.599, 25990.57
5566.527, 25849.71
5568.456, 25742.14
5570.384, 25784.66
5572.313, 25873.41
5574.241, 25902.82
5576.169, 25685.74
5578.098, 25666.89
5580.026, 25782.01
5581.955, 25911.63
5583.883, 25741.85
5585.812, 25736.69
5587.740, 25722.96
5589.669, 25601.40
5591.597, 25660.01
5593.526, 25632.22
5595.454, 25532.18
5597.383, 25421.02
5599.311, 25366.70
5601.240, 25449.35
5603.168, 25491.11
5605.097, 25348.24
5607.025, 25516.08
5608.954, 25360.31
5610.882, 25120.26
5612.811, 25245.03
5614.739, 25299.97
5616.667, 25245.34
5618.596, 25182.36
5620.524, 25254.58
5622.453, 25223.18
5624.381, 25175.63
5626.310, 25120.31
5628.238, 25030.39
5630.167, 25042.33
5632.095, 25043.85
5634.023, 25027.18
5635.952, 25050.05
5637.880, 24893.63
5639.809, 24850.33
5641.737, 24922.33
5643.666, 24907.13
5645.594, 24932.19
5647.523, 24888.08
5649.451, 24785.08
5651.380, 24718.89
5653.308, 24668.26
5655.237, 24752.87
5657.165, 24858.54
5659.094, 24699.98
5661.022, 24672.11
5662.951, 24678.59
5664.879, 24659.08
5666.808, 24593.02
5668.736, 24555.38
5670.665, 24539.89
5672.593, 24538.45
5674.521, 24563.22
5676.450, 24440.58
5678.378, 24331.84
5680.307, 24309.06
5682.235, 24417.73
5684.164, 24387.73
5686.092, 24345.81
5688.021, 24286.37
5689.949, 24132.61
5691.877, 24289.45
5693.806, 24259.02
5695.734, 24090.00
5697.663, 24041.74
5699.591, 23963.89
5701.520, 24070.65
5703.448, 24226.31
5705.377, 24217.14
5707.305, 24022.18
5709.234, 23900.03
5711.162, 23912.29
5713.091, 24038.42
5715.019, 23890.61
5716.948, 23837.70
5718.876, 23847.40
5720.805, 23826.40
5722.733, 23824.18
5724.662, 23657.79
5726.590, 23527.44
5728.519, 23561.16
5730.447, 23562.40
5732.375, 23568.51
5734.304, 23567.28
5736.232, 23532.99
5738.161, 23410.57
5740.089, 23452.99
5742.018, 23429.54
5743.946, 23337.64
5745.875, 23457.56
5747.803, 23355.66
5749.731, 23263.76
5751.660, 23243.05
5753.588, 23228.88
5755.517, 23237.04
5757.445, 23208.78
5759.374, 23215.32
5761.302, 23364.02
5763.231, 23326.34
5765.159, 23312.21
5767.088, 23319.38
5769.016, 23302.02
5770.945, 23219.56
5772.873, 23157.00
5774.802, 23101.20
5776.730, 23041.23
5778.659, 22995.96
5780.587, 22976.92
5782.516, 22939.87
5784.444, 22912.84
5786.373, 22981.48
5788.301, 22901.74
5790.229, 22821.43
5792.158, 22790.57
5794.086, 22796.73
5796.015, 22709.16
5797.943, 22702.04
5799.872, 22711.29
5801.800, 22663.37
5803.729, 22606.17
5805.657, 22509.13
5807.585, 22459.80
5809.514, 22476.13
5811.442, 22479.53
5813.371, 22482.93
5815.299, 22473.10
5817.228, 22412.38
5819.156, 22259.29
5821.085, 22382.14
5823.013, 22312.11
5824.942, 22184.06
5826.870, 22186.89
5828.799, 22211.16
5830.727, 22201.83
5832.656, 22125.05
5834.584, 22049.76
5836.513, 22152.29
5838.441, 22042.01
5840.370, 21942.49
5842.298, 21941.93
5844.227, 22025.41
5846.155, 22046.10
5848.083, 21945.20
5850.012, 21884.71
5851.940, 21924.38
5853.869, 21831.99
5855.797, 21807.75
5857.726, 21782.63
5859.654, 21745.27
5861.583, 21733.70
5863.511, 21779.38
5865.439, 21650.56
5867.368, 21542.69
5869.296, 21608.47
5871.225, 21566.46
5873.153, 21573.63
5875.082, 21523.27
5877.010, 21453.88
5878.939, 21543.25
5880.867, 21452.52
5882.796, 21376.60
5884.724, 21372.02
5886.653, 21407.94
5888.581, 21290.31
5890.510, 21262.40
5892.438, 21350.77
5894.367, 21440.06
5896.295, 21354.40
5898.224, 21246.69
5900.152, 21186.94
5902.081, 21223.99
5904.009, 21315.85
5905.938, 21168.09
5907.866, 21128.33
5909.794, 21048.49
5911.723, 20953.85
5913.651, 20987.85
5915.580, 21077.54
5917.508, 21016.23
5919.437, 20911.71
5921.365, 20853.59
5923.293, 20789.98
5925.222, 20819.67
5927.150, 20842.58
5929.079, 20782.83
5931.007, 20627.41
5932.936, 20697.65
5934.864, 20674.86
5936.793, 20614.05
5938.721, 20584.36
5940.650, 20624.44
5942.578, 20659.95
5944.507, 20626.42
5946.435, 20535.64
5948.364, 20454.49
5950.292, 20616.62
5952.221, 20614.86
5954.149, 20492.00
5956.078, 20368.68
5958.006, 20352.17
5959.935, 20286.82
5961.863, 20136.98
5963.792, 20157.99
5965.720, 20314.03
5967.648, 20299.86
5969.577, 20283.84
5971.505, 20264.17
5973.434, 20243.32
5975.362, 20197.08
5977.291, 20036.85
5979.219, 20046.22
5981.147, 20042.90
5983.076, 20042.96
5985.004, 20087.47
5986.933, 20001.82
5988.861, 19955.47
5990.790, 19920.18
5992.718, 19851.75
5994.647, 19747.31
5996.575, 19817.84
5998.504, 19811.82
6000.432, 19784.78
6002.361, 19770.55
6004.289, 19752.26
6006.218, 19793.12
6008.146, 19777.79
6010.075, 19744.37
6012.003, 19689.75
6013.932, 19550.00
6015.860, 19573.91
6017.789, 19508.57
6019.717, 19437.81
6021.646, 19426.43
6023.574, 19396.61
6025.502, 19465.25
6027.431, 19291.84
6029.359, 19234.28
6031.288, 19424.88
6033.216, 19311.73
6035.145, 19355.41
6037.073, 19243.01
6039.001, 19169.04
6040.930, 19254.91
6042.858, 19142.17
6044.787, 19173.16
6046.715, 19131.41
6048.644, 19048.24
6050.572, 19016.34
6052.501, 19063.21
6054.429, 19003.98
6056.358, 18978.55
6058.286, 18959.56
6060.215, 18910.97
6062.143, 18931.41
6064.072, 18882.57
6066.000, 18814.58
6067.929, 18744.72
6069.857, 18696.79
6071.786, 18770.66
6073.714, 18606.69
6075.643, 18709.83
6077.571, 18802.05
6079.500, 18653.37
6081.428, 18575.46
6083.356, 18522.37
6085.285, 18484.75
6087.213, 18506.96
6089.142, 18556.44
6091.070, 18472.45
6092.999, 18532.90
6094.927, 18448.12
6096.855, 18448.16
6098.784, 18550.06
6100.712, 18414.04
6102.641, 18319.03
6104.569, 18295.76
6106.498, 18308.98
6108.426, 18297.52
6110.355, 18208.86
6112.283, 18080.31
6114.212, 18116.55
6116.140, 18175.01
6118.069, 18165.23
6119.997, 18091.86
6121.926, 17998.50
6123.854, 18006.07
6125.783, 17999.12
6127.711, 18006.23
6129.640, 18047.76
6131.568, 17905.27
6133.497, 17811.06
6135.425, 17817.40
6137.354, 17891.64
6139.282, 17934.39
6141.210, 17800.49
6143.139, 17831.29
6145.067, 17706.16
6146.996, 17639.51
6148.924, 17664.23
6150.853, 17593.24
6152.781, 17652.97
6154.709, 17618.06
6156.638, 17533.48
6158.566, 17484.30
6160.495, 17487.21
6162.423, 17389.70
6164.352, 17368.82
6166.280, 17392.26
6168.209, 17358.04
6170.137, 17281.27
6172.066, 17325.28
6173.994, 17244.04
6175.923, 17226.98
6177.851, 17159.65
6179.780, 17073.30
6181.708, 17086.46
6183.637, 17057.88
6185.565, 17118.77
6187.494, 17062.25
6189.422, 17004.99
6191.351, 17026.64
6193.279, 16925.76
6195.208, 16884.98
6197.136, 16925.28
6199.064, 16909.70
6200.993, 16863.27
6202.921, 16888.71
6204.850, 16695.76
6206.778, 16863.97
6208.707, 16813.90
6210.635, 16731.44
6212.563, 16785.00
6214.492, 16652.22
6216.420, 16590.31
6218.349, 16601.31
6220.277, 16646.31
6222.206, 16589.02
6224.134, 16383.58
6226.063, 16533.66
6227.991, 16504.52
6229.920, 16529.46
6231.848, 16467.56
6233.777, 16324.20
6235.705, 16311.17
6237.634, 16235.06
6239.562, 16201.46
6241.491, 16119.59
6243.419, 16153.76
6245.348, 16280.68
6247.276, 16082.77
6249.205, 16044.16
6251.133, 16091.92
6253.062, 16026.82
6254.990, 15994.87
6256.918, 16074.21
6258.847, 15818.00
6260.775, 15914.81
6262.704, 15943.53
6264.632, 15899.54
6266.561, 15884.13
6268.489, 15922.28
6270.417, 15871.94
6272.346, 15729.43
6274.274, 15687.75
6276.203, 15641.73
6278.131, 15611.85
6280.060, 15706.42
6281.988, 15620.72
6283.917, 15678.20
6285.845, 15660.28
6287.774, 15535.55
6289.702, 15441.63
6291.631, 15535.56
6293.559, 15561.47
6295.488, 15439.48
6297.416, 15373.69
6299.345, 15325.23
6301.273, 15285.42
6303.202, 15342.07
6305.130, 15407.26
6307.059, 15259.25
6308.987, 15172.43
6310.916, 15233.98
6312.844, 15293.83
6314.772, 15170.48
6316.701, 15209.33
6318.629, 15008.14
6320.558, 15031.80
6322.486, 15037.05
6324.415, 14956.26
6326.343, 14974.57
6328.271, 14903.12
6330.200, 14866.40
6332.128, 14935.06
6334.057, 14960.34
6335.985, 14909.68
6337.914, 14854.41
6339.842, 14801.51
6341.771, 14874.90
6343.699, 14784.67
6345.628, 14781.98
6347.556, 14842.14
6349.485, 14821.27
6351.413, 14824.58
6353.342, 14690.18
6355.270, 14652.64
6357.199, 14552.65
6359.127, 14506.34
6361.056, 14563.69
6362.984, 14512.36
6364.913, 14368.84
6366.841, 14405.65
6368.770, 14387.36
6370.698, 14420.59
6372.626, 14467.68
6374.555, 14383.52
6376.483, 14453.72
6378.412, 14371.01
6380.340, 14331.96
6382.269, 14244.56
6384.197, 14180.68
6386.125, 14207.26
6388.054, 14154.75
6389.982, 14195.42
6391.911, 14188.19
6393.839, 14140.57
6395.768, 14142.38
6397.696, 14134.54
6399.625, 13988.26
6401.553, 14053.26
6403.482, 13997.28
6405.410, 13989.36
6407.339, 14023.55
6409.267, 13976.81
6411.196, 13838.87
6413.124, 13797.36
6415.053, 13876.71
6416.981, 13910.45
6418.910, 13824.62
6420.838, 13793.37
6422.767, 13804.87
6424.695, 13736.41
6426.624, 13688.01
6428.552, 13691.74
6430.480, 13599.16
6432.409, 13597.15
6434.337, 13632.51
6436.266, 13593.30
6438.194, 13477.95
6440.123, 13495.62
6442.051, 13612.14
6443.979, 13539.57
6445.908, 13383.77
6447.836, 13375.01
6449.765, 13514.07
6451.693, 13545.81
6453.622, 13262.11
6455.550, 13294.18
6457.479, 13367.19
6459.407, 13378.00
6461.336, 13325.31
6463.264, 13260.03
6465.193, 13255.86
6467.121, 13287.85
6469.050, 13204.11
6470.978, 13108.53
6472.907, 13119.32
6474.835, 13175.37
6476.764, 13176.62
6478.692, 13101.32
6480.621, 12990.41
6482.549, 12982.30
6484.478, 13018.16
6486.406, 13053.36
6488.334, 12937.21
6490.263, 12785.57
6492.191, 12884.95
6494.120, 12885.22
6496.048, 12788.09
6497.977, 12866.06
6499.905, 12786.49
6501.833, 12721.18
6503.762, 12791.54
6505.690, 12820.37
6507.619, 12654.14
6509.547, 12716.69
6511.476, 12696.78
6513.404, 12655.43
6515.333, 12621.29
6517.261, 12600.72
6519.190, 12603.30
6521.118, 12620.58
6523.047, 12568.21
6524.975, 12400.27
##END=



