##NAMES=Hammarite
##RRUFFID=R110028
##IDEAL CHEMISTRY=Cu_2_Pb_2_Bi_4_S_9_
##LOCALITY=Baita Mining District (Baita Bihor; Rezbanya), Nucet, Bihor Co., Romania
##OWNER=RRUFF
##SOURCE=Bob Jenkins 
##DESCRIPTION=Steel-gray parallel aggregates of prismatic crystals
##STATUS=The identification of this mineral has been confirmed only by single crystal X-ray diffraction
##URL=https://www.rruff.net/odr/rruff_sample/R110028
##DIFFRACTION SAMPLE DESCRIPTION=Single crystal, powder profile is calculated
##CELL PARAMETERS=a: 33.719 b: 11.5829 c: 4.0214 alpha: 90 beta: 90 gamma: 90 volume: 1570.6 crystal system: orthorhombic
##FILETYPE=Raman RAW
##RAMAN WAVELENGTH=780

145.6160, 142.0521
147.5444, 141.7645
149.4729, 142.0459
151.4014, 142.4928
153.3298, 143.0126
155.2583, 143.6129
157.1868, 144.1798
159.1152, 144.7104
161.0437, 145.8089
162.9722, 147.9231
164.9006, 150.1485
166.8291, 152.8356
168.7576, 155.1583
170.6860, 156.1743
172.6145, 156.0768
174.5430, 156.1108
176.4714, 156.4232
178.3999, 156.8150
180.3284, 157.6087
182.2568, 158.1607
184.1853, 158.0451
186.1138, 157.3478
188.0422, 156.2190
189.9707, 154.4046
191.8992, 152.5959
193.8276, 150.5860
195.7561, 148.8142
197.6846, 147.4901
199.6130, 146.5416
201.5415, 145.8565
203.4700, 145.3176
205.3984, 145.6841
207.3269, 147.4881
209.2554, 149.1981
211.1838, 149.9333
213.1123, 150.7294
215.0408, 152.3522
216.9692, 154.7935
218.8977, 158.0924
220.8262, 162.4723
222.7546, 167.0039
224.6831, 172.0214
226.6116, 176.4851
228.5400, 179.2320
230.4685, 181.2798
232.3970, 185.0116
234.3254, 190.8860
236.2539, 195.9572
238.1824, 199.6802
240.1108, 203.6362
242.0393, 208.3967
243.9678, 213.7169
245.8962, 220.2064
247.8247, 227.4159
249.7532, 232.1501
251.6816, 234.5856
253.6101, 234.3305
255.5386, 230.6081
257.4670, 224.9112
259.3955, 217.7307
261.3240, 209.2317
263.2524, 199.1868
265.1809, 187.7268
267.1094, 176.8835
269.0378, 166.9268
270.9663, 157.2227
272.8948, 147.0468
274.8232, 137.5874
276.7517, 130.0331
278.6802, 123.7090
280.6086, 116.7297
282.5371, 109.1059
284.4656, 102.2168
286.3940, 96.25077
288.3225, 91.19329
290.2510, 87.20773
292.1794, 83.91517
294.1079, 81.11254
296.0364, 78.75244
297.9648, 76.75956
299.8933, 75.21072
301.8218, 73.45435
303.7502, 70.95346
305.6787, 68.77980
307.6072, 67.33907
309.5356, 66.27570
311.4641, 65.39641
313.3926, 64.58898
315.3210, 63.45755
317.2495, 61.78417
319.1780, 60.51252
321.1064, 60.16072
323.0349, 59.64629
324.9634, 58.38661
326.8918, 56.97143
328.8203, 56.00106
330.7488, 55.37026
332.6772, 54.65543
334.6057, 53.61366
336.5342, 53.10290
338.4626, 53.68125
340.3911, 54.06384
342.3196, 53.74361
344.2480, 53.09901
346.1765, 52.33641
348.1050, 51.52507
350.0334, 51.02405
351.9619, 50.98951
353.8904, 50.90707
355.8188, 50.87532
357.7473, 50.64473
359.6758, 50.00749
361.6042, 49.26991
363.5327, 48.48551
365.4612, 47.80587
367.3896, 47.86480
369.3181, 49.08247
371.2466, 49.13208
373.1750, 47.46311
375.1035, 45.92384
377.0320, 44.77613
378.9604, 44.27891
380.8889, 45.05992
382.8174, 46.30648
384.7458, 46.38618
386.6743, 45.22033
388.6028, 44.92222
390.5313, 45.83421
392.4597, 46.12196
394.3882, 44.81633
396.3167, 43.76464
398.2451, 44.14645
400.1736, 44.91462
402.1021, 44.77649
404.0305, 44.00718
405.9590, 44.33107
407.8875, 45.85540
409.8159, 46.24961
411.7444, 44.69349
413.6729, 43.24293
415.6013, 42.69419
417.5298, 42.39065
419.4583, 41.88453
421.3867, 41.38977
423.3152, 41.54566
425.2437, 42.16963
427.1721, 41.80906
429.1006, 40.06379
431.0291, 39.23149
432.9575, 41.05643
434.8860, 42.12370
436.8145, 40.34658
438.7429, 38.36558
440.6714, 39.04081
442.5999, 41.03811
444.5283, 41.05847
446.4568, 39.32463
448.3853, 38.69473
450.3137, 40.08393
452.2422, 40.83329
454.1707, 40.18178
456.0991, 39.23342
458.0276, 37.95459
459.9561, 36.94256
461.8845, 37.07090
463.8130, 37.81039
465.7415, 38.14863
467.6699, 38.06012
469.5984, 37.78099
471.5269, 37.10503
473.4553, 36.68317
475.3838, 36.77798
477.3123, 36.86086
479.2407, 36.53370
481.1692, 36.28029
483.0977, 36.58562
485.0261, 37.24744
486.9546, 38.01725
488.8831, 38.93661
490.8115, 39.24154
492.7400, 38.69162
494.6685, 37.84375
496.5969, 36.01582
498.5254, 34.90073
500.4539, 35.74241
502.3823, 36.73638
504.3108, 36.31689
506.2393, 36.86039
508.1677, 37.00249
510.0962, 36.61258
512.0247, 36.97235
513.9531, 36.28610
515.8816, 35.71887
517.8101, 35.30572
519.7385, 34.94132
521.6670, 34.45351
523.5955, 34.22959
525.5239, 34.83830
527.4524, 35.49917
529.3809, 35.32692
531.3093, 34.60363
533.2378, 34.12321
535.1663, 33.88671
537.0947, 34.24844
539.0232, 35.44151
540.9517, 35.89108
542.8801, 34.72068
544.8086, 34.17366
546.7371, 35.99786
548.6655, 37.75035
550.5940, 38.16549
552.5225, 37.75472
554.4509, 36.82151
556.3794, 35.61907
558.3079, 35.24084
560.2363, 35.61104
562.1648, 35.76067
564.0933, 35.63202
566.0217, 35.23234
567.9502, 34.56971
569.8787, 33.60865
571.8071, 31.76635
573.7356, 30.34969
575.6641, 30.23827
577.5925, 30.83631
579.5210, 31.94217
581.4495, 33.05469
583.3779, 32.62719
585.3064, 30.92814
587.2349, 29.96615
589.1633, 30.00126
591.0918, 30.02679
593.0203, 29.74497
594.9487, 29.70271
596.8772, 30.19780
598.8057, 30.68449
600.7341, 31.10529
602.6626, 31.24004
604.5911, 30.69805
606.5195, 29.85933
608.4480, 29.01890
610.3765, 28.39816
612.3049, 29.10770
614.2334, 31.36020
616.1619, 32.43313
618.0903, 31.66133
620.0188, 30.73698
621.9473, 29.16347
623.8757, 28.39643
625.8042, 29.31396
627.7327, 30.43075
629.6611, 31.22678
631.5896, 31.63249
633.5181, 31.35914
635.4465, 30.80967
637.3750, 30.59856
639.3035, 30.69884
641.2319, 30.99693
643.1604, 31.57578
645.0889, 31.84142
647.0173, 31.73966
648.9458, 31.43321
650.8743, 30.64581
652.8027, 30.28887
654.7312, 30.73312
656.6597, 31.41804
658.5881, 32.57945
660.5166, 33.24937
662.4451, 32.31345
664.3735, 30.91670
666.3020, 30.43594
668.2305, 30.63989
670.1589, 30.92667
672.0874, 31.29970
674.0159, 31.84368
675.9443, 32.58843
677.8728, 33.24249
679.8013, 33.89917
681.7297, 33.81000
683.6582, 32.44218
685.5867, 31.43072
687.5151, 31.52001
689.4436, 31.77200
691.3721, 31.91292
693.3005, 31.91809
695.2290, 31.68473
697.1575, 31.38310
699.0859, 31.07822
701.0144, 30.91711
702.9429, 31.36311
704.8713, 32.26408
706.7998, 32.92007
708.7283, 33.32403
710.6567, 33.34446
712.5852, 32.93883
714.5137, 32.50698
716.4421, 32.03203
718.3706, 31.78327
720.2991, 32.09534
722.2275, 32.19268
724.1560, 31.48520
726.0845, 31.08251
728.0129, 31.87675
729.9414, 32.71892
731.8699, 32.52583
733.7983, 32.10318
735.7268, 32.76133
737.6553, 33.62020
739.5837, 32.75370
741.5122, 30.95985
743.4407, 30.73049
745.3691, 31.94569
747.2976, 32.68304
749.2261, 32.76701
751.1545, 33.05701
753.0830, 33.75518
755.0115, 34.28408
756.9399, 34.67871
758.8684, 34.78600
760.7969, 34.35770
762.7253, 33.99474
764.6538, 33.95170
766.5823, 33.90071
768.5107, 33.41930
770.4392, 33.19575
772.3677, 33.87056
774.2961, 34.87573
776.2246, 36.15186
778.1531, 37.07354
780.0815, 36.09530
782.0100, 34.26373
783.9385, 34.65321
785.8669, 36.83809
787.7954, 37.94469
789.7239, 37.93961
791.6523, 37.65123
793.5808, 36.97407
795.5093, 36.52273
797.4377, 36.29163
799.3662, 36.34452
801.2947, 36.80040
803.2231, 37.06439
805.1516, 36.80404
807.0801, 37.01638
809.0085, 38.37443
810.9370, 39.47129
812.8655, 39.54844
814.7939, 39.48841
816.7224, 39.64354
818.6509, 39.89763
820.5793, 40.29222
822.5078, 40.62780
824.4363, 40.79128
826.3647, 40.72610
828.2932, 40.23178
830.2217, 39.53479
832.1501, 38.90485
834.0786, 38.46351
836.0071, 38.68730
837.9355, 39.41191
839.8640, 39.93540
841.7925, 40.25818
843.7209, 40.35457
845.6494, 40.23260
847.5779, 40.09947
849.5063, 39.98607
851.4348, 39.23339
853.3633, 37.54517
855.2917, 36.69925
857.2202, 37.26660
859.1487, 37.66634
861.0771, 37.78675
863.0056, 37.42087
864.9341, 35.97020
866.8625, 34.97439
868.7910, 35.03257
870.7195, 35.18571
872.6479, 35.56457
874.5764, 35.31972
876.5049, 33.15096
878.4333, 31.45336
880.3618, 32.26998
882.2903, 33.32348
884.2188, 32.89132
886.1472, 31.98810
888.0757, 31.36994
890.0042, 30.90107
891.9326, 30.36639
893.8611, 29.95452
895.7896, 30.01215
897.7180, 30.28262
899.6465, 30.40132
901.5750, 30.35639
903.5034, 30.01470
905.4319, 29.50858
907.3604, 29.28452
909.2888, 29.31260
911.2173, 29.42060
913.1458, 29.61352
915.0742, 30.18155
917.0027, 31.12465
918.9312, 30.34410
920.8596, 30.29757
922.7881, 30.02079
924.7166, 28.59049
926.6450, 28.87910
928.5735, 27.38404
930.5020, 26.49543
932.4304, 26.37680
934.3589, 26.41496
936.2874, 26.60844
938.2158, 26.58049
940.1443, 26.18996
942.0728, 26.23880
944.0012, 27.05568
945.9297, 27.18054
947.8582, 26.02298
949.7866, 25.56570
951.7151, 26.63115
953.6436, 27.08009
955.5720, 26.13487
957.5005, 25.19318
959.4290, 24.52795
961.3574, 24.17126
963.2859, 24.38170
965.2144, 24.41653
967.1428, 23.57290
969.0713, 23.31289
970.9998, 24.78318
972.9282, 25.77163
974.8567, 25.27807
976.7852, 24.59371
978.7136, 23.95781
980.6421, 23.60666
982.5706, 23.87294
984.4990, 24.10958
986.4275, 24.06311
988.3560, 23.82895
990.2844, 22.94022
992.2129, 22.60787
994.1414, 24.09614
996.0698, 25.54428
997.9983, 25.95677
999.9268, 25.79886
1001.855, 25.03002
1003.784, 24.23174
1005.712, 23.56769
1007.641, 23.30413
1009.569, 24.15424
1011.498, 24.79038
1013.426, 23.77497
1015.354, 22.82305
1017.283, 23.48456
1019.211, 24.30674
1021.140, 24.24242
1023.068, 23.90003
1024.997, 23.48450
1026.925, 23.28910
1028.854, 23.58812
1030.782, 24.12794
1032.711, 25.11201
1034.639, 25.74329
1036.568, 25.14028
1038.496, 24.31869
1040.425, 24.00916
1042.353, 23.79289
1044.281, 23.30249
1046.210, 22.87701
1048.138, 22.62693
1050.067, 22.68558
1051.995, 23.66263
1053.924, 24.31246
1055.852, 23.38191
1057.781, 22.36782
1059.709, 22.24494
1061.638, 22.38904
1063.566, 22.51300
1065.495, 22.62607
1067.423, 23.00518
1069.352, 23.00597
1071.280, 21.58172
1073.208, 20.60349
1075.137, 21.60704
1077.065, 22.63969
1078.994, 22.66138
1080.922, 22.46112
1082.851, 22.26209
1084.779, 22.17674
1086.708, 22.56314
1088.636, 22.60661
1090.565, 21.38254
1092.493, 20.66766
1094.422, 21.73333
1096.350, 22.45992
1098.279, 21.74559
1100.207, 21.22074
1102.135, 21.41153
1104.064, 21.78066
1105.992, 22.74667
1107.921, 22.91416
1109.849, 20.80048
1111.778, 19.96882
1113.706, 22.28561
1115.635, 23.64240
1117.563, 22.82270
1119.492, 22.30511
1121.420, 22.76780
1123.349, 22.58538
1125.277, 21.30845
1127.206, 20.14001
1129.134, 18.85441
1131.063, 18.49852
1132.991, 19.53495
1134.919, 20.14068
1136.848, 20.07504
1138.776, 20.44747
1140.705, 20.35823
1142.633, 21.49189
1144.562, 20.18576
1146.490, 19.61392
1148.419, 19.78221
1150.347, 20.68593
1152.276, 20.05741
1154.204, 21.80063
1156.133, 19.99769
1158.061, 19.67013
1159.990, 20.40409
1161.918, 20.76394
1163.846, 20.78119
1165.775, 20.39904
1167.703, 19.84597
1169.632, 19.48572
1171.560, 19.36628
1173.489, 19.82236
1175.417, 20.29894
1177.346, 19.91649
1179.274, 19.40987
1181.203, 19.52900
1183.131, 19.82379
1185.060, 20.08053
1186.988, 20.17864
1188.917, 19.83429
1190.845, 19.61788
1192.773, 19.94222
1194.702, 20.23283
1196.630, 20.38692
1198.559, 20.26684
1200.487, 19.54947
1202.416, 19.36960
1204.344, 19.07023
1206.273, 18.73670
1208.201, 19.00934
1210.130, 18.49391
1212.058, 19.36668
1213.987, 19.75114
1215.915, 19.45719
1217.844, 19.47007
1219.772, 19.82051
1221.700, 19.89210
1223.629, 19.75774
1225.557, 20.22650
1227.486, 19.92191
1229.414, 20.57872
1231.343, 19.57597
1233.271, 18.84150
1235.200, 18.61514
1237.128, 19.80051
1239.057, 21.10467
1240.985, 20.64182
1242.914, 20.01744
1244.842, 21.05663
1246.771, 21.94337
1248.699, 21.25892
1250.627, 20.36258
1252.556, 19.60770
1254.484, 19.35019
1256.413, 19.98700
1258.341, 20.56347
1260.270, 20.86624
1262.198, 21.11352
1264.127, 21.42509
1266.055, 21.34565
1267.984, 21.29675
1269.912, 20.48832
1271.841, 20.78440
1273.769, 20.66773
1275.698, 20.25569
1277.626, 20.66322
1279.554, 21.56298
1281.483, 22.11057
1283.411, 22.17062
1285.340, 20.73942
1287.268, 19.48354
1289.197, 21.22535
1291.125, 23.09513
1293.054, 22.58433
1294.982, 21.64145
1296.911, 20.76287
1298.839, 20.69020
1300.768, 22.14295
1302.696, 22.98707
1304.625, 22.55394
1306.553, 22.27401
1308.481, 22.39532
1310.410, 22.37429
1312.338, 22.18511
1314.267, 22.85841
1316.195, 24.10493
1318.124, 23.30129
1320.052, 21.39784
1321.981, 21.52386
1323.909, 22.61106
1325.838, 22.89828
1327.766, 22.91915
1329.695, 23.44596
1331.623, 23.73453
1333.552, 22.61896
1335.480, 22.09266
1337.408, 23.89641
1339.337, 25.00590
1341.265, 24.38306
1343.194, 23.48654
1345.122, 22.23021
1347.051, 21.62185
1348.979, 21.74170
1350.908, 21.74241
1352.836, 21.67966
1354.765, 22.36633
1356.693, 22.32763
1358.622, 23.22965
1360.550, 22.68848
1362.479, 22.69385
1364.407, 22.68437
1366.335, 21.68657
1368.264, 21.41308
1370.192, 23.72466
1372.121, 24.87119
1374.049, 22.77753
1375.978, 21.80019
1377.906, 23.10879
1379.835, 23.97684
1381.763, 24.31037
1383.692, 23.48191
1385.620, 24.09800
1387.549, 22.39469
1389.477, 24.03184
1391.406, 24.50221
1393.334, 24.17631
1395.262, 22.86807
1397.191, 21.90901
1399.119, 22.41427
1401.048, 23.03496
1402.976, 23.39388
1404.905, 23.35754
1406.833, 22.80454
1408.762, 22.51089
1410.690, 22.57677
1412.619, 23.58821
1414.547, 25.14307
1416.476, 23.92701
1418.404, 24.77319
1420.333, 22.55002
1422.261, 24.19151
1424.189, 23.00754
1426.118, 21.75438
1428.046, 22.71736
1429.975, 23.36944
1431.903, 22.35067
1433.832, 22.74095
1435.760, 25.36561
1437.689, 25.94974
1439.617, 24.33603
1441.546, 22.22715
1443.474, 20.32195
1445.403, 21.23821
1447.331, 22.98708
1449.260, 22.52459
1451.188, 21.69126
1453.116, 22.28506
1455.045, 22.55487
1456.973, 21.03128
1458.902, 20.41051
1460.830, 21.53700
1462.759, 22.64765
1464.687, 23.75263
1466.616, 23.54910
1468.544, 24.22247
1470.473, 23.09933
1472.401, 24.02125
1474.330, 22.75539
1476.258, 21.53778
1478.187, 22.28047
1480.115, 22.89215
1482.043, 22.25004
1483.972, 22.19068
1485.900, 23.32474
1487.829, 23.80280
1489.757, 23.59322
1491.686, 23.48464
1493.614, 23.46168
1495.543, 23.54123
1497.471, 23.60324
1499.400, 23.51507
1501.328, 23.32630
1503.257, 23.07936
1505.185, 22.65696
1507.114, 21.96180
1509.042, 21.46490
1510.970, 21.23000
1512.899, 21.82912
1514.827, 21.31794
1516.756, 22.27292
1518.684, 21.24228
1520.613, 21.45022
1522.541, 21.92371
1524.470, 21.85712
1526.398, 22.12195
1528.327, 23.16158
1530.255, 23.43175
1532.184, 22.76306
1534.112, 22.39289
1536.041, 22.26948
1537.969, 21.66599
1539.897, 21.16983
1541.826, 22.11835
1543.754, 22.87911
1545.683, 21.85715
1547.611, 21.09855
1549.540, 21.13417
1551.468, 21.72253
1553.397, 22.85174
1555.325, 23.60764
1557.254, 23.98330
1559.182, 23.99496
1561.111, 23.78853
1563.039, 23.41352
1564.968, 23.09031
1566.896, 22.95451
1568.824, 22.89133
1570.753, 23.02641
1572.681, 22.75266
1574.610, 22.08181
1576.538, 21.95652
1578.467, 22.13115
1580.395, 21.75938
1582.324, 21.78853
1584.252, 23.52238
1586.181, 24.59396
1588.109, 23.80221
1590.038, 23.27381
1591.966, 23.38157
1593.895, 23.41467
1595.823, 23.24915
1597.751, 21.85492
1599.680, 20.54176
1601.608, 21.49558
1603.537, 22.33412
1605.465, 21.84043
1607.394, 21.77250
1609.322, 22.56273
1611.251, 22.48461
1613.179, 21.71924
1615.108, 22.21933
1617.036, 21.63591
1618.965, 22.09031
1620.893, 21.04746
1622.822, 20.55880
1624.750, 20.36590
1626.678, 20.41846
1628.607, 20.99232
1630.535, 20.88001
1632.464, 21.73895
1634.392, 21.26654
1636.321, 21.99733
1638.249, 22.46174
1640.178, 21.04822
1642.106, 20.53812
1644.035, 21.57341
1645.963, 22.10873
1647.892, 22.10766
1649.820, 22.02237
1651.749, 21.91460
1653.677, 21.91759
1655.605, 21.81454
1657.534, 21.42362
1659.462, 20.97486
1661.391, 20.44671
1663.319, 20.20211
1665.248, 20.24940
1667.176, 20.62860
1669.105, 21.24905
1671.033, 22.39923
1672.962, 22.98029
1674.890, 22.07780
1676.819, 21.57310
1678.747, 21.74941
1680.676, 21.37488
1682.604, 20.94258
1684.532, 22.68719
1686.461, 24.12600
1688.389, 22.96592
1690.318, 21.83690
1692.246, 21.55177
1694.175, 21.71770
1696.103, 22.22782
1698.032, 22.36792
1699.960, 22.30921
1701.889, 22.43933
1703.817, 22.31053
1705.746, 21.64144
1707.674, 20.81789
1709.603, 19.89454
1711.531, 20.50539
1713.459, 21.96685
1715.388, 22.38652
1717.316, 22.08145
1719.245, 20.66577
1721.173, 20.08277
1723.102, 20.89197
1725.030, 21.79426
1726.959, 22.40451
1728.887, 20.91442
1730.816, 19.14709
1732.744, 20.01078
1734.673, 20.78375
1736.601, 19.92312
1738.530, 20.17320
1740.458, 21.59368
1742.386, 21.47029
1744.315, 20.61622
1746.243, 20.46947
1748.172, 20.69818
1750.100, 21.48637
1752.029, 21.61944
1753.957, 20.90790
1755.886, 20.66868
1757.814, 20.60094
1759.743, 19.50621
1761.671, 18.73826
1763.600, 19.61398
1765.528, 20.44173
1767.457, 20.91333
1769.385, 21.12547
1771.313, 20.98610
1773.242, 19.64339
1775.170, 18.56943
1777.099, 19.11426
1779.027, 19.64820
1780.956, 19.70317
1782.884, 19.79941
1784.813, 19.89970
1786.741, 19.85334
1788.670, 19.61126
1790.598, 18.88616
1792.527, 18.86096
1794.455, 18.89203
1796.384, 20.05718
1798.312, 19.42513
1800.240, 20.01217
1802.169, 20.48815
1804.097, 19.41219
1806.026, 18.94229
1807.954, 19.58666
1809.883, 19.39169
1811.811, 18.78661
1813.740, 19.72954
1815.668, 20.48599
1817.597, 19.17344
1819.525, 18.71097
1821.454, 19.52748
1823.382, 19.60782
1825.311, 19.08968
1827.239, 18.19061
1829.167, 17.59864
1831.096, 17.92161
1833.024, 18.47898
1834.953, 19.15409
1836.881, 18.96122
1838.810, 18.33636
1840.738, 17.64486
1842.667, 17.58173
1844.595, 18.99054
1846.524, 20.02735
1848.452, 20.52791
1850.381, 19.35233
1852.309, 17.92957
1854.238, 17.77612
1856.166, 18.17256
1858.094, 19.35105
1860.023, 19.36254
1861.951, 18.49260
1863.880, 17.52264
1865.808, 17.04862
1867.737, 17.86870
1869.665, 18.17793
1871.594, 17.55520
1873.522, 17.16698
1875.451, 17.13036
1877.379, 18.01862
1879.308, 18.74899
1881.236, 18.97822
1883.165, 18.15991
1885.093, 16.55124
1887.021, 15.79102
1888.950, 15.87983
1890.878, 17.22833
1892.807, 18.12774
1894.735, 18.16316
1896.664, 18.24516
1898.592, 18.34214
1900.521, 18.58756
1902.449, 18.07510
1904.378, 16.17216
1906.306, 14.81357
1908.235, 14.45688
1910.163, 16.71307
1912.092, 19.14011
1914.020, 18.90053
1915.948, 18.32343
1917.877, 17.84490
1919.805, 17.76520
1921.734, 17.81099
1923.662, 17.27284
1925.591, 16.98203
1927.519, 17.43244
1929.448, 17.75747
1931.376, 17.95871
1933.305, 18.59142
1935.233, 18.73249
1937.162, 16.92706
1939.090, 16.14116
1941.019, 16.69288
1942.947, 17.12424
1944.875, 17.21946
1946.804, 16.44190
1948.732, 15.97530
1950.661, 16.30052
1952.589, 16.78931
1954.518, 17.24290
1956.446, 17.20761
1958.375, 16.76592
1960.303, 16.76127
1962.232, 15.52710
1964.160, 16.15985
1966.089, 15.92235
1968.017, 15.68551
1969.946, 16.05819
1971.874, 16.52445
1973.802, 16.97486
1975.731, 17.04994
1977.659, 17.13260
1979.588, 17.31779
1981.516, 17.35536
1983.445, 17.45715
1985.373, 17.32094
1987.302, 17.34204
1989.230, 16.93701
1991.159, 16.91384
1993.087, 16.49663
1995.016, 16.90996
1996.944, 15.78906
1998.873, 15.89455
2000.801, 15.86645
2002.729, 15.10973
2004.658, 15.49474
2006.586, 16.43572
2008.515, 15.43772
2010.443, 15.20509
2012.372, 17.81930
2014.300, 18.29632
2016.229, 17.09869
2018.157, 17.00983
2020.086, 17.00860
2022.014, 16.29019
2023.943, 15.64268
2025.871, 15.18639
2027.800, 15.41788
2029.728, 15.72824
2031.656, 15.80463
2033.585, 15.32268
2035.513, 14.45063
2037.442, 14.60398
2039.370, 15.21221
2041.299, 16.22317
2043.227, 16.36440
2045.156, 15.62088
2047.084, 14.37069
2049.013, 13.27757
2050.941, 12.61403
2052.870, 13.52473
2054.798, 12.59891
2056.727, 14.04262
2058.655, 12.56810
2060.583, 14.24480
2062.512, 15.32365
2064.440, 15.30541
2066.369, 16.10904
2068.297, 14.27591
2070.226, 15.77209
2072.154, 15.63810
2074.083, 14.02259
2076.011, 14.90948
2077.940, 15.57629
2079.868, 13.76092
2081.797, 14.06500
2083.725, 16.13394
2085.654, 16.37016
2087.582, 15.27144
2089.510, 12.52312
2091.439, 12.65337
2093.367, 14.84666
2095.296, 15.39662
2097.224, 15.20449
2099.153, 14.70362
2101.081, 13.45986
2103.010, 12.16813
2104.938, 12.48829
2106.867, 13.32434
2108.795, 14.35466
2110.724, 14.89508
2112.652, 14.86566
2114.581, 15.23612
2116.509, 13.41163
2118.438, 14.76957
2120.366, 13.96028
2122.294, 12.76976
2124.223, 13.85509
2126.151, 14.15087
2128.080, 13.06413
2130.008, 13.80482
2131.937, 14.68280
2133.865, 14.09392
2135.794, 13.76969
2137.722, 13.85105
2139.651, 13.57304
2141.579, 13.26730
2143.508, 13.20736
2145.436, 12.37048
2147.365, 12.66965
2149.293, 12.13648
2151.221, 12.95152
2153.150, 13.03360
2155.078, 13.17772
2157.007, 12.94941
2158.935, 13.07460
2160.864, 13.52472
2162.792, 13.01117
2164.721, 14.09096
2166.649, 13.98981
2168.578, 13.10705
2170.506, 12.08174
2172.435, 11.17639
2174.363, 11.13356
2176.292, 11.36475
2178.220, 11.48205
2180.148, 12.52459
2182.077, 13.78668
2184.005, 13.40425
2185.934, 13.58514
2187.862, 14.86162
2189.791, 14.54839
2191.719, 13.38243
2193.648, 11.34722
2195.576, 11.90292
2197.505, 10.21020
2199.433, 11.31713
2201.362, 8.721722
2203.290, 10.55012
2205.219, 11.05413
2207.147, 11.16072
2209.075, 13.00396
2211.004, 14.58624
2212.932, 15.37697
2214.861, 14.55044
2216.789, 13.18293
2218.718, 12.08142
2220.646, 10.94780
2222.575, 10.13648
2224.503, 11.71853
2226.432, 12.83528
2228.360, 12.40384
2230.289, 11.64168
2232.217, 11.31135
2234.146, 12.46765
2236.074, 13.52973
2238.002, 14.17890
2239.931, 14.17225
2241.859, 14.05371
2243.788, 14.14045
2245.716, 12.52378
2247.645, 13.09330
2249.573, 12.41221
2251.502, 13.13431
2253.430, 12.52754
2255.359, 12.28460
2257.287, 11.98919
2259.216, 11.35846
2261.144, 10.60926
2263.073, 10.08823
2265.001, 10.48369
2266.929, 10.97644
2268.858, 11.34140
2270.786, 10.90315
2272.715, 10.68038
2274.643, 11.54680
2276.572, 12.25172
2278.500, 12.54818
2280.429, 12.72989
2282.357, 11.71794
2284.286, 12.34614
2286.214, 11.31145
2288.143, 10.60131
2290.071, 11.75572
2292.000, 11.28726
2293.928, 10.67627
2295.856, 12.75527
2297.785, 12.51149
2299.713, 9.981672
2301.642, 10.60946
2303.570, 11.49952
2305.499, 11.36623
2307.427, 11.81473
2309.356, 12.32947
2311.284, 12.36684
2313.213, 11.65226
2315.141, 10.62305
2317.070, 10.77513
2318.998, 11.28674
2320.927, 11.86205
2322.855, 11.78806
2324.783, 11.93719
2326.712, 13.14247
2328.640, 13.15843
2330.569, 12.28155
2332.497, 10.94687
2334.426, 10.55331
2336.354, 11.09728
2338.283, 11.39106
2340.211, 11.56431
2342.140, 11.71502
2344.068, 10.75983
2345.997, 9.853236
2347.925, 10.53329
2349.854, 10.95838
2351.782, 11.05056
2353.710, 11.01834
2355.639, 10.77729
2357.567, 10.36402
2359.496, 10.30502
2361.424, 10.36254
2363.353, 10.46585
2365.281, 10.40736
2367.210, 10.10346
2369.138, 9.098936
2371.067, 9.922678
2372.995, 11.64774
2374.924, 11.48567
2376.852, 10.69122
2378.781, 9.662097
2380.709, 9.045073
2382.637, 9.073231
2384.566, 9.902049
2386.494, 8.461226
2388.423, 7.859237
2390.351, 11.22409
2392.280, 13.16298
2394.208, 13.33312
2396.137, 11.26042
2398.065, 9.833983
2399.994, 9.370957
2401.922, 8.893911
2403.851, 9.122773
2405.779, 10.11660
2407.708, 10.15082
2409.636, 10.12295
2411.564, 10.65253
2413.493, 10.53293
2415.421, 10.14640
2417.350, 9.905827
2419.278, 9.982520
2421.207, 10.32070
2423.135, 11.15222
2425.064, 10.59254
2426.992, 9.154279
2428.921, 10.72165
2430.849, 11.23611
2432.778, 9.495784
2434.706, 9.531156
2436.635, 9.948142
2438.563, 10.02261
2440.491, 9.234710
2442.420, 8.567983
2444.348, 8.993290
2446.277, 9.807893
2448.205, 10.26799
2450.134, 9.100364
2452.062, 8.946305
2453.991, 9.561628
2455.919, 9.121203
2457.848, 9.634211
2459.776, 11.08930
2461.705, 10.71312
2463.633, 9.933536
2465.562, 9.358420
2467.490, 10.73362
2469.418, 11.52984
2471.347, 10.56996
2473.275, 9.503308
2475.204, 9.037119
2477.132, 9.681652
2479.061, 9.412409
2480.989, 9.116059
2482.918, 10.30977
2484.846, 10.11775
2486.775, 8.992265
2488.703, 7.523670
2490.632, 8.220248
2492.560, 10.09185
2494.489, 10.04349
2496.417, 9.451808
2498.345, 8.861705
2500.274, 9.298288
2502.202, 9.153845
2504.131, 8.388053
2506.059, 10.23687
2507.988, 11.17939
2509.916, 9.939795
2511.845, 10.33593
2513.773, 10.51970
2515.702, 9.430420
2517.630, 8.339954
2519.559, 7.803903
2521.487, 8.361938
2523.416, 8.126611
2525.344, 7.898561
2527.272, 8.400253
2529.201, 8.441570
2531.129, 8.334089
2533.058, 8.432508
2534.986, 8.734575
2536.915, 9.185019
2538.843, 9.813285
2540.772, 9.844296
2542.700, 9.557535
2544.629, 9.694245
2546.557, 8.031342
2548.486, 6.076460
2550.414, 8.124556
2552.343, 8.670403
2554.271, 8.135528
2556.199, 9.413686
2558.128, 10.15496
2560.056, 9.982426
2561.985, 8.559503
2563.913, 8.068928
2565.842, 8.674851
2567.770, 8.180671
2569.699, 9.968504
2571.627, 8.514387
2573.556, 8.960453
2575.484, 8.910463
2577.413, 8.291308
2579.341, 9.044788
2581.270, 10.07265
2583.198, 10.80545
2585.126, 9.461820
2587.055, 8.522093
2588.983, 8.415168
2590.912, 7.811318
2592.840, 7.038035
2594.769, 6.392726
2596.697, 7.647072
2598.626, 8.372208
2600.554, 8.002227
2602.483, 6.768113
2604.411, 6.208891
2606.340, 6.784886
2608.268, 9.309631
2610.197, 10.15414
2612.125, 8.809891
2614.053, 7.887445
2615.982, 7.269317
2617.910, 7.059289
2619.839, 8.126119
2621.767, 8.559856
2623.696, 8.178829
2625.624, 8.444221
2627.553, 8.114508
2629.481, 7.288755
2631.410, 7.334520
2633.338, 7.325643
2635.267, 7.231761
2637.195, 7.651400
2639.124, 8.044092
2641.052, 8.069317
2642.980, 6.794713
2644.909, 6.614456
2646.837, 7.379994
2648.766, 8.083045
2650.694, 8.144236
2652.623, 8.163138
2654.551, 10.01368
2656.480, 9.064167
2658.408, 7.126657
2660.337, 7.756326
2662.265, 8.786268
2664.194, 9.043406
2666.122, 7.197539
2668.051, 7.206773
2669.979, 7.540337
2671.907, 6.300791
2673.836, 5.919099
2675.764, 6.010274
2677.693, 6.092757
2679.621, 6.020518
2681.550, 5.902329
2683.478, 6.410666
2685.407, 6.035624
2687.335, 6.765969
2689.264, 8.069424
2691.192, 7.203887
2693.121, 6.510229
2695.049, 6.885718
2696.978, 8.497762
2698.906, 8.704974
2700.834, 7.288868
2702.763, 5.932726
2704.691, 6.090813
2706.620, 5.160551
2708.548, 5.035239
2710.477, 4.716141
2712.405, 5.629945
2714.334, 5.825995
2716.262, 6.893915
2718.191, 7.976843
2720.119, 7.607593
2722.048, 7.632255
2723.976, 7.447670
2725.905, 6.021399
2727.833, 7.413099
2729.761, 7.938131
2731.690, 5.130988
2733.618, 5.400267
2735.547, 6.608453
2737.475, 7.775266
2739.404, 8.356718
2741.332, 8.032490
2743.261, 7.004014
2745.189, 6.163980
2747.118, 5.436099
2749.046, 5.082024
2750.975, 5.752762
2752.903, 6.010087
2754.832, 6.059223
2756.760, 6.320951
2758.688, 5.615680
2760.617, 5.655819
2762.545, 7.353528
2764.474, 5.926340
2766.402, 4.850812
2768.331, 5.452274
2770.259, 7.011314
2772.188, 7.943209
2774.116, 7.965120
2776.045, 7.287583
2777.973, 7.042006
2779.902, 6.837717
2781.830, 5.640792
2783.759, 4.303931
2785.687, 4.104920
2787.615, 6.929338
2789.544, 6.506676
2791.472, 5.916378
2793.401, 6.627799
2795.329, 4.160352
2797.258, 3.275792
2799.186, 4.583198
2801.115, 5.699209
2803.043, 6.894099
2804.972, 7.623750
2806.900, 7.034947
2808.829, 5.468375
2810.757, 4.847744
2812.686, 6.352705
2814.614, 7.215602
2816.542, 6.360431
2818.471, 4.062972
2820.399, 4.614082
2822.328, 4.690526
2824.256, 4.063821
2826.185, 3.776384
2828.113, 5.215300
2830.042, 6.616553
2831.970, 6.045245
2833.899, 5.700003
2835.827, 5.720395
2837.756, 5.949551
2839.684, 5.299691
2841.613, 4.657353
2843.541, 4.440356
2845.469, 5.380552
2847.398, 4.861260
2849.326, 3.976948
2851.255, 4.231267
2853.183, 6.537063
2855.112, 7.671681
2857.040, 6.065218
2858.969, 3.225146
2860.897, 3.230079
2862.826, 5.137702
2864.754, 4.669190
2866.683, 4.489594
2868.611, 4.717411
2870.540, 5.125490
2872.468, 5.498680
2874.396, 5.681836
2876.325, 5.765776
2878.253, 7.134865
2880.182, 6.348156
2882.110, 4.816094
2884.039, 5.981236
2885.967, 4.493829
2887.896, 2.981154
2889.824, 3.288937
2891.753, 4.615800
2893.681, 5.825603
2895.610, 6.356306
2897.538, 5.372903
2899.467, 5.170123
2901.395, 5.358211
2903.323, 5.292471
2905.252, 6.595281
2907.180, 5.931598
2909.109, 5.809117
2911.037, 3.306151
2912.966, 4.313098
2914.894, 5.017796
2916.823, 3.634176
2918.751, 4.945240
2920.680, 5.995868
2922.608, 5.434773
2924.537, 5.217260
2926.465, 4.649259
2928.394, 3.919251
2930.322, 3.412506
2932.250, 4.488722
2934.179, 5.036550
2936.107, 4.010398
2938.036, 3.804494
2939.964, 3.448134
2941.893, 3.315945
2943.821, 4.364225
2945.750, 5.762860
2947.678, 5.757400
2949.607, 4.126516
2951.535, 5.217666
2953.464, 4.731108
2955.392, 3.377414
2957.321, 4.020122
2959.249, 3.808432
2961.177, 2.920247
2963.106, 1.872841
2965.034, 2.039876
2966.963, 3.279033
2968.891, 4.622270
2970.820, 4.620171
2972.748, 5.675483
2974.677, 5.416415
2976.605, 3.393736
2978.534, 2.269466
2980.462, 2.901593
2982.391, 4.228563
2984.319, 5.090135
2986.248, 4.760450
2988.176, 4.190915
2990.104, 3.884911
2992.033, 4.234010
2993.961, 5.033779
2995.890, 5.254444
2997.818, 4.225575
2999.747, 3.212171
3001.675, 2.993412
3003.604, 3.198090
3005.532, 2.775656
3007.461, 5.048128
3009.389, 4.934788
3011.318, 5.402644
3013.246, 2.955431
3015.175, 4.753212
3017.103, 4.720721
3019.031, 1.889500
3020.960, 3.209714
3022.888, 4.102962
3024.817, 3.787283
3026.745, 4.448318
3028.674, 4.086803
3030.602, 3.570847
3032.531, 3.369012
3034.459, 2.044747
3036.388, 3.265491
3038.316, 5.291847
3040.245, 5.539063
3042.173, 2.747531
3044.102, 1.405703
3046.030, 2.030449
3047.958, 2.659930
3049.887, 3.760771
3051.815, 4.630967
3053.744, 4.837653
3055.672, 4.333298
3057.601, 3.022408
3059.529, 2.041494
3061.458, 2.297455
3063.386, 3.705468
3065.315, 3.174327
3067.243, 2.182456
3069.172, 4.119889
3071.100, 2.611049
3073.029, 1.553323
3074.957, 2.200757
3076.885, 3.158116
3078.814, 3.699295
3080.742, 3.409805
3082.671, 2.492007
3084.599, 2.488309
3086.528, 1.736290
3088.456, 0.9456030
3090.385, 1.256340
3092.313, 0.2319191
3094.242, 1.507663
3096.170, 3.496886
3098.099, 4.376605
3100.027, 2.348975
3101.956, 1.062082
3103.884, 1.439413
3105.813, 3.329827
3107.741, 1.974961
3109.669, 1.882176
3111.598, 3.597713
3113.526, 2.079256
3115.455, 2.751990
3117.383, 4.016202
3119.312, 4.190683
3121.240, 4.037652
3123.169, 4.214989
3125.097, 2.702079
3127.026, 3.781406
3128.954, 2.696461
3130.883, 2.799217
3132.811, 4.269560
3134.740, 6.072291
3136.668, 3.141139
3138.596, -0.6185957
3140.525, -2.331591
3142.453, -0.4055791
3144.382, -0.2533896
3146.310, 1.742924
3148.239, 2.208774
3150.167, 3.535188
3152.096, 3.335935
3154.024, 4.034624
3155.953, 4.465010
3157.881, 2.431136
3159.810, 1.589591
3161.738, 1.593563
3163.667, 1.879722
3165.595, 1.795690
3167.523, 1.790927
3169.452, 1.277797
3171.380, 0.7035984
3173.309, 1.075087
3175.237, 2.322495
3177.166, 2.891378
3179.094, 2.772995
3181.023, 2.853580
3182.951, 4.152014
3184.880, 3.094263
3186.808, 1.128220
3188.737, 2.547391
3190.665, 2.314958
3192.594, 4.246998
3194.522, 6.005573
3196.450, 1.928895
3198.379, 0.7899700
3200.307, 0.8999773
3202.236, 1.227467
3204.164, 1.337607
3206.093, 2.696321
3208.021, 3.066069
3209.950, 2.125840
3211.878, 2.707180
3213.807, 1.465178
3215.735, 2.195500
3217.664, 1.970253
3219.592, 1.500594
3221.521, 1.930343
3223.449, 1.002930
3225.377, 0.5050548
3227.306, 2.316835
3229.234, 3.675748
3231.163, 1.729634
3233.091, 0.7277200
3235.020, 3.156996
3236.948, 2.034921
3238.877, 1.406863
3240.805, 1.350438
3242.734, 1.322322
3244.662, 1.487383
3246.591, 0.9391353
3248.519, 2.472327
3250.448, 3.875973
3252.376, 4.874867
3254.304, 2.597422
3256.233, 1.813399
3258.161, 2.416541
3260.090, 1.120136
3262.018, 0.4541477
3263.947, 1.130457
3265.875, 2.222057
3267.804, 2.506044
3269.732, 2.121562
3271.661, 0.2585071
3273.589, -1.073678
3275.518, -0.3363745
3277.446, 1.099459
3279.375, 0.9286184
3281.303, 0.3917018
3283.231, 0.5189119
3285.160, 0.3236422
3287.088, 0.8830767
3289.017, 0.3261205
3290.945, 0.4760824
3292.874, 0.6188430
3294.802, 3.548754
3296.731, 2.924535
3298.659, 1.760644
3300.588, 3.666892
3302.516, 2.337345
3304.445, 1.412523
3306.373, 0.9557196
3308.302, 0.8107660
3310.230, 2.034782
3312.158, 0.3746648
3314.087, 1.239661
3316.015, -1.336855
3317.944, 1.530545
3319.872, 1.057484
3321.801, 0.8748692
3323.729, 1.060724
3325.658, 1.083465
3327.586, 2.772239
3329.515, 0.9523510
3331.443, 0.9445551
3333.372, 2.420983
3335.300, -1.794192
3337.229, 0.4310454
3339.157, 1.499707
3341.085, 1.712507
3343.014, 3.418602
3344.942, 3.001018
3346.871, 2.173676
3348.799, 1.348659
3350.728, 1.018216
3352.656, 2.063509
3354.585, 2.404154
3356.513, 0.8951671
3358.442, -0.3203785
3360.370, 0.7325433
3362.299, 0.9037672
3364.227, 0.7920968
3366.156, 1.328700
3368.084, 1.937975
3370.012, 0.2742477
3371.941, 1.834373
3373.869, 1.536750
3375.798, 0.5332497
3377.726, 0.9569310
3379.655, 1.280287
3381.583, 0.7617582
3383.512, -0.8899255
3385.440, -2.185037
3387.369, -0.6097724
3389.297, 1.633158
3391.226, 2.135550
3393.154, 1.296579
3395.083, 0.2209402
3397.011, 0.3866698
3398.939, 0.6595883
3400.868, 0.3441460
3402.796, 0.7693493
3404.725, 0.5628327
3406.653, 1.119148
3408.582, 1.406973
3410.510, 1.208903
3412.439, 0.6148798
3414.367, -0.1742768
3416.296, 0.6153432
3418.224, 0.4175166
3420.153, 2.600590
3422.081, 1.385922
3424.010, 1.399724
3425.938, 2.228555
3427.866, 1.466650
3429.795, 2.9542020E-02
3431.723, -0.7050925
3433.652, -0.7055151
3435.580, 0.5163513
3437.509, 0.3388772
3439.437, -0.5941855
3441.366, -0.4919521
3443.294, 2.069334
3445.223, 1.583311
3447.151, 1.173422
3449.080, 1.461311
3451.008, 1.180063
3452.937, 2.932667
3454.865, 1.615114
3456.793, -0.1827815
##END=



