##NAMES=Harmotome
##RRUFFID=R070016
##IDEAL CHEMISTRY=Ba_2_(Si_12_Al_4_)O_32_·12H_2_O
##LOCALITY=Idar-Oberstein, Germany
##OWNER=RRUFF
##SOURCE=Michael Scott
##DESCRIPTION=Colorless to milky-white prismatic crystals
##STATUS=The identification of this mineral has been made only by X-ray diffraction
##URL=https://www.rruff.net/odr/rruff_sample/R070016
##DIFFRACTION SAMPLE DESCRIPTION=Powder
##CELL PARAMETERS=a: 9.865 b: 14.1254 c: 8.693 alpha: 90 beta: 124.7 gamma: 90 volume: 996 crystal system: monoclinic
##FILETYPE=Raman Processed
##RAMAN WAVELENGTH=532

86.29349, 238.2245
88.22195, 249.4419
90.15042, 266.6433
92.07889, 291.2618
94.00735, 321.2890
95.93582, 353.1030
97.86429, 389.5630
99.79276, 442.0614
101.7212, 510.9589
103.6497, 596.6081
105.5782, 702.3667
107.5066, 822.8172
109.4351, 967.5342
111.3636, 1138.443
113.2920, 1334.736
115.2205, 1556.363
117.1490, 1784.714
119.0774, 2046.811
121.0059, 2360.176
122.9344, 2737.510
124.8628, 3152.289
126.7913, 3604.450
128.7198, 4102.995
130.6482, 4592.702
132.5767, 5083.893
134.5052, 5560.214
136.4336, 5994.337
138.3621, 6362.786
140.2906, 6710.048
142.2190, 7048.129
144.1475, 7379.614
146.0760, 7686.502
148.0044, 7957.609
149.9329, 8203.782
151.8614, 8443.399
153.7898, 8687.909
155.7183, 8915.241
157.6468, 9113.175
159.5752, 9274.721
161.5037, 9438.812
163.4322, 9616.711
165.3606, 9800.872
167.2891, 9970.620
169.2176, 10119.96
171.1460, 10260.99
173.0745, 10400.74
175.0030, 10549.44
176.9314, 10679.44
178.8599, 10784.62
180.7884, 10869.20
182.7168, 10944.98
184.6453, 11032.35
186.5738, 11094.62
188.5022, 11108.28
190.4307, 11070.08
192.3592, 11010.02
194.2876, 10933.70
196.2161, 10839.55
198.1446, 10716.76
200.0730, 10564.38
202.0015, 10390.25
203.9300, 10189.78
205.8584, 9958.571
207.7869, 9731.336
209.7154, 9515.229
211.6438, 9310.545
213.5723, 9106.714
215.5008, 8888.394
217.4292, 8686.192
219.3577, 8512.995
221.2862, 8379.521
223.2146, 8251.061
225.1431, 8123.801
227.0716, 7998.378
229.0000, 7876.836
230.9285, 7745.682
232.8570, 7635.286
234.7854, 7560.379
236.7139, 7550.814
238.6424, 7524.762
240.5708, 7464.557
242.4993, 7390.744
244.4278, 7334.839
246.3562, 7316.051
248.2847, 7299.893
250.2132, 7272.239
252.1416, 7230.732
254.0701, 7202.359
255.9986, 7197.485
257.9271, 7205.747
259.8555, 7215.906
261.7840, 7229.849
263.7125, 7244.237
265.6409, 7260.785
267.5694, 7278.955
269.4979, 7289.554
271.4263, 7284.643
273.3548, 7274.094
275.2833, 7267.463
277.2117, 7264.381
279.1402, 7265.080
281.0687, 7272.372
282.9971, 7285.147
284.9256, 7294.525
286.8541, 7293.157
288.7825, 7292.283
290.7110, 7300.716
292.6395, 7317.313
294.5679, 7342.504
296.4964, 7383.270
298.4249, 7435.423
300.3533, 7474.426
302.2818, 7487.566
304.2103, 7500.292
306.1387, 7525.511
308.0672, 7563.384
309.9957, 7605.597
311.9241, 7653.226
313.8526, 7703.985
315.7811, 7751.283
317.7095, 7793.146
319.6380, 7835.470
321.5665, 7884.983
323.4949, 7945.727
325.4234, 7981.892
327.3519, 7977.083
329.2803, 7959.485
331.2088, 7958.560
333.1373, 7984.605
335.0657, 7992.000
336.9942, 7967.555
338.9227, 7913.589
340.8511, 7852.995
342.7796, 7779.591
344.7081, 7702.960
346.6365, 7629.189
348.5650, 7557.243
350.4935, 7493.704
352.4219, 7442.252
354.3504, 7398.454
356.2789, 7352.597
358.2073, 7297.638
360.1358, 7250.114
362.0643, 7217.188
363.9927, 7200.515
365.9212, 7193.408
367.8497, 7197.612
369.7781, 7206.848
371.7066, 7214.330
373.6351, 7216.926
375.5635, 7226.745
377.4920, 7248.101
379.4205, 7278.583
381.3489, 7313.449
383.2774, 7351.347
385.2059, 7397.253
387.1343, 7445.980
389.0628, 7494.722
390.9913, 7558.436
392.9197, 7645.848
394.8482, 7746.208
396.7767, 7849.202
398.7051, 7954.175
400.6336, 8064.412
402.5621, 8173.534
404.4905, 8281.573
406.4190, 8411.237
408.3475, 8576.558
410.2759, 8756.147
412.2044, 8932.654
414.1329, 9102.912
416.0613, 9275.488
417.9898, 9456.790
419.9183, 9653.479
421.8467, 9862.495
423.7752, 10103.81
425.7037, 10332.20
427.6321, 10536.10
429.5606, 10715.72
431.4891, 10871.94
433.4175, 10987.96
435.3460, 11096.30
437.2745, 11204.06
439.2029, 11303.51
441.1314, 11418.29
443.0599, 11553.18
444.9883, 11708.83
446.9168, 11902.52
448.8453, 12149.77
450.7737, 12445.96
452.7022, 12778.52
454.6307, 13149.41
456.5591, 13555.12
458.4876, 14007.04
460.4161, 14508.38
462.3446, 15035.11
464.2730, 15594.20
466.2015, 16140.12
468.1300, 16683.73
470.0584, 17221.84
471.9869, 17741.53
473.9154, 18243.73
475.8438, 18680.85
477.7723, 19044.68
479.7008, 19339.54
481.6292, 19592.30
483.5577, 19867.25
485.4862, 20056.91
487.4146, 20097.49
489.3431, 19994.02
491.2716, 19768.29
493.2000, 19423.34
495.1285, 18961.37
497.0570, 18358.48
498.9854, 17604.68
500.9139, 16786.52
502.8424, 15917.37
504.7708, 15038.02
506.6993, 14199.97
508.6278, 13422.53
510.5562, 12697.82
512.4847, 12037.75
514.4131, 11453.49
516.3416, 10934.51
518.2701, 10485.82
520.1985, 10105.11
522.1270, 9776.079
524.0555, 9488.043
525.9839, 9249.044
527.9124, 9061.867
529.8409, 8907.336
531.7693, 8771.960
533.6978, 8656.757
535.6263, 8559.818
537.5547, 8474.847
539.4832, 8395.491
541.4117, 8313.990
543.3401, 8241.959
545.2686, 8187.235
547.1971, 8148.706
549.1255, 8110.201
551.0540, 8051.844
552.9825, 7977.956
554.9109, 7916.512
556.8394, 7875.353
558.7679, 7837.744
560.6964, 7783.323
562.6248, 7722.042
564.5533, 7664.664
566.4818, 7614.345
568.4102, 7567.761
570.3387, 7516.745
572.2672, 7454.206
574.1956, 7396.329
576.1241, 7362.468
578.0526, 7353.730
579.9811, 7348.066
581.9095, 7342.036
583.8380, 7332.020
585.7665, 7310.045
587.6949, 7266.710
589.6234, 7238.470
591.5519, 7239.814
593.4803, 7251.488
595.4088, 7250.170
597.3373, 7239.168
599.2657, 7232.696
601.1942, 7235.719
603.1227, 7243.434
605.0511, 7245.034
606.9796, 7237.609
608.9081, 7233.193
610.8365, 7238.992
612.7650, 7255.017
614.6935, 7271.218
616.6219, 7281.699
618.5504, 7282.327
620.4789, 7265.706
622.4073, 7243.930
624.3358, 7244.708
626.2643, 7287.029
628.1927, 7329.820
630.1212, 7345.925
632.0497, 7342.274
633.9781, 7341.891
635.9066, 7343.363
637.8351, 7340.017
639.7635, 7340.764
641.6920, 7357.824
643.6205, 7374.616
645.5490, 7382.649
647.4774, 7380.396
649.4059, 7383.082
651.3344, 7395.265
653.2628, 7402.580
655.1913, 7397.814
657.1198, 7385.463
659.0482, 7376.041
660.9767, 7372.239
662.9052, 7376.185
664.8336, 7390.057
666.7621, 7397.840
668.6906, 7406.299
670.6190, 7422.408
672.5475, 7443.233
674.4760, 7465.614
676.4044, 7484.271
678.3329, 7496.619
680.2614, 7499.540
682.1898, 7500.007
684.1183, 7497.197
686.0468, 7486.561
687.9752, 7484.574
689.9037, 7494.955
691.8322, 7512.259
693.7606, 7531.078
695.6891, 7550.377
697.6176, 7571.886
699.5460, 7597.570
701.4745, 7623.879
703.4030, 7648.667
705.3314, 7677.857
707.2599, 7711.117
709.1884, 7747.672
711.1168, 7785.773
713.0453, 7830.750
714.9738, 7887.520
716.9022, 7940.103
718.8307, 7978.574
720.7592, 8011.771
722.6876, 8060.088
724.6161, 8139.483
726.5446, 8197.239
728.4730, 8204.759
730.4015, 8189.875
732.3300, 8190.638
734.2584, 8217.609
736.1869, 8242.668
738.1154, 8266.194
740.0438, 8283.266
741.9723, 8280.335
743.9008, 8238.941
745.8292, 8214.326
747.7577, 8241.837
749.6862, 8296.043
751.6146, 8324.015
753.5431, 8295.388
755.4716, 8280.655
757.4000, 8302.657
759.3285, 8350.881
761.2570, 8390.753
763.1854, 8417.007
765.1139, 8446.675
767.0424, 8496.353
768.9708, 8554.797
770.8993, 8587.848
772.8278, 8579.403
774.7562, 8561.463
776.6847, 8535.988
778.6132, 8505.173
780.5416, 8482.715
782.4701, 8484.135
784.3986, 8468.061
786.3270, 8400.154
788.2555, 8297.307
790.1840, 8225.012
792.1124, 8218.976
794.0409, 8212.438
795.9694, 8183.290
797.8978, 8128.896
799.8263, 8074.649
801.7548, 8018.630
803.6832, 7966.300
805.6117, 7913.394
807.5402, 7864.709
809.4686, 7839.931
811.3971, 7868.075
813.3256, 7888.358
815.2540, 7876.383
817.1825, 7837.622
819.1110, 7809.969
821.0394, 7796.412
822.9679, 7789.521
824.8964, 7788.002
826.8248, 7790.552
828.7533, 7791.534
830.6818, 7786.662
832.6102, 7785.464
834.5387, 7794.452
836.4672, 7808.408
838.3956, 7813.407
840.3241, 7804.224
842.2526, 7798.345
844.1810, 7812.111
846.1095, 7832.905
848.0380, 7840.131
849.9664, 7822.646
851.8949, 7816.095
853.8234, 7827.831
855.7518, 7851.158
857.6803, 7873.863
859.6088, 7891.959
861.5372, 7904.518
863.4657, 7920.052
865.3942, 7940.161
867.3226, 7950.535
869.2511, 7946.602
871.1796, 7942.160
873.1080, 7939.763
875.0365, 7944.621
876.9650, 7956.193
878.8934, 7971.441
880.8219, 7986.281
882.7504, 8010.992
884.6788, 8036.398
886.6073, 8037.528
888.5358, 8013.743
890.4642, 8000.741
892.3927, 8009.899
894.3212, 8026.185
896.2496, 8056.144
898.1781, 8103.520
900.1066, 8143.267
902.0350, 8163.838
903.9635, 8157.856
905.8920, 8139.421
907.8204, 8123.418
909.7489, 8127.661
911.6774, 8157.067
913.6058, 8196.504
915.5343, 8229.120
917.4628, 8249.292
919.3912, 8262.009
921.3197, 8271.359
923.2482, 8285.066
925.1766, 8313.604
927.1051, 8344.221
929.0336, 8358.163
930.9620, 8348.130
932.8905, 8344.669
934.8190, 8362.802
936.7474, 8384.867
938.6759, 8400.315
940.6044, 8405.901
942.5328, 8408.113
944.4613, 8416.764
946.3898, 8442.454
948.3182, 8472.928
950.2467, 8495.786
952.1752, 8504.190
954.1036, 8514.339
956.0321, 8546.364
957.9606, 8588.131
959.8890, 8625.058
961.8175, 8642.448
963.7460, 8643.266
965.6744, 8652.222
967.6029, 8676.587
969.5314, 8705.796
971.4598, 8732.303
973.3883, 8761.961
975.3168, 8803.170
977.2452, 8845.144
979.1737, 8893.324
981.1022, 8952.217
983.0306, 9018.891
984.9591, 9067.516
986.8876, 9113.552
988.8160, 9160.609
990.7445, 9200.176
992.6730, 9232.195
994.6014, 9273.863
996.5299, 9327.624
998.4584, 9373.496
1000.387, 9407.504
1002.315, 9435.287
1004.244, 9458.342
1006.172, 9500.284
1008.101, 9579.414
1010.029, 9663.496
1011.958, 9717.757
1013.886, 9723.077
1015.815, 9732.739
1017.743, 9760.404
1019.672, 9812.728
1021.600, 9867.282
1023.528, 9908.273
1025.457, 9931.426
1027.385, 9972.096
1029.314, 10031.30
1031.242, 10078.99
1033.171, 10112.17
1035.099, 10135.48
1037.028, 10135.48
1038.956, 10135.34
1040.885, 10150.86
1042.813, 10176.13
1044.742, 10204.55
1046.670, 10246.67
1048.599, 10282.16
1050.527, 10284.85
1052.455, 10279.33
1054.384, 10295.85
1056.312, 10338.58
1058.241, 10383.38
1060.169, 10429.78
1062.098, 10478.68
1064.026, 10525.97
1065.955, 10570.14
1067.883, 10618.76
1069.812, 10670.88
1071.740, 10718.29
1073.669, 10770.11
1075.597, 10837.32
1077.526, 10919.21
1079.454, 11017.69
1081.382, 11109.45
1083.311, 11185.29
1085.239, 11250.56
1087.168, 11315.39
1089.096, 11381.56
1091.025, 11446.58
1092.953, 11510.73
1094.882, 11566.92
1096.810, 11614.89
1098.739, 11656.31
1100.667, 11698.44
1102.596, 11737.11
1104.524, 11752.74
1106.453, 11768.89
1108.381, 11803.36
1110.309, 11821.05
1112.238, 11797.49
1114.166, 11758.64
1116.095, 11739.79
1118.023, 11735.13
1119.952, 11717.16
1121.880, 11674.14
1123.809, 11638.30
1125.737, 11624.89
1127.666, 11611.47
1129.594, 11581.37
1131.523, 11530.23
1133.451, 11484.43
1135.380, 11433.57
1137.308, 11377.21
1139.236, 11343.12
1141.165, 11337.10
1143.093, 11307.19
1145.022, 11231.90
1146.950, 11153.96
1148.879, 11095.30
1150.807, 11051.11
1152.736, 11012.28
1154.664, 10984.20
1156.593, 10952.65
1158.521, 10905.85
1160.450, 10854.99
1162.378, 10819.31
1164.307, 10805.35
1166.235, 10781.31
1168.163, 10732.55
1170.092, 10689.97
1172.020, 10672.67
1173.949, 10671.94
1175.877, 10656.17
1177.806, 10621.23
1179.734, 10580.17
1181.663, 10526.34
1183.591, 10473.79
1185.520, 10443.30
1187.448, 10440.33
1189.377, 10433.22
1191.305, 10411.28
1193.234, 10388.72
1195.162, 10371.94
1197.090, 10360.59
1199.019, 10354.23
1200.947, 10357.57
1202.876, 10360.32
1204.804, 10358.11
1206.733, 10353.12
1208.661, 10352.45
1210.590, 10358.22
1212.518, 10360.21
1214.447, 10347.59
1216.375, 10338.79
1218.304, 10350.35
1220.232, 10378.18
1222.161, 10395.95
1224.089, 10390.50
1226.017, 10393.18
1227.946, 10422.40
1229.874, 10464.98
1231.803, 10494.74
1233.731, 10504.11
1235.660, 10513.25
1237.588, 10525.86
1239.517, 10535.73
1241.445, 10538.58
1243.374, 10535.37
1245.302, 10532.58
1247.231, 10526.48
1249.159, 10536.46
1251.088, 10580.13
1253.016, 10631.53
1254.944, 10663.65
1256.873, 10676.51
1258.801, 10683.79
1260.730, 10680.68
1262.658, 10681.40
1264.587, 10697.85
1266.515, 10721.92
1268.444, 10735.24
1270.372, 10736.77
1272.301, 10745.33
1274.229, 10771.37
1276.158, 10793.70
1278.086, 10790.26
1280.015, 10761.27
1281.943, 10762.17
1283.871, 10804.52
1285.800, 10852.83
1287.728, 10898.56
1289.657, 10934.57
1291.585, 10957.03
1293.514, 10985.56
1295.442, 11014.84
1297.371, 11039.46
1299.299, 11045.01
1301.228, 11017.71
1303.156, 10981.41
1305.085, 10983.03
1307.013, 11033.58
1308.942, 11078.79
1310.870, 11100.59
1312.798, 11113.05
1314.727, 11121.21
1316.655, 11128.45
1318.584, 11155.11
1320.512, 11217.66
1322.441, 11274.14
1324.369, 11302.97
1326.298, 11312.65
1328.226, 11334.26
1330.155, 11398.57
1332.083, 11432.70
1334.012, 11412.86
1335.940, 11386.05
1337.869, 11380.76
1339.797, 11388.52
1341.726, 11402.03
1343.654, 11453.92
1345.583, 11505.43
1347.511, 11537.61
1349.439, 11552.68
1351.368, 11554.99
1353.296, 11546.01
1355.225, 11549.32
1357.153, 11572.35
1359.082, 11595.45
1361.010, 11610.30
1362.939, 11618.74
1364.867, 11625.21
1366.796, 11637.84
1368.724, 11653.42
1370.653, 11659.79
1372.581, 11669.50
1374.510, 11690.88
1376.438, 11720.51
1378.366, 11746.93
1380.295, 11760.55
1382.223, 11785.19
1384.152, 11835.87
1386.080, 11874.25
1388.009, 11885.68
1389.937, 11884.61
1391.866, 11890.23
1393.794, 11866.89
1395.723, 11866.63
1397.651, 11924.81
1399.580, 11982.04
1401.508, 11989.42
1403.437, 11958.04
1405.365, 11942.95
1407.293, 11950.62
1409.222, 11974.77
1411.150, 12017.57
1413.079, 12063.11
1415.007, 12095.70
1416.936, 12115.14
1418.864, 12136.45
1420.793, 12173.74
1422.721, 12200.69
1424.650, 12174.29
1426.578, 12139.03
1428.507, 12166.50
1430.435, 12269.65
1432.364, 12338.83
1434.292, 12314.45
1436.220, 12278.89
1438.149, 12269.30
1440.077, 12283.67
1442.006, 12320.01
1443.934, 12386.16
1445.863, 12434.35
1447.791, 12441.74
1449.720, 12440.44
1451.648, 12452.31
1453.577, 12476.80
1455.505, 12494.82
1457.434, 12496.83
1459.362, 12499.27
1461.291, 12510.39
1463.219, 12527.48
1465.147, 12546.80
1467.076, 12565.11
1469.004, 12587.27
1470.933, 12617.63
1472.861, 12638.60
1474.790, 12636.33
1476.718, 12631.05
1478.647, 12629.63
1480.575, 12647.21
1482.504, 12688.88
1484.432, 12744.27
1486.361, 12778.25
1488.289, 12789.60
1490.218, 12803.36
1492.146, 12826.44
1494.074, 12845.93
1496.003, 12839.58
1497.931, 12812.09
1499.860, 12809.34
1501.788, 12842.70
1503.717, 12881.10
1505.645, 12921.93
1507.574, 12963.71
1509.502, 13008.35
1511.431, 13053.90
1513.359, 13073.70
1515.288, 13050.07
1517.216, 13037.92
1519.145, 13060.63
1521.073, 13093.98
1523.001, 13122.63
1524.930, 13147.22
1526.858, 13173.72
1528.787, 13203.17
1530.715, 13233.46
1532.644, 13263.21
1534.572, 13291.80
1536.501, 13325.82
1538.429, 13363.27
1540.358, 13390.05
1542.286, 13392.97
1544.215, 13415.01
1546.143, 13480.29
1548.072, 13539.63
1550.000, 13566.09
1551.928, 13572.02
1553.857, 13585.29
1555.785, 13612.33
1557.714, 13628.94
1559.642, 13601.97
1561.571, 13605.78
1563.499, 13694.64
1565.428, 13808.92
1567.356, 13870.76
1569.285, 13874.50
1571.213, 13884.81
1573.142, 13902.29
1575.070, 13925.07
1576.999, 13948.38
1578.927, 13981.13
1580.855, 14037.08
1582.784, 14110.25
1584.712, 14166.28
1586.641, 14205.12
1588.569, 14228.70
1590.498, 14211.62
1592.426, 14206.37
1594.355, 14247.67
1596.283, 14319.09
1598.212, 14390.10
1600.140, 14464.32
1602.069, 14515.62
1603.997, 14522.08
1605.926, 14532.54
1607.854, 14561.76
1609.782, 14603.32
1611.711, 14646.61
1613.639, 14693.80
1615.568, 14771.32
1617.496, 14905.98
1619.425, 15007.68
1621.353, 15028.31
1623.282, 15034.55
1625.210, 15067.08
1627.139, 15119.09
1629.067, 15175.33
1630.996, 15237.65
1632.924, 15289.35
1634.853, 15312.00
1636.781, 15346.86
1638.709, 15429.43
1640.638, 15522.16
1642.566, 15575.91
1644.495, 15595.67
1646.423, 15620.66
1648.352, 15661.12
1650.280, 15684.41
1652.209, 15664.24
1654.137, 15641.30
1656.066, 15652.24
1657.994, 15676.41
1659.923, 15672.65
1661.851, 15638.35
1663.780, 15608.02
1665.708, 15591.43
1667.636, 15569.77
1669.565, 15538.89
1671.493, 15497.26
1673.422, 15432.33
1675.350, 15353.26
1677.279, 15306.11
1679.207, 15302.58
1681.136, 15287.72
1683.064, 15235.93
1684.993, 15188.16
1686.921, 15167.55
1688.850, 15162.15
1690.778, 15156.24
1692.707, 15149.82
1694.635, 15140.11
1696.563, 15118.22
1698.492, 15115.21
1700.420, 15167.22
1702.349, 15213.12
1704.277, 15199.05
1706.206, 15153.95
1708.134, 15143.89
1710.063, 15171.68
1711.991, 15190.14
1713.920, 15183.14
1715.848, 15187.39
1717.777, 15215.55
1719.705, 15258.78
1721.634, 15318.63
1723.562, 15387.62
1725.490, 15443.56
1727.419, 15488.29
1729.347, 15508.14
1731.276, 15441.56
1733.204, 15434.76
1735.133, 15592.49
1737.061, 15787.34
1738.990, 15919.94
1740.918, 15985.74
1742.847, 15945.98
1744.775, 15748.79
1746.704, 15629.23
1748.632, 15675.98
1750.561, 15720.02
1752.489, 15678.12
1754.417, 15622.94
1756.346, 15640.54
1758.274, 15719.75
1760.203, 15774.17
1762.131, 15790.75
1764.060, 15814.64
1765.988, 15852.34
1767.917, 15892.27
1769.845, 15952.48
1771.774, 15996.26
1773.702, 15959.06
1775.631, 15858.63
1777.559, 15833.96
1779.488, 15942.98
1781.416, 16017.32
1783.344, 16038.07
1785.273, 16049.49
1787.201, 16051.05
1789.130, 16061.46
1791.058, 16111.07
1792.987, 16188.97
1794.915, 16233.08
1796.844, 16236.40
1798.772, 16225.60
1800.701, 16160.90
1802.629, 16137.78
1804.558, 16220.87
1806.486, 16316.39
1808.415, 16333.48
1810.343, 16301.61
1812.271, 16329.33
1814.200, 16429.63
1816.128, 16500.95
1818.057, 16526.59
1819.985, 16540.07
1821.914, 16540.28
1823.842, 16542.33
1825.771, 16551.74
1827.699, 16570.66
1829.628, 16605.46
1831.556, 16655.77
1833.485, 16712.14
1835.413, 16782.46
1837.342, 16828.98
1839.270, 16825.55
1841.198, 16819.00
1843.127, 16836.47
1845.055, 16864.25
1846.984, 16890.93
1848.912, 16914.19
1850.841, 16915.57
1852.769, 16884.00
1854.698, 16890.43
1856.626, 16973.71
1858.555, 17053.42
1860.483, 17101.09
1862.412, 17130.85
1864.340, 17148.34
1866.269, 17158.32
1868.197, 17173.35
1870.125, 17193.68
1872.054, 17217.81
1873.982, 17247.69
1875.911, 17278.30
1877.839, 17310.52
1879.768, 17341.36
1881.696, 17374.98
1883.625, 17402.44
1885.553, 17404.11
1887.482, 17383.54
1889.410, 17388.26
1891.339, 17431.54
1893.267, 17466.34
1895.196, 17472.35
1897.124, 17495.81
1899.052, 17572.81
1900.981, 17645.30
1902.909, 17669.28
1904.838, 17661.46
1906.766, 17650.50
1908.695, 17636.89
1910.623, 17636.10
1912.552, 17647.40
1914.480, 17679.26
1916.409, 17748.21
1918.337, 17812.52
1920.266, 17847.78
1922.194, 17875.37
1924.123, 17911.08
1926.051, 17954.12
1927.979, 18009.76
1929.908, 18078.03
1931.836, 18116.11
1933.765, 18105.54
1935.693, 18106.40
1937.622, 18138.71
1939.550, 18175.30
1941.479, 18206.23
1943.407, 18234.41
1945.336, 18269.12
1947.264, 18303.06
1949.193, 18306.12
1951.121, 18265.21
1953.050, 18261.29
1954.978, 18315.08
1956.906, 18371.04
1958.835, 18389.12
1960.763, 18453.33
1962.692, 18697.10
1964.620, 18912.73
1966.549, 18845.90
1968.477, 18602.48
1970.406, 18510.04
1972.334, 18567.67
1974.263, 18603.98
1976.191, 18599.13
1978.120, 18601.37
1980.048, 18613.08
1981.977, 18648.42
1983.905, 18741.31
1985.833, 18834.34
1987.762, 18882.78
1989.690, 18896.28
1991.619, 18879.82
1993.547, 18834.57
1995.476, 18839.51
1997.404, 18920.22
1999.333, 18985.98
2001.261, 19020.77
2003.190, 19053.82
2005.118, 19104.77
2007.047, 19142.78
2008.975, 19135.28
2010.904, 19110.65
2012.832, 19108.15
2014.760, 19126.19
2016.689, 19155.05
2018.617, 19197.12
2020.546, 19229.91
2022.474, 19244.66
2024.403, 19271.10
2026.331, 19331.52
2028.260, 19381.88
2030.188, 19392.84
2032.117, 19390.45
2034.045, 19389.37
2035.974, 19395.16
2037.902, 19422.79
2039.831, 19471.24
2041.759, 19516.64
2043.688, 19551.82
2045.616, 19603.75
2047.544, 19705.66
2049.473, 19777.63
2051.401, 19785.62
2053.330, 19780.02
2055.258, 19778.53
2057.187, 19785.70
2059.115, 19810.19
2061.044, 19847.29
2062.972, 19881.10
2064.901, 19911.73
2066.829, 19945.94
2068.758, 19986.27
2070.686, 20018.48
2072.615, 20037.93
2074.543, 20053.49
2076.471, 20059.18
2078.400, 20072.85
2080.328, 20104.22
2082.257, 20149.87
2084.185, 20224.29
2086.114, 20307.22
2088.042, 20326.64
2089.971, 20274.80
2091.899, 20253.73
2093.828, 20266.55
2095.756, 20304.64
2097.685, 20408.20
2099.613, 20469.98
2101.542, 20441.38
2103.470, 20395.54
2105.398, 20343.96
2107.327, 20311.71
2109.255, 20325.28
2111.184, 20373.75
2113.112, 20450.41
2115.041, 20546.91
2116.969, 20600.26
2118.898, 20602.52
2120.826, 20595.44
2122.755, 20569.37
2124.683, 20558.40
2126.612, 20568.58
2128.540, 20593.56
2130.469, 20651.06
2132.397, 20700.96
2134.325, 20697.21
2136.254, 20678.28
2138.182, 20699.49
2140.111, 20753.55
2142.039, 20820.59
2143.968, 20898.68
2145.896, 20943.63
2147.825, 20948.04
2149.753, 20944.95
2151.682, 20936.57
2153.610, 20928.76
2155.539, 20912.24
2157.467, 20911.10
2159.396, 20937.25
2161.324, 20982.85
2163.252, 21056.59
2165.181, 21135.88
2167.109, 21191.21
2169.038, 21219.73
2170.966, 21186.46
2172.895, 21089.03
2174.823, 21077.79
2176.752, 21179.85
2178.680, 21253.29
2180.609, 21269.45
2182.537, 21269.29
2184.466, 21246.00
2186.394, 21235.96
2188.323, 21257.89
2190.251, 21296.52
2192.179, 21350.33
2194.108, 21406.19
2196.036, 21441.96
2197.965, 21464.52
2199.893, 21504.54
2201.822, 21561.76
2203.750, 21573.14
2205.679, 21530.58
2207.607, 21505.07
2209.536, 21508.98
2211.464, 21513.33
2213.393, 21511.45
2215.321, 21508.49
2217.250, 21487.88
2219.178, 21489.79
2221.106, 21560.32
2223.035, 21641.88
2224.963, 21678.12
2226.892, 21687.24
2228.820, 21687.63
2230.749, 21688.45
2232.677, 21759.52
2234.606, 21895.93
2236.534, 21922.81
2238.463, 21815.02
2240.391, 21756.18
2242.320, 21779.41
2244.248, 21827.34
2246.177, 21912.41
2248.105, 21980.75
2250.033, 22014.75
2251.962, 22028.90
2253.890, 22007.01
2255.819, 21992.99
2257.747, 22046.86
2259.676, 22119.12
2261.604, 22122.29
2263.533, 22085.04
2265.461, 22098.28
2267.390, 22153.70
2269.318, 22190.64
2271.247, 22206.76
2273.175, 22194.69
2275.104, 22127.79
2277.032, 22101.50
2278.960, 22143.90
2280.889, 22198.09
2282.817, 22272.82
2284.746, 22331.70
2286.674, 22348.89
2288.603, 22362.36
2290.531, 22393.41
2292.460, 22430.76
2294.388, 22467.29
2296.317, 22501.85
2298.245, 22537.00
2300.174, 22568.01
2302.102, 22573.93
2304.031, 22556.83
2305.959, 22564.98
2307.887, 22607.72
2309.816, 22630.58
2311.744, 22625.87
2313.673, 22631.47
2315.601, 22651.21
2317.530, 22684.79
2319.458, 22753.60
2321.387, 22791.49
2323.315, 22722.22
2325.244, 22684.13
2327.172, 22782.41
2329.101, 22896.17
2331.029, 22934.99
2332.958, 22939.14
2334.886, 22947.03
2336.814, 22957.33
2338.743, 22976.24
2340.671, 22993.81
2342.600, 22962.83
2344.528, 22895.75
2346.457, 22891.35
2348.385, 22960.86
2350.314, 22999.13
2352.242, 22990.73
2354.171, 22976.24
2356.099, 22937.48
2358.028, 22931.44
2359.956, 22985.37
2361.885, 23027.18
2363.813, 23028.70
2365.741, 23033.21
2367.670, 23061.46
2369.598, 23096.19
2371.527, 23135.49
2373.455, 23168.17
2375.384, 23166.59
2377.312, 23168.85
2379.241, 23243.07
2381.169, 23342.85
2383.098, 23375.87
2385.026, 23360.30
2386.955, 23352.60
2388.883, 23351.36
2390.812, 23343.75
2392.740, 23329.38
2394.668, 23334.75
2396.597, 23362.55
2398.525, 23407.12
2400.454, 23496.39
2402.382, 23532.36
2404.311, 23474.76
2406.239, 23458.22
2408.168, 23532.90
2410.096, 23588.05
2412.025, 23569.99
2413.953, 23555.63
2415.882, 23579.95
2417.810, 23615.24
2419.739, 23656.41
2421.667, 23690.88
2423.595, 23703.51
2425.524, 23710.15
2427.452, 23732.26
2429.381, 23754.53
2431.309, 23743.93
2433.238, 23724.34
2435.166, 23747.21
2437.095, 23798.09
2439.023, 23823.13
2440.952, 23827.74
2442.880, 23875.22
2444.809, 23971.75
2446.737, 24004.95
2448.666, 23970.44
2450.594, 23954.06
2452.522, 23961.50
2454.451, 23997.90
2456.379, 24089.78
2458.308, 24126.04
2460.236, 24031.73
2462.165, 23980.85
2464.093, 24011.18
2466.022, 24062.21
2467.950, 24148.35
2469.879, 24205.46
2471.807, 24194.17
2473.736, 24175.96
2475.664, 24168.49
2477.593, 24181.35
2479.521, 24252.81
2481.449, 24309.47
2483.378, 24266.79
2485.306, 24207.63
2487.235, 24213.26
2489.163, 24252.09
2491.092, 24302.78
2493.020, 24347.83
2494.949, 24355.04
2496.877, 24338.80
2498.806, 24327.83
2500.734, 24322.14
2502.663, 24317.63
2504.591, 24317.20
2506.520, 24350.25
2508.448, 24411.73
2510.376, 24461.02
2512.305, 24496.65
2514.233, 24517.41
2516.162, 24520.97
2518.090, 24523.00
2520.019, 24521.97
2521.947, 24523.12
2523.876, 24522.54
2525.804, 24545.45
2527.733, 24605.11
2529.661, 24634.40
2531.590, 24591.12
2533.518, 24600.96
2535.447, 24754.57
2537.375, 24859.17
2539.303, 24845.97
2541.232, 24831.99
2543.160, 24843.60
2545.089, 24855.78
2547.017, 24853.40
2548.946, 24860.89
2550.874, 24895.53
2552.803, 24935.20
2554.731, 24975.34
2556.660, 25007.68
2558.588, 25037.52
2560.517, 25045.19
2562.445, 25002.49
2564.374, 24948.55
2566.302, 24878.19
2568.230, 24849.51
2570.159, 24978.78
2572.087, 25124.76
2574.016, 25071.84
2575.944, 24973.28
2577.873, 25084.58
2579.801, 25264.41
2581.730, 25274.58
2583.658, 25201.19
2585.587, 25183.11
2587.515, 25201.16
2589.444, 25213.99
2591.372, 25225.45
2593.301, 25251.98
2595.229, 25286.80
2597.157, 25293.43
2599.086, 25284.41
2601.014, 25316.55
2602.943, 25380.51
2604.871, 25407.82
2606.800, 25401.74
2608.728, 25415.09
2610.657, 25447.46
2612.585, 25478.95
2614.514, 25506.59
2616.442, 25474.77
2618.371, 25380.61
2620.299, 25373.04
2622.228, 25476.18
2624.156, 25521.90
2626.084, 25498.02
2628.013, 25497.79
2629.941, 25525.29
2631.870, 25551.27
2633.798, 25573.74
2635.727, 25587.17
2637.655, 25574.79
2639.584, 25611.67
2641.512, 25733.69
2643.441, 25781.06
2645.369, 25729.90
2647.298, 25695.77
2649.226, 25693.03
2651.155, 25709.29
2653.083, 25757.08
2655.011, 25786.68
2656.940, 25773.86
2658.868, 25799.05
2660.797, 25889.56
2662.725, 25930.24
2664.654, 25877.97
2666.582, 25865.29
2668.511, 25959.33
2670.439, 26014.65
2672.368, 25978.70
2674.296, 25973.45
2676.225, 26023.99
2678.153, 26067.05
2680.082, 26093.32
2682.010, 26100.30
2683.938, 26065.05
2685.867, 26050.24
2687.795, 26088.55
2689.724, 26103.19
2691.652, 26061.62
2693.581, 26064.28
2695.509, 26163.35
2697.438, 26230.46
2699.366, 26189.45
2701.295, 26183.45
2703.223, 26292.59
2705.152, 26333.72
2707.080, 26240.79
2709.009, 26188.10
2710.937, 26239.61
2712.865, 26285.56
2714.794, 26285.43
2716.722, 26294.92
2718.651, 26333.69
2720.579, 26362.34
2722.508, 26371.75
2724.436, 26378.31
2726.365, 26387.26
2728.293, 26391.36
2730.222, 26374.92
2732.150, 26378.77
2734.079, 26411.74
2736.007, 26459.63
2737.936, 26533.76
2739.864, 26575.13
2741.792, 26540.70
2743.721, 26538.46
2745.649, 26645.29
2747.578, 26673.99
2749.506, 26561.98
2751.435, 26516.76
2753.363, 26595.32
2755.292, 26658.72
2757.220, 26661.72
2759.149, 26683.22
2761.077, 26743.52
2763.006, 26793.49
2764.934, 26827.99
2766.863, 26860.55
2768.791, 26898.89
2770.719, 26909.29
2772.648, 26848.24
2774.576, 26852.25
2776.505, 26948.62
2778.433, 27003.75
2780.362, 27002.51
2782.290, 26999.64
2784.219, 26995.68
2786.147, 27028.63
2788.076, 27135.96
2790.004, 27136.52
2791.933, 27015.60
2793.861, 26992.53
2795.790, 27084.45
2797.718, 27100.99
2799.646, 27014.65
2801.575, 27009.64
2803.504, 27094.02
2805.432, 27128.06
2807.361, 27116.54
2809.289, 27132.90
2811.218, 27176.88
2813.146, 27195.66
2815.074, 27192.50
2817.003, 27208.23
2818.931, 27238.26
2820.860, 27246.66
2822.788, 27246.30
2824.717, 27288.82
2826.645, 27362.61
2828.574, 27451.53
2830.502, 27529.46
2832.431, 27477.34
2834.359, 27380.82
2836.288, 27444.70
2838.216, 27569.65
2840.145, 27577.02
2842.073, 27530.35
2844.001, 27508.60
2845.930, 27519.71
2847.858, 27606.30
2849.787, 27695.10
2851.715, 27697.58
2853.644, 27673.29
2855.572, 27659.66
2857.501, 27673.20
2859.429, 27754.42
2861.358, 27829.02
2863.286, 27849.14
2865.215, 27842.74
2867.143, 27781.56
2869.072, 27768.81
2871.000, 27902.55
2872.928, 28000.86
2874.857, 27965.04
2876.785, 27925.49
2878.714, 27935.69
2880.642, 27937.66
2882.571, 27901.20
2884.499, 27903.59
2886.428, 27977.71
2888.356, 28030.90
2890.285, 28027.74
2892.213, 28035.97
2894.142, 28068.87
2896.070, 28070.09
2897.999, 28028.95
2899.927, 28040.67
2901.855, 28126.09
2903.784, 28183.39
2905.712, 28211.35
2907.641, 28186.01
2909.569, 28120.16
2911.498, 28153.45
2913.426, 28263.73
2915.355, 28279.01
2917.283, 28233.15
2919.212, 28276.24
2921.140, 28365.96
2923.069, 28403.91
2924.997, 28396.94
2926.926, 28296.92
2928.854, 28214.43
2930.782, 28380.83
2932.711, 28574.23
2934.639, 28521.32
2936.568, 28438.40
2938.496, 28511.31
2940.425, 28608.35
2942.353, 28662.27
2944.282, 28677.52
2946.210, 28641.71
2948.139, 28600.14
2950.067, 28542.34
2951.996, 28535.51
2953.924, 28647.95
2955.853, 28705.70
2957.781, 28665.28
2959.709, 28647.81
2961.638, 28671.40
2963.566, 28743.73
2965.495, 28888.33
2967.423, 28966.73
2969.352, 28975.79
2971.280, 28897.97
2973.209, 28744.58
2975.137, 28741.72
2977.066, 28861.03
2978.994, 28928.23
2980.923, 28957.45
2982.851, 28981.61
2984.780, 29004.09
2986.708, 29029.97
2988.636, 29057.81
2990.565, 29086.49
2992.493, 29114.95
2994.422, 29135.97
2996.350, 29164.86
2998.279, 29236.87
3000.207, 29283.27
3002.136, 29256.28
3004.064, 29223.21
3005.993, 29201.34
3007.921, 29191.15
3009.850, 29187.43
3011.778, 29208.92
3013.707, 29261.14
3015.635, 29319.20
3017.563, 29382.75
3019.492, 29423.41
3021.420, 29436.39
3023.349, 29482.39
3025.277, 29551.84
3027.206, 29568.24
3029.134, 29545.01
3031.063, 29522.73
3032.991, 29510.56
3034.920, 29529.80
3036.848, 29572.01
3038.777, 29643.30
3040.705, 29707.62
3042.634, 29719.35
3044.562, 29726.50
3046.490, 29766.29
3048.419, 29800.35
3050.347, 29802.52
3052.276, 29814.91
3054.204, 29858.41
3056.133, 29900.30
3058.061, 29939.02
3059.990, 29961.68
3061.918, 29959.57
3063.847, 30003.04
3065.775, 30099.97
3067.704, 30154.80
3069.632, 30169.87
3071.561, 30126.96
3073.489, 30069.82
3075.417, 30132.22
3077.346, 30245.56
3079.274, 30291.99
3081.203, 30323.90
3083.131, 30409.39
3085.060, 30479.58
3086.988, 30449.34
3088.917, 30448.39
3090.845, 30545.08
3092.774, 30634.62
3094.702, 30678.87
3096.631, 30713.83
3098.559, 30734.04
3100.488, 30800.50
3102.416, 30920.12
3104.344, 30961.36
3106.273, 30924.37
3108.201, 30904.23
3110.130, 30912.34
3112.058, 31022.21
3113.987, 31174.96
3115.915, 31287.84
3117.844, 31360.33
3119.772, 31367.50
3121.701, 31366.56
3123.629, 31373.97
3125.558, 31421.17
3127.486, 31559.96
3129.415, 31673.08
3131.343, 31736.11
3133.271, 31773.33
3135.200, 31776.14
3137.128, 31814.58
3139.057, 31890.46
3140.985, 32039.04
3142.914, 32231.75
3144.842, 32308.17
3146.771, 32319.81
3148.699, 32398.98
3150.628, 32491.80
3152.556, 32498.74
3154.485, 32518.09
3156.413, 32634.96
3158.342, 32780.52
3160.270, 32944.44
3162.198, 33079.17
3164.127, 33170.64
3166.055, 33234.08
3167.984, 33246.92
3169.912, 33329.11
3171.841, 33478.66
3173.769, 33591.28
3175.698, 33677.06
3177.626, 33811.45
3179.555, 33967.88
3181.483, 34087.22
3183.412, 34190.58
3185.340, 34289.07
3187.269, 34398.17
3189.197, 34517.51
3191.125, 34678.11
3193.054, 34937.16
3194.982, 35109.09
3196.911, 35043.61
3198.839, 35166.23
3200.768, 35490.20
3202.696, 35721.20
3204.625, 35858.37
3206.553, 36017.27
3208.482, 36184.63
3210.410, 36319.25
3212.339, 36449.68
3214.267, 36593.36
3216.196, 36770.07
3218.124, 37017.70
3220.052, 37265.17
3221.981, 37485.79
3223.909, 37714.53
3225.838, 37978.09
3227.766, 38186.20
3229.695, 38338.32
3231.623, 38562.66
3233.552, 38847.72
3235.480, 39106.38
3237.409, 39353.73
3239.337, 39653.71
3241.266, 39920.66
3243.194, 40014.84
3245.123, 40134.06
3247.051, 40435.15
3248.979, 40681.01
3250.908, 40769.65
3252.836, 40918.72
3254.765, 41187.31
3256.693, 41307.69
3258.622, 41308.54
3260.550, 41493.61
3262.479, 41782.00
3264.407, 41946.18
3266.336, 42062.61
3268.264, 42222.67
3270.193, 42383.72
3272.121, 42490.18
3274.050, 42647.12
3275.978, 42916.24
3277.906, 43106.75
3279.835, 43158.64
3281.763, 43208.40
3283.692, 43261.06
3285.620, 43366.73
3287.549, 43507.75
3289.477, 43648.31
3291.406, 43777.07
3293.334, 43839.67
3295.263, 43943.95
3297.191, 44221.88
3299.120, 44434.61
3301.048, 44471.45
3302.977, 44562.74
3304.905, 44740.00
3306.833, 44891.43
3308.762, 45023.07
3310.690, 45309.88
3312.619, 45660.40
3314.547, 45883.53
3316.476, 46061.24
3318.404, 46271.89
3320.333, 46480.29
3322.261, 46634.00
3324.190, 46876.37
3326.118, 47300.45
3328.047, 47692.62
3329.975, 48048.38
3331.904, 48366.09
3333.832, 48651.87
3335.760, 48884.85
3337.689, 49144.11
3339.617, 49549.97
3341.546, 50019.04
3343.474, 50550.57
3345.403, 51019.74
3347.331, 51369.92
3349.260, 51777.48
3351.188, 52301.73
3353.117, 52693.00
3355.045, 52985.28
3356.974, 53367.23
3358.902, 53821.06
3360.831, 54340.72
3362.759, 54885.38
3364.688, 55454.17
3366.616, 55971.25
3368.544, 56341.98
3370.473, 56808.89
3372.401, 57406.04
3374.330, 57877.98
3376.258, 58240.71
3378.187, 58701.29
3380.115, 59234.09
3382.044, 59833.72
3383.972, 60408.90
3385.901, 60876.58
3387.829, 61298.50
3389.758, 61669.66
3391.686, 62110.32
3393.615, 62662.23
3395.543, 63193.99
3397.471, 63701.91
3399.400, 64146.97
3401.328, 64565.11
3403.257, 64996.05
3405.185, 65448.40
3407.114, 65968.05
3409.042, 66412.85
3410.971, 66663.27
3412.899, 66995.33
3414.828, 67418.94
3416.756, 67737.30
3418.685, 67988.16
3420.613, 68342.79
3422.542, 68722.59
3424.470, 69061.58
3426.398, 69336.02
3428.327, 69437.84
3430.255, 69673.62
3432.184, 70106.14
3434.112, 70608.95
3436.041, 71147.87
3437.969, 71271.84
3439.898, 71206.95
3441.826, 71373.69
3443.755, 71663.80
3445.683, 72115.63
3447.612, 72401.69
3449.540, 72344.39
3451.469, 72404.99
3453.397, 72655.33
3455.325, 72864.20
3457.254, 73046.07
3459.182, 73274.66
3461.111, 73486.35
3463.039, 73566.45
3464.968, 73649.81
3466.896, 73847.45
3468.825, 73940.82
3470.753, 73883.20
3472.682, 73970.28
3474.610, 74188.63
3476.539, 74370.04
3478.467, 74512.84
3480.396, 74588.77
3482.324, 74666.15
3484.252, 74831.46
3486.181, 74898.93
3488.109, 74814.66
3490.038, 74864.04
3491.966, 75046.94
3493.895, 75071.59
3495.823, 75045.41
3497.752, 75163.88
3499.680, 75307.77
3501.609, 75410.61
3503.537, 75460.57
3505.466, 75424.46
3507.394, 75541.41
3509.323, 75806.97
3511.251, 75748.66
3513.179, 75537.73
3515.108, 75422.34
3517.036, 75409.61
3518.965, 75552.05
3520.893, 75660.80
3522.822, 75689.40
3524.750, 75626.70
3526.679, 75478.47
3528.607, 75252.11
3530.536, 75016.41
3532.464, 74927.23
3534.393, 74828.30
3536.321, 74623.70
3538.250, 74381.95
3540.178, 74117.75
3542.106, 73829.16
3544.035, 73514.52
3545.963, 73162.70
3547.892, 72795.59
3549.820, 72476.31
3551.749, 72102.66
3553.677, 71604.12
3555.606, 71043.52
3557.534, 70423.46
3559.463, 69875.02
3561.391, 69386.32
3563.320, 68936.93
3565.248, 68428.10
3567.177, 67666.26
3569.105, 66986.45
3571.033, 66555.27
3572.962, 66101.63
3574.890, 65589.48
3576.819, 65035.13
3578.747, 64469.74
3580.676, 63980.95
3582.604, 63511.99
3584.533, 62990.75
3586.461, 62549.82
3588.390, 62240.86
3590.318, 61831.84
3592.247, 61335.85
3594.175, 61059.23
3596.104, 60829.69
3598.032, 60366.04
3599.960, 59925.40
3601.889, 59649.34
3603.817, 59316.99
3605.746, 58873.96
3607.674, 58506.96
3609.603, 58169.76
3611.531, 57750.31
3613.460, 57287.75
3615.388, 56854.94
3617.317, 56294.27
3619.245, 55507.27
3621.174, 54836.12
3623.102, 54270.40
3625.031, 53699.20
3626.959, 53058.61
3628.887, 52219.13
3630.816, 51347.05
3632.744, 50483.09
3634.673, 49730.54
3636.601, 49101.18
3638.530, 48267.14
3640.458, 47345.07
3642.387, 46585.81
3644.315, 45818.09
3646.244, 44899.17
3648.172, 44078.03
3650.101, 43435.94
3652.029, 42728.56
3653.958, 41995.84
3655.886, 41350.18
3657.814, 40777.86
3659.743, 40296.45
3661.671, 39806.30
3663.600, 39267.45
3665.528, 38721.09
3667.457, 38189.35
3669.385, 37754.86
3671.314, 37393.18
3673.242, 37092.57
3675.171, 36824.71
3677.099, 36599.85
3679.028, 36346.32
3680.956, 36067.57
3682.885, 35793.24
3684.813, 35548.65
3686.741, 35377.30
3688.670, 35247.06
3690.598, 35189.38
3692.527, 35019.86
3694.455, 34747.07
3696.384, 34595.28
3698.312, 34528.55
3700.241, 34580.41
3702.169, 34532.57
3704.098, 34206.74
3706.026, 33998.25
3707.955, 33930.73
3709.883, 33813.93
3711.812, 33687.69
3713.740, 33623.32
3715.668, 33590.75
3717.597, 33603.04
3719.525, 33541.31
3721.454, 33401.63
3723.382, 33339.43
3725.311, 33309.52
3727.239, 33225.18
3729.168, 33151.82
3731.096, 33115.76
3733.025, 33130.53
3734.953, 33188.25
3736.882, 33081.02
3738.810, 32936.44
3740.739, 33012.33
3742.667, 33026.95
3744.595, 32812.71
3746.524, 32704.65
3748.452, 32721.47
3750.381, 32755.20
3752.309, 32763.37
3754.238, 32660.27
3756.166, 32557.92
3758.095, 32496.37
3760.023, 32447.32
3761.952, 32410.68
3763.880, 32429.58
3765.809, 32456.14
3767.737, 32418.54
3769.666, 32411.49
3771.594, 32482.61
3773.522, 32441.98
3775.451, 32317.52
3777.379, 32281.62
3779.308, 32272.50
3781.236, 32222.24
3783.165, 32216.58
3785.093, 32283.40
3787.022, 32304.89
3788.950, 32285.34
3790.879, 32227.60
3792.807, 32177.42
3794.736, 32171.54
3796.664, 32167.70
3798.593, 32159.72
3800.521, 32092.40
3802.449, 32032.98
3804.378, 32153.57
3806.306, 32199.25
3808.235, 32024.17
3810.163, 31941.12
3812.092, 31969.08
3814.020, 31993.80
3815.949, 32030.10
3817.877, 32128.48
3819.806, 32154.79
3821.734, 32071.55
3823.663, 32071.71
3825.591, 32122.24
3827.520, 32074.51
3829.448, 32023.59
3831.376, 32045.45
3833.305, 32050.28
3835.233, 32032.94
3837.162, 32110.17
3839.090, 32187.12
3841.019, 32057.33
3842.947, 31957.45
3844.876, 32026.23
3846.804, 32046.87
3848.733, 32025.31
3850.661, 32009.33
3852.590, 31985.59
3854.518, 31937.86
3856.447, 31892.33
3858.375, 31828.34
3860.303, 31853.69
3862.232, 31904.56
3864.160, 31837.22
3866.089, 31770.76
3868.017, 31762.50
3869.946, 31708.01
3871.874, 31618.01
3873.803, 31638.16
3875.731, 31657.16
3877.660, 31541.96
3879.588, 31483.67
3881.517, 31509.82
3883.445, 31505.27
3885.374, 31495.95
3887.302, 31504.91
3889.230, 31485.35
3891.159, 31434.26
3893.087, 31339.31
3895.016, 31227.10
3896.944, 31298.07
3898.873, 31338.96
3900.801, 31157.81
3902.730, 31080.38
3904.658, 31103.87
3906.587, 31077.56
3908.515, 31042.04
3910.444, 31015.42
3912.372, 30974.04
3914.301, 30935.52
3916.229, 30909.02
3918.157, 30878.53
3920.086, 30846.21
3922.014, 30809.48
3923.943, 30779.09
3925.871, 30736.24
3927.800, 30687.93
3929.728, 30703.55
3931.657, 30717.21
3933.585, 30619.59
3935.514, 30542.85
3937.442, 30542.02
3939.371, 30581.77
3941.299, 30595.13
3943.228, 30533.50
3945.156, 30457.22
3947.084, 30378.79
3949.013, 30311.05
3950.941, 30265.38
3952.870, 30289.56
3954.798, 30284.81
3956.727, 30227.24
3958.655, 30123.65
3960.584, 30022.34
3962.512, 30063.56
3964.441, 30105.13
3966.369, 30075.62
3968.298, 30029.01
3970.226, 29969.20
3972.155, 29891.74
3974.083, 29865.87
3976.011, 29994.39
3977.940, 30011.18
3979.868, 29860.77
3981.797, 29840.21
3983.725, 29859.19
3985.654, 29785.82
3987.582, 29729.76
3989.511, 29719.66
3991.439, 29667.73
3993.368, 29610.41
3995.296, 29644.56
3997.225, 29638.16
3999.153, 29538.77
4001.082, 29472.97
4003.010, 29433.39
4004.938, 29366.43
4006.867, 29313.19
4008.795, 29296.04
4010.724, 29266.42
4012.652, 29244.52
4014.581, 29219.93
4016.509, 29199.37
4018.438, 29175.89
4020.366, 29144.32
4022.295, 29110.75
4024.223, 29023.73
4026.152, 28953.50
4028.080, 28971.94
4030.009, 28980.48
4031.937, 28934.52
4033.865, 28881.05
4035.794, 28827.04
4037.722, 28822.94
4039.651, 28820.46
4041.579, 28792.94
4043.508, 28760.49
4045.436, 28689.71
4047.365, 28595.70
4049.293, 28545.13
4051.222, 28556.31
4053.150, 28509.17
4055.079, 28426.67
4057.007, 28432.62
4058.936, 28431.34
4060.864, 28401.71
4062.792, 28401.47
4064.721, 28367.77
4066.649, 28365.55
4068.578, 28354.56
4070.506, 28250.48
4072.435, 28206.52
4074.363, 28190.53
4076.292, 28127.74
4078.220, 28134.03
4080.149, 28075.68
4082.077, 27992.08
4084.006, 27959.30
4085.934, 27878.40
4087.863, 27848.81
4089.791, 27884.28
4091.719, 27869.72
4093.648, 27795.04
4095.576, 27810.27
4097.505, 27820.66
4099.434, 27687.53
4101.362, 27620.00
4103.291, 27573.55
4105.219, 27521.00
4107.147, 27548.02
4109.076, 27527.51
4111.004, 27455.91
4112.933, 27406.67
4114.861, 27385.51
4116.790, 27296.45
4118.718, 27222.60
4120.646, 27259.08
4122.575, 27222.99
4124.503, 27156.99
4126.432, 27147.90
4128.360, 27134.84
4130.289, 27132.66
4132.217, 27111.17
4134.146, 27054.75
4136.074, 26971.29
4138.003, 26967.02
4139.931, 27049.16
4141.860, 26977.82
4143.788, 26854.56
4145.717, 26828.65
4147.645, 26800.43
4149.574, 26741.95
4151.502, 26687.88
4153.431, 26661.51
4155.359, 26704.84
4157.288, 26702.59
4159.216, 26658.66
4161.145, 26573.00
4163.073, 26463.84
4165.001, 26457.61
4166.930, 26439.92
4168.858, 26358.98
4170.787, 26321.90
4172.715, 26327.91
4174.644, 26374.04
4176.572, 26370.61
4178.500, 26293.36
4180.429, 26232.08
4182.357, 26195.79
4184.286, 26179.28
4186.214, 26171.65
4188.143, 26185.28
4190.071, 26092.96
4192.000, 25984.70
4193.928, 26007.94
4195.857, 26008.53
4197.785, 25950.35
4199.714, 25909.06
4201.642, 25872.98
4203.571, 25817.45
4205.499, 25798.60
4207.428, 25825.97
4209.356, 25846.57
4211.285, 25828.09
4213.213, 25691.21
4215.142, 25633.79
4217.070, 25682.53
4218.999, 25718.31
4220.927, 25709.21
4222.855, 25606.18
4224.784, 25511.58
4226.712, 25439.67
4228.641, 25374.78
4230.569, 25366.08
4232.498, 25502.24
4234.426, 25456.70
4236.354, 25284.90
4238.283, 25343.71
4240.211, 25399.32
4242.140, 25280.36
4244.068, 25219.34
4245.997, 25206.49
4247.925, 25143.00
4249.854, 25132.87
4251.782, 25246.96
4253.711, 25281.03
4255.639, 25238.80
4257.568, 25147.46
4259.496, 25091.57
4261.425, 25100.55
4263.353, 25169.14
4265.282, 25241.61
4267.210, 25220.66
4269.139, 25221.90
4271.067, 25268.07
4272.996, 25137.41
4274.924, 25021.33
4276.853, 25207.35
4278.781, 25270.26
4280.709, 25169.54
4282.638, 25120.12
4284.566, 25101.91
4286.495, 25111.55
4288.423, 25086.78
4290.352, 25044.42
4292.280, 25084.23
4294.208, 25113.53
4296.137, 25064.41
4298.065, 25069.35
4299.994, 25096.90
4301.922, 25052.29
4303.851, 25029.07
4305.779, 25065.23
4307.708, 25098.73
4309.636, 25120.59
4311.565, 25113.76
4313.493, 25101.65
4315.422, 25090.26
4317.350, 25101.12
4319.279, 25133.93
4321.207, 25203.12
4323.136, 25276.72
4325.064, 25319.36
4326.993, 25115.20
4328.921, 24995.21
4330.850, 25170.95
4332.778, 25207.36
4334.707, 25154.97
4336.635, 25122.56
4338.563, 25072.25
4340.492, 24989.70
4342.420, 25100.32
4344.349, 25217.61
4346.277, 25142.59
4348.206, 25119.00
4350.134, 25156.47
4352.063, 25107.17
4353.991, 25075.12
4355.919, 25113.00
4357.848, 25165.61
4359.776, 25214.76
4361.705, 25247.41
4363.633, 25234.21
4365.562, 25173.56
4367.490, 25078.64
4369.419, 25037.23
4371.347, 25155.28
4373.276, 25274.05
4375.204, 25343.83
4377.133, 25217.22
4379.061, 25101.36
4380.990, 25105.50
4382.918, 25107.74
4384.847, 25107.10
4386.775, 25114.37
4388.704, 25095.60
4390.632, 25050.98
4392.561, 25118.64
4394.489, 25208.67
4396.417, 25271.20
4398.346, 25250.81
4400.274, 25178.79
4402.203, 25131.61
4404.131, 25110.06
4406.060, 25114.67
4407.988, 25081.57
4409.917, 25057.61
4411.845, 25098.98
4413.773, 25127.41
4415.702, 25128.57
4417.630, 25051.27
4419.559, 25039.90
4421.487, 25157.80
4423.416, 25158.88
4425.344, 25112.43
4427.273, 25122.21
4429.201, 25129.00
4431.130, 25130.32
4433.058, 25199.44
4434.987, 25214.45
4436.915, 25063.66
4438.844, 25057.45
4440.772, 25099.01
4442.701, 24988.10
4444.629, 24994.56
4446.558, 25139.79
4448.486, 25092.60
4450.415, 25037.37
4452.343, 25074.59
4454.271, 25109.82
4456.200, 25131.27
4458.128, 25161.49
4460.057, 25071.10
4461.985, 24883.73
4463.914, 24944.07
4465.842, 25019.49
4467.771, 24927.75
4469.699, 24896.60
4471.627, 24910.03
4473.556, 24924.00
4475.484, 25031.95
4477.413, 25212.42
4479.341, 24996.48
4481.270, 24847.51
4483.198, 25012.63
4485.127, 25041.05
4487.055, 25005.30
4488.984, 25071.27
4490.912, 25052.82
4492.841, 24958.18
4494.769, 24937.33
4496.698, 24973.24
4498.626, 25092.68
4500.555, 25018.42
4502.483, 24915.75
4504.412, 25007.71
4506.340, 25071.30
4508.269, 25081.76
4510.197, 25008.87
4512.125, 25001.73
4514.054, 25097.01
4515.982, 25044.42
4517.911, 24996.87
4519.839, 25124.72
4521.768, 25114.69
4523.696, 25043.59
4525.625, 25182.33
4527.553, 25206.04
4529.481, 25052.25
4531.410, 24966.07
4533.338, 24919.99
4535.267, 24903.18
4537.195, 24883.15
4539.124, 24863.11
4541.052, 24832.45
4542.981, 24877.36
4544.909, 24973.86
4546.838, 24998.64
4548.766, 25026.56
4550.695, 25091.03
4552.623, 25032.74
4554.552, 24962.17
4556.480, 24978.57
4558.409, 24945.76
4560.337, 24894.81
4562.266, 24897.62
4564.194, 24930.17
4566.123, 24974.38
4568.051, 24977.47
4569.979, 24956.53
4571.908, 24915.12
4573.836, 24893.84
4575.765, 24887.78
4577.693, 24891.96
4579.622, 24925.70
4581.550, 24957.30
4583.479, 24898.05
4585.407, 24868.66
4587.335, 24881.35
4589.264, 24878.19
4591.192, 24876.14
4593.121, 24884.00
4595.049, 24910.00
4596.978, 24913.77
4598.906, 24857.95
4600.835, 24711.06
4602.763, 24597.66
4604.692, 24828.59
4606.620, 24973.76
4608.549, 24973.55
4610.477, 24879.04
4612.406, 24803.09
4614.334, 24795.50
4616.263, 24721.09
4618.191, 24682.98
4620.120, 24769.38
4622.048, 24807.40
4623.977, 24814.83
4625.905, 24846.32
4627.833, 24801.44
4629.762, 24727.18
4631.690, 24821.22
4633.619, 24895.31
4635.547, 24895.22
4637.476, 24720.30
4639.404, 24649.42
4641.333, 24814.12
4643.261, 24854.89
4645.189, 24814.94
4647.118, 24718.60
4649.046, 24721.44
4650.975, 24763.76
4652.903, 24738.08
4654.832, 24617.76
4656.760, 24474.39
4658.689, 24654.28
4660.617, 24731.67
4662.546, 24629.06
4664.474, 24662.32
4666.403, 24715.28
4668.331, 24717.15
4670.260, 24734.02
4672.188, 24743.22
4674.117, 24721.26
4676.045, 24739.21
4677.974, 24760.60
4679.902, 24723.43
4681.831, 24668.88
4683.759, 24614.82
4685.688, 24601.19
4687.616, 24576.76
4689.544, 24541.91
4691.473, 24584.21
4693.401, 24648.63
4695.330, 24708.65
4697.258, 24641.48
4699.187, 24599.65
4701.115, 24715.28
4703.043, 24613.08
4704.972, 24504.89
4706.900, 24609.06
4708.829, 24577.74
4710.757, 24500.85
4712.686, 24581.12
4714.614, 24602.85
4716.543, 24576.31
4718.471, 24621.67
4720.400, 24555.74
4722.328, 24401.35
4724.257, 24413.27
4726.185, 24415.39
4728.114, 24358.66
4730.042, 24421.44
4731.971, 24457.99
4733.899, 24402.70
4735.828, 24484.78
4737.756, 24531.21
4739.685, 24407.01
4741.613, 24397.63
4743.542, 24440.14
4745.470, 24462.23
4747.398, 24505.19
4749.327, 24507.52
4751.255, 24340.39
4753.184, 24263.15
4755.112, 24253.76
4757.041, 24157.79
4758.969, 24253.48
4760.897, 24465.74
4762.826, 24356.06
4764.754, 24304.81
4766.683, 24358.73
4768.611, 24305.49
4770.540, 24274.47
4772.468, 24303.87
4774.397, 24273.34
4776.325, 24222.52
4778.254, 24171.69
4780.182, 24194.61
4782.111, 24200.12
4784.039, 24118.88
4785.968, 24103.20
4787.896, 24088.84
4789.825, 24026.92
4791.753, 24024.88
4793.682, 24080.47
4795.610, 24220.59
4797.539, 24289.09
4799.467, 24266.21
4801.396, 24116.11
4803.324, 23979.35
4805.252, 23910.33
4807.181, 23994.37
4809.109, 24061.96
4811.038, 24082.09
4812.966, 24016.91
4814.895, 23957.55
4816.823, 23919.67
4818.751, 23888.20
4820.680, 23950.26
4822.608, 24049.07
4824.537, 23916.29
4826.465, 23828.94
4828.394, 23834.09
4830.322, 23925.34
4832.251, 23917.24
4834.179, 23808.04
4836.108, 23918.45
4838.036, 23914.99
4839.965, 23764.35
4841.893, 23815.77
4843.822, 23864.73
4845.750, 23843.88
4847.679, 23841.59
4849.607, 23860.58
4851.536, 23890.62
4853.464, 23827.99
4855.393, 23742.45
4857.321, 23664.99
4859.250, 23572.81
4861.178, 23566.08
4863.106, 23680.16
4865.035, 23752.73
4866.963, 23776.11
4868.892, 23748.59
4870.820, 23667.98
4872.749, 23597.73
4874.677, 23570.89
4876.605, 23547.31
4878.534, 23556.59
4880.462, 23612.25
4882.391, 23589.66
4884.319, 23560.96
4886.248, 23576.45
4888.176, 23553.35
4890.105, 23521.33
4892.033, 23497.23
4893.962, 23470.66
4895.890, 23476.44
4897.819, 23557.49
4899.747, 23472.51
4901.676, 23396.83
4903.604, 23421.25
4905.533, 23372.38
4907.461, 23292.45
4909.390, 23204.42
4911.318, 23247.98
4913.247, 23330.77
4915.175, 23400.87
4917.104, 23347.12
4919.032, 23274.76
4920.960, 23240.94
4922.889, 23218.24
4924.817, 23189.00
4926.746, 23143.41
4928.674, 23236.29
4930.603, 23249.35
4932.531, 23109.66
4934.459, 23143.94
4936.388, 23186.60
4938.316, 23160.07
4940.245, 23111.78
4942.173, 23106.25
4944.102, 23148.27
4946.030, 23090.98
4947.959, 23048.16
4949.887, 23053.94
4951.816, 23003.94
4953.744, 23007.88
4955.673, 23075.39
4957.601, 23071.10
4959.530, 23006.75
4961.458, 22922.96
4963.387, 23001.27
4965.315, 22986.69
4967.244, 22879.60
4969.172, 22914.21
4971.101, 22894.86
4973.029, 22833.10
4974.958, 22893.84
4976.886, 22793.52
4978.814, 22635.20
4980.743, 22776.02
4982.671, 22792.61
4984.600, 22732.87
4986.528, 22778.12
4988.457, 22769.79
4990.385, 22696.98
4992.313, 22517.77
4994.242, 22528.24
4996.170, 22608.17
4998.099, 22622.46
5000.027, 22596.62
5001.956, 22595.21
5003.884, 22681.46
5005.813, 22610.27
5007.741, 22506.40
5009.670, 22452.54
5011.598, 22417.61
5013.527, 22384.03
5015.455, 22351.26
5017.384, 22402.49
5019.312, 22469.51
5021.241, 22517.92
5023.169, 22490.30
5025.098, 22431.75
5027.026, 22361.58
5028.955, 22279.45
5030.883, 22291.55
5032.812, 22340.71
5034.740, 22199.19
5036.668, 22110.65
5038.597, 22144.38
5040.525, 22419.15
5042.454, 22365.30
5044.382, 22168.85
5046.311, 22113.55
5048.239, 22199.48
5050.167, 22296.08
5052.096, 22311.14
5054.024, 22126.03
5055.953, 22035.69
5057.881, 22173.77
5059.810, 22010.93
5061.738, 21922.46
5063.667, 22035.92
5065.595, 21946.40
5067.524, 21910.37
5069.452, 21963.26
5071.381, 21955.48
5073.309, 21961.06
5075.238, 21961.55
5077.166, 21847.87
5079.095, 21926.82
5081.023, 22026.01
5082.952, 21846.45
5084.880, 21771.04
5086.809, 21748.79
5088.737, 21717.79
5090.666, 21734.99
5092.594, 21719.48
5094.522, 21628.24
5096.451, 21636.59
5098.379, 21662.62
5100.308, 21659.64
5102.236, 21489.84
5104.165, 21491.91
5106.093, 21606.79
5108.021, 21529.21
5109.950, 21505.86
5111.878, 21487.73
5113.807, 21338.27
5115.735, 21306.18
5117.664, 21337.18
5119.592, 21374.61
5121.521, 21374.83
5123.449, 21350.00
5125.378, 21308.83
5127.306, 21272.88
5129.235, 21205.63
5131.163, 21126.29
5133.092, 21139.46
5135.020, 21206.59
5136.949, 21265.49
5138.877, 21215.71
5140.806, 21176.92
5142.734, 21146.01
5144.663, 21108.89
5146.591, 21075.65
5148.520, 21082.98
5150.448, 21135.50
5152.376, 21107.02
5154.305, 21054.73
5156.233, 21015.37
5158.162, 21078.16
5160.090, 21050.05
5162.019, 20968.46
5163.947, 20949.03
5165.875, 20897.09
5167.804, 20890.19
5169.732, 20996.00
5171.661, 20912.27
5173.589, 20840.00
5175.518, 20870.37
5177.446, 20901.99
5179.375, 20859.23
5181.303, 20771.07
5183.232, 20752.26
5185.160, 20760.56
5187.089, 20775.16
5189.017, 20787.77
5190.946, 20711.62
5192.874, 20628.58
5194.803, 20589.46
5196.731, 20600.61
5198.660, 20621.74
5200.588, 20631.93
5202.517, 20598.01
5204.445, 20579.11
5206.374, 20572.99
5208.302, 20573.86
5210.230, 20536.53
5212.159, 20473.86
5214.087, 20396.15
5216.016, 20340.32
5217.944, 20312.97
5219.873, 20309.09
5221.801, 20319.77
5223.729, 20289.31
5225.658, 20241.21
5227.586, 20213.21
5229.515, 20222.76
5231.443, 20263.59
5233.372, 20321.09
5235.300, 20215.13
5237.229, 20202.16
5239.157, 20275.19
5241.086, 20156.70
5243.014, 20097.56
5244.943, 20097.41
5246.871, 20130.60
5248.800, 20067.48
5250.728, 20026.71
5252.657, 20056.15
5254.585, 20028.38
5256.514, 19980.36
5258.442, 19928.93
5260.371, 19865.01
5262.299, 19941.22
5264.228, 19994.76
5266.156, 19859.81
5268.084, 19907.71
5270.013, 19898.72
5271.941, 19785.77
5273.870, 19766.76
5275.798, 19708.82
5277.727, 19656.05
5279.655, 19729.74
5281.583, 19667.23
5283.512, 19591.96
5285.440, 19576.40
5287.369, 19629.45
5289.297, 19567.72
5291.226, 19463.39
5293.154, 19575.71
5295.083, 19482.14
5297.011, 19418.54
5298.940, 19612.23
5300.868, 19470.79
5302.797, 19373.68
5304.725, 19408.60
5306.654, 19470.02
5308.582, 19383.20
5310.511, 19293.87
5312.439, 19361.64
5314.368, 19329.35
5316.296, 19302.74
5318.225, 19306.43
5320.153, 19209.70
5322.082, 19157.19
5324.010, 19161.92
5325.938, 19213.90
5327.867, 19186.71
5329.795, 19148.22
5331.724, 19112.06
5333.652, 18951.39
5335.581, 18889.02
5337.509, 18897.53
5339.438, 18899.79
5341.366, 18846.23
5343.294, 18815.97
5345.223, 18832.26
5347.151, 18814.89
5349.080, 18788.45
5351.008, 18755.39
5352.937, 18709.44
5354.865, 18706.64
5356.794, 18749.51
5358.722, 18814.04
5360.651, 18751.04
5362.579, 18704.48
5364.508, 18673.29
5366.436, 18623.08
5368.365, 18502.47
5370.293, 18476.41
5372.222, 18562.71
5374.150, 18546.88
5376.079, 18521.16
5378.007, 18484.61
5379.936, 18409.88
5381.864, 18388.91
5383.792, 18375.73
5385.721, 18360.98
5387.649, 18382.17
5389.578, 18363.84
5391.506, 18307.87
5393.435, 18230.63
5395.363, 18214.60
5397.292, 18227.21
5399.220, 18229.26
5401.148, 18128.54
5403.077, 18161.76
5405.005, 18189.60
5406.934, 18117.02
5408.862, 18128.56
5410.791, 18087.55
5412.719, 18001.35
5414.648, 17923.75
5416.576, 17921.93
5418.505, 17955.01
5420.433, 17980.80
5422.362, 17894.74
5424.290, 17800.80
5426.219, 17749.48
5428.147, 17774.59
5430.076, 17824.02
5432.004, 17821.10
5433.933, 17773.81
5435.861, 17753.23
5437.790, 17715.65
5439.718, 17672.74
5441.646, 17631.11
5443.575, 17538.56
5445.503, 17522.76
5447.432, 17537.85
5449.360, 17487.36
5451.289, 17411.97
5453.217, 17392.23
5455.146, 17424.48
5457.074, 17414.16
5459.002, 17449.77
5460.931, 17440.33
5462.859, 17333.69
5464.788, 17298.96
5466.716, 17265.29
5468.645, 17250.99
5470.573, 17332.70
5472.502, 17294.11
5474.430, 17225.21
5476.359, 17162.43
5478.287, 17091.55
5480.216, 17141.03
5482.144, 17190.59
5484.073, 17150.84
5486.001, 16989.45
5487.930, 16990.72
5489.858, 17030.77
5491.787, 16895.30
5493.715, 16940.26
5495.644, 16956.65
5497.572, 16916.39
5499.500, 16924.22
5501.429, 16880.87
5503.357, 16849.51
5505.286, 16854.71
5507.214, 16858.48
5509.143, 16727.22
5511.071, 16630.62
5513.000, 16705.04
5514.928, 16771.71
5516.856, 16711.91
5518.785, 16602.42
5520.713, 16591.85
5522.642, 16567.79
5524.570, 16520.22
5526.499, 16468.20
5528.427, 16462.58
5530.356, 16389.83
5532.284, 16377.50
5534.213, 16448.99
5536.141, 16414.99
5538.070, 16428.40
5539.998, 16426.12
5541.927, 16358.87
5543.855, 16358.38
5545.784, 16321.47
5547.712, 16274.39
5549.641, 16272.69
5551.569, 16161.32
5553.498, 16123.86
5555.426, 16153.01
5557.354, 16161.02
5559.283, 16159.01
5561.211, 16134.49
5563.140, 16081.74
5565.068, 15986.57
5566.997, 15999.07
5568.925, 15974.00
5570.854, 15887.14
5572.782, 15964.23
5574.710, 15938.02
5576.639, 15886.64
5578.567, 15869.01
5580.496, 15845.40
5582.424, 15785.87
5584.353, 15725.20
5586.281, 15691.69
5588.210, 15651.20
5590.138, 15675.81
5592.067, 15711.93
5593.995, 15696.44
5595.924, 15627.38
5597.852, 15550.43
5599.781, 15516.98
5601.709, 15588.77
5603.638, 15500.66
5605.566, 15506.73
5607.495, 15561.22
5609.423, 15486.67
5611.352, 15452.55
5613.280, 15375.52
5615.208, 15270.53
5617.137, 15207.55
5619.065, 15258.50
5620.994, 15275.73
5622.922, 15241.91
5624.851, 15238.14
5626.779, 15160.67
5628.708, 15098.70
5630.636, 15074.74
5632.564, 15043.93
5634.493, 15052.06
5636.421, 15055.01
5638.350, 15033.09
5640.278, 14980.65
5642.207, 14982.74
5644.135, 14963.85
5646.064, 14911.99
5647.992, 14888.57
5649.921, 14896.84
5651.849, 14846.52
5653.778, 14738.50
5655.706, 14677.04
5657.635, 14686.66
5659.563, 14684.30
5661.492, 14668.72
5663.420, 14799.39
5665.349, 14698.27
5667.277, 14593.97
5669.206, 14573.58
5671.134, 14545.70
5673.063, 14560.93
5674.991, 14537.30
5676.919, 14469.99
5678.848, 14432.48
5680.776, 14434.03
5682.705, 14423.73
5684.633, 14417.12
5686.562, 14498.44
5688.490, 14392.20
5690.418, 14301.87
5692.347, 14260.44
5694.275, 14141.78
5696.204, 14229.62
5698.132, 14191.96
5700.061, 14039.01
5701.989, 13996.90
5703.918, 14104.18
5705.846, 14180.17
5707.775, 14164.62
5709.703, 14051.63
5711.632, 14023.53
5713.560, 14002.73
5715.489, 13963.25
5717.417, 13906.78
5719.346, 13905.61
5721.274, 13929.51
5723.203, 13926.26
5725.131, 13872.16
5727.060, 13937.58
5728.988, 13856.13
5730.917, 13751.24
5732.845, 13727.98
5734.773, 13613.47
5736.702, 13550.72
5738.630, 13568.10
5740.559, 13636.63
5742.487, 13608.17
5744.416, 13622.73
5746.344, 13624.41
5748.272, 13592.03
5750.201, 13559.12
5752.129, 13504.50
5754.058, 13437.98
5755.986, 13357.34
5757.915, 13253.13
5759.843, 13373.10
5761.772, 13407.16
5763.700, 13342.46
5765.629, 13281.25
5767.558, 13352.68
5769.486, 13344.62
5771.415, 13292.47
5773.343, 13258.24
5775.271, 13212.82
5777.200, 13179.66
5779.128, 13118.26
5781.057, 13037.38
5782.985, 13066.14
5784.914, 13132.11
5786.842, 13097.71
5788.771, 12981.56
5790.699, 12917.23
5792.627, 12966.79
5794.556, 12969.48
5796.484, 12895.57
5798.413, 12779.30
5800.341, 12839.43
5802.270, 12900.19
5804.198, 12894.56
5806.127, 12816.85
5808.055, 12731.96
5809.984, 12752.74
5811.912, 12721.01
5813.841, 12647.92
5815.769, 12736.15
5817.698, 12655.79
5819.626, 12608.31
5821.555, 12602.60
5823.483, 12562.21
5825.412, 12500.47
5827.340, 12491.91
5829.269, 12512.29
5831.197, 12528.98
5833.125, 12528.47
5835.054, 12450.90
5836.982, 12414.42
5838.911, 12409.52
5840.839, 12276.08
5842.768, 12302.37
5844.696, 12337.68
5846.625, 12344.72
5848.553, 12330.29
5850.481, 12253.13
5852.410, 12282.84
5854.338, 12222.61
5856.267, 12084.19
5858.195, 12235.26
5860.124, 12137.78
5862.052, 12077.41
5863.981, 12080.73
5865.909, 12050.76
5867.838, 12074.64
5869.766, 12085.40
5871.695, 12033.57
5873.623, 11940.91
5875.552, 11943.82
5877.480, 11941.60
5879.409, 11902.04
5881.337, 11843.91
5883.266, 11803.15
5885.194, 11806.36
5887.123, 11828.30
5889.051, 11813.13
5890.979, 11745.22
5892.908, 11673.24
5894.836, 11706.24
5896.765, 11698.05
5898.693, 11668.90
5900.622, 11718.07
5902.550, 11591.68
5904.479, 11494.85
5906.407, 11486.25
5908.335, 11540.87
5910.264, 11557.71
5912.192, 11619.69
5914.121, 11566.70
5916.049, 11469.57
5917.978, 11455.40
5919.906, 11435.80
5921.835, 11426.15
5923.763, 11454.93
5925.692, 11472.49
5927.620, 11363.61
5929.549, 11375.73
5931.477, 11261.72
5933.406, 11219.75
5935.334, 11348.65
5937.263, 11180.24
5939.191, 11118.01
5941.120, 11170.67
5943.048, 11212.19
5944.977, 11129.27
5946.905, 11091.67
5948.833, 11112.42
5950.762, 11087.75
5952.690, 10994.86
5954.619, 10911.99
5956.547, 10966.55
5958.476, 10886.21
5960.404, 10858.58
5962.333, 10991.89
5964.261, 10942.42
5966.189, 10931.70
5968.118, 10861.85
5970.046, 10794.19
5971.975, 10822.03
5973.903, 10821.51
5975.832, 10765.92
5977.760, 10707.79
5979.689, 10648.16
5981.617, 10551.67
5983.546, 10713.07
5985.474, 10662.29
5987.403, 10593.83
5989.331, 10619.88
5991.260, 10585.54
5993.188, 10612.87
5995.117, 10597.53
5997.045, 10539.58
5998.974, 10485.02
6000.902, 10551.23
6002.831, 10423.29
6004.759, 10390.77
6006.688, 10424.86
6008.616, 10411.39
6010.544, 10363.82
6012.473, 10345.11
6014.401, 10325.99
6016.330, 10322.56
6018.258, 10354.12
6020.187, 10283.85
6022.115, 10296.48
6024.043, 10286.91
6025.972, 10231.89
6027.900, 10170.39
6029.829, 10100.92
6031.757, 10145.61
6033.686, 10168.11
6035.614, 10130.25
6037.543, 10077.04
6039.471, 10004.88
6041.400, 9989.995
6043.328, 10066.79
6045.257, 10128.29
6047.185, 10000.17
6049.114, 9948.372
6051.042, 9938.178
6052.971, 9910.931
6054.899, 9892.265
6056.828, 9956.430
6058.756, 9877.521
6060.685, 9851.041
6062.613, 9841.299
6064.542, 9818.784
6066.470, 9791.203
6068.398, 9749.505
6070.327, 9760.513
6072.255, 9779.479
6074.184, 9772.777
6076.112, 9726.254
6078.041, 9558.568
6079.969, 9564.573
6081.897, 9606.059
6083.826, 9590.776
6085.754, 9519.462
6087.683, 9572.969
6089.611, 9420.762
6091.540, 9441.442
6093.468, 9535.708
6095.397, 9438.111
6097.325, 9453.153
6099.254, 9410.769
6101.182, 9320.453
6103.111, 9296.737
6105.039, 9379.688
6106.968, 9299.776
6108.896, 9279.149
6110.825, 9241.025
6112.753, 9250.504
6114.682, 9306.776
6116.610, 9185.955
6118.539, 9178.817
6120.467, 9108.377
6122.396, 9040.665
6124.324, 9030.668
6126.252, 9046.328
6128.181, 9068.244
6130.109, 9125.827
6132.038, 9072.547
6133.966, 8975.436
6135.895, 9028.653
6137.823, 8974.469
6139.751, 8911.784
6141.680, 8864.090
6143.608, 8849.186
6145.537, 8872.541
6147.465, 8905.294
6149.394, 8885.560
6151.322, 8803.813
6153.251, 8728.565
6155.179, 8706.452
6157.108, 8738.336
6159.036, 8769.175
6160.965, 8719.225
6162.893, 8657.431
6164.822, 8625.925
6166.750, 8617.822
6168.679, 8547.499
6170.607, 8565.438
6172.536, 8555.370
6174.464, 8569.039
6176.393, 8632.931
6178.321, 8493.388
6180.250, 8464.603
6182.178, 8463.859
6184.106, 8504.806
6186.035, 8526.877
6187.963, 8406.932
6189.892, 8404.051
6191.820, 8364.697
6193.749, 8345.507
6195.677, 8325.782
6197.605, 8276.981
6199.534, 8270.924
6201.462, 8249.176
6203.391, 8235.667
6205.319, 8254.759
6207.248, 8284.936
6209.176, 8278.552
6211.105, 8233.095
6213.033, 8172.267
6214.962, 8111.467
6216.890, 8063.521
6218.819, 8045.324
6220.747, 8076.215
6222.676, 8098.992
6224.604, 8032.517
6226.533, 7966.674
6228.461, 7960.232
6230.390, 7987.589
6232.318, 7910.229
6234.247, 7921.292
6236.175, 7901.777
6238.104, 7879.406
6240.032, 7903.823
6241.960, 7965.800
6243.889, 7902.008
6245.817, 7862.373
6247.746, 7849.457
6249.674, 7816.818
6251.603, 7756.070
6253.531, 7727.359
6255.459, 7753.769
6257.388, 7757.332
6259.316, 7674.808
6261.245, 7635.511
6263.173, 7719.904
6265.102, 7661.431
6267.030, 7595.893
6268.959, 7575.040
6270.887, 7560.978
6272.816, 7564.976
6274.744, 7604.752
6276.673, 7541.070
6278.601, 7525.182
6280.530, 7582.030
6282.458, 7555.260
6284.387, 7490.766
6286.315, 7528.593
6288.244, 7486.735
6290.172, 7431.225
6292.101, 7503.588
6294.029, 7472.462
6295.958, 7348.125
6297.886, 7328.702
6299.814, 7282.700
6301.743, 7293.067
6303.671, 7350.531
6305.600, 7284.486
6307.528, 7188.924
6309.457, 7258.741
6311.385, 7181.916
6313.313, 7181.589
6315.242, 7199.416
6317.170, 7184.434
6319.099, 7120.795
6321.027, 7037.092
6322.956, 7090.354
6324.884, 7028.407
6326.813, 7059.876
6328.741, 7102.017
6330.670, 7081.347
6332.598, 7017.381
6334.527, 7008.966
6336.455, 7028.542
6338.384, 6977.817
6340.312, 6912.301
6342.241, 6901.161
6344.169, 6925.499
6346.098, 6836.156
6348.026, 6861.466
6349.955, 6942.404
6351.883, 6877.993
6353.812, 6815.635
6355.740, 6849.087
6357.668, 6822.577
6359.597, 6807.471
6361.525, 6789.333
6363.454, 6741.682
6365.382, 6686.437
6367.311, 6668.584
6369.239, 6697.706
6371.167, 6631.332
6373.096, 6661.533
6375.024, 6708.161
6376.953, 6669.871
6378.881, 6589.394
6380.810, 6553.970
6382.738, 6587.208
6384.667, 6545.279
6386.595, 6643.628
6388.524, 6621.844
6390.452, 6542.554
6392.381, 6508.833
6394.309, 6491.182
6396.238, 6503.982
6398.166, 6528.214
6400.095, 6441.440
6402.023, 6410.101
6403.952, 6407.641
6405.880, 6350.750
6407.809, 6346.765
6409.737, 6339.071
6411.666, 6347.369
6413.594, 6336.245
6415.522, 6306.574
6417.451, 6267.280
6419.379, 6239.525
6421.308, 6350.396
6423.236, 6228.866
6425.165, 6271.425
6427.093, 6244.744
6429.021, 6178.981
6430.950, 6177.202
6432.878, 6184.028
6434.807, 6120.010
6436.735, 6151.188
6438.664, 6205.966
6440.592, 6206.660
6442.521, 6168.713
6444.449, 6136.679
6446.378, 6118.865
6448.306, 6139.610
6450.235, 6044.175
6452.163, 5974.348
6454.092, 5989.282
6456.020, 6013.596
6457.949, 5999.911
6459.877, 6049.287
6461.806, 5928.823
6463.734, 5946.155
6465.663, 5982.582
6467.591, 5964.632
6469.520, 5903.178
6471.448, 5863.553
6473.376, 5926.936
6475.305, 5847.384
6477.233, 5901.137
6479.162, 5842.495
6481.090, 5780.748
6483.019, 5834.297
6484.947, 5912.794
6486.875, 5788.932
6488.804, 5711.283
6490.732, 5697.890
6492.661, 5725.901
6494.589, 5730.695
6496.518, 5708.461
6498.446, 5699.394
6500.375, 5734.363
6502.303, 5735.989
6504.232, 5647.633
6506.160, 5641.590
6508.089, 5652.898
6510.017, 5671.344
6511.946, 5667.188
6513.874, 5600.001
6515.803, 5618.837
6517.731, 5632.390
6519.660, 5586.526
6521.588, 5541.138
6523.517, 5540.713
6525.445, 5543.588
6527.374, 5499.431
6529.302, 5435.095
6531.230, 5485.537
6533.159, 5476.628
6535.087, 5545.475
6537.016, 5440.575
6538.944, 5351.006
6540.873, 5418.020
6542.801, 5419.061
6544.729, 5348.849
6546.658, 5463.864
6548.586, 5414.938
6550.515, 5363.942
6552.443, 5377.592
6554.372, 5372.227
6556.300, 5305.241
6558.229, 5275.799
6560.157, 5242.128
6562.086, 5308.926
6564.014, 5358.494
6565.943, 5295.142
6567.871, 5227.753
6569.800, 5251.971
6571.728, 5302.408
6573.657, 5225.896
6575.585, 5169.271
6577.514, 5231.123
6579.442, 5200.686
6581.371, 5180.360
6583.299, 5168.107
6585.228, 5140.674
6587.156, 5122.419
6589.084, 5090.014
6591.013, 5168.831
6592.941, 5040.807
6594.870, 5011.462
6596.798, 5096.142
6598.727, 5119.842
6600.655, 5023.523
6602.583, 4949.692
6604.512, 5074.649
6606.440, 4987.152
6608.369, 4946.281
6610.297, 4939.438
6612.226, 4936.458
6614.154, 4994.472
6616.083, 5020.437
6618.011, 4936.746
6619.940, 4894.296
6621.868, 4880.800
6623.797, 4893.955
6625.725, 4877.098
6627.654, 4891.648
6629.582, 4902.490
##END=



