##NAMES=Hauyne
##RRUFFID=R040023
##IDEAL CHEMISTRY=Na_3_Ca(Si_3_Al_3_)O_12_(SO_4_)
##LOCALITY=Cazadero river, Ovalle, Limarí Province, Coquimbo, Chile
##OWNER=RRUFF
##SOURCE=University of Arizona Mineral Museum
##DESCRIPTION=Blue fine-grained massive, associated with wollastonite and calcite
##STATUS=The identification of this mineral has been confirmed by X-ray diffraction and chemical analysis
##URL=https://www.rruff.net/odr/rruff_sample/R040023
##MEASURED CHEMISTRY=(Na_0.99_K_0.01_)_6_(Ca_0.99_Na_0.01_)_2_Al_6.00_Si_6.00_O_24_[(SO_4_)_0.67_S_0.32_Cl_0.01_]_2_
##DIFFRACTION SAMPLE DESCRIPTION=Powder
##CELL PARAMETERS=a: 9.0744 b: 9.0744 c: 9.0744 alpha: 90 beta: 90 gamma: 90 volume: 747.24 crystal system: cubic
##FILETYPE=Raman RAW
##RAMAN WAVELENGTH=532

166.5982, 5055.250
168.5267, 5072.808
170.4552, 5088.964
172.3836, 5106.009
174.3121, 5123.344
176.2406, 5140.563
178.1690, 5156.721
180.0975, 5169.881
182.0260, 5185.171
183.9544, 5204.106
185.8829, 5226.293
187.8114, 5248.830
189.7398, 5272.651
191.6683, 5295.792
193.5968, 5316.417
195.5252, 5334.186
197.4537, 5354.673
199.3822, 5378.689
201.3106, 5405.487
203.2391, 5434.970
205.1676, 5468.206
207.0960, 5502.583
209.0245, 5536.223
210.9530, 5566.945
212.8814, 5601.085
214.8099, 5638.540
216.7384, 5680.322
218.6668, 5726.699
220.5953, 5778.657
222.5238, 5834.107
224.4522, 5892.317
226.3807, 5958.573
228.3092, 6020.719
230.2376, 6075.593
232.1661, 6126.533
234.0946, 6179.542
236.0230, 6235.494
237.9515, 6293.597
239.8800, 6351.637
241.8084, 6407.631
243.7369, 6474.030
245.6654, 6561.670
247.5938, 6660.478
249.5223, 6753.959
251.4508, 6849.865
253.3792, 6932.915
255.3077, 6994.481
257.2362, 7035.954
259.1646, 7070.814
261.0931, 7102.836
263.0216, 7128.175
264.9500, 7141.588
266.8785, 7143.542
268.8070, 7136.173
270.7354, 7114.112
272.6639, 7078.168
274.5924, 7049.138
276.5208, 7030.794
278.4493, 7018.721
280.3778, 7009.933
282.3062, 7006.508
284.2347, 7002.465
286.1632, 6997.873
288.0916, 6992.122
290.0201, 6980.803
291.9486, 6959.484
293.8770, 6936.502
295.8055, 6916.530
297.7340, 6898.917
299.6624, 6885.554
301.5909, 6877.139
303.5194, 6872.910
305.4478, 6868.928
307.3763, 6862.138
309.3048, 6859.305
311.2332, 6863.419
313.1617, 6877.388
315.0902, 6891.905
317.0186, 6907.429
318.9471, 6923.038
320.8756, 6936.873
322.8040, 6946.240
324.7325, 6958.007
326.6610, 6976.095
328.5894, 7002.812
330.5179, 7021.423
332.4464, 7022.815
334.3748, 7021.065
336.3033, 7028.303
338.2318, 7052.315
340.1602, 7071.629
342.0887, 7080.681
344.0172, 7080.566
345.9456, 7081.114
347.8741, 7081.370
349.8026, 7083.190
351.7310, 7087.126
353.6595, 7093.080
355.5880, 7100.784
357.5164, 7111.102
359.4449, 7123.119
361.3734, 7135.003
363.3018, 7147.564
365.2303, 7159.508
367.1588, 7169.890
369.0872, 7178.053
371.0157, 7189.756
372.9442, 7204.548
374.8727, 7223.339
376.8011, 7246.670
378.7296, 7279.072
380.6581, 7306.814
382.5865, 7322.186
384.5150, 7328.106
386.4435, 7344.865
388.3719, 7381.505
390.3004, 7419.050
392.2289, 7447.500
394.1573, 7461.077
396.0858, 7481.720
398.0143, 7513.981
399.9427, 7550.173
401.8712, 7582.151
403.7997, 7608.534
405.7281, 7633.327
407.6566, 7657.881
409.5851, 7681.604
411.5135, 7703.597
413.4420, 7724.151
415.3705, 7744.353
417.2989, 7764.397
419.2274, 7785.187
421.1559, 7803.724
423.0843, 7818.205
425.0128, 7830.620
426.9413, 7846.672
428.8697, 7866.496
430.7982, 7888.646
432.7267, 7912.507
434.6551, 7937.338
436.5836, 7960.199
438.5121, 7981.452
440.4405, 8000.198
442.3690, 8014.335
444.2975, 8024.668
446.2259, 8036.642
448.1544, 8053.178
450.0829, 8071.938
452.0113, 8091.755
453.9398, 8113.946
455.8683, 8136.804
457.7967, 8157.841
459.7252, 8179.833
461.6537, 8207.240
463.5821, 8242.653
465.5106, 8278.951
467.4391, 8317.105
469.3675, 8359.697
471.2960, 8398.851
473.2245, 8427.823
475.1529, 8453.126
477.0814, 8484.604
479.0099, 8525.606
480.9383, 8569.526
482.8668, 8614.819
484.7953, 8662.535
486.7237, 8724.505
488.6522, 8803.848
490.5807, 8893.861
492.5091, 8990.582
494.4376, 9093.374
496.3661, 9217.278
498.2945, 9352.674
500.2230, 9521.239
502.1515, 9705.121
504.0799, 9905.785
506.0084, 10139.38
507.9369, 10390.89
509.8653, 10659.76
511.7938, 10980.27
513.7223, 11376.37
515.6508, 11775.99
517.5792, 12211.55
519.5077, 12654.39
521.4362, 13047.83
523.3646, 13320.35
525.2931, 13613.20
527.2216, 13947.42
529.1500, 14321.49
531.0785, 14832.18
533.0070, 15527.77
534.9354, 16343.13
536.8639, 17240.82
538.7924, 18321.39
540.7208, 19313.72
542.6493, 20249.95
544.5778, 21108.77
546.5062, 21716.15
548.4347, 22062.37
550.3632, 22210.41
552.2916, 22005.77
554.2201, 21411.21
556.1486, 20654.03
558.0770, 19748.23
560.0055, 18688.40
561.9340, 17684.16
563.8624, 16744.48
565.7909, 15940.57
567.7194, 15312.80
569.6478, 14822.47
571.5763, 14444.76
573.5048, 14237.50
575.4332, 14021.90
577.3617, 13752.01
579.2902, 13449.18
581.2186, 13100.60
583.1471, 12654.61
585.0756, 12266.02
587.0040, 11943.80
588.9325, 11680.81
590.8610, 11461.55
592.7894, 11296.26
594.7179, 11155.31
596.6464, 11034.75
598.5748, 10928.29
600.5033, 10827.06
602.4318, 10734.31
604.3602, 10653.71
606.2887, 10589.71
608.2172, 10540.73
610.1456, 10493.00
612.0741, 10450.35
614.0026, 10411.21
615.9310, 10368.25
617.8595, 10312.88
619.7880, 10271.25
621.7164, 10244.22
623.6449, 10227.13
625.5734, 10215.15
627.5018, 10207.95
629.4303, 10207.46
631.3588, 10221.19
633.2872, 10242.87
635.2157, 10258.56
637.1442, 10264.13
639.0726, 10271.68
641.0011, 10267.85
642.9296, 10247.83
644.8580, 10222.00
646.7865, 10203.53
648.7150, 10184.74
650.6434, 10158.75
652.5719, 10125.27
654.5004, 10097.09
656.4288, 10078.97
658.3573, 10064.53
660.2858, 10054.48
662.2142, 10050.00
664.1427, 10051.37
666.0712, 10059.56
667.9996, 10069.62
669.9281, 10074.38
671.8566, 10070.54
673.7850, 10069.55
675.7135, 10072.33
677.6420, 10077.41
679.5704, 10085.87
681.4989, 10100.01
683.4274, 10115.30
685.3558, 10121.54
687.2843, 10121.88
689.2128, 10126.04
691.1412, 10139.54
693.0697, 10153.11
694.9982, 10161.94
696.9266, 10168.77
698.8551, 10176.89
700.7836, 10186.04
702.7120, 10197.50
704.6405, 10211.92
706.5690, 10227.36
708.4974, 10239.84
710.4259, 10247.09
712.3544, 10255.68
714.2828, 10273.69
716.2113, 10298.72
718.1398, 10321.90
720.0682, 10332.14
721.9967, 10334.91
723.9252, 10340.88
725.8536, 10355.91
727.7821, 10377.79
729.7106, 10397.64
731.6390, 10413.91
733.5675, 10430.68
735.4960, 10448.47
737.4244, 10463.50
739.3529, 10474.26
741.2814, 10485.31
743.2098, 10498.31
745.1383, 10512.69
747.0668, 10526.58
748.9952, 10540.65
750.9237, 10561.65
752.8522, 10589.99
754.7806, 10622.66
756.7091, 10647.88
758.6376, 10666.19
760.5660, 10692.36
762.4945, 10727.99
764.4230, 10768.27
766.3514, 10809.07
768.2799, 10855.63
770.2084, 10898.25
772.1368, 10931.08
774.0653, 10955.52
775.9938, 10990.59
777.9222, 11038.50
779.8507, 11088.09
781.7792, 11139.36
783.7076, 11194.10
785.6361, 11248.83
787.5646, 11293.73
789.4930, 11339.14
791.4215, 11391.47
793.3500, 11451.27
795.2784, 11508.80
797.2069, 11560.70
799.1354, 11607.36
801.0638, 11651.54
802.9923, 11697.24
804.9208, 11746.14
806.8492, 11785.54
808.7777, 11810.04
810.7062, 11819.84
812.6346, 11820.15
814.5631, 11815.77
816.4916, 11812.66
818.4200, 11801.56
820.3485, 11775.96
822.2770, 11742.80
824.2054, 11715.35
826.1339, 11707.04
828.0624, 11700.20
829.9908, 11686.70
831.9193, 11670.09
833.8478, 11669.26
835.7762, 11677.74
837.7047, 11684.60
839.6332, 11686.15
841.5616, 11683.14
843.4901, 11675.38
845.4186, 11664.96
847.3470, 11653.92
849.2755, 11641.45
851.2040, 11624.69
853.1324, 11605.19
855.0609, 11584.63
856.9894, 11560.11
858.9178, 11536.09
860.8463, 11525.42
862.7748, 11532.85
864.7032, 11543.51
866.6317, 11552.42
868.5602, 11559.72
870.4886, 11566.23
872.4171, 11570.23
874.3456, 11572.55
876.2740, 11571.30
878.2025, 11564.66
880.1310, 11559.61
882.0594, 11561.99
883.9879, 11570.67
885.9164, 11580.99
887.8448, 11589.99
889.7733, 11592.61
891.7018, 11585.10
893.6302, 11579.22
895.5587, 11586.32
897.4872, 11599.15
899.4156, 11608.65
901.3441, 11610.52
903.2726, 11619.10
905.2010, 11630.71
907.1295, 11641.02
909.0580, 11652.64
910.9865, 11667.54
912.9149, 11684.69
914.8434, 11695.22
916.7719, 11700.77
918.7003, 11707.65
920.6288, 11720.67
922.5573, 11728.25
924.4857, 11728.14
926.4142, 11729.58
928.3427, 11742.48
930.2711, 11769.10
932.1996, 11794.97
934.1281, 11815.40
936.0565, 11835.91
937.9850, 11859.68
939.9135, 11884.40
941.8419, 11913.26
943.7704, 11948.83
945.6989, 11991.93
947.6273, 12027.61
949.5558, 12047.29
951.4843, 12064.85
953.4127, 12089.72
955.3412, 12113.74
957.2697, 12145.10
959.1981, 12189.40
961.1266, 12242.52
963.0551, 12303.32
964.9835, 12369.85
966.9120, 12433.50
968.8405, 12499.61
970.7689, 12564.11
972.6974, 12639.49
974.6259, 12682.57
976.5543, 12697.99
978.4828, 12692.62
980.4113, 12675.50
982.3397, 12643.29
984.2682, 12613.85
986.1967, 12588.06
988.1251, 12562.95
990.0536, 12546.44
991.9821, 12540.76
993.9105, 12543.45
995.8390, 12554.97
997.7675, 12570.56
999.6959, 12576.41
1001.624, 12570.05
1003.553, 12560.06
1005.481, 12551.09
1007.410, 12538.23
1009.338, 12526.99
1011.267, 12518.91
1013.195, 12525.22
1015.124, 12552.46
1017.052, 12592.89
1018.981, 12638.72
1020.909, 12686.60
1022.838, 12736.29
1024.766, 12786.94
1026.694, 12836.33
1028.623, 12877.34
1030.551, 12913.32
1032.480, 12960.70
1034.408, 13023.22
1036.337, 13092.11
1038.265, 13163.64
1040.194, 13242.66
1042.122, 13337.35
1044.051, 13454.62
1045.979, 13580.06
1047.908, 13711.00
1049.836, 13843.47
1051.765, 13981.79
1053.693, 14125.29
1055.621, 14269.52
1057.550, 14409.00
1059.478, 14552.03
1061.407, 14703.60
1063.335, 14866.01
1065.264, 15041.63
1067.192, 15230.82
1069.121, 15435.96
1071.049, 15652.22
1072.978, 15879.48
1074.906, 16124.62
1076.835, 16397.11
1078.763, 16677.09
1080.692, 16964.78
1082.620, 17253.84
1084.548, 17549.44
1086.477, 17855.82
1088.405, 18129.19
1090.334, 18378.50
1092.262, 18570.53
1094.191, 18700.82
1096.119, 18769.04
1098.048, 18765.09
1099.976, 18672.37
1101.905, 18523.42
1103.833, 18316.16
1105.762, 18061.46
1107.690, 17772.00
1109.619, 17424.79
1111.547, 17105.78
1113.475, 16829.80
1115.404, 16581.05
1117.332, 16348.77
1119.261, 16135.23
1121.189, 15933.27
1123.118, 15747.27
1125.046, 15567.75
1126.975, 15401.65
1128.903, 15248.01
1130.832, 15091.12
1132.760, 14925.82
1134.689, 14770.86
1136.617, 14623.34
1138.546, 14489.13
1140.474, 14380.15
1142.402, 14294.00
1144.331, 14214.17
1146.259, 14134.44
1148.188, 14060.03
1150.116, 13991.47
1152.045, 13929.18
1153.973, 13877.98
1155.902, 13846.03
1157.830, 13816.85
1159.759, 13787.83
1161.687, 13760.01
1163.616, 13734.79
1165.544, 13712.12
1167.473, 13692.95
1169.401, 13676.66
1171.329, 13662.94
1173.258, 13651.52
1175.186, 13642.43
1177.115, 13637.83
1179.043, 13642.03
1180.972, 13644.47
1182.900, 13637.01
1184.829, 13626.44
1186.757, 13624.16
1188.686, 13632.19
1190.614, 13639.12
1192.543, 13643.19
1194.471, 13643.55
1196.400, 13640.42
1198.328, 13632.04
1200.256, 13615.75
1202.185, 13586.13
1204.113, 13563.43
1206.042, 13556.30
1207.970, 13559.07
1209.899, 13566.89
1211.827, 13581.28
1213.756, 13595.25
1215.684, 13601.62
1217.613, 13610.12
1219.541, 13626.29
1221.470, 13647.08
1223.398, 13662.91
1225.327, 13671.60
1227.255, 13674.96
1229.183, 13670.84
1231.112, 13663.65
1233.040, 13660.38
1234.969, 13667.47
1236.897, 13670.67
1238.826, 13666.51
1240.754, 13662.60
1242.683, 13663.55
1244.611, 13671.06
1246.540, 13678.80
1248.468, 13682.50
1250.397, 13688.10
1252.325, 13702.59
1254.254, 13718.56
1256.182, 13725.75
1258.110, 13723.48
1260.039, 13725.37
1261.967, 13734.41
1263.896, 13749.03
1265.824, 13771.36
1267.753, 13798.54
1269.681, 13822.08
1271.610, 13834.70
1273.538, 13852.00
1275.467, 13875.32
1277.395, 13897.19
1279.324, 13912.05
1281.252, 13926.73
1283.181, 13944.05
1285.109, 13963.18
1287.037, 13978.72
1288.966, 13990.81
1290.894, 14004.53
1292.823, 14018.79
1294.751, 14029.45
1296.680, 14047.14
1298.608, 14080.99
1300.537, 14115.10
1302.465, 14137.48
1304.394, 14152.48
1306.322, 14172.20
1308.251, 14198.23
1310.179, 14225.06
1312.108, 14250.45
1314.036, 14278.13
1315.964, 14313.06
1317.893, 14353.69
1319.821, 14392.33
1321.750, 14429.61
1323.678, 14469.44
1325.607, 14514.23
1327.535, 14560.50
1329.464, 14602.07
1331.392, 14637.01
1333.321, 14682.05
1335.249, 14746.53
1337.178, 14807.05
1339.106, 14850.50
1341.035, 14880.40
1342.963, 14905.83
1344.891, 14930.48
1346.820, 14949.55
1348.748, 14957.45
1350.677, 14965.48
1352.605, 14986.82
1354.534, 15012.92
1356.462, 15022.07
1358.391, 15012.79
1360.319, 15013.23
1362.248, 15024.75
1364.176, 15034.01
1366.105, 15032.76
1368.033, 15025.65
1369.962, 15022.47
1371.890, 15023.18
1373.818, 15017.18
1375.747, 15002.78
1377.675, 14981.19
1379.604, 14949.24
1381.532, 14918.32
1383.461, 14905.36
1385.389, 14917.14
1387.318, 14924.14
1389.246, 14910.01
1391.175, 14893.24
1393.103, 14887.21
1395.032, 14889.25
1396.960, 14889.92
1398.889, 14886.74
1400.817, 14886.54
1402.745, 14896.79
1404.674, 14909.02
1406.602, 14913.50
1408.531, 14907.92
1410.459, 14908.28
1412.388, 14916.60
1414.316, 14928.27
1416.245, 14940.86
1418.173, 14951.24
1420.102, 14957.10
1422.030, 14959.88
1423.959, 14962.07
1425.887, 14965.54
1427.816, 14965.60
1429.744, 14967.04
1431.672, 14964.35
1433.601, 14948.81
1435.529, 14921.31
1437.458, 14900.17
1439.386, 14889.97
1441.315, 14890.47
1443.243, 14907.55
1445.172, 14928.07
1447.100, 14936.08
1449.029, 14931.97
1450.957, 14940.43
1452.886, 14970.52
1454.814, 14995.14
1456.743, 14998.74
1458.671, 14996.97
1460.599, 15004.23
1462.528, 15018.73
1464.456, 15032.75
1466.385, 15049.99
1468.313, 15057.82
1470.242, 15052.21
1472.170, 15045.15
1474.099, 15046.79
1476.027, 15056.58
1477.956, 15064.07
1479.884, 15063.59
1481.813, 15069.52
1483.741, 15086.89
1485.670, 15103.85
1487.598, 15107.66
1489.526, 15098.99
1491.455, 15097.26
1493.383, 15108.05
1495.312, 15116.68
1497.240, 15123.85
1499.169, 15129.57
1501.097, 15133.11
1503.026, 15137.87
1504.954, 15150.77
1506.883, 15173.67
1508.811, 15200.43
1510.740, 15226.69
1512.668, 15252.47
1514.597, 15275.26
1516.525, 15297.98
1518.453, 15326.45
1520.382, 15358.24
1522.310, 15377.22
1524.239, 15376.89
1526.167, 15371.73
1528.096, 15370.22
1530.024, 15372.01
1531.953, 15376.65
1533.881, 15388.06
1535.810, 15404.85
1537.738, 15425.31
1539.667, 15454.46
1541.595, 15494.23
1543.524, 15535.11
1545.452, 15568.50
1547.380, 15594.54
1549.309, 15616.33
1551.237, 15630.19
1553.166, 15644.11
1555.094, 15657.51
1557.023, 15678.09
1558.951, 15716.58
1560.880, 15772.45
1562.808, 15823.92
1564.737, 15863.42
1566.665, 15909.79
1568.594, 15962.68
1570.522, 16016.18
1572.451, 16067.19
1574.379, 16117.87
1576.307, 16172.46
1578.236, 16232.50
1580.164, 16292.42
1582.093, 16355.60
1584.021, 16417.52
1585.950, 16470.76
1587.878, 16525.06
1589.807, 16592.93
1591.735, 16673.81
1593.664, 16752.96
1595.592, 16827.34
1597.521, 16910.53
1599.449, 17014.18
1601.378, 17124.81
1603.306, 17232.88
1605.234, 17341.81
1607.163, 17459.21
1609.091, 17581.35
1611.020, 17712.59
1612.948, 17851.11
1614.877, 17989.35
1616.805, 18125.71
1618.734, 18257.96
1620.662, 18384.54
1622.591, 18505.53
1624.519, 18621.02
1626.448, 18735.82
1628.376, 18838.42
1630.305, 18930.10
1632.233, 19008.86
1634.161, 19078.10
1636.090, 19135.11
1638.018, 19171.25
1639.947, 19187.83
1641.875, 19197.38
1643.804, 19206.40
1645.732, 19201.37
1647.661, 19169.63
1649.589, 19120.37
1651.518, 19063.57
1653.446, 18994.30
1655.375, 18894.94
1657.303, 18755.29
1659.232, 18614.58
1661.160, 18489.74
1663.089, 18359.61
1665.017, 18205.56
1666.945, 18046.50
1668.874, 17912.56
1670.802, 17804.21
1672.731, 17700.18
1674.659, 17597.53
1676.588, 17500.90
1678.516, 17410.74
1680.445, 17326.63
1682.373, 17247.43
1684.302, 17172.84
1686.230, 17103.22
1688.159, 17038.23
1690.087, 16981.22
1692.016, 16937.64
1693.944, 16894.37
1695.872, 16844.02
1697.801, 16795.44
1699.729, 16758.95
1701.658, 16731.87
1703.586, 16701.07
1705.515, 16663.56
1707.443, 16643.91
1709.372, 16656.95
1711.300, 16671.64
1713.229, 16665.90
1715.157, 16658.43
1717.086, 16674.59
1719.014, 16705.47
1720.943, 16709.94
1722.871, 16676.61
1724.799, 16654.99
1726.728, 16668.87
1728.656, 16678.38
1730.585, 16659.60
1732.513, 16632.08
1734.442, 16619.20
1736.370, 16620.31
1738.299, 16623.92
1740.227, 16629.40
1742.156, 16635.17
1744.084, 16636.48
1746.013, 16639.44
1747.941, 16648.24
1749.870, 16657.70
1751.798, 16661.05
1753.726, 16660.14
1755.655, 16665.33
1757.583, 16681.88
1759.512, 16692.25
1761.440, 16682.79
1763.369, 16680.54
1765.297, 16704.86
1767.226, 16738.25
1769.154, 16757.40
1771.083, 16764.73
1773.011, 16779.68
1774.940, 16806.95
1776.868, 16824.58
1778.797, 16819.43
1780.725, 16814.92
1782.653, 16815.10
1784.582, 16823.04
1786.510, 16851.77
1788.439, 16893.70
1790.367, 16903.68
1792.296, 16870.91
1794.224, 16851.98
1796.153, 16862.70
1798.081, 16877.03
1800.010, 16893.43
1801.938, 16905.08
1803.867, 16898.72
1805.795, 16881.84
1807.724, 16883.79
1809.652, 16913.68
1811.580, 16930.27
1813.509, 16917.93
1815.437, 16918.81
1817.366, 16954.22
1819.294, 16994.33
1821.223, 17019.37
1823.151, 17033.66
1825.080, 17043.44
1827.008, 17045.06
1828.937, 17051.27
1830.865, 17061.52
1832.794, 17072.51
1834.722, 17086.86
1836.651, 17100.14
1838.579, 17112.50
1840.507, 17124.74
1842.436, 17137.68
1844.364, 17152.37
1846.293, 17168.32
1848.221, 17184.62
1850.150, 17205.36
1852.078, 17231.35
1854.007, 17259.05
1855.935, 17287.86
1857.864, 17315.87
1859.792, 17338.55
1861.721, 17359.32
1863.649, 17390.21
1865.578, 17431.15
1867.506, 17459.62
1869.434, 17471.79
1871.363, 17483.74
1873.291, 17497.97
1875.220, 17518.55
1877.148, 17547.33
1879.077, 17584.81
1881.005, 17636.29
1882.934, 17693.88
1884.862, 17730.86
1886.791, 17742.56
1888.719, 17763.87
1890.648, 17806.24
1892.576, 17839.34
1894.505, 17850.39
1896.433, 17856.73
1898.361, 17872.66
1900.290, 17892.44
1902.218, 17905.59
1904.147, 17913.88
1906.075, 17926.56
1908.004, 17944.04
1909.932, 17958.60
1911.861, 17958.43
1913.789, 17963.68
1915.718, 17989.09
1917.646, 18006.53
1919.575, 17992.06
1921.503, 17958.31
1923.432, 17929.50
1925.360, 17906.98
1927.288, 17875.48
1929.217, 17830.52
1931.145, 17796.74
1933.074, 17783.99
1935.002, 17777.34
1936.931, 17778.18
1938.859, 17780.73
1940.788, 17776.59
1942.716, 17772.04
1944.645, 17780.49
1946.573, 17798.48
1948.502, 17805.73
1950.430, 17796.31
1952.359, 17790.88
1954.287, 17792.47
1956.216, 17795.94
1958.144, 17807.75
1960.073, 17814.10
1962.001, 17805.57
1963.929, 17790.25
1965.858, 17777.57
1967.786, 17768.74
1969.715, 17762.73
1971.643, 17757.25
1973.572, 17761.51
1975.500, 17782.39
1977.429, 17796.17
1979.357, 17790.48
1981.286, 17781.41
1983.214, 17781.82
1985.143, 17783.23
1987.071, 17772.46
1989.000, 17754.94
1990.928, 17750.11
1992.856, 17761.20
1994.785, 17775.36
1996.713, 17796.32
1998.642, 17811.00
2000.570, 17809.18
2002.499, 17811.23
2004.427, 17830.78
2006.356, 17851.86
2008.284, 17857.98
2010.213, 17857.61
2012.141, 17866.26
2014.070, 17882.82
2015.998, 17906.04
2017.927, 17937.01
2019.855, 17959.02
2021.783, 17964.99
2023.712, 17971.19
2025.640, 17987.52
2027.569, 18001.08
2029.497, 18006.98
2031.426, 18004.82
2033.354, 17988.12
2035.283, 17963.88
2037.211, 17956.49
2039.140, 17969.33
2041.068, 17982.98
2042.997, 17997.17
2044.925, 18016.41
2046.854, 18045.80
2048.782, 18072.41
2050.710, 18086.84
2052.639, 18100.17
2054.567, 18115.79
2056.496, 18133.20
2058.424, 18156.69
2060.353, 18181.67
2062.281, 18193.48
2064.210, 18192.90
2066.138, 18191.47
2068.067, 18191.76
2069.995, 18190.54
2071.924, 18181.00
2073.852, 18183.11
2075.781, 18215.41
2077.709, 18249.65
2079.637, 18263.19
2081.566, 18271.92
2083.494, 18295.33
2085.423, 18329.23
2087.351, 18361.74
2089.280, 18390.77
2091.208, 18417.70
2093.137, 18443.09
2095.065, 18456.57
2096.994, 18452.97
2098.922, 18446.71
2100.851, 18440.21
2102.779, 18439.47
2104.708, 18457.74
2106.636, 18478.15
2108.564, 18480.66
2110.493, 18477.63
2112.421, 18491.47
2114.350, 18521.07
2116.278, 18553.48
2118.207, 18583.83
2120.135, 18636.03
2122.064, 18730.46
2123.992, 18811.93
2125.921, 18860.65
2127.849, 18909.02
2129.778, 18962.33
2131.706, 19019.66
2133.635, 19087.03
2135.563, 19152.63
2137.491, 19196.48
2139.420, 19230.48
2141.348, 19291.23
2143.277, 19378.23
2145.205, 19457.37
2147.134, 19525.19
2149.062, 19602.10
2150.991, 19697.16
2152.919, 19780.07
2154.848, 19826.19
2156.776, 19878.54
2158.705, 19959.53
2160.633, 20046.79
2162.562, 20134.17
2164.490, 20213.86
2166.418, 20267.65
2168.347, 20306.70
2170.275, 20367.88
2172.204, 20449.36
2174.132, 20518.86
2176.061, 20574.79
2177.989, 20615.64
2179.918, 20635.90
2181.846, 20656.46
2183.775, 20688.51
2185.703, 20709.82
2187.632, 20710.10
2189.560, 20698.65
2191.489, 20677.02
2193.417, 20651.00
2195.345, 20635.00
2197.274, 20617.92
2199.202, 20572.34
2201.131, 20502.34
2203.059, 20428.79
2204.988, 20349.96
2206.916, 20294.12
2208.845, 20267.59
2210.773, 20219.16
2212.702, 20127.51
2214.630, 20040.77
2216.559, 19979.21
2218.487, 19920.03
2220.416, 19861.24
2222.344, 19800.13
2224.272, 19725.87
2226.201, 19659.01
2228.129, 19630.45
2230.058, 19623.60
2231.986, 19596.60
2233.915, 19551.17
2235.843, 19526.23
2237.772, 19521.15
2239.700, 19502.14
2241.629, 19463.02
2243.557, 19438.59
2245.486, 19441.63
2247.414, 19441.32
2249.343, 19431.14
2251.271, 19412.66
2253.199, 19378.73
2255.128, 19345.09
2257.056, 19319.45
2258.985, 19301.14
2260.913, 19298.00
2262.842, 19298.55
2264.770, 19278.35
2266.699, 19246.84
2268.627, 19236.03
2270.556, 19243.33
2272.484, 19241.52
2274.413, 19227.48
2276.341, 19224.59
2278.270, 19241.05
2280.198, 19245.45
2282.126, 19214.50
2284.055, 19199.45
2285.983, 19216.71
2287.912, 19240.64
2289.840, 19275.04
2291.769, 19298.20
2293.697, 19293.20
2295.626, 19276.77
2297.554, 19260.88
2299.483, 19245.27
2301.411, 19224.77
2303.340, 19206.82
2305.268, 19214.40
2307.197, 19244.90
2309.125, 19262.73
2311.053, 19264.91
2312.982, 19272.88
2314.910, 19285.71
2316.839, 19301.24
2318.767, 19316.04
2320.696, 19337.84
2322.624, 19374.27
2324.553, 19399.49
2326.481, 19396.82
2328.410, 19394.81
2330.338, 19413.31
2332.267, 19429.32
2334.195, 19423.87
2336.124, 19412.73
2338.052, 19414.55
2339.980, 19418.67
2341.909, 19406.90
2343.837, 19386.28
2345.766, 19373.31
2347.694, 19368.46
2349.623, 19371.49
2351.551, 19382.49
2353.480, 19400.15
2355.408, 19426.60
2357.337, 19440.28
2359.265, 19426.61
2361.194, 19425.04
2363.122, 19445.23
2365.051, 19462.07
2366.979, 19469.97
2368.907, 19481.91
2370.836, 19504.75
2372.764, 19529.35
2374.693, 19548.57
2376.621, 19569.73
2378.550, 19597.15
2380.478, 19624.05
2382.407, 19643.07
2384.335, 19657.88
2386.264, 19676.33
2388.192, 19695.82
2390.121, 19711.96
2392.049, 19726.33
2393.978, 19734.95
2395.906, 19741.20
2397.834, 19759.32
2399.763, 19787.51
2401.691, 19821.17
2403.620, 19862.48
2405.548, 19882.97
2407.477, 19863.69
2409.405, 19865.21
2411.334, 19908.91
2413.262, 19934.87
2415.191, 19926.74
2417.119, 19929.42
2419.048, 19958.66
2420.976, 19993.06
2422.905, 20017.12
2424.833, 20045.51
2426.761, 20090.06
2428.690, 20129.97
2430.618, 20157.92
2432.547, 20167.31
2434.475, 20142.92
2436.404, 20109.71
2438.332, 20099.41
2440.261, 20102.66
2442.189, 20108.05
2444.118, 20112.57
2446.046, 20099.27
2447.975, 20075.56
2449.903, 20082.88
2451.832, 20117.23
2453.760, 20133.84
2455.688, 20131.08
2457.617, 20126.66
2459.545, 20122.01
2461.474, 20110.17
2463.402, 20088.38
2465.331, 20087.80
2467.259, 20131.10
2469.188, 20148.35
2471.116, 20106.49
2473.045, 20078.14
2474.973, 20069.78
2476.902, 20072.83
2478.830, 20096.80
2480.759, 20106.63
2482.687, 20083.10
2484.615, 20055.56
2486.544, 20034.97
2488.472, 20021.81
2490.401, 20024.28
2492.329, 20027.09
2494.258, 20012.38
2496.186, 19999.03
2498.115, 20011.43
2500.043, 20023.71
2501.972, 19998.66
2503.900, 19965.53
2505.829, 19970.59
2507.757, 19991.02
2509.686, 19982.21
2511.614, 19958.65
2513.542, 19961.24
2515.471, 19980.78
2517.399, 19970.98
2519.328, 19941.79
2521.256, 19939.82
2523.185, 19961.83
2525.113, 19974.05
2527.042, 19974.17
2528.970, 19978.27
2530.899, 19986.42
2532.827, 19996.32
2534.756, 20009.77
2536.684, 20005.31
2538.613, 19978.02
2540.541, 19972.81
2542.469, 20007.67
2544.398, 20017.96
2546.326, 19970.06
2548.255, 19947.76
2550.183, 19971.29
2552.112, 19993.79
2554.040, 20002.71
2555.969, 20024.32
2557.897, 20070.88
2559.826, 20109.48
2561.754, 20136.45
2563.683, 20139.17
2565.611, 20086.29
2567.540, 20050.79
2569.468, 20075.37
2571.396, 20105.72
2573.325, 20125.70
2575.253, 20139.22
2577.182, 20145.02
2579.110, 20149.11
2581.039, 20148.51
2582.967, 20155.82
2584.896, 20190.53
2586.824, 20224.47
2588.753, 20228.25
2590.681, 20227.13
2592.610, 20245.48
2594.538, 20265.31
2596.467, 20268.23
2598.395, 20262.62
2600.323, 20252.93
2602.252, 20246.96
2604.180, 20261.76
2606.109, 20284.10
2608.037, 20290.67
2609.966, 20293.12
2611.894, 20311.80
2613.823, 20337.52
2615.751, 20355.03
2617.680, 20364.78
2619.608, 20362.18
2621.537, 20355.55
2623.465, 20374.57
2625.394, 20407.30
2627.322, 20411.88
2629.250, 20402.37
2631.179, 20432.53
2633.107, 20487.40
2635.036, 20501.04
2636.964, 20482.01
2638.893, 20485.65
2640.821, 20507.07
2642.750, 20514.54
2644.678, 20511.68
2646.607, 20515.61
2648.535, 20527.12
2650.464, 20538.18
2652.392, 20549.83
2654.321, 20584.64
2656.249, 20640.73
2658.177, 20680.21
2660.106, 20703.70
2662.034, 20733.34
2663.963, 20768.85
2665.891, 20813.78
2667.820, 20867.34
2669.748, 20914.69
2671.677, 20955.28
2673.605, 20981.74
2675.534, 20995.80
2677.462, 21017.71
2679.391, 21051.34
2681.319, 21094.47
2683.248, 21149.38
2685.176, 21213.62
2687.104, 21288.50
2689.033, 21347.69
2690.961, 21388.29
2692.890, 21440.55
2694.818, 21506.02
2696.747, 21561.12
2698.675, 21601.99
2700.604, 21646.03
2702.532, 21695.28
2704.461, 21734.66
2706.389, 21765.04
2708.318, 21770.25
2710.246, 21744.46
2712.175, 21766.82
2714.103, 21855.95
2716.031, 21898.32
2717.960, 21889.00
2719.888, 21890.03
2721.817, 21903.42
2723.745, 21924.22
2725.674, 21954.98
2727.602, 21951.00
2729.531, 21904.18
2731.459, 21877.54
2733.388, 21873.02
2735.316, 21871.16
2737.245, 21872.62
2739.173, 21872.93
2741.102, 21872.17
2743.030, 21864.19
2744.958, 21845.22
2746.887, 21838.21
2748.815, 21839.37
2750.744, 21818.52
2752.672, 21774.16
2754.601, 21726.79
2756.529, 21678.69
2758.458, 21637.54
2760.386, 21605.39
2762.315, 21578.22
2764.243, 21554.50
2766.172, 21515.36
2768.100, 21462.77
2770.029, 21422.82
2771.957, 21394.36
2773.885, 21371.82
2775.814, 21354.21
2777.742, 21315.26
2779.671, 21265.27
2781.599, 21235.84
2783.528, 21225.16
2785.456, 21237.93
2787.385, 21258.63
2789.313, 21226.45
2791.242, 21163.48
2793.170, 21151.79
2795.099, 21165.12
2797.027, 21140.85
2798.956, 21098.96
2800.884, 21075.88
2802.813, 21067.91
2804.741, 21078.07
2806.669, 21086.31
2808.598, 21043.07
2810.526, 20992.63
2812.455, 21008.53
2814.383, 21046.57
2816.312, 21050.94
2818.240, 21040.06
2820.169, 21022.94
2822.097, 21014.21
2824.026, 21035.01
2825.954, 21058.32
2827.883, 21061.19
2829.811, 21051.69
2831.740, 21029.12
2833.668, 21008.81
2835.596, 21001.17
2837.525, 21003.07
2839.453, 21026.85
2841.382, 21043.87
2843.310, 21018.52
2845.239, 21014.11
2847.167, 21064.79
2849.096, 21113.97
2851.024, 21136.71
2852.953, 21146.78
2854.881, 21138.30
2856.810, 21133.75
2858.738, 21145.39
2860.667, 21148.64
2862.595, 21137.00
2864.523, 21132.30
2866.452, 21136.99
2868.380, 21158.67
2870.309, 21202.07
2872.237, 21231.83
2874.166, 21239.54
2876.094, 21244.63
2878.023, 21248.25
2879.951, 21248.88
2881.880, 21248.30
2883.808, 21251.76
2885.737, 21260.85
2887.665, 21248.24
2889.594, 21218.32
2891.522, 21234.11
2893.450, 21287.74
2895.379, 21311.52
2897.307, 21313.76
2899.236, 21332.85
2901.164, 21362.43
2903.093, 21391.66
2905.021, 21416.84
2906.950, 21429.67
2908.878, 21436.07
2910.807, 21445.59
2912.735, 21456.23
2914.664, 21470.40
2916.592, 21479.92
2918.521, 21467.21
2920.449, 21457.19
2922.377, 21471.39
2924.306, 21490.38
2926.234, 21506.86
2928.163, 21517.25
2930.091, 21520.66
2932.020, 21515.04
2933.948, 21490.46
2935.877, 21482.40
2937.805, 21512.67
2939.734, 21532.21
2941.662, 21526.01
2943.591, 21512.04
2945.519, 21484.58
2947.448, 21491.30
2949.376, 21542.96
2951.304, 21567.59
2953.233, 21550.70
2955.161, 21554.58
2957.090, 21578.27
2959.018, 21607.35
2960.947, 21635.53
2962.875, 21626.00
2964.804, 21592.79
2966.732, 21599.61
2968.661, 21624.38
2970.589, 21611.68
2972.518, 21580.85
2974.446, 21564.42
2976.375, 21549.92
2978.303, 21516.15
2980.231, 21487.01
2982.160, 21488.54
2984.088, 21496.33
2986.017, 21488.13
2987.945, 21486.83
2989.874, 21509.14
2991.802, 21522.87
2993.731, 21515.58
2995.659, 21504.81
2997.588, 21497.94
2999.516, 21487.33
3001.445, 21471.94
3003.373, 21462.81
3005.302, 21461.59
3007.230, 21460.43
3009.158, 21456.95
3011.087, 21460.23
3013.015, 21467.46
3014.944, 21463.16
3016.872, 21448.85
3018.801, 21429.72
3020.729, 21411.12
3022.658, 21410.23
3024.586, 21412.05
3026.515, 21377.13
3028.443, 21350.21
3030.372, 21396.49
3032.300, 21438.04
3034.229, 21405.57
3036.157, 21366.54
3038.085, 21350.70
3040.014, 21341.65
3041.942, 21337.02
3043.871, 21325.27
3045.799, 21293.27
3047.728, 21277.44
3049.656, 21287.36
3051.585, 21276.92
3053.513, 21242.16
3055.442, 21237.50
3057.370, 21263.36
3059.299, 21271.30
3061.227, 21264.44
3063.156, 21263.57
3065.084, 21263.67
3067.012, 21254.16
3068.941, 21244.63
3070.869, 21256.18
3072.798, 21271.74
3074.726, 21279.15
3076.655, 21282.35
3078.583, 21270.50
3080.512, 21274.45
3082.440, 21310.52
3084.369, 21340.96
3086.297, 21354.12
3088.226, 21360.11
3090.154, 21364.46
3092.083, 21347.17
3094.011, 21308.15
3095.939, 21290.36
3097.868, 21293.18
3099.796, 21272.64
3101.725, 21239.78
3103.653, 21251.34
3105.582, 21276.17
3107.510, 21263.87
3109.439, 21233.35
3111.367, 21191.73
3113.296, 21167.15
3115.224, 21193.76
3117.153, 21214.86
3119.081, 21186.64
3121.010, 21172.81
3122.938, 21192.16
3124.866, 21210.58
3126.795, 21224.51
3128.723, 21218.42
3130.652, 21187.63
3132.580, 21176.60
3134.509, 21183.80
3136.437, 21187.21
3138.366, 21188.50
3140.294, 21187.53
3142.223, 21189.73
3144.151, 21205.58
3146.080, 21225.36
3148.008, 21242.65
3149.937, 21255.26
3151.865, 21248.31
3153.793, 21261.03
3155.722, 21314.35
3157.650, 21355.14
3159.579, 21374.78
3161.507, 21366.54
3163.436, 21326.36
3165.364, 21316.48
3167.293, 21334.48
3169.221, 21348.18
3171.150, 21361.59
3173.078, 21399.64
3175.007, 21437.64
3176.935, 21429.19
3178.864, 21417.63
3180.792, 21447.39
3182.720, 21477.27
3184.649, 21479.82
3186.577, 21497.11
3188.506, 21549.53
3190.434, 21589.78
3192.363, 21604.56
3194.291, 21627.92
3196.220, 21659.92
3198.148, 21699.89
3200.077, 21740.94
3202.005, 21745.72
3203.934, 21734.65
3205.862, 21745.19
3207.791, 21763.92
3209.719, 21782.31
3211.647, 21797.93
3213.576, 21805.63
3215.504, 21822.18
3217.433, 21861.16
3219.361, 21890.31
3221.290, 21895.02
3223.218, 21936.08
3225.147, 22010.18
3227.075, 22049.23
3229.004, 22059.59
3230.932, 22077.52
3232.861, 22098.89
3234.789, 22124.17
3236.718, 22144.36
3238.646, 22143.04
3240.574, 22153.19
3242.503, 22208.25
3244.431, 22238.14
3246.360, 22209.15
3248.288, 22199.67
3250.217, 22216.51
3252.145, 22254.88
3254.074, 22308.21
3256.002, 22341.35
3257.931, 22356.26
3259.859, 22351.48
3261.788, 22343.16
3263.716, 22355.59
3265.645, 22365.01
3267.573, 22356.02
3269.501, 22336.07
3271.430, 22302.22
3273.358, 22276.36
3275.287, 22266.04
3277.215, 22250.81
3279.144, 22231.83
3281.072, 22221.78
3283.001, 22213.97
3284.929, 22181.46
3286.858, 22142.87
3288.786, 22122.61
3290.715, 22106.09
3292.643, 22083.82
3294.572, 22057.79
3296.500, 22020.97
3298.428, 22003.15
3300.357, 22011.32
3302.285, 22004.52
3304.214, 21981.68
3306.142, 21971.73
3308.071, 21966.40
3309.999, 21951.72
3311.928, 21921.60
3313.856, 21857.25
3315.785, 21795.41
3317.713, 21758.56
3319.642, 21731.10
3321.570, 21716.94
3323.499, 21702.42
3325.427, 21687.91
3327.355, 21680.68
3329.284, 21679.46
3331.212, 21675.41
3333.141, 21676.22
3335.069, 21712.89
3336.998, 21740.49
3338.926, 21699.08
3340.855, 21673.61
3342.783, 21708.11
3344.712, 21718.18
3346.640, 21683.60
3348.569, 21641.69
3350.497, 21598.23
3352.426, 21559.24
3354.354, 21531.68
3356.282, 21526.03
3358.211, 21532.62
3360.139, 21532.63
3362.068, 21541.96
3363.996, 21573.44
3365.925, 21590.70
3367.853, 21584.30
3369.782, 21567.27
3371.710, 21544.14
3373.639, 21531.41
3375.567, 21530.47
3377.496, 21541.34
3379.424, 21553.24
3381.353, 21540.27
3383.281, 21536.27
3385.209, 21569.29
3387.138, 21582.29
3389.066, 21555.89
3390.995, 21543.60
3392.923, 21552.63
3394.852, 21544.10
3396.780, 21528.48
3398.709, 21527.75
3400.637, 21536.16
3402.566, 21547.17
3404.494, 21560.16
3406.423, 21577.19
3408.351, 21589.27
3410.280, 21593.43
3412.208, 21611.08
3414.136, 21640.51
3416.065, 21635.13
3417.993, 21611.20
3419.922, 21608.43
3421.850, 21612.10
3423.779, 21612.08
3425.707, 21609.37
3427.636, 21603.88
3429.564, 21600.48
3431.493, 21601.09
3433.421, 21604.81
3435.350, 21611.53
3437.278, 21623.63
3439.207, 21630.99
3441.135, 21606.22
3443.063, 21589.19
3444.992, 21607.03
3446.920, 21632.69
3448.849, 21654.91
3450.777, 21690.21
3452.706, 21735.03
3454.634, 21731.34
3456.563, 21701.96
3458.491, 21711.14
3460.420, 21731.61
3462.348, 21746.99
3464.277, 21751.21
3466.205, 21724.62
3468.134, 21732.41
3470.062, 21781.46
3471.990, 21800.44
3473.919, 21797.79
3475.847, 21846.85
3477.776, 21897.34
3479.704, 21876.02
3481.633, 21849.21
3483.561, 21854.82
3485.490, 21871.54
3487.418, 21903.94
3489.347, 21908.14
3491.275, 21890.10
3493.204, 21896.72
3495.132, 21916.56
3497.061, 21927.40
3498.989, 21943.18
3500.917, 21976.57
3502.846, 21997.50
3504.774, 21989.16
3506.703, 21985.54
3508.631, 21990.01
3510.560, 22036.38
3512.488, 22086.82
3514.417, 22048.58
3516.345, 22016.05
3518.274, 22066.06
3520.202, 22102.64
3522.131, 22092.82
3524.059, 22085.17
3525.988, 22083.72
3527.916, 22113.96
3529.844, 22152.69
3531.773, 22153.01
3533.701, 22140.83
3535.630, 22134.08
3537.558, 22120.45
3539.487, 22101.73
3541.415, 22076.27
3543.344, 22049.13
3545.272, 22036.99
3547.201, 22030.15
3549.129, 21997.59
3551.058, 21977.22
3552.986, 22001.07
3554.915, 22017.06
3556.843, 22013.62
3558.771, 22009.72
3560.700, 22003.82
3562.628, 21966.35
3564.557, 21926.26
3566.485, 21922.66
3568.414, 21929.04
3570.342, 21934.74
3572.271, 21937.31
3574.199, 21932.56
3576.128, 21943.96
3578.056, 21958.98
3579.985, 21936.78
3581.913, 21906.91
3583.842, 21903.98
3585.770, 21899.17
3587.698, 21880.59
3589.627, 21875.14
3591.555, 21884.19
3593.484, 21881.55
3595.412, 21872.70
3597.341, 21863.38
3599.269, 21861.02
3601.198, 21871.86
3603.126, 21882.55
3605.055, 21889.08
3606.983, 21904.33
3608.912, 21923.45
3610.840, 21912.86
3612.769, 21904.38
3614.697, 21954.21
3616.625, 21982.30
3618.554, 21926.33
3620.482, 21903.38
3622.411, 21916.34
3624.339, 21916.30
3626.268, 21911.62
3628.196, 21923.33
3630.125, 21939.74
3632.053, 21958.88
3633.982, 21965.79
3635.910, 21956.85
3637.839, 21950.43
3639.767, 21941.50
3641.696, 21898.02
3643.624, 21859.50
3645.552, 21868.71
3647.481, 21888.57
3649.409, 21907.37
3651.338, 21940.46
3653.266, 21984.04
3655.195, 21999.32
3657.123, 21996.99
3659.052, 21989.70
3660.980, 21981.87
3662.909, 21972.99
3664.837, 21977.67
3666.766, 21998.01
3668.694, 22021.23
3670.623, 22041.93
3672.551, 22040.58
3674.479, 22039.94
3676.408, 22054.57
3678.336, 22069.93
3680.265, 22083.17
3682.193, 22089.77
3684.122, 22092.49
3686.050, 22108.89
3687.979, 22114.79
3689.907, 22080.21
3691.836, 22057.57
3693.764, 22059.00
3695.693, 22065.32
3697.621, 22076.74
3699.550, 22102.13
3701.478, 22129.38
3703.406, 22147.29
3705.335, 22156.04
3707.263, 22151.68
3709.192, 22172.17
3711.120, 22211.01
3713.049, 22220.33
3714.977, 22225.27
3716.906, 22253.51
3718.834, 22287.87
3720.763, 22328.40
3722.691, 22334.42
3724.620, 22313.54
3726.548, 22324.90
3728.477, 22352.75
3730.405, 22385.88
3732.333, 22412.52
3734.262, 22428.52
3736.190, 22443.84
3738.119, 22460.43
3740.047, 22482.87
3741.976, 22506.62
3743.904, 22527.60
3745.833, 22546.21
3747.761, 22561.66
3749.690, 22584.47
3751.618, 22611.79
3753.547, 22620.81
3755.475, 22633.59
3757.404, 22678.20
3759.332, 22717.78
3761.260, 22744.93
3763.189, 22744.60
3765.117, 22727.86
3767.046, 22736.25
3768.974, 22758.39
3770.903, 22795.02
3772.831, 22815.98
3774.760, 22813.75
3776.688, 22847.05
3778.617, 22900.91
3780.545, 22932.18
3782.474, 22946.68
3784.402, 22942.01
3786.331, 22936.06
3788.259, 22932.08
3790.188, 22952.19
3792.116, 22981.59
3794.044, 22983.16
3795.973, 22986.60
3797.901, 23004.83
3799.830, 23045.26
3801.758, 23101.85
3803.687, 23112.42
3805.615, 23096.62
3807.544, 23072.46
3809.472, 23057.27
3811.401, 23071.35
3813.329, 23057.96
3815.258, 23028.22
3817.186, 23041.31
3819.115, 23063.55
3821.043, 23056.64
3822.971, 23054.77
3824.900, 23075.83
3826.828, 23050.38
3828.757, 23003.14
3830.685, 22998.43
3832.614, 23011.30
3834.542, 23033.85
3836.471, 23029.50
3838.399, 22990.80
3840.328, 22998.06
3842.256, 23014.94
3844.185, 22983.21
3846.113, 22947.48
3848.042, 22921.36
3849.970, 22917.64
3851.898, 22928.92
3853.827, 22916.62
3855.755, 22899.01
3857.684, 22903.72
3859.612, 22879.81
3861.541, 22817.88
3863.469, 22790.64
3865.398, 22786.96
3867.326, 22778.06
3869.255, 22775.08
3871.183, 22780.17
3873.112, 22784.37
3875.040, 22789.81
3876.969, 22816.86
3878.897, 22841.93
3880.825, 22845.62
3882.754, 22843.80
3884.682, 22842.81
3886.611, 22824.80
3888.539, 22805.80
3890.468, 22831.76
3892.396, 22856.59
3894.325, 22855.62
3896.253, 22855.90
3898.182, 22854.86
3900.110, 22835.41
3902.039, 22808.75
3903.967, 22788.91
3905.896, 22786.14
3907.824, 22802.64
3909.752, 22819.76
3911.681, 22834.86
3913.609, 22854.36
3915.538, 22866.39
3917.466, 22859.86
3919.395, 22859.51
3921.323, 22859.72
3923.252, 22844.70
3925.180, 22835.74
3927.109, 22845.65
3929.037, 22867.89
3930.966, 22893.70
3932.894, 22897.48
3934.823, 22895.57
3936.751, 22922.29
3938.679, 22937.05
3940.608, 22921.52
3942.536, 22902.52
3944.465, 22904.12
3946.393, 22909.79
3948.322, 22910.09
3950.250, 22926.40
3952.179, 22925.66
3954.107, 22913.04
3956.036, 22911.86
3957.964, 22908.96
3959.893, 22909.61
3961.821, 22938.97
3963.750, 22978.82
3965.678, 23016.73
3967.606, 23040.17
3969.535, 23042.58
3971.463, 23038.84
3973.392, 23018.53
3975.320, 22981.00
3977.249, 22966.68
3979.177, 23001.27
3981.106, 23032.13
3983.034, 23048.91
3984.963, 23065.64
3986.891, 23080.53
3988.820, 23114.69
3990.748, 23155.96
3992.677, 23186.05
3994.605, 23185.04
3996.533, 23177.46
3998.462, 23224.75
4000.390, 23260.17
4002.319, 23257.46
4004.247, 23270.26
4006.176, 23276.37
4008.104, 23275.36
4010.033, 23295.96
4011.961, 23330.58
4013.890, 23347.31
4015.818, 23348.06
4017.747, 23340.10
4019.675, 23346.11
4021.604, 23393.87
4023.532, 23434.43
4025.460, 23453.35
4027.389, 23472.58
4029.317, 23503.99
4031.246, 23548.50
4033.174, 23562.64
4035.103, 23561.79
4037.031, 23561.12
4038.960, 23555.09
4040.888, 23559.24
4042.817, 23573.67
4044.745, 23581.15
4046.674, 23602.46
4048.602, 23635.77
4050.531, 23642.79
4052.459, 23649.63
4054.387, 23678.99
4056.316, 23705.00
4058.244, 23718.57
4060.173, 23740.87
4062.101, 23753.00
4064.030, 23737.27
4065.958, 23743.21
4067.887, 23755.01
4069.815, 23738.90
4071.744, 23714.71
4073.672, 23701.41
4075.601, 23714.30
4077.529, 23725.34
4079.458, 23735.74
4081.386, 23753.91
4083.314, 23761.88
4085.243, 23750.08
4087.171, 23735.99
4089.100, 23749.83
4091.028, 23753.36
4092.957, 23740.44
4094.885, 23726.29
4096.814, 23714.95
4098.742, 23722.80
4100.671, 23739.58
4102.599, 23760.56
4104.528, 23750.26
4106.456, 23729.59
4108.385, 23748.07
4110.313, 23764.73
4112.242, 23763.93
4114.170, 23743.88
4116.099, 23719.63
4118.027, 23736.07
4119.956, 23753.42
4121.884, 23750.68
4123.813, 23745.79
4125.741, 23743.53
4127.669, 23765.29
4129.598, 23774.85
4131.526, 23746.88
4133.455, 23750.58
4135.383, 23779.39
4137.312, 23790.16
4139.240, 23809.39
4141.168, 23851.54
4143.097, 23860.08
4145.025, 23846.45
4146.954, 23843.37
4148.882, 23851.58
4150.811, 23874.19
4152.739, 23879.23
4154.668, 23873.80
4156.596, 23894.17
4158.525, 23910.15
4160.453, 23894.96
4162.382, 23913.84
4164.310, 23948.09
4166.239, 23928.70
4168.167, 23907.44
4170.096, 23921.72
4172.024, 23919.43
4173.953, 23909.96
4175.881, 23930.31
4177.810, 23958.59
4179.738, 23979.50
4181.667, 23995.04
4183.595, 24006.72
4185.523, 24000.08
4187.452, 24003.30
4189.380, 24034.61
4191.309, 24046.73
4193.237, 24046.49
4195.166, 24047.95
4197.094, 24053.13
4199.022, 24062.72
4200.951, 24064.75
4202.879, 24071.40
4204.808, 24093.25
4206.736, 24126.67
4208.665, 24176.11
4210.593, 24191.54
4212.522, 24193.58
4214.450, 24207.76
4216.379, 24221.11
4218.307, 24235.35
4220.236, 24219.80
4222.164, 24195.63
4224.093, 24203.37
4226.021, 24205.06
4227.950, 24195.07
4229.878, 24248.33
4231.807, 24306.87
4233.735, 24310.03
4235.664, 24324.97
4237.592, 24356.57
4239.521, 24374.32
4241.449, 24366.46
4243.377, 24317.35
4245.306, 24330.09
4247.234, 24385.60
4249.163, 24401.47
4251.091, 24420.65
4253.020, 24462.90
4254.948, 24472.67
4256.876, 24468.66
4258.805, 24495.02
4260.733, 24515.00
4262.662, 24517.21
4264.590, 24537.21
4266.519, 24560.95
4268.447, 24565.68
4270.376, 24591.46
4272.304, 24643.39
4274.233, 24651.63
4276.161, 24646.44
4278.090, 24645.55
4280.018, 24649.97
4281.947, 24665.17
4283.875, 24741.42
4285.804, 24799.75
4287.732, 24798.90
4289.661, 24805.59
4291.589, 24821.99
4293.518, 24843.21
4295.446, 24864.94
4297.375, 24884.29
4299.303, 24895.31
4301.231, 24913.30
4303.160, 24967.88
4305.088, 24990.07
4307.017, 24975.09
4308.945, 24986.65
4310.874, 25005.58
4312.802, 25025.70
4314.730, 25025.90
4316.659, 25015.33
4318.587, 25010.71
4320.516, 25022.95
4322.444, 25052.95
4324.373, 25084.53
4326.301, 25116.99
4328.230, 25163.76
4330.158, 25173.18
4332.087, 25145.89
4334.015, 25127.00
4335.944, 25127.26
4337.872, 25158.55
4339.801, 25173.18
4341.729, 25175.39
4343.658, 25187.49
4345.586, 25200.57
4347.515, 25210.86
4349.443, 25220.10
4351.372, 25227.47
4353.300, 25229.26
4355.229, 25241.72
4357.157, 25258.09
4359.085, 25217.68
4361.014, 25186.69
4362.942, 25217.26
4364.871, 25236.32
4366.799, 25244.59
4368.728, 25241.22
4370.656, 25246.41
4372.584, 25262.64
4374.513, 25244.43
4376.441, 25217.96
4378.370, 25206.44
4380.298, 25219.44
4382.227, 25245.34
4384.155, 25230.14
4386.084, 25206.87
4388.012, 25186.08
4389.941, 25167.74
4391.869, 25156.98
4393.798, 25166.45
4395.726, 25166.74
4397.655, 25157.45
4399.583, 25161.64
4401.512, 25162.97
4403.440, 25150.77
4405.369, 25156.14
4407.297, 25160.87
4409.226, 25121.35
4411.154, 25120.98
4413.083, 25162.38
4415.011, 25167.66
4416.939, 25154.24
4418.868, 25127.68
4420.796, 25118.82
4422.725, 25131.09
4424.653, 25179.02
4426.582, 25204.62
4428.510, 25197.65
4430.438, 25225.60
4432.367, 25245.93
4434.295, 25230.30
4436.224, 25183.96
4438.152, 25145.95
4440.081, 25217.68
4442.009, 25235.88
4443.938, 25171.35
4445.866, 25230.76
4447.795, 25290.30
4449.723, 25273.51
4451.652, 25252.24
4453.580, 25242.79
4455.509, 25269.83
4457.437, 25299.31
4459.366, 25321.51
4461.294, 25294.29
4463.223, 25288.44
4465.151, 25358.56
4467.080, 25377.18
4469.008, 25366.21
4470.937, 25388.99
4472.865, 25342.51
4474.793, 25238.62
4476.722, 25272.18
4478.650, 25328.48
4480.579, 25357.37
4482.507, 25359.44
4484.436, 25356.26
4486.364, 25371.93
4488.292, 25388.78
4490.221, 25401.98
4492.149, 25402.30
4494.078, 25409.21
4496.006, 25430.92
4497.935, 25482.11
4499.863, 25517.54
4501.792, 25475.70
4503.720, 25465.08
4505.649, 25486.35
4507.577, 25532.73
4509.506, 25577.77
4511.434, 25613.24
4513.363, 25633.32
4515.291, 25646.01
4517.220, 25658.85
4519.148, 25657.08
4521.077, 25653.06
4523.005, 25654.94
4524.934, 25680.22
4526.862, 25720.45
4528.791, 25745.60
4530.719, 25766.69
4532.647, 25791.91
4534.576, 25745.75
4536.504, 25726.51
4538.433, 25831.38
4540.361, 25857.48
4542.290, 25839.05
4544.218, 25856.38
4546.146, 25884.02
4548.075, 25916.08
4550.003, 25946.79
4551.932, 25995.56
4553.860, 26071.82
4555.789, 26117.31
4557.717, 26120.85
4559.646, 26052.81
4561.574, 26043.42
4563.503, 26070.54
4565.431, 26065.39
4567.360, 26068.85
4569.288, 26086.39
4571.217, 26123.52
4573.145, 26166.38
4575.074, 26209.83
4577.002, 26194.88
4578.931, 26174.78
4580.859, 26212.29
4582.788, 26221.24
4584.716, 26214.43
4586.645, 26218.37
4588.573, 26239.07
4590.501, 26265.95
4592.430, 26231.19
4594.358, 26221.87
4596.287, 26264.62
4598.215, 26289.71
4600.144, 26306.21
4602.072, 26317.29
4604.000, 26319.56
4605.929, 26319.46
4607.857, 26329.42
4609.786, 26346.62
4611.714, 26363.22
4613.643, 26351.71
4615.571, 26343.18
4617.500, 26339.37
4619.428, 26287.50
4621.357, 26249.19
4623.285, 26258.02
4625.214, 26275.75
4627.142, 26287.88
4629.071, 26280.89
4630.999, 26300.73
4632.928, 26324.52
4634.856, 26303.51
4636.785, 26288.14
4638.713, 26287.55
4640.642, 26315.53
4642.570, 26338.57
4644.499, 26346.88
4646.427, 26304.58
4648.355, 26287.11
4650.284, 26323.42
4652.212, 26329.71
4654.141, 26335.07
4656.069, 26377.20
4657.998, 26347.76
4659.926, 26296.93
4661.854, 26310.37
4663.783, 26293.69
4665.711, 26267.50
4667.640, 26307.84
4669.568, 26352.22
4671.497, 26382.79
4673.425, 26382.44
4675.354, 26373.95
4677.282, 26366.85
4679.211, 26415.37
4681.139, 26449.33
4683.068, 26429.95
4684.996, 26451.17
4686.925, 26468.14
4688.853, 26435.46
4690.782, 26439.11
4692.710, 26446.46
4694.639, 26390.89
4696.567, 26365.21
4698.496, 26377.82
4700.424, 26442.72
4702.353, 26476.56
4704.281, 26473.68
4706.209, 26457.59
4708.138, 26453.60
4710.066, 26466.73
4711.995, 26479.50
4713.923, 26487.62
4715.852, 26491.45
4717.780, 26469.53
4719.708, 26468.87
4721.637, 26518.46
4723.565, 26505.50
4725.494, 26495.60
4727.422, 26563.57
4729.351, 26594.68
4731.279, 26602.46
4733.208, 26616.11
4735.136, 26595.08
4737.065, 26560.54
4738.993, 26543.28
4740.922, 26578.58
4742.850, 26637.87
4744.779, 26616.92
4746.707, 26631.82
4748.636, 26680.21
4750.564, 26660.13
4752.493, 26653.43
4754.421, 26683.47
4756.350, 26728.67
4758.278, 26755.19
4760.207, 26754.53
4762.135, 26801.00
4764.063, 26831.57
4765.992, 26810.40
4767.920, 26794.18
4769.849, 26802.54
4771.777, 26854.75
4773.706, 26850.55
4775.634, 26837.27
4777.563, 26853.92
4779.491, 26896.20
4781.419, 26933.69
4783.348, 26921.34
4785.276, 26968.73
4787.205, 27033.84
4789.133, 27050.87
4791.062, 27066.26
4792.990, 27080.20
4794.919, 27076.09
4796.847, 27083.01
4798.776, 27098.14
4800.704, 27123.68
4802.633, 27113.58
4804.561, 27083.05
4806.490, 27070.56
4808.418, 27111.50
4810.347, 27186.40
4812.275, 27192.44
4814.204, 27208.94
4816.132, 27243.58
4818.061, 27258.99
4819.989, 27287.56
4821.917, 27331.87
4823.846, 27351.97
4825.774, 27365.89
4827.703, 27379.68
4829.631, 27393.43
4831.560, 27415.09
4833.488, 27444.39
4835.417, 27428.71
4837.345, 27398.19
4839.273, 27373.40
4841.202, 27414.79
4843.130, 27477.87
4845.059, 27539.93
4846.987, 27586.76
4848.916, 27588.71
4850.844, 27541.67
4852.773, 27564.96
4854.701, 27590.69
4856.630, 27584.29
4858.558, 27558.98
4860.487, 27553.78
4862.415, 27583.31
4864.344, 27598.96
4866.272, 27603.45
4868.201, 27599.33
4870.129, 27607.75
4872.058, 27621.80
4873.986, 27636.62
4875.915, 27626.70
4877.843, 27630.07
4879.771, 27672.18
4881.700, 27626.74
4883.628, 27593.10
4885.557, 27623.16
4887.485, 27659.34
4889.414, 27668.49
4891.342, 27631.13
4893.271, 27678.06
4895.199, 27724.74
4897.127, 27725.80
4899.056, 27695.99
4900.984, 27657.79
4902.913, 27626.84
4904.841, 27656.04
4906.770, 27672.37
4908.698, 27640.30
4910.627, 27637.23
4912.555, 27644.34
4914.484, 27651.07
4916.412, 27670.59
4918.341, 27685.94
4920.269, 27691.73
4922.198, 27675.30
4924.126, 27654.02
4926.055, 27637.77
4927.983, 27661.41
4929.912, 27673.52
4931.840, 27661.24
4933.769, 27712.99
4935.697, 27715.93
4937.625, 27664.63
4939.554, 27668.17
4941.482, 27689.90
4943.411, 27712.39
4945.339, 27698.77
4947.268, 27696.49
4949.196, 27708.39
4951.125, 27721.75
4953.053, 27713.54
4954.981, 27691.30
4956.910, 27685.21
4958.838, 27675.08
4960.767, 27672.62
4962.695, 27712.67
4964.624, 27725.18
4966.552, 27712.88
4968.481, 27679.65
4970.409, 27724.61
4972.338, 27779.93
4974.266, 27739.92
4976.195, 27704.38
4978.123, 27684.36
4980.052, 27678.54
4981.980, 27713.67
4983.909, 27748.23
4985.837, 27746.67
4987.766, 27747.31
4989.694, 27739.84
4991.623, 27715.90
4993.551, 27743.43
4995.479, 27762.54
4997.408, 27739.53
4999.336, 27739.91
5001.265, 27760.74
5003.193, 27794.53
5005.122, 27810.88
5007.050, 27809.70
5008.979, 27798.31
5010.907, 27818.00
5012.835, 27826.27
5014.764, 27819.96
5016.692, 27813.96
5018.621, 27808.38
5020.549, 27820.61
5022.478, 27898.24
5024.406, 27915.20
5026.335, 27908.13
5028.263, 27950.58
5030.192, 27941.48
5032.120, 27918.17
5034.049, 27927.07
5035.977, 27968.87
5037.906, 27991.27
5039.834, 27960.21
5041.763, 27933.27
5043.691, 27945.10
5045.620, 27996.48
5047.548, 27942.83
5049.477, 27924.85
5051.405, 27971.42
5053.333, 27989.43
5055.262, 27995.88
5057.190, 27992.96
5059.119, 27976.97
5061.047, 27980.48
5062.976, 28003.53
5064.904, 28048.23
5066.833, 28045.15
5068.761, 28021.32
5070.689, 28005.15
5072.618, 28053.46
5074.546, 28087.45
5076.475, 28056.38
5078.403, 28013.54
5080.332, 28021.99
5082.260, 28092.35
5084.189, 28116.67
5086.117, 28093.99
5088.046, 28054.10
5089.974, 28097.20
5091.903, 28117.26
5093.831, 28115.79
5095.760, 28116.67
5097.688, 28158.72
5099.617, 28212.70
5101.545, 28244.35
5103.474, 28281.82
5105.402, 28296.77
5107.331, 28268.55
5109.259, 28272.67
5111.188, 28285.55
5113.116, 28297.95
5115.044, 28301.40
5116.973, 28319.42
5118.901, 28352.16
5120.830, 28402.57
5122.758, 28407.26
5124.687, 28377.43
5126.615, 28333.83
5128.543, 28351.23
5130.472, 28358.81
5132.400, 28307.52
5134.329, 28302.30
5136.257, 28328.58
5138.186, 28370.77
5140.114, 28398.81
5142.043, 28420.35
5143.971, 28436.24
5145.900, 28447.92
5147.828, 28443.75
5149.757, 28442.39
5151.685, 28474.69
5153.614, 28501.38
5155.542, 28500.31
5157.471, 28463.39
5159.399, 28516.30
5161.328, 28513.84
5163.256, 28440.61
5165.185, 28446.68
5167.113, 28481.71
5169.042, 28516.68
5170.970, 28515.63
5172.898, 28522.47
5174.827, 28527.39
5176.755, 28517.89
5178.684, 28548.07
5180.612, 28571.07
5182.541, 28568.00
5184.469, 28570.17
5186.397, 28575.68
5188.326, 28583.52
5190.254, 28593.51
5192.183, 28595.34
5194.111, 28602.91
5196.040, 28639.25
5197.968, 28615.80
5199.897, 28578.59
5201.825, 28557.78
5203.754, 28639.39
5205.682, 28641.69
5207.611, 28585.84
5209.539, 28647.33
5211.468, 28647.55
5213.396, 28632.85
5215.325, 28690.57
5217.253, 28656.68
5219.182, 28612.14
5221.110, 28596.58
5223.039, 28584.17
5224.967, 28603.61
5226.896, 28639.79
5228.824, 28644.66
5230.752, 28639.13
5232.681, 28630.59
5234.609, 28625.45
5236.538, 28588.61
5238.466, 28595.78
5240.395, 28658.83
5242.323, 28700.52
5244.251, 28694.75
5246.180, 28660.44
5248.108, 28637.47
5250.037, 28591.01
5251.965, 28565.66
5253.894, 28589.26
5255.822, 28606.10
5257.751, 28643.14
5259.679, 28686.79
5261.608, 28672.26
5263.536, 28683.13
5265.465, 28694.06
5267.393, 28660.73
5269.322, 28671.25
5271.250, 28683.14
5273.179, 28678.35
5275.107, 28670.11
5277.036, 28693.63
5278.964, 28730.18
5280.893, 28747.87
5282.821, 28728.83
5284.750, 28712.03
5286.678, 28720.63
5288.606, 28782.27
5290.535, 28824.12
5292.463, 28844.45
5294.392, 28900.41
5296.320, 28848.02
5298.249, 28796.85
5300.177, 28858.97
5302.105, 28789.56
5304.034, 28756.72
5305.962, 28777.16
5307.891, 28724.08
5309.819, 28740.98
5311.748, 28781.46
5313.676, 28784.13
5315.605, 28857.03
5317.533, 28885.88
5319.462, 28847.56
5321.390, 28803.85
5323.319, 28817.40
5325.247, 28834.88
5327.176, 28792.90
5329.104, 28801.34
5331.033, 28838.04
5332.961, 28873.00
5334.890, 28812.31
5336.818, 28796.16
5338.747, 28808.93
5340.675, 28809.32
5342.604, 28776.85
5344.532, 28792.74
5346.460, 28858.13
5348.389, 28855.67
5350.317, 28884.57
5352.246, 28902.39
5354.174, 28842.51
5356.103, 28822.73
5358.031, 28843.42
5359.959, 28878.63
5361.888, 28836.91
5363.816, 28847.58
5365.745, 28863.00
5367.673, 28826.44
5369.602, 28793.75
5371.530, 28773.86
5373.459, 28773.61
5375.387, 28809.68
5377.316, 28824.32
5379.244, 28827.67
5381.173, 28829.95
5383.101, 28784.05
5385.030, 28774.96
5386.958, 28792.50
5388.887, 28762.76
5390.815, 28774.61
5392.744, 28803.41
5394.672, 28826.69
5396.601, 28843.55
5398.529, 28839.28
5400.458, 28814.83
5402.386, 28776.49
5404.314, 28740.23
5406.243, 28697.96
5408.171, 28655.51
5410.100, 28654.76
5412.028, 28613.54
5413.957, 28589.15
5415.885, 28647.32
5417.813, 28651.95
5419.742, 28667.87
5421.670, 28684.92
5423.599, 28638.35
5425.527, 28644.99
5427.456, 28654.86
5429.384, 28629.08
5431.313, 28536.96
5433.241, 28560.40
5435.170, 28616.09
5437.098, 28551.29
5439.027, 28539.00
5440.955, 28535.57
5442.884, 28519.98
5444.812, 28475.54
5446.741, 28517.93
5448.669, 28551.87
5450.598, 28506.43
5452.526, 28386.61
5454.455, 28351.68
5456.383, 28371.60
5458.312, 28357.48
5460.240, 28347.51
5462.168, 28367.36
5464.097, 28398.74
5466.025, 28368.14
5467.954, 28379.96
5469.882, 28400.88
5471.811, 28396.04
5473.739, 28326.85
5475.667, 28291.14
5477.596, 28288.65
5479.524, 28302.15
5481.453, 28264.55
5483.381, 28250.56
5485.310, 28256.27
5487.238, 28219.04
5489.167, 28188.35
5491.095, 28193.55
5493.024, 28228.70
5494.952, 28213.75
5496.881, 28200.02
5498.809, 28206.39
5500.738, 28243.05
5502.666, 28226.08
5504.595, 28185.25
5506.523, 28156.38
5508.452, 28178.15
5510.380, 28156.21
5512.309, 28163.47
5514.237, 28191.68
5516.166, 28139.99
5518.094, 28146.49
5520.022, 28133.50
5521.951, 28068.12
5523.879, 28045.87
5525.808, 28050.08
5527.736, 28037.67
5529.665, 27985.14
5531.593, 28072.37
5533.521, 28085.07
5535.450, 28039.58
5537.378, 28013.00
5539.307, 27969.30
5541.235, 27951.60
5543.164, 27951.69
5545.092, 27915.27
5547.021, 27942.41
5548.949, 27951.47
5550.878, 27919.39
5552.806, 27884.21
5554.735, 27858.85
5556.663, 27847.89
5558.592, 27849.35
5560.520, 27850.27
5562.449, 27827.11
5564.377, 27830.81
5566.306, 27882.25
5568.234, 27844.96
5570.163, 27839.54
5572.091, 27847.53
5574.020, 27829.50
5575.948, 27868.96
5577.876, 27869.32
5579.805, 27833.34
5581.733, 27794.65
5583.662, 27803.04
5585.590, 27790.38
5587.519, 27756.87
5589.447, 27732.01
5591.375, 27689.88
5593.304, 27706.19
5595.232, 27750.06
5597.161, 27686.74
5599.089, 27692.65
5601.018, 27688.23
5602.946, 27660.58
5604.875, 27675.06
5606.803, 27648.22
5608.732, 27612.27
5610.660, 27593.46
5612.589, 27615.05
5614.517, 27574.13
5616.446, 27555.85
5618.374, 27584.57
5620.303, 27573.58
5622.231, 27544.77
5624.160, 27528.51
5626.088, 27530.03
5628.017, 27499.27
5629.945, 27441.51
5631.874, 27425.43
5633.802, 27463.91
5635.730, 27422.31
5637.659, 27421.49
5639.587, 27419.91
5641.516, 27384.71
5643.444, 27337.43
5645.373, 27343.75
5647.301, 27353.73
5649.229, 27339.29
5651.158, 27362.19
5653.086, 27312.76
5655.015, 27277.79
5656.943, 27299.36
5658.872, 27240.91
5660.800, 27191.46
5662.729, 27185.18
5664.657, 27212.90
5666.586, 27158.70
5668.514, 27182.89
5670.443, 27194.40
5672.371, 27141.04
5674.300, 27093.61
5676.228, 27109.08
5678.157, 27118.41
5680.085, 27092.69
5682.014, 27092.55
5683.942, 27093.34
5685.871, 27069.81
5687.799, 27021.22
5689.728, 26984.43
5691.656, 26976.13
5693.584, 26956.07
5695.513, 26909.74
5697.441, 26840.64
5699.370, 26899.10
5701.298, 26866.77
5703.227, 26759.08
5705.155, 26811.44
5707.083, 26775.07
5709.012, 26717.13
5710.940, 26685.53
5712.869, 26699.71
5714.797, 26690.15
5716.726, 26671.96
5718.654, 26663.10
5720.583, 26688.94
5722.511, 26638.26
5724.440, 26597.05
5726.368, 26577.77
5728.297, 26566.02
5730.225, 26586.35
5732.154, 26501.25
5734.082, 26419.91
5736.011, 26442.80
5737.939, 26438.05
5739.868, 26393.25
5741.796, 26371.62
5743.725, 26397.91
5745.653, 26410.93
5747.582, 26397.27
5749.510, 26352.05
5751.438, 26296.08
5753.367, 26290.79
5755.295, 26303.54
5757.224, 26255.55
5759.152, 26183.03
5761.081, 26220.07
5763.009, 26199.50
5764.938, 26161.32
5766.866, 26132.82
5768.794, 26127.78
5770.723, 26067.29
5772.651, 26063.70
5774.580, 26065.19
5776.508, 26028.39
5778.437, 26072.31
5780.365, 26106.51
5782.294, 26077.67
5784.222, 25995.81
5786.151, 25948.54
5788.079, 25956.06
5790.008, 25942.29
5791.936, 25906.02
5793.865, 25910.40
5795.793, 25830.59
5797.722, 25810.17
5799.650, 25838.43
5801.579, 25855.13
5803.507, 25825.96
5805.436, 25823.32
5807.364, 25807.28
5809.292, 25760.91
5811.221, 25750.53
5813.149, 25771.82
5815.078, 25780.30
5817.006, 25750.75
5818.935, 25676.59
5820.863, 25696.45
5822.792, 25706.71
5824.720, 25690.37
5826.648, 25659.87
5828.577, 25565.68
5830.505, 25603.27
5832.434, 25606.28
5834.362, 25509.61
5836.291, 25524.29
5838.219, 25492.59
5840.148, 25480.31
5842.076, 25468.35
5844.005, 25370.25
5845.933, 25354.88
5847.862, 25359.80
5849.790, 25366.37
5851.719, 25367.17
5853.647, 25338.86
5855.576, 25320.14
5857.504, 25334.83
5859.433, 25360.69
5861.361, 25341.13
5863.290, 25267.25
5865.218, 25220.45
5867.146, 25219.10
5869.075, 25241.43
5871.003, 25188.58
5872.932, 25142.59
5874.860, 25123.70
5876.789, 25105.15
5878.717, 25021.20
5880.646, 25098.28
5882.574, 25125.79
5884.502, 25109.96
5886.431, 25109.43
5888.359, 25020.42
5890.288, 24992.28
5892.216, 24951.74
5894.145, 24892.14
5896.073, 24917.62
5898.002, 24892.25
5899.930, 24844.94
5901.859, 24836.51
5903.787, 24885.20
5905.716, 24799.67
5907.644, 24836.85
5909.573, 24847.61
5911.501, 24815.20
5913.430, 24850.07
5915.358, 24770.93
5917.287, 24706.37
5919.215, 24706.03
5921.144, 24746.13
5923.072, 24695.91
5925.000, 24649.25
5926.929, 24645.76
5928.857, 24638.01
5930.786, 24569.50
5932.714, 24531.15
5934.643, 24519.89
5936.571, 24503.64
5938.500, 24467.35
5940.428, 24418.22
5942.356, 24400.77
5944.285, 24378.78
5946.213, 24334.65
5948.142, 24277.32
5950.070, 24268.95
5951.999, 24244.67
5953.927, 24217.38
5955.856, 24177.69
5957.784, 24112.29
5959.713, 24114.11
5961.641, 24138.75
5963.570, 24103.68
5965.498, 24026.00
5967.427, 24025.10
5969.355, 24027.72
5971.284, 23985.68
5973.212, 23941.14
5975.141, 23926.03
5977.069, 23927.22
5978.998, 23880.77
5980.926, 23882.60
5982.854, 23881.64
5984.783, 23818.23
5986.711, 23811.36
5988.640, 23715.79
5990.568, 23705.77
5992.497, 23745.43
5994.425, 23699.40
5996.354, 23655.91
5998.282, 23649.30
6000.210, 23586.94
6002.139, 23488.99
6004.067, 23457.18
6005.996, 23454.18
6007.924, 23413.13
6009.853, 23383.21
6011.781, 23387.38
6013.710, 23399.20
6015.638, 23355.21
6017.567, 23341.56
6019.495, 23336.13
6021.424, 23305.69
6023.352, 23241.38
6025.281, 23247.05
6027.209, 23229.40
6029.138, 23191.83
6031.066, 23158.12
6032.995, 23132.37
6034.923, 23096.46
6036.852, 23076.45
6038.780, 23074.30
6040.708, 23065.03
6042.637, 22991.27
6044.565, 22935.21
6046.494, 22918.00
6048.422, 22911.94
6050.351, 22882.18
6052.279, 22795.54
6054.208, 22769.22
6056.136, 22776.91
6058.064, 22773.93
6059.993, 22744.86
6061.921, 22729.54
6063.850, 22677.35
6065.778, 22669.43
6067.707, 22655.54
6069.635, 22596.86
6071.564, 22559.19
6073.492, 22517.65
6075.421, 22487.44
6077.349, 22484.56
6079.278, 22500.46
6081.206, 22487.61
6083.135, 22496.50
6085.063, 22457.09
6086.992, 22415.89
6088.920, 22387.15
6090.849, 22289.23
6092.777, 22280.05
6094.706, 22268.32
6096.634, 22247.32
6098.563, 22224.30
6100.491, 22194.90
6102.419, 22137.95
6104.348, 22129.43
6106.276, 22119.08
6108.205, 22083.05
6110.133, 22043.13
6112.062, 22058.79
6113.990, 22017.73
6115.918, 21923.86
6117.847, 21862.37
6119.775, 21898.98
6121.704, 21884.18
6123.632, 21822.55
6125.561, 21805.28
6127.489, 21804.18
6129.418, 21769.19
6131.346, 21731.49
6133.275, 21736.48
6135.203, 21723.29
6137.132, 21681.71
6139.060, 21642.78
6140.989, 21673.13
6142.917, 21565.00
6144.846, 21525.95
6146.774, 21506.43
6148.703, 21464.21
6150.631, 21416.69
6152.560, 21383.76
6154.488, 21329.09
6156.417, 21304.28
6158.345, 21300.08
6160.273, 21280.01
6162.202, 21228.67
6164.130, 21215.73
6166.059, 21215.94
6167.987, 21202.03
6169.916, 21152.13
6171.844, 21051.97
6173.772, 21054.09
6175.701, 21077.31
6177.629, 21057.01
6179.558, 21014.67
6181.486, 21007.20
6183.415, 21044.69
6185.343, 20969.59
6187.272, 20900.15
6189.200, 20877.17
6191.129, 20878.40
6193.057, 20858.80
6194.986, 20863.61
6196.914, 20763.58
6198.843, 20715.04
6200.771, 20723.63
6202.700, 20684.14
6204.628, 20669.57
6206.557, 20617.54
6208.485, 20553.64
6210.414, 20554.50
6212.342, 20579.23
6214.271, 20445.56
6216.199, 20462.48
6218.127, 20432.72
6220.056, 20402.92
6221.984, 20370.30
6223.913, 20318.12
6225.841, 20375.14
6227.770, 20281.46
6229.698, 20264.94
6231.626, 20235.06
6233.555, 20161.38
6235.483, 20149.17
6237.412, 20111.15
6239.340, 20059.88
6241.269, 20035.59
6243.197, 20030.42
6245.126, 20008.02
6247.054, 19923.69
6248.983, 19895.60
6250.911, 19879.59
6252.840, 19870.54
6254.768, 19843.04
6256.697, 19795.61
6258.625, 19863.72
6260.554, 19804.03
6262.482, 19769.62
6264.411, 19716.88
6266.339, 19647.32
6268.268, 19621.08
6270.196, 19647.11
6272.125, 19638.70
6274.053, 19609.31
6275.981, 19572.63
6277.910, 19539.49
6279.838, 19515.41
6281.767, 19441.32
6283.695, 19426.35
6285.624, 19418.00
6287.552, 19392.88
6289.480, 19355.53
6291.409, 19317.04
6293.337, 19239.79
6295.266, 19279.77
6297.194, 19245.02
6299.123, 19218.89
6301.051, 19243.02
6302.980, 19212.75
6304.908, 19159.40
6306.837, 19152.18
6308.765, 19101.81
6310.694, 19067.78
6312.622, 19074.16
6314.551, 19050.39
6316.479, 19001.56
6318.408, 18943.38
6320.336, 18904.50
6322.265, 18891.71
6324.193, 18883.68
6326.122, 18852.30
6328.050, 18857.30
6329.979, 18751.16
6331.907, 18706.86
6333.835, 18694.05
6335.764, 18657.27
6337.692, 18600.23
6339.621, 18605.69
6341.549, 18547.64
6343.478, 18536.93
6345.406, 18533.91
6347.334, 18521.99
6349.263, 18513.80
6351.191, 18460.66
6353.120, 18403.34
6355.048, 18369.27
6356.977, 18323.13
6358.905, 18299.48
6360.834, 18313.83
6362.762, 18286.91
6364.691, 18248.48
6366.619, 18208.81
6368.548, 18158.21
6370.476, 18131.25
6372.405, 18132.78
6374.333, 18117.10
6376.262, 18066.39
6378.190, 18055.29
6380.119, 18007.49
6382.047, 18014.00
6383.976, 18002.27
6385.904, 17864.15
6387.833, 17842.27
6389.761, 17842.87
6391.689, 17850.24
6393.618, 17844.24
6395.546, 17823.60
6397.475, 17788.80
6399.403, 17733.42
6401.332, 17717.99
6403.260, 17692.31
6405.188, 17667.91
6407.117, 17633.54
6409.045, 17593.18
6410.974, 17565.19
6412.902, 17554.94
6414.831, 17478.96
6416.759, 17510.46
6418.688, 17509.25
6420.616, 17462.11
6422.545, 17420.85
6424.473, 17399.48
6426.402, 17339.27
6428.330, 17306.42
6430.259, 17319.08
6432.187, 17289.04
6434.116, 17262.82
6436.044, 17277.24
6437.973, 17215.63
6439.901, 17178.09
6441.830, 17148.84
6443.758, 17119.34
6445.687, 17066.79
6447.615, 17029.84
6449.543, 17021.72
6451.472, 16941.30
6453.400, 16931.35
6455.329, 16900.78
6457.257, 16887.38
6459.186, 16871.12
6461.114, 16839.96
6463.042, 16824.00
6464.971, 16871.25
6466.899, 16771.26
6468.828, 16733.33
6470.756, 16729.31
6472.685, 16686.22
6474.613, 16622.17
6476.542, 16592.79
6478.470, 16557.66
6480.399, 16597.54
6482.327, 16561.62
6484.256, 16508.40
6486.184, 16498.71
6488.113, 16502.90
6490.041, 16475.12
6491.970, 16457.99
6493.898, 16422.18
6495.827, 16392.77
6497.755, 16371.68
6499.684, 16363.79
6501.612, 16319.33
6503.541, 16232.61
6505.469, 16237.90
6507.397, 16216.46
6509.326, 16162.62
6511.254, 16130.14
6513.183, 16096.00
6515.111, 16065.00
6517.040, 16036.19
6518.968, 15983.07
6520.896, 16001.85
6522.825, 15900.36
6524.753, 15875.99
6526.682, 15873.20
6528.610, 15839.48
6530.539, 15781.12
6532.467, 15730.62
6534.396, 15718.21
6536.324, 15668.52
6538.253, 15653.71
6540.181, 15662.54
6542.110, 15664.32
6544.038, 15637.64
6545.967, 15592.13
6547.895, 15562.95
##END=



