##NAMES=Hawleyite
##RRUFFID=R061010
##IDEAL CHEMISTRY=CdS
##LOCALITY=Eureka County, Nevada, USA
##OWNER=RRUFF
##SOURCE=Michael Scott
##DESCRIPTION=Bright yellow-orange fine-grained powder
##STATUS=The identification of this mineral is not yet confirmed
##URL=https://www.rruff.net/odr/rruff_sample/R061010
##FILETYPE=Raman RAW
##RAMAN WAVELENGTH=532

161.2593, 11244.11
163.1877, 11342.75
165.1162, 11413.06
167.0447, 11500.60
168.9731, 11623.56
170.9016, 11755.60
172.8301, 11883.73
174.7585, 12005.61
176.6870, 12121.59
178.6155, 12223.45
180.5439, 12312.44
182.4724, 12402.04
184.4009, 12507.13
186.3293, 12605.93
188.2578, 12672.73
190.1863, 12694.45
192.1147, 12721.28
194.0432, 12775.36
195.9717, 12866.32
197.9001, 12948.69
199.8286, 13014.25
201.7571, 13073.60
203.6855, 13141.68
205.6140, 13218.49
207.5425, 13300.10
209.4709, 13384.55
211.3994, 13477.78
213.3279, 13557.52
215.2563, 13619.84
217.1848, 13667.22
219.1133, 13706.84
221.0417, 13727.65
222.9702, 13752.72
224.8987, 13795.56
226.8271, 13868.31
228.7556, 13941.81
230.6841, 14006.94
232.6125, 14069.00
234.5410, 14148.93
236.4695, 14273.94
238.3979, 14399.61
240.3264, 14488.16
242.2549, 14521.46
244.1833, 14560.36
246.1118, 14627.18
248.0403, 14720.97
249.9687, 14795.63
251.8972, 14834.09
253.8257, 14864.97
255.7541, 14916.28
257.6826, 14994.56
259.6111, 15081.14
261.5396, 15169.07
263.4680, 15257.55
265.3965, 15362.06
267.3250, 15483.15
269.2534, 15620.31
271.1819, 15766.58
273.1104, 15907.06
275.0388, 16084.00
276.9673, 16302.40
278.8958, 16564.68
280.8242, 16878.64
282.7527, 17248.98
284.6812, 17672.56
286.6096, 18143.68
288.5381, 18740.53
290.4666, 19284.57
292.3950, 19756.99
294.3235, 20159.35
296.2520, 20381.81
298.1804, 20359.61
300.1089, 20158.54
302.0374, 19862.49
303.9658, 19354.82
305.8943, 18861.45
307.8228, 18431.33
309.7512, 18067.49
311.6797, 17749.08
313.6082, 17477.27
315.5366, 17249.36
317.4651, 17065.56
319.3936, 16961.91
321.3220, 16864.13
323.2505, 16753.47
325.1790, 16630.55
327.1074, 16516.58
329.0359, 16421.06
330.9643, 16338.63
332.8928, 16265.92
334.8213, 16221.49
336.7497, 16177.15
338.6782, 16123.37
340.6067, 16063.16
342.5351, 16020.93
344.4636, 16003.00
346.3921, 16000.25
348.3205, 16006.87
350.2490, 16028.02
352.1775, 16043.17
354.1059, 16040.42
356.0344, 16021.93
357.9629, 16005.61
359.8913, 16002.22
361.8198, 15999.58
363.7483, 15988.41
365.6767, 15968.31
367.6052, 15950.18
369.5337, 15929.05
371.4621, 15910.51
373.3906, 15923.68
375.3191, 16006.40
377.2475, 16095.44
379.1760, 16147.41
381.1045, 16148.92
383.0329, 16147.25
384.9614, 16149.55
386.8899, 16153.95
388.8183, 16157.38
390.7468, 16157.47
392.6753, 16159.91
394.6037, 16172.84
396.5322, 16200.88
398.4607, 16216.55
400.3891, 16201.40
402.3176, 16172.52
404.2461, 16157.49
406.1745, 16163.78
408.1030, 16175.98
410.0315, 16194.73
411.9599, 16220.74
413.8884, 16241.40
415.8169, 16252.49
417.7453, 16260.20
419.6738, 16269.53
421.6023, 16267.24
423.5307, 16280.12
425.4592, 16320.49
427.3877, 16381.27
429.3161, 16433.23
431.2446, 16468.62
433.1731, 16491.91
435.1015, 16505.21
437.0300, 16497.55
438.9585, 16491.25
440.8869, 16497.24
442.8154, 16504.64
444.7439, 16491.64
446.6723, 16441.61
448.6008, 16391.12
450.5293, 16355.16
452.4577, 16339.90
454.3862, 16336.61
456.3147, 16354.63
458.2431, 16384.77
460.1716, 16414.15
462.1001, 16436.87
464.0285, 16469.38
465.9570, 16516.85
467.8855, 16577.55
469.8139, 16631.53
471.7424, 16653.16
473.6709, 16680.62
475.5993, 16741.09
477.5278, 16847.72
479.4563, 16934.51
481.3847, 16994.87
483.3132, 17030.88
485.2417, 17044.45
487.1701, 17021.74
489.0986, 17001.69
491.0271, 17000.35
492.9555, 17017.44
494.8840, 17041.52
496.8125, 17075.61
498.7409, 17112.63
500.6694, 17145.14
502.5979, 17166.11
504.5263, 17191.17
506.4548, 17225.13
508.3833, 17260.77
510.3117, 17285.47
512.2402, 17286.53
514.1687, 17282.21
516.0972, 17283.32
518.0256, 17295.56
519.9541, 17289.39
521.8826, 17249.33
523.8110, 17208.16
525.7395, 17193.36
527.6680, 17218.92
529.5964, 17261.54
531.5249, 17323.15
533.4534, 17400.00
535.3818, 17472.14
537.3103, 17521.93
539.2388, 17575.89
541.1672, 17645.56
543.0957, 17731.31
545.0242, 17798.29
546.9526, 17822.29
548.8811, 17836.21
550.8096, 17879.58
552.7380, 17968.74
554.6665, 18047.95
556.5950, 18103.72
558.5234, 18144.06
560.4519, 18180.39
562.3804, 18182.14
564.3088, 18210.49
566.2373, 18287.53
568.1658, 18415.71
570.0942, 18555.80
572.0227, 18702.75
573.9512, 18861.05
575.8796, 19031.79
577.8080, 19213.60
579.7365, 19412.63
581.6650, 19643.51
583.5934, 19891.76
585.5219, 20132.20
587.4504, 20382.09
589.3788, 20601.46
591.3073, 20786.95
593.2358, 20939.01
595.1642, 21020.80
597.0927, 21020.17
599.0212, 20956.72
600.9496, 20826.30
602.8781, 20621.51
604.8066, 20389.93
606.7350, 20103.82
608.6635, 19811.49
610.5920, 19562.94
612.5204, 19383.36
614.4489, 19215.69
616.3774, 19039.57
618.3058, 18866.52
620.2343, 18732.56
622.1628, 18658.42
624.0912, 18586.52
626.0197, 18486.28
627.9482, 18358.77
629.8766, 18255.09
631.8051, 18195.82
633.7336, 18155.10
635.6620, 18123.85
637.5905, 18107.41
639.5190, 18095.11
641.4474, 18068.61
643.3759, 18050.27
645.3044, 18063.33
647.2328, 18123.04
649.1613, 18165.68
651.0898, 18175.06
653.0182, 18151.60
654.9467, 18105.55
656.8752, 18023.82
658.8036, 17948.96
660.7321, 17917.83
662.6606, 17926.84
664.5891, 17914.41
666.5175, 17841.65
668.4460, 17783.09
670.3745, 17773.74
672.3029, 17824.25
674.2314, 17877.95
676.1599, 17932.68
678.0883, 17979.60
680.0168, 18011.87
681.9453, 18024.19
683.8737, 18028.51
685.8022, 18028.61
687.7307, 18025.42
689.6591, 18019.88
691.5876, 18016.90
693.5161, 18010.34
695.4445, 17994.10
697.3730, 17973.08
699.3015, 17959.13
701.2299, 17960.44
703.1584, 17955.78
705.0869, 17934.75
707.0153, 17897.00
708.9438, 17867.75
710.8723, 17856.77
712.8007, 17850.41
714.7292, 17844.88
716.6577, 17841.87
718.5861, 17840.93
720.5146, 17821.94
722.4431, 17819.01
724.3715, 17857.24
726.3000, 17973.66
728.2285, 18057.41
730.1569, 18095.34
732.0854, 18100.29
734.0139, 18082.64
735.9423, 18033.93
737.8708, 17991.09
739.7993, 17957.78
741.7277, 17939.35
743.6562, 17946.34
745.5847, 18031.66
747.5131, 18087.38
749.4416, 18088.55
751.3701, 18051.64
753.2985, 18022.55
755.2270, 17999.63
757.1555, 17988.93
759.0839, 17992.94
761.0124, 18009.48
762.9409, 18030.09
764.8693, 18052.49
766.7978, 18077.25
768.7263, 18108.14
770.6547, 18143.88
772.5832, 18167.44
774.5117, 18168.12
776.4401, 18167.72
778.3686, 18181.54
780.2971, 18211.89
782.2255, 18228.98
784.1540, 18217.54
786.0825, 18202.42
788.0109, 18195.75
789.9394, 18197.21
791.8679, 18211.57
793.7963, 18256.74
795.7248, 18305.50
797.6533, 18338.96
799.5817, 18355.98
801.5102, 18372.55
803.4387, 18382.65
805.3671, 18397.86
807.2956, 18429.68
809.2241, 18489.58
811.1525, 18535.40
813.0810, 18557.96
815.0095, 18561.98
816.9379, 18554.42
818.8664, 18534.21
820.7949, 18509.65
822.7233, 18480.59
824.6518, 18455.05
826.5803, 18442.67
828.5087, 18462.93
830.4372, 18480.73
832.3657, 18489.15
834.2941, 18495.91
836.2226, 18514.60
838.1511, 18549.79
840.0795, 18574.39
842.0080, 18562.67
843.9365, 18536.84
845.8649, 18536.67
847.7934, 18586.78
849.7219, 18632.41
851.6503, 18672.59
853.5788, 18704.67
855.5073, 18718.59
857.4357, 18703.18
859.3642, 18691.96
861.2927, 18693.14
863.2211, 18701.50
865.1496, 18709.65
867.0781, 18710.57
869.0065, 18719.50
870.9350, 18753.62
872.8635, 18799.64
874.7919, 18818.53
876.7204, 18789.36
878.6489, 18773.68
880.5773, 18799.75
882.5058, 18847.95
884.4343, 18880.42
886.3627, 18893.24
888.2912, 18895.04
890.2197, 18875.25
892.1481, 18845.27
894.0766, 18834.54
896.0051, 18853.69
897.9335, 18877.61
899.8620, 18919.15
901.7905, 18960.65
903.7189, 18961.29
905.6474, 18900.86
907.5759, 18850.22
909.5043, 18835.38
911.4328, 18842.47
913.3613, 18855.48
915.2897, 18898.58
917.2182, 18900.52
919.1467, 18814.20
921.0751, 18691.56
923.0036, 18631.82
924.9321, 18671.10
926.8605, 18696.39
928.7890, 18670.55
930.7175, 18628.58
932.6459, 18614.65
934.5744, 18638.95
936.5029, 18651.54
938.4313, 18625.88
940.3598, 18586.81
942.2883, 18562.36
944.2167, 18575.31
946.1452, 18569.18
948.0737, 18528.85
950.0021, 18481.55
951.9306, 18459.40
953.8591, 18466.21
955.7875, 18465.45
957.7160, 18441.80
959.6445, 18412.83
961.5729, 18390.70
963.5014, 18375.69
965.4299, 18361.07
967.3583, 18345.15
969.2868, 18330.30
971.2153, 18321.14
973.1437, 18320.94
975.0722, 18308.58
977.0007, 18276.32
978.9291, 18238.55
980.8576, 18196.98
982.7861, 18153.25
984.7145, 18124.14
986.6430, 18124.93
988.5715, 18125.30
990.4999, 18112.08
992.4284, 18088.59
994.3569, 18077.39
996.2853, 18084.79
998.2138, 18102.19
1000.142, 18133.89
1002.071, 18173.26
1003.999, 18196.54
1005.928, 18183.56
1007.856, 18184.82
1009.785, 18227.24
1011.713, 18285.42
1013.642, 18324.14
1015.570, 18344.12
1017.498, 18336.71
1019.427, 18283.48
1021.355, 18218.91
1023.284, 18186.64
1025.212, 18225.38
1027.141, 18228.43
1029.069, 18151.22
1030.998, 18069.34
1032.926, 18055.24
1034.855, 18105.88
1036.783, 18135.26
1038.712, 18114.54
1040.640, 18080.92
1042.569, 18056.40
1044.497, 18042.43
1046.426, 18018.67
1048.354, 17977.19
1050.282, 17940.83
1052.211, 17923.85
1054.139, 17923.59
1056.068, 17915.57
1057.996, 17882.05
1059.925, 17868.92
1061.853, 17899.41
1063.782, 17950.04
1065.710, 17982.83
1067.639, 17987.04
1069.567, 17993.91
1071.495, 18018.60
1073.424, 18043.19
1075.352, 18052.96
1077.281, 18048.74
1079.209, 18028.75
1081.138, 17982.85
1083.066, 17933.99
1084.995, 17896.20
1086.923, 17870.64
1088.852, 17848.67
1090.780, 17838.18
1092.709, 17823.96
1094.637, 17802.06
1096.566, 17774.94
1098.494, 17740.46
1100.422, 17684.81
1102.351, 17656.09
1104.279, 17683.16
1106.208, 17735.90
1108.136, 17769.31
1110.065, 17771.39
1111.993, 17764.75
1113.922, 17730.26
1115.850, 17696.47
1117.779, 17698.58
1119.707, 17741.41
1121.636, 17746.15
1123.564, 17680.40
1125.493, 17610.05
1127.421, 17570.36
1129.349, 17554.62
1131.278, 17542.29
1133.206, 17535.59
1135.135, 17527.25
1137.063, 17508.82
1138.992, 17489.39
1140.920, 17485.89
1142.849, 17522.65
1144.777, 17532.58
1146.706, 17478.64
1148.634, 17423.85
1150.563, 17433.39
1152.491, 17513.74
1154.420, 17545.60
1156.348, 17475.42
1158.276, 17411.51
1160.205, 17424.99
1162.133, 17482.70
1164.062, 17497.52
1165.990, 17440.13
1167.919, 17398.38
1169.847, 17417.72
1171.776, 17455.81
1173.704, 17459.86
1175.633, 17407.62
1177.561, 17376.32
1179.490, 17367.86
1181.418, 17376.85
1183.347, 17416.33
1185.275, 17481.98
1187.203, 17495.62
1189.132, 17422.86
1191.060, 17351.17
1192.989, 17319.81
1194.917, 17306.84
1196.846, 17271.94
1198.774, 17207.80
1200.703, 17168.33
1202.631, 17185.35
1204.560, 17213.98
1206.488, 17220.78
1208.417, 17200.57
1210.345, 17181.95
1212.274, 17165.56
1214.202, 17144.07
1216.130, 17115.20
1218.059, 17081.89
1219.987, 17051.30
1221.916, 17035.30
1223.844, 17012.80
1225.773, 16979.86
1227.701, 16946.58
1229.630, 16918.91
1231.558, 16895.95
1233.487, 16881.57
1235.415, 16873.93
1237.344, 16873.07
1239.272, 16880.26
1241.201, 16892.74
1243.129, 16906.56
1245.057, 16921.43
1246.986, 16933.37
1248.914, 16942.78
1250.843, 16944.53
1252.771, 16935.99
1254.700, 16917.27
1256.628, 16882.53
1258.557, 16808.23
1260.485, 16752.28
1262.414, 16748.96
1264.342, 16776.23
1266.271, 16784.59
1268.199, 16768.59
1270.128, 16758.69
1272.056, 16762.94
1273.984, 16766.46
1275.913, 16757.80
1277.841, 16736.92
1279.770, 16707.18
1281.698, 16662.01
1283.627, 16623.37
1285.555, 16606.74
1287.484, 16600.90
1289.412, 16590.31
1291.341, 16572.11
1293.269, 16565.79
1295.198, 16579.90
1297.126, 16596.06
1299.055, 16609.90
1300.983, 16619.28
1302.911, 16616.77
1304.840, 16596.60
1306.768, 16575.98
1308.697, 16544.37
1310.625, 16524.62
1312.554, 16547.31
1314.482, 16612.97
1316.411, 16647.24
1318.339, 16619.38
1320.268, 16595.95
1322.196, 16605.13
1324.125, 16627.91
1326.053, 16646.15
1327.982, 16663.65
1329.910, 16645.18
1331.839, 16560.55
1333.767, 16473.46
1335.695, 16412.54
1337.624, 16377.22
1339.552, 16365.72
1341.481, 16395.53
1343.409, 16405.40
1345.338, 16353.97
1347.266, 16299.62
1349.195, 16295.19
1351.123, 16343.83
1353.052, 16353.66
1354.980, 16295.58
1356.909, 16240.17
1358.837, 16212.21
1360.766, 16192.30
1362.694, 16149.27
1364.622, 16075.70
1366.551, 16038.50
1368.479, 16079.54
1370.408, 16113.96
1372.336, 16092.76
1374.265, 16047.29
1376.193, 16038.74
1378.122, 16070.67
1380.050, 16095.03
1381.979, 16102.51
1383.907, 16092.43
1385.836, 16051.98
1387.764, 15993.83
1389.693, 15960.28
1391.621, 15971.20
1393.549, 15951.62
1395.478, 15843.27
1397.406, 15742.66
1399.335, 15723.01
1401.263, 15778.46
1403.192, 15798.95
1405.120, 15763.94
1407.049, 15728.10
1408.977, 15694.77
1410.906, 15666.72
1412.834, 15643.21
1414.763, 15623.00
1416.691, 15624.14
1418.620, 15683.24
1420.548, 15715.38
1422.476, 15690.38
1424.405, 15641.17
1426.333, 15594.01
1428.262, 15545.22
1430.190, 15530.90
1432.119, 15574.53
1434.047, 15613.65
1435.976, 15635.68
1437.904, 15636.77
1439.833, 15604.76
1441.761, 15541.31
1443.690, 15494.38
1445.618, 15486.54
1447.547, 15475.58
1449.475, 15440.13
1451.403, 15399.04
1453.332, 15374.72
1455.260, 15367.60
1457.189, 15359.82
1459.117, 15346.91
1461.046, 15330.35
1462.974, 15303.58
1464.903, 15272.46
1466.831, 15245.61
1468.760, 15222.15
1470.688, 15202.10
1472.617, 15194.29
1474.545, 15179.91
1476.474, 15154.29
1478.402, 15121.98
1480.330, 15085.12
1482.259, 15039.25
1484.187, 15018.66
1486.116, 15055.57
1488.044, 15080.59
1489.973, 15063.54
1491.901, 15026.47
1493.830, 15001.45
1495.758, 14991.87
1497.687, 14971.40
1499.615, 14926.59
1501.544, 14889.06
1503.472, 14878.97
1505.401, 14877.00
1507.329, 14852.83
1509.257, 14800.95
1511.186, 14781.36
1513.114, 14823.26
1515.043, 14856.17
1516.971, 14849.76
1518.900, 14830.54
1520.828, 14827.75
1522.757, 14839.31
1524.685, 14841.35
1526.614, 14835.89
1528.542, 14817.89
1530.471, 14784.18
1532.399, 14743.83
1534.328, 14701.00
1536.256, 14660.32
1538.184, 14638.60
1540.113, 14642.96
1542.041, 14648.51
1543.970, 14659.77
1545.898, 14657.02
1547.827, 14607.37
1549.755, 14532.94
1551.684, 14502.14
1553.612, 14528.03
1555.541, 14544.97
1557.469, 14537.25
1559.398, 14519.53
1561.326, 14492.92
1563.255, 14463.49
1565.183, 14445.37
1567.111, 14439.63
1569.040, 14422.84
1570.968, 14388.67
1572.897, 14347.24
1574.825, 14295.64
1576.754, 14246.59
1578.682, 14217.36
1580.611, 14208.94
1582.539, 14210.20
1584.468, 14232.55
1586.396, 14238.30
1588.325, 14189.83
1590.253, 14136.32
1592.182, 14115.12
1594.110, 14123.13
1596.038, 14148.00
1597.967, 14209.32
1599.895, 14230.73
1601.824, 14167.75
1603.752, 14092.77
1605.681, 14032.38
1607.609, 13992.71
1609.538, 13997.06
1611.466, 14060.07
1613.395, 14094.82
1615.323, 14061.50
1617.252, 14034.99
1619.180, 14045.71
1621.109, 14068.42
1623.037, 14074.79
1624.965, 14063.29
1626.894, 14039.12
1628.822, 14001.66
1630.751, 13958.60
1632.679, 13909.66
1634.608, 13864.48
1636.536, 13829.10
1638.465, 13804.94
1640.393, 13794.08
1642.322, 13801.52
1644.250, 13802.91
1646.179, 13793.02
1648.107, 13772.41
1650.036, 13727.71
1651.964, 13677.15
1653.892, 13649.73
1655.821, 13650.01
1657.749, 13632.49
1659.678, 13580.08
1661.606, 13546.87
1663.535, 13564.14
1665.463, 13586.44
1667.392, 13580.62
1669.320, 13556.72
1671.249, 13547.06
1673.177, 13554.89
1675.106, 13559.99
1677.034, 13548.54
1678.963, 13544.13
1680.891, 13562.11
1682.819, 13580.87
1684.748, 13577.35
1686.676, 13552.18
1688.605, 13523.20
1690.533, 13481.64
1692.462, 13459.78
1694.390, 13482.66
1696.319, 13503.78
1698.247, 13502.49
1700.176, 13484.46
1702.104, 13458.23
1704.033, 13422.55
1705.961, 13386.28
1707.890, 13345.74
1709.818, 13314.30
1711.746, 13306.25
1713.675, 13298.90
1715.603, 13273.05
1717.532, 13236.56
1719.460, 13214.65
1721.389, 13210.38
1723.317, 13199.59
1725.246, 13176.25
1727.174, 13152.59
1729.103, 13133.10
1731.031, 13115.54
1732.960, 13093.22
1734.888, 13070.99
1736.817, 13076.45
1738.745, 13119.44
1740.673, 13140.26
1742.602, 13114.70
1744.530, 13086.80
1746.459, 13066.79
1748.387, 13056.96
1750.316, 13070.53
1752.244, 13098.64
1754.173, 13090.79
1756.101, 13035.46
1758.030, 12993.79
1759.958, 12993.60
1761.887, 12985.51
1763.815, 12927.82
1765.744, 12866.81
1767.672, 12863.79
1769.600, 12904.85
1771.529, 12909.83
1773.457, 12863.56
1775.386, 12837.88
1777.314, 12854.63
1779.243, 12879.77
1781.171, 12897.69
1783.100, 12910.23
1785.028, 12926.93
1786.957, 12940.57
1788.885, 12912.89
1790.814, 12827.78
1792.742, 12778.42
1794.671, 12823.09
1796.599, 12851.00
1798.527, 12796.18
1800.456, 12717.98
1802.384, 12677.26
1804.313, 12669.56
1806.241, 12667.65
1808.170, 12674.28
1810.098, 12677.50
1812.027, 12679.92
1813.955, 12674.41
1815.884, 12654.66
1817.812, 12628.22
1819.741, 12590.30
1821.669, 12548.66
1823.598, 12542.25
1825.526, 12589.20
1827.454, 12610.13
1829.383, 12586.39
1831.311, 12561.20
1833.240, 12537.77
1835.168, 12525.07
1837.097, 12547.01
1839.025, 12582.05
1840.954, 12572.00
1842.882, 12505.12
1844.811, 12453.49
1846.739, 12411.11
1848.668, 12391.50
1850.596, 12419.67
1852.525, 12442.10
1854.453, 12430.54
1856.381, 12401.27
1858.310, 12378.34
1860.238, 12362.64
1862.167, 12336.48
1864.095, 12293.70
1866.024, 12269.10
1867.952, 12273.48
1869.881, 12285.42
1871.809, 12297.21
1873.738, 12307.35
1875.666, 12315.16
1877.595, 12318.57
1879.523, 12313.53
1881.452, 12299.96
1883.380, 12287.63
1885.308, 12283.18
1887.237, 12268.70
1889.165, 12219.23
1891.094, 12180.24
1893.022, 12190.59
1894.951, 12219.49
1896.879, 12221.77
1898.808, 12199.04
1900.736, 12177.67
1902.665, 12160.15
1904.593, 12140.11
1906.522, 12119.61
1908.450, 12096.36
1910.379, 12069.58
1912.307, 12041.64
1914.235, 12008.66
1916.164, 11977.15
1918.092, 11961.01
1920.021, 11958.46
1921.949, 11978.04
1923.878, 12044.23
1925.806, 12076.91
1927.735, 12033.93
1929.663, 11995.17
1931.592, 12008.63
1933.520, 12023.30
1935.449, 11973.91
1937.377, 11890.69
1939.306, 11875.81
1941.234, 11932.02
1943.162, 11961.95
1945.091, 11948.55
1947.019, 11930.50
1948.948, 11914.83
1950.876, 11899.32
1952.805, 11876.83
1954.733, 11857.97
1956.662, 11859.08
1958.590, 11873.91
1960.519, 11879.11
1962.447, 11873.46
1964.376, 11870.30
1966.304, 11866.26
1968.233, 11868.70
1970.161, 11890.47
1972.089, 11901.69
1974.018, 11880.46
1975.946, 11849.19
1977.875, 11833.41
1979.803, 11829.45
1981.732, 11819.99
1983.660, 11804.33
1985.589, 11795.69
1987.517, 11794.67
1989.446, 11799.15
1991.374, 11813.27
1993.303, 11823.11
1995.231, 11822.20
1997.160, 11813.71
1999.088, 11792.23
2001.016, 11769.26
2002.945, 11775.55
2004.873, 11808.15
2006.802, 11813.45
2008.730, 11776.66
2010.659, 11757.60
2012.587, 11784.70
2014.516, 11805.39
2016.444, 11783.77
2018.373, 11770.58
2020.301, 11821.96
2022.230, 11892.70
2024.158, 11902.54
2026.087, 11857.07
2028.015, 11829.41
2029.943, 11823.68
2031.872, 11821.27
2033.800, 11827.43
2035.729, 11828.69
2037.657, 11815.02
2039.586, 11809.26
2041.514, 11831.73
2043.443, 11859.26
2045.371, 11874.72
2047.300, 11876.63
2049.228, 11851.00
2051.157, 11801.36
2053.085, 11794.43
2055.014, 11848.61
2056.942, 11888.37
2058.870, 11892.00
2060.799, 11895.46
2062.727, 11909.17
2064.656, 11922.21
2066.584, 11934.06
2068.513, 11935.56
2070.441, 11901.87
2072.370, 11848.83
2074.298, 11847.58
2076.227, 11905.55
2078.155, 11934.36
2080.083, 11925.04
2082.012, 11913.64
2083.940, 11900.06
2085.869, 11896.75
2087.797, 11915.10
2089.726, 11933.31
2091.654, 11932.89
2093.583, 11925.49
2095.511, 11921.01
2097.440, 11922.59
2099.368, 11951.10
2101.297, 12015.88
2103.225, 12031.42
2105.154, 11947.31
2107.082, 11906.16
2109.010, 11944.01
2110.939, 11975.66
2112.867, 11983.97
2114.796, 11979.83
2116.724, 11944.69
2118.653, 11920.12
2120.581, 11969.51
2122.510, 12055.83
2124.438, 12084.68
2126.367, 12063.74
2128.295, 12077.34
2130.224, 12136.95
2132.152, 12175.98
2134.081, 12166.23
2136.009, 12167.62
2137.938, 12208.53
2139.866, 12240.87
2141.794, 12230.22
2143.723, 12222.81
2145.651, 12280.46
2147.580, 12354.11
2149.508, 12342.34
2151.437, 12271.75
2153.365, 12292.43
2155.294, 12403.73
2157.222, 12473.86
2159.151, 12484.99
2161.079, 12483.19
2163.008, 12462.08
2164.936, 12458.77
2166.865, 12495.89
2168.793, 12540.34
2170.721, 12585.55
2172.650, 12620.25
2174.578, 12623.02
2176.507, 12613.18
2178.435, 12638.32
2180.364, 12687.56
2182.292, 12673.56
2184.221, 12592.43
2186.149, 12540.46
2188.078, 12524.79
2190.006, 12544.51
2191.935, 12628.98
2193.863, 12680.01
2195.792, 12623.70
2197.720, 12580.69
2199.648, 12634.13
2201.577, 12694.75
2203.505, 12672.76
2205.434, 12616.75
2207.362, 12611.70
2209.291, 12640.50
2211.219, 12621.54
2213.148, 12555.60
2215.076, 12535.49
2217.005, 12572.44
2218.933, 12601.18
2220.862, 12611.83
2222.790, 12620.02
2224.719, 12629.61
2226.647, 12637.43
2228.575, 12636.94
2230.504, 12641.17
2232.432, 12659.57
2234.361, 12684.41
2236.289, 12715.52
2238.218, 12741.55
2240.146, 12730.52
2242.075, 12690.15
2244.003, 12684.43
2245.932, 12711.91
2247.860, 12724.76
2249.789, 12719.37
2251.717, 12710.40
2253.646, 12700.27
2255.574, 12690.64
2257.502, 12675.70
2259.431, 12671.93
2261.359, 12697.38
2263.288, 12720.03
2265.216, 12721.34
2267.145, 12711.70
2269.073, 12693.51
2271.002, 12677.45
2272.930, 12681.14
2274.859, 12701.12
2276.787, 12731.38
2278.716, 12768.37
2280.644, 12784.16
2282.573, 12770.24
2284.501, 12763.45
2286.429, 12759.39
2288.358, 12771.46
2290.286, 12840.60
2292.215, 12865.93
2294.143, 12787.28
2296.072, 12724.05
2298.000, 12737.25
2299.929, 12761.51
2301.857, 12749.82
2303.786, 12732.86
2305.714, 12748.38
2307.643, 12775.48
2309.571, 12772.02
2311.500, 12749.18
2313.428, 12751.60
2315.356, 12779.32
2317.285, 12804.40
2319.213, 12826.77
2321.142, 12837.58
2323.070, 12833.37
2324.999, 12826.02
2326.927, 12812.81
2328.856, 12810.84
2330.784, 12846.27
2332.713, 12863.24
2334.641, 12816.06
2336.570, 12782.70
2338.498, 12831.15
2340.427, 12884.20
2342.355, 12860.37
2344.283, 12820.00
2346.212, 12848.53
2348.140, 12908.70
2350.069, 12920.36
2351.997, 12899.53
2353.926, 12908.38
2355.854, 12945.76
2357.783, 12972.11
2359.711, 12986.00
2361.640, 12989.21
2363.568, 12973.38
2365.497, 12972.84
2367.425, 13006.47
2369.354, 13009.54
2371.282, 12945.38
2373.210, 12910.04
2375.139, 12956.11
2377.067, 13008.41
2378.996, 13044.79
2380.924, 13059.38
2382.853, 13036.22
2384.781, 13000.23
2386.710, 12969.00
2388.638, 12943.37
2390.567, 12923.86
2392.495, 12912.61
2394.424, 12920.14
2396.352, 12939.62
2398.281, 12945.16
2400.209, 12937.94
2402.137, 12931.45
2404.066, 12921.45
2405.994, 12933.88
2407.923, 12978.07
2409.851, 13003.96
2411.780, 13004.25
2413.708, 13004.81
2415.637, 13013.88
2417.565, 13016.32
2419.494, 13010.14
2421.422, 12998.66
2423.351, 12963.45
2425.279, 12950.92
2427.208, 12992.90
2429.136, 13044.86
2431.064, 13092.40
2432.993, 13121.55
2434.921, 13108.08
2436.850, 13082.53
2438.778, 13079.37
2440.707, 13085.07
2442.635, 13078.54
2444.564, 13066.00
2446.492, 13063.21
2448.421, 13067.19
2450.349, 13056.28
2452.278, 13032.61
2454.206, 13043.65
2456.135, 13086.97
2458.063, 13088.80
2459.991, 13039.62
2461.920, 13010.22
2463.848, 13008.88
2465.777, 13021.96
2467.705, 13059.08
2469.634, 13094.45
2471.562, 13140.58
2473.491, 13153.39
2475.419, 13100.74
2477.348, 13067.45
2479.276, 13096.30
2481.205, 13123.40
2483.133, 13121.17
2485.062, 13109.21
2486.990, 13089.83
2488.918, 13077.40
2490.847, 13083.56
2492.775, 13103.16
2494.704, 13148.20
2496.632, 13190.26
2498.561, 13190.01
2500.489, 13173.94
2502.418, 13166.72
2504.346, 13173.65
2506.275, 13221.36
2508.203, 13289.09
2510.132, 13314.70
2512.060, 13309.87
2513.989, 13332.25
2515.917, 13372.32
2517.845, 13360.71
2519.774, 13296.16
2521.702, 13240.60
2523.631, 13187.09
2525.559, 13181.75
2527.488, 13235.93
2529.416, 13270.73
2531.345, 13285.98
2533.273, 13273.26
2535.202, 13226.45
2537.130, 13198.06
2539.059, 13209.57
2540.987, 13220.51
2542.916, 13210.72
2544.844, 13224.63
2546.772, 13286.02
2548.701, 13321.40
2550.629, 13290.62
2552.558, 13268.93
2554.486, 13296.53
2556.415, 13319.93
2558.343, 13316.69
2560.272, 13308.76
2562.200, 13304.77
2564.129, 13306.75
2566.057, 13331.45
2567.986, 13344.33
2569.914, 13289.22
2571.843, 13251.69
2573.771, 13334.63
2575.699, 13426.95
2577.628, 13413.37
2579.556, 13360.59
2581.485, 13335.72
2583.413, 13326.77
2585.342, 13325.93
2587.270, 13325.99
2589.199, 13307.20
2591.127, 13287.77
2593.056, 13307.31
2594.984, 13346.62
2596.913, 13361.46
2598.841, 13358.08
2600.770, 13357.20
2602.698, 13356.03
2604.626, 13344.72
2606.555, 13327.47
2608.483, 13325.66
2610.412, 13336.28
2612.340, 13319.06
2614.269, 13277.64
2616.197, 13279.92
2618.126, 13320.65
2620.054, 13357.16
2621.983, 13386.14
2623.911, 13390.35
2625.840, 13364.59
2627.768, 13359.46
2629.697, 13382.99
2631.625, 13365.75
2633.553, 13304.35
2635.482, 13283.55
2637.410, 13314.47
2639.339, 13338.23
2641.267, 13350.42
2643.196, 13347.47
2645.124, 13322.08
2647.053, 13297.48
2648.981, 13271.92
2650.910, 13257.99
2652.838, 13263.18
2654.767, 13249.15
2656.695, 13186.70
2658.624, 13170.81
2660.552, 13246.43
2662.480, 13275.30
2664.409, 13225.50
2666.337, 13212.58
2668.266, 13271.13
2670.194, 13307.80
2672.123, 13281.08
2674.051, 13270.13
2675.980, 13309.73
2677.908, 13312.91
2679.837, 13250.92
2681.765, 13213.32
2683.694, 13228.09
2685.622, 13247.79
2687.551, 13264.54
2689.479, 13276.49
2691.407, 13282.03
2693.336, 13282.20
2695.264, 13271.62
2697.193, 13266.34
2699.121, 13277.08
2701.050, 13276.52
2702.978, 13249.48
2704.907, 13225.75
2706.835, 13227.34
2708.764, 13207.99
2710.692, 13138.94
2712.621, 13103.61
2714.549, 13141.08
2716.478, 13180.91
2718.406, 13205.86
2720.334, 13216.03
2722.263, 13212.87
2724.191, 13184.00
2726.120, 13109.62
2728.048, 13054.73
2729.977, 13049.55
2731.905, 13053.74
2733.834, 13077.23
2735.762, 13076.79
2737.691, 13036.81
2739.619, 12989.90
2741.548, 12933.91
2743.476, 12896.00
2745.405, 12901.16
2747.333, 12895.25
2749.261, 12850.33
2751.190, 12821.52
2753.118, 12825.32
2755.047, 12821.90
2756.975, 12794.07
2758.904, 12780.05
2760.832, 12808.17
2762.761, 12821.18
2764.689, 12803.79
2766.618, 12789.95
2768.546, 12784.93
2770.475, 12780.44
2772.403, 12769.12
2774.332, 12768.64
2776.260, 12793.63
2778.188, 12804.30
2780.117, 12786.38
2782.045, 12804.95
2783.974, 12886.53
2785.902, 12931.09
2787.831, 12896.68
2789.759, 12888.28
2791.688, 12921.97
2793.616, 12942.65
2795.545, 12941.50
2797.473, 12945.83
2799.402, 12961.69
2801.330, 12957.81
2803.259, 12917.61
2805.187, 12914.01
2807.115, 12959.94
2809.044, 12954.83
2810.972, 12892.69
2812.901, 12851.35
2814.829, 12839.85
2816.758, 12833.40
2818.686, 12829.99
2820.615, 12847.27
2822.543, 12882.45
2824.472, 12899.84
2826.400, 12898.17
2828.329, 12892.96
2830.257, 12885.24
2832.186, 12899.45
2834.114, 12930.97
2836.042, 12937.52
2837.971, 12929.93
2839.899, 12953.40
2841.828, 12996.41
2843.756, 13004.60
2845.685, 12996.83
2847.613, 13045.23
2849.542, 13114.11
2851.470, 13119.31
2853.399, 13097.36
2855.327, 13130.56
2857.256, 13174.36
2859.184, 13144.00
2861.113, 13090.89
2863.041, 13080.90
2864.969, 13085.90
2866.898, 13065.28
2868.826, 13052.36
2870.755, 13098.62
2872.683, 13144.06
2874.612, 13140.86
2876.540, 13121.94
2878.469, 13094.95
2880.397, 13084.20
2882.326, 13129.84
2884.254, 13156.49
2886.183, 13105.57
2888.111, 13074.89
2890.040, 13122.92
2891.968, 13169.62
2893.896, 13178.45
2895.825, 13197.99
2897.753, 13248.66
2899.682, 13279.08
2901.610, 13272.71
2903.539, 13259.65
2905.467, 13230.31
2907.396, 13231.35
2909.324, 13274.66
2911.253, 13305.65
2913.181, 13321.29
2915.110, 13318.06
2917.038, 13290.85
2918.967, 13281.62
2920.895, 13290.07
2922.823, 13316.84
2924.752, 13357.09
2926.680, 13380.93
2928.609, 13391.62
2930.537, 13421.27
2932.466, 13462.42
2934.394, 13492.14
2936.323, 13509.53
2938.251, 13502.81
2940.180, 13491.27
2942.108, 13514.27
2944.037, 13544.61
2945.965, 13539.07
2947.894, 13529.23
2949.822, 13548.88
2951.750, 13573.99
2953.679, 13583.45
2955.607, 13594.34
2957.536, 13619.01
2959.464, 13642.42
2961.393, 13646.84
2963.321, 13663.78
2965.250, 13720.84
2967.178, 13762.54
2969.107, 13775.10
2971.035, 13785.69
2972.964, 13801.65
2974.892, 13810.34
2976.821, 13811.24
2978.749, 13793.87
2980.677, 13753.47
2982.606, 13742.12
2984.534, 13762.38
2986.463, 13804.64
2988.391, 13863.71
2990.320, 13849.51
2992.248, 13788.66
2994.177, 13813.15
2996.105, 13883.88
2998.034, 13912.59
2999.962, 13915.82
3001.891, 13901.80
3003.819, 13899.07
3005.748, 13957.21
3007.676, 14017.42
3009.604, 14027.00
3011.533, 14020.02
3013.461, 14009.92
3015.390, 14006.87
3017.318, 14027.91
3019.247, 14037.24
3021.175, 14005.70
3023.104, 14002.68
3025.032, 14051.74
3026.961, 14080.99
3028.889, 14074.91
3030.818, 14078.94
3032.746, 14099.54
3034.675, 14114.61
3036.603, 14124.65
3038.531, 14136.50
3040.460, 14149.45
3042.388, 14145.40
3044.317, 14136.68
3046.245, 14156.48
3048.174, 14197.20
3050.102, 14265.50
3052.031, 14321.00
3053.959, 14298.07
3055.888, 14266.70
3057.816, 14297.53
3059.745, 14329.60
3061.673, 14333.85
3063.602, 14336.45
3065.530, 14339.08
3067.458, 14365.08
3069.387, 14425.78
3071.315, 14473.00
3073.244, 14496.38
3075.172, 14494.70
3077.101, 14455.05
3079.029, 14468.88
3080.958, 14529.07
3082.886, 14559.73
3084.815, 14566.41
3086.743, 14556.57
3088.672, 14550.40
3090.600, 14601.34
3092.529, 14670.05
3094.457, 14692.72
3096.385, 14718.12
3098.314, 14826.63
3100.242, 14890.62
3102.171, 14817.81
3104.099, 14751.88
3106.028, 14771.61
3107.956, 14785.46
3109.885, 14777.07
3111.813, 14785.12
3113.742, 14817.41
3115.670, 14828.93
3117.599, 14810.04
3119.527, 14833.12
3121.456, 14885.80
3123.384, 14895.68
3125.313, 14885.88
3127.241, 14924.88
3129.169, 14977.98
3131.098, 14987.19
3133.026, 14988.63
3134.955, 15010.73
3136.883, 15040.46
3138.812, 15078.04
3140.740, 15103.50
3142.669, 15100.84
3144.597, 15111.79
3146.526, 15154.25
3148.454, 15179.02
3150.383, 15177.61
3152.311, 15199.37
3154.240, 15241.91
3156.168, 15263.42
3158.096, 15269.79
3160.025, 15279.04
3161.953, 15291.61
3163.882, 15310.10
3165.810, 15327.13
3167.739, 15338.23
3169.667, 15338.33
3171.596, 15315.58
3173.524, 15297.92
3175.453, 15286.45
3177.381, 15306.13
3179.310, 15377.06
3181.238, 15423.37
3183.167, 15437.67
3185.095, 15458.52
3187.023, 15486.21
3188.952, 15510.43
3190.880, 15529.17
3192.809, 15522.32
3194.737, 15520.71
3196.666, 15590.95
3198.594, 15661.08
3200.523, 15659.03
3202.451, 15642.83
3204.380, 15622.71
3206.308, 15628.09
3208.237, 15692.43
3210.165, 15710.17
3212.094, 15665.23
3214.022, 15664.54
3215.950, 15717.43
3217.879, 15734.18
3219.807, 15729.01
3221.736, 15759.56
3223.664, 15805.12
3225.593, 15831.12
3227.521, 15855.12
3229.450, 15901.34
3231.378, 15935.60
3233.307, 15931.74
3235.235, 15935.18
3237.164, 15970.59
3239.092, 15992.96
3241.021, 16000.26
3242.949, 15999.74
3244.877, 15992.65
3246.806, 15999.69
3248.734, 16019.24
3250.663, 16067.75
3252.591, 16109.21
3254.520, 16071.66
3256.448, 16040.08
3258.377, 16092.14
3260.305, 16139.87
3262.234, 16144.15
3264.162, 16147.22
3266.091, 16156.69
3268.019, 16167.79
3269.948, 16180.36
3271.876, 16217.07
3273.804, 16269.04
3275.733, 16289.15
3277.661, 16290.61
3279.590, 16281.81
3281.518, 16285.14
3283.447, 16347.42
3285.375, 16385.63
3287.304, 16334.10
3289.232, 16329.66
3291.161, 16444.17
3293.089, 16495.52
3295.018, 16476.95
3296.946, 16490.48
3298.875, 16532.00
3300.803, 16570.81
3302.731, 16600.31
3304.660, 16599.06
3306.588, 16599.47
3308.517, 16636.67
3310.445, 16677.61
3312.374, 16710.79
3314.302, 16741.23
3316.231, 16770.29
3318.159, 16795.15
3320.088, 16814.51
3322.016, 16779.33
3323.945, 16725.55
3325.873, 16804.67
3327.802, 16920.19
3329.730, 16913.65
3331.658, 16892.26
3333.587, 16941.51
3335.515, 16963.90
3337.444, 16910.34
3339.372, 16893.77
3341.301, 16937.91
3343.229, 16980.33
3345.158, 17018.94
3347.086, 17043.92
3349.015, 17052.02
3350.943, 17007.19
3352.872, 16978.63
3354.800, 17063.55
3356.729, 17140.34
3358.657, 17123.78
3360.585, 17150.15
3362.514, 17254.94
3364.442, 17313.21
3366.371, 17321.85
3368.299, 17343.71
3370.228, 17378.80
3372.156, 17430.04
3374.085, 17475.41
3376.013, 17481.64
3377.942, 17480.46
3379.870, 17470.93
3381.799, 17493.53
3383.727, 17569.29
3385.656, 17614.44
3387.584, 17625.03
3389.512, 17634.39
3391.441, 17636.25
3393.369, 17580.14
3395.298, 17540.16
3397.226, 17646.28
3399.155, 17742.05
3401.083, 17709.80
3403.012, 17722.33
3404.940, 17824.80
3406.869, 17859.18
3408.797, 17819.03
3410.726, 17843.87
3412.654, 17906.51
3414.583, 17929.19
3416.511, 17936.15
3418.439, 17942.11
3420.368, 17957.05
3422.296, 17992.24
3424.225, 18009.09
3426.153, 17984.63
3428.082, 18040.13
3430.010, 18161.18
3431.939, 18169.20
3433.867, 18129.11
3435.796, 18154.06
3437.724, 18202.83
3439.653, 18255.13
3441.581, 18295.03
3443.510, 18338.20
3445.438, 18308.06
3447.366, 18204.33
3449.295, 18213.78
3451.223, 18302.32
3453.152, 18305.97
3455.080, 18305.68
3457.009, 18428.79
3458.937, 18532.00
3460.866, 18510.54
3462.794, 18497.15
3464.723, 18512.24
3466.651, 18535.74
3468.580, 18565.45
3470.508, 18601.03
3472.437, 18632.72
3474.365, 18629.37
3476.293, 18639.17
3478.222, 18718.87
3480.150, 18778.61
3482.079, 18784.63
3484.007, 18800.77
3485.936, 18831.10
3487.864, 18844.58
3489.793, 18856.72
3491.721, 18939.65
3493.650, 18992.20
3495.578, 18887.21
3497.507, 18804.63
3499.435, 18840.85
3501.364, 18865.16
3503.292, 18872.17
3505.220, 18897.41
3507.149, 18941.71
3509.077, 19022.65
3511.006, 19090.21
3512.934, 19063.44
3514.863, 19061.07
3516.791, 19141.73
3518.720, 19206.29
3520.648, 19239.59
3522.577, 19302.10
3524.505, 19369.96
3526.434, 19315.59
3528.362, 19247.31
3530.291, 19292.78
3532.219, 19333.76
3534.147, 19328.43
3536.076, 19308.56
3538.004, 19273.36
3539.933, 19349.34
3541.861, 19468.89
3543.790, 19403.90
3545.718, 19306.45
3547.647, 19319.83
3549.575, 19389.50
3551.504, 19527.90
3553.432, 19617.13
3555.361, 19645.83
3557.289, 19657.07
3559.218, 19659.63
3561.146, 19679.32
3563.074, 19696.53
3565.003, 19685.14
3566.931, 19702.32
3568.860, 19808.03
3570.788, 19832.73
3572.717, 19787.49
3574.645, 19797.03
3576.574, 19840.39
3578.502, 19859.68
3580.431, 19902.58
3582.359, 20040.34
3584.288, 20097.59
3586.216, 20031.94
3588.145, 20063.90
3590.073, 20178.63
3592.001, 20233.90
3593.930, 20250.21
3595.858, 20231.22
3597.787, 20231.61
3599.715, 20287.30
3601.644, 20319.62
3603.572, 20315.96
3605.501, 20326.44
3607.429, 20353.59
3609.358, 20415.64
3611.286, 20478.99
3613.215, 20512.55
3615.143, 20544.12
3617.072, 20581.54
3619.000, 20585.85
3620.928, 20557.45
3622.857, 20484.38
3624.785, 20423.03
3626.714, 20466.59
3628.642, 20518.96
3630.571, 20538.17
3632.499, 20572.03
3634.428, 20626.55
3636.356, 20675.39
3638.285, 20712.71
3640.213, 20714.82
3642.142, 20731.65
3644.070, 20819.95
3645.999, 20876.21
3647.927, 20857.71
3649.855, 20882.95
3651.784, 20939.68
3653.712, 20972.94
3655.641, 20997.29
3657.569, 21028.91
3659.498, 21053.56
3661.426, 21062.98
3663.355, 21073.10
3665.283, 21086.62
3667.212, 21102.33
3669.140, 21135.45
3671.069, 21226.39
3672.997, 21310.36
3674.926, 21350.15
3676.854, 21381.31
3678.782, 21404.22
3680.711, 21475.09
3682.639, 21558.63
3684.568, 21600.13
3686.496, 21610.81
3688.425, 21605.86
3690.353, 21564.73
3692.282, 21482.56
3694.210, 21499.70
3696.139, 21587.09
3698.067, 21694.17
3699.996, 21773.21
3701.924, 21785.87
3703.853, 21779.24
3705.781, 21759.97
3707.709, 21801.50
3709.638, 21869.29
3711.566, 21810.74
3713.495, 21776.79
3715.423, 21902.27
3717.352, 22001.76
3719.280, 22011.73
3721.209, 22071.61
3723.137, 22152.10
3725.066, 22167.44
3726.994, 22137.48
3728.923, 22066.52
3730.851, 22017.03
3732.780, 22000.82
3734.708, 22083.87
3736.636, 22225.90
3738.565, 22280.50
3740.493, 22312.22
3742.422, 22368.58
3744.350, 22421.00
3746.279, 22457.69
3748.207, 22510.30
3750.136, 22561.36
3752.064, 22554.33
3753.993, 22528.78
3755.921, 22498.64
3757.850, 22523.13
3759.778, 22628.12
3761.707, 22682.42
3763.635, 22702.80
3765.563, 22734.06
3767.492, 22773.69
3769.420, 22830.30
3771.349, 22855.66
3773.277, 22839.33
3775.206, 22875.67
3777.134, 22941.26
3779.063, 22980.79
3780.991, 23019.46
3782.920, 23070.29
3784.848, 23110.51
3786.777, 23137.58
3788.705, 23202.61
3790.634, 23257.18
3792.562, 23174.99
3794.490, 23144.57
3796.419, 23267.01
3798.347, 23327.21
3800.276, 23317.21
3802.204, 23360.15
3804.133, 23418.59
3806.061, 23462.55
3807.990, 23489.41
3809.918, 23501.50
3811.847, 23505.64
3813.775, 23503.26
3815.704, 23466.15
3817.632, 23457.20
3819.561, 23544.76
3821.489, 23631.92
3823.417, 23696.13
3825.346, 23760.72
3827.274, 23813.17
3829.203, 23825.05
3831.131, 23831.95
3833.060, 23854.13
3834.988, 23870.12
3836.917, 23884.79
3838.845, 24001.59
3840.774, 24116.44
3842.702, 24064.80
3844.631, 24046.07
3846.559, 24113.14
3848.488, 24206.25
3850.416, 24295.04
3852.344, 24284.03
3854.273, 24256.91
3856.201, 24263.19
3858.130, 24304.26
3860.058, 24376.47
3861.987, 24392.05
3863.915, 24386.67
3865.844, 24421.62
3867.772, 24457.64
3869.701, 24474.85
3871.629, 24491.50
3873.558, 24518.59
3875.486, 24645.27
3877.415, 24729.55
3879.343, 24607.47
3881.271, 24564.75
3883.200, 24631.09
3885.128, 24656.31
3887.057, 24667.08
3888.985, 24666.28
3890.914, 24692.53
3892.842, 24801.05
3894.771, 24832.06
3896.699, 24807.62
3898.628, 24846.90
3900.556, 24900.92
3902.485, 24952.19
3904.413, 25001.49
3906.342, 25031.75
3908.270, 25054.95
3910.198, 25084.16
3912.127, 25110.96
3914.055, 25146.66
3915.984, 25182.70
3917.912, 25217.63
3919.841, 25260.13
3921.769, 25270.62
3923.698, 25279.52
3925.626, 25315.65
3927.555, 25382.53
3929.483, 25470.40
3931.412, 25480.21
3933.340, 25462.99
3935.269, 25492.55
3937.197, 25534.54
3939.125, 25577.20
3941.054, 25550.98
3942.982, 25502.46
3944.911, 25484.09
3946.839, 25517.13
3948.768, 25645.42
3950.696, 25703.98
3952.625, 25706.05
3954.553, 25745.86
3956.482, 25794.72
3958.410, 25821.80
3960.339, 25833.37
3962.267, 25863.55
3964.196, 25908.85
3966.124, 25951.59
3968.052, 25994.94
3969.981, 25993.60
3971.909, 25999.51
3973.838, 26044.18
3975.766, 26063.47
3977.695, 26081.96
3979.623, 26145.95
3981.552, 26240.69
3983.480, 26260.61
3985.409, 26239.98
3987.337, 26287.12
3989.266, 26383.92
3991.194, 26456.56
3993.123, 26427.24
3995.051, 26422.91
3996.979, 26448.51
3998.908, 26436.82
4000.836, 26473.96
4002.765, 26519.16
4004.693, 26549.55
4006.622, 26641.28
4008.550, 26751.81
4010.479, 26827.00
4012.407, 26831.83
4014.336, 26832.60
4016.264, 26863.70
4018.193, 26906.78
4020.121, 27039.03
4022.050, 27085.18
4023.978, 27054.14
4025.906, 27132.21
4027.835, 27200.00
4029.763, 27192.15
4031.692, 27198.25
4033.620, 27228.26
4035.549, 27250.34
4037.477, 27264.17
4039.406, 27252.06
4041.334, 27262.21
4043.263, 27309.77
4045.191, 27349.84
4047.120, 27401.54
4049.048, 27470.49
4050.977, 27517.92
4052.905, 27552.16
4054.833, 27618.87
4056.762, 27674.54
4058.690, 27660.64
4060.619, 27653.52
4062.547, 27672.48
4064.476, 27769.93
4066.404, 27898.77
4068.333, 27947.82
4070.261, 27966.48
4072.190, 27961.84
4074.118, 28002.69
4076.047, 28064.92
4077.975, 28125.51
4079.904, 28160.72
4081.832, 28122.49
4083.760, 28140.38
4085.689, 28194.53
4087.617, 28185.38
4089.546, 28186.66
4091.474, 28254.60
4093.403, 28332.77
4095.331, 28377.97
4097.260, 28384.64
4099.188, 28376.72
4101.117, 28338.63
4103.045, 28409.26
4104.974, 28577.11
4106.902, 28639.75
4108.831, 28633.09
4110.759, 28610.91
4112.688, 28603.24
4114.616, 28613.91
4116.544, 28644.12
4118.473, 28686.64
4120.401, 28723.09
4122.330, 28792.77
4124.258, 28892.11
4126.187, 28924.67
4128.115, 28960.36
4130.043, 28972.94
4131.972, 28981.25
4133.900, 29016.29
4135.829, 29016.85
4137.757, 29055.39
4139.686, 29173.48
4141.614, 29267.29
4143.543, 29302.96
4145.471, 29345.33
4147.400, 29391.44
4149.328, 29401.56
4151.257, 29440.62
4153.185, 29564.63
4155.114, 29597.32
4157.042, 29571.40
4158.971, 29575.58
4160.899, 29600.42
4162.828, 29666.75
4164.756, 29711.13
4166.685, 29731.05
4168.613, 29699.86
4170.542, 29668.78
4172.470, 29719.35
4174.398, 29761.17
4176.327, 29786.31
4178.255, 29951.31
4180.184, 30093.29
4182.112, 30048.10
4184.041, 30047.88
4185.969, 30129.91
4187.897, 30150.21
4189.826, 30163.12
4191.754, 30195.83
4193.683, 30234.61
4195.611, 30306.37
4197.540, 30349.14
4199.468, 30392.92
4201.397, 30470.39
4203.325, 30486.62
4205.254, 30463.64
4207.182, 30470.81
4209.111, 30491.89
4211.039, 30544.95
4212.968, 30597.64
4214.896, 30653.82
4216.825, 30758.88
4218.753, 30826.36
4220.682, 30743.39
4222.610, 30757.63
4224.539, 30856.98
4226.467, 30890.67
4228.396, 30908.04
4230.324, 30932.25
4232.252, 30991.49
4234.181, 31072.97
4236.109, 31126.18
4238.038, 31170.51
4239.966, 31195.81
4241.895, 31316.41
4243.823, 31466.63
4245.751, 31388.27
4247.680, 31329.96
4249.608, 31449.13
4251.537, 31491.62
4253.465, 31489.20
4255.394, 31506.27
4257.322, 31539.22
4259.251, 31578.82
4261.179, 31704.56
4263.108, 31839.94
4265.036, 31856.66
4266.965, 31849.13
4268.893, 31842.70
4270.822, 31822.87
4272.750, 31820.69
4274.679, 31883.63
4276.607, 31946.78
4278.536, 32000.69
4280.464, 32096.09
4282.393, 32174.75
4284.321, 32131.29
4286.250, 32227.33
4288.178, 32434.94
4290.106, 32498.81
4292.035, 32491.67
4293.963, 32399.61
4295.892, 32463.77
4297.820, 32619.56
4299.749, 32681.96
4301.677, 32702.38
4303.605, 32673.82
4305.534, 32754.74
4307.462, 32877.58
4309.391, 32923.79
4311.319, 32981.57
4313.248, 33073.71
4315.176, 33073.18
4317.105, 33057.12
4319.033, 33103.70
4320.962, 33165.72
4322.890, 33240.10
4324.819, 33384.71
4326.747, 33473.41
4328.676, 33403.39
4330.604, 33401.59
4332.533, 33469.06
4334.461, 33611.20
4336.390, 33694.98
4338.318, 33670.67
4340.247, 33790.98
4342.175, 33944.05
4344.104, 33976.94
4346.032, 33986.99
4347.960, 33990.10
4349.889, 33871.11
4351.817, 33809.87
4353.746, 33947.96
4355.674, 34098.38
4357.603, 34222.04
4359.531, 34242.68
4361.459, 34286.91
4363.388, 34403.48
4365.316, 34381.98
4367.245, 34331.48
4369.173, 34433.20
4371.102, 34535.26
4373.030, 34606.82
4374.959, 34609.86
4376.887, 34607.43
4378.816, 34649.19
4380.744, 34690.66
4382.673, 34744.40
4384.601, 34868.63
4386.530, 34983.97
4388.458, 35056.98
4390.387, 35150.51
4392.315, 35214.83
4394.244, 35156.63
4396.172, 35159.33
4398.101, 35238.08
4400.029, 35326.44
4401.958, 35416.32
4403.886, 35511.41
4405.814, 35544.95
4407.743, 35559.64
4409.671, 35659.84
4411.600, 35688.54
4413.528, 35632.68
4415.457, 35690.42
4417.385, 35803.21
4419.313, 35937.30
4421.242, 36039.27
4423.170, 36105.55
4425.099, 36147.14
4427.027, 36150.10
4428.956, 36105.41
4430.884, 36096.96
4432.813, 36120.72
4434.741, 36178.00
4436.670, 36255.74
4438.598, 36352.19
4440.527, 36467.74
4442.455, 36606.92
4444.384, 36768.80
4446.312, 36828.80
4448.241, 36795.42
4450.169, 36625.64
4452.098, 36635.29
4454.026, 36796.53
4455.955, 36823.50
4457.883, 36865.63
4459.812, 37007.12
4461.740, 36962.36
4463.668, 36891.15
4465.597, 37056.70
4467.525, 37125.64
4469.454, 37106.37
4471.382, 37385.22
4473.311, 37539.85
4475.239, 37354.74
4477.167, 37434.08
4479.096, 37588.19
4481.024, 37535.92
4482.953, 37634.30
4484.881, 37852.22
4486.810, 37861.36
4488.738, 37868.68
4490.667, 37963.01
4492.595, 38049.67
4494.524, 38080.17
4496.452, 37943.18
4498.381, 37933.23
4500.309, 38048.71
4502.238, 38200.10
4504.166, 38326.98
4506.095, 38407.87
4508.023, 38400.88
4509.952, 38402.25
4511.880, 38517.79
4513.809, 38508.21
4515.737, 38448.17
4517.666, 38584.26
4519.594, 38697.96
4521.522, 38727.61
4523.451, 38722.18
4525.379, 38735.23
4527.308, 38831.12
4529.236, 38801.63
4531.165, 38768.09
4533.093, 38991.23
4535.021, 39122.19
4536.950, 39140.40
4538.878, 39256.99
4540.807, 39386.76
4542.735, 39491.73
4544.664, 39480.46
4546.592, 39468.27
4548.521, 39590.08
4550.449, 39752.11
4552.378, 39893.05
4554.306, 39837.90
4556.235, 39820.31
4558.163, 39896.00
4560.092, 39849.28
4562.020, 39845.94
4563.949, 39992.44
4565.877, 40092.76
4567.806, 40177.12
4569.734, 40314.47
4571.663, 40398.85
4573.591, 40427.99
4575.520, 40486.27
4577.448, 40527.82
4579.376, 40545.72
4581.305, 40588.35
4583.233, 40609.02
4585.162, 40563.03
4587.090, 40585.95
4589.019, 40676.11
4590.947, 40842.81
4592.875, 40934.79
4594.804, 40955.59
4596.732, 41064.14
4598.661, 41126.62
4600.589, 41108.16
4602.518, 41148.13
4604.446, 41246.73
4606.375, 41420.35
4608.303, 41385.50
4610.232, 41293.00
4612.160, 41394.82
4614.089, 41556.47
4616.017, 41731.36
4617.946, 41829.87
4619.874, 41832.64
4621.803, 41759.42
4623.731, 41931.57
4625.660, 42143.23
4627.588, 42288.49
4629.517, 42205.23
4631.445, 42096.36
4633.374, 42269.13
4635.302, 42273.15
4637.230, 42201.24
4639.159, 42398.80
4641.087, 42463.27
4643.016, 42385.86
4644.944, 42505.87
4646.873, 42705.54
4648.801, 42947.86
4650.729, 42988.25
4652.658, 42948.81
4654.586, 42901.89
4656.515, 42944.43
4658.443, 43067.35
4660.372, 43307.25
4662.300, 43354.69
4664.229, 43287.62
4666.157, 43423.58
4668.086, 43524.02
4670.014, 43542.57
4671.943, 43436.61
4673.871, 43430.58
4675.800, 43587.99
4677.728, 43641.09
4679.657, 43686.87
4681.585, 43823.61
4683.514, 43935.29
4685.442, 43978.14
4687.371, 43845.28
4689.299, 43967.45
4691.228, 44230.54
4693.156, 44351.03
4695.084, 44404.82
4697.013, 44412.20
4698.941, 44403.85
4700.870, 44403.12
4702.798, 44418.26
4704.727, 44380.84
4706.655, 44380.77
4708.583, 44456.06
4710.512, 44483.50
4712.440, 44515.49
4714.369, 44591.27
4716.297, 44729.88
4718.226, 44847.98
4720.154, 44842.20
4722.083, 44865.82
4724.011, 44919.88
4725.940, 44965.51
4727.868, 45014.82
4729.797, 45073.25
4731.725, 45171.38
4733.654, 45259.36
4735.582, 45326.45
4737.511, 45381.36
4739.439, 45430.61
4741.368, 45481.25
4743.296, 45558.65
4745.225, 45634.63
4747.153, 45689.36
4749.082, 45769.61
4751.010, 45827.09
4752.938, 45811.55
4754.867, 45911.33
4756.795, 45996.05
4758.724, 45860.75
4760.652, 45858.88
4762.581, 45976.79
4764.509, 46226.35
4766.438, 46244.48
4768.366, 46144.80
4770.294, 46346.59
4772.223, 46405.98
4774.151, 46340.03
4776.080, 46549.73
4778.008, 46716.59
4779.937, 46764.74
4781.865, 46728.83
4783.794, 46787.18
4785.722, 46996.98
4787.651, 46941.57
4789.579, 46965.45
4791.508, 47193.57
4793.436, 47208.59
4795.365, 47230.89
4797.293, 47421.59
4799.222, 47580.35
4801.150, 47597.23
4803.079, 47372.90
4805.007, 47486.37
4806.936, 47678.19
4808.864, 47639.91
4810.792, 47548.31
4812.721, 47561.20
4814.649, 47916.10
4816.578, 48006.89
4818.506, 47935.89
4820.435, 47927.99
4822.363, 47956.19
4824.292, 48011.59
4826.220, 48080.20
4828.148, 48225.04
4830.077, 48382.53
4832.005, 48368.25
4833.934, 48368.42
4835.862, 48426.81
4837.791, 48613.28
4839.719, 48727.03
4841.648, 48760.55
4843.576, 48840.49
4845.505, 48913.76
4847.433, 48960.14
4849.362, 48895.14
4851.290, 48961.16
4853.219, 49159.45
4855.147, 49100.63
4857.076, 49166.38
4859.004, 49418.14
4860.933, 49435.45
4862.861, 49386.10
4864.790, 49342.64
4866.718, 49459.21
4868.646, 49554.65
4870.575, 49572.30
4872.503, 49600.60
4874.432, 49589.24
4876.360, 49525.75
4878.289, 49643.63
4880.217, 49694.63
4882.146, 49606.09
4884.074, 49668.07
4886.002, 49792.70
4887.931, 49939.96
4889.859, 49926.04
4891.788, 50015.61
4893.716, 50283.03
4895.645, 50288.33
4897.573, 50233.32
4899.502, 50213.42
4901.430, 50477.16
4903.359, 50585.83
4905.287, 50390.18
4907.216, 50489.45
4909.144, 50537.93
4911.073, 50381.91
4913.001, 50459.07
4914.930, 50520.40
4916.858, 50449.73
4918.787, 50655.33
4920.715, 50869.95
4922.644, 50974.14
4924.572, 51034.43
4926.500, 50986.58
4928.429, 50819.03
4930.357, 50896.98
4932.286, 50925.07
4934.214, 50836.13
4936.143, 50979.24
4938.071, 51138.78
4940.000, 51222.88
4941.928, 51280.62
4943.856, 51412.56
4945.785, 51598.16
4947.713, 51466.33
4949.642, 51382.69
4951.570, 51439.46
4953.499, 51475.60
4955.427, 51480.27
4957.356, 51464.69
4959.284, 51522.13
4961.213, 51481.16
4963.141, 51375.73
4965.070, 51426.94
4966.998, 51498.05
4968.927, 51578.57
4970.855, 51738.60
4972.784, 51938.11
4974.712, 52120.93
4976.641, 52216.01
4978.569, 52188.05
4980.498, 52112.97
4982.426, 52181.01
4984.354, 52097.45
4986.283, 51993.29
4988.211, 52125.75
4990.140, 52167.13
4992.068, 52200.91
4993.997, 52453.79
4995.925, 52443.48
4997.854, 52368.36
4999.782, 52476.06
5001.710, 52459.79
5003.639, 52508.21
5005.567, 52790.90
5007.496, 52884.22
5009.424, 52927.44
5011.353, 53030.46
5013.281, 53042.61
5015.210, 53010.11
5017.138, 52966.77
5019.067, 53002.23
5020.995, 53077.85
5022.924, 53170.35
5024.852, 53169.32
5026.781, 53160.23
5028.709, 53189.88
5030.638, 53355.74
5032.566, 53476.52
5034.495, 53524.74
5036.423, 53522.94
5038.352, 53595.53
5040.280, 53706.25
5042.208, 53760.74
5044.137, 53736.83
5046.065, 53713.37
5047.994, 53788.68
5049.922, 53845.84
5051.851, 53868.24
5053.779, 53844.17
5055.708, 53914.59
5057.636, 53996.93
5059.564, 54043.79
5061.493, 53998.64
5063.421, 54013.36
5065.350, 54139.29
5067.278, 54313.29
5069.207, 54457.00
5071.135, 54529.22
5073.064, 54435.66
5074.992, 54362.86
5076.921, 54334.41
5078.849, 54252.71
5080.778, 54331.36
5082.706, 54483.80
5084.635, 54538.12
5086.563, 54513.80
5088.492, 54516.66
5090.420, 54666.73
5092.349, 54618.83
5094.277, 54511.20
5096.206, 54445.91
5098.134, 54453.15
5100.063, 54447.88
5101.991, 54398.75
5103.919, 54482.76
5105.848, 54470.75
5107.776, 54360.40
5109.705, 54317.61
5111.633, 54247.04
5113.562, 54164.54
5115.490, 54087.55
5117.418, 54171.14
5119.347, 54287.17
5121.275, 54303.53
5123.204, 54161.33
5125.132, 54066.52
5127.061, 54141.07
5128.989, 54243.77
5130.918, 54252.95
5132.846, 54154.71
5134.775, 54196.37
5136.703, 54150.14
5138.632, 54055.81
5140.560, 54175.81
5142.489, 54107.91
5144.417, 53976.43
5146.346, 54009.96
5148.274, 54081.30
5150.203, 54051.30
5152.131, 53828.13
5154.060, 53898.02
5155.988, 53926.14
5157.917, 53823.05
5159.845, 53868.50
5161.773, 53902.04
5163.702, 53927.18
5165.630, 54044.17
5167.559, 54237.30
5169.487, 54405.32
5171.416, 54430.07
5173.344, 54462.31
5175.272, 54465.65
5177.201, 54413.50
5179.129, 54284.50
5181.058, 54181.19
5182.986, 54135.73
5184.915, 54118.89
5186.843, 54050.46
5188.772, 53923.20
5190.700, 53743.45
5192.629, 53640.05
5194.557, 53545.43
5196.486, 53378.16
5198.414, 53315.52
5200.343, 53268.72
5202.271, 53201.00
5204.200, 53234.67
5206.128, 53165.54
5208.057, 53035.19
5209.985, 53041.39
5211.914, 53040.44
5213.842, 53073.48
5215.771, 53251.13
5217.699, 53065.55
5219.627, 52979.03
5221.556, 53169.34
5223.484, 53103.50
5225.413, 53136.73
5227.341, 53239.88
5229.270, 53043.87
5231.198, 53076.74
5233.126, 53192.20
5235.055, 53198.40
5236.983, 53057.03
5238.912, 52951.55
5240.840, 52947.55
5242.769, 52766.71
5244.697, 52834.25
5246.626, 53071.43
5248.554, 53112.43
5250.483, 53103.76
5252.411, 53017.32
5254.340, 52809.82
5256.268, 52802.95
5258.197, 52876.91
5260.125, 52949.16
5262.054, 52925.77
5263.982, 52797.50
5265.911, 52685.13
5267.839, 52802.63
5269.768, 52951.64
5271.696, 52958.39
5273.625, 52733.85
5275.553, 52818.03
5277.481, 52908.72
5279.410, 52946.79
5281.338, 53031.26
5283.267, 53143.76
5285.195, 53218.68
5287.124, 53173.38
5289.052, 53221.10
5290.980, 53283.25
5292.909, 53307.64
5294.837, 53176.32
5296.766, 53291.22
5298.694, 53438.41
5300.623, 53184.31
5302.551, 53202.25
5304.480, 53265.82
5306.408, 53215.19
5308.337, 53081.48
5310.265, 53136.89
5312.194, 53313.12
5314.122, 53330.09
5316.051, 53553.29
5317.979, 53714.98
5319.908, 53613.68
5321.836, 53740.58
5323.765, 53703.78
5325.693, 53544.04
5327.622, 53801.16
5329.550, 53770.34
5331.479, 53647.28
5333.407, 53661.66
5335.335, 53714.34
5337.264, 53811.84
5339.192, 53930.50
5341.121, 53985.91
5343.049, 54064.10
5344.978, 54137.91
5346.906, 54170.95
5348.834, 54090.68
5350.763, 54082.80
5352.691, 54161.54
5354.620, 54173.90
5356.548, 53939.01
5358.477, 53746.70
5360.405, 53874.43
5362.334, 53947.36
5364.262, 53981.74
5366.191, 53994.40
5368.119, 53996.93
5370.048, 54028.27
5371.976, 54033.20
5373.905, 53959.11
5375.833, 53990.08
5377.762, 54190.75
5379.690, 54440.86
5381.619, 54404.21
5383.547, 54223.94
5385.476, 54187.17
5387.404, 54527.06
5389.333, 54479.39
5391.261, 54518.31
5393.189, 54649.93
5395.118, 54592.93
5397.046, 54572.02
5398.975, 54535.59
5400.903, 54461.30
5402.832, 54522.32
5404.760, 54463.30
5406.688, 54392.89
5408.617, 54616.07
5410.545, 54665.71
5412.474, 54669.46
5414.402, 54685.14
5416.331, 54630.27
5418.259, 54515.71
5420.188, 54501.85
5422.116, 54733.70
5424.045, 54611.73
5425.973, 54579.44
5427.902, 54722.17
5429.830, 54793.00
5431.759, 54791.07
5433.687, 54826.09
5435.616, 54966.36
5437.544, 54848.65
5439.473, 54811.03
5441.401, 54892.59
5443.330, 55025.94
5445.258, 55018.56
5447.187, 54942.27
5449.115, 54841.46
5451.043, 54642.48
5452.972, 54741.40
5454.900, 54970.23
5456.829, 55123.42
5458.757, 55179.85
5460.686, 55236.11
5462.614, 55275.19
5464.542, 55210.07
5466.471, 55252.88
5468.399, 55273.57
5470.328, 55235.34
5472.256, 55357.32
5474.185, 55328.05
5476.113, 55347.41
5478.042, 55670.12
5479.970, 55610.22
5481.899, 55563.27
5483.827, 55551.87
5485.756, 55384.14
5487.684, 55535.74
5489.613, 55651.04
5491.541, 55607.20
5493.470, 55642.60
5495.398, 55608.65
5497.327, 55660.32
5499.255, 55900.08
5501.184, 55704.05
5503.112, 55707.87
5505.041, 55865.51
5506.969, 55855.50
5508.897, 55974.82
5510.826, 56149.41
5512.754, 56235.98
5514.683, 55955.89
5516.611, 56029.01
5518.540, 56179.79
5520.468, 56212.13
5522.396, 56158.92
5524.325, 56187.81
5526.253, 56318.55
5528.182, 56536.04
5530.110, 56709.38
5532.039, 56845.48
5533.967, 56887.36
5535.896, 56754.99
5537.824, 56774.82
5539.753, 56777.95
5541.681, 56755.82
5543.610, 56819.25
5545.538, 56974.88
5547.467, 57143.32
5549.395, 57275.51
5551.324, 57382.32
5553.252, 57354.74
5555.181, 57285.24
5557.109, 57242.71
5559.038, 57193.05
5560.966, 57225.80
5562.895, 57238.21
5564.823, 57131.27
5566.751, 57236.23
5568.680, 57275.06
5570.608, 57282.54
5572.537, 57394.89
5574.465, 57401.77
5576.394, 57568.98
5578.322, 57798.80
5580.250, 57654.50
5582.179, 57761.34
5584.107, 57887.18
5586.036, 57938.72
5587.964, 57950.91
5589.893, 58073.98
5591.821, 58176.04
5593.750, 58220.59
5595.678, 58447.50
5597.607, 58399.66
5599.535, 58314.85
5601.464, 58378.41
5603.392, 58430.87
5605.321, 58577.76
5607.249, 58615.87
5609.178, 58427.27
5611.106, 58673.00
5613.035, 59016.93
5614.963, 59197.14
5616.892, 59044.99
5618.820, 59133.74
5620.749, 59264.88
5622.677, 59308.15
5624.605, 59190.89
5626.534, 59243.22
5628.462, 59336.12
5630.391, 59441.38
5632.319, 59560.00
5634.248, 59640.84
5636.176, 59684.70
5638.104, 59675.07
5640.033, 59597.04
5641.961, 59538.11
5643.890, 59732.38
5645.818, 59999.00
5647.747, 59900.00
5649.675, 59931.02
5651.604, 60019.64
5653.532, 60110.63
5655.461, 60151.15
5657.389, 60401.05
5659.318, 60485.16
5661.246, 60447.50
5663.175, 60544.37
5665.103, 60635.63
5667.032, 60657.00
5668.960, 60621.97
5670.889, 60565.22
5672.817, 60570.79
5674.746, 60620.70
5676.674, 60628.53
5678.603, 60475.97
5680.531, 60323.04
5682.459, 60389.87
5684.388, 60565.28
5686.316, 60575.61
5688.245, 60628.39
5690.173, 60636.14
5692.102, 60647.79
5694.030, 60755.66
5695.958, 60657.74
5697.887, 60638.79
5699.815, 60642.40
5701.744, 60534.02
5703.672, 60452.09
5705.601, 60477.02
5707.529, 60550.54
5709.458, 60588.66
5711.386, 60496.07
5713.315, 60378.04
5715.243, 60328.98
5717.172, 60398.96
5719.100, 60237.73
5721.029, 60173.89
5722.957, 60278.91
5724.886, 60503.74
5726.814, 60520.87
5728.743, 60682.45
5730.671, 60872.36
5732.600, 60956.60
5734.528, 60832.29
5736.457, 60727.67
5738.385, 60804.89
5740.313, 60938.72
5742.242, 60624.80
5744.170, 60569.58
5746.099, 60561.33
5748.027, 60563.03
5749.956, 60753.08
5751.884, 60702.22
5753.813, 60637.75
5755.741, 60608.29
5757.669, 60564.73
5759.598, 60462.32
5761.526, 60435.89
5763.455, 60405.77
5765.383, 60270.47
5767.312, 60376.93
5769.240, 60448.97
5771.169, 60458.63
5773.097, 60435.57
5775.026, 60485.86
5776.954, 60478.49
5778.883, 60380.24
5780.811, 60247.33
5782.740, 60215.59
5784.668, 60260.51
5786.597, 60380.71
5788.525, 60511.33
5790.454, 60559.03
5792.382, 60537.37
5794.311, 60505.84
5796.239, 60393.32
5798.167, 60141.93
5800.096, 60154.27
5802.024, 60160.63
5803.953, 60208.96
5805.881, 60288.01
5807.810, 59845.94
5809.738, 60023.02
5811.667, 60252.26
5813.595, 60263.24
5815.523, 60183.93
5817.452, 60121.07
5819.380, 60083.91
5821.309, 60058.54
5823.237, 60026.76
5825.166, 59947.15
5827.094, 59970.14
5829.023, 60019.32
5830.951, 59999.89
5832.880, 59873.88
5834.808, 59779.07
5836.737, 59811.32
5838.665, 59913.39
5840.594, 59904.79
5842.522, 59833.20
5844.451, 59956.05
5846.379, 60056.67
5848.308, 59887.04
5850.236, 59850.02
5852.165, 59713.93
5854.093, 59612.80
5856.021, 59616.24
5857.950, 59600.38
5859.878, 59577.24
5861.807, 59636.86
5863.735, 59733.80
5865.664, 59758.93
5867.592, 59528.80
5869.521, 59602.32
5871.449, 59768.11
5873.377, 59780.53
5875.306, 59583.07
5877.234, 59555.61
5879.163, 59577.07
5881.091, 59608.11
5883.020, 59692.83
5884.948, 59579.21
5886.877, 59583.77
5888.805, 59622.20
5890.734, 59583.52
5892.662, 59558.16
5894.591, 59461.29
5896.519, 59389.58
5898.448, 59370.89
5900.376, 59386.04
5902.305, 59641.64
5904.233, 59627.84
5906.162, 59500.94
5908.090, 59464.00
5910.019, 59513.97
5911.947, 59549.59
5913.875, 59484.56
5915.804, 59496.65
5917.732, 59799.29
5919.661, 59733.34
5921.589, 59814.47
5923.518, 59743.41
5925.446, 59442.42
5927.375, 59452.45
5929.303, 59451.92
5931.231, 59371.20
5933.160, 59318.55
5935.088, 59396.53
5937.017, 59431.42
5938.945, 59541.49
5940.874, 59570.47
5942.802, 59547.59
5944.731, 59754.88
5946.659, 59577.91
5948.588, 59446.25
5950.516, 59366.42
5952.445, 59281.36
5954.373, 59199.88
5956.302, 59453.63
5958.230, 59594.13
5960.159, 59613.65
5962.087, 59665.70
5964.016, 59552.12
5965.944, 59353.26
5967.873, 59176.39
5969.801, 59063.32
5971.729, 58994.10
5973.658, 58943.31
5975.586, 58965.59
5977.515, 59032.61
5979.443, 59095.52
5981.372, 59111.25
5983.300, 59235.63
5985.229, 59125.45
5987.157, 58988.20
5989.085, 59060.24
5991.014, 59181.77
5992.942, 59025.87
5994.871, 58840.98
5996.799, 58809.68
5998.728, 58973.39
6000.656, 59050.82
6002.585, 58860.29
6004.513, 58984.69
6006.442, 59279.27
6008.370, 59190.55
6010.299, 59211.30
6012.227, 59152.73
6014.156, 59055.72
6016.084, 59001.23
6018.013, 59039.32
6019.941, 59050.68
6021.870, 59003.08
6023.798, 59001.34
6025.727, 59053.20
6027.655, 59027.87
6029.583, 58956.02
6031.512, 58764.02
6033.440, 58717.88
6035.369, 58892.61
6037.297, 58958.28
6039.226, 58968.63
6041.154, 59004.63
6043.083, 59042.97
6045.011, 59040.80
6046.939, 58958.25
6048.868, 59187.85
6050.796, 59579.05
6052.725, 59595.78
6054.653, 59145.91
6056.582, 59160.69
6058.510, 59084.09
6060.439, 59197.11
6062.367, 59277.98
6064.296, 59092.03
6066.224, 58632.57
6068.153, 58862.84
6070.081, 58831.83
6072.010, 58590.50
6073.938, 58462.61
6075.867, 58625.76
6077.795, 58474.25
6079.724, 58490.86
6081.652, 58607.87
6083.581, 58627.33
6085.509, 58444.84
6087.438, 58361.41
6089.366, 58393.07
6091.294, 58409.51
6093.223, 58387.23
6095.151, 58461.69
6097.080, 58357.79
6099.008, 58447.83
6100.937, 58503.66
6102.865, 58387.04
6104.793, 58220.68
6106.722, 58138.41
6108.650, 58094.14
6110.579, 58209.20
6112.507, 58352.40
6114.436, 58264.01
6116.364, 58284.35
6118.293, 58189.94
6120.221, 58066.84
6122.150, 58045.13
6124.078, 58160.94
6126.007, 58143.94
6127.935, 58335.90
6129.864, 58272.93
6131.792, 58030.48
6133.721, 57876.47
6135.649, 57884.93
6137.578, 57964.14
6139.506, 57801.26
6141.435, 57759.43
6143.363, 58000.13
6145.292, 58132.34
6147.220, 58266.98
6149.148, 58125.74
6151.077, 58075.66
6153.005, 58140.07
6154.934, 58016.31
6156.862, 57807.30
6158.791, 57761.00
6160.719, 57675.88
6162.647, 57617.38
6164.576, 57719.66
6166.504, 57868.09
6168.433, 57780.84
6170.361, 57858.29
6172.290, 57918.79
6174.218, 57817.55
6176.147, 57728.30
6178.075, 57702.48
6180.004, 57670.42
6181.932, 57640.68
6183.861, 57642.75
6185.789, 57688.22
6187.718, 57704.23
6189.646, 57585.22
6191.575, 57614.52
6193.503, 57717.95
6195.432, 57751.32
6197.360, 57705.76
6199.289, 57444.04
6201.217, 57512.91
6203.146, 57564.15
6205.074, 57431.21
6207.002, 57248.07
6208.931, 57398.49
6210.859, 57408.91
6212.788, 57291.14
6214.716, 57336.84
6216.645, 57496.04
6218.573, 57139.11
6220.501, 57083.50
6222.430, 57253.37
6224.358, 57415.68
6226.287, 57455.75
6228.215, 57379.41
6230.144, 57307.20
6232.072, 57278.70
6234.001, 57230.72
6235.929, 57170.73
6237.858, 57082.08
6239.786, 56930.38
6241.715, 57134.23
6243.643, 57118.83
6245.572, 56956.10
6247.500, 56718.61
6249.429, 56570.05
6251.357, 56818.70
6253.286, 56665.47
6255.214, 56674.31
6257.143, 56701.56
6259.071, 56613.52
6261.000, 56429.95
6262.928, 56279.03
6264.856, 56242.17
6266.785, 56159.80
6268.713, 56262.97
6270.642, 56327.38
6272.570, 56083.55
6274.499, 56249.71
6276.427, 56395.87
6278.355, 56496.22
6280.284, 56365.48
6282.212, 56176.47
6284.141, 56299.71
6286.069, 56511.35
6287.998, 56323.84
6289.926, 56261.55
6291.855, 56215.62
6293.783, 56014.31
6295.712, 55700.37
6297.640, 55997.47
6299.569, 55949.54
6301.497, 55882.89
6303.426, 55950.41
6305.354, 56039.04
6307.283, 55952.95
6309.211, 56003.18
6311.140, 56031.19
6313.068, 55933.48
6314.997, 55807.17
6316.925, 55738.02
6318.854, 55714.90
6320.782, 55640.23
6322.710, 55498.81
6324.639, 55511.44
6326.567, 55543.80
6328.496, 55519.86
6330.424, 55487.39
6332.353, 55374.99
6334.281, 55393.30
6336.209, 55361.92
6338.138, 55359.58
6340.066, 55393.00
6341.995, 55375.38
6343.923, 55311.49
6345.852, 55245.51
6347.780, 55410.16
6349.709, 55455.33
6351.637, 55348.59
6353.566, 55284.20
6355.494, 55362.75
6357.423, 55362.82
6359.351, 55174.75
6361.280, 55095.62
6363.208, 55134.73
6365.137, 55134.49
6367.065, 54969.56
6368.994, 54815.47
6370.922, 54957.81
6372.851, 55091.46
6374.779, 55010.27
6376.708, 54819.71
6378.636, 54759.79
6380.564, 54761.98
6382.493, 54816.61
6384.421, 54685.43
6386.350, 54555.98
6388.278, 54566.67
6390.207, 54712.11
6392.135, 54870.61
6394.063, 54548.45
6395.992, 54566.89
6397.920, 54456.92
6399.849, 54323.28
6401.777, 54304.44
6403.706, 54278.20
6405.634, 54432.11
6407.563, 54332.55
6409.491, 54425.40
6411.420, 54425.23
6413.348, 54226.18
6415.277, 53989.41
6417.205, 53880.55
6419.134, 53811.62
6421.062, 53580.23
6422.991, 53681.04
6424.919, 53735.59
6426.848, 53636.66
6428.776, 53612.18
6430.705, 53400.66
6432.633, 53403.87
6434.562, 53421.16
6436.490, 53602.08
6438.418, 53611.45
6440.347, 53408.53
6442.275, 53409.90
6444.204, 53344.60
6446.132, 53309.85
6448.061, 53229.75
6449.989, 53167.94
6451.917, 53026.26
6453.846, 52828.54
6455.774, 52809.33
6457.703, 52843.52
6459.631, 52629.38
6461.560, 52451.59
6463.488, 52547.44
6465.417, 52638.13
6467.345, 52522.16
6469.274, 52487.25
6471.202, 52640.88
6473.131, 52690.71
6475.059, 52502.69
6476.988, 52485.55
6478.916, 52476.20
6480.845, 52324.21
6482.773, 52432.34
6484.702, 52347.38
6486.630, 52301.91
6488.559, 52216.84
6490.487, 52311.16
6492.416, 52293.17
6494.344, 52110.18
6496.272, 52175.60
6498.201, 51851.59
6500.129, 51908.85
6502.058, 51836.87
6503.986, 51755.39
6505.915, 51791.66
6507.843, 51876.74
6509.771, 51876.83
6511.700, 51856.00
6513.628, 51518.84
6515.557, 51437.51
6517.485, 51682.27
6519.414, 51670.04
6521.342, 51375.13
6523.271, 51231.46
6525.199, 51272.15
6527.128, 51271.14
6529.056, 51258.05
6530.985, 51243.88
6532.913, 51212.85
6534.842, 51113.20
6536.770, 51019.33
6538.699, 51129.23
6540.627, 51147.95
6542.556, 50957.58
6544.484, 50933.10
6546.413, 50746.02
6548.341, 50742.14
6550.270, 50751.62
6552.198, 50439.48
6554.126, 50454.92
6556.055, 50488.36
6557.983, 50588.71
6559.912, 50571.12
6561.840, 50477.38
6563.769, 50363.52
6565.697, 50340.75
6567.625, 50507.50
6569.554, 50588.12
6571.482, 50327.66
6573.411, 50204.77
6575.339, 50145.84
##END=



