##NAMES=Hedenbergite
##RRUFFID=R060040
##IDEAL CHEMISTRY=CaFe^2+^Si_2_O_6_
##LOCALITY=Rio Marina, Elba, Italy
##OWNER=RRUFF
##SOURCE=University of Arizona Mineral Museum
##DESCRIPTION=Radial aggregate of green thin bladed crystals
##STATUS=The identification of this mineral has been confirmed by X-ray diffraction and chemical analysis
##URL=https://www.rruff.net/odr/rruff_sample/R060040
##MEASURED CHEMISTRY=Ca_1.00_(Fe^2+^_0.89_Mg_0.09_Mn_0.02_)Si_2.00_O_6_
##DIFFRACTION SAMPLE DESCRIPTION=Powder
##CELL PARAMETERS=a: 9.846 b: 9.0196 c: 5.255 alpha: 90 beta: 104.9 gamma: 90 volume: 450.96 crystal system: monoclinic
##FILETYPE=Raman RAW
##RAMAN WAVELENGTH=532

265.5296, 202.4647
267.4580, 205.9045
269.3865, 209.3820
271.3150, 212.6236
273.2434, 215.7927
275.1719, 219.8038
277.1004, 224.4559
279.0288, 229.9907
280.9573, 236.6470
282.8858, 244.3656
284.8142, 252.9592
286.7427, 262.5315
288.6712, 272.9272
290.5996, 283.7926
292.5281, 295.3972
294.4566, 307.1767
296.3850, 318.7185
298.3135, 329.8351
300.2420, 341.6203
302.1704, 355.2042
304.0989, 369.4002
306.0274, 381.9554
307.9558, 394.6006
309.8843, 403.2476
311.8128, 406.8010
313.7412, 404.3774
315.6697, 398.6556
317.5982, 387.0783
319.5266, 373.2943
321.4551, 362.1544
323.3836, 353.4767
325.3120, 347.9983
327.2405, 345.8750
329.1690, 347.8321
331.0974, 350.9975
333.0259, 355.7198
334.9544, 361.5196
336.8829, 368.0415
338.8113, 376.5628
340.7398, 383.5730
342.6683, 388.6923
344.5967, 391.6341
346.5252, 391.8094
348.4537, 386.4888
350.3821, 380.2588
352.3106, 375.8365
354.2391, 372.6964
356.1675, 372.7811
358.0960, 376.2847
360.0245, 383.4890
361.9529, 393.4959
363.8814, 406.3987
365.8099, 422.3895
367.7383, 441.3607
369.6668, 464.7324
371.5953, 489.0923
373.5237, 520.4631
375.4522, 550.9330
377.3807, 570.3743
379.3091, 579.6111
381.2376, 574.3295
383.1661, 551.9730
385.0945, 508.3255
387.0230, 462.8783
388.9515, 410.8744
390.8799, 360.1215
392.8084, 316.0018
394.7369, 279.1279
396.6653, 248.9892
398.5938, 226.0416
400.5223, 210.2653
402.4507, 197.0912
404.3792, 186.9142
406.3077, 178.9673
408.2361, 172.6379
410.1646, 168.3987
412.0931, 164.7494
414.0215, 161.2662
415.9500, 158.3041
417.8785, 156.3716
419.8069, 155.4700
421.7354, 155.5869
423.6639, 157.2334
425.5923, 161.1305
427.5208, 162.5846
429.4493, 159.6044
431.3777, 155.6174
433.3062, 153.5297
435.2347, 153.7335
437.1631, 154.3230
439.0916, 155.0286
441.0201, 155.7713
442.9485, 156.1404
444.8770, 156.1617
446.8055, 155.8772
448.7339, 154.9529
450.6624, 153.3195
452.5909, 152.6642
454.5193, 154.2164
456.4478, 156.4359
458.3763, 157.4590
460.3047, 156.5571
462.2332, 155.9242
464.1617, 156.1930
466.0901, 157.1514
468.0186, 158.3226
469.9471, 159.7540
471.8755, 161.2964
473.8040, 162.8627
475.7325, 164.4186
477.6609, 166.1930
479.5894, 168.5189
481.5179, 170.9865
483.4464, 173.1369
485.3748, 174.3058
487.3033, 175.9764
489.2318, 178.5676
491.1602, 181.9572
493.0887, 185.3320
495.0172, 188.9459
496.9456, 192.2176
498.8741, 194.9571
500.8026, 197.2222
502.7310, 198.6027
504.6595, 198.5083
506.5880, 197.7863
508.5164, 197.2735
510.4449, 196.7358
512.3734, 196.9669
514.3018, 198.4647
516.2303, 201.0018
518.1588, 203.1777
520.0872, 205.2558
522.0157, 206.8315
523.9442, 207.9610
525.8726, 208.7327
527.8011, 208.0770
529.7296, 205.1317
531.6580, 201.1228
533.5865, 196.8056
535.5150, 191.4578
537.4434, 187.2024
539.3719, 184.9075
541.3004, 183.8904
543.2288, 182.9252
545.1573, 181.4008
547.0858, 180.6093
549.0142, 181.1255
550.9427, 183.0354
552.8712, 184.7693
554.7996, 187.1097
556.7281, 188.4951
558.6566, 188.1111
560.5850, 185.5792
562.5135, 182.5740
564.4420, 179.0141
566.3704, 175.2899
568.2989, 171.9057
570.2274, 168.7624
572.1558, 166.1136
574.0843, 164.0923
576.0128, 162.6106
577.9412, 161.5746
579.8697, 161.3608
581.7982, 161.2112
583.7267, 160.7049
585.6552, 159.8836
587.5836, 159.6799
589.5121, 160.4125
591.4406, 161.6405
593.3690, 163.0599
595.2975, 164.6338
597.2260, 166.5387
599.1544, 168.4490
601.0829, 170.8237
603.0114, 174.1059
604.9398, 178.0420
606.8683, 183.4243
608.7968, 190.5956
610.7252, 199.3034
612.6537, 209.1674
614.5822, 221.5108
616.5106, 233.5860
618.4391, 245.3275
620.3676, 256.4066
622.2960, 265.0459
624.2245, 269.5369
626.1530, 272.8208
628.0814, 275.9660
630.0099, 277.9783
631.9384, 282.7862
633.8668, 290.3104
635.7953, 300.5727
637.7238, 313.3892
639.6522, 328.5311
641.5807, 346.5243
643.5092, 367.8141
645.4376, 391.7935
647.3661, 417.6860
649.2946, 445.2088
651.2230, 475.0237
653.1515, 506.9513
655.0800, 541.4241
657.0084, 580.4211
658.9369, 632.9760
660.8654, 676.5619
662.7938, 708.2480
664.7223, 727.7648
666.6508, 720.9625
668.5792, 676.2529
670.5077, 618.4434
672.4362, 554.2197
674.3646, 483.7769
676.2931, 421.6028
678.2216, 371.4516
680.1500, 329.8146
682.0785, 295.8306
684.0070, 271.7979
685.9354, 252.1791
687.8639, 238.3865
689.7924, 228.7159
691.7208, 221.2986
693.6493, 216.6530
695.5778, 212.6717
697.5062, 208.5068
699.4347, 204.7241
701.3632, 202.4729
703.2916, 203.3913
705.2201, 203.5305
707.1486, 201.3897
709.0770, 198.0974
711.0055, 195.9438
712.9340, 195.7884
714.8624, 195.6330
716.7909, 194.7610
718.7194, 193.2515
720.6478, 191.9919
722.5763, 190.9120
724.5048, 190.0774
726.4332, 189.5443
728.3617, 189.2743
730.2902, 189.2293
732.2186, 189.7468
734.1471, 190.1559
736.0756, 190.1046
738.0040, 189.4815
739.9325, 189.1129
741.8610, 189.0271
743.7894, 189.1973
745.7179, 189.6968
747.6464, 190.5298
749.5748, 191.3110
751.5033, 191.9819
753.4318, 192.5527
755.3602, 192.9888
757.2887, 193.1596
759.2172, 193.4163
761.1456, 193.9223
763.0741, 194.3857
765.0026, 194.5306
766.9310, 194.3095
768.8595, 194.1328
770.7880, 194.3939
772.7164, 194.6194
774.6449, 194.2946
776.5734, 192.5369
778.5018, 191.5816
780.4303, 192.1962
782.3588, 193.3337
784.2872, 193.6812
786.2157, 192.9805
788.1442, 192.3598
790.0726, 192.0013
792.0011, 191.9090
793.9296, 192.1231
795.8580, 193.2597
797.7865, 193.9324
799.7150, 193.4767
801.6434, 192.6918
803.5719, 192.8572
805.5004, 194.3153
807.4288, 195.7732
809.3573, 196.9125
811.2858, 197.8054
813.2142, 198.5655
815.1427, 198.9752
817.0712, 199.5188
818.9996, 200.4833
820.9281, 201.5508
822.8566, 202.0384
824.7850, 201.5817
826.7135, 201.4522
828.6420, 202.3580
830.5704, 203.7933
832.4989, 204.8007
834.4274, 204.5757
836.3558, 204.8916
838.2843, 206.1425
840.2128, 208.0791
842.1412, 210.1128
844.0697, 212.1922
845.9982, 214.5268
847.9266, 217.3120
849.8551, 220.3666
851.7836, 223.4072
853.7120, 226.8220
855.6405, 229.5786
857.5690, 231.9181
859.4974, 233.4105
861.4259, 233.0391
863.3544, 230.3010
865.2828, 227.3543
867.2113, 224.3458
869.1398, 221.6758
871.0682, 219.9753
872.9967, 219.5562
874.9252, 219.5866
876.8536, 220.0974
878.7821, 220.8696
880.7106, 221.5638
882.6390, 222.1444
884.5675, 222.7331
886.4960, 223.6115
888.4244, 224.3932
890.3529, 224.6092
892.2814, 224.0511
894.2098, 223.6625
896.1383, 223.7044
898.0668, 223.9492
899.9952, 224.1500
901.9237, 224.2002
903.8522, 224.3666
905.7806, 225.0946
907.7091, 225.6016
909.6376, 225.0426
911.5660, 223.2923
913.4946, 221.8567
915.4230, 221.3298
917.3515, 221.0623
919.2800, 220.7231
921.2084, 220.3807
923.1369, 219.8137
925.0654, 218.8022
926.9938, 217.7815
928.9223, 216.8808
930.8508, 216.1052
932.7792, 215.8917
934.7077, 216.4506
936.6362, 217.3940
938.5646, 218.6270
940.4931, 220.1684
942.4216, 221.4087
944.3500, 221.8256
946.2785, 222.5031
948.2070, 223.6639
950.1354, 225.4007
952.0639, 227.7813
953.9924, 230.0956
955.9208, 234.2465
957.8493, 240.4275
959.7778, 248.9804
961.7062, 261.1861
963.6347, 277.1126
965.5632, 297.0575
967.4916, 323.6353
969.4201, 353.3852
971.3486, 380.4029
973.2770, 406.0015
975.2055, 426.3638
977.1340, 438.9921
979.0624, 446.8540
980.9909, 451.7332
982.9194, 452.2615
984.8478, 458.0121
986.7763, 469.1337
988.7048, 487.7016
990.6332, 515.7689
992.5617, 554.7286
994.4902, 599.4152
996.4186, 649.0449
998.3471, 704.4637
1000.276, 767.1677
1002.204, 836.4907
1004.133, 908.3957
1006.061, 980.2278
1007.989, 1058.842
1009.918, 1157.761
1011.846, 1268.599
1013.775, 1352.815
1015.703, 1430.336
1017.632, 1450.957
1019.560, 1386.574
1021.489, 1263.597
1023.417, 1126.683
1025.346, 964.9080
1027.274, 821.0156
1029.203, 704.2654
1031.131, 610.4907
1033.059, 535.8636
1034.988, 481.8712
1036.916, 437.2490
1038.845, 404.0422
1040.773, 376.6127
1042.702, 352.7147
1044.630, 332.3926
1046.559, 315.6427
1048.487, 303.9619
1050.416, 293.8706
1052.344, 284.0337
1054.273, 274.8479
1056.201, 267.5182
1058.130, 262.5843
1060.058, 258.2210
1061.986, 253.5669
1063.915, 249.1761
1065.843, 246.0033
1067.772, 244.7424
1069.700, 243.2039
1071.629, 240.9825
1073.557, 238.6205
1075.486, 236.5734
1077.414, 234.9003
1079.343, 233.2414
1081.271, 231.4389
1083.200, 229.8312
1085.128, 228.6724
1087.057, 227.8375
1088.985, 226.9419
1090.914, 225.8353
1092.842, 224.8388
1094.771, 224.0741
1096.699, 223.4541
1098.627, 222.8372
1100.556, 222.2623
1102.484, 221.6691
1104.413, 221.2278
1106.341, 220.6826
1108.270, 219.6658
1110.198, 218.2005
1112.127, 217.0766
1114.055, 216.5509
1115.984, 216.1368
1117.912, 215.6765
1119.841, 215.1290
1121.769, 214.3155
1123.698, 213.0347
1125.626, 211.7925
1127.554, 210.6666
1129.483, 209.6574
1131.411, 208.7876
1133.340, 208.1470
1135.268, 207.4606
1137.197, 206.6853
1139.125, 205.8969
1141.054, 205.1844
1142.982, 204.5140
1144.911, 203.6665
1146.839, 202.4058
1148.768, 201.3349
1150.696, 200.7384
1152.625, 200.4715
1154.553, 200.2523
1156.481, 200.0905
1158.410, 199.9867
1160.338, 199.9602
1162.267, 199.9714
1164.195, 199.9164
1166.124, 199.7428
1168.052, 199.9173
1169.981, 200.9529
1171.909, 201.7130
1173.838, 201.5715
1175.766, 200.8670
1177.695, 200.2723
1179.623, 199.8461
1181.552, 199.5270
1183.480, 199.1907
1185.408, 199.0704
1187.337, 199.4486
1189.265, 200.5019
1191.194, 201.1889
1193.122, 201.2865
1195.051, 201.1965
1196.979, 200.8455
1198.908, 200.3786
1200.836, 200.3828
1202.765, 201.0796
1204.693, 201.6662
1206.622, 202.0688
1208.550, 202.2504
1210.479, 202.0417
1212.407, 201.4825
1214.335, 201.3366
1216.264, 201.9883
1218.192, 202.6774
1220.121, 203.2250
1222.049, 203.5790
1223.978, 203.5388
1225.906, 202.4390
1227.835, 202.1143
1229.763, 203.5395
1231.692, 205.0674
1233.620, 205.1656
1235.549, 203.7188
1237.477, 203.1047
1239.406, 203.9183
1241.334, 204.7502
1243.262, 205.3626
1245.191, 205.6303
1247.119, 205.1772
1249.048, 203.8062
1250.976, 203.1135
1252.905, 203.8980
1254.833, 204.9455
1256.762, 205.7101
1258.690, 206.1626
1260.619, 206.1396
1262.547, 205.0005
1264.476, 204.2993
1266.404, 204.5917
1268.333, 205.2811
1270.261, 205.7430
1272.189, 205.9584
1274.118, 206.0918
1276.046, 205.9577
1277.975, 205.9108
1279.903, 206.1098
1281.832, 206.4365
1283.760, 206.5844
1285.689, 206.4057
1287.617, 206.7237
1289.546, 208.5632
1291.474, 210.1504
1293.403, 210.3743
1295.331, 209.3937
1297.260, 208.1924
1299.188, 206.1811
1301.116, 205.1203
1303.045, 205.9326
1304.973, 207.4137
1306.902, 208.2337
1308.830, 208.1313
1310.759, 208.3497
1312.687, 209.2845
1314.616, 210.0039
1316.544, 210.1117
1318.473, 209.8453
1320.401, 209.5752
1322.330, 209.2481
1324.258, 209.3549
1326.187, 210.4281
1328.115, 211.4720
1330.043, 211.8518
1331.972, 211.7661
1333.900, 211.6644
1335.829, 211.5407
1337.757, 211.4797
1339.686, 211.5193
1341.614, 211.6320
1343.543, 211.8130
1345.471, 212.0638
1347.400, 212.3370
1349.328, 212.3768
1351.257, 212.7688
1353.185, 214.1189
1355.114, 215.4759
1357.042, 215.7392
1358.970, 214.7117
1360.899, 213.9855
1362.827, 213.7885
1364.756, 213.6268
1366.684, 213.2837
1368.613, 212.9903
1370.541, 213.2295
1372.470, 214.0527
1374.398, 214.3291
1376.327, 213.4296
1378.255, 212.6649
1380.184, 212.9516
1382.112, 213.6140
1384.041, 213.4303
1385.969, 212.1571
1387.897, 211.6532
1389.826, 213.1109
1391.754, 214.3089
1393.683, 213.9576
1395.611, 212.7036
1397.540, 212.2426
1399.468, 213.0244
1401.397, 213.4988
1403.325, 213.1978
1405.254, 212.9567
1407.182, 213.3697
1409.111, 214.1634
1411.039, 214.3967
1412.968, 213.5308
1414.896, 213.1631
1416.824, 214.0884
1418.753, 214.8490
1420.681, 214.2948
1422.610, 212.9232
1424.538, 212.4164
1426.467, 212.9992
1428.395, 213.5981
1430.324, 213.9715
1432.252, 214.2890
1434.181, 214.6205
1436.109, 214.9319
1438.038, 215.1617
1439.966, 215.2564
1441.895, 215.4017
1443.823, 215.7743
1445.751, 216.0696
1447.680, 216.1527
1449.608, 216.0550
1451.537, 215.8229
1453.465, 215.4166
1455.394, 215.0703
1457.322, 214.7784
1459.251, 214.6140
1461.179, 214.5881
1463.108, 214.7155
1465.036, 215.0591
1466.965, 215.7142
1468.893, 216.3891
1470.822, 217.1938
1472.750, 217.8609
1474.678, 218.2784
1476.607, 218.4367
1478.535, 218.2831
1480.464, 217.6228
1482.392, 217.1595
1484.321, 217.1293
1486.249, 217.0949
1488.178, 216.8649
1490.106, 216.5324
1492.035, 216.1776
1493.963, 215.7491
1495.892, 215.8273
1497.820, 216.8701
1499.749, 217.8494
1501.677, 218.2416
1503.605, 218.3248
1505.534, 218.4520
1507.462, 218.6086
1509.391, 218.7437
1511.319, 218.8189
1513.248, 218.9263
1515.176, 219.4247
1517.105, 219.7508
1519.033, 219.1145
1520.962, 217.6460
1522.890, 216.8261
1524.819, 216.9496
1526.747, 217.2976
1528.676, 217.9439
1530.604, 218.4949
1532.532, 218.5296
1534.461, 218.1425
1536.389, 218.2046
1538.318, 218.9695
1540.246, 219.5609
1542.175, 219.8806
1544.103, 219.9575
1546.032, 219.6474
1547.960, 219.1243
1549.889, 218.8717
1551.817, 218.9692
1553.746, 219.1482
1555.674, 219.3184
1557.603, 219.6317
1559.531, 220.2692
1561.459, 220.9784
1563.388, 221.4312
1565.316, 221.6248
1567.245, 221.4794
1569.173, 220.6227
1571.102, 220.0093
1573.030, 219.9341
1574.959, 220.1407
1576.887, 220.5734
1578.816, 221.1718
1580.744, 221.3392
1582.673, 220.9360
1584.601, 220.4245
1586.530, 219.5587
1588.458, 218.8843
1590.386, 218.7414
1592.315, 218.9960
1594.243, 219.4431
1596.172, 220.1466
1598.100, 220.6605
1600.029, 220.7856
1601.957, 220.9947
1603.886, 221.5245
1605.814, 222.1304
1607.743, 222.6334
1609.671, 222.9643
1611.600, 222.7135
1613.528, 221.4665
1615.457, 220.8571
1617.385, 222.0553
1619.313, 223.2011
1621.242, 223.0059
1623.170, 222.0736
1625.099, 221.5022
1627.027, 221.3301
1628.956, 221.2023
1630.884, 220.9325
1632.813, 220.9674
1634.741, 222.0408
1636.670, 223.0461
1638.598, 222.7615
1640.527, 221.5149
1642.455, 220.7286
1644.384, 220.5429
1646.312, 220.5345
1648.240, 220.6619
1650.169, 220.8745
1652.097, 221.2717
1654.026, 221.6618
1655.954, 221.6976
1657.883, 221.3821
1659.811, 221.2085
1661.740, 221.3458
1663.668, 221.3067
1665.597, 220.7055
1667.525, 220.1394
1669.454, 220.1358
1671.382, 220.4905
1673.311, 220.5398
1675.239, 220.1972
1677.167, 220.3451
1679.096, 221.4788
1681.024, 222.4061
1682.953, 222.4469
1684.881, 222.1553
1686.810, 222.0450
1688.738, 222.0336
1690.667, 221.6693
1692.595, 220.8011
1694.524, 220.3205
1696.452, 220.5617
1698.381, 221.0586
1700.309, 221.7661
1702.238, 222.5228
1704.166, 223.2451
1706.094, 223.8766
1708.023, 223.8031
1709.951, 222.5767
1711.880, 221.9766
1713.808, 222.9223
1715.737, 223.8749
1717.665, 223.8747
1719.594, 223.4700
1721.522, 223.5647
1723.451, 224.1242
1725.379, 224.3993
1727.308, 224.3754
1729.236, 224.0572
1731.165, 223.2831
1733.093, 222.4976
1735.021, 221.7922
1736.950, 221.3385
1738.879, 221.5922
1740.807, 222.4971
1742.735, 222.7943
1744.664, 221.9435
1746.592, 221.6980
1748.521, 223.2092
1750.449, 224.5706
1752.378, 224.2891
1754.306, 223.3070
1756.235, 223.1176
1758.163, 223.6958
1760.092, 224.3801
1762.020, 225.2504
1763.949, 225.8471
1765.877, 226.0530
1767.806, 225.9536
1769.734, 225.2951
1771.662, 224.5230
1773.591, 224.3212
1775.519, 224.6189
1777.448, 224.7502
1779.376, 224.5572
1781.305, 224.6376
1783.233, 225.4902
1785.162, 226.1709
1787.090, 225.8530
1789.019, 225.3026
1790.947, 225.6752
1792.876, 226.7282
1794.804, 226.9313
1796.733, 225.8659
1798.661, 225.6195
1800.589, 227.4849
1802.518, 228.8803
1804.446, 228.0997
1806.375, 226.7739
1808.303, 226.6877
1810.232, 227.4777
1812.160, 227.6022
1814.089, 226.9056
1816.017, 226.4805
1817.946, 226.5154
1819.874, 226.7607
1821.803, 227.5210
1823.731, 228.1367
1825.660, 227.9292
1827.588, 227.2667
1829.516, 226.9986
1831.445, 227.1841
1833.373, 227.3482
1835.302, 227.4460
1837.230, 227.5473
1839.159, 227.5523
1841.087, 227.6426
1843.016, 227.9541
1844.944, 228.3578
1846.873, 228.6992
1848.801, 228.9804
1850.730, 229.2311
1852.658, 229.5468
1854.587, 229.6643
1856.515, 229.4579
1858.443, 229.2703
1860.372, 229.2648
1862.300, 229.2765
1864.229, 229.1284
1866.157, 228.9123
1868.086, 228.8690
1870.014, 229.0129
1871.943, 229.1029
1873.871, 228.9875
1875.800, 229.1082
1877.728, 229.8783
1879.657, 230.4669
1881.585, 230.1975
1883.514, 229.8231
1885.442, 230.4065
1887.370, 231.6140
1889.299, 231.9374
1891.227, 231.2374
1893.156, 230.8492
1895.084, 231.0278
1897.013, 231.2886
1898.941, 231.6126
1900.870, 231.8260
1902.798, 231.7786
1904.727, 231.6240
1906.655, 231.6024
1908.584, 231.6738
1910.512, 231.5596
1912.441, 231.2177
1914.369, 230.7753
1916.297, 230.0149
1918.226, 229.4927
1920.154, 229.2996
1922.083, 229.4866
1924.011, 230.4390
1925.940, 231.6447
1927.868, 232.1432
1929.797, 231.9588
1931.725, 232.0026
1933.654, 232.5936
1935.582, 232.7139
1937.511, 231.7387
1939.439, 231.1195
1941.368, 231.6461
1943.296, 232.1971
1945.224, 231.9700
1947.153, 231.3368
1949.081, 230.7914
1951.010, 230.3634
1952.938, 230.6038
1954.867, 231.7903
1956.795, 232.3973
1958.724, 231.8163
1960.652, 231.4838
1962.581, 232.1888
1964.509, 232.8215
1966.438, 232.4398
1968.366, 231.7322
1970.295, 231.7171
1972.223, 232.1567
1974.151, 232.1025
1976.080, 231.5054
1978.008, 230.7572
1979.937, 229.6239
1981.865, 229.1370
1983.794, 230.1665
1985.722, 231.2324
1987.651, 231.4850
1989.579, 231.4643
1991.508, 231.6365
1993.436, 231.9962
1995.365, 232.7239
1997.293, 233.9706
1999.222, 234.4124
2001.150, 233.6118
2003.078, 232.8058
2005.007, 231.7375
2006.935, 231.1663
2008.864, 231.7076
2010.792, 232.4221
2012.721, 232.6240
2014.649, 232.5360
2016.578, 232.5991
2018.506, 232.7488
2020.435, 232.4352
2022.363, 231.5724
2024.292, 231.3890
2026.220, 232.4316
2028.149, 233.0831
2030.077, 232.3935
2032.005, 231.8661
2033.934, 232.7027
2035.862, 233.6124
2037.791, 232.9565
2039.719, 231.5396
2041.648, 231.4738
2043.576, 232.7722
2045.505, 233.1432
2047.433, 231.9895
2049.362, 231.2412
2051.290, 231.1098
2053.219, 231.1274
2055.147, 231.4165
2057.075, 231.6082
2059.004, 231.4116
2060.932, 231.1267
2062.861, 230.9826
2064.790, 231.0016
2066.718, 231.3934
2068.646, 232.0821
2070.575, 232.1797
2072.503, 231.5099
2074.432, 231.0547
2076.360, 230.9519
2078.289, 231.0886
2080.217, 231.9810
2082.146, 232.4192
2084.074, 231.2140
2086.003, 229.8448
2087.931, 229.9128
2089.860, 230.8371
2091.788, 231.3949
2093.717, 231.5962
2095.645, 231.5445
2097.573, 231.0553
2099.502, 230.8692
2101.430, 231.1459
2103.359, 231.4148
2105.287, 231.5316
2107.216, 231.7236
2109.144, 232.2097
2111.073, 232.6631
2113.001, 232.7020
2114.930, 232.6574
2116.858, 233.1896
2118.787, 233.9903
2120.715, 233.9290
2122.644, 232.9561
2124.572, 232.2589
2126.500, 232.0138
2128.429, 231.7134
2130.357, 231.3076
2132.286, 230.8645
2134.214, 230.2028
2136.143, 229.7871
2138.071, 230.0385
2140.000, 230.4760
2141.928, 230.6733
2143.857, 230.7386
2145.785, 230.9305
2147.714, 231.1705
2149.642, 230.8865
2151.571, 230.0498
2153.499, 230.1935
2155.427, 231.7787
2157.356, 232.8707
2159.284, 232.7990
2161.213, 232.6962
2163.141, 233.3135
2165.070, 233.4524
2166.998, 231.9123
2168.927, 230.2057
2170.855, 229.9816
2172.784, 230.4673
2174.712, 230.1551
2176.641, 229.2771
2178.569, 229.1297
2180.498, 229.7204
2182.426, 230.6512
2184.354, 232.0423
2186.283, 232.5566
2188.211, 231.4019
2190.140, 230.7934
2192.068, 231.9740
2193.997, 232.9996
2195.925, 232.9708
2197.854, 232.5912
2199.782, 232.2877
2201.711, 232.0394
2203.639, 231.7778
2205.568, 231.5483
2207.496, 231.5649
2209.425, 231.8030
2211.353, 231.4590
2213.281, 230.4496
2215.210, 229.8705
2217.138, 229.9011
2219.067, 229.9973
2220.995, 230.2000
2222.924, 230.1594
2224.852, 229.4055
2226.781, 228.8699
2228.709, 228.8513
2230.638, 229.3469
2232.566, 230.9877
2234.495, 232.6212
2236.423, 232.3395
2238.352, 230.9294
2240.280, 230.6636
2242.208, 231.4039
2244.137, 231.6281
2246.065, 231.3216
2247.994, 231.1995
2249.922, 231.3956
2251.851, 231.4105
2253.779, 230.9193
2255.708, 230.8165
2257.636, 231.8636
2259.565, 232.5686
2261.493, 231.9902
2263.422, 231.3648
2265.350, 231.5141
2267.279, 231.9269
2269.207, 232.1082
2271.135, 232.1964
2273.064, 232.5122
2274.992, 232.9023
2276.921, 232.8167
2278.849, 232.3305
2280.778, 232.1990
2282.706, 232.5165
2284.635, 232.5210
2286.563, 231.9249
2288.492, 231.6557
2290.420, 231.9368
2292.349, 232.3514
2294.277, 233.1080
2296.206, 233.5929
2298.134, 233.2878
2300.063, 233.0459
2301.991, 233.4707
2303.919, 233.9647
2305.848, 234.1048
2307.776, 233.9708
2309.705, 233.5246
2311.633, 232.9381
2313.562, 232.5612
2315.490, 232.4015
2317.419, 232.5120
2319.347, 232.8503
2321.276, 233.9040
2323.204, 235.9675
2325.133, 237.2108
2327.061, 237.5458
2328.990, 236.8927
2330.918, 234.6477
2332.846, 233.0916
2334.775, 233.1231
2336.703, 233.6584
2338.632, 234.9250
2340.560, 235.7214
2342.489, 235.2649
2344.417, 234.1404
2346.346, 232.1383
2348.274, 230.3275
2350.203, 230.1178
2352.131, 230.9967
2354.060, 232.3674
2355.988, 233.9158
2357.917, 234.7631
2359.845, 234.9140
2361.773, 234.5167
2363.702, 233.5629
2365.630, 232.1811
2367.559, 229.6054
2369.487, 228.6960
2371.416, 230.1933
2373.344, 231.3607
2375.273, 231.7763
2377.201, 232.0137
2379.130, 232.1635
2381.058, 232.2492
2382.987, 232.3970
2384.915, 232.3268
2386.844, 231.5804
2388.772, 230.9711
2390.700, 231.1506
2392.629, 231.6890
2394.557, 232.4954
2396.486, 233.1232
2398.414, 232.4975
2400.343, 231.4117
2402.271, 231.8021
2404.200, 233.0582
2406.128, 233.0534
2408.057, 231.9602
2409.985, 231.9437
2411.914, 233.2331
2413.842, 233.4464
2415.771, 232.2493
2417.699, 231.6704
2419.627, 231.9413
2421.556, 232.1063
2423.484, 232.0162
2425.413, 231.8533
2427.341, 231.5185
2429.270, 231.3593
2431.198, 231.4715
2433.127, 231.7604
2435.055, 232.3749
2436.984, 232.9216
2438.912, 233.4982
2440.841, 233.5980
2442.769, 232.2167
2444.698, 231.0082
2446.626, 231.7491
2448.554, 232.8105
2450.483, 232.2823
2452.411, 231.1409
2454.340, 230.6913
2456.268, 230.8371
2458.197, 231.6178
2460.125, 232.7577
2462.054, 233.1004
2463.982, 232.7939
2465.911, 232.4983
2467.839, 232.2294
2469.768, 232.3786
2471.696, 233.0016
2473.625, 232.9376
2475.553, 231.7490
2477.481, 231.4128
2479.410, 232.3491
2481.338, 232.8454
2483.267, 232.7257
2485.195, 232.5182
2487.124, 232.1782
2489.052, 232.2007
2490.981, 233.0475
2492.909, 233.5678
2494.838, 233.1485
2496.766, 232.7862
2498.695, 232.9591
2500.623, 233.0188
2502.552, 232.6501
2504.480, 232.2558
2506.408, 231.9274
2508.337, 231.8022
2510.265, 232.2591
2512.194, 232.6016
2514.122, 231.8853
2516.051, 231.1248
2517.979, 231.6379
2519.908, 232.4987
2521.836, 232.4719
2523.765, 232.0908
2525.693, 232.2122
2527.622, 232.5425
2529.550, 232.5699
2531.479, 232.3556
2533.407, 231.8561
2535.335, 231.2642
2537.264, 231.5346
2539.192, 232.5373
2541.121, 233.3224
2543.049, 233.8886
2544.978, 234.2539
2546.906, 234.4019
2548.835, 234.0384
2550.763, 233.0449
2552.692, 232.4923
2554.620, 232.5362
2556.549, 232.3148
2558.477, 231.7735
2560.406, 231.3903
2562.334, 231.2067
2564.262, 231.3709
2566.191, 232.1485
2568.119, 232.4227
2570.048, 231.3017
2571.976, 231.0640
2573.905, 232.4474
2575.833, 233.2075
2577.762, 232.6750
2579.690, 232.4895
2581.619, 233.2996
2583.547, 233.8923
2585.476, 233.7524
2587.404, 233.5708
2589.333, 233.6288
2591.261, 233.5704
2593.189, 233.0334
2595.118, 232.8715
2597.046, 233.6938
2598.975, 234.4287
2600.903, 234.4102
2602.832, 234.3062
2604.760, 234.5311
2606.689, 234.5924
2608.617, 234.0116
2610.546, 233.3970
2612.474, 233.0744
2614.403, 232.9581
2616.331, 233.2038
2618.260, 233.4603
2620.188, 233.3304
2622.116, 233.2773
2624.045, 233.8528
2625.973, 234.5029
2627.902, 234.7666
2629.830, 234.7143
2631.759, 234.1105
2633.687, 233.5155
2635.616, 233.4448
2637.544, 233.7845
2639.473, 234.7839
2641.401, 235.7768
2643.330, 235.8586
2645.258, 235.4394
2647.187, 235.0209
2649.115, 234.5501
2651.043, 233.6252
2652.972, 232.8549
2654.900, 233.5621
2656.829, 234.8420
2658.757, 235.1166
2660.686, 234.7195
2662.614, 233.9561
2664.543, 233.2292
2666.471, 233.4937
2668.400, 234.2049
2670.328, 234.3199
2672.257, 233.9892
2674.185, 233.0877
2676.114, 232.2282
2678.042, 233.7497
2679.970, 236.1279
2681.899, 235.3764
2683.827, 232.9503
2685.756, 232.4617
2687.684, 233.1968
2689.613, 232.9782
2691.541, 232.3139
2693.470, 232.9604
2695.398, 234.3239
2697.327, 234.8525
2699.255, 234.8099
2701.184, 234.9273
2703.112, 235.1198
2705.041, 235.2366
2706.969, 235.1939
2708.897, 234.4055
2710.826, 233.3291
2712.754, 233.3039
2714.683, 233.9678
2716.611, 234.4935
2718.540, 234.8006
2720.468, 234.5469
2722.397, 233.9029
2724.325, 233.1699
2726.254, 232.5950
2728.182, 232.9956
2730.111, 233.9463
2732.039, 234.4256
2733.968, 234.5237
2735.896, 234.2308
2737.824, 233.8656
2739.753, 234.5085
2741.681, 235.6001
2743.610, 235.8796
2745.538, 235.7050
2747.467, 235.8189
2749.395, 236.1295
2751.324, 236.7028
2753.252, 237.1711
2755.181, 236.5473
2757.109, 235.4716
2759.038, 234.7741
2760.966, 234.5749
2762.895, 235.6175
2764.823, 236.8717
2766.751, 236.2690
2768.680, 234.9835
2770.608, 234.6523
2772.537, 234.7916
2774.465, 234.8676
2776.394, 234.9405
2778.322, 235.1770
2780.251, 235.3738
2782.179, 235.2949
2784.108, 235.0000
2786.036, 234.1447
2787.965, 233.5561
2789.893, 234.6219
2791.822, 235.7887
2793.750, 235.5811
2795.678, 234.7862
2797.607, 233.1854
2799.535, 232.3687
2801.464, 234.5084
2803.392, 236.5913
2805.321, 236.2210
2807.249, 235.2697
2809.178, 234.7814
2811.106, 234.2917
2813.035, 233.3931
2814.963, 232.7114
2816.892, 232.4223
2818.820, 232.6678
2820.749, 234.1902
2822.677, 235.1042
2824.605, 234.4495
2826.534, 233.7204
2828.462, 233.3357
2830.391, 233.2510
2832.319, 233.5410
2834.248, 234.0549
2836.176, 235.0134
2838.105, 235.5280
2840.033, 235.2393
2841.962, 235.0312
2843.890, 235.4914
2845.819, 235.2283
2847.747, 233.7663
2849.676, 233.0699
2851.604, 233.4602
2853.532, 233.7023
2855.461, 233.5421
2857.389, 233.5204
2859.318, 233.6805
2861.246, 233.8277
2863.175, 233.9606
2865.103, 234.1270
2867.032, 234.3382
2868.960, 234.9410
2870.889, 235.9041
2872.817, 235.7695
2874.746, 234.7362
2876.674, 234.3376
2878.603, 234.4236
2880.531, 234.3990
2882.459, 234.2879
2884.388, 234.2462
2886.316, 234.1736
2888.245, 233.4744
2890.173, 232.8710
2892.102, 233.9879
2894.030, 235.5017
2895.959, 235.3988
2897.887, 234.7939
2899.816, 234.9190
2901.744, 235.2585
2903.673, 235.3186
2905.601, 235.3998
2907.530, 235.9829
2909.458, 236.2650
2911.386, 235.4880
2913.315, 234.6689
2915.243, 234.2767
2917.172, 233.9470
2919.100, 233.4429
2921.029, 233.1894
2922.957, 233.3230
2924.886, 233.7415
2926.814, 234.5627
2928.743, 235.0438
2930.671, 234.9298
2932.600, 234.5997
2934.528, 233.8730
2936.457, 233.7822
2938.385, 234.4193
2940.313, 234.8860
2942.242, 235.1306
2944.170, 234.4831
2946.099, 233.0066
2948.027, 232.5941
2949.956, 232.9929
2951.884, 232.6975
2953.813, 232.1550
2955.741, 232.8858
2957.670, 234.2545
2959.598, 234.9615
2961.527, 235.2313
2963.455, 235.2987
2965.384, 235.2419
2967.312, 235.1293
2969.240, 234.9647
2971.169, 234.7579
2973.097, 234.5573
2975.026, 234.5556
2976.954, 234.3310
2978.883, 233.5871
2980.811, 232.7092
2982.740, 231.3312
2984.668, 230.8891
2986.597, 232.0819
2988.525, 232.5371
2990.454, 231.2342
2992.382, 230.8289
2994.311, 231.8074
2996.239, 232.1051
2998.167, 231.6472
3000.096, 231.4386
3002.024, 231.5108
3003.953, 231.8135
3005.881, 232.2459
3007.810, 232.1163
3009.738, 231.8923
3011.667, 233.2813
3013.595, 234.9981
3015.524, 234.7652
3017.452, 233.7097
3019.381, 232.8837
3021.309, 232.3420
3023.238, 232.1242
3025.166, 232.1845
3027.094, 232.9469
3029.023, 233.1402
3030.951, 231.8379
3032.880, 231.0852
3034.808, 231.9405
3036.737, 232.3338
3038.665, 231.4463
3040.594, 231.3875
3042.522, 232.3811
3044.451, 232.6720
3046.379, 232.0641
3048.308, 231.9414
3050.236, 232.2604
3052.165, 232.3346
3054.093, 232.2021
3056.021, 231.7601
3057.950, 231.3847
3059.878, 232.0389
3061.807, 232.9328
3063.735, 233.0275
3065.664, 232.8623
3067.592, 232.8100
3069.521, 232.7154
3071.449, 232.3713
3073.378, 232.1791
3075.306, 232.4321
3077.235, 232.3519
3079.163, 231.5564
3081.092, 230.7674
3083.020, 229.8820
3084.948, 230.0310
3086.877, 231.2551
3088.805, 231.5065
3090.734, 230.8182
3092.662, 230.5816
3094.591, 230.6805
3096.519, 230.6356
3098.448, 230.6439
3100.376, 231.2046
3102.305, 231.8234
3104.233, 232.1288
3106.162, 231.9496
3108.090, 230.7485
3110.019, 229.8860
3111.947, 230.6008
3113.875, 230.6797
3115.804, 228.9622
3117.732, 228.6625
3119.661, 230.7047
3121.589, 231.3391
3123.518, 229.7766
3125.446, 229.9369
3127.375, 231.4653
3129.303, 230.8739
3131.232, 229.1793
3133.160, 229.9064
3135.089, 231.5528
3137.017, 231.5130
3138.946, 230.8319
3140.874, 230.2939
3142.802, 229.8577
3144.731, 229.2785
3146.659, 229.2304
3148.588, 230.2909
3150.516, 230.7042
3152.445, 229.5325
3154.373, 228.9207
3156.302, 229.0935
3158.230, 228.9455
3160.159, 228.4920
3162.087, 228.3340
3164.016, 228.4314
3165.944, 228.6038
3167.873, 228.8492
3169.801, 229.2623
3171.729, 229.6271
3173.658, 229.6999
3175.586, 229.6839
3177.515, 229.6343
3179.443, 229.6732
3181.372, 229.9864
3183.300, 229.9597
3185.229, 229.1684
3187.157, 229.1144
3189.086, 229.8607
3191.014, 229.9947
3192.943, 229.5228
3194.871, 228.8397
3196.800, 228.1467
3198.728, 228.0600
3200.656, 228.2184
3202.585, 228.3757
3204.513, 228.2899
3206.442, 227.2324
3208.370, 226.7918
3210.299, 228.1715
3212.227, 228.8876
3214.156, 227.9062
3216.084, 227.5841
3218.013, 228.0838
3219.941, 228.1418
3221.870, 227.7385
3223.798, 227.1170
3225.727, 226.5049
3227.655, 226.6370
3229.583, 227.0791
3231.512, 227.4145
3233.440, 227.6944
3235.369, 228.2351
3237.297, 228.2024
3239.226, 226.7399
3241.154, 226.0853
3243.083, 227.0448
3245.011, 227.4184
3246.940, 227.1072
3248.868, 226.3192
3250.797, 225.3951
3252.725, 226.4886
3254.654, 228.3369
3256.582, 228.6755
3258.510, 228.2769
3260.439, 227.1553
3262.367, 226.7590
3264.296, 228.2638
3266.224, 229.2666
3268.153, 228.8405
3270.081, 228.2741
3272.010, 227.6211
3273.938, 227.0746
3275.867, 226.6930
3277.795, 227.0377
3279.724, 227.5849
3281.652, 226.7088
3283.581, 225.7946
3285.509, 226.7440
3287.438, 227.4434
3289.366, 225.9529
3291.294, 225.3167
3293.223, 226.5517
3295.151, 227.0844
3297.080, 226.1683
3299.008, 226.7290
3300.937, 228.3248
3302.865, 227.7302
3304.794, 226.1587
3306.722, 226.3195
3308.651, 226.6808
3310.579, 225.1861
3312.508, 224.2224
3314.436, 225.6835
3316.365, 226.7374
3318.293, 226.8033
3320.221, 226.8721
3322.150, 227.0667
3324.078, 226.7553
3326.007, 226.1023
3327.935, 226.1370
3329.864, 226.2656
3331.792, 225.1923
3333.721, 224.3546
3335.649, 225.5230
3337.578, 226.0967
3339.506, 224.6579
3341.435, 223.9196
3343.363, 224.4147
3345.292, 224.6679
3347.220, 224.6885
3349.148, 225.0629
3351.077, 225.4221
3353.005, 224.3078
3354.934, 223.3761
3356.862, 224.6278
3358.791, 225.8697
3360.719, 226.0673
3362.648, 225.7501
3364.576, 224.8320
3366.505, 224.6681
3368.433, 225.3532
3370.362, 225.1781
3372.290, 224.6751
3374.219, 225.7270
3376.147, 226.7073
3378.075, 225.0404
3380.004, 223.6115
3381.933, 224.0119
3383.861, 224.5771
3385.790, 225.0297
3387.718, 225.1634
3389.646, 224.9950
3391.575, 224.8858
3393.503, 224.6792
3395.432, 223.2793
3397.360, 222.2212
3399.289, 223.6301
3401.217, 225.0197
3403.146, 225.0561
3405.074, 224.5379
3407.003, 223.4281
3408.931, 223.1061
3410.860, 223.6325
3412.788, 223.3863
3414.717, 222.8359
3416.645, 222.9359
3418.573, 223.3687
3420.502, 224.0962
3422.430, 224.5337
3424.359, 224.4145
3426.287, 223.9900
3428.216, 223.1513
3430.144, 223.1185
3432.073, 223.7065
3434.001, 223.7260
3435.930, 223.4580
3437.858, 223.3032
3439.787, 223.2680
3441.715, 223.4793
3443.644, 223.5433
3445.572, 223.2888
3447.500, 223.2747
3449.429, 223.5544
3451.357, 223.1016
3453.286, 222.2642
3455.214, 222.3966
3457.143, 222.6103
3459.071, 221.8135
3461.000, 221.0174
3462.928, 220.4383
3464.857, 220.7579
3466.785, 222.6602
3468.714, 222.3467
3470.642, 220.3143
3472.571, 219.2936
3474.499, 219.2323
3476.427, 220.9758
3478.356, 222.2236
3480.284, 221.2419
3482.213, 220.7444
3484.141, 222.0286
3486.070, 222.1879
3487.998, 221.3753
3489.927, 221.1886
3491.855, 221.3507
3493.784, 221.2034
3495.712, 221.0917
3497.641, 221.4014
3499.569, 221.4517
3501.498, 220.9053
3503.426, 220.7710
3505.354, 221.0659
3507.283, 220.2776
3509.211, 219.1198
3511.140, 219.7180
3513.068, 220.5546
3514.997, 220.3633
3516.925, 220.1992
3518.854, 220.4164
3520.782, 220.3509
3522.711, 219.9068
3524.639, 220.4967
3526.568, 221.3793
3528.496, 220.5731
3530.425, 219.4823
3532.353, 219.2151
3534.281, 219.3963
3536.210, 220.1579
3538.138, 220.4068
3540.067, 220.0915
3541.995, 219.2309
3543.924, 218.2263
3545.852, 217.8771
3547.781, 217.7812
3549.709, 217.5889
3551.638, 217.5635
3553.566, 217.5458
3555.495, 218.5781
3557.423, 220.3534
3559.352, 220.1687
3561.280, 218.9812
3563.208, 218.4425
3565.137, 218.0099
3567.065, 217.1627
3568.994, 216.8414
3570.922, 217.3005
3572.851, 217.7384
3574.779, 217.9807
3576.708, 216.8930
3578.636, 215.8798
3580.565, 217.4749
3582.493, 218.7881
3584.422, 218.1677
3586.350, 216.9196
3588.279, 215.1636
3590.207, 215.6000
3592.135, 217.3133
3594.064, 217.0310
3595.992, 216.2891
3597.921, 216.5157
3599.849, 216.5902
3601.778, 216.1009
3603.706, 215.9545
3605.635, 216.1838
3607.563, 216.3068
3609.492, 216.1999
3611.420, 215.4100
3613.349, 214.8965
3615.277, 215.6296
3617.206, 215.7478
3619.134, 214.7866
3621.063, 215.4129
3622.991, 216.9452
3624.919, 215.8573
3626.848, 214.6437
3628.776, 216.1703
3630.705, 217.5652
3632.633, 218.0540
3634.562, 217.8575
3636.490, 217.0616
3638.419, 215.8740
3640.347, 214.9171
3642.276, 215.6161
3644.204, 216.0485
3646.133, 215.1778
3648.061, 214.5651
3649.990, 214.5161
3651.918, 214.7713
3653.846, 215.0825
3655.775, 214.5391
3657.703, 214.3430
3659.632, 215.9379
3661.560, 216.5554
3663.489, 214.7468
3665.417, 214.6716
3667.346, 215.7029
3669.274, 215.1362
3671.203, 214.3802
3673.131, 215.3866
3675.060, 215.9182
3676.988, 215.0239
3678.917, 214.2118
3680.845, 213.6126
3682.773, 213.9181
3684.702, 214.4192
3686.630, 213.9979
3688.559, 213.7436
3690.487, 214.3724
3692.416, 214.2095
3694.344, 213.2460
3696.273, 213.3050
3698.201, 213.6526
3700.130, 212.7450
3702.058, 212.1437
3703.987, 212.8274
3705.915, 213.0841
3707.844, 212.7389
3709.772, 212.8687
3711.700, 213.0603
3713.629, 212.3343
3715.557, 211.5804
3717.486, 211.1895
3719.414, 211.2357
3721.343, 211.7255
3723.271, 211.5528
3725.200, 211.0803
3727.128, 210.9947
3729.057, 211.1862
3730.985, 211.9060
3732.914, 211.7057
3734.842, 210.3365
3736.771, 209.6075
3738.699, 209.5396
3740.627, 210.3144
3742.556, 211.3615
3744.484, 212.8691
3746.413, 212.3724
3748.341, 209.3517
3750.270, 209.6086
3752.198, 211.4585
3754.127, 212.0254
3756.055, 211.7107
3757.984, 210.4515
3759.912, 209.7104
3761.841, 209.6910
3763.769, 209.3400
3765.698, 208.9230
3767.626, 208.8813
3769.554, 208.9825
3771.483, 209.1145
3773.411, 209.4357
3775.340, 209.9142
3777.268, 209.0632
3779.197, 208.0218
3781.125, 208.6755
3783.054, 209.1886
3784.982, 208.7778
3786.911, 208.7083
3788.839, 209.0016
3790.768, 208.9517
3792.696, 208.9219
3794.625, 209.5939
3796.553, 209.8870
3798.481, 209.5079
3800.410, 208.3820
3802.338, 206.9749
3804.267, 207.3297
3806.195, 208.2511
3808.124, 209.1722
3810.052, 209.2704
3811.981, 208.2219
3813.909, 208.5287
3815.838, 209.4676
3817.766, 209.4558
3819.695, 208.7928
3821.623, 207.3267
3823.552, 206.4267
3825.480, 206.2830
3827.408, 206.5274
3829.337, 206.7617
3831.265, 206.2356
3833.194, 205.9912
3835.122, 206.4013
3837.051, 207.1284
3838.979, 207.9342
3840.908, 207.4952
3842.836, 206.9810
3844.765, 207.7451
3846.693, 207.9348
3848.622, 207.2284
3850.550, 206.1155
3852.479, 205.2987
3854.407, 207.5006
3856.335, 208.7603
3858.264, 205.7902
3860.192, 204.0975
3862.121, 203.9933
3864.049, 205.4198
3865.978, 206.8062
3867.906, 206.0300
3869.835, 205.5739
3871.763, 206.4967
3873.692, 205.0535
3875.620, 202.8327
3877.549, 205.0284
3879.477, 207.1034
3881.406, 206.2148
3883.334, 205.8652
3885.262, 206.2639
3887.191, 205.5572
3889.119, 204.7336
3891.048, 205.0355
3892.976, 205.5616
3894.905, 206.1218
3896.833, 206.0624
3898.762, 205.5853
3900.690, 205.0947
3902.619, 204.5851
3904.547, 204.0387
3906.476, 203.6823
3908.404, 203.5572
3910.333, 203.6008
3912.261, 203.6535
3914.189, 203.3701
3916.118, 203.2867
3918.046, 203.6260
3919.975, 203.9166
3921.903, 203.7641
3923.832, 203.3291
3925.760, 203.1328
3927.689, 203.0310
3929.617, 202.8350
3931.546, 202.3824
3933.474, 202.7894
3935.403, 203.4890
3937.331, 203.1948
3939.260, 202.9987
3941.188, 203.3454
3943.116, 203.0923
3945.045, 202.7380
3946.973, 203.3111
3948.902, 203.5299
3950.830, 202.3106
3952.759, 202.0532
3954.687, 202.2830
3956.616, 200.7447
3958.544, 199.7302
3960.473, 200.3055
3962.401, 200.3519
3964.330, 200.2475
3966.258, 200.1275
3968.187, 199.5640
3970.115, 199.0955
3972.043, 199.9013
3973.972, 200.6229
3975.900, 199.9007
3977.829, 199.9106
3979.757, 200.2875
3981.686, 199.9044
3983.614, 198.9486
3985.543, 199.0884
3987.471, 199.8776
3989.400, 199.1909
3991.328, 198.4374
3993.257, 199.0676
3995.185, 199.6784
3997.114, 199.5971
3999.042, 199.2756
4000.970, 199.2939
4002.899, 198.7892
4004.827, 198.2093
4006.756, 198.6085
4008.684, 199.0116
4010.613, 198.5813
4012.541, 197.7792
4014.470, 197.5782
4016.398, 198.2038
4018.327, 199.0335
4020.255, 199.2683
4022.184, 198.6543
4024.112, 198.5669
4026.041, 198.8462
4027.969, 199.3794
4029.897, 198.9190
4031.826, 197.3385
4033.754, 197.4431
4035.683, 197.5824
4037.611, 196.5222
4039.540, 196.5690
4041.468, 197.5314
4043.397, 197.4605
4045.325, 196.9368
4047.254, 197.3202
4049.182, 197.3036
4051.111, 196.7397
4053.039, 195.9784
4054.968, 195.1225
4056.896, 195.5966
4058.824, 196.5260
4060.753, 196.7296
4062.681, 196.5522
4064.610, 196.7505
4066.538, 197.0774
4068.467, 196.7400
4070.395, 194.8902
4072.324, 194.2324
4074.252, 194.6441
4076.181, 195.1762
4078.109, 195.5662
4080.038, 195.3073
4081.966, 195.6511
4083.895, 195.7543
4085.823, 195.7451
4087.751, 196.2892
4089.680, 196.5342
4091.608, 196.3844
4093.537, 196.4472
4095.465, 196.2383
4097.394, 195.7468
4099.322, 195.6247
4101.251, 194.7250
4103.179, 193.1565
4105.108, 193.5790
4107.036, 194.3420
4108.965, 194.1119
4110.893, 194.3393
4112.822, 194.6917
4114.750, 194.4753
4116.679, 193.8852
4118.607, 192.3452
4120.536, 192.4361
4122.464, 193.8093
4124.393, 194.4048
4126.321, 194.2112
4128.250, 192.4239
4130.178, 192.3184
4132.106, 193.7145
4134.035, 193.4912
4135.963, 192.9734
4137.892, 193.0773
4139.820, 192.9398
4141.749, 192.4744
4143.677, 192.5848
4145.605, 192.6579
4147.534, 192.1722
4149.462, 191.8825
4151.391, 191.8117
4153.319, 192.0812
4155.248, 192.4818
4157.176, 193.1241
4159.105, 192.9352
4161.033, 191.9731
4162.962, 191.2946
4164.890, 190.8624
4166.819, 190.7910
4168.747, 190.3878
4170.676, 189.8041
4172.604, 190.1360
4174.533, 190.5909
4176.461, 190.4929
4178.390, 191.2527
4180.318, 192.2715
4182.247, 190.9821
4184.175, 189.5614
4186.104, 189.1278
4188.032, 188.9924
4189.960, 189.0764
4191.889, 189.7307
4193.817, 190.2577
4195.746, 190.3692
4197.674, 190.0655
4199.603, 189.4425
4201.531, 188.4932
4203.459, 187.8575
4205.388, 187.6065
4207.316, 188.2336
4209.245, 189.2042
4211.173, 189.5382
4213.102, 188.9140
4215.030, 187.1989
4216.959, 187.2998
4218.887, 187.8588
4220.816, 186.9578
4222.744, 186.1698
4224.673, 185.6719
4226.601, 186.4410
4228.530, 187.4608
4230.458, 187.5160
4232.387, 187.8283
4234.315, 188.4444
4236.244, 186.7738
4238.172, 185.1510
4240.101, 185.4149
4242.029, 185.8932
4243.958, 186.3233
4245.886, 186.2062
4247.814, 186.0435
4249.743, 186.0911
4251.671, 186.3489
4253.600, 186.4778
4255.528, 185.1811
4257.457, 184.5400
4259.385, 185.6005
4261.313, 185.6209
4263.242, 185.1382
4265.170, 184.8641
4267.099, 184.4956
4269.027, 183.9799
4270.956, 184.4175
4272.884, 184.7370
4274.813, 183.3827
4276.741, 183.1057
4278.670, 184.0316
4280.598, 186.2658
4282.527, 187.1344
4284.455, 184.0771
4286.384, 182.7694
4288.312, 182.8378
4290.241, 183.2081
4292.169, 183.4075
4294.098, 183.1962
4296.026, 183.2469
4297.955, 183.2957
4299.883, 182.7740
4301.812, 182.8278
4303.740, 183.5263
4305.668, 182.9906
4307.597, 182.4485
4309.525, 182.8809
4311.454, 183.4837
4313.382, 183.9246
4315.311, 183.1224
4317.239, 182.1580
4319.167, 181.3147
4321.096, 181.7508
4323.024, 182.5823
4324.953, 182.6015
4326.881, 182.2387
4328.810, 181.6336
4330.738, 182.1106
4332.667, 182.8810
4334.595, 183.5184
4336.524, 183.7183
4338.452, 183.4544
4340.381, 182.2437
4342.309, 181.7714
4344.238, 182.6785
4346.166, 181.0949
4348.095, 179.1264
4350.023, 179.4697
4351.952, 180.1905
4353.880, 180.7778
4355.809, 179.9326
4357.737, 179.3726
4359.666, 180.0739
4361.594, 181.1842
4363.522, 181.7686
4365.451, 179.3148
4367.379, 178.2917
4369.308, 179.4893
4371.236, 179.6635
4373.165, 179.4473
4375.093, 179.5590
4377.021, 178.7902
4378.950, 177.8544
4380.878, 179.8488
4382.807, 180.6226
4384.735, 178.3447
4386.664, 178.2005
4388.592, 178.8628
4390.521, 178.3269
4392.449, 179.2917
4394.378, 181.2748
4396.306, 179.8916
4398.235, 178.2912
4400.163, 178.0424
4402.092, 177.9015
4404.020, 177.8563
4405.949, 178.0435
4407.877, 177.9728
4409.806, 177.6285
4411.734, 177.2696
4413.663, 177.3894
4415.591, 178.3330
4417.520, 178.3141
4419.448, 177.7490
4421.376, 177.4030
4423.305, 176.9737
4425.233, 176.4416
4427.162, 176.1289
4429.090, 175.4294
4431.019, 173.7308
4432.947, 174.8559
4434.875, 176.5931
4436.804, 174.5079
4438.732, 173.4344
4440.661, 174.1136
4442.589, 175.5604
4444.518, 175.8886
4446.446, 173.2201
4448.375, 172.6372
4450.303, 173.1555
4452.232, 173.1587
4454.160, 173.6743
4456.089, 174.6074
4458.017, 173.5952
4459.946, 173.0543
4461.874, 174.1182
4463.803, 173.9637
4465.731, 173.2220
4467.660, 172.5031
4469.588, 172.8208
4471.517, 173.9869
4473.445, 175.5827
4475.374, 175.6325
4477.302, 173.0727
4479.230, 171.9378
4481.159, 171.7141
4483.087, 172.2631
4485.016, 172.1043
4486.944, 171.5316
4488.873, 171.6860
4490.801, 171.9155
4492.729, 172.0117
4494.658, 171.1156
4496.586, 170.8271
4498.515, 172.4241
4500.443, 172.0158
4502.372, 170.8848
4504.300, 171.8897
4506.229, 172.5427
4508.157, 172.4332
4510.086, 171.9029
4512.014, 171.2176
4513.943, 170.4705
4515.871, 169.9174
4517.800, 169.3569
4519.728, 168.2714
4521.657, 168.9629
4523.585, 170.5232
4525.514, 169.8341
4527.442, 169.0215
4529.371, 168.6525
4531.299, 169.2315
4533.228, 169.6683
4535.156, 169.3303
4537.084, 168.1216
4539.013, 167.1888
4540.941, 168.4741
4542.870, 169.6704
4544.798, 170.3294
4546.727, 169.7466
4548.655, 168.4795
4550.583, 166.8126
4552.512, 167.5370
4554.440, 168.2432
4556.369, 167.3746
4558.297, 166.6184
4560.226, 166.2916
4562.154, 167.0388
4564.083, 166.6822
4566.011, 165.6078
4567.940, 166.3140
4569.868, 166.9614
4571.797, 167.0049
4573.725, 166.9948
4575.654, 166.9270
4577.582, 166.7577
4579.511, 167.5803
4581.439, 168.4520
4583.368, 168.1440
4585.296, 167.6747
4587.225, 167.0298
4589.153, 165.4933
4591.082, 164.7577
4593.010, 165.0912
4594.938, 164.4199
4596.867, 164.1440
4598.795, 164.8761
4600.724, 164.6140
4602.652, 164.0392
4604.581, 163.7117
4606.509, 164.2819
4608.438, 164.9429
4610.366, 163.9264
4612.294, 163.1614
4614.223, 162.8265
4616.151, 162.3537
4618.080, 161.9907
4620.008, 161.8329
4621.937, 162.4779
4623.865, 162.6977
4625.794, 161.7215
4627.722, 160.8640
4629.651, 160.8072
4631.579, 162.9555
4633.508, 162.9495
4635.436, 161.9076
4637.365, 162.6706
4639.293, 162.6933
4641.222, 161.9221
4643.150, 161.8414
4645.079, 161.0247
4647.007, 159.2206
4648.936, 159.6920
4650.864, 160.2859
4652.792, 159.8608
4654.721, 159.1523
4656.649, 158.7780
4658.578, 159.2949
4660.506, 159.4978
4662.435, 159.5683
4664.363, 159.9424
4666.292, 160.1046
4668.220, 160.1652
4670.148, 160.9528
4672.077, 160.5451
4674.005, 159.0593
4675.934, 159.5417
4677.862, 159.6443
4679.791, 158.7108
4681.719, 158.4293
4683.648, 158.3706
4685.576, 158.2984
4687.505, 158.0647
4689.433, 157.5835
4691.362, 156.6951
4693.290, 156.6620
4695.219, 157.0270
4697.147, 157.0954
4699.076, 157.3306
4701.004, 157.6058
4702.933, 157.6145
4704.861, 157.0723
4706.790, 156.3545
4708.718, 157.4066
4710.646, 157.4789
4712.575, 156.2464
4714.503, 155.7678
4716.432, 155.8139
4718.360, 156.2970
4720.289, 156.4992
4722.217, 156.0825
4724.146, 154.9007
4726.074, 155.5091
4728.002, 155.9983
4729.931, 154.3452
4731.859, 153.4514
4733.788, 153.1618
4735.716, 153.3165
4737.645, 153.4487
4739.573, 153.5931
4741.502, 154.0757
4743.430, 153.6545
4745.359, 152.9356
4747.287, 154.0618
4749.216, 153.8723
4751.144, 152.4949
4753.073, 151.3503
4755.001, 152.1519
4756.930, 154.2140
4758.858, 152.7258
4760.787, 151.2171
4762.715, 150.8031
4764.644, 151.8948
4766.572, 152.1832
4768.500, 151.1089
4770.429, 152.2248
4772.357, 152.8773
4774.286, 151.4044
4776.214, 150.5786
4778.143, 150.9787
4780.071, 153.0032
4782.000, 151.2582
4783.928, 148.9339
4785.856, 148.9359
4787.785, 149.6149
4789.713, 149.9540
4791.642, 148.8782
4793.570, 148.5978
4795.499, 148.7483
4797.427, 148.6499
4799.356, 148.9021
4801.284, 149.3665
4803.213, 150.0442
4805.141, 149.0331
4807.070, 147.6999
4808.998, 149.1212
4810.927, 148.9199
4812.855, 147.8065
4814.784, 148.7330
4816.712, 148.0380
4818.641, 146.5076
4820.569, 147.5880
4822.498, 147.9222
4824.426, 147.4312
4826.354, 147.4570
4828.283, 148.1906
4830.211, 149.0792
4832.140, 147.9521
4834.068, 146.6852
4835.997, 145.9263
4837.925, 146.9427
4839.854, 146.9613
4841.782, 145.7585
4843.710, 145.2462
4845.639, 144.6264
4847.567, 144.0975
4849.496, 146.3519
4851.424, 146.9773
4853.353, 145.3269
4855.281, 144.8897
4857.210, 144.9383
4859.138, 145.1525
4861.067, 145.1902
4862.995, 144.3147
4864.924, 142.7539
4866.852, 143.9118
4868.781, 144.3343
4870.709, 143.2818
4872.638, 143.6521
4874.566, 142.9631
4876.495, 141.0648
4878.423, 142.6246
4880.352, 142.9550
4882.280, 141.1344
4884.208, 141.2868
4886.137, 142.2730
4888.065, 143.3967
4889.994, 142.3244
4891.922, 142.0610
4893.851, 143.1339
4895.779, 143.0396
4897.708, 142.3976
4899.636, 141.6445
4901.564, 142.2655
4903.493, 141.9407
4905.421, 140.5282
4907.350, 140.7110
4909.278, 140.8891
4911.207, 140.8840
4913.135, 141.8063
4915.064, 141.8064
4916.992, 140.8809
4918.921, 140.3607
4920.849, 140.7705
4922.778, 141.4953
4924.706, 140.5668
4926.635, 139.1390
4928.563, 137.9782
4930.492, 138.7087
4932.420, 139.7248
4934.349, 140.3929
4936.277, 139.7289
4938.206, 139.0012
4940.134, 138.5676
4942.063, 138.8729
4943.991, 139.5070
4945.919, 139.5907
4947.848, 137.3974
4949.776, 137.3428
4951.705, 138.4428
4953.633, 139.1516
4955.562, 138.7070
4957.490, 137.8493
4959.418, 137.3743
4961.347, 136.8874
4963.275, 137.0815
4965.204, 139.1271
4967.132, 139.2739
4969.061, 138.2128
4970.989, 136.4585
4972.918, 135.2294
4974.846, 135.0605
4976.775, 136.2161
4978.703, 136.7674
4980.632, 136.0504
4982.560, 133.9631
4984.489, 134.1340
4986.417, 134.4828
4988.346, 134.3324
4990.274, 134.2756
4992.203, 133.7637
4994.131, 133.0105
4996.060, 133.9965
4997.988, 134.4545
4999.917, 134.1431
5001.845, 133.6757
5003.773, 133.2276
5005.702, 132.7626
5007.630, 131.7851
5009.559, 132.5027
5011.487, 133.6756
5013.416, 133.2791
5015.344, 132.6501
5017.272, 132.1595
5019.201, 132.1387
5021.129, 131.7827
5023.058, 131.6456
5024.986, 132.0681
5026.915, 131.2604
5028.843, 131.1283
5030.772, 132.5705
5032.700, 131.5383
5034.629, 131.0349
5036.557, 131.8260
5038.486, 131.9724
5040.414, 130.7267
5042.343, 129.0193
5044.271, 130.5356
5046.200, 131.0237
5048.128, 130.3917
5050.057, 129.8505
5051.985, 128.8888
5053.914, 128.3031
5055.842, 129.3124
5057.771, 129.8721
5059.699, 129.5671
5061.627, 127.9503
5063.556, 128.2042
5065.484, 128.0457
5067.413, 126.5849
5069.341, 126.9322
5071.270, 127.8994
5073.198, 128.7667
5075.126, 128.0528
5077.055, 127.1923
5078.983, 126.6673
5080.912, 126.8764
5082.840, 127.2740
5084.769, 127.2931
5086.697, 126.0043
5088.626, 125.1222
5090.554, 124.9592
5092.483, 125.7007
5094.411, 126.9367
5096.340, 127.6221
5098.268, 127.2363
5100.197, 125.7593
5102.125, 124.9790
5104.054, 125.1838
5105.982, 124.5272
5107.911, 124.7808
5109.839, 125.5710
5111.768, 125.2828
5113.696, 125.6389
5115.625, 125.7883
5117.553, 124.1425
5119.481, 123.9238
5121.410, 124.0709
5123.338, 123.8321
5125.267, 123.1277
5127.195, 123.1002
5129.124, 123.8428
5131.052, 122.9277
5132.980, 123.1305
5134.909, 124.1323
5136.837, 123.5934
5138.766, 123.8902
5140.694, 124.3025
5142.623, 123.5839
5144.551, 122.8986
5146.480, 122.5175
5148.408, 122.5743
5150.337, 122.6208
5152.265, 122.3297
5154.194, 121.8211
5156.122, 122.0876
5158.051, 122.1506
5159.979, 122.0290
5161.908, 122.1030
5163.836, 122.3520
5165.765, 122.2843
5167.693, 121.4806
5169.622, 121.5395
5171.550, 121.1308
5173.479, 119.9518
5175.407, 121.3904
5177.335, 121.5359
5179.264, 120.3157
5181.192, 120.0651
5183.121, 120.5793
5185.049, 120.6414
5186.978, 118.8569
5188.906, 118.5494
5190.834, 119.2969
5192.763, 120.6278
5194.691, 119.3222
5196.620, 118.5764
5198.548, 118.7441
5200.477, 118.0086
5202.405, 118.2265
5204.334, 118.8512
5206.262, 118.9842
5208.191, 118.3449
5210.119, 118.1713
5212.048, 119.0505
5213.976, 119.2081
5215.905, 118.0935
5217.833, 116.5859
5219.762, 117.5624
5221.690, 117.4460
5223.619, 116.9901
5225.547, 117.7141
5227.476, 117.0550
5229.404, 116.4157
5231.333, 116.4868
5233.261, 117.5736
5235.189, 117.1800
5237.118, 115.8037
5239.046, 115.7438
5240.975, 115.1786
5242.903, 114.7149
5244.832, 114.9904
5246.760, 114.3812
5248.688, 114.6125
5250.617, 115.6929
5252.545, 114.9540
5254.474, 114.9087
5256.402, 114.9599
5258.331, 113.1486
5260.259, 113.7695
5262.188, 114.0014
5264.116, 112.5609
5266.045, 113.7199
5267.973, 113.9990
5269.902, 113.4067
5271.830, 114.3095
5273.759, 113.3085
5275.687, 112.3882
5277.616, 113.4630
5279.544, 113.3077
5281.473, 112.8661
5283.401, 112.4524
5285.330, 111.7549
5287.258, 111.7904
5289.187, 111.8682
5291.115, 110.8539
5293.043, 111.0466
5294.972, 110.6830
5296.900, 109.5312
5298.829, 110.8948
5300.757, 111.4583
5302.686, 111.3612
5304.614, 111.7164
5306.542, 111.1962
5308.471, 110.9109
5310.399, 111.2963
5312.328, 110.0051
5314.256, 109.3917
5316.185, 109.4963
5318.113, 109.5341
5320.042, 109.5461
5321.970, 109.6498
5323.899, 109.8780
5325.827, 109.9694
5327.756, 109.9783
5329.684, 109.7931
5331.613, 109.1427
5333.541, 108.5493
5335.470, 108.5627
5337.398, 109.2461
5339.327, 108.9537
5341.255, 108.1519
5343.184, 107.4233
5345.112, 107.8084
5347.041, 107.1991
5348.969, 106.7359
5350.897, 107.0296
5352.826, 106.5679
5354.754, 106.2355
5356.683, 106.3838
5358.611, 107.4431
5360.540, 106.6769
5362.468, 106.3282
5364.397, 107.4338
5366.325, 107.6276
5368.254, 106.9192
5370.182, 106.1716
5372.111, 106.5287
5374.039, 105.8276
5375.968, 104.9690
5377.896, 104.5870
5379.825, 105.4433
5381.753, 105.6118
5383.682, 105.2868
5385.610, 104.9565
5387.539, 105.3403
5389.467, 105.3048
5391.396, 104.8268
5393.324, 104.9980
5395.252, 105.2072
5397.181, 104.4026
5399.109, 102.0742
5401.038, 104.1906
5402.966, 103.7794
5404.895, 101.5809
5406.823, 103.1789
5408.751, 102.2717
5410.680, 101.4696
5412.608, 102.1467
5414.537, 102.3993
5416.465, 102.5480
5418.394, 102.7174
5420.322, 103.0636
5422.251, 102.2477
5424.179, 101.4779
5426.108, 101.1067
5428.036, 100.6020
5429.965, 101.5496
5431.893, 101.8441
5433.822, 100.2667
5435.750, 100.2131
5437.679, 100.1896
5439.607, 100.2408
5441.536, 101.2805
5443.464, 100.4181
5445.393, 99.29541
5447.321, 98.83074
5449.250, 99.78282
5451.178, 99.87999
5453.106, 99.47176
5455.035, 99.06778
5456.963, 98.08328
5458.892, 98.62779
5460.820, 99.63830
5462.749, 98.50496
5464.677, 98.78240
5466.605, 99.00809
5468.534, 98.35457
5470.462, 95.80330
5472.391, 96.16061
5474.319, 98.13918
5476.248, 99.88329
5478.176, 97.47620
5480.105, 97.00386
5482.033, 97.65974
5483.962, 96.80318
5485.890, 96.29928
5487.819, 96.24454
5489.747, 96.23806
5491.676, 94.97369
5493.604, 96.35236
5495.533, 97.06853
5497.461, 95.77896
5499.390, 95.95121
5501.318, 95.89942
5503.247, 95.67589
5505.175, 95.58421
5507.104, 96.45638
5509.032, 95.94543
5510.960, 94.88754
5512.889, 95.50085
5514.817, 95.83554
5516.746, 95.37695
5518.674, 94.61272
5520.603, 95.10862
5522.531, 94.43826
5524.459, 94.17947
5526.388, 94.74886
5528.316, 93.19688
5530.245, 93.22353
5532.173, 93.64583
5534.102, 93.21943
5536.030, 93.41988
5537.959, 93.29467
5539.887, 92.71206
5541.816, 91.80866
5543.744, 92.11722
5545.673, 93.00100
5547.601, 93.76081
5549.530, 93.73172
5551.458, 91.84274
5553.387, 90.77599
5555.315, 91.08143
5557.244, 91.27242
5559.172, 92.47997
5561.101, 92.44758
5563.029, 90.92233
5564.958, 91.46255
5566.886, 91.45898
5568.814, 91.20158
5570.743, 91.08572
5572.671, 90.99683
5574.600, 90.19100
5576.528, 89.69755
5578.457, 90.31868
5580.385, 90.85847
5582.313, 90.22815
5584.242, 89.64014
5586.170, 90.68916
5588.099, 89.88708
5590.027, 89.86655
5591.956, 90.28896
5593.884, 89.89101
5595.813, 89.66993
5597.741, 89.57456
5599.670, 89.17802
5601.598, 87.88842
5603.527, 88.40300
5605.455, 88.40986
5607.384, 87.68425
5609.312, 87.27766
5611.241, 88.58859
5613.169, 88.98414
5615.098, 88.19209
5617.026, 87.89944
5618.955, 87.40142
5620.883, 87.40459
5622.812, 87.63059
5624.740, 86.61598
5626.668, 87.08636
5628.597, 87.18284
5630.525, 86.68982
5632.454, 88.25040
5634.382, 87.64922
5636.311, 86.54456
5638.239, 85.91194
5640.167, 85.86253
5642.096, 84.78498
5644.024, 84.71105
5645.953, 85.75904
5647.881, 85.05642
5649.810, 84.67265
5651.738, 84.85545
5653.667, 85.30700
5655.595, 85.26892
5657.524, 84.40515
5659.452, 84.06887
5661.381, 84.54088
5663.309, 84.54287
5665.238, 84.31185
5667.166, 84.05859
5669.095, 83.77044
5671.023, 83.04591
5672.952, 82.70023
5674.880, 82.40974
5676.809, 82.22966
5678.737, 82.80575
5680.666, 82.47153
5682.594, 82.07325
5684.522, 81.99034
5686.451, 82.07279
5688.379, 82.01891
5690.308, 82.80852
5692.236, 83.64205
5694.165, 82.10786
5696.093, 80.61506
5698.021, 80.64145
5699.950, 81.59753
5701.878, 81.68875
5703.807, 81.27779
5705.735, 81.60685
5707.664, 82.15054
5709.592, 81.71481
5711.521, 80.70717
5713.449, 81.25776
5715.378, 81.72482
5717.306, 80.09566
5719.235, 80.00546
5721.163, 79.97823
5723.092, 79.48710
5725.020, 78.54711
5726.949, 78.42301
5728.877, 78.49737
5730.806, 78.70306
5732.734, 79.08548
5734.663, 80.02860
5736.591, 79.09354
5738.520, 78.90743
5740.448, 79.97104
5742.376, 78.36513
5744.305, 77.84834
5746.233, 77.84786
5748.162, 77.88844
5750.090, 77.90455
5752.019, 78.64967
5753.947, 77.75227
5755.875, 76.50279
5757.804, 77.63415
5759.732, 77.32310
5761.661, 76.72727
5763.589, 76.38319
5765.518, 76.45579
5767.446, 77.67175
5769.375, 76.52242
5771.303, 75.53902
5773.232, 76.40009
5775.160, 75.70277
5777.089, 76.08020
5779.017, 76.35221
5780.946, 76.06870
5782.874, 76.07533
5784.803, 75.29518
5786.731, 75.17189
5788.660, 75.42567
5790.588, 74.91173
5792.517, 74.82827
5794.445, 74.28539
5796.374, 74.03509
5798.302, 74.73312
5800.230, 74.62656
5802.159, 74.44995
5804.087, 73.81624
5806.016, 72.69527
5807.944, 71.85288
5809.873, 73.15443
5811.801, 73.33353
5813.729, 72.40116
5815.658, 73.08598
5817.586, 73.48521
5819.515, 73.55201
5821.443, 73.54586
5823.372, 73.62935
5825.300, 72.28120
5827.229, 72.60287
5829.157, 72.37865
5831.086, 71.23442
5833.014, 72.90964
5834.943, 72.35856
5836.871, 71.94740
5838.800, 72.23405
5840.728, 72.43432
5842.657, 71.90388
5844.585, 71.39975
5846.514, 70.94566
5848.442, 70.68882
5850.371, 72.50234
5852.299, 70.97884
5854.228, 69.91018
5856.156, 70.58578
5858.084, 71.60539
5860.013, 70.52791
5861.941, 70.09225
5863.870, 70.23293
5865.798, 70.12083
5867.727, 69.69125
5869.655, 70.00174
5871.583, 70.32563
5873.512, 70.35310
5875.440, 70.45536
5877.369, 69.82776
5879.297, 70.03504
5881.226, 70.04616
5883.154, 68.75655
5885.083, 69.27888
5887.011, 69.11789
5888.940, 68.62805
5890.868, 68.73537
5892.797, 70.38823
5894.725, 68.24680
5896.654, 68.16388
5898.582, 68.77637
5900.511, 67.64851
5902.439, 67.66914
5904.368, 66.36639
5906.296, 66.31624
5908.225, 67.78751
5910.153, 68.61690
5912.082, 68.43455
5914.010, 67.62988
5915.938, 67.09537
5917.867, 67.31068
5919.795, 67.78719
5921.724, 67.54264
5923.652, 67.24449
5925.581, 67.07000
5927.509, 66.82010
5929.438, 67.05227
5931.366, 66.43967
5933.294, 65.48047
5935.223, 65.01954
5937.151, 66.19766
5939.080, 65.91689
5941.008, 65.56009
5942.937, 65.27461
5944.865, 64.77383
5946.794, 64.10778
5948.722, 65.11594
5950.651, 65.53397
5952.579, 65.18195
5954.508, 65.28680
5956.436, 64.42607
5958.365, 64.72282
5960.293, 64.77869
5962.222, 64.30649
5964.150, 65.23311
5966.079, 65.69617
5968.007, 66.61620
5969.936, 66.57278
5971.864, 64.83546
5973.792, 64.03181
5975.721, 64.36579
5977.649, 65.24430
5979.578, 66.21519
5981.506, 66.96528
5983.435, 66.73756
5985.363, 67.20100
5987.292, 66.61324
5989.220, 64.90501
5991.148, 63.51465
5993.077, 63.65368
5995.005, 64.10348
5996.934, 63.47439
5998.862, 62.14980
6000.791, 62.70449
6002.719, 62.54436
6004.648, 63.20857
6006.576, 63.10062
6008.505, 61.48117
6010.433, 60.26874
6012.362, 59.77354
6014.290, 60.65360
6016.219, 61.62046
6018.147, 61.62953
6020.076, 61.33926
6022.004, 61.12146
6023.933, 61.73546
6025.861, 62.16521
6027.790, 61.39674
6029.718, 60.37271
6031.646, 60.58719
6033.575, 60.40729
6035.503, 59.79249
6037.432, 59.45312
6039.360, 59.74974
6041.289, 60.37717
6043.217, 60.31464
6045.146, 59.66005
6047.074, 59.13115
6049.002, 60.25927
6050.931, 59.60174
6052.859, 59.41758
6054.788, 59.76477
6056.716, 59.44461
6058.645, 58.68040
6060.573, 58.56998
6062.502, 58.84536
6064.430, 59.05402
6066.359, 58.92755
6068.287, 58.85270
6070.216, 59.27787
6072.144, 59.41280
6074.073, 58.63179
6076.001, 57.17425
6077.930, 58.28283
6079.858, 58.42424
6081.787, 57.77574
6083.715, 57.12913
6085.644, 57.08123
6087.572, 57.72633
6089.500, 57.44099
6091.429, 57.18113
6093.357, 56.95066
6095.286, 56.57372
6097.214, 56.67724
6099.143, 56.54005
6101.071, 55.82726
6103.000, 55.62102
6104.928, 56.24134
6106.856, 55.98401
6108.785, 57.27102
6110.713, 55.93262
6112.642, 55.52660
6114.570, 57.03632
6116.499, 56.11048
6118.427, 56.40804
6120.356, 56.15963
6122.284, 54.80753
6124.213, 53.77717
6126.141, 55.08102
6128.070, 56.02444
6129.998, 55.76823
6131.927, 54.56556
6133.855, 53.62551
6135.784, 53.94896
6137.712, 54.39348
6139.641, 54.92150
6141.569, 55.27191
6143.498, 55.03217
6145.426, 54.21502
6147.354, 53.80864
6149.283, 53.83537
6151.211, 53.68864
6153.140, 53.91995
6155.068, 54.15049
6156.997, 52.93185
6158.925, 51.75189
6160.854, 53.82328
6162.782, 53.69894
6164.710, 52.56659
6166.639, 54.27672
6168.567, 52.38836
6170.496, 52.09602
6172.424, 52.68458
6174.353, 53.28845
6176.281, 53.45108
6178.210, 52.91601
6180.138, 53.37736
6182.067, 54.02808
6183.995, 53.84396
6185.924, 53.02150
6187.852, 52.46812
6189.781, 51.94064
6191.709, 51.60192
6193.638, 51.61241
6195.566, 51.57470
6197.495, 51.28962
6199.423, 51.45546
6201.352, 51.40044
6203.280, 51.08065
6205.208, 50.88493
6207.137, 51.11107
6209.065, 51.77844
6210.994, 50.71697
6212.922, 50.87896
6214.851, 50.73559
6216.779, 50.13011
6218.708, 49.58324
6220.636, 49.40836
6222.564, 49.33410
6224.493, 50.13140
6226.421, 49.97268
6228.350, 49.39323
6230.278, 50.00816
6232.207, 50.69239
6234.135, 49.21894
6236.064, 50.10059
6237.992, 50.73265
6239.921, 49.78380
6241.849, 49.48140
6243.778, 49.47387
6245.706, 49.01654
6247.635, 49.24143
6249.563, 49.07458
6251.492, 48.22249
6253.420, 49.14331
6255.349, 48.60582
6257.277, 48.84065
6259.206, 49.12278
6261.134, 49.02290
6263.063, 48.64969
6264.991, 47.96038
6266.919, 49.50945
6268.848, 49.98183
6270.776, 49.20935
6272.705, 47.99952
6274.633, 47.01115
6276.562, 46.49265
6278.490, 47.44067
6280.418, 48.13168
6282.347, 47.12861
6284.275, 46.25257
6286.204, 48.25688
6288.132, 47.60127
6290.061, 47.22599
6291.989, 46.65614
6293.918, 46.46863
6295.846, 46.88525
6297.775, 47.35506
6299.703, 46.70186
6301.632, 47.18004
6303.560, 46.95884
6305.489, 46.66777
6307.417, 46.75324
6309.346, 46.50946
6311.274, 45.52720
6313.203, 45.04190
6315.131, 45.50890
6317.060, 45.71664
6318.988, 45.48424
6320.917, 45.84583
6322.845, 45.78696
6324.773, 45.17889
6326.702, 45.17866
6328.630, 45.31831
6330.559, 45.71856
6332.487, 46.66889
6334.416, 44.91721
6336.344, 44.70625
6338.272, 45.74823
6340.201, 46.16699
6342.129, 45.26531
6344.058, 44.12156
6345.986, 45.48426
6347.915, 45.36664
6349.843, 45.28086
6351.772, 44.92189
6353.700, 44.45332
6355.629, 44.31597
6357.557, 44.14103
6359.486, 43.95586
6361.414, 43.52338
6363.343, 43.67622
6365.271, 43.72703
6367.200, 43.28136
6369.128, 43.48287
6371.057, 44.04470
6372.985, 42.96761
6374.914, 42.95631
6376.842, 43.49800
6378.771, 43.53921
6380.699, 43.20988
6382.627, 43.68666
6384.556, 43.96959
6386.484, 43.50227
6388.413, 43.54272
6390.341, 43.20915
6392.270, 42.01936
6394.198, 42.91573
6396.126, 42.82990
6398.055, 42.47502
6399.983, 41.99800
6401.912, 42.25274
6403.840, 42.79098
6405.769, 42.08655
6407.697, 43.09216
6409.626, 42.94981
6411.554, 42.65520
6413.483, 42.58430
6415.411, 42.59783
6417.340, 42.50488
6419.268, 42.28048
6421.197, 41.92576
6423.125, 41.51360
6425.054, 41.38644
6426.982, 41.25249
6428.911, 41.37508
6430.839, 41.96001
6432.768, 41.25963
6434.696, 40.46558
6436.625, 40.96574
6438.553, 41.15743
6440.481, 41.00677
6442.410, 41.21028
6444.338, 41.76906
6446.267, 40.94682
6448.195, 40.87121
6450.124, 41.46212
6452.052, 40.54874
6453.980, 39.89387
6455.909, 40.78695
6457.837, 40.60136
6459.766, 39.88078
6461.694, 39.56465
6463.623, 39.42852
6465.551, 39.83695
6467.480, 39.87392
6469.408, 39.45569
6471.337, 40.45908
6473.265, 38.79194
6475.194, 39.90150
6477.122, 39.25286
6479.051, 39.03223
6480.979, 39.17855
6482.908, 38.69851
6484.836, 39.77394
6486.765, 38.67468
6488.693, 38.74630
6490.622, 38.92608
6492.550, 38.60385
6494.479, 38.96563
6496.407, 40.06580
6498.335, 39.52393
6500.264, 39.16429
6502.192, 39.09776
6504.121, 38.97273
6506.049, 38.24651
6507.978, 38.17012
6509.906, 38.93314
6511.834, 38.70014
6513.763, 38.19748
6515.691, 38.32232
6517.620, 38.89063
6519.548, 38.10223
6521.477, 37.56220
6523.405, 37.57224
6525.334, 36.74646
6527.262, 37.77124
6529.191, 36.72181
6531.119, 37.35191
6533.048, 37.86937
6534.976, 38.08222
6536.905, 37.48082
6538.833, 36.20135
6540.762, 36.46961
6542.690, 37.49450
6544.619, 36.40723
6546.547, 36.31188
6548.476, 36.99955
6550.404, 37.08374
6552.333, 36.47527
6554.261, 36.22493
6556.189, 37.14822
6558.118, 36.39869
6560.046, 36.35862
6561.975, 36.78374
6563.903, 37.17385
6565.832, 37.19864
6567.760, 36.79186
##END=



