##NAMES=Hellyerite
##RRUFFID=R061050
##IDEAL CHEMISTRY=Ni(CO_3_)·6H_2_O
##LOCALITY=Lord Brassy mine, Tasmania, Australia
##OWNER=RRUFF
##SOURCE=Michael Scott
##DESCRIPTION=Apple green colored, lamellar, fragmented crystals, amorphous, apparently dehydrated
##STATUS=The identification of this mineral is not yet confirmed
##URL=https://www.rruff.net/odr/rruff_sample/R061050
##FILETYPE=Raman RAW
##RAMAN WAVELENGTH=785

127.2803, 592.5262
129.2087, 818.7330
131.1372, 1019.943
133.0657, 1206.099
134.9941, 1279.375
136.9226, 1134.628
138.8511, 1001.901
140.7795, 924.1287
142.7080, 910.7363
144.6365, 995.2045
146.5649, 1167.541
148.4934, 1281.021
150.4219, 1300.385
152.3503, 1283.524
154.2788, 1205.934
156.2073, 1120.735
158.1357, 1073.795
160.0642, 1052.458
161.9927, 1024.275
163.9211, 983.0261
165.8496, 946.7560
167.7781, 921.2696
169.7065, 896.0458
171.6350, 866.5988
173.5635, 833.9466
175.4919, 797.7062
177.4204, 756.7236
179.3489, 724.1403
181.2773, 706.4507
183.2058, 689.3629
185.1343, 670.4692
187.0627, 650.5371
188.9912, 626.7849
190.9197, 602.0052
192.8481, 589.3204
194.7766, 598.9896
196.7051, 601.1937
198.6335, 588.1116
200.5620, 574.1113
202.4905, 567.5163
204.4189, 563.5144
206.3474, 555.2112
208.2759, 541.9416
210.2043, 530.7182
212.1328, 520.8842
214.0613, 514.5054
215.9897, 518.7258
217.9182, 520.3096
219.8467, 503.8756
221.7751, 478.0088
223.7036, 466.3113
225.6321, 476.6106
227.5605, 481.0749
229.4890, 475.5133
231.4175, 468.6307
233.3459, 462.3962
235.2744, 456.8477
237.2029, 451.5342
239.1313, 446.6716
241.0598, 444.3202
242.9883, 450.8876
244.9167, 448.8950
246.8452, 427.3763
248.7737, 409.6075
250.7021, 410.3360
252.6306, 418.4732
254.5591, 421.7701
256.4875, 420.0627
258.4160, 416.0385
260.3445, 405.8557
262.2729, 399.3053
264.2014, 400.6131
266.1299, 401.8303
268.0583, 398.6661
269.9868, 392.7362
271.9153, 384.8475
273.8438, 374.0719
275.7722, 369.5384
277.7007, 377.6031
279.6292, 381.4051
281.5576, 377.2544
283.4861, 370.5050
285.4146, 361.8698
287.3430, 353.7646
289.2715, 350.8861
291.2000, 354.2696
293.1284, 353.7285
295.0569, 347.7134
296.9854, 340.7036
298.9138, 329.7273
300.8423, 322.0566
302.7708, 326.5906
304.6992, 334.1294
306.6277, 331.2980
308.5562, 317.4148
310.4846, 307.5414
312.4131, 303.4979
314.3416, 299.6017
316.2700, 294.4560
318.1985, 290.5860
320.1270, 292.0724
322.0554, 293.4644
323.9839, 286.2430
325.9124, 271.6865
327.8408, 267.9362
329.7693, 282.5274
331.6978, 290.0425
333.6262, 286.5264
335.5547, 281.0686
337.4832, 277.5597
339.4116, 273.3033
341.3401, 264.3446
343.2686, 252.9722
345.1970, 247.5229
347.1255, 249.7751
349.0540, 251.7716
350.9824, 254.5593
352.9109, 254.7465
354.8394, 248.9551
356.7678, 243.4117
358.6963, 242.1180
360.6248, 243.2864
362.5532, 244.5449
364.4817, 245.9012
366.4102, 246.8070
368.3386, 248.0631
370.2671, 246.2301
372.1956, 238.0903
374.1240, 231.8492
376.0525, 232.8716
377.9810, 235.9282
379.9094, 237.0269
381.8379, 236.8546
383.7664, 238.0437
385.6948, 241.3810
387.6233, 240.4432
389.5518, 232.8246
391.4802, 228.0576
393.4087, 229.5064
395.3372, 232.6386
397.2656, 236.6240
399.1941, 239.6970
401.1226, 239.4976
403.0510, 236.5670
404.9795, 233.5366
406.9080, 230.0910
408.8364, 228.7130
410.7649, 230.7894
412.6934, 231.3390
414.6218, 227.9410
416.5503, 223.9529
418.4788, 219.8365
420.4072, 217.1474
422.3357, 218.8713
424.2642, 224.0249
426.1926, 225.8539
428.1211, 223.4129
430.0496, 225.8758
431.9780, 236.4181
433.9065, 243.8008
435.8350, 241.7759
437.7634, 239.9275
439.6919, 247.6597
441.6204, 254.3710
443.5488, 243.0334
445.4773, 220.2319
447.4058, 215.7460
449.3342, 231.1575
451.2627, 240.3926
453.1912, 240.9473
455.1196, 240.6556
457.0481, 241.7985
458.9766, 241.9154
460.9050, 238.0387
462.8335, 234.5723
464.7620, 236.5759
466.6904, 241.3157
468.6189, 243.0405
470.5474, 241.5939
472.4758, 235.4657
474.4043, 223.4950
476.3328, 215.2078
478.2612, 213.1989
480.1897, 212.7080
482.1182, 211.7786
484.0466, 212.0553
485.9751, 215.7426
487.9036, 220.1263
489.8320, 221.5302
491.7605, 220.6624
493.6890, 220.2974
495.6174, 220.4264
497.5459, 221.0763
499.4744, 222.5603
501.4028, 222.9307
503.3313, 220.3442
505.2598, 219.2631
507.1882, 220.8324
509.1167, 224.8671
511.0452, 233.7118
512.9736, 243.3365
514.9021, 247.6171
516.8306, 247.4466
518.7590, 245.4036
520.6875, 241.7013
522.6160, 245.6454
524.5444, 260.6029
526.4729, 270.2363
528.4014, 269.2260
530.3298, 265.1263
532.2583, 256.9446
534.1868, 250.8204
536.1152, 253.7796
538.0437, 258.3077
539.9722, 254.9303
541.9006, 245.2649
543.8291, 231.6790
545.7576, 215.4355
547.6860, 210.1894
549.6145, 218.5348
551.5430, 222.8601
553.4714, 218.5017
555.3999, 213.4765
557.3284, 207.4286
559.2568, 204.6453
561.1853, 211.2445
563.1138, 217.5196
565.0422, 214.5756
566.9707, 205.8878
568.8992, 194.6931
570.8276, 183.1290
572.7561, 179.7648
574.6846, 184.3875
576.6130, 189.3202
578.5415, 194.7032
580.4700, 195.7360
582.3984, 188.4307
584.3269, 182.2595
586.2554, 179.1874
588.1838, 178.1144
590.1123, 179.4975
592.0408, 181.6885
593.9692, 183.7065
595.8977, 185.2689
597.8262, 185.4400
599.7546, 184.8557
601.6831, 185.5170
603.6116, 187.3457
605.5400, 188.5728
607.4685, 188.7819
609.3970, 190.2877
611.3254, 195.1175
613.2539, 197.7429
615.1824, 196.2463
617.1108, 193.8331
619.0393, 191.2562
620.9678, 188.5074
622.8962, 184.0121
624.8247, 180.6805
626.7532, 184.3771
628.6816, 190.3163
630.6101, 188.2391
632.5386, 180.6906
634.4670, 177.3963
636.3955, 178.6852
638.3240, 181.2020
640.2524, 185.6181
642.1809, 187.4290
644.1094, 183.3622
646.0378, 181.4678
647.9663, 185.2007
649.8948, 187.7801
651.8232, 186.5425
653.7517, 184.0391
655.6802, 178.9675
657.6086, 176.0614
659.5371, 183.2730
661.4656, 193.3073
663.3940, 194.6140
665.3225, 190.5658
667.2510, 190.4088
669.1794, 193.6612
671.1079, 193.6986
673.0364, 189.6855
674.9648, 186.9275
676.8933, 186.6339
678.8218, 185.4682
680.7502, 182.5706
682.6787, 179.8307
684.6072, 175.8523
686.5356, 174.5498
688.4641, 180.4001
690.3926, 185.2905
692.3210, 184.0896
694.2495, 180.4771
696.1780, 175.3457
698.1064, 171.5094
700.0349, 172.8697
701.9634, 177.6036
703.8918, 183.5148
705.8203, 189.5508
707.7488, 189.1318
709.6772, 181.7381
711.6057, 180.9568
713.5342, 190.2776
715.4626, 194.3638
717.3911, 191.4586
719.3196, 185.8882
721.2480, 172.2866
723.1765, 165.3032
725.1050, 171.8969
727.0334, 177.8812
728.9619, 178.4098
730.8904, 178.2250
732.8188, 179.6152
734.7473, 181.0912
736.6758, 182.6839
738.6042, 182.7438
740.5327, 176.8039
742.4612, 170.8588
744.3896, 175.7828
746.3181, 185.7974
748.2466, 186.5252
750.1750, 179.9974
752.1035, 176.3226
754.0320, 175.5154
755.9604, 178.0180
757.8889, 184.9911
759.8174, 188.6981
761.7458, 188.4721
763.6743, 186.3483
765.6028, 180.3268
767.5313, 177.9314
769.4597, 181.8153
771.3882, 184.6301
773.3167, 183.8001
775.2451, 184.1711
777.1736, 188.8222
779.1021, 192.2356
781.0305, 192.1903
782.9590, 189.6949
784.8875, 181.9234
786.8159, 176.1969
788.7444, 180.1832
790.6729, 185.8034
792.6013, 185.3785
794.5298, 182.4241
796.4583, 182.0076
798.3867, 182.0703
800.3152, 176.6837
802.2437, 169.1594
804.1721, 171.3844
806.1006, 180.6649
808.0291, 181.1261
809.9575, 173.3320
811.8860, 169.3689
813.8145, 169.5551
815.7429, 169.0918
817.6714, 168.1299
819.5999, 164.9486
821.5283, 158.6419
823.4568, 155.7767
825.3853, 156.9401
827.3137, 162.3715
829.2422, 174.3928
831.1707, 180.8775
833.0991, 177.9191
835.0276, 173.5949
836.9561, 169.2928
838.8845, 166.0655
840.8130, 164.5642
842.7415, 163.5690
844.6699, 162.3584
846.5984, 161.9236
848.5269, 161.0786
850.4553, 163.4212
852.3838, 175.7376
854.3123, 185.3935
856.2407, 182.1356
858.1692, 175.8655
860.0977, 172.3695
862.0261, 171.6573
863.9546, 175.1391
865.8831, 180.0785
867.8115, 184.6762
869.7400, 187.5552
871.6685, 186.1737
873.5969, 182.1146
875.5254, 177.9786
877.4539, 173.3246
879.3823, 165.4441
881.3108, 156.9797
883.2393, 154.7684
885.1677, 158.0533
887.0962, 166.6699
889.0247, 178.4250
890.9531, 184.4245
892.8816, 184.6997
894.8101, 176.1965
896.7385, 161.4134
898.6670, 159.4324
900.5955, 168.5970
902.5239, 168.9057
904.4524, 160.9917
906.3809, 164.7932
908.3093, 180.3059
910.2378, 183.4329
912.1663, 172.8071
914.0947, 169.7847
916.0232, 176.3201
917.9517, 179.8903
919.8801, 178.9788
921.8086, 181.4940
923.7371, 188.6210
925.6655, 196.0964
927.5940, 204.0341
929.5225, 206.8048
931.4509, 201.9803
933.3794, 202.7128
935.3079, 212.6285
937.2363, 219.2547
939.1648, 219.7565
941.0933, 221.6077
943.0217, 227.9703
944.9502, 228.3566
946.8787, 218.5458
948.8071, 210.2823
950.7356, 205.8861
952.6641, 201.5116
954.5925, 195.2964
956.5210, 192.2944
958.4495, 197.2669
960.3779, 196.8663
962.3064, 184.9011
964.2349, 175.9155
966.1633, 173.0824
968.0918, 171.3065
970.0203, 171.9830
971.9487, 169.9776
973.8772, 159.6099
975.8057, 155.3827
977.7341, 164.1590
979.6626, 170.7064
981.5911, 170.0410
983.5195, 171.7681
985.4480, 182.1373
987.3765, 186.4962
989.3049, 177.3748
991.2334, 171.3146
993.1619, 172.7205
995.0903, 174.1021
997.0188, 174.6892
998.9473, 174.4722
1000.876, 170.2761
1002.804, 171.0316
1004.733, 184.3177
1006.661, 191.0617
1008.590, 183.5829
1010.518, 178.9260
1012.447, 180.4441
1014.375, 182.5940
1016.303, 187.6894
1018.232, 187.8628
1020.160, 177.3118
1022.089, 171.3873
1024.017, 173.8631
1025.946, 176.0867
1027.874, 177.6858
1029.803, 178.6608
1031.731, 178.9236
1033.660, 178.6982
1035.588, 174.8436
1037.517, 177.6824
1039.445, 193.8411
1041.374, 201.2977
1043.302, 195.3228
1045.230, 192.9292
1047.159, 195.0101
1049.087, 198.1312
1051.016, 203.3866
1052.944, 204.9385
1054.873, 201.2443
1056.801, 201.6193
1058.730, 205.9799
1060.658, 217.4003
1062.587, 237.6155
1064.515, 239.8818
1066.444, 223.5335
1068.372, 222.6119
1070.301, 236.3322
1072.229, 244.1324
1074.157, 246.6177
1076.086, 249.1424
1078.014, 252.0633
1079.943, 257.4116
1081.871, 265.0330
1083.800, 277.2301
1085.728, 289.9068
1087.657, 288.0984
1089.585, 278.5169
1091.514, 275.5309
1093.442, 277.4659
1095.371, 284.5758
1097.299, 291.4575
1099.228, 289.3165
1101.156, 282.3960
1103.084, 273.1466
1105.013, 265.2401
1106.941, 263.8235
1108.870, 263.8875
1110.798, 262.0007
1112.727, 258.7309
1114.655, 255.9834
1116.584, 249.6949
1118.512, 233.5454
1120.441, 220.2514
1122.369, 216.6921
1124.298, 214.8061
1126.226, 212.6792
1128.155, 208.9681
1130.083, 202.2769
1132.011, 197.0316
1133.940, 194.7558
1135.868, 192.5985
1137.797, 190.0349
1139.725, 187.1601
1141.654, 184.0968
1143.582, 178.8300
1145.511, 170.7991
1147.439, 167.6375
1149.368, 169.9668
1151.296, 175.2613
1153.225, 182.4650
1155.153, 178.8242
1157.082, 166.4715
1159.010, 161.4811
1160.938, 162.7726
1162.867, 169.0194
1164.795, 176.2467
1166.724, 171.8721
1168.652, 163.5706
1170.581, 165.5945
1172.509, 171.5986
1174.438, 174.0681
1176.366, 175.0101
1178.295, 176.4309
1180.223, 177.1583
1182.152, 174.6904
1184.080, 173.6913
1186.009, 179.1023
1187.937, 182.7023
1189.865, 180.8120
1191.794, 177.4180
1193.722, 170.7178
1195.651, 169.3716
1197.579, 176.1819
1199.508, 183.6476
1201.436, 191.9395
1203.365, 191.7098
1205.293, 182.1485
1207.222, 172.1373
1209.150, 163.0907
1211.079, 165.3111
1213.007, 174.6157
1214.936, 170.0074
1216.864, 158.7577
1218.792, 160.8774
1220.721, 168.8131
1222.649, 170.7658
1224.578, 171.3601
1226.506, 177.8724
1228.435, 182.7083
1230.363, 178.9094
1232.292, 172.4241
1234.220, 160.8779
1236.149, 157.3363
1238.077, 174.1783
1240.006, 186.0988
1241.934, 186.5169
1243.863, 183.0676
1245.791, 172.7200
1247.719, 171.3556
1249.648, 181.1757
1251.576, 185.2218
1253.505, 183.4887
1255.433, 182.6714
1257.362, 182.4495
1259.290, 179.6842
1261.219, 177.1852
1263.147, 183.7522
1265.076, 191.0274
1267.004, 187.1848
1268.933, 182.1921
1270.861, 185.2413
1272.790, 187.9296
1274.718, 185.1251
1276.646, 181.8861
1278.575, 178.6615
1280.503, 178.3220
1282.432, 181.9612
1284.360, 187.7160
1286.289, 197.7909
1288.217, 198.5112
1290.146, 189.6874
1292.074, 185.9454
1294.003, 185.9722
1295.931, 182.6902
1297.860, 178.5789
1299.788, 179.1142
1301.717, 181.8392
1303.645, 183.6580
1305.573, 186.8854
1307.502, 195.8489
1309.430, 200.5244
1311.359, 193.4707
1313.287, 190.2800
1315.216, 196.5208
1317.144, 202.1812
1319.073, 205.9081
1321.001, 207.3243
1322.930, 206.4218
1324.858, 210.2697
1326.787, 217.1877
1328.715, 218.2422
1330.644, 217.2926
1332.572, 220.6118
1334.500, 228.2008
1336.429, 245.0443
1338.357, 258.4292
1340.286, 257.4321
1342.214, 260.6070
1344.143, 276.9376
1346.071, 286.8950
1348.000, 285.2699
1349.928, 287.4718
1351.857, 295.1768
1353.785, 300.4274
1355.714, 303.7871
1357.642, 311.1288
1359.571, 319.1859
1361.499, 321.3930
1363.427, 319.4373
1365.356, 312.6278
1367.284, 306.4614
1369.213, 305.1548
1371.141, 304.0462
1373.070, 301.5973
1374.998, 301.1309
1376.927, 303.7617
1378.855, 298.8084
1380.784, 286.2509
1382.712, 275.0087
1384.641, 267.8754
1386.569, 280.1994
1388.498, 293.8907
1390.426, 273.2549
1392.354, 249.9703
1394.283, 255.3758
1396.211, 259.8709
1398.140, 248.0982
1400.068, 239.2335
1401.997, 236.7860
1403.925, 233.1072
1405.854, 227.8641
1407.782, 229.8646
1409.711, 236.2645
1411.639, 235.6284
1413.568, 230.7420
1415.496, 222.8586
1417.425, 217.4253
1419.353, 223.2834
1421.281, 226.0082
1423.210, 214.6593
1425.138, 208.9641
1427.067, 213.4563
1428.995, 212.5936
1430.924, 206.1777
1432.852, 205.6828
1434.781, 209.1218
1436.709, 211.1994
1438.638, 211.0519
1440.566, 204.8348
1442.495, 200.3101
1444.423, 203.8335
1446.352, 208.2250
1448.280, 215.3189
1450.208, 212.4727
1452.137, 196.9276
1454.065, 189.8291
1455.994, 189.9825
1457.922, 188.9057
1459.851, 187.6395
1461.779, 188.0165
1463.708, 189.1483
1465.636, 191.8744
1467.565, 192.3273
1469.493, 187.2644
1471.422, 183.7776
1473.350, 183.7337
1475.279, 180.9963
1477.207, 175.6727
1479.135, 166.1010
1481.064, 156.8814
1482.992, 158.6307
1484.921, 163.1235
1486.849, 165.4078
1488.778, 165.7151
1490.706, 161.8952
1492.635, 163.9630
1494.563, 176.0406
1496.492, 179.2069
1498.420, 174.8810
1500.349, 171.4137
1502.277, 168.1021
1504.206, 160.5292
1506.134, 158.0026
1508.063, 170.2435
1509.991, 178.0717
1511.919, 174.7320
1513.848, 169.0699
1515.776, 161.8980
1517.705, 162.0381
1519.633, 166.7149
1521.562, 166.4536
1523.490, 165.2188
1525.419, 169.3609
1527.347, 171.0992
1529.276, 165.4488
1531.204, 164.3234
1533.133, 170.9908
1535.061, 168.4975
1536.990, 158.2167
1538.918, 155.0340
1540.846, 157.9697
1542.775, 169.5477
1544.703, 180.0111
1546.632, 184.2485
1548.560, 180.6508
1550.489, 166.3998
1552.417, 168.6573
1554.346, 187.2688
1556.274, 188.8901
1558.203, 179.7144
1560.131, 169.6471
1562.060, 162.7644
1563.988, 164.7098
1565.917, 166.9945
1567.845, 167.1170
1569.773, 168.9513
1571.702, 172.8051
1573.630, 177.7647
1575.559, 182.4500
1577.487, 186.4400
1579.416, 184.8743
1581.344, 167.3663
1583.273, 153.9275
1585.201, 149.6087
1587.130, 154.7638
1589.058, 167.9287
1590.987, 170.9729
1592.915, 167.9013
1594.844, 167.6596
1596.772, 168.7294
1598.700, 170.7638
1600.629, 171.8122
1602.557, 171.0925
1604.486, 169.9256
1606.414, 168.6627
1608.343, 169.8167
1610.271, 172.9155
1612.200, 179.6787
1614.128, 183.3639
1616.057, 175.7340
1617.985, 171.3315
1619.914, 173.8269
1621.842, 175.3506
1623.771, 176.4070
1625.699, 185.7810
1627.627, 191.6318
1629.556, 173.0327
1631.484, 157.1374
1633.413, 159.0134
1635.341, 164.8969
1637.270, 175.1998
1639.198, 167.1028
1641.127, 148.8752
1643.055, 142.1294
1644.984, 143.2678
1646.912, 153.4325
1648.841, 162.0048
1650.769, 165.9744
1652.698, 165.6947
1654.626, 161.9140
1656.554, 161.9696
1658.483, 161.7412
1660.411, 152.3816
1662.340, 147.3884
1664.268, 155.4129
1666.197, 160.0533
1668.125, 158.8016
1670.054, 155.3530
1671.982, 151.6197
1673.911, 153.3071
1675.839, 155.3306
1677.768, 155.0225
1679.696, 152.4717
1681.625, 147.3980
1683.553, 141.7018
1685.481, 137.1193
1687.410, 141.5351
1689.338, 148.5113
1691.267, 153.5075
1693.195, 154.6819
1695.124, 150.6087
1697.052, 152.3407
1698.981, 158.7631
1700.909, 158.1857
1702.838, 154.7395
1704.766, 152.0685
1706.695, 152.0009
1708.623, 156.2072
1710.552, 153.9032
1712.480, 144.8733
1714.408, 135.4237
1716.337, 130.2784
1718.265, 139.6143
1720.194, 150.2830
1722.122, 159.5289
1724.051, 153.9113
1725.979, 136.1154
1727.908, 140.3370
1729.836, 152.4353
1731.765, 151.2192
1733.693, 148.4869
1735.622, 148.0754
1737.550, 153.4521
1739.479, 162.8186
1741.407, 158.1976
1743.335, 149.8487
1745.264, 154.3585
1747.192, 156.4564
1749.121, 147.8761
1751.049, 144.9082
1752.978, 148.1414
1754.906, 156.2547
1756.835, 163.0279
1758.763, 160.0822
1760.692, 154.6588
1762.620, 147.5912
1764.549, 147.6133
1766.477, 152.8553
1768.406, 152.5389
1770.334, 149.3067
1772.262, 142.3996
1774.191, 141.2282
1776.119, 151.6028
1778.048, 148.8044
1779.976, 137.4180
1781.905, 134.7538
1783.833, 134.7414
1785.762, 131.6614
1787.690, 132.8723
1789.619, 140.5266
1791.547, 144.1467
1793.476, 145.3640
1795.404, 149.1542
1797.333, 149.5082
1799.261, 139.0093
1801.189, 137.4610
1803.118, 145.7792
1805.046, 151.2022
1806.975, 152.7141
1808.903, 145.7562
1810.832, 143.9286
1812.760, 154.5140
1814.689, 157.8785
1816.617, 155.1131
1818.546, 153.8289
1820.474, 149.3428
1822.403, 135.4630
1824.331, 129.0398
1826.260, 134.1724
1828.188, 141.4378
1830.116, 148.1703
1832.045, 148.8095
1833.973, 144.4406
1835.902, 134.8142
1837.830, 128.7033
1839.759, 127.2740
1841.687, 136.9091
1843.616, 147.5935
1845.544, 152.9898
1847.473, 147.9155
1849.401, 131.7595
1851.330, 128.5289
1853.258, 132.8757
1855.187, 139.4141
1857.115, 141.4060
1859.043, 134.4684
1860.972, 133.8876
1862.900, 139.1962
1864.829, 139.3010
1866.757, 135.0652
1868.686, 123.7798
1870.614, 120.3102
1872.543, 127.2529
1874.471, 144.1248
1876.400, 157.9804
1878.328, 147.2418
1880.257, 138.6209
1882.185, 139.3204
1884.114, 143.0836
1886.042, 147.3535
1887.970, 147.8437
1889.899, 147.7508
1891.827, 149.8028
1893.756, 144.4376
1895.684, 132.8886
1897.613, 125.3075
1899.541, 123.4494
1901.470, 129.4822
1903.398, 135.0075
1905.327, 139.6879
1907.255, 133.4423
1909.184, 126.7793
1911.112, 134.1173
1913.041, 141.6503
1914.969, 147.1267
1916.897, 149.1301
1918.826, 146.2563
1920.754, 127.7000
1922.683, 117.5726
1924.611, 136.2984
1926.540, 141.3162
1928.468, 135.5517
1930.397, 126.3634
1932.325, 122.3325
1934.254, 132.1761
1936.182, 134.1330
1938.111, 129.0475
1940.039, 117.5242
1941.968, 112.2593
1943.896, 128.4466
1945.824, 135.3251
1947.753, 130.4888
1949.681, 126.9361
1951.610, 126.9788
1953.538, 130.3864
1955.467, 132.3718
1957.395, 134.0606
1959.324, 128.7666
1961.252, 121.0717
1963.181, 115.9181
1965.109, 120.0123
1967.038, 134.1431
1968.966, 131.5989
1970.895, 123.8868
1972.823, 124.0809
1974.751, 119.9736
1976.680, 109.8366
1978.608, 119.8588
1980.537, 133.0897
1982.465, 116.0922
1984.394, 110.3602
1986.322, 124.1462
1988.251, 127.9211
1990.179, 125.6621
1992.108, 123.5512
1994.036, 124.1694
1995.965, 126.3780
1997.893, 122.2052
1999.822, 118.1649
2001.750, 123.2103
2003.678, 121.3605
2005.607, 114.7765
2007.535, 115.6862
2009.464, 116.7622
2011.392, 107.6838
2013.321, 105.6473
2015.249, 114.4362
2017.178, 117.7268
2019.106, 115.8825
2021.035, 104.4602
2022.963, 101.5914
2024.892, 110.7845
2026.820, 116.3540
2028.749, 119.7500
2030.677, 123.5865
2032.605, 119.4405
2034.534, 111.1618
2036.462, 111.5152
2038.391, 114.7133
2040.319, 128.7655
2042.248, 126.6418
2044.176, 107.7345
2046.105, 108.2406
2048.033, 114.8016
2049.962, 118.3157
2051.890, 115.8785
2053.819, 108.7916
2055.747, 107.8245
2057.676, 111.5613
2059.604, 120.0076
2061.532, 114.5690
2063.461, 105.9847
2065.389, 109.3861
2067.318, 111.7144
2069.246, 112.4627
2071.175, 115.1794
2073.103, 116.6110
2075.032, 112.3115
2076.960, 107.1569
2078.889, 106.7020
2080.817, 111.2330
2082.746, 113.2707
2084.674, 113.6548
2086.603, 108.4523
2088.531, 97.82236
2090.459, 102.6721
2092.388, 108.0951
2094.316, 102.0221
2096.245, 103.2099
2098.173, 108.4823
2100.102, 108.5534
2102.030, 105.7573
2103.959, 102.2814
2105.887, 107.6784
2107.816, 115.7430
2109.744, 115.6009
2111.673, 118.8518
2113.601, 129.2269
2115.530, 129.5960
2117.458, 122.3080
2119.386, 114.8157
2121.315, 114.0339
2123.243, 115.1796
2125.172, 102.4113
2127.100, 95.75662
2129.029, 103.2526
2130.957, 108.1492
2132.886, 113.2152
2134.814, 118.3504
2136.743, 116.6235
2138.671, 110.0256
2140.600, 115.7589
2142.528, 119.5481
2144.457, 106.9773
2146.385, 100.1407
2148.313, 97.52131
2150.242, 95.50500
2152.170, 95.79531
2154.099, 104.1268
2156.027, 109.6351
2157.956, 111.3270
2159.884, 114.6287
2161.813, 111.7630
2163.741, 104.4854
2165.670, 103.9821
2167.598, 103.6071
2169.527, 98.73190
2171.455, 98.26903
2173.384, 97.76310
2175.312, 92.26843
2177.240, 94.01466
2179.169, 101.0648
2181.097, 97.56145
2183.026, 96.25690
2184.954, 102.3950
2186.883, 103.0233
2188.811, 100.2336
2190.740, 99.79021
2192.668, 98.09688
2194.597, 93.98854
2196.525, 96.24323
2198.454, 99.41826
2200.382, 97.13673
2202.311, 94.31867
2204.239, 93.69958
2206.167, 98.05323
2208.096, 99.79327
2210.024, 97.34151
2211.953, 99.96942
2213.881, 100.0434
2215.810, 89.80611
2217.738, 91.48553
2219.667, 99.68855
2221.595, 95.44303
2223.524, 93.92111
2225.452, 97.83922
2227.381, 97.03503
2229.309, 92.58974
2231.238, 83.17672
2233.166, 87.60054
2235.094, 98.70364
2237.023, 97.94781
2238.951, 96.11177
2240.880, 95.30305
2242.808, 95.12364
2244.737, 90.35988
2246.665, 77.19741
2248.594, 78.00368
2250.522, 84.86664
2252.451, 87.56480
2254.379, 85.71716
2256.308, 80.64029
2258.236, 74.83607
2260.165, 74.76312
2262.093, 82.60213
2264.021, 88.20697
2265.950, 90.86411
2267.878, 90.21219
2269.807, 86.35533
2271.735, 81.32510
2273.664, 81.52640
2275.592, 83.61964
2277.521, 85.35281
2279.449, 79.42786
2281.378, 77.89521
2283.306, 89.62077
2285.235, 89.94044
2287.163, 85.33884
2289.092, 82.66813
2291.020, 80.26623
2292.948, 78.42220
2294.877, 80.92696
2296.805, 80.54617
2298.734, 75.37837
2300.662, 80.04987
2302.591, 87.46043
2304.519, 90.06487
2306.448, 85.05173
2308.376, 81.09745
2310.305, 79.39091
2312.233, 83.25468
2314.162, 91.29740
2316.090, 82.29914
2318.019, 76.10473
2319.947, 84.17892
2321.875, 83.85005
2323.804, 81.54227
2325.732, 86.11600
2327.661, 83.95878
2329.589, 78.74966
2331.518, 73.77607
2333.446, 75.37103
2335.375, 81.51098
2337.303, 82.41446
2339.232, 76.23264
2341.160, 65.34875
2343.089, 66.87666
2345.017, 69.92107
2346.946, 72.20732
2348.874, 70.48886
2350.802, 69.31252
2352.731, 69.94073
2354.659, 76.91402
2356.588, 86.28882
2358.516, 80.71510
2360.445, 75.66158
2362.373, 72.17338
2364.302, 78.35548
2366.230, 83.45507
2368.159, 82.52875
2370.087, 78.59613
2372.016, 77.64785
2373.944, 83.23349
2375.873, 83.99454
2377.801, 75.88165
2379.729, 65.89353
2381.658, 71.34677
2383.586, 81.81513
2385.515, 79.75375
2387.443, 71.86664
2389.372, 69.25645
2391.300, 78.11700
2393.229, 74.37803
2395.157, 67.73582
2397.086, 72.25162
2399.014, 75.54089
2400.943, 74.74945
2402.871, 72.39533
2404.800, 72.20923
2406.728, 73.50024
2408.656, 71.79928
2410.585, 73.62512
2412.513, 80.92861
2414.442, 74.83675
2416.370, 66.77954
2418.299, 72.70365
2420.227, 78.25443
2422.156, 78.28185
2424.084, 81.51717
2426.013, 77.08547
2427.941, 68.99651
2429.870, 73.52927
2431.798, 77.16686
2433.727, 79.20426
2435.655, 80.79195
2437.583, 82.79958
2439.512, 80.05455
2441.440, 71.40814
2443.369, 70.28270
2445.297, 68.63128
2447.226, 66.11569
2449.154, 69.71235
2451.083, 74.94537
2453.011, 74.89371
2454.940, 69.31863
2456.868, 74.56516
2458.797, 74.71548
2460.725, 68.88322
2462.654, 71.70011
2464.582, 74.86720
2466.510, 72.27839
2468.439, 69.90298
2470.367, 70.23079
2472.296, 74.89817
2474.224, 76.77842
2476.153, 74.74330
2478.081, 78.07413
2480.010, 73.02558
2481.938, 76.19479
2483.867, 74.86519
2485.795, 73.81067
2487.724, 67.89692
2489.652, 59.31853
2491.581, 71.14304
2493.509, 70.25742
2495.438, 67.84563
2497.366, 67.34335
2499.294, 72.97407
2501.223, 82.96623
2503.151, 72.40662
2505.080, 65.28941
2507.008, 66.07466
2508.937, 57.22660
2510.865, 51.24471
2512.794, 50.75096
2514.722, 54.49482
2516.651, 62.77935
2518.579, 64.58275
2520.508, 62.82770
2522.436, 58.15017
2524.365, 54.62206
2526.293, 68.89345
2528.221, 60.03134
2530.150, 43.21257
2532.078, 57.59359
2534.007, 64.92438
2535.935, 58.34557
2537.864, 64.01170
2539.792, 67.51836
2541.721, 60.31558
2543.649, 58.62450
2545.578, 59.24615
2547.506, 63.91790
2549.435, 64.80263
2551.363, 57.78225
2553.292, 55.18140
2555.220, 57.07995
2557.148, 66.83086
2559.077, 70.17537
2561.005, 59.37197
2562.934, 56.40401
2564.862, 56.96690
2566.791, 55.82943
2568.719, 59.14366
2570.648, 61.81271
2572.576, 66.96809
2574.505, 64.10520
2576.433, 60.44201
2578.362, 61.48541
2580.290, 55.39624
2582.219, 56.81251
2584.147, 59.93464
2586.075, 55.15802
2588.004, 55.50542
2589.932, 61.25800
2591.861, 54.33334
2593.789, 51.24151
2595.718, 63.22038
2597.646, 60.26950
2599.575, 53.40624
2601.503, 52.98587
2603.432, 56.21246
2605.360, 58.63388
2607.289, 57.15321
2609.217, 64.66515
2611.146, 63.03804
2613.074, 52.22345
2615.002, 52.45267
2616.931, 50.95694
2618.859, 49.22324
2620.788, 46.17509
2622.716, 47.99389
2624.645, 52.38272
2626.573, 49.40720
2628.502, 49.40767
2630.430, 51.43348
2632.359, 53.41145
2634.287, 46.80686
2636.216, 43.24168
2638.144, 51.79644
2640.073, 53.72903
2642.001, 54.31217
2643.929, 55.98796
2645.858, 57.22085
2647.786, 55.38910
2649.715, 49.49016
2651.643, 48.61025
2653.572, 54.78482
2655.500, 72.93528
2657.429, 58.93896
2659.357, 50.42075
2661.286, 53.66481
2663.214, 55.16745
2665.143, 54.62587
2667.071, 53.70076
2669.000, 62.19595
2670.928, 55.22608
2672.856, 40.44602
2674.785, 51.99350
2676.713, 51.32881
2678.642, 44.17708
2680.570, 48.94277
2682.499, 49.28226
2684.427, 47.75960
2686.356, 47.55016
2688.284, 51.50227
2690.213, 51.51217
2692.141, 46.32708
2694.070, 46.65951
2695.998, 42.05646
2697.927, 33.65610
2699.855, 41.88836
2701.783, 46.49469
2703.712, 45.47401
2705.640, 42.62443
2707.569, 43.89006
2709.497, 46.72503
2711.426, 46.65551
2713.354, 47.82927
2715.283, 48.01471
2717.211, 44.54624
2719.140, 48.72307
2721.068, 49.07146
2722.997, 40.90840
2724.925, 30.95803
2726.854, 33.66507
2728.782, 45.41254
2730.710, 46.71114
2732.639, 44.44561
2734.567, 42.36078
2736.496, 44.22769
2738.424, 45.16988
2740.353, 45.55259
2742.281, 40.96552
2744.210, 40.98540
2746.138, 44.31551
2748.067, 47.03199
2749.995, 49.14251
2751.924, 50.35996
2753.852, 52.83612
2755.781, 51.75544
2757.709, 51.53188
2759.637, 50.39589
2761.566, 41.42670
2763.494, 34.05401
2765.423, 33.55367
2767.351, 48.02055
2769.280, 39.17931
2771.208, 29.19838
2773.137, 36.18525
2775.065, 34.75860
2776.994, 35.43224
2778.922, 36.42789
2780.851, 31.84676
2782.779, 31.35217
2784.708, 36.25293
2786.636, 45.62672
2788.564, 36.35114
2790.493, 28.97939
2792.421, 34.93594
2794.350, 34.83600
2796.278, 31.40095
2798.207, 35.18749
2800.135, 44.04136
2802.064, 39.24900
2803.992, 30.94079
2805.921, 26.03308
2807.849, 23.93662
2809.778, 26.81194
2811.706, 34.50611
2813.635, 27.87569
2815.563, 31.92552
2817.491, 42.47824
2819.420, 33.36811
2821.348, 31.66516
2823.277, 34.43609
2825.205, 30.04424
2827.134, 26.96050
2829.062, 26.84216
2830.991, 25.37534
2832.919, 23.05147
2834.848, 27.80874
2836.776, 35.35409
2838.705, 21.76207
2840.633, 24.39334
2842.562, 33.47490
2844.490, 30.22331
2846.418, 26.84763
2848.347, 30.98589
2850.275, 42.12937
2852.204, 41.84362
2854.132, 37.46994
2856.061, 29.53877
2857.989, 16.31705
2859.918, 28.69992
2861.846, 33.88720
2863.775, 30.37139
2865.703, 23.99712
2867.632, 22.40165
2869.560, 22.76184
2871.489, 19.42873
2873.417, 28.99560
2875.345, 34.62135
2877.274, 30.69953
2879.202, 28.07356
2881.131, 31.03001
2883.059, 24.76045
2884.988, 17.84277
2886.916, 25.40265
2888.845, 34.98540
2890.773, 43.30365
2892.702, 28.33979
2894.630, 25.17527
2896.559, 39.97961
2898.487, 37.42521
2900.416, 26.88410
2902.344, 24.05845
2904.272, 32.01427
2906.201, 32.14329
2908.129, 30.27907
2910.058, 25.96588
2911.986, 35.99200
2913.915, 41.15883
2915.843, 32.44641
2917.772, 15.76345
2919.700, 15.47601
2921.629, 23.36016
2923.557, 28.65270
2925.486, 25.65800
2927.414, 21.20803
2929.343, 22.66543
2931.271, 26.38353
2933.199, 25.35528
2935.128, 27.29750
2937.056, 29.28117
2938.985, 22.88229
2940.913, 19.56728
2942.842, 30.37329
2944.770, 27.83301
2946.699, 21.67305
2948.627, 28.78407
2950.556, 36.02488
2952.484, 34.09669
2954.413, 28.08347
2956.341, 19.84125
2958.270, 18.10529
2960.198, 25.40234
2962.126, 21.64195
2964.055, 7.840940
2965.983, 8.641431
2967.912, 14.44428
2969.840, 12.08445
2971.769, 16.87080
2973.697, 22.27886
2975.626, 21.57149
2977.554, 15.79911
2979.483, 9.966492
2981.411, 25.42152
2983.340, 26.71514
2985.268, 19.83538
2987.197, 15.96718
2989.125, 14.73619
2991.053, 23.10198
2992.982, 24.73911
2994.910, 5.122509
2996.839, 4.539325
2998.767, 12.13685
3000.696, 13.92530
3002.624, 15.57073
3004.553, 11.38591
3006.481, 12.01162
3008.410, 19.19244
3010.338, 22.10507
3012.267, 17.75687
3014.195, 19.74344
3016.124, 19.82601
3018.052, 14.93499
3019.980, 9.604742
3021.909, 4.284360
3023.837, 20.53499
3025.766, 28.53905
3027.694, 25.06034
3029.623, 10.64640
3031.551, 6.642468
3033.480, 11.88957
3035.408, 20.56583
3037.337, 10.80729
3039.265, 20.83313
3041.194, 32.18918
3043.122, 23.88662
3045.051, 19.84835
3046.979, 19.35217
3048.907, 16.52316
3050.836, 12.64926
3052.764, 18.91426
3054.693, 16.47392
3056.621, 13.66944
3058.550, 17.33398
3060.478, 21.28040
3062.407, 17.89701
3064.335, 7.473165
3066.264, 1.395802
3068.192, 14.12719
3070.121, 16.67747
3072.049, 2.829098
3073.978, 4.686915
3075.906, 1.596506
3077.834, 0.3280091
3079.763, 0.7824094
3081.691, 3.769409
3083.620, 21.54496
3085.548, 24.83927
3087.477, 7.106866
3089.405, 10.14400
3091.334, 5.994934
3093.262, -0.9968910
3095.191, -5.939411
3097.119, 5.022947
3099.048, 16.26622
3100.976, 21.20583
3102.905, 15.85536
3104.833, 0.5012373
3106.761, -0.3486601
3108.690, 3.955681
3110.618, 3.280314
3112.547, 14.60835
3114.475, 9.148394
3116.404, -2.286124
3118.332, -5.414746
3120.261, 1.554455
3122.189, 5.874988
3124.118, 1.205400
3126.046, -16.35026
3127.975, -11.03210
3129.903, 4.002294
3131.832, 9.624866
3133.760, -6.240560
3135.688, 10.26439
3137.617, 15.52442
3139.545, 3.953234
3141.474, -19.91506
3143.402, -4.496344
3145.331, 16.90327
3147.259, 22.74740
3149.188, 1.543326
3151.116, -2.330808
3153.045, 6.539635
3154.973, 12.61297
3156.902, 5.618636
3158.830, 7.486458
3160.759, 4.256430
3162.687, 0.7679265
3164.615, 1.035699
3166.544, -2.258998
3168.472, 5.970278
3170.401, 10.72174
3172.329, 4.585181
3174.258, 7.287996
3176.186, 22.70513
3178.115, 26.10788
3180.043, 9.133130
3181.972, -8.802634
3183.900, -0.5647531
3185.829, 7.098346
3187.757, 3.033250
3189.686, -3.806041
3191.614, 2.012528
3193.542, 4.100370
3195.471, -0.3543626
3197.399, -1.990167
3199.328, 9.794860
3201.256, 5.687458
3203.185, -8.178978
3205.113, -10.10323
3207.042, -1.990690
3208.970, 0.6966003
3210.899, -1.631217
3212.827, -3.119972
3214.756, -10.30758
3216.684, -3.683839
3218.613, 4.039580
3220.541, -0.6914470
3222.469, 0.8412960
3224.398, -5.793038
3226.326, 1.9878470E-03
3228.255, 15.00069
3230.183, -6.354703
3232.112, -1.907017
3234.040, 5.759027
3235.969, 5.005361
3237.897, 3.763333
3239.826, 0.2646797
3241.754, -7.132041
3243.683, -10.39535
3245.611, -8.533879
3247.540, -10.20309
3249.468, -10.59289
3251.396, -13.05853
3253.325, -13.34788
3255.253, -10.69119
3257.182, -9.384003
3259.110, -8.879415
3261.039, -13.17976
3262.967, -12.80123
3264.896, 4.085912
3266.824, 9.046167
3268.753, 0.1708214
3270.681, -13.11292
3272.610, -10.07043
3274.538, 9.619484
3276.467, 10.31381
3278.395, -8.755069
3280.323, 8.185219
3282.252, 5.970626
3284.180, 3.262946
3286.109, 2.064693
3288.037, -7.140694
3289.966, 14.12970
3291.894, 5.261271
3293.823, -13.92619
3295.751, -16.06152
3297.680, -1.827045
3299.608, 2.906306
3301.537, -3.615304
3303.465, -7.635539
3305.394, 2.139823
3307.322, 14.69100
3309.250, 2.105382
3311.179, -6.049489
3313.107, 4.798141
3315.036, 3.714686
3316.964, -4.310832
3318.893, -6.254700
3320.821, -3.790675
3322.750, -5.802773
3324.678, -4.367086
3326.607, 1.394705
3328.535, 9.058933
3330.464, 18.67805
3332.392, 39.12844
3334.321, 22.73107
3336.249, 12.14612
3338.177, 10.98687
3340.106, 6.260163
3342.034, -15.00736
3343.963, -16.95262
3345.891, -11.79505
3347.820, -7.851332
3349.748, 7.728136
3351.677, 3.843004
3353.605, 10.77153
3355.534, 6.555943
3357.462, -13.43663
3359.391, -8.808449
3361.319, -5.904342
3363.248, 1.130283
3365.176, 0.9952075
3367.104, -11.95092
3369.033, 5.045535
3370.961, -5.663846
3372.890, -6.465449
3374.818, 4.316970
3376.747, -1.069858
3378.675, -12.76399
3380.604, -10.28933
3382.532, -7.970943
3384.461, -11.60693
3386.389, -17.46128
3388.318, -7.833005
3390.246, -5.649554
3392.175, -5.871504
3394.103, -4.354894
3396.031, -5.181767
3397.960, -8.167109
3399.888, -2.544126
3401.817, -1.748806
3403.745, -12.51751
3405.674, -12.71979
3407.602, 2.804716
3409.531, 12.24961
3411.459, 0.7498759
3413.388, -24.56969
3415.316, 3.085526
3417.245, -4.5577791E-02
3419.173, 1.033468
3421.102, 5.113996
3423.030, -2.740839
3424.958, -14.19649
3426.887, 5.381269
3428.815, 15.81867
3430.744, 12.26064
3432.672, 8.135091
3434.601, 8.909095
3436.529, -6.135344
3438.458, -13.82969
3440.386, -12.92799
3442.315, -11.90358
3444.243, -6.946620
3446.172, -18.55924
3448.100, -21.37826
3450.029, -9.061892
3451.957, 8.368864
3453.885, -4.467582
3455.814, -15.03430
3457.742, -22.11537
3459.671, -20.60332
3461.599, -10.78711
3463.528, -18.41459
3465.456, 7.798625
3467.385, 7.797761
3469.313, -7.404182
3471.242, -13.78419
3473.170, -7.221196
3475.099, 1.727746
3477.027, -5.707972
3478.956, -6.087281
3480.884, 7.570747
3482.813, 12.93375
3484.741, 7.968882
3486.669, -7.185326
3488.598, 0.8628131
3490.526, 16.90888
3492.455, -1.809051
3494.383, -5.076927
3496.312, -4.933175
3498.240, -1.176329
3500.169, -2.412810
3502.097, -12.56998
3504.026, -6.961050
3505.954, -2.153713
3507.883, -7.464956
3509.811, -16.35126
3511.740, -18.94487
3513.668, -9.388994
3515.596, -7.228963
3517.525, -12.21596
3519.453, -8.547207
3521.382, -0.7795625
3523.310, -2.704622
3525.239, 2.414059
3527.167, 6.233787
3529.096, -1.757483
3531.024, -4.060036
3532.953, 6.429980
3534.881, -4.296529
3536.810, 0.8126841
3538.738, 7.412394
3540.667, 4.084984
3542.595, -4.176428
3544.523, -4.490977
3546.452, 6.884710
3548.380, -12.64001
3550.309, -0.8260609
3552.237, 8.935578
3554.166, -7.109727
3556.094, 4.041126
3558.023, 2.681779
3559.951, -9.841534
3561.880, -3.722964
3563.808, 19.56388
3565.737, 36.04786
3567.665, 19.59800
3569.594, 3.673048
3571.522, 4.478698
3573.450, 2.204944
3575.379, -2.115075
3577.307, 10.64372
3579.236, 9.603565
3581.164, 0.3611386
3583.093, 0.4122652
3585.021, 3.834867
3586.950, 4.221682
3588.878, 4.703172
3590.807, -6.435041
3592.735, -13.89151
3594.664, -14.18859
3596.592, -7.933047
3598.521, -0.5351080
3600.449, -1.586017
3602.377, 6.562564
3604.306, -10.48565
3606.234, -23.05848
3608.163, -18.44572
3610.091, -5.704405
3612.020, -1.892269
3613.948, -17.08026
3615.877, -5.243454
3617.805, -3.975286
3619.734, -14.18294
3621.662, -13.85273
3623.591, 15.85683
3625.519, -2.473645
3627.448, -35.49410
3629.376, -24.24183
3631.304, -3.852024
3633.233, -10.67714
3635.161, -2.254881
3637.090, 17.86058
3639.018, -9.274112
3640.947, -9.9793263E-03
3642.875, 3.502584
3644.804, -28.17495
3646.732, -28.07200
3648.661, -24.12989
3650.589, -16.89548
3652.518, -10.45409
3654.446, -22.65389
3656.375, -27.51483
3658.303, 11.05935
3660.231, -34.01228
3662.160, -9.721788
3664.088, -26.89817
3666.017, -23.24783
3667.945, -2.846246
3669.874, -11.75430
3671.802, 12.43130
3673.731, -2.147618
3675.659, -16.76923
3677.588, -16.35410
3679.516, -3.591223
3681.445, 9.583058
3683.373, 9.509048
3685.302, -12.75842
3687.230, -32.24264
3689.158, -35.70179
3691.087, -34.82581
3693.015, -23.38275
3694.944, 2.186547
3696.872, -19.72294
3698.801, -19.07321
3700.729, -14.93941
3702.658, -19.21741
3704.586, -21.70470
3706.515, -16.79220
3708.443, -13.27633
3710.372, -23.42844
3712.300, -9.990750
3714.229, -12.85695
3716.157, -23.38740
3718.085, -14.18475
3720.014, 7.092808
3721.942, -9.062143
3723.871, -1.425046
3725.799, -14.06125
3727.728, -14.39267
3729.656, -6.552948
3731.585, -12.85402
3733.513, -29.35140
3735.442, -11.27987
3737.370, -4.207277
3739.299, -7.620946
3741.227, -12.23808
3743.156, -12.57755
3745.084, -11.19317
3747.012, -12.96483
3748.941, -17.59603
3750.869, -15.98589
3752.798, -6.807470
3754.726, 8.802626
3756.655, 2.842495
3758.583, 3.917073
3760.512, 21.90496
3762.440, -5.688829
3764.369, -0.8884426
3766.297, -1.878919
3768.226, -12.57846
3770.154, 8.788233
3772.083, 10.33452
3774.011, -19.31950
3775.939, -1.900545
3777.868, -29.79337
3779.796, -28.43317
3781.725, -17.31055
3783.653, -15.97585
3785.582, -14.59180
3787.510, -11.50845
3789.439, -11.98393
3791.367, -3.278047
3793.296, -25.73536
3795.224, -2.755422
3797.153, -8.921174
3799.081, -23.44859
3801.010, -23.92732
3802.938, -17.56873
3804.866, -17.64309
3806.795, -20.45005
3808.723, -11.60026
3810.652, -15.62560
3812.580, -7.474208
3814.509, -15.74390
3816.437, -26.39816
3818.366, -15.23009
3820.294, -11.57283
3822.223, -16.56471
3824.151, 4.943779
3826.080, -11.44628
3828.008, -4.307693
3829.937, 0.3414361
3831.865, -11.12953
3833.793, -12.08289
3835.722, 8.826672
3837.650, -2.325188
3839.579, 0.2364586
3841.507, 9.212672
3843.436, 3.563136
3845.364, -4.784223
3847.293, -15.75326
3849.221, -26.08150
3851.150, -10.24724
3853.078, -16.06742
3855.007, -15.73939
3856.935, -2.837468
3858.864, -18.70570
3860.792, -26.39487
3862.720, -12.19842
3864.649, -3.946096
3866.577, -21.36435
3868.506, -29.70483
3870.434, -9.068185
3872.363, -18.28861
3874.291, -3.114050
3876.220, -6.789640
3878.148, -21.61843
3880.077, -30.18117
3882.005, -31.89974
3883.934, -24.16570
3885.862, -19.68338
3887.791, 6.072089
3889.719, 6.644718
3891.647, 0.9228571
3893.576, -5.335155
3895.504, -14.34735
3897.433, -21.01647
3899.361, -21.05918
3901.290, -22.27018
3903.218, -27.86330
3905.147, -17.94471
3907.075, -7.458205
3909.004, 2.525070
3910.932, -11.89773
3912.861, -27.76938
3914.789, -22.08655
3916.718, -10.18941
3918.646, -20.78006
3920.574, -27.05436
3922.503, -10.54309
3924.431, -26.63731
3926.360, -16.49979
3928.288, -12.52855
3930.217, -31.62330
3932.145, -33.33990
3934.074, -14.12121
3936.002, -16.21340
3937.931, -18.63903
3939.859, -25.17509
3941.788, -25.58825
3943.716, -18.72249
3945.645, -27.04815
3947.573, -12.41533
3949.501, -7.188925
3951.430, -18.52036
3953.358, -16.56579
3955.287, -5.753125
3957.215, -25.15108
3959.144, -29.37664
3961.072, -7.455888
3963.001, -14.48724
3964.929, -16.59957
3966.858, -10.63384
3968.786, -25.79792
3970.715, -36.55821
3972.643, -24.96791
3974.572, -22.28258
3976.500, -29.86687
3978.428, -15.35827
3980.357, -15.36973
3982.285, -15.24290
3984.214, 5.555676
3986.142, -29.86670
3988.071, -12.97940
3989.999, -0.1291959
3991.928, -22.43193
3993.856, -20.69370
3995.785, -4.174376
3997.713, -2.249256
3999.642, -18.30243
4001.570, -34.96716
4003.499, -15.99997
4005.427, -29.87973
4007.355, -10.98644
4009.284, -18.73752
4011.212, -30.56456
4013.141, -22.25720
4015.069, -22.41364
4016.998, -30.71172
4018.926, -3.926768
4020.855, -1.288808
4022.783, -5.629958
4024.712, -16.14325
4026.640, -11.11456
4028.569, -6.470190
4030.497, -13.37553
4032.426, -14.88135
4034.354, -12.00757
4036.282, -18.65581
4038.211, -28.91603
4040.139, -21.79127
4042.068, -7.903459
4043.996, -26.76163
4045.925, 15.90354
4047.853, -12.85654
4049.782, -22.87903
4051.710, -22.12828
4053.639, 0.4681655
4055.567, 8.507374
4057.496, -10.87740
4059.424, -21.86127
4061.353, -12.79404
4063.281, -19.80184
4065.209, -46.43942
4067.138, -17.02196
4069.066, -37.05727
4070.995, -18.70802
4072.923, 22.64200
4074.852, -1.158073
4076.780, -12.74466
4078.709, -17.14755
4080.637, -20.89296
4082.566, -12.13490
4084.494, -23.91161
4086.423, -34.61376
4088.351, -9.061653
4090.280, 4.185611
4092.208, -24.32687
4094.136, -17.71439
4096.065, -14.65976
4097.993, -13.89120
4099.922, -22.82288
4101.851, -16.20612
4103.779, 5.293993
4105.707, -11.12644
4107.636, -26.58315
4109.564, -30.71902
4111.493, -14.41942
4113.421, 5.456453
4115.350, 5.628361
4117.278, -6.575363
4119.207, -14.65641
4121.135, -12.66295
4123.063, -4.702016
4124.992, -9.582347
4126.920, -17.59863
4128.849, -27.98499
4130.777, -27.78904
4132.706, -30.26973
4134.634, -32.55027
4136.563, -5.741454
4138.491, 8.057368
4140.420, -3.839423
4142.348, -14.26026
4144.276, -20.22180
4146.205, -30.00909
4148.134, -33.94510
4150.062, -21.80650
4151.990, -16.54127
4153.919, -39.18338
4155.848, -25.10049
4157.776, -39.44041
4159.704, -20.27231
4161.633, -29.02733
4163.562, -38.06290
4165.490, -3.449185
4167.418, -21.01859
4169.347, -6.537752
4171.275, -4.485672
4173.204, -9.274207
4175.132, -9.953870
4177.061, -5.943023
4178.989, -7.633181
4180.917, -7.278215
4182.846, -5.008070
4184.774, -17.88979
4186.703, -28.99672
4188.631, -18.95820
4190.560, -20.56765
4192.488, -10.48387
4194.417, -13.35240
4196.345, -28.11346
4198.273, -5.606536
4200.202, -18.91184
4202.131, -17.77803
4204.059, -22.38391
4205.987, -12.96331
4207.916, -19.95954
4209.845, -17.31209
4211.773, -28.98186
4213.701, -26.46700
4215.630, -10.97061
4217.559, -20.50442
4219.487, -40.87819
4221.415, -27.90486
4223.344, -27.15463
4225.272, -21.40497
4227.201, 1.256759
4229.129, -20.07757
4231.058, -42.08873
4232.986, -17.35559
4234.915, -5.535379
4236.843, -27.03272
4238.771, -25.99271
4240.700, -25.82895
4242.628, -1.271765
4244.557, -37.25556
4246.485, -24.25668
4248.414, -17.20753
4250.342, 6.242092
4252.271, -10.63624
4254.199, -24.97752
4256.128, -11.82580
4258.056, -26.89678
4259.984, 2.906163
4261.913, -2.109240
4263.842, -14.29585
4265.770, -38.69451
4267.698, -43.54103
4269.627, -46.61072
4271.556, -33.57342
4273.484, -14.73364
4275.412, -17.04251
4277.341, -14.38723
4279.270, -15.52240
4281.198, -27.05373
4283.126, -8.967137
4285.055, -7.590352
4286.983, -29.37176
4288.912, -12.28605
4290.840, -4.536202
4292.769, -16.14608
4294.697, -18.37031
##END=



