##NAMES=Hematite
##RRUFFID=R110013
##IDEAL CHEMISTRY=Fe_2_O_3_
##LOCALITY=Itabira, Minas Gerais, Brazil
##OWNER=RRUFF
##SOURCE=University of Arizona Mineral Museum
##DESCRIPTION=A group of black lustrous euhedral crystals
##STATUS=The identification of this mineral is confirmed by single-crystal X-ray diffraction and chemical analysis
##URL=https://www.rruff.net/odr/rruff_sample/R110013
##MEASURED CHEMISTRY=Fe_2_O_3_ ; (Pure phase as determined by WDS analysis)
##DIFFRACTION SAMPLE DESCRIPTION=Single crystal, powder profile is calculated
##CELL PARAMETERS=a: 5.034 b: 5.034 c: 13.748 alpha: 90 beta: 90 gamma: 120 volume: 301.67 crystal system: hexagonal
##FILETYPE=Raman RAW
##RAMAN WAVELENGTH=532

168.2444, 22.82323
170.1729, 22.19512
172.1013, 21.60883
174.0298, 21.97088
175.9583, 22.63184
177.8867, 23.28335
179.8152, 24.07630
181.7437, 24.60262
183.6721, 24.63882
185.6006, 24.18077
187.5291, 23.97570
189.4576, 24.20968
191.3860, 24.55365
193.3145, 24.77285
195.2430, 24.70353
197.1714, 24.77187
199.0999, 25.11789
201.0284, 25.72868
202.9568, 26.29735
204.8853, 26.46655
206.8138, 26.76465
208.7422, 27.62880
210.6707, 28.24726
212.5992, 30.34752
214.5276, 30.39750
216.4561, 30.59147
218.3846, 42.50732
220.3130, 78.17482
222.2415, 119.2186
224.1700, 157.6017
226.0984, 200.3485
228.0269, 227.6219
229.9554, 220.6862
231.8838, 183.8145
233.8123, 149.5764
235.7408, 114.3566
237.6692, 85.15210
239.5977, 71.79124
241.5262, 77.78186
243.4546, 86.84982
245.3831, 95.78049
247.3116, 103.9433
249.2400, 104.7536
251.1685, 92.48219
253.0970, 76.15767
255.0254, 61.91722
256.9539, 50.01815
258.8824, 41.01658
260.8108, 35.98550
262.7393, 34.25467
264.6678, 33.26338
266.5962, 32.63645
268.5247, 32.58126
270.4532, 33.05044
272.3816, 34.04258
274.3101, 35.75525
276.2386, 37.30466
278.1670, 39.96193
280.0955, 44.62142
282.0240, 47.99272
283.9524, 58.13111
285.8809, 80.76017
287.8094, 116.8254
289.7378, 152.6951
291.6663, 194.8747
293.5948, 233.0605
295.5232, 255.4535
297.4517, 246.6923
299.3802, 229.4446
301.3086, 203.6802
303.2371, 171.8549
305.1656, 140.9061
307.0940, 113.8815
309.0225, 90.79480
310.9510, 72.56947
312.8794, 60.24467
314.8079, 50.89793
316.7364, 44.48707
318.6648, 40.23321
320.5933, 37.06909
322.5218, 34.97377
324.4502, 33.31682
326.3787, 32.08548
328.3072, 31.29019
330.2356, 30.68189
332.1641, 30.19318
334.0926, 29.73614
336.0210, 29.23913
337.9495, 28.45608
339.8780, 27.85919
341.8064, 27.65806
343.7349, 27.73842
345.6634, 27.73681
347.5918, 27.60641
349.5203, 27.56708
351.4488, 27.67834
353.3772, 27.85287
355.3057, 27.97421
357.2342, 28.08485
359.1626, 28.24298
361.0911, 28.51621
363.0196, 28.90101
364.9480, 29.24444
366.8765, 29.53616
368.8050, 29.84461
370.7334, 30.28836
372.6619, 30.92686
374.5904, 31.52348
376.5188, 31.90499
378.4473, 32.00242
380.3758, 32.26284
382.3042, 32.66539
384.2327, 33.17923
386.1612, 33.82438
388.0896, 34.47506
390.0181, 35.53179
391.9466, 37.12215
393.8750, 39.32521
395.8035, 42.16245
397.7320, 44.61338
399.6604, 48.55865
401.5889, 55.60888
403.5174, 67.81361
405.4458, 82.76693
407.3743, 104.0382
409.3028, 128.6519
411.2312, 149.3101
413.1597, 162.0190
415.0882, 165.8208
417.0166, 159.5573
418.9451, 138.6401
420.8736, 116.1018
422.8020, 94.79323
424.7305, 77.33754
426.6590, 63.59626
428.5874, 54.20594
430.5159, 47.56059
432.4444, 43.66687
434.3728, 41.60019
436.3013, 39.68778
438.2298, 37.51916
440.1582, 35.76201
442.0867, 34.71100
444.0152, 34.47691
445.9436, 34.16869
447.8721, 33.61178
449.8006, 33.02302
451.7290, 32.59285
453.6575, 32.48785
455.5860, 32.52294
457.5144, 32.57648
459.4429, 32.56329
461.3714, 32.53739
463.2998, 32.57418
465.2283, 32.69854
467.1568, 32.91162
469.0852, 33.15063
471.0137, 33.42040
472.9422, 33.83142
474.8706, 34.40092
476.7991, 35.13591
478.7276, 35.84854
480.6560, 36.67109
482.5845, 37.33659
484.5130, 38.37128
486.4414, 40.30672
488.3699, 44.13541
490.2984, 48.53186
492.2268, 53.42770
494.1553, 58.71883
496.0838, 64.84379
498.0122, 72.06364
499.9407, 77.66552
501.8692, 80.87826
503.7976, 81.22034
505.7261, 79.63064
507.6546, 75.54298
509.5830, 70.52515
511.5115, 65.03684
513.4399, 59.43855
515.3684, 54.71056
517.2969, 51.03113
519.2253, 48.14882
521.1538, 45.74768
523.0823, 43.56041
525.0107, 41.83617
526.9392, 40.91404
528.8677, 40.61798
530.7961, 40.13654
532.7246, 39.17056
534.6531, 38.38120
536.5815, 38.19909
538.5100, 38.53125
540.4385, 38.70060
542.3669, 38.40481
544.2954, 38.02515
546.2239, 37.85340
548.1523, 38.13730
550.0808, 38.38102
552.0093, 38.53883
553.9377, 38.63192
555.8662, 38.71344
557.7947, 38.68578
559.7231, 38.90874
561.6516, 39.56721
563.5801, 40.58989
565.5085, 41.48311
567.4370, 42.22189
569.3655, 42.79020
571.2939, 43.05520
573.2224, 43.17077
575.1509, 43.47509
577.0793, 44.10285
579.0078, 44.73513
580.9363, 45.23905
582.8647, 45.68731
584.7932, 46.15853
586.7217, 46.53039
588.6501, 46.98090
590.5786, 47.63213
592.5071, 48.56312
594.4355, 49.85295
596.3640, 51.16624
598.2925, 52.98535
600.2209, 55.77811
602.1494, 59.49015
604.0779, 64.57834
606.0063, 71.72925
607.9348, 80.15340
609.8633, 88.54722
611.7917, 98.66859
613.7202, 105.6625
615.6487, 108.0061
617.5771, 105.8601
619.5056, 101.0140
621.4341, 91.58359
623.3625, 82.30466
625.2910, 73.87965
627.2195, 66.75150
629.1479, 61.41116
631.0764, 58.39560
633.0049, 56.38346
634.9333, 54.83305
636.8618, 53.71920
638.7903, 52.90594
640.7188, 52.39577
642.6472, 52.13567
644.5757, 52.17487
646.5042, 52.55869
648.4326, 53.01804
650.3611, 53.48846
652.2896, 54.06644
654.2180, 54.86502
656.1465, 56.08612
658.0750, 57.06010
660.0034, 57.73717
661.9319, 58.12677
663.8604, 58.25255
665.7888, 58.10615
667.7173, 57.82787
669.6458, 57.40685
671.5742, 56.87276
673.5027, 56.30726
675.4312, 55.69683
677.3596, 55.07699
679.2881, 54.43746
681.2166, 53.77776
683.1450, 53.15051
685.0735, 52.53665
687.0020, 52.00798
688.9304, 51.52930
690.8589, 51.09639
692.7874, 50.92039
694.7158, 51.33396
696.6443, 51.63413
698.5728, 51.45052
700.5012, 50.86736
702.4297, 50.38533
704.3582, 50.11068
706.2866, 49.89356
708.2151, 49.66404
710.1436, 49.40942
712.0720, 49.22682
714.0005, 49.15208
715.9290, 49.13842
717.8574, 49.16504
719.7859, 49.20668
721.7144, 49.09460
723.6428, 48.52961
725.5713, 48.00573
727.4998, 47.83458
729.4282, 48.19913
731.3567, 48.52924
733.2852, 48.88765
735.2136, 49.14040
737.1421, 49.08384
739.0706, 48.58656
740.9990, 48.58663
742.9275, 49.68318
744.8560, 51.20353
746.7844, 52.41254
748.7129, 53.08671
750.6414, 53.73368
752.5698, 54.50508
754.4983, 55.27435
756.4268, 55.78314
758.3552, 55.91434
760.2837, 55.93754
762.2122, 55.82534
764.1406, 55.86321
766.0691, 56.05853
767.9976, 56.33580
769.9260, 56.63637
771.8545, 57.08951
773.7830, 57.58558
775.7114, 57.87538
777.6399, 57.83870
779.5684, 57.95548
781.4968, 58.37674
783.4253, 58.97992
785.3538, 59.63079
787.2822, 60.25624
789.2107, 61.14396
791.1392, 62.54172
793.0676, 64.18652
794.9961, 65.61038
796.9246, 66.61181
798.8530, 67.94498
800.7815, 69.92014
802.7100, 72.21371
804.6384, 74.36366
806.5669, 76.30576
808.4954, 78.17741
810.4238, 80.04569
812.3523, 81.91934
814.2808, 83.74161
816.2092, 85.66026
818.1377, 87.16996
820.0662, 88.07262
821.9946, 88.56421
823.9231, 88.95373
825.8516, 89.19803
827.7800, 88.97720
829.7085, 87.95436
831.6370, 86.84077
833.5654, 86.06313
835.4939, 85.65623
837.4224, 84.95078
839.3508, 83.56936
841.2793, 82.23687
843.2078, 81.44490
845.1362, 81.04141
847.0647, 80.53269
848.9932, 79.97095
850.9216, 79.72350
852.8501, 79.20715
854.7786, 78.03835
856.7070, 77.02666
858.6355, 76.82408
860.5640, 77.02905
862.4924, 76.82335
864.4209, 75.96309
866.3494, 75.21110
868.2778, 74.78984
870.2063, 74.69016
872.1348, 74.88175
874.0632, 75.50574
875.9917, 76.02026
877.9202, 76.02245
879.8486, 75.90965
881.7771, 76.20464
883.7056, 76.77657
885.6340, 77.40075
887.5625, 78.14890
889.4910, 78.63598
891.4194, 79.45389
893.3479, 79.71770
895.2764, 80.11679
897.2048, 80.67986
899.1333, 80.93725
901.0618, 81.24026
902.9902, 81.89314
904.9187, 82.51277
906.8472, 82.92909
908.7756, 83.20972
910.7041, 83.41280
912.6326, 83.41260
914.5610, 83.61382
916.4895, 84.14858
918.4180, 84.70084
920.3464, 84.92274
922.2749, 85.12211
924.2034, 85.41035
926.1318, 85.73596
928.0603, 86.05036
929.9888, 86.42512
931.9172, 86.81312
933.8457, 87.22994
935.7742, 87.71255
937.7026, 88.40177
939.6311, 89.43059
941.5596, 90.65598
943.4880, 91.80911
945.4165, 92.73079
947.3450, 93.54598
949.2734, 94.42576
951.2019, 95.68802
953.1304, 97.21349
955.0588, 98.64443
956.9873, 99.67104
958.9158, 100.2035
960.8442, 100.3002
962.7727, 100.1978
964.7012, 99.73598
966.6296, 99.20216
968.5581, 99.18963
970.4866, 99.94280
972.4150, 99.96026
974.3435, 97.89828
976.2720, 95.69724
978.2004, 94.41369
980.1289, 94.25745
982.0574, 94.64303
983.9858, 95.22410
985.9143, 95.35063
987.8428, 95.06116
989.7712, 94.77999
991.6997, 94.87029
993.6282, 95.36326
995.5566, 96.09370
997.4851, 96.62598
999.4136, 96.92398
1001.342, 97.26801
1003.271, 98.03479
1005.199, 98.70613
1007.127, 98.88412
1009.056, 99.05413
1010.984, 99.75317
1012.913, 101.4079
1014.841, 103.2912
1016.770, 104.8733
1018.698, 106.4546
1020.627, 108.2793
1022.555, 110.3892
1024.484, 112.9648
1026.412, 116.5741
1028.341, 120.8153
1030.269, 124.9449
1032.198, 128.6924
1034.126, 132.2764
1036.054, 136.2066
1037.983, 140.3964
1039.911, 144.5735
1041.840, 148.3351
1043.768, 151.1431
1045.697, 152.9193
1047.625, 154.5842
1049.554, 156.6155
1051.482, 158.3484
1053.411, 159.3324
1055.339, 159.6166
1057.268, 159.8304
1059.196, 159.8457
1061.125, 159.8204
1063.053, 160.1759
1064.981, 161.1735
1066.910, 161.9839
1068.838, 161.5926
1070.767, 160.5034
1072.695, 160.0225
1074.624, 160.2248
1076.552, 159.9785
1078.481, 158.4470
1080.409, 157.1186
1082.338, 156.8712
1084.266, 156.9395
1086.195, 156.7884
1088.123, 157.2022
1090.052, 156.9645
1091.980, 158.2010
1093.908, 159.1848
1095.837, 159.8027
1097.765, 160.2724
1099.694, 161.0565
1101.622, 161.7949
1103.551, 162.5957
1105.479, 163.9638
1107.408, 165.7726
1109.336, 167.2416
1111.265, 168.1395
1113.193, 168.3133
1115.122, 167.7624
1117.050, 166.8464
1118.979, 165.9384
1120.907, 165.2356
1122.835, 164.0379
1124.764, 162.1172
1126.692, 159.9451
1128.621, 157.8014
1130.549, 155.8068
1132.478, 154.1620
1134.406, 152.9060
1136.335, 151.4759
1138.263, 150.1664
1140.192, 149.1355
1142.120, 148.0308
1144.049, 146.5285
1145.977, 145.3076
1147.906, 144.8174
1149.834, 144.6055
1151.762, 144.4499
1153.691, 144.3422
1155.619, 144.8900
1157.548, 146.4402
1159.476, 148.0642
1161.405, 149.1000
1163.333, 149.7940
1165.262, 151.2054
1167.190, 153.7206
1169.119, 156.1368
1171.047, 157.7202
1172.976, 158.9274
1174.904, 160.3171
1176.833, 161.8819
1178.761, 163.6581
1180.689, 165.8864
1182.618, 168.2806
1184.546, 170.4601
1186.475, 172.4057
1188.403, 174.6470
1190.332, 177.6701
1192.260, 180.3416
1194.189, 182.1825
1196.117, 183.7436
1198.046, 185.3752
1199.974, 186.8921
1201.903, 187.9331
1203.831, 188.2275
1205.760, 189.0623
1207.688, 190.7055
1209.616, 192.8773
1211.545, 195.0347
1213.473, 197.2766
1215.402, 199.0583
1217.330, 199.9245
1219.259, 201.0222
1221.187, 203.0877
1223.116, 206.3576
1225.044, 209.2487
1226.973, 211.3503
1228.901, 213.4589
1230.830, 216.0712
1232.758, 219.0014
1234.687, 222.3400
1236.615, 226.0880
1238.543, 230.8642
1240.472, 237.1069
1242.400, 243.9837
1244.329, 250.7511
1246.257, 257.2764
1248.186, 264.0438
1250.114, 270.8952
1252.043, 278.4977
1253.971, 287.0830
1255.900, 296.4201
1257.828, 306.0497
1259.757, 316.1113
1261.685, 326.2322
1263.614, 336.1658
1265.542, 346.4084
1267.470, 357.4859
1269.399, 369.5042
1271.327, 380.8307
1273.256, 390.7907
1275.184, 401.1042
1277.113, 412.4669
1279.041, 424.5981
1280.970, 437.2293
1282.898, 450.4255
1284.827, 463.7549
1286.755, 476.3317
1288.684, 490.3045
1290.612, 506.3573
1292.541, 524.4607
1294.469, 544.3765
1296.397, 565.4889
1298.326, 590.0897
1300.254, 618.5899
1302.183, 649.9183
1304.111, 683.8178
1306.040, 719.9507
1307.968, 756.9901
1309.897, 796.2391
1311.825, 834.3314
1313.754, 873.2712
1315.682, 908.8609
1317.611, 938.2181
1319.539, 961.4814
1321.468, 976.8635
1323.396, 984.2980
1325.324, 983.5580
1327.253, 973.2152
1329.181, 955.2452
1331.110, 930.6370
1333.038, 898.7697
1334.967, 864.4297
1336.895, 826.3928
1338.824, 787.5097
1340.752, 747.6750
1342.681, 707.6688
1344.609, 669.5280
1346.538, 633.4544
1348.466, 599.2277
1350.395, 566.9927
1352.323, 536.6725
1354.251, 508.0672
1356.180, 481.3437
1358.108, 456.6337
1360.037, 433.8849
1361.965, 413.0765
1363.894, 394.7381
1365.822, 377.7781
1367.751, 361.4467
1369.679, 346.3225
1371.608, 331.4666
1373.536, 318.9625
1375.465, 307.2114
1377.393, 295.9628
1379.322, 285.2277
1381.250, 275.1219
1383.178, 265.6094
1385.107, 256.7752
1387.035, 248.7800
1388.964, 241.3704
1390.892, 234.3575
1392.821, 227.8805
1394.749, 222.1768
1396.678, 217.3376
1398.606, 212.6374
1400.535, 207.7779
1402.463, 203.3381
1404.392, 199.8485
1406.320, 196.6622
1408.249, 192.7971
1410.177, 188.1294
1412.105, 184.3604
1414.034, 182.2501
1415.962, 180.1292
1417.891, 177.1052
1419.819, 173.8139
1421.748, 171.0601
1423.676, 168.9258
1425.605, 167.4727
1427.533, 167.1209
1429.462, 166.5513
1431.390, 165.0021
1433.319, 163.1152
1435.247, 161.6608
1437.176, 160.6250
1439.104, 159.3018
1441.032, 157.3269
1442.961, 155.7173
1444.889, 154.9692
1446.818, 154.5126
1448.746, 153.8460
1450.675, 152.9921
1452.603, 152.4227
1454.532, 152.3333
1456.460, 152.2579
1458.389, 152.1589
1460.317, 151.9308
1462.246, 151.4191
1464.174, 150.6999
1466.103, 150.1542
1468.031, 149.6226
1469.959, 149.3077
1471.888, 149.4846
1473.816, 149.7725
1475.745, 149.6928
1477.673, 149.2552
1479.602, 149.0512
1481.530, 149.4206
1483.459, 149.7080
1485.387, 149.4563
1487.316, 148.9441
1489.244, 148.6691
1491.173, 148.6975
1493.101, 148.5811
1495.030, 148.2573
1496.958, 148.0012
1498.886, 148.1687
1500.815, 148.1814
1502.743, 147.4467
1504.672, 146.1814
1506.600, 145.4989
1508.529, 145.7321
1510.457, 145.7609
1512.386, 144.9694
1514.314, 144.2850
1516.243, 144.3453
1518.171, 144.8242
1520.100, 144.8598
1522.028, 144.3258
1523.957, 144.3396
1525.885, 145.5516
1527.813, 146.4756
1529.742, 146.3844
1531.670, 145.8375
1533.599, 145.7386
1535.527, 146.2640
1537.456, 146.2189
1539.384, 145.1534
1541.313, 144.3078
1543.241, 144.1834
1545.170, 144.2775
1547.098, 143.9693
1549.027, 143.2285
1550.955, 142.9092
1552.884, 143.4343
1554.812, 143.9174
1556.740, 144.3114
1558.669, 144.3637
1560.597, 143.8219
1562.526, 142.8792
1564.454, 142.0639
1566.383, 141.2999
1568.311, 140.7043
1570.240, 140.4848
1572.168, 140.2291
1574.097, 139.6300
1576.025, 138.8985
1577.954, 138.5142
1579.882, 138.4457
1581.811, 137.9858
1583.739, 136.7280
1585.667, 135.6527
1587.596, 135.4035
1589.524, 135.3420
1591.453, 134.7451
1593.381, 133.6957
1595.310, 132.6949
1597.238, 131.8020
1599.167, 130.8263
1601.095, 129.3939
1603.024, 128.2820
1604.952, 128.2362
1606.881, 128.7606
1608.809, 128.9885
1610.738, 128.9240
1612.666, 128.5983
1614.594, 127.9490
1616.523, 127.1226
1618.451, 125.8640
1620.380, 124.7063
1622.308, 124.2301
1624.237, 124.3279
1626.165, 124.4088
1628.094, 124.4632
1630.022, 124.3359
1631.951, 123.9237
1633.879, 123.4230
1635.808, 122.9243
1637.736, 122.4252
1639.665, 121.8948
1641.593, 121.3266
1643.521, 120.8789
1645.450, 120.5656
1647.378, 120.4140
1649.307, 120.5948
1651.235, 120.8120
1653.164, 120.8179
1655.092, 120.6522
1657.021, 120.5105
1658.949, 120.3957
1660.878, 120.3039
1662.806, 120.3833
1664.735, 120.2535
1666.663, 119.4687
1668.592, 118.5585
1670.520, 118.2972
1672.448, 118.6638
1674.377, 118.8331
1676.305, 118.6306
1678.234, 118.5990
1680.162, 119.2191
1682.091, 119.6728
1684.019, 119.3226
1685.948, 118.6032
1687.876, 118.3689
1689.805, 118.6441
1691.733, 119.2483
1693.662, 120.7818
1695.590, 121.4527
1697.519, 119.7245
1699.447, 118.0110
1701.375, 118.2121
1703.304, 119.6754
1705.232, 120.3059
1707.161, 119.9311
1709.089, 119.7532
1711.018, 120.2200
1712.946, 120.3204
1714.875, 119.3317
1716.803, 118.2537
1718.732, 117.8678
1720.660, 118.0764
1722.589, 118.4748
1724.517, 119.1272
1726.446, 119.6798
1728.374, 120.3311
1730.302, 120.4735
1732.231, 119.6002
1734.159, 118.4079
1736.088, 117.3004
1738.016, 116.3700
1739.945, 116.2042
1741.873, 117.0302
1743.802, 117.4640
1745.730, 117.0687
1747.659, 116.6590
1749.587, 116.6130
1751.516, 116.5859
1753.444, 116.0706
1755.373, 115.2892
1757.301, 115.3885
1759.229, 116.6246
1761.158, 117.0512
1763.086, 115.9282
1765.015, 114.8824
1766.943, 114.6714
1768.872, 114.7100
1770.800, 114.4950
1772.729, 114.5777
1774.657, 114.2331
1776.586, 114.7086
1778.514, 115.0267
1780.443, 115.0599
1782.371, 114.9689
1784.300, 114.5540
1786.228, 114.2787
1788.156, 114.6360
1790.085, 115.3368
1792.013, 115.7782
1793.942, 115.9627
1795.870, 116.2380
1797.799, 116.8618
1799.727, 116.9565
1801.656, 115.5095
1803.584, 114.2838
1805.513, 114.7242
1807.441, 115.9119
1809.370, 116.4382
1811.298, 116.3652
1813.227, 116.3792
1815.155, 116.5909
1817.083, 116.7057
1819.012, 116.5426
1820.940, 116.4429
1822.869, 116.6332
1824.797, 116.9152
1826.726, 117.0403
1828.654, 117.0395
1830.583, 117.1615
1832.511, 117.5145
1834.440, 117.5067
1836.368, 116.4514
1838.297, 115.8916
1840.225, 116.6223
1842.154, 117.6328
1844.082, 118.4567
1846.010, 118.8903
1847.939, 118.1851
1849.867, 116.0108
1851.796, 115.0276
1853.724, 116.2170
1855.653, 117.0067
1857.581, 116.8716
1859.510, 116.6811
1861.438, 116.7404
1863.367, 117.0369
1865.295, 117.7689
1867.224, 118.8016
1869.152, 119.0598
1871.081, 118.1056
1873.009, 117.6762
1874.938, 118.3185
1876.866, 118.7405
1878.794, 118.3870
1880.723, 118.0104
1882.651, 118.1738
1884.580, 118.5911
1886.508, 118.7896
1888.437, 118.7780
1890.365, 118.5823
1892.294, 118.1450
1894.222, 117.7962
1896.151, 117.5736
1898.079, 117.4987
1900.008, 117.5686
1901.936, 117.8200
1903.865, 118.4081
1905.793, 119.1521
1907.721, 119.7695
1909.650, 120.2334
1911.578, 120.1672
1913.507, 119.2904
1915.435, 118.7376
1917.364, 118.7266
1919.292, 119.1039
1921.221, 120.0275
1923.149, 121.1074
1925.078, 122.2235
1927.006, 123.1797
1928.935, 123.2617
1930.863, 122.3147
1932.792, 122.0583
1934.720, 123.1173
1936.648, 123.7667
1938.577, 123.4988
1940.505, 123.2784
1942.434, 123.4844
1944.362, 123.8855
1946.291, 124.3767
1948.219, 124.8720
1950.148, 125.0514
1952.076, 124.8088
1954.005, 125.1213
1955.933, 126.4098
1957.862, 127.0637
1959.790, 126.0606
1961.719, 125.6130
1963.647, 127.2259
1965.575, 128.9822
1967.504, 129.4219
1969.432, 129.0920
1971.361, 128.9537
1973.289, 128.9802
1975.218, 128.8920
1977.146, 128.6039
1979.075, 128.6830
1981.003, 129.5311
1982.932, 130.1249
1984.860, 129.9532
1986.789, 129.5926
1988.717, 129.2530
1990.646, 129.0400
1992.574, 129.2231
1994.502, 129.6855
1996.431, 129.8040
1998.359, 129.5490
2000.288, 129.0286
2002.216, 127.9042
2004.145, 127.0674
2006.073, 126.5958
2008.002, 126.4706
2009.930, 127.2220
2011.859, 127.8304
2013.787, 127.0176
2015.716, 125.4908
2017.644, 124.9715
2019.573, 125.3874
2021.501, 125.6148
2023.429, 125.5740
2025.358, 125.5054
2027.286, 125.4953
2029.215, 125.3200
2031.143, 124.5610
2033.072, 124.0934
2035.000, 124.8728
2036.929, 125.8837
2038.857, 126.0314
2040.786, 125.4927
2042.714, 124.5292
2044.643, 123.0183
2046.571, 122.6674
2048.500, 124.4357
2050.428, 125.3174
2052.356, 124.1911
2054.285, 123.5477
2056.213, 124.5413
2058.142, 125.5563
2060.070, 125.5216
2061.999, 125.1348
2063.927, 125.2450
2065.856, 125.7154
2067.784, 126.0231
2069.713, 126.1827
2071.641, 126.4735
2073.570, 126.9671
2075.498, 127.2241
2077.427, 126.9464
2079.355, 126.8994
2081.283, 127.7762
2083.212, 128.4210
2085.140, 127.7472
2087.069, 126.8900
2088.997, 127.2763
2090.926, 127.0584
2092.854, 127.2754
2094.783, 128.0362
2096.711, 128.2225
2098.640, 129.6760
2100.568, 130.6123
2102.497, 130.8367
2104.425, 130.8906
2106.354, 130.6856
2108.282, 130.5860
2110.210, 130.8660
2112.139, 131.1601
2114.067, 131.1067
2115.996, 130.9445
2117.924, 131.0529
2119.853, 131.3479
2121.781, 131.4941
2123.710, 131.4767
2125.638, 131.7019
2127.567, 132.2152
2129.495, 132.9213
2131.424, 134.5135
2133.352, 135.2474
2135.281, 133.6372
2137.209, 132.4458
2139.137, 133.5630
2141.066, 135.2752
2142.994, 136.1491
2144.923, 136.3932
2146.851, 136.2177
2148.780, 135.7366
2150.708, 135.6616
2152.637, 136.0080
2154.565, 135.9885
2156.494, 135.3711
2158.422, 135.1204
2160.351, 135.6191
2162.279, 136.1075
2164.208, 136.3278
2166.136, 136.5099
2168.064, 136.8751
2169.993, 137.1554
2171.921, 136.9894
2173.850, 136.6606
2175.778, 136.7847
2177.707, 137.2008
2179.635, 136.9529
2181.564, 136.0308
2183.492, 135.1572
2185.421, 134.2740
2187.349, 134.0669
2189.278, 134.9376
2191.206, 135.5528
2193.135, 135.2624
2195.063, 135.0786
2196.991, 135.6698
2198.920, 136.2553
2200.848, 136.2308
2202.777, 135.9828
2204.705, 135.8536
2206.634, 135.8779
2208.562, 136.3302
2210.491, 135.9184
2212.419, 136.8730
2214.348, 135.5290
2216.276, 134.7818
2218.205, 134.8138
2220.133, 135.1247
2222.062, 135.9236
2223.990, 136.2283
2225.918, 135.0919
2227.847, 134.3518
2229.775, 135.2472
2231.704, 136.2428
2233.632, 136.1851
2235.561, 135.7422
2237.489, 135.6474
2239.418, 135.7471
2241.346, 135.6303
2243.275, 135.3795
2245.203, 135.6386
2247.132, 136.3906
2249.060, 137.1420
2250.989, 137.9573
2252.917, 137.8110
2254.845, 135.9355
2256.774, 134.9469
2258.702, 136.1576
2260.631, 137.2917
2262.559, 137.7149
2264.488, 137.8655
2266.416, 137.9649
2268.345, 137.8716
2270.273, 137.1112
2272.202, 136.3613
2274.130, 136.8450
2276.059, 137.9065
2277.987, 137.9430
2279.916, 137.1658
2281.844, 136.5042
2283.772, 135.9866
2285.701, 135.6311
2287.629, 135.2933
2289.558, 135.5917
2291.486, 137.2507
2293.415, 138.3606
2295.343, 138.5002
2297.272, 138.4927
2299.200, 138.5572
2301.129, 138.4670
2303.057, 137.9844
2304.986, 137.5079
2306.914, 137.1159
2308.843, 137.0344
2310.771, 137.8872
2312.699, 138.9514
2314.628, 138.7480
2316.556, 137.7912
2318.485, 137.8936
2320.413, 138.9973
2322.342, 139.6007
2324.270, 139.5582
2326.199, 140.8784
2328.127, 144.0729
2330.056, 145.5016
2331.984, 144.2564
2333.913, 142.9567
2335.841, 142.1367
2337.770, 141.4543
2339.698, 140.6523
2341.626, 140.2036
2343.555, 140.6708
2345.483, 141.0925
2347.412, 140.6610
2349.340, 140.1708
2351.269, 140.1811
2353.197, 140.6387
2355.126, 141.8810
2357.054, 143.3063
2358.983, 143.5688
2360.911, 143.0582
2362.840, 143.2608
2364.768, 144.1170
2366.697, 144.4944
2368.625, 144.2720
2370.553, 144.2727
2372.482, 144.5878
2374.410, 144.5740
2376.339, 143.6374
2378.267, 145.0394
2380.196, 151.3103
2382.124, 154.2010
2384.053, 148.4889
2385.981, 143.9151
2387.910, 144.7268
2389.838, 146.2742
2391.767, 146.8664
2393.695, 146.8704
2395.624, 146.1814
2397.552, 145.3999
2399.480, 144.9076
2401.409, 144.7772
2403.337, 145.4119
2405.266, 146.2737
2407.194, 146.3315
2409.123, 145.8811
2411.051, 145.9355
2412.980, 146.3578
2414.908, 145.9342
2416.837, 146.2388
2418.765, 146.2274
2420.694, 145.9242
2422.622, 146.2018
2424.551, 144.9600
2426.479, 144.6640
2428.407, 146.0247
2430.336, 146.8513
2432.264, 146.2993
2434.193, 145.9656
2436.121, 146.3992
2438.050, 146.5968
2439.978, 146.0497
2441.907, 145.6709
2443.835, 145.8321
2445.764, 146.1251
2447.692, 146.3456
2449.621, 146.6029
2451.549, 147.0652
2453.478, 147.4697
2455.406, 147.5852
2457.334, 147.4901
2459.263, 147.0994
2461.191, 146.6985
2463.120, 146.9414
2465.048, 147.4324
2466.977, 147.2449
2468.905, 146.6537
2470.834, 146.2267
2472.762, 146.0575
2474.691, 146.8340
2476.619, 148.4986
2478.548, 148.9927
2480.476, 148.1108
2482.405, 147.8021
2484.333, 148.1102
2486.261, 148.3473
2488.190, 148.4820
2490.118, 148.3702
2492.047, 147.8937
2493.975, 147.6223
2495.904, 147.7175
2497.832, 147.9259
2499.761, 148.3064
2501.689, 148.6729
2503.618, 149.0759
2505.546, 149.2703
2507.475, 149.0030
2509.403, 148.8595
2511.332, 148.9532
2513.260, 149.3915
2515.188, 150.8186
2517.117, 151.7725
2519.045, 150.8913
2520.974, 149.9590
2522.902, 150.2932
2524.831, 150.8541
2526.759, 150.7764
2528.688, 151.3816
2530.616, 151.3657
2532.545, 152.2534
2534.473, 152.8691
2536.402, 153.2579
2538.330, 153.2377
2540.259, 153.1892
2542.187, 153.9944
2544.115, 155.1860
2546.044, 155.8367
2547.972, 156.0623
2549.901, 155.9671
2551.829, 155.7590
2553.758, 156.4039
2555.686, 157.7500
2557.615, 158.7200
2559.543, 159.3134
2561.472, 159.2814
2563.400, 158.7163
2565.329, 158.5012
2567.257, 158.6708
2569.186, 159.1684
2571.114, 159.9875
2573.042, 161.1799
2574.971, 162.8926
2576.899, 164.1490
2578.828, 164.9213
2580.756, 165.0784
2582.685, 164.4515
2584.613, 164.3425
2586.542, 165.1298
2588.470, 165.8477
2590.399, 166.3501
2592.327, 166.9237
2594.256, 167.4541
2596.184, 168.5977
2598.113, 170.8410
2600.041, 172.2847
2601.969, 172.0662
2603.898, 171.9632
2605.826, 172.4581
2607.755, 172.9724
2609.683, 173.4992
2611.612, 173.8268
2613.540, 173.7166
2615.469, 173.8469
2617.397, 174.6853
2619.326, 175.2978
2621.254, 175.1452
2623.183, 175.0178
2625.111, 175.3257
2627.040, 175.5390
2628.968, 175.2959
2630.896, 175.2945
2632.825, 176.1985
2634.753, 176.7827
2636.682, 176.0739
2638.610, 175.3671
2640.539, 175.8536
2642.467, 175.7522
2644.396, 173.1931
2646.324, 171.0373
2648.253, 171.0725
2650.181, 171.4797
2652.110, 171.4135
2654.038, 170.9951
2655.967, 169.9292
2657.895, 169.0234
2659.823, 169.1430
2661.752, 169.2254
2663.680, 168.7230
2665.609, 167.7352
2667.537, 165.8158
2669.466, 164.0701
2671.394, 163.5408
2673.323, 163.2882
2675.251, 162.7787
2677.180, 161.9653
2679.108, 160.6091
2681.037, 159.2108
2682.965, 158.1153
2684.894, 157.2228
2686.822, 156.6139
2688.750, 155.9885
2690.679, 154.6917
2692.607, 153.6870
2694.536, 154.3169
2696.464, 154.9753
2698.393, 154.1866
2700.321, 153.0433
2702.250, 152.2840
2704.178, 151.8891
2706.107, 152.3028
2708.035, 152.5764
2709.964, 151.7396
2711.892, 150.6032
2713.821, 149.6945
2715.749, 148.9093
2717.677, 148.0709
2719.606, 147.3952
2721.534, 147.0486
2723.463, 146.9522
2725.391, 147.5411
2727.320, 147.7203
2729.248, 146.1485
2731.177, 144.4862
2733.105, 143.9611
2735.034, 144.0141
2736.962, 144.6331
2738.891, 145.1149
2740.819, 144.7686
2742.748, 144.3840
2744.676, 144.5407
2746.604, 144.7828
2748.533, 144.9069
2750.461, 144.8646
2752.390, 144.6334
2754.318, 144.2374
2756.247, 143.5276
2758.175, 142.9367
2760.104, 142.6246
2762.032, 142.6456
2763.961, 143.4660
2765.889, 143.9524
2767.818, 143.1213
2769.746, 142.5930
2771.675, 143.4364
2773.603, 144.1595
2775.531, 144.2188
2777.460, 143.8232
2779.388, 142.7731
2781.317, 141.7668
2783.245, 140.7812
2785.174, 140.4404
2787.102, 141.3599
2789.031, 142.2534
2790.959, 142.8176
2792.888, 143.0979
2794.816, 143.0478
2796.745, 142.7087
2798.673, 141.8765
2800.602, 141.3330
2802.530, 141.4668
2804.458, 141.5391
2806.387, 141.2908
2808.315, 141.5094
2810.244, 141.6234
2812.172, 141.6876
2814.101, 142.2309
2816.029, 141.9133
2817.958, 142.5050
2819.886, 142.4444
2821.815, 141.5254
2823.743, 140.9207
2825.672, 140.6926
2827.600, 141.0731
2829.529, 142.2188
2831.457, 142.7377
2833.385, 142.5674
2835.314, 142.2171
2837.242, 141.7013
2839.171, 141.3573
2841.099, 141.1614
2843.028, 140.7169
2844.956, 140.5871
2846.885, 140.8107
2848.813, 140.3902
2850.742, 140.4282
2852.670, 140.6275
2854.599, 140.5037
2856.527, 141.0776
2858.456, 141.4666
2860.384, 141.5065
2862.313, 140.2164
2864.241, 138.9064
2866.169, 140.2597
2868.098, 142.0634
2870.026, 141.2833
2871.955, 139.8389
2873.883, 139.6763
2875.812, 140.0370
2877.740, 140.6199
2879.669, 140.9704
2881.597, 140.4928
2883.526, 140.0629
2885.454, 140.0794
2887.383, 140.5643
2889.311, 141.9886
2891.240, 142.9465
2893.168, 142.7471
2895.096, 142.2152
2897.025, 141.0894
2898.953, 140.6805
2900.882, 141.5426
2902.810, 142.0825
2904.739, 142.0061
2906.667, 141.5947
2908.596, 140.7273
2910.524, 139.8857
2912.453, 138.9383
2914.381, 139.1091
2916.310, 140.4893
2918.238, 141.5608
2920.167, 142.2120
2922.095, 141.8531
2924.023, 140.5529
2925.952, 140.2576
2927.880, 140.6709
2929.809, 140.7115
2931.737, 140.3919
2933.666, 139.4342
2935.594, 138.4464
2937.523, 139.1216
2939.451, 138.8264
2941.380, 140.1717
2943.308, 139.7838
2945.237, 140.5181
2947.165, 141.3713
2949.094, 141.4138
2951.022, 141.1832
2952.950, 140.7168
2954.879, 140.5596
2956.807, 141.5414
2958.736, 142.0473
2960.664, 141.1586
2962.593, 140.3585
2964.521, 139.8564
2966.450, 139.8858
2968.378, 140.9196
2970.307, 141.4445
2972.235, 141.2789
2974.164, 140.8374
2976.092, 140.1183
2978.021, 139.4200
2979.949, 138.7537
2981.877, 139.0918
2983.806, 140.3054
2985.734, 140.8800
2987.663, 140.9104
2989.591, 140.3845
2991.520, 139.8129
2993.448, 140.8155
2995.377, 142.0208
2997.305, 140.7076
2999.234, 139.0289
3001.162, 139.0426
3003.091, 139.7318
3005.019, 141.0768
3006.948, 141.6170
3008.876, 139.9201
3010.804, 138.5153
3012.733, 138.3219
3014.661, 138.6833
3016.590, 139.9753
3018.518, 140.6184
3020.447, 140.2319
3022.375, 140.5354
3024.304, 141.8936
3026.232, 142.3179
3028.161, 141.5995
3030.089, 141.4691
3032.018, 141.7480
3033.946, 140.8876
3035.875, 139.4414
3037.803, 139.3114
3039.731, 139.8914
3041.660, 140.1108
3043.588, 140.0596
3045.517, 139.6874
3047.445, 139.3345
3049.374, 139.2075
3051.302, 139.3525
3053.231, 140.1789
3055.159, 140.5703
3057.088, 139.8279
3059.016, 139.1997
3060.945, 138.7916
3062.873, 139.2296
3064.802, 140.8111
3066.730, 141.5293
3068.658, 141.1175
3070.587, 140.5530
3072.515, 139.8955
3074.444, 140.3090
3076.372, 141.4082
3078.301, 141.8162
3080.229, 141.6223
3082.158, 140.4483
3084.086, 139.3591
3086.015, 140.0905
3087.943, 141.2666
3089.872, 142.1940
3091.800, 142.5562
3093.729, 141.7310
3095.657, 140.9823
3097.585, 140.5015
3099.514, 140.7025
3101.442, 142.1925
3103.371, 142.7569
3105.299, 142.0390
3107.228, 141.6384
3109.156, 141.5680
3111.085, 141.1619
3113.013, 140.5583
3114.942, 140.5874
3116.870, 141.0226
3118.799, 141.3903
3120.727, 141.7702
3122.656, 142.4465
3124.584, 142.9464
3126.512, 142.8072
3128.441, 142.4489
3130.369, 141.6164
3132.298, 141.6587
3134.226, 141.1022
3136.155, 141.1735
3138.083, 141.7707
3140.012, 141.4806
3141.940, 142.1056
3143.869, 142.1945
3145.797, 143.0892
3147.726, 142.5286
3149.654, 143.0026
3151.583, 143.1401
3153.511, 143.2125
3155.439, 143.7697
3157.368, 144.2644
3159.296, 144.2374
3161.225, 143.9827
3163.153, 143.4450
3165.082, 143.0666
3167.010, 142.7505
3168.939, 143.3497
3170.867, 145.1703
3172.796, 145.9331
3174.724, 145.3778
3176.653, 144.2588
3178.581, 142.7834
3180.510, 142.1037
3182.438, 141.9564
3184.366, 141.8784
3186.295, 141.9311
3188.223, 142.2039
3190.152, 142.6253
3192.080, 143.4424
3194.009, 143.8884
3195.937, 143.2130
3197.866, 143.0396
3199.794, 143.6657
3201.723, 144.0099
3203.651, 143.8281
3205.580, 144.6524
3207.508, 144.6138
3209.437, 144.5975
3211.365, 144.9507
3213.293, 144.5767
3215.222, 144.6647
3217.150, 145.0822
3219.079, 145.6211
3221.007, 146.3010
3222.936, 146.7798
3224.864, 146.7617
3226.793, 146.9442
3228.721, 147.5550
3230.650, 146.8462
3232.578, 144.5253
3234.507, 144.0958
3236.435, 145.1391
3238.364, 145.6843
3240.292, 145.9126
3242.220, 146.0227
3244.149, 146.1061
3246.077, 146.0779
3248.006, 146.3616
3249.934, 147.5004
3251.863, 148.2752
3253.791, 147.9311
3255.720, 148.9315
3257.648, 148.0549
3259.577, 147.6731
3261.505, 147.1010
3263.434, 146.3720
3265.362, 147.3688
3267.291, 147.5233
3269.219, 147.4794
3271.147, 148.0772
3273.076, 148.4419
3275.004, 147.8334
3276.933, 147.6087
3278.861, 148.4299
3280.790, 149.0919
3282.718, 149.5047
3284.647, 149.6424
3286.575, 149.5547
3288.504, 149.5554
3290.432, 149.6091
3292.361, 149.7910
3294.289, 149.7525
3296.218, 148.6774
3298.146, 148.0254
3300.074, 149.1961
3302.003, 149.8352
3303.931, 149.3752
3305.860, 148.9279
3307.788, 148.5526
3309.717, 149.3533
3311.645, 150.8498
3313.574, 150.7623
3315.502, 149.8665
3317.431, 149.2881
3319.359, 148.7175
3321.288, 148.4291
3323.216, 148.5814
3325.145, 148.2520
3327.073, 149.0997
3329.001, 149.3278
3330.930, 149.1837
3332.858, 148.7180
3334.787, 148.5634
3336.715, 148.7016
3338.644, 149.1789
3340.572, 149.8205
3342.501, 150.6215
3344.429, 151.2570
3346.358, 151.8039
3348.286, 151.4225
3350.215, 149.3754
3352.143, 148.3848
3354.072, 148.6117
3356.000, 149.5606
3357.928, 150.6508
3359.857, 149.6497
3361.785, 150.6626
3363.714, 149.7108
3365.642, 151.0203
3367.571, 150.2613
3369.499, 149.9353
3371.428, 150.9058
3373.356, 151.0028
3375.285, 150.0477
3377.213, 150.2322
3379.142, 151.2878
3381.070, 152.3080
3382.999, 153.0511
3384.927, 153.3088
3386.855, 153.0875
3388.784, 152.0552
3390.712, 151.3351
3392.641, 151.2918
3394.569, 151.0526
3396.498, 150.4881
3398.426, 151.5325
3400.355, 151.3022
3402.283, 152.8958
3404.212, 151.9404
3406.140, 152.3544
3408.069, 152.7693
3409.997, 152.2914
3411.926, 152.1580
3413.854, 152.6380
3415.782, 153.0930
3417.711, 153.4721
3419.639, 153.6041
3421.568, 154.0126
3423.496, 153.9877
3425.425, 154.5673
3427.353, 154.7797
3429.282, 154.9720
3431.210, 155.6372
3433.139, 155.3085
3435.067, 155.8826
3436.996, 156.4118
3438.924, 156.8198
3440.853, 156.8253
3442.781, 156.5394
3444.709, 155.8698
3446.638, 155.3637
3448.566, 155.2996
3450.495, 155.5419
3452.423, 155.3668
3454.352, 155.6404
3456.280, 155.7985
3458.209, 156.2139
3460.137, 157.0761
3462.066, 157.6800
3463.994, 157.6310
3465.923, 156.1491
3467.851, 155.1594
3469.780, 155.8411
3471.708, 156.0056
3473.636, 155.5975
3475.565, 155.6596
3477.493, 156.1329
3479.422, 157.4988
3481.350, 158.2121
3483.279, 156.1718
3485.207, 154.2935
3487.136, 153.4351
3489.064, 154.3414
3490.993, 157.2145
3492.921, 157.9596
3494.850, 157.1824
3496.778, 157.5275
3498.707, 158.2009
3500.635, 158.5523
3502.563, 158.4358
3504.492, 158.7810
3506.420, 157.2972
3508.349, 158.3336
3510.277, 157.7595
3512.206, 156.2498
3514.134, 156.6777
3516.063, 157.7104
3517.991, 157.7606
3519.920, 157.9889
3521.848, 159.0898
3523.777, 159.5578
3525.705, 158.9902
3527.634, 158.5975
3529.562, 158.4498
3531.490, 158.7931
3533.419, 159.4082
3535.347, 160.4902
3537.276, 160.9851
3539.204, 161.0507
3541.133, 159.6551
3543.061, 160.3679
3544.990, 159.7315
3546.918, 158.4181
3548.847, 158.4080
3550.775, 159.0448
3552.704, 159.8508
3554.632, 160.8006
3556.561, 160.6419
3558.489, 162.2656
3560.417, 160.5415
3562.346, 160.2185
3564.274, 160.6733
3566.203, 160.3646
3568.131, 160.1895
3570.060, 161.0412
3571.988, 161.4949
3573.917, 161.1072
3575.845, 162.7447
3577.774, 165.7681
3579.702, 163.4311
3581.631, 164.7155
3583.559, 162.0549
3585.488, 163.7572
3587.416, 161.3239
3589.344, 160.5847
3591.273, 162.3767
3593.201, 163.0550
3595.130, 162.9718
3597.058, 163.8318
3598.987, 164.4064
3600.915, 162.9003
3602.844, 162.3540
3604.772, 163.7895
3606.701, 164.1598
3608.629, 163.3457
3610.558, 162.9343
3612.486, 162.7144
3614.415, 162.2804
3616.343, 162.0767
3618.271, 162.2433
3620.200, 163.0608
3622.128, 164.7524
3624.057, 165.2220
3625.985, 164.8717
3627.914, 164.5429
3629.842, 164.4371
3631.771, 165.0424
3633.699, 165.2100
3635.628, 164.4253
3637.556, 165.1845
3639.485, 164.7561
3641.413, 164.4098
3643.342, 164.7735
3645.270, 163.7536
3647.198, 164.2782
3649.127, 164.3839
3651.055, 168.2839
3652.984, 166.5884
3654.912, 167.6146
3656.841, 169.1788
3658.769, 167.2466
3660.698, 165.1705
3662.626, 164.3414
3664.555, 164.8641
3666.483, 166.9824
3668.412, 167.9517
3670.340, 168.0831
3672.269, 167.8966
3674.197, 167.6390
3676.125, 167.3340
3678.054, 167.4274
3679.982, 168.2492
3681.911, 168.2542
3683.839, 167.6299
3685.768, 166.5324
3687.696, 165.8360
3689.625, 166.5598
3691.553, 167.1674
3693.482, 167.0420
3695.410, 167.8662
3697.339, 169.3111
3699.267, 170.3717
3701.196, 170.8747
3703.124, 170.4148
3705.052, 169.7461
3706.981, 168.9767
3708.909, 168.3069
3710.838, 167.9314
3712.766, 169.1722
3714.695, 170.4767
3716.623, 170.1415
3718.552, 169.3336
3720.480, 167.9773
3722.409, 168.7782
3724.337, 171.1277
3726.266, 171.5368
3728.194, 171.2002
3730.123, 171.1594
3732.051, 170.9746
3733.979, 171.1739
3735.908, 171.4199
3737.836, 171.6248
3739.765, 172.2845
3741.693, 172.3294
3743.622, 172.8932
3745.550, 172.6572
3747.479, 172.4749
3749.407, 172.2058
3751.336, 170.0733
3753.264, 169.9432
3755.193, 171.0412
3757.121, 174.0208
3759.050, 175.2586
3760.978, 173.8615
3762.906, 172.8338
3764.835, 172.2331
3766.763, 171.8462
3768.692, 171.7387
3770.620, 171.9122
3772.549, 172.6966
3774.477, 174.1758
3776.406, 174.5755
3778.334, 174.1730
3780.263, 173.2942
3782.191, 172.6314
3784.120, 172.7230
3786.048, 172.7278
3787.977, 172.5428
3789.905, 171.8407
3791.833, 171.3548
3793.762, 172.4016
3795.690, 173.5652
3797.619, 174.2894
3799.547, 175.2036
3801.476, 176.1708
3803.404, 175.9376
3805.333, 175.3118
3807.261, 174.9243
3809.190, 174.8826
3811.118, 175.1986
3813.047, 175.8019
3814.975, 176.4070
3816.904, 176.0717
3818.832, 175.5717
3820.760, 175.4525
3822.689, 175.2116
3824.617, 174.8542
3826.546, 176.5750
3828.474, 178.9064
3830.403, 179.4410
3832.331, 179.2204
3834.260, 178.1996
3836.188, 177.8400
3838.117, 178.1013
3840.045, 178.8454
3841.974, 179.3862
3843.902, 179.0782
3845.831, 178.2786
3847.759, 178.9900
3849.688, 177.5317
3851.616, 179.5035
3853.544, 179.9278
3855.473, 179.6792
3857.401, 179.0351
3859.330, 178.7805
3861.258, 179.0350
3863.187, 180.6180
3865.115, 182.2154
3867.044, 182.2612
3868.972, 181.8773
3870.901, 181.3089
3872.829, 180.1908
3874.758, 179.2895
3876.686, 180.5054
3878.615, 182.1124
3880.543, 183.6493
3882.471, 183.6312
3884.400, 182.1935
3886.328, 182.0539
3888.257, 182.6599
3890.185, 183.6245
3892.114, 184.5795
3894.042, 185.4703
3895.971, 185.2113
3897.899, 184.0975
3899.828, 182.7423
3901.756, 182.5636
3903.685, 182.5858
3905.613, 184.4080
3907.542, 183.9027
3909.470, 184.8532
3911.398, 186.0036
3913.327, 186.3451
3915.255, 187.2478
3917.184, 187.7408
3919.112, 187.9465
3921.041, 188.5842
3922.969, 188.4411
3924.898, 188.6896
3926.826, 189.3487
3928.755, 189.4478
3930.683, 189.3926
3932.612, 189.8180
3934.540, 190.1440
3936.469, 190.2232
3938.397, 190.2702
3940.325, 190.1463
3942.254, 190.3716
3944.182, 191.3653
3946.111, 191.3234
3948.039, 191.6161
3949.968, 192.1592
3951.896, 192.1001
3953.825, 192.8832
3955.753, 193.8912
3957.682, 194.4512
3959.610, 194.0600
3961.539, 194.7540
3963.467, 195.8284
3965.396, 195.0786
3967.324, 195.0623
3969.252, 197.2242
3971.181, 197.5671
3973.109, 196.4880
3975.038, 196.7198
3976.966, 196.8234
3978.895, 195.4483
3980.823, 195.3867
3982.752, 196.6943
3984.680, 195.9297
3986.609, 195.1106
3988.537, 196.8077
3990.466, 197.6462
3992.394, 197.1622
3994.323, 197.4391
3996.251, 197.7078
3998.179, 196.4397
4000.108, 195.8706
4002.036, 196.7132
4003.965, 198.1682
4005.893, 199.6213
4007.822, 200.1230
4009.750, 200.0223
4011.679, 199.3154
4013.607, 199.1394
4015.536, 199.3583
4017.464, 199.8198
4019.393, 200.0464
4021.321, 200.0063
4023.250, 199.5435
4025.178, 198.7462
4027.106, 199.5144
4029.035, 200.9578
4030.963, 202.8133
4032.892, 203.8002
4034.820, 204.0351
4036.749, 204.0998
4038.677, 203.7921
4040.606, 204.6603
4042.534, 204.1286
4044.463, 204.3980
4046.391, 204.3340
4048.320, 204.1869
4050.248, 203.9023
4052.177, 203.0252
4054.105, 202.5747
4056.033, 203.8919
4057.962, 205.2010
4059.890, 204.9120
4061.819, 204.9785
4063.747, 205.1945
4065.676, 204.9139
4067.604, 204.5120
4069.533, 204.4066
4071.461, 205.0491
4073.390, 206.1002
4075.318, 206.5099
4077.247, 206.5712
4079.175, 207.2569
4081.104, 206.9277
4083.032, 207.6524
4084.960, 207.6916
4086.889, 208.3313
4088.817, 208.1277
4090.746, 207.4483
4092.674, 207.9418
4094.603, 207.6440
4096.531, 207.1783
4098.460, 207.9911
4100.388, 208.4327
4102.317, 208.8430
4104.245, 209.2175
4106.174, 208.4867
4108.102, 210.4769
4110.031, 212.6756
4111.959, 210.3208
4113.888, 208.9421
4115.816, 210.6332
4117.745, 211.3804
4119.673, 211.3027
4121.602, 211.3099
4123.530, 211.8088
4125.458, 212.3254
4127.387, 212.2353
4129.315, 211.8711
4131.244, 211.9918
4133.172, 213.0426
4135.101, 214.0878
4137.029, 213.7502
4138.958, 213.6727
4140.886, 213.3654
4142.814, 213.4784
4144.743, 214.6345
4146.671, 214.5464
4148.600, 214.0512
4150.528, 215.2709
4152.457, 216.7425
4154.385, 217.2173
4156.314, 216.9229
4158.242, 216.3403
4160.171, 216.1108
4162.099, 216.2378
4164.028, 216.6226
4165.956, 217.0079
4167.885, 217.6992
4169.813, 218.2565
4171.742, 218.4862
4173.670, 219.3859
4175.599, 219.6099
4177.527, 218.7578
4179.456, 219.5191
4181.384, 219.5414
4183.313, 219.8562
4185.241, 220.3907
4187.169, 220.4272
4189.098, 221.0514
4191.026, 220.5982
4192.955, 219.4024
4194.883, 219.9823
4196.812, 221.6549
4198.740, 223.8019
4200.668, 224.8605
4202.597, 224.3152
4204.525, 222.7371
4206.454, 221.1774
4208.382, 220.9675
4210.311, 221.0593
4212.239, 221.6566
4214.168, 222.2998
4216.096, 222.7155
4218.025, 224.1175
4219.953, 225.2439
4221.882, 225.4710
4223.810, 223.7040
4225.739, 222.8464
4227.667, 225.2969
4229.596, 226.7882
4231.524, 227.0866
4233.453, 226.6515
4235.381, 225.5480
4237.310, 225.8592
4239.238, 226.0004
4241.167, 225.8407
4243.095, 226.9210
4245.023, 227.3393
4246.952, 227.1877
4248.880, 225.8921
4250.809, 224.6878
4252.737, 226.4642
4254.666, 228.1577
4256.594, 228.9758
4258.522, 228.4251
4260.451, 227.5322
4262.379, 227.8914
4264.308, 227.3027
4266.236, 225.6651
4268.165, 227.6629
4270.093, 230.0194
4272.022, 229.9125
4273.950, 229.1543
4275.879, 228.0894
4277.807, 227.2215
4279.736, 227.2553
4281.664, 227.1797
4283.593, 227.3617
4285.521, 227.9816
4287.450, 228.1326
4289.378, 228.4114
4291.307, 228.4581
4293.235, 228.8825
4295.164, 229.2985
4297.092, 229.1372
4299.021, 228.8447
4300.949, 228.4782
4302.877, 227.5440
4304.806, 228.0242
4306.734, 228.2982
4308.663, 228.6742
4310.591, 229.9156
4312.520, 230.2071
4314.448, 231.1792
4316.376, 231.9992
4318.305, 232.0516
4320.233, 231.7005
4322.162, 231.4550
4324.090, 230.7383
4326.019, 229.5501
4327.947, 231.5945
4329.876, 233.6175
4331.804, 233.1143
4333.733, 233.3617
4335.661, 234.1409
4337.590, 233.1434
4339.518, 233.3589
4341.447, 235.9069
4343.375, 236.8520
4345.304, 236.7117
4347.232, 236.1743
4349.161, 235.1320
4351.089, 233.9048
4353.018, 235.3528
4354.946, 236.5467
4356.875, 235.7460
4358.803, 234.6674
4360.731, 233.2903
4362.660, 234.1461
4364.588, 234.4523
4366.517, 235.5043
4368.445, 236.9255
4370.374, 236.7133
4372.302, 237.7857
4374.230, 237.5488
4376.159, 236.4161
4378.087, 237.2546
4380.016, 237.4065
4381.944, 235.3825
4383.873, 235.1132
4385.801, 235.3979
4387.730, 234.1161
4389.658, 233.7141
4391.587, 234.4372
4393.515, 235.7648
4395.444, 236.1436
4397.372, 234.1611
4399.301, 233.8045
4401.229, 234.0713
4403.158, 232.5104
4405.086, 232.2744
4407.015, 233.8325
4408.943, 233.5562
4410.872, 233.0462
4412.800, 233.3170
4414.729, 233.7987
4416.657, 234.0249
4418.585, 234.7324
4420.514, 232.6817
4422.442, 235.7572
4424.371, 235.5779
4426.299, 235.1609
4428.228, 237.3794
4430.156, 237.0948
4432.084, 235.5179
4434.013, 236.4843
4435.941, 235.9951
4437.870, 233.1383
4439.798, 233.3555
4441.727, 234.4537
4443.655, 235.0034
4445.584, 234.6461
4447.512, 233.9238
4449.441, 234.0132
4451.369, 234.3638
4453.298, 234.8025
4455.226, 234.4286
4457.155, 234.3645
4459.083, 235.3485
4461.012, 236.6050
4462.940, 237.6035
4464.869, 237.8943
4466.797, 236.3374
4468.726, 233.4697
4470.654, 233.7442
4472.583, 235.7660
4474.511, 239.9689
4476.439, 239.7596
4478.368, 237.1328
4480.296, 233.9231
4482.225, 233.2579
4484.153, 235.0070
4486.082, 236.6541
4488.010, 237.9750
4489.938, 238.9042
4491.867, 239.1848
4493.795, 237.1611
4495.724, 238.5021
4497.652, 238.1753
4499.581, 236.8014
4501.509, 237.0597
4503.438, 237.6479
4505.366, 238.1096
4507.295, 236.6050
4509.223, 235.3718
4511.152, 236.4874
4513.080, 236.3342
4515.009, 235.5037
4516.937, 234.9342
4518.866, 235.3315
4520.794, 236.6485
4522.723, 239.1556
4524.651, 238.8087
4526.580, 239.8839
4528.508, 236.6909
4530.437, 240.3143
4532.365, 238.8183
4534.293, 238.8043
4536.222, 239.2929
4538.150, 235.9930
4540.079, 234.1873
4542.007, 234.8610
4543.936, 236.3180
4545.864, 237.4314
4547.792, 237.6338
4549.721, 238.6780
4551.649, 239.5684
4553.578, 239.2409
4555.506, 237.9449
4557.435, 236.3754
4559.363, 235.7517
4561.292, 236.5840
4563.220, 235.7861
4565.149, 237.7195
4567.077, 236.2195
4569.006, 235.3460
4570.934, 236.2673
4572.863, 237.3973
4574.791, 236.9294
4576.720, 237.1626
4578.648, 237.9102
4580.577, 238.4600
4582.505, 238.2892
4584.434, 237.4605
4586.362, 237.1072
4588.291, 237.4349
4590.219, 238.6278
4592.147, 238.3614
4594.076, 238.2934
4596.004, 240.1470
4597.933, 239.4193
4599.861, 237.3589
4601.790, 236.0993
4603.718, 236.6413
4605.646, 238.2809
4607.575, 237.4689
4609.503, 236.9514
4611.432, 237.5583
4613.360, 237.4686
4615.289, 237.4853
4617.217, 238.0649
4619.146, 237.8104
4621.074, 237.9562
4623.003, 237.6596
4624.931, 237.8253
4626.860, 237.0053
4628.788, 237.7820
4630.717, 238.0039
4632.645, 237.3049
4634.574, 238.0395
4636.502, 238.4066
4638.431, 237.8939
4640.359, 238.4666
4642.288, 238.5753
4644.216, 238.5364
4646.145, 239.0685
4648.073, 238.6398
4650.001, 238.6144
4651.930, 238.0209
4653.858, 236.8024
4655.787, 234.2450
4657.715, 233.7327
4659.644, 235.1438
4661.572, 236.6932
4663.500, 237.9171
4665.429, 238.6204
4667.357, 237.8866
4669.286, 237.1375
4671.214, 236.9713
4673.143, 236.6769
4675.071, 236.0504
4677.000, 236.7285
4678.928, 235.6825
4680.857, 235.8447
4682.785, 237.2350
4684.714, 236.7151
4686.642, 235.2102
4688.571, 234.3947
4690.499, 235.1486
4692.428, 236.7735
4694.356, 236.7655
4696.285, 237.4613
4698.213, 238.9781
4700.142, 236.9535
4702.070, 235.6801
4703.999, 236.3957
4705.927, 236.0631
4707.855, 235.2604
4709.784, 234.1847
4711.712, 235.3174
4713.641, 237.1890
4715.569, 238.6403
4717.498, 239.7447
4719.426, 239.9424
4721.354, 238.2323
4723.283, 237.1406
4725.211, 236.5898
4727.140, 236.3853
4729.068, 234.6548
4730.997, 235.0977
4732.925, 233.9687
4734.854, 235.2275
4736.782, 235.6137
4738.711, 235.6579
4740.639, 235.3738
4742.568, 235.6828
4744.496, 235.4636
4746.425, 235.8215
4748.353, 235.5338
4750.282, 235.4077
4752.210, 235.1581
4754.139, 234.5169
4756.067, 235.1598
4757.996, 235.8312
4759.924, 235.5771
4761.853, 236.7278
4763.781, 237.3213
4765.709, 235.1242
4767.638, 234.9279
4769.566, 235.8254
4771.495, 236.8082
4773.423, 235.0481
4775.352, 233.1198
4777.280, 235.9171
4779.208, 236.8827
4781.137, 236.0240
4783.065, 237.4008
4784.994, 234.8788
4786.922, 237.3062
4788.851, 235.6982
4790.779, 234.6863
4792.708, 234.8102
4794.636, 234.8230
4796.565, 235.9228
4798.493, 237.7553
4800.422, 236.6952
4802.350, 236.2354
4804.279, 236.7854
4806.207, 235.5785
4808.136, 235.3263
4810.064, 236.7198
4811.993, 236.5803
4813.921, 235.4665
4815.850, 233.9693
4817.778, 235.8545
4819.707, 237.4623
4821.635, 237.0959
4823.563, 236.1594
4825.492, 235.2991
4827.420, 234.8604
4829.349, 235.9200
4831.277, 236.6861
4833.206, 235.8418
4835.134, 237.3718
4837.063, 237.7193
4838.991, 234.9837
4840.919, 234.9149
4842.848, 235.4829
4844.776, 235.1595
4846.705, 233.3432
4848.633, 233.0031
4850.562, 236.1428
4852.490, 238.9726
4854.419, 239.6947
4856.347, 236.1924
4858.276, 233.8449
4860.204, 233.4497
4862.133, 235.7007
4864.061, 234.2385
4865.990, 232.9764
4867.918, 236.6198
4869.847, 235.8100
4871.775, 234.5828
4873.704, 236.2017
4875.632, 236.3880
4877.561, 235.7012
4879.489, 234.5460
4881.417, 235.1211
4883.346, 235.2985
4885.274, 233.3524
4887.203, 233.1436
4889.131, 233.6240
4891.060, 233.8216
4892.988, 233.4321
4894.917, 233.4334
4896.845, 234.5511
4898.773, 235.7113
4900.702, 236.0472
4902.630, 234.8572
4904.559, 234.5130
4906.487, 234.1595
4908.416, 233.1471
4910.344, 233.0994
4912.273, 233.3866
4914.201, 233.5942
4916.130, 233.4044
4918.058, 233.4709
4919.987, 234.2099
4921.915, 235.4562
4923.844, 235.2661
4925.772, 236.1979
4927.701, 235.0481
4929.629, 236.7218
4931.558, 235.8042
4933.486, 234.7970
4935.415, 234.4704
4937.343, 234.7656
4939.271, 232.4661
4941.200, 231.4643
4943.128, 232.7881
4945.057, 232.3270
4946.985, 232.5299
4948.914, 233.5668
4950.842, 232.7145
4952.771, 232.0255
4954.699, 231.8998
4956.627, 231.4753
4958.556, 232.3121
4960.484, 231.4849
4962.413, 231.8031
4964.341, 230.6131
4966.270, 230.4102
4968.198, 230.3215
4970.127, 232.3921
4972.055, 234.4686
4973.984, 232.0155
4975.912, 230.9639
4977.841, 230.8495
4979.769, 229.3773
4981.698, 231.7818
4983.626, 234.2954
4985.555, 232.6149
4987.483, 232.5297
4989.412, 232.8718
4991.340, 232.3429
4993.269, 233.4077
4995.197, 233.5300
4997.125, 233.0625
4999.054, 231.4993
5000.982, 232.2004
5002.911, 231.5370
5004.839, 231.2956
5006.768, 231.4089
5008.696, 231.5607
5010.625, 229.1201
5012.553, 227.2866
5014.481, 226.8997
5016.410, 228.2482
5018.338, 228.7817
5020.267, 228.8995
5022.195, 231.6031
5024.124, 230.3418
5026.052, 227.7714
5027.981, 229.4678
5029.909, 228.6613
5031.838, 227.2158
5033.766, 228.0457
5035.695, 229.1882
5037.623, 229.1106
5039.552, 229.2146
5041.480, 228.0233
5043.409, 228.8353
5045.337, 227.4399
5047.266, 227.9567
5049.194, 229.4886
5051.123, 231.2843
5053.051, 231.4290
5054.979, 229.2330
5056.908, 226.0714
5058.836, 225.7592
5060.765, 226.6322
5062.693, 227.6274
5064.622, 227.2135
5066.550, 227.6216
5068.479, 228.1352
5070.407, 227.7999
5072.335, 227.6631
5074.264, 227.8381
5076.192, 228.4370
5078.121, 227.0054
5080.049, 226.3531
5081.978, 227.2731
5083.906, 225.2998
5085.835, 226.4691
5087.763, 229.8991
5089.692, 227.2895
5091.620, 226.6935
5093.549, 227.5120
5095.477, 226.0255
5097.406, 226.4988
5099.334, 227.2130
5101.263, 225.9182
5103.191, 226.6101
5105.120, 227.7408
5107.048, 228.2507
5108.977, 228.7908
5110.905, 228.7882
5112.833, 229.1194
5114.762, 228.2315
5116.690, 227.3568
5118.619, 226.9613
5120.547, 226.7765
5122.476, 224.9614
5124.404, 223.0104
5126.333, 222.7953
5128.261, 224.7361
5130.189, 226.8242
5132.118, 227.7182
5134.046, 227.1451
5135.975, 226.2015
5137.903, 225.4411
5139.832, 225.7599
5141.760, 225.0718
5143.689, 224.1201
5145.617, 225.8777
5147.546, 225.9631
5149.474, 225.6040
5151.403, 227.1151
5153.331, 225.8330
5155.260, 224.5518
5157.188, 224.8096
5159.117, 223.7628
5161.045, 223.5859
5162.974, 222.7322
5164.902, 222.9310
5166.831, 222.1787
5168.759, 221.2661
5170.688, 222.6521
5172.616, 222.8561
5174.544, 222.8530
5176.473, 223.5986
5178.401, 224.3769
5180.330, 224.2604
5182.258, 223.3189
5184.187, 224.1926
5186.115, 223.7523
5188.043, 222.5555
5189.972, 222.9055
5191.900, 222.0526
5193.829, 221.5030
5195.757, 223.0593
5197.686, 222.8560
5199.614, 221.9391
5201.543, 220.8482
5203.471, 219.3312
5205.400, 219.5386
5207.328, 220.9752
5209.257, 222.2415
5211.185, 222.7936
5213.114, 222.6314
5215.042, 221.6803
5216.971, 221.3104
5218.899, 220.5521
5220.828, 219.5176
5222.756, 220.7738
5224.685, 221.8532
5226.613, 221.9194
5228.542, 220.1023
5230.470, 218.0587
5232.398, 217.4509
5234.327, 219.1959
5236.255, 220.1802
5238.184, 219.6978
5240.112, 220.9126
5242.041, 220.6715
5243.969, 221.4007
5245.897, 221.0369
5247.826, 220.3397
5249.754, 221.9584
5251.683, 221.3002
5253.611, 217.1552
5255.540, 216.8546
5257.468, 218.7158
5259.397, 220.7395
5261.325, 219.3297
5263.254, 220.7124
5265.182, 221.4601
5267.111, 218.7290
5269.039, 220.3849
5270.968, 219.9794
5272.896, 217.0956
5274.825, 217.0000
5276.753, 217.2974
5278.682, 217.5977
5280.610, 217.6652
5282.539, 219.4503
5284.467, 219.8423
5286.396, 218.0401
5288.324, 216.4023
5290.252, 216.3496
5292.181, 217.3937
5294.109, 218.7095
5296.038, 219.5332
5297.966, 219.2719
5299.895, 217.8409
5301.823, 217.7853
5303.751, 216.2159
5305.680, 214.3610
5307.608, 215.5190
5309.537, 217.0405
5311.465, 217.2867
5313.394, 215.5100
5315.322, 214.9124
5317.251, 216.0324
5319.179, 217.2261
5321.108, 214.7005
5323.036, 214.9195
5324.965, 215.1938
5326.893, 213.5358
5328.822, 214.0008
5330.750, 213.5436
5332.679, 212.6474
5334.607, 215.0017
5336.536, 214.8181
5338.464, 214.1463
5340.393, 214.5574
5342.321, 213.5433
5344.250, 213.5699
5346.178, 214.4474
5348.106, 214.7696
5350.035, 213.3391
5351.963, 212.6727
5353.892, 214.1977
5355.820, 212.7589
5357.749, 210.9962
5359.677, 210.2224
5361.605, 211.7014
5363.534, 210.7079
5365.462, 210.1074
5367.391, 211.3480
5369.319, 209.5565
5371.248, 211.6941
5373.176, 210.3385
5375.105, 210.8952
5377.033, 209.1588
5378.962, 208.9814
5380.890, 209.5936
5382.819, 209.9745
5384.747, 208.9575
5386.676, 207.6707
5388.604, 207.3120
5390.533, 207.3580
5392.461, 209.7118
5394.390, 208.2868
5396.318, 208.9613
5398.247, 209.4262
5400.175, 208.3588
5402.104, 205.4304
5404.032, 204.8126
5405.960, 204.7295
5407.889, 204.8286
5409.817, 205.1725
5411.746, 205.0778
5413.674, 205.6829
5415.603, 204.8465
5417.531, 206.3198
5419.459, 205.6925
5421.388, 204.8868
5423.316, 207.2831
5425.245, 205.8308
5427.173, 206.3324
5429.102, 208.6088
5431.030, 205.9272
5432.959, 205.4236
5434.887, 205.3494
5436.816, 204.3684
5438.744, 204.6965
5440.673, 204.0205
5442.601, 202.9834
5444.530, 202.8846
5446.458, 206.6958
5448.387, 207.4863
5450.315, 204.5293
5452.244, 203.6850
5454.172, 202.6092
5456.101, 201.4058
5458.029, 200.3744
5459.958, 200.2795
5461.886, 199.2387
5463.814, 199.1260
5465.743, 199.9649
5467.671, 202.5723
5469.600, 202.0812
5471.528, 202.2405
5473.457, 203.0181
5475.385, 203.3960
5477.313, 203.0501
5479.242, 201.9502
5481.170, 200.2566
5483.099, 200.1177
5485.027, 200.2550
5486.956, 199.2354
5488.884, 199.9955
5490.813, 201.2662
5492.741, 201.6844
5494.670, 199.2056
5496.598, 197.1115
5498.527, 197.0127
5500.455, 198.8418
##END=



