##NAMES=Hemihedrite
##RRUFFID=R050551
##IDEAL CHEMISTRY=ZnPb_10_(CrO_4_)_6_(SiO_4_)_2_(OH)_2_
##LOCALITY=Belmont Mountains, Wickenberg, Maricopa County, Arizona, USA
##OWNER=RRUFF
##SOURCE=Dave Bunk Minerals
##DESCRIPTION=Orange fragments and bladed crystals, reported in Lafuente et al (2017)
##STATUS=The identification of this mineral is confirmed by single-crystal X-ray diffraction and chemical analysis
##URL=https://www.rruff.net/odr/rruff_sample/R050551
##MEASURED CHEMISTRY=Pb_10.06_(Zn_0.96_Mg_0.02_)(Cr_5.97_S_0.02_P_0.01_)Si_2.02_O_34_H_1.85_ ; H_2_O calculated to achieve 34 O atoms.
##DIFFRACTION SAMPLE DESCRIPTION=Single crystal, powder profile is calculated
##CELL PARAMETERS=a: 9.47 b: 11.401 c: 10.8 alpha: 120.39 beta: 92.05 gamma: 55.88 volume: 780.9 crystal system: triclinic
##FILETYPE=Raman RAW
##RAMAN WAVELENGTH=532

9.839966e+001, 0.000000e+000
1.003281e+002, 4.910833e+003
1.022566e+002, 5.180712e+003
1.041851e+002, 5.374188e+003
1.061135e+002, 5.499404e+003
1.080420e+002, 5.611752e+003
1.099705e+002, 5.633948e+003
1.118989e+002, 5.529403e+003
1.138274e+002, 5.367871e+003
1.157559e+002, 5.203982e+003
1.176843e+002, 5.060689e+003
1.196128e+002, 4.924716e+003
1.215413e+002, 4.775489e+003
1.234697e+002, 4.604169e+003
1.253982e+002, 4.451635e+003
1.273267e+002, 4.309726e+003
1.292551e+002, 4.183509e+003
1.311836e+002, 4.097644e+003
1.331121e+002, 4.050584e+003
1.350405e+002, 4.038227e+003
1.369690e+002, 4.053833e+003
1.388975e+002, 4.118901e+003
1.408259e+002, 4.184152e+003
1.427544e+002, 4.251868e+003
1.446829e+002, 4.316432e+003
1.466113e+002, 4.352058e+003
1.485398e+002, 4.337342e+003
1.504683e+002, 4.295866e+003
1.523967e+002, 4.245928e+003
1.543252e+002, 4.176738e+003
1.562537e+002, 4.110317e+003
1.581821e+002, 4.050518e+003
1.601106e+002, 3.996532e+003
1.620391e+002, 3.954107e+003
1.639675e+002, 3.929257e+003
1.658960e+002, 3.914907e+003
1.678245e+002, 3.900372e+003
1.697529e+002, 3.885185e+003
1.716814e+002, 3.867829e+003
1.736099e+002, 3.847828e+003
1.755383e+002, 3.825095e+003
1.774668e+002, 3.796720e+003
1.793953e+002, 3.762361e+003
1.813237e+002, 3.722637e+003
1.832522e+002, 3.680672e+003
1.851807e+002, 3.637773e+003
1.871091e+002, 3.594083e+003
1.890376e+002, 3.549885e+003
1.909661e+002, 3.503387e+003
1.928945e+002, 3.462721e+003
1.948230e+002, 3.431630e+003
1.967515e+002, 3.407745e+003
1.986799e+002, 3.385421e+003
2.006084e+002, 3.361419e+003
2.025369e+002, 3.340384e+003
2.044653e+002, 3.325272e+003
2.063938e+002, 3.315886e+003
2.083223e+002, 3.310305e+003
2.102507e+002, 3.309843e+003
2.121792e+002, 3.313634e+003
2.141077e+002, 3.316617e+003
2.160361e+002, 3.317388e+003
2.179646e+002, 3.318602e+003
2.198931e+002, 3.321880e+003
2.218215e+002, 3.326888e+003
2.237500e+002, 3.334341e+003
2.256785e+002, 3.345584e+003
2.276069e+002, 3.360297e+003
2.295354e+002, 3.371951e+003
2.314639e+002, 3.376074e+003
2.333923e+002, 3.380383e+003
2.353208e+002, 3.389487e+003
2.372493e+002, 3.404793e+003
2.391777e+002, 3.423374e+003
2.411062e+002, 3.444304e+003
2.430347e+002, 3.468376e+003
2.449631e+002, 3.496305e+003
2.468916e+002, 3.527915e+003
2.488201e+002, 3.564151e+003
2.507485e+002, 3.605129e+003
2.526770e+002, 3.654458e+003
2.546055e+002, 3.704269e+003
2.565339e+002, 3.753270e+003
2.584624e+002, 3.801581e+003
2.603909e+002, 3.850267e+003
2.623193e+002, 3.898865e+003
2.642478e+002, 3.948115e+003
2.661763e+002, 3.998681e+003
2.681047e+002, 4.052980e+003
2.700332e+002, 4.105586e+003
2.719617e+002, 4.148810e+003
2.738901e+002, 4.187730e+003
2.758186e+002, 4.242311e+003
2.777471e+002, 4.307126e+003
2.796755e+002, 4.393400e+003
2.816040e+002, 4.510345e+003
2.835325e+002, 4.651808e+003
2.854609e+002, 4.832952e+003
2.873894e+002, 5.068799e+003
2.893179e+002, 5.350026e+003
2.912463e+002, 5.653843e+003
2.931748e+002, 5.991699e+003
2.951033e+002, 6.340726e+003
2.970317e+002, 6.690052e+003
2.989602e+002, 7.039335e+003
3.008887e+002, 7.386331e+003
3.028171e+002, 7.733255e+003
3.047456e+002, 8.077748e+003
3.066741e+002, 8.411338e+003
3.086025e+002, 8.748917e+003
3.105310e+002, 9.065469e+003
3.124595e+002, 9.339975e+003
3.143879e+002, 9.564006e+003
3.163164e+002, 9.802916e+003
3.182449e+002, 1.003579e+004
3.201733e+002, 1.028921e+004
3.221018e+002, 1.063863e+004
3.240303e+002, 1.107027e+004
3.259587e+002, 1.159654e+004
3.278872e+002, 1.223303e+004
3.298157e+002, 1.298937e+004
3.317441e+002, 1.378129e+004
3.336726e+002, 1.466783e+004
3.356011e+002, 1.556010e+004
3.375295e+002, 1.635081e+004
3.394580e+002, 1.713554e+004
3.413865e+002, 1.766140e+004
3.433149e+002, 1.784145e+004
3.452434e+002, 1.762152e+004
3.471719e+002, 1.729075e+004
3.491003e+002, 1.679591e+004
3.510288e+002, 1.622779e+004
3.529573e+002, 1.567398e+004
3.548857e+002, 1.515115e+004
3.568142e+002, 1.460818e+004
3.587427e+002, 1.402253e+004
3.606711e+002, 1.339963e+004
3.625996e+002, 1.280299e+004
3.645281e+002, 1.221479e+004
3.664565e+002, 1.166762e+004
3.683850e+002, 1.116235e+004
3.703135e+002, 1.068056e+004
3.722419e+002, 1.030490e+004
3.741704e+002, 1.003237e+004
3.760989e+002, 9.866552e+003
3.780273e+002, 9.805110e+003
3.799558e+002, 9.837619e+003
3.818843e+002, 9.977774e+003
3.838127e+002, 1.023732e+004
3.857412e+002, 1.063315e+004
3.876697e+002, 1.106197e+004
3.895981e+002, 1.168042e+004
3.915266e+002, 1.226250e+004
3.934551e+002, 1.250434e+004
3.953835e+002, 1.237346e+004
3.973120e+002, 1.201861e+004
3.992405e+002, 1.143351e+004
4.011689e+002, 1.060753e+004
4.030974e+002, 9.855287e+003
4.050259e+002, 9.190229e+003
4.069543e+002, 8.580248e+003
4.088828e+002, 8.001997e+003
4.108113e+002, 7.446537e+003
4.127397e+002, 6.950693e+003
4.146682e+002, 6.524167e+003
4.165967e+002, 6.158235e+003
4.185251e+002, 5.842111e+003
4.204536e+002, 5.580896e+003
4.223821e+002, 5.353345e+003
4.243105e+002, 5.156691e+003
4.262390e+002, 4.987228e+003
4.281675e+002, 4.841292e+003
4.300959e+002, 4.722523e+003
4.320244e+002, 4.622496e+003
4.339529e+002, 4.536135e+003
4.358813e+002, 4.462248e+003
4.378098e+002, 4.400875e+003
4.397383e+002, 4.356810e+003
4.416667e+002, 4.326283e+003
4.435952e+002, 4.300527e+003
4.455237e+002, 4.279187e+003
4.474521e+002, 4.262456e+003
4.493806e+002, 4.252772e+003
4.513091e+002, 4.251422e+003
4.532375e+002, 4.247204e+003
4.551660e+002, 4.235010e+003
4.570945e+002, 4.220116e+003
4.590229e+002, 4.208670e+003
4.609514e+002, 4.205179e+003
4.628799e+002, 4.200523e+003
4.648083e+002, 4.191399e+003
4.667368e+002, 4.179267e+003
4.686653e+002, 4.171497e+003
4.705938e+002, 4.172240e+003
4.725222e+002, 4.174339e+003
4.744507e+002, 4.173756e+003
4.763792e+002, 4.166785e+003
4.783076e+002, 4.164665e+003
4.802361e+002, 4.169205e+003
4.821646e+002, 4.178516e+003
4.840930e+002, 4.188934e+003
4.860215e+002, 4.198739e+003
4.879500e+002, 4.212950e+003
4.898784e+002, 4.235926e+003
4.918069e+002, 4.267007e+003
4.937354e+002, 4.288495e+003
4.956638e+002, 4.302850e+003
4.975923e+002, 4.306025e+003
4.995208e+002, 4.294242e+003
5.014492e+002, 4.266575e+003
5.033777e+002, 4.235914e+003
5.053062e+002, 4.201166e+003
5.072346e+002, 4.166443e+003
5.091631e+002, 4.137926e+003
5.110916e+002, 4.116763e+003
5.130200e+002, 4.099254e+003
5.149485e+002, 4.084122e+003
5.168770e+002, 4.071788e+003
5.188054e+002, 4.065386e+003
5.207339e+002, 4.070346e+003
5.226624e+002, 4.076855e+003
5.245908e+002, 4.079669e+003
5.265193e+002, 4.077327e+003
5.284478e+002, 4.080665e+003
5.303762e+002, 4.096918e+003
5.323047e+002, 4.115053e+003
5.342332e+002, 4.125778e+003
5.361616e+002, 4.127865e+003
5.380901e+002, 4.122852e+003
5.400186e+002, 4.108934e+003
5.419470e+002, 4.088389e+003
5.438755e+002, 4.068078e+003
5.458040e+002, 4.048432e+003
5.477324e+002, 4.030141e+003
5.496609e+002, 4.013623e+003
5.515894e+002, 3.999100e+003
5.535178e+002, 3.987307e+003
5.554463e+002, 3.977728e+003
5.573748e+002, 3.970442e+003
5.593032e+002, 3.964921e+003
5.612317e+002, 3.960068e+003
5.631602e+002, 3.958639e+003
5.650886e+002, 3.964605e+003
5.670171e+002, 3.972495e+003
5.689456e+002, 3.975941e+003
5.708740e+002, 3.968705e+003
5.728025e+002, 3.964014e+003
5.747310e+002, 3.964990e+003
5.766594e+002, 3.970320e+003
5.785879e+002, 3.975683e+003
5.805164e+002, 3.981279e+003
5.824448e+002, 3.986878e+003
5.843733e+002, 3.991406e+003
5.863018e+002, 3.993971e+003
5.882302e+002, 4.001457e+003
5.901587e+002, 4.019087e+003
5.920872e+002, 4.037373e+003
5.940156e+002, 4.048675e+003
5.959441e+002, 4.051655e+003
5.978726e+002, 4.057475e+003
5.998010e+002, 4.069586e+003
6.017295e+002, 4.085104e+003
6.036580e+002, 4.100656e+003
6.055864e+002, 4.114741e+003
6.075149e+002, 4.130871e+003
6.094434e+002, 4.152005e+003
6.113718e+002, 4.175466e+003
6.133003e+002, 4.195527e+003
6.152288e+002, 4.209190e+003
6.171572e+002, 4.222918e+003
6.190857e+002, 4.238740e+003
6.210142e+002, 4.256848e+003
6.229426e+002, 4.276056e+003
6.248711e+002, 4.294124e+003
6.267996e+002, 4.315167e+003
6.287280e+002, 4.341981e+003
6.306565e+002, 4.374829e+003
6.325850e+002, 4.408092e+003
6.345134e+002, 4.442307e+003
6.364419e+002, 4.475881e+003
6.383704e+002, 4.507146e+003
6.402988e+002, 4.535522e+003
6.422273e+002, 4.562810e+003
6.441558e+002, 4.584763e+003
6.460842e+002, 4.607177e+003
6.480127e+002, 4.637316e+003
6.499412e+002, 4.678915e+003
6.518696e+002, 4.722391e+003
6.537981e+002, 4.768123e+003
6.557266e+002, 4.814560e+003
6.576550e+002, 4.855661e+003
6.595835e+002, 4.886245e+003
6.615120e+002, 4.920263e+003
6.634404e+002, 4.966816e+003
6.653689e+002, 5.023529e+003
6.672974e+002, 5.075819e+003
6.692258e+002, 5.114564e+003
6.711543e+002, 5.155587e+003
6.730828e+002, 5.205640e+003
6.750112e+002, 5.265967e+003
6.769397e+002, 5.324837e+003
6.788682e+002, 5.379826e+003
6.807966e+002, 5.432907e+003
6.827251e+002, 5.485536e+003
6.846536e+002, 5.537634e+003
6.865820e+002, 5.587545e+003
6.885105e+002, 5.633405e+003
6.904390e+002, 5.678903e+003
6.923674e+002, 5.727870e+003
6.942959e+002, 5.781023e+003
6.962244e+002, 5.837651e+003
6.981528e+002, 5.894497e+003
7.000813e+002, 5.957154e+003
7.020098e+002, 6.033652e+003
7.039382e+002, 6.134249e+003
7.058667e+002, 6.231952e+003
7.077952e+002, 6.314074e+003
7.097236e+002, 6.389903e+003
7.116521e+002, 6.485469e+003
7.135806e+002, 6.604976e+003
7.155090e+002, 6.734025e+003
7.174375e+002, 6.861180e+003
7.193660e+002, 6.992380e+003
7.212944e+002, 7.149794e+003
7.232229e+002, 7.330047e+003
7.251514e+002, 7.543659e+003
7.270798e+002, 7.789437e+003
7.290083e+002, 8.071008e+003
7.309368e+002, 8.401857e+003
7.328652e+002, 8.786342e+003
7.347937e+002, 9.213589e+003
7.367222e+002, 9.688311e+003
7.386506e+002, 1.020744e+004
7.405791e+002, 1.073141e+004
7.425076e+002, 1.127939e+004
7.444360e+002, 1.181453e+004
7.463645e+002, 1.231313e+004
7.482930e+002, 1.277133e+004
7.502214e+002, 1.322880e+004
7.521499e+002, 1.365106e+004
7.540784e+002, 1.410612e+004
7.560068e+002, 1.461058e+004
7.579353e+002, 1.515028e+004
7.598638e+002, 1.583180e+004
7.617922e+002, 1.664643e+004
7.637207e+002, 1.760934e+004
7.656492e+002, 1.873798e+004
7.675776e+002, 2.001815e+004
7.695061e+002, 2.151966e+004
7.714346e+002, 2.330621e+004
7.733630e+002, 2.529257e+004
7.752915e+002, 2.746135e+004
7.772200e+002, 2.991249e+004
7.791484e+002, 3.213950e+004
7.810769e+002, 3.425230e+004
7.830054e+002, 3.603682e+004
7.849338e+002, 3.719541e+004
7.868623e+002, 3.758301e+004
7.887908e+002, 3.776272e+004
7.907192e+002, 3.752614e+004
7.926477e+002, 3.725701e+004
7.945762e+002, 3.727188e+004
7.965046e+002, 3.748974e+004
7.984331e+002, 3.827832e+004
8.003616e+002, 3.976946e+004
8.022900e+002, 4.177813e+004
8.042185e+002, 4.410293e+004
8.061470e+002, 4.683149e+004
8.080754e+002, 4.969714e+004
8.100039e+002, 5.266054e+004
8.119324e+002, 5.575953e+004
8.138608e+002, 5.908906e+004
8.157893e+002, 6.280897e+004
8.177178e+002, 6.628159e+004
8.196462e+002, 6.966584e+004
8.215747e+002, 7.264191e+004
8.235032e+002, 7.464670e+004
8.254316e+002, 7.501362e+004
8.273601e+002, 7.544214e+004
8.292886e+002, 7.593708e+004
8.312170e+002, 7.668011e+004
8.331455e+002, 7.778817e+004
8.350740e+002, 7.917336e+004
8.370024e+002, 8.123243e+004
8.389309e+002, 8.464196e+004
8.408594e+002, 8.855117e+004
8.427878e+002, 9.174485e+004
8.447163e+002, 9.538733e+004
8.466448e+002, 9.671867e+004
8.485732e+002, 9.480192e+004
8.505017e+002, 9.068679e+004
8.524302e+002, 8.569471e+004
8.543586e+002, 7.938857e+004
8.562871e+002, 7.375910e+004
8.582156e+002, 6.938498e+004
8.601440e+002, 6.596469e+004
8.620725e+002, 6.325677e+004
8.640010e+002, 6.180460e+004
8.659294e+002, 6.030504e+004
8.678579e+002, 5.905007e+004
8.697864e+002, 5.754854e+004
8.717148e+002, 5.512898e+004
8.736433e+002, 5.173352e+004
8.755718e+002, 4.795941e+004
8.775002e+002, 4.355557e+004
8.794287e+002, 3.906995e+004
8.813572e+002, 3.499751e+004
8.832856e+002, 3.133086e+004
8.852141e+002, 2.816574e+004
8.871426e+002, 2.554811e+004
8.890710e+002, 2.335786e+004
8.909995e+002, 2.151958e+004
8.929280e+002, 2.003576e+004
8.948564e+002, 1.877423e+004
8.967849e+002, 1.774081e+004
8.987134e+002, 1.692059e+004
9.006418e+002, 1.629395e+004
9.025703e+002, 1.587628e+004
9.044988e+002, 1.557724e+004
9.064272e+002, 1.544345e+004
9.083557e+002, 1.536974e+004
9.102842e+002, 1.532245e+004
9.122126e+002, 1.532498e+004
9.141411e+002, 1.519814e+004
9.160696e+002, 1.491184e+004
9.179980e+002, 1.451572e+004
9.199265e+002, 1.400533e+004
9.218550e+002, 1.339429e+004
9.237834e+002, 1.280025e+004
9.257119e+002, 1.222950e+004
9.276404e+002, 1.169261e+004
9.295688e+002, 1.118913e+004
9.314973e+002, 1.071928e+004
9.334258e+002, 1.030976e+004
9.353542e+002, 9.962701e+003
9.372827e+002, 9.664479e+003
9.392112e+002, 9.425055e+003
9.411396e+002, 9.233827e+003
9.430681e+002, 9.060154e+003
9.449966e+002, 8.901676e+003
9.469250e+002, 8.762423e+003
9.488535e+002, 8.647813e+003
9.507820e+002, 8.551481e+003
9.527104e+002, 8.456080e+003
9.546389e+002, 8.361704e+003
9.565674e+002, 8.268291e+003
9.584958e+002, 8.171298e+003
9.604243e+002, 8.077265e+003
9.623528e+002, 7.999358e+003
9.642813e+002, 7.942806e+003
9.662097e+002, 7.883671e+003
9.681382e+002, 7.806233e+003
9.700667e+002, 7.729783e+003
9.719951e+002, 7.675246e+003
9.739236e+002, 7.650677e+003
9.758521e+002, 7.622599e+003
9.777805e+002, 7.583461e+003
9.797090e+002, 7.541548e+003
9.816375e+002, 7.501949e+003
9.835659e+002, 7.464117e+003
9.854944e+002, 7.428206e+003
9.874229e+002, 7.396167e+003
9.893513e+002, 7.364499e+003
9.912798e+002, 7.333147e+003
9.932083e+002, 7.302355e+003
9.951367e+002, 7.268267e+003
9.970652e+002, 7.229544e+003
9.989937e+002, 7.190687e+003
1.000922e+003, 7.151763e+003
1.002851e+003, 7.113726e+003
1.004779e+003, 7.082277e+003
1.006708e+003, 7.058287e+003
1.008636e+003, 7.037551e+003
1.010564e+003, 7.022770e+003
1.012493e+003, 7.008516e+003
1.014421e+003, 6.984015e+003
1.016350e+003, 6.944213e+003
1.018278e+003, 6.911578e+003
1.020207e+003, 6.902841e+003
1.022135e+003, 6.899039e+003
1.024064e+003, 6.882192e+003
1.025992e+003, 6.846655e+003
1.027921e+003, 6.815853e+003
1.029849e+003, 6.791989e+003
1.031778e+003, 6.772272e+003
1.033706e+003, 6.754471e+003
1.035635e+003, 6.738369e+003
1.037563e+003, 6.726516e+003
1.039491e+003, 6.720566e+003
1.041420e+003, 6.715563e+003
1.043348e+003, 6.710156e+003
1.045277e+003, 6.703327e+003
1.047205e+003, 6.692479e+003
1.049134e+003, 6.677809e+003
1.051062e+003, 6.658845e+003
1.052991e+003, 6.630552e+003
1.054919e+003, 6.600761e+003
1.056848e+003, 6.583785e+003
1.058776e+003, 6.589666e+003
1.060705e+003, 6.594011e+003
1.062633e+003, 6.596077e+003
1.064562e+003, 6.595654e+003
1.066490e+003, 6.589109e+003
1.068418e+003, 6.575556e+003
1.070347e+003, 6.570366e+003
1.072275e+003, 6.584039e+003
1.074204e+003, 6.595837e+003
1.076132e+003, 6.593203e+003
1.078061e+003, 6.576401e+003
1.079989e+003, 6.564267e+003
1.081918e+003, 6.559960e+003
1.083846e+003, 6.557229e+003
1.085775e+003, 6.555572e+003
1.087703e+003, 6.554628e+003
1.089632e+003, 6.553664e+003
1.091560e+003, 6.553427e+003
1.093489e+003, 6.551936e+003
1.095417e+003, 6.546075e+003
1.097345e+003, 6.541708e+003
1.099274e+003, 6.545429e+003
1.101202e+003, 6.558332e+003
1.103131e+003, 6.568352e+003
1.105059e+003, 6.567931e+003
1.106988e+003, 6.570363e+003
1.108916e+003, 6.583074e+003
1.110845e+003, 6.604938e+003
1.112773e+003, 6.623151e+003
1.114702e+003, 6.631297e+003
1.116630e+003, 6.641944e+003
1.118559e+003, 6.660105e+003
1.120487e+003, 6.681116e+003
1.122416e+003, 6.696804e+003
1.124344e+003, 6.706324e+003
1.126272e+003, 6.716139e+003
1.128201e+003, 6.729483e+003
1.130129e+003, 6.742862e+003
1.132058e+003, 6.752315e+003
1.133986e+003, 6.757815e+003
1.135915e+003, 6.769789e+003
1.137843e+003, 6.796857e+003
1.139772e+003, 6.822139e+003
1.141700e+003, 6.839831e+003
1.143629e+003, 6.851292e+003
1.145557e+003, 6.861340e+003
1.147486e+003, 6.866724e+003
1.149414e+003, 6.875483e+003
1.151343e+003, 6.890089e+003
1.153271e+003, 6.907484e+003
1.155199e+003, 6.925084e+003
1.157128e+003, 6.942883e+003
1.159056e+003, 6.959236e+003
1.160985e+003, 6.969967e+003
1.162913e+003, 6.984456e+003
1.164842e+003, 7.010780e+003
1.166770e+003, 7.046334e+003
1.168699e+003, 7.073614e+003
1.170627e+003, 7.086775e+003
1.172556e+003, 7.101213e+003
1.174484e+003, 7.119898e+003
1.176413e+003, 7.141027e+003
1.178341e+003, 7.162541e+003
1.180270e+003, 7.184417e+003
1.182198e+003, 7.204069e+003
1.184126e+003, 7.219233e+003
1.186055e+003, 7.232706e+003
1.187983e+003, 7.247514e+003
1.189912e+003, 7.261842e+003
1.191840e+003, 7.269490e+003
1.193769e+003, 7.268817e+003
1.195697e+003, 7.266572e+003
1.197626e+003, 7.263151e+003
1.199554e+003, 7.262155e+003
1.201483e+003, 7.267780e+003
1.203411e+003, 7.281497e+003
1.205340e+003, 7.299227e+003
1.207268e+003, 7.321801e+003
1.209197e+003, 7.346307e+003
1.211125e+003, 7.370845e+003
1.213053e+003, 7.394708e+003
1.214982e+003, 7.417745e+003
1.216910e+003, 7.439182e+003
1.218839e+003, 7.458372e+003
1.220767e+003, 7.474673e+003
1.222696e+003, 7.488751e+003
1.224624e+003, 7.503601e+003
1.226553e+003, 7.520204e+003
1.228481e+003, 7.529750e+003
1.230410e+003, 7.527018e+003
1.232338e+003, 7.525046e+003
1.234267e+003, 7.530187e+003
1.236195e+003, 7.540596e+003
1.238124e+003, 7.550737e+003
1.240052e+003, 7.562272e+003
1.241980e+003, 7.567905e+003
1.243909e+003, 7.564832e+003
1.245837e+003, 7.556477e+003
1.247766e+003, 7.543673e+003
1.249694e+003, 7.525711e+003
1.251623e+003, 7.513941e+003
1.253551e+003, 7.517453e+003
1.255480e+003, 7.516772e+003
1.257408e+003, 7.502414e+003
1.259337e+003, 7.481602e+003
1.261265e+003, 7.466397e+003
1.263194e+003, 7.457308e+003
1.265122e+003, 7.447547e+003
1.267051e+003, 7.433807e+003
1.268979e+003, 7.421323e+003
1.270907e+003, 7.413544e+003
1.272836e+003, 7.409799e+003
1.274764e+003, 7.406267e+003
1.276693e+003, 7.403244e+003
1.278621e+003, 7.400189e+003
1.280550e+003, 7.397159e+003
1.282478e+003, 7.393947e+003
1.284407e+003, 7.390546e+003
1.286335e+003, 7.387063e+003
1.288264e+003, 7.381177e+003
1.290192e+003, 7.367730e+003
1.292121e+003, 7.357952e+003
1.294049e+003, 7.358759e+003
1.295978e+003, 7.364462e+003
1.297906e+003, 7.364206e+003
1.299834e+003, 7.357126e+003
1.301763e+003, 7.350393e+003
1.303691e+003, 7.345811e+003
1.305620e+003, 7.341173e+003
1.307548e+003, 7.333647e+003
1.309477e+003, 7.325215e+003
1.311405e+003, 7.322972e+003
1.313334e+003, 7.331613e+003
1.315262e+003, 7.334092e+003
1.317191e+003, 7.321073e+003
1.319119e+003, 7.304612e+003
1.321048e+003, 7.292301e+003
1.322976e+003, 7.284134e+003
1.324905e+003, 7.278763e+003
1.326833e+003, 7.276859e+003
1.328761e+003, 7.276323e+003
1.330690e+003, 7.277784e+003
1.332618e+003, 7.279681e+003
1.334547e+003, 7.280061e+003
1.336475e+003, 7.278581e+003
1.338404e+003, 7.277905e+003
1.340332e+003, 7.280802e+003
1.342261e+003, 7.281725e+003
1.344189e+003, 7.276526e+003
1.346118e+003, 7.268870e+003
1.348046e+003, 7.265215e+003
1.349975e+003, 7.265852e+003
1.351903e+003, 7.265598e+003
1.353832e+003, 7.260725e+003
1.355760e+003, 7.258271e+003
1.357688e+003, 7.264255e+003
1.359617e+003, 7.275333e+003
1.361545e+003, 7.283324e+003
1.363474e+003, 7.288342e+003
1.365402e+003, 7.289734e+003
1.367331e+003, 7.282574e+003
1.369259e+003, 7.276241e+003
1.371188e+003, 7.274847e+003
1.373116e+003, 7.278273e+003
1.375045e+003, 7.286468e+003
1.376973e+003, 7.307217e+003
1.378902e+003, 7.321132e+003
1.380830e+003, 7.322907e+003
1.382759e+003, 7.321348e+003
1.384687e+003, 7.323047e+003
1.386615e+003, 7.327837e+003
1.388544e+003, 7.331343e+003
1.390472e+003, 7.333298e+003
1.392401e+003, 7.334776e+003
1.394329e+003, 7.333418e+003
1.396258e+003, 7.333431e+003
1.398186e+003, 7.338249e+003
1.400115e+003, 7.347325e+003
1.402043e+003, 7.360380e+003
1.403972e+003, 7.380096e+003
1.405900e+003, 7.396702e+003
1.407829e+003, 7.407690e+003
1.409757e+003, 7.413474e+003
1.411686e+003, 7.412543e+003
1.413614e+003, 7.405919e+003
1.415542e+003, 7.403901e+003
1.417471e+003, 7.407556e+003
1.419399e+003, 7.416191e+003
1.421328e+003, 7.431499e+003
1.423256e+003, 7.449204e+003
1.425185e+003, 7.465866e+003
1.427113e+003, 7.481187e+003
1.429042e+003, 7.491897e+003
1.430970e+003, 7.493484e+003
1.432899e+003, 7.495801e+003
1.434827e+003, 7.503665e+003
1.436756e+003, 7.512278e+003
1.438684e+003, 7.516069e+003
1.440613e+003, 7.515217e+003
1.442541e+003, 7.518973e+003
1.444469e+003, 7.527708e+003
1.446398e+003, 7.540951e+003
1.448326e+003, 7.559539e+003
1.450255e+003, 7.580877e+003
1.452183e+003, 7.602427e+003
1.454112e+003, 7.623275e+003
1.456040e+003, 7.642778e+003
1.457969e+003, 7.659740e+003
1.459897e+003, 7.676081e+003
1.461826e+003, 7.695527e+003
1.463754e+003, 7.712646e+003
1.465683e+003, 7.720341e+003
1.467611e+003, 7.721292e+003
1.469540e+003, 7.728815e+003
1.471468e+003, 7.746420e+003
1.473396e+003, 7.764648e+003
1.475325e+003, 7.779903e+003
1.477253e+003, 7.794744e+003
1.479182e+003, 7.811896e+003
1.481110e+003, 7.830228e+003
1.483039e+003, 7.843823e+003
1.484967e+003, 7.850444e+003
1.486896e+003, 7.857681e+003
1.488824e+003, 7.866378e+003
1.490753e+003, 7.877575e+003
1.492681e+003, 7.892855e+003
1.494610e+003, 7.911696e+003
1.496538e+003, 7.930839e+003
1.498467e+003, 7.952275e+003
1.500395e+003, 7.968923e+003
1.502323e+003, 7.973518e+003
1.504252e+003, 7.979953e+003
1.506180e+003, 7.998380e+003
1.508109e+003, 8.024111e+003
1.510037e+003, 8.043486e+003
1.511966e+003, 8.052499e+003
1.513894e+003, 8.064472e+003
1.515823e+003, 8.082166e+003
1.517751e+003, 8.100407e+003
1.519680e+003, 8.114393e+003
1.521608e+003, 8.128661e+003
1.523537e+003, 8.152438e+003
1.525465e+003, 8.188419e+003
1.527394e+003, 8.218756e+003
1.529322e+003, 8.236857e+003
1.531250e+003, 8.256561e+003
1.533179e+003, 8.284290e+003
1.535107e+003, 8.313547e+003
1.537036e+003, 8.336015e+003
1.538964e+003, 8.352494e+003
1.540893e+003, 8.371183e+003
1.542821e+003, 8.391502e+003
1.544750e+003, 8.416782e+003
1.546678e+003, 8.455768e+003
1.548607e+003, 8.493166e+003
1.550535e+003, 8.513851e+003
1.552464e+003, 8.523064e+003
1.554392e+003, 8.537476e+003
1.556321e+003, 8.559148e+003
1.558249e+003, 8.577874e+003
1.560177e+003, 8.585719e+003
1.562106e+003, 8.598446e+003
1.564034e+003, 8.630471e+003
1.565963e+003, 8.672327e+003
1.567891e+003, 8.707429e+003
1.569820e+003, 8.735420e+003
1.571748e+003, 8.764555e+003
1.573677e+003, 8.793318e+003
1.575605e+003, 8.826475e+003
1.577534e+003, 8.866722e+003
1.579462e+003, 8.910012e+003
1.581391e+003, 8.953340e+003
1.583319e+003, 8.996377e+003
1.585248e+003, 9.037017e+003
1.587176e+003, 9.073544e+003
1.589104e+003, 9.112701e+003
1.591033e+003, 9.159245e+003
1.592961e+003, 9.206808e+003
1.594890e+003, 9.252341e+003
1.596818e+003, 9.296057e+003
1.598747e+003, 9.337900e+003
1.600675e+003, 9.375980e+003
1.602604e+003, 9.420607e+003
1.604532e+003, 9.477435e+003
1.606461e+003, 9.537456e+003
1.608389e+003, 9.600622e+003
1.610318e+003, 9.665452e+003
1.612246e+003, 9.727729e+003
1.614175e+003, 9.786547e+003
1.616103e+003, 9.855637e+003
1.618031e+003, 9.942307e+003
1.619960e+003, 1.002257e+004
1.621888e+003, 1.008446e+004
1.623817e+003, 1.014334e+004
1.625745e+003, 1.021335e+004
1.627674e+003, 1.028701e+004
1.629602e+003, 1.034292e+004
1.631531e+003, 1.037360e+004
1.633459e+003, 1.040772e+004
1.635388e+003, 1.046358e+004
1.637316e+003, 1.050278e+004
1.639245e+003, 1.049770e+004
1.641173e+003, 1.048423e+004
1.643102e+003, 1.050545e+004
1.645030e+003, 1.055943e+004
1.646958e+003, 1.059740e+004
1.648887e+003, 1.060049e+004
1.650815e+003, 1.061549e+004
1.652744e+003, 1.065482e+004
1.654672e+003, 1.069347e+004
1.656601e+003, 1.071562e+004
1.658529e+003, 1.072990e+004
1.660458e+003, 1.075199e+004
1.662386e+003, 1.078255e+004
1.664315e+003, 1.081595e+004
1.666243e+003, 1.084968e+004
1.668172e+003, 1.089005e+004
1.670100e+003, 1.094242e+004
1.672029e+003, 1.099842e+004
1.673957e+003, 1.105327e+004
1.675885e+003, 1.110661e+004
1.677814e+003, 1.115731e+004
1.679742e+003, 1.120558e+004
1.681671e+003, 1.124921e+004
1.683599e+003, 1.128704e+004
1.685528e+003, 1.132013e+004
1.687456e+003, 1.135620e+004
1.689385e+003, 1.138056e+004
1.691313e+003, 1.137119e+004
1.693242e+003, 1.133392e+004
1.695170e+003, 1.131243e+004
1.697099e+003, 1.132727e+004
1.699027e+003, 1.131286e+004
1.700956e+003, 1.124484e+004
1.702884e+003, 1.117601e+004
1.704813e+003, 1.112964e+004
1.706741e+003, 1.109199e+004
1.708669e+003, 1.104794e+004
1.710598e+003, 1.099799e+004
1.712526e+003, 1.094444e+004
1.714455e+003, 1.088053e+004
1.716383e+003, 1.082582e+004
1.718312e+003, 1.078686e+004
1.720240e+003, 1.075014e+004
1.722169e+003, 1.070966e+004
1.724097e+003, 1.066645e+004
1.726026e+003, 1.062032e+004
1.727954e+003, 1.057043e+004
1.729883e+003, 1.052678e+004
1.731811e+003, 1.049524e+004
1.733740e+003, 1.045927e+004
1.735668e+003, 1.041310e+004
1.737596e+003, 1.037031e+004
1.739525e+003, 1.034380e+004
1.741453e+003, 1.032365e+004
1.743382e+003, 1.029125e+004
1.745310e+003, 1.024680e+004
1.747239e+003, 1.022065e+004
1.749167e+003, 1.022319e+004
1.751096e+003, 1.022576e+004
1.753024e+003, 1.022694e+004
1.754953e+003, 1.022377e+004
1.756881e+003, 1.020812e+004
1.758810e+003, 1.018931e+004
1.760738e+003, 1.018376e+004
1.762667e+003, 1.019154e+004
1.764595e+003, 1.018940e+004
1.766523e+003, 1.016934e+004
1.768452e+003, 1.015572e+004
1.770380e+003, 1.015774e+004
1.772309e+003, 1.015809e+004
1.774237e+003, 1.014871e+004
1.776166e+003, 1.013457e+004
1.778094e+003, 1.011918e+004
1.780023e+003, 1.010286e+004
1.781951e+003, 1.009377e+004
1.783880e+003, 1.009411e+004
1.785808e+003, 1.009598e+004
1.787737e+003, 1.010873e+004
1.789665e+003, 1.010946e+004
1.791594e+003, 1.007973e+004
1.793522e+003, 1.004403e+004
1.795450e+003, 1.002689e+004
1.797379e+003, 1.002422e+004
1.799307e+003, 1.001638e+004
1.801236e+003, 1.000149e+004
1.803164e+003, 9.990052e+003
1.805093e+003, 9.985459e+003
1.807021e+003, 9.982343e+003
1.808950e+003, 9.980915e+003
1.810878e+003, 9.980658e+003
1.812807e+003, 9.982489e+003
1.814735e+003, 9.985129e+003
1.816664e+003, 9.982920e+003
1.818592e+003, 9.974701e+003
1.820521e+003, 9.975854e+003
1.822449e+003, 9.991609e+003
1.824377e+003, 1.000126e+004
1.826306e+003, 9.996600e+003
1.828234e+003, 9.986533e+003
1.830163e+003, 9.971041e+003
1.832091e+003, 9.956150e+003
1.834020e+003, 9.953339e+003
1.835948e+003, 9.960163e+003
1.837877e+003, 9.958912e+003
1.839805e+003, 9.948361e+003
1.841734e+003, 9.936096e+003
1.843662e+003, 9.920562e+003
1.845591e+003, 9.909261e+003
1.847519e+003, 9.907818e+003
1.849448e+003, 9.909101e+003
1.851376e+003, 9.908137e+003
1.853304e+003, 9.904992e+003
1.855233e+003, 9.900609e+003
1.857161e+003, 9.895342e+003
1.859090e+003, 9.885559e+003
1.861018e+003, 9.868617e+003
1.862947e+003, 9.856447e+003
1.864875e+003, 9.853871e+003
1.866804e+003, 9.855751e+003
1.868732e+003, 9.859758e+003
1.870661e+003, 9.865270e+003
1.872589e+003, 9.871084e+003
1.874518e+003, 9.876058e+003
1.876446e+003, 9.879935e+003
1.878375e+003, 9.881651e+003
1.880303e+003, 9.879422e+003
1.882231e+003, 9.875182e+003
1.884160e+003, 9.864080e+003
1.886088e+003, 9.840870e+003
1.888017e+003, 9.817934e+003
1.889945e+003, 9.805753e+003
1.891874e+003, 9.801361e+003
1.893802e+003, 9.798808e+003
1.895731e+003, 9.798779e+003
1.897659e+003, 9.799229e+003
1.899588e+003, 9.797511e+003
1.901516e+003, 9.798524e+003
1.903445e+003, 9.801277e+003
1.905373e+003, 9.804509e+003
1.907302e+003, 9.810257e+003
1.909230e+003, 9.812904e+003
1.911158e+003, 9.807109e+003
1.913087e+003, 9.796191e+003
1.915015e+003, 9.787231e+003
1.916944e+003, 9.780983e+003
1.918872e+003, 9.775131e+003
1.920801e+003, 9.768248e+003
1.922729e+003, 9.766526e+003
1.924658e+003, 9.773722e+003
1.926586e+003, 9.779858e+003
1.928515e+003, 9.779979e+003
1.930443e+003, 9.777287e+003
1.932372e+003, 9.773975e+003
1.934300e+003, 9.770570e+003
1.936229e+003, 9.768524e+003
1.938157e+003, 9.768050e+003
1.940085e+003, 9.765542e+003
1.942014e+003, 9.759837e+003
1.943942e+003, 9.756122e+003
1.945871e+003, 9.753334e+003
1.947799e+003, 9.755158e+003
1.949728e+003, 9.770954e+003
1.951656e+003, 9.784045e+003
1.953585e+003, 9.774945e+003
1.955513e+003, 9.756005e+003
1.957442e+003, 9.753800e+003
1.959370e+003, 9.768995e+003
1.961299e+003, 9.781872e+003
1.963227e+003, 9.792536e+003
1.965156e+003, 9.800879e+003
1.967084e+003, 9.801777e+003
1.969012e+003, 9.806236e+003
1.970941e+003, 9.816692e+003
1.972869e+003, 9.830045e+003
1.974798e+003, 9.845979e+003
1.976726e+003, 9.861570e+003
1.978655e+003, 9.875205e+003
1.980583e+003, 9.886351e+003
1.982512e+003, 9.882260e+003
1.984440e+003, 9.859893e+003
1.986369e+003, 9.850995e+003
1.988297e+003, 9.865339e+003
1.990226e+003, 9.880158e+003
1.992154e+003, 9.888511e+003
1.994083e+003, 9.896177e+003
1.996011e+003, 9.904347e+003
1.997939e+003, 9.913152e+003
1.999868e+003, 9.922760e+003
2.001796e+003, 9.932742e+003
2.003725e+003, 9.943358e+003
2.005653e+003, 9.954925e+003
2.007582e+003, 9.967112e+003
2.009510e+003, 9.983964e+003
2.011439e+003, 9.991361e+003
2.013367e+003, 9.971154e+003
2.015296e+003, 9.962920e+003
2.017224e+003, 9.988731e+003
2.019153e+003, 1.001797e+004
2.021081e+003, 1.002679e+004
2.023010e+003, 1.002575e+004
2.024938e+003, 1.003216e+004
2.026866e+003, 1.004533e+004
2.028795e+003, 1.005766e+004
2.030723e+003, 1.007321e+004
2.032652e+003, 1.007514e+004
2.034580e+003, 1.005320e+004
2.036509e+003, 1.004424e+004
2.038437e+003, 1.006059e+004
2.040366e+003, 1.008137e+004
2.042294e+003, 1.010094e+004
2.044223e+003, 1.011531e+004
2.046151e+003, 1.011696e+004
2.048080e+003, 1.011320e+004
2.050008e+003, 1.011895e+004
2.051937e+003, 1.013162e+004
2.053865e+003, 1.013408e+004
2.055793e+003, 1.012489e+004
2.057722e+003, 1.012273e+004
2.059650e+003, 1.013315e+004
2.061579e+003, 1.014374e+004
2.063507e+003, 1.015102e+004
2.065436e+003, 1.015734e+004
2.067364e+003, 1.016226e+004
2.069293e+003, 1.016609e+004
2.071221e+003, 1.017162e+004
2.073150e+003, 1.017490e+004
2.075078e+003, 1.016741e+004
2.077007e+003, 1.015077e+004
2.078935e+003, 1.013861e+004
2.080864e+003, 1.013213e+004
2.082792e+003, 1.012690e+004
2.084720e+003, 1.012279e+004
2.086649e+003, 1.012281e+004
2.088577e+003, 1.013217e+004
2.090506e+003, 1.013873e+004
2.092434e+003, 1.013388e+004
2.094363e+003, 1.012892e+004
2.096291e+003, 1.013150e+004
2.098220e+003, 1.013694e+004
2.100148e+003, 1.013697e+004
2.102077e+003, 1.013327e+004
2.104005e+003, 1.013581e+004
2.105934e+003, 1.014450e+004
2.107862e+003, 1.014918e+004
2.109791e+003, 1.015348e+004
2.111719e+003, 1.014810e+004
2.113647e+003, 1.013060e+004
2.115576e+003, 1.011194e+004
2.117504e+003, 1.009407e+004
2.119433e+003, 1.007968e+004
2.121361e+003, 1.006980e+004
2.123290e+003, 1.006518e+004
2.125218e+003, 1.006598e+004
2.127147e+003, 1.007164e+004
2.129075e+003, 1.008326e+004
2.131004e+003, 1.009800e+004
2.132932e+003, 1.010464e+004
2.134861e+003, 1.010169e+004
2.136789e+003, 1.010553e+004
2.138718e+003, 1.012125e+004
2.140646e+003, 1.013031e+004
2.142574e+003, 1.012290e+004
2.144503e+003, 1.011868e+004
2.146431e+003, 1.013077e+004
2.148360e+003, 1.013889e+004
2.150288e+003, 1.012510e+004
2.152217e+003, 1.010888e+004
2.154145e+003, 1.011100e+004
2.156074e+003, 1.012393e+004
2.158002e+003, 1.013369e+004
2.159931e+003, 1.013984e+004
2.161859e+003, 1.014050e+004
2.163788e+003, 1.013526e+004
2.165716e+003, 1.012977e+004
2.167645e+003, 1.012466e+004
2.169573e+003, 1.011927e+004
2.171501e+003, 1.011259e+004
2.173430e+003, 1.010934e+004
2.175358e+003, 1.011456e+004
2.177287e+003, 1.012053e+004
2.179215e+003, 1.012160e+004
2.181144e+003, 1.012362e+004
2.183072e+003, 1.013338e+004
2.185001e+003, 1.014507e+004
2.186929e+003, 1.014842e+004
2.188858e+003, 1.014519e+004
2.190786e+003, 1.014511e+004
2.192715e+003, 1.014807e+004
2.194643e+003, 1.015076e+004
2.196572e+003, 1.015376e+004
2.198500e+003, 1.015663e+004
2.200428e+003, 1.016059e+004
2.202357e+003, 1.016240e+004
2.204285e+003, 1.016046e+004
2.206214e+003, 1.015768e+004
2.208142e+003, 1.014952e+004
2.210071e+003, 1.014700e+004
2.211999e+003, 1.016424e+004
2.213928e+003, 1.018283e+004
2.215856e+003, 1.018296e+004
2.217785e+003, 1.017308e+004
2.219713e+003, 1.016594e+004
2.221642e+003, 1.016285e+004
2.223570e+003, 1.017209e+004
2.225499e+003, 1.019366e+004
2.227427e+003, 1.019775e+004
2.229355e+003, 1.017839e+004
2.231284e+003, 1.017483e+004
2.233212e+003, 1.019586e+004
2.235141e+003, 1.021591e+004
2.237069e+003, 1.023533e+004
2.238998e+003, 1.024003e+004
2.240926e+003, 1.021013e+004
2.242855e+003, 1.018523e+004
2.244783e+003, 1.019630e+004
2.246712e+003, 1.021378e+004
2.248640e+003, 1.020859e+004
2.250569e+003, 1.019628e+004
2.252497e+003, 1.020268e+004
2.254426e+003, 1.022020e+004
2.256354e+003, 1.022075e+004
2.258282e+003, 1.020759e+004
2.260211e+003, 1.020925e+004
2.262139e+003, 1.022656e+004
2.264068e+003, 1.023819e+004
2.265996e+003, 1.024097e+004
2.267925e+003, 1.024038e+004
2.269853e+003, 1.023263e+004
2.271782e+003, 1.022960e+004
2.273710e+003, 1.023586e+004
2.275639e+003, 1.024452e+004
2.277567e+003, 1.025703e+004
2.279496e+003, 1.026717e+004
2.281424e+003, 1.027157e+004
2.283353e+003, 1.027168e+004
2.285281e+003, 1.026530e+004
2.287209e+003, 1.025749e+004
2.289138e+003, 1.025678e+004
2.291066e+003, 1.026008e+004
2.292995e+003, 1.025943e+004
2.294923e+003, 1.025627e+004
2.296852e+003, 1.025812e+004
2.298780e+003, 1.026565e+004
2.300709e+003, 1.027669e+004
2.302637e+003, 1.029524e+004
2.304566e+003, 1.030615e+004
2.306494e+003, 1.030298e+004
2.308423e+003, 1.030400e+004
2.310351e+003, 1.031182e+004
2.312280e+003, 1.032225e+004
2.314208e+003, 1.033766e+004
2.316136e+003, 1.034944e+004
2.318065e+003, 1.035274e+004
2.319993e+003, 1.035267e+004
2.321922e+003, 1.035304e+004
2.323850e+003, 1.035201e+004
2.325779e+003, 1.034453e+004
2.327707e+003, 1.033667e+004
2.329636e+003, 1.033940e+004
2.331564e+003, 1.034860e+004
2.333493e+003, 1.035313e+004
2.335421e+003, 1.035271e+004
2.337350e+003, 1.034657e+004
2.339278e+003, 1.033517e+004
2.341207e+003, 1.033605e+004
2.343135e+003, 1.035296e+004
2.345063e+003, 1.035584e+004
2.346992e+003, 1.033492e+004
2.348920e+003, 1.032427e+004
2.350849e+003, 1.033443e+004
2.352777e+003, 1.034712e+004
2.354706e+003, 1.035983e+004
2.356634e+003, 1.037233e+004
2.358563e+003, 1.038336e+004
2.360491e+003, 1.039270e+004
2.362420e+003, 1.040043e+004
2.364348e+003, 1.040512e+004
2.366277e+003, 1.040231e+004
2.368205e+003, 1.040033e+004
2.370134e+003, 1.041456e+004
2.372062e+003, 1.043021e+004
2.373990e+003, 1.041827e+004
2.375919e+003, 1.039424e+004
2.377847e+003, 1.039861e+004
2.379776e+003, 1.042482e+004
2.381704e+003, 1.043377e+004
2.383633e+003, 1.042721e+004
2.385561e+003, 1.043767e+004
2.387490e+003, 1.046583e+004
2.389418e+003, 1.048080e+004
2.391347e+003, 1.047676e+004
2.393275e+003, 1.048166e+004
2.395204e+003, 1.050313e+004
2.397132e+003, 1.052029e+004
2.399061e+003, 1.052644e+004
2.400989e+003, 1.053329e+004
2.402917e+003, 1.054956e+004
2.404846e+003, 1.055553e+004
2.406774e+003, 1.053535e+004
2.408703e+003, 1.052376e+004
2.410631e+003, 1.054483e+004
2.412560e+003, 1.056750e+004
2.414488e+003, 1.057326e+004
2.416417e+003, 1.057265e+004
2.418345e+003, 1.057104e+004
2.420274e+003, 1.057027e+004
2.422202e+003, 1.056838e+004
2.424131e+003, 1.057081e+004
2.426059e+003, 1.059137e+004
2.427988e+003, 1.062082e+004
2.429916e+003, 1.063878e+004
2.431844e+003, 1.064659e+004
2.433773e+003, 1.064577e+004
2.435701e+003, 1.063859e+004
2.437630e+003, 1.063817e+004
2.439558e+003, 1.064548e+004
2.441487e+003, 1.065284e+004
2.443415e+003, 1.066045e+004
2.445344e+003, 1.066805e+004
2.447272e+003, 1.067597e+004
2.449201e+003, 1.068146e+004
2.451129e+003, 1.068249e+004
2.453058e+003, 1.068771e+004
2.454986e+003, 1.069851e+004
2.456915e+003, 1.071344e+004
2.458843e+003, 1.074066e+004
2.460771e+003, 1.075625e+004
2.462700e+003, 1.074371e+004
2.464628e+003, 1.073402e+004
2.466557e+003, 1.073904e+004
2.468485e+003, 1.074703e+004
2.470414e+003, 1.075710e+004
2.472342e+003, 1.076320e+004
2.474271e+003, 1.075739e+004
2.476199e+003, 1.075213e+004
2.478128e+003, 1.075890e+004
2.480056e+003, 1.076826e+004
2.481985e+003, 1.077161e+004
2.483913e+003, 1.077162e+004
2.485842e+003, 1.076946e+004
2.487770e+003, 1.076763e+004
2.489698e+003, 1.076815e+004
2.491627e+003, 1.077341e+004
2.493555e+003, 1.079527e+004
2.495484e+003, 1.082445e+004
2.497412e+003, 1.083609e+004
2.499341e+003, 1.083267e+004
2.501269e+003, 1.081943e+004
2.503198e+003, 1.079802e+004
2.505126e+003, 1.079483e+004
2.507055e+003, 1.081077e+004
2.508983e+003, 1.081789e+004
2.510912e+003, 1.081525e+004
2.512840e+003, 1.081923e+004
2.514769e+003, 1.083129e+004
2.516697e+003, 1.083799e+004
2.518625e+003, 1.083853e+004
2.520554e+003, 1.083375e+004
2.522482e+003, 1.081589e+004
2.524411e+003, 1.080987e+004
2.526339e+003, 1.082274e+004
2.528268e+003, 1.083164e+004
2.530196e+003, 1.083181e+004
2.532125e+003, 1.083469e+004
2.534053e+003, 1.084417e+004
2.535982e+003, 1.085242e+004
2.537910e+003, 1.085830e+004
2.539839e+003, 1.085964e+004
2.541767e+003, 1.084956e+004
2.543696e+003, 1.084329e+004
2.545624e+003, 1.084888e+004
2.547552e+003, 1.085534e+004
2.549481e+003, 1.086330e+004
2.551409e+003, 1.086488e+004
2.553338e+003, 1.085017e+004
2.555266e+003, 1.083671e+004
2.557195e+003, 1.083411e+004
2.559123e+003, 1.083907e+004
2.561052e+003, 1.085548e+004
2.562980e+003, 1.087077e+004
2.564909e+003, 1.087267e+004
2.566837e+003, 1.086858e+004
2.568766e+003, 1.086137e+004
2.570694e+003, 1.085473e+004
2.572623e+003, 1.085132e+004
2.574551e+003, 1.085188e+004
2.576479e+003, 1.086288e+004
2.578408e+003, 1.087544e+004
2.580336e+003, 1.087328e+004
2.582265e+003, 1.086538e+004
2.584193e+003, 1.086483e+004
2.586122e+003, 1.087188e+004
2.588050e+003, 1.089084e+004
2.589979e+003, 1.091465e+004
2.591907e+003, 1.093060e+004
2.593836e+003, 1.093682e+004
2.595764e+003, 1.092376e+004
2.597693e+003, 1.089788e+004
2.599621e+003, 1.089081e+004
2.601550e+003, 1.089815e+004
2.603478e+003, 1.089627e+004
2.605406e+003, 1.088777e+004
2.607335e+003, 1.088516e+004
2.609263e+003, 1.088807e+004
2.611192e+003, 1.088386e+004
2.613120e+003, 1.087286e+004
2.615049e+003, 1.087137e+004
2.616977e+003, 1.087905e+004
2.618906e+003, 1.088566e+004
2.620834e+003, 1.089085e+004
2.622763e+003, 1.090182e+004
2.624691e+003, 1.091890e+004
2.626620e+003, 1.091975e+004
2.628548e+003, 1.089984e+004
2.630477e+003, 1.089248e+004
2.632405e+003, 1.090100e+004
2.634333e+003, 1.090348e+004
2.636262e+003, 1.089912e+004
2.638190e+003, 1.089436e+004
2.640119e+003, 1.088869e+004
2.642047e+003, 1.089189e+004
2.643976e+003, 1.090991e+004
2.645904e+003, 1.091674e+004
2.647833e+003, 1.091017e+004
2.649761e+003, 1.089862e+004
2.651690e+003, 1.088125e+004
2.653618e+003, 1.087304e+004
2.655547e+003, 1.087709e+004
2.657475e+003, 1.088308e+004
2.659404e+003, 1.089010e+004
2.661332e+003, 1.089470e+004
2.663260e+003, 1.089357e+004
2.665189e+003, 1.089364e+004
2.667117e+003, 1.089532e+004
2.669046e+003, 1.089263e+004
2.670974e+003, 1.088325e+004
2.672903e+003, 1.087953e+004
2.674831e+003, 1.088852e+004
2.676760e+003, 1.089250e+004
2.678688e+003, 1.089347e+004
2.680617e+003, 1.088082e+004
2.682545e+003, 1.084694e+004
2.684474e+003, 1.082812e+004
2.686402e+003, 1.083299e+004
2.688331e+003, 1.083918e+004
2.690259e+003, 1.084371e+004
2.692188e+003, 1.084677e+004
2.694116e+003, 1.084353e+004
2.696044e+003, 1.084877e+004
2.697973e+003, 1.086599e+004
2.699901e+003, 1.087985e+004
2.701830e+003, 1.088704e+004
2.703758e+003, 1.089166e+004
2.705687e+003, 1.089235e+004
2.707615e+003, 1.089410e+004
2.709544e+003, 1.090096e+004
2.711472e+003, 1.089996e+004
2.713401e+003, 1.088632e+004
2.715329e+003, 1.087923e+004
2.717258e+003, 1.088333e+004
2.719186e+003, 1.088837e+004
2.721115e+003, 1.089603e+004
2.723043e+003, 1.089833e+004
2.724971e+003, 1.089359e+004
2.726900e+003, 1.088800e+004
2.728828e+003, 1.088103e+004
2.730757e+003, 1.087626e+004
2.732685e+003, 1.087222e+004
2.734614e+003, 1.087533e+004
2.736542e+003, 1.088722e+004
2.738471e+003, 1.090188e+004
2.740399e+003, 1.092458e+004
2.742328e+003, 1.093157e+004
2.744256e+003, 1.091910e+004
2.746185e+003, 1.090851e+004
2.748113e+003, 1.090344e+004
2.750042e+003, 1.089782e+004
2.751970e+003, 1.088762e+004
2.753898e+003, 1.088913e+004
2.755827e+003, 1.090901e+004
2.757755e+003, 1.090945e+004
2.759684e+003, 1.088550e+004
2.761612e+003, 1.087841e+004
2.763541e+003, 1.089407e+004
2.765469e+003, 1.091424e+004
2.767398e+003, 1.094250e+004
2.769326e+003, 1.094925e+004
2.771255e+003, 1.093047e+004
2.773183e+003, 1.092514e+004
2.775112e+003, 1.093442e+004
2.777040e+003, 1.093457e+004
2.778969e+003, 1.092338e+004
2.780897e+003, 1.091418e+004
2.782825e+003, 1.090691e+004
2.784754e+003, 1.091611e+004
2.786682e+003, 1.094012e+004
2.788611e+003, 1.093528e+004
2.790539e+003, 1.090533e+004
2.792468e+003, 1.089900e+004
2.794396e+003, 1.091421e+004
2.796325e+003, 1.091713e+004
2.798253e+003, 1.090965e+004
2.800182e+003, 1.091035e+004
2.802110e+003, 1.091659e+004
2.804039e+003, 1.091788e+004
2.805967e+003, 1.091455e+004
2.807896e+003, 1.090830e+004
2.809824e+003, 1.090021e+004
2.811752e+003, 1.089097e+004
2.813681e+003, 1.088396e+004
2.815609e+003, 1.089087e+004
2.817538e+003, 1.090449e+004
2.819466e+003, 1.091012e+004
2.821395e+003, 1.091102e+004
2.823323e+003, 1.091086e+004
2.825252e+003, 1.091166e+004
2.827180e+003, 1.092051e+004
2.829109e+003, 1.092934e+004
2.831037e+003, 1.092707e+004
2.832966e+003, 1.092058e+004
2.834894e+003, 1.091722e+004
2.836823e+003, 1.091470e+004
2.838751e+003, 1.091310e+004
2.840679e+003, 1.090845e+004
2.842608e+003, 1.089378e+004
2.844536e+003, 1.087964e+004
2.846465e+003, 1.087295e+004
2.848393e+003, 1.087023e+004
2.850322e+003, 1.087018e+004
2.852250e+003, 1.087228e+004
2.854179e+003, 1.088226e+004
2.856107e+003, 1.088484e+004
2.858036e+003, 1.086132e+004
2.859964e+003, 1.085050e+004
2.861893e+003, 1.088108e+004
2.863821e+003, 1.090555e+004
2.865750e+003, 1.090664e+004
2.867678e+003, 1.090310e+004
2.869606e+003, 1.089563e+004
2.871535e+003, 1.089067e+004
2.873463e+003, 1.089255e+004
2.875392e+003, 1.089202e+004
2.877320e+003, 1.088689e+004
2.879249e+003, 1.088783e+004
2.881177e+003, 1.089820e+004
2.883106e+003, 1.090450e+004
2.885034e+003, 1.090405e+004
2.886963e+003, 1.090453e+004
2.888891e+003, 1.090386e+004
2.890820e+003, 1.091204e+004
2.892748e+003, 1.092821e+004
2.894677e+003, 1.093433e+004
2.896605e+003, 1.093108e+004
2.898533e+003, 1.093446e+004
2.900462e+003, 1.094336e+004
2.902390e+003, 1.094003e+004
2.904319e+003, 1.092871e+004
2.906247e+003, 1.092759e+004
2.908176e+003, 1.093251e+004
2.910104e+003, 1.093157e+004
2.912033e+003, 1.092926e+004
2.913961e+003, 1.093780e+004
2.915890e+003, 1.094859e+004
2.917818e+003, 1.094800e+004
2.919747e+003, 1.094243e+004
2.921675e+003, 1.093476e+004
2.923604e+003, 1.093102e+004
2.925532e+003, 1.094327e+004
2.927460e+003, 1.095337e+004
2.929389e+003, 1.094308e+004
2.931317e+003, 1.093352e+004
2.933246e+003, 1.093611e+004
2.935174e+003, 1.094121e+004
2.937103e+003, 1.094415e+004
2.939031e+003, 1.094940e+004
2.940960e+003, 1.096459e+004
2.942888e+003, 1.096534e+004
2.944817e+003, 1.093921e+004
2.946745e+003, 1.092366e+004
2.948674e+003, 1.093187e+004
2.950602e+003, 1.094328e+004
2.952531e+003, 1.095878e+004
2.954459e+003, 1.097016e+004
2.956387e+003, 1.097654e+004
2.958316e+003, 1.097961e+004
2.960244e+003, 1.097813e+004
2.962173e+003, 1.097753e+004
2.964101e+003, 1.097698e+004
2.966030e+003, 1.097416e+004
2.967958e+003, 1.096964e+004
2.969887e+003, 1.096378e+004
2.971815e+003, 1.095878e+004
2.973744e+003, 1.095696e+004
2.975672e+003, 1.095891e+004
2.977601e+003, 1.096659e+004
2.979529e+003, 1.097432e+004
2.981458e+003, 1.097123e+004
2.983386e+003, 1.096816e+004
2.985314e+003, 1.098059e+004
2.987243e+003, 1.098885e+004
2.989171e+003, 1.097559e+004
2.991100e+003, 1.096327e+004
2.993028e+003, 1.096600e+004
2.994957e+003, 1.096650e+004
2.996885e+003, 1.095587e+004
2.998814e+003, 1.094862e+004
3.000742e+003, 1.095073e+004
3.002671e+003, 1.094181e+004
3.004599e+003, 1.091334e+004
3.006528e+003, 1.090544e+004
3.008456e+003, 1.093196e+004
3.010385e+003, 1.094194e+004
3.012313e+003, 1.093518e+004
3.014241e+003, 1.093046e+004
3.016170e+003, 1.092760e+004
3.018098e+003, 1.092421e+004
3.020027e+003, 1.092215e+004
3.021955e+003, 1.093989e+004
3.023884e+003, 1.096113e+004
3.025812e+003, 1.094118e+004
3.027741e+003, 1.091322e+004
3.029669e+003, 1.092453e+004
3.031598e+003, 1.094189e+004
3.033526e+003, 1.093097e+004
3.035455e+003, 1.091410e+004
3.037383e+003, 1.089926e+004
3.039312e+003, 1.088963e+004
3.041240e+003, 1.089055e+004
3.043168e+003, 1.089094e+004
3.045097e+003, 1.088997e+004
3.047025e+003, 1.088581e+004
3.048954e+003, 1.087683e+004
3.050882e+003, 1.087443e+004
3.052811e+003, 1.088155e+004
3.054739e+003, 1.089037e+004
3.056668e+003, 1.090005e+004
3.058596e+003, 1.091288e+004
3.060525e+003, 1.092465e+004
3.062453e+003, 1.090771e+004
3.064382e+003, 1.087554e+004
3.066310e+003, 1.087533e+004
3.068239e+003, 1.088902e+004
3.070167e+003, 1.088193e+004
3.072095e+003, 1.087223e+004
3.074024e+003, 1.088247e+004
3.075952e+003, 1.089383e+004
3.077881e+003, 1.089146e+004
3.079809e+003, 1.088392e+004
3.081738e+003, 1.087321e+004
3.083666e+003, 1.086323e+004
3.085595e+003, 1.085882e+004
3.087523e+003, 1.085200e+004
3.089452e+003, 1.084000e+004
3.091380e+003, 1.084446e+004
3.093309e+003, 1.087111e+004
3.095237e+003, 1.087349e+004
3.097166e+003, 1.084719e+004
3.099094e+003, 1.085937e+004
3.101022e+003, 1.089639e+004
3.102951e+003, 1.090380e+004
3.104879e+003, 1.089415e+004
3.106808e+003, 1.089455e+004
3.108736e+003, 1.089697e+004
3.110665e+003, 1.088815e+004
3.112593e+003, 1.087983e+004
3.114522e+003, 1.088460e+004
3.116450e+003, 1.088792e+004
3.118379e+003, 1.087227e+004
3.120307e+003, 1.087062e+004
3.122236e+003, 1.089492e+004
3.124164e+003, 1.092089e+004
3.126093e+003, 1.094658e+004
3.128021e+003, 1.095829e+004
3.129949e+003, 1.095334e+004
3.131878e+003, 1.095074e+004
3.133806e+003, 1.094979e+004
3.135735e+003, 1.093974e+004
3.137663e+003, 1.092582e+004
3.139592e+003, 1.092980e+004
3.141520e+003, 1.094142e+004
3.143449e+003, 1.094571e+004
3.145377e+003, 1.094413e+004
3.147306e+003, 1.093115e+004
3.149234e+003, 1.092281e+004
3.151163e+003, 1.093438e+004
3.153091e+003, 1.094191e+004
3.155020e+003, 1.093602e+004
3.156948e+003, 1.092613e+004
3.158876e+003, 1.090694e+004
3.160805e+003, 1.090928e+004
3.162733e+003, 1.093593e+004
3.164662e+003, 1.094124e+004
3.166590e+003, 1.092524e+004
3.168519e+003, 1.092746e+004
3.170447e+003, 1.094093e+004
3.172376e+003, 1.093878e+004
3.174304e+003, 1.093433e+004
3.176233e+003, 1.095254e+004
3.178161e+003, 1.097076e+004
3.180090e+003, 1.095916e+004
3.182018e+003, 1.095217e+004
3.183947e+003, 1.097226e+004
3.185875e+003, 1.098520e+004
3.187803e+003, 1.097203e+004
3.189732e+003, 1.096424e+004
3.191660e+003, 1.096515e+004
3.193589e+003, 1.096654e+004
3.195517e+003, 1.096786e+004
3.197446e+003, 1.096038e+004
3.199374e+003, 1.094710e+004
3.201303e+003, 1.094471e+004
3.203231e+003, 1.094767e+004
3.205160e+003, 1.095217e+004
3.207088e+003, 1.095102e+004
3.209017e+003, 1.092949e+004
3.210945e+003, 1.091277e+004
3.212874e+003, 1.091320e+004
3.214802e+003, 1.092280e+004
3.216730e+003, 1.094230e+004
3.218659e+003, 1.095868e+004
3.220587e+003, 1.096949e+004
3.222516e+003, 1.096942e+004
3.224444e+003, 1.095750e+004
3.226373e+003, 1.094975e+004
3.228301e+003, 1.094649e+004
3.230230e+003, 1.095345e+004
3.232158e+003, 1.095790e+004
3.234087e+003, 1.092881e+004
3.236015e+003, 1.090197e+004
3.237944e+003, 1.092014e+004
3.239872e+003, 1.093300e+004
3.241801e+003, 1.091208e+004
3.243729e+003, 1.089477e+004
3.245657e+003, 1.089185e+004
3.247586e+003, 1.089743e+004
3.249514e+003, 1.091265e+004
3.251443e+003, 1.091537e+004
3.253371e+003, 1.090601e+004
3.255300e+003, 1.088817e+004
3.257228e+003, 1.086930e+004
3.259157e+003, 1.087015e+004
3.261085e+003, 1.087704e+004
3.263014e+003, 1.087971e+004
3.264942e+003, 1.087590e+004
3.266871e+003, 1.085599e+004
3.268799e+003, 1.084675e+004
3.270728e+003, 1.086160e+004
3.272656e+003, 1.086624e+004
3.274584e+003, 1.085269e+004
3.276513e+003, 1.084405e+004
3.278441e+003, 1.084004e+004
3.280370e+003, 1.083474e+004
3.282298e+003, 1.083101e+004
3.284227e+003, 1.083932e+004
3.286155e+003, 1.084987e+004
3.288084e+003, 1.085142e+004
3.290012e+003, 1.085052e+004
3.291941e+003, 1.084618e+004
3.293869e+003, 1.084927e+004
3.295798e+003, 1.086426e+004
3.297726e+003, 1.087503e+004
3.299655e+003, 1.087844e+004
3.301583e+003, 1.087582e+004
3.303511e+003, 1.086858e+004
3.305440e+003, 1.087100e+004
3.307368e+003, 1.087837e+004
3.309297e+003, 1.088249e+004
3.311225e+003, 1.088478e+004
3.313154e+003, 1.088824e+004
3.315082e+003, 1.088912e+004
3.317011e+003, 1.088350e+004
3.318939e+003, 1.088101e+004
3.320868e+003, 1.088358e+004
3.322796e+003, 1.089087e+004
3.324725e+003, 1.090208e+004
3.326653e+003, 1.090256e+004
3.328582e+003, 1.089656e+004
3.330510e+003, 1.091247e+004
3.332438e+003, 1.093016e+004
3.334367e+003, 1.091538e+004
3.336295e+003, 1.090228e+004
3.338224e+003, 1.092178e+004
3.340152e+003, 1.094272e+004
3.342081e+003, 1.095669e+004
3.344009e+003, 1.096675e+004
3.345938e+003, 1.097106e+004
3.347866e+003, 1.097704e+004
3.349795e+003, 1.098362e+004
3.351723e+003, 1.098519e+004
3.353652e+003, 1.098637e+004
3.355580e+003, 1.099608e+004
3.357509e+003, 1.101054e+004
3.359437e+003, 1.102925e+004
3.361365e+003, 1.104532e+004
3.363294e+003, 1.104973e+004
3.365222e+003, 1.105785e+004
3.367151e+003, 1.106922e+004
3.369079e+003, 1.109704e+004
3.371008e+003, 1.113938e+004
3.372936e+003, 1.117271e+004
3.374865e+003, 1.119730e+004
3.376793e+003, 1.120909e+004
3.378722e+003, 1.121988e+004
3.380650e+003, 1.124315e+004
3.382579e+003, 1.126476e+004
3.384507e+003, 1.128008e+004
3.386436e+003, 1.129097e+004
3.388364e+003, 1.129739e+004
3.390292e+003, 1.130001e+004
3.392221e+003, 1.129897e+004
3.394149e+003, 1.129731e+004
3.396078e+003, 1.129142e+004
3.398006e+003, 1.126943e+004
3.399935e+003, 1.124477e+004
3.401863e+003, 1.122954e+004
3.403792e+003, 1.121218e+004
3.405720e+003, 1.117988e+004
3.407649e+003, 1.116492e+004
3.409577e+003, 1.117097e+004
3.411506e+003, 1.116099e+004
3.413434e+003, 1.113672e+004
3.415363e+003, 1.111172e+004
3.417291e+003, 1.109279e+004
3.419219e+003, 1.109268e+004
3.421148e+003, 1.109637e+004
3.423076e+003, 1.110051e+004
3.425005e+003, 1.108662e+004
3.426933e+003, 1.104377e+004
3.428862e+003, 1.102095e+004
3.430790e+003, 1.102649e+004
3.432719e+003, 1.100975e+004
3.434647e+003, 1.098438e+004
3.436576e+003, 1.099354e+004
3.438504e+003, 1.100626e+004
3.440433e+003, 1.097904e+004
3.442361e+003, 1.095298e+004
3.444290e+003, 1.094538e+004
3.446218e+003, 1.094012e+004
3.448146e+003, 1.093207e+004
3.450075e+003, 1.093558e+004
3.452003e+003, 1.094501e+004
3.453932e+003, 1.092977e+004
3.455860e+003, 1.090176e+004
3.457789e+003, 1.088109e+004
3.459717e+003, 1.086225e+004
3.461646e+003, 1.084118e+004
3.463574e+003, 1.082719e+004
3.465503e+003, 1.082479e+004
3.467431e+003, 1.081581e+004
3.469360e+003, 1.079827e+004
3.471288e+003, 1.079442e+004
3.473217e+003, 1.079652e+004
3.475145e+003, 1.078393e+004
3.477073e+003, 1.077179e+004
3.479002e+003, 1.078490e+004
3.480930e+003, 1.078137e+004
3.482859e+003, 1.074261e+004
3.484787e+003, 1.072286e+004
3.486716e+003, 1.073207e+004
3.488644e+003, 1.073955e+004
3.490573e+003, 1.074485e+004
3.492501e+003, 1.075309e+004
3.494430e+003, 1.075247e+004
3.496358e+003, 1.072411e+004
3.498287e+003, 1.069360e+004
3.500215e+003, 1.066940e+004
3.502144e+003, 1.065417e+004
3.504072e+003, 1.064914e+004
3.506000e+003, 1.065458e+004
3.507929e+003, 1.066486e+004
3.509857e+003, 1.065672e+004
3.511786e+003, 1.064589e+004
3.513714e+003, 1.065231e+004
3.515643e+003, 1.065945e+004
3.517571e+003, 1.065467e+004
3.519500e+003, 1.066759e+004
3.521428e+003, 1.070247e+004
3.523357e+003, 1.069196e+004
3.525285e+003, 1.065201e+004
3.527214e+003, 1.064171e+004
3.529142e+003, 1.064756e+004
3.531071e+003, 1.066447e+004
3.532999e+003, 1.067135e+004
3.534927e+003, 1.064955e+004
3.536856e+003, 1.064294e+004
3.538784e+003, 1.065566e+004
3.540713e+003, 1.064426e+004
3.542641e+003, 1.062054e+004
3.544570e+003, 1.063180e+004
3.546498e+003, 1.064612e+004
3.548427e+003, 1.063077e+004
3.550355e+003, 1.061126e+004
3.552284e+003, 1.059193e+004
3.554212e+003, 1.059281e+004
3.556141e+003, 1.061737e+004
3.558069e+003, 1.060020e+004
3.559998e+003, 1.056284e+004
3.561926e+003, 1.054959e+004
3.563854e+003, 1.055059e+004
3.565783e+003, 1.056085e+004
3.567711e+003, 1.057933e+004
3.569640e+003, 1.061022e+004
3.571568e+003, 1.060883e+004
3.573497e+003, 1.057621e+004
3.575425e+003, 1.056855e+004
3.577354e+003, 1.057389e+004
3.579282e+003, 1.058237e+004
3.581211e+003, 1.058403e+004
3.583139e+003, 1.057013e+004
3.585068e+003, 1.056806e+004
3.586996e+003, 1.059078e+004
3.588925e+003, 1.058228e+004
3.590853e+003, 1.055674e+004
3.592781e+003, 1.056784e+004
3.594710e+003, 1.058932e+004
3.596638e+003, 1.059618e+004
3.598567e+003, 1.059609e+004
3.600495e+003, 1.059138e+004
3.602424e+003, 1.058130e+004
3.604352e+003, 1.056742e+004
3.606281e+003, 1.056774e+004
3.608209e+003, 1.057449e+004
3.610138e+003, 1.057454e+004
3.612066e+003, 1.057065e+004
3.613995e+003, 1.056260e+004
3.615923e+003, 1.055954e+004
3.617852e+003, 1.056616e+004
3.619780e+003, 1.055609e+004
3.621708e+003, 1.053853e+004
3.623637e+003, 1.055362e+004
3.625565e+003, 1.057436e+004
3.627494e+003, 1.057178e+004
3.629422e+003, 1.056506e+004
3.631351e+003, 1.055787e+004
3.633279e+003, 1.056077e+004
3.635208e+003, 1.057150e+004
3.637136e+003, 1.056313e+004
3.639065e+003, 1.054758e+004
3.640993e+003, 1.054568e+004
3.642922e+003, 1.054403e+004
3.644850e+003, 1.052728e+004
3.646779e+003, 1.053183e+004
3.648707e+003, 1.056033e+004
3.650635e+003, 1.055516e+004
3.652564e+003, 1.053155e+004
3.654492e+003, 1.052901e+004
3.656421e+003, 1.053475e+004
3.658349e+003, 1.054345e+004
3.660278e+003, 1.055022e+004
3.662206e+003, 1.055575e+004
3.664135e+003, 1.054146e+004
3.666063e+003, 1.051659e+004
3.667992e+003, 1.052506e+004
3.669920e+003, 1.053914e+004
3.671849e+003, 1.052620e+004
3.673777e+003, 1.052160e+004
3.675706e+003, 1.053879e+004
3.677634e+003, 1.055052e+004
3.679563e+003, 1.055435e+004
3.681491e+003, 1.054000e+004
3.683419e+003, 1.052469e+004
3.685348e+003, 1.053168e+004
3.687276e+003, 1.053947e+004
3.689205e+003, 1.053841e+004
3.691133e+003, 1.053428e+004
3.693062e+003, 1.052881e+004
3.694990e+003, 1.053865e+004
3.696919e+003, 1.055336e+004
3.698847e+003, 1.056003e+004
3.700776e+003, 1.055973e+004
3.702704e+003, 1.054712e+004
3.704633e+003, 1.054242e+004
3.706561e+003, 1.054604e+004
3.708490e+003, 1.055271e+004
3.710418e+003, 1.055562e+004
3.712346e+003, 1.053478e+004
3.714275e+003, 1.052174e+004
3.716203e+003, 1.054349e+004
3.718132e+003, 1.055281e+004
3.720060e+003, 1.054765e+004
3.721989e+003, 1.054560e+004
3.723917e+003, 1.054280e+004
3.725846e+003, 1.052671e+004
3.727774e+003, 1.051341e+004
3.729703e+003, 1.051178e+004
3.731631e+003, 1.051200e+004
3.733560e+003, 1.051273e+004
3.735488e+003, 1.052485e+004
3.737417e+003, 1.053797e+004
3.739345e+003, 1.053275e+004
3.741273e+003, 1.052473e+004
3.743202e+003, 1.052879e+004
3.745130e+003, 1.051369e+004
3.747059e+003, 1.048315e+004
3.748987e+003, 1.048783e+004
3.750916e+003, 1.050485e+004
3.752844e+003, 1.049121e+004
3.754773e+003, 1.048045e+004
3.756701e+003, 1.049094e+004
3.758630e+003, 1.049654e+004
3.760558e+003, 1.049603e+004
3.762487e+003, 1.050022e+004
3.764415e+003, 1.050258e+004
3.766344e+003, 1.049282e+004
3.768272e+003, 1.048219e+004
3.770200e+003, 1.047642e+004
3.772129e+003, 1.047585e+004
3.774057e+003, 1.047817e+004
3.775986e+003, 1.046307e+004
3.777914e+003, 1.044489e+004
3.779843e+003, 1.043465e+004
3.781771e+003, 1.043473e+004
3.783700e+003, 1.044794e+004
3.785628e+003, 1.046077e+004
3.787557e+003, 1.046816e+004
3.789485e+003, 1.045204e+004
3.791414e+003, 1.043627e+004
3.793342e+003, 1.044288e+004
3.795271e+003, 1.044749e+004
3.797199e+003, 1.044420e+004
3.799127e+003, 1.044813e+004
3.801056e+003, 1.044974e+004
3.802984e+003, 1.041739e+004
3.804913e+003, 1.039278e+004
3.806841e+003, 1.040305e+004
3.808770e+003, 1.040641e+004
3.810698e+003, 1.039650e+004
3.812627e+003, 1.038577e+004
3.814555e+003, 1.038300e+004
3.816484e+003, 1.041421e+004
3.818412e+003, 1.043091e+004
3.820341e+003, 1.041124e+004
3.822269e+003, 1.039807e+004
3.824198e+003, 1.039384e+004
3.826126e+003, 1.039228e+004
3.828054e+003, 1.038706e+004
3.829983e+003, 1.036982e+004
3.831911e+003, 1.035092e+004
3.833840e+003, 1.033153e+004
3.835768e+003, 1.033442e+004
3.837697e+003, 1.034885e+004
3.839625e+003, 1.034632e+004
3.841554e+003, 1.034053e+004
3.843482e+003, 1.033929e+004
3.845411e+003, 1.033436e+004
3.847339e+003, 1.032562e+004
3.849268e+003, 1.032618e+004
3.851196e+003, 1.032793e+004
3.853125e+003, 1.031977e+004
3.855053e+003, 1.031131e+004
3.856981e+003, 1.030469e+004
3.858910e+003, 1.030151e+004
3.860838e+003, 1.030329e+004
3.862767e+003, 1.032893e+004
3.864695e+003, 1.034343e+004
3.866624e+003, 1.030590e+004
3.868552e+003, 1.029001e+004
3.870481e+003, 1.030244e+004
3.872409e+003, 1.031311e+004
3.874338e+003, 1.031814e+004
3.876266e+003, 1.031028e+004
3.878195e+003, 1.030124e+004
3.880123e+003, 1.029267e+004
3.882052e+003, 1.029871e+004
3.883980e+003, 1.031222e+004
3.885908e+003, 1.030498e+004
3.887837e+003, 1.029450e+004
3.889765e+003, 1.029013e+004
3.891694e+003, 1.029799e+004
3.893622e+003, 1.031889e+004
3.895551e+003, 1.031693e+004
3.897479e+003, 1.030634e+004
3.899408e+003, 1.030549e+004
3.901336e+003, 1.030618e+004
3.903265e+003, 1.030553e+004
3.905193e+003, 1.030500e+004
3.907122e+003, 1.030357e+004
3.909050e+003, 1.029862e+004
3.910979e+003, 1.029211e+004
3.912907e+003, 1.028017e+004
3.914835e+003, 1.029396e+004
3.916764e+003, 1.033244e+004
3.918692e+003, 1.033501e+004
3.920621e+003, 1.032183e+004
3.922549e+003, 1.030786e+004
3.924478e+003, 1.030702e+004
3.926406e+003, 1.032272e+004
3.928335e+003, 1.031481e+004
3.930263e+003, 1.029673e+004
3.932192e+003, 1.029428e+004
3.934120e+003, 1.029905e+004
3.936049e+003, 1.031094e+004
3.937977e+003, 1.031091e+004
3.939906e+003, 1.030169e+004
3.941834e+003, 1.029907e+004
3.943762e+003, 1.029888e+004
3.945691e+003, 1.029973e+004
3.947619e+003, 1.029896e+004
3.949548e+003, 1.029685e+004
3.951476e+003, 1.029556e+004
3.953405e+003, 1.029861e+004
3.955333e+003, 1.031357e+004
3.957262e+003, 1.032620e+004
3.959190e+003, 1.033280e+004
3.961119e+003, 1.034181e+004
3.963047e+003, 1.034494e+004
3.964976e+003, 1.032073e+004
3.966904e+003, 1.030354e+004
3.968833e+003, 1.030574e+004
3.970761e+003, 1.029678e+004
3.972689e+003, 1.028317e+004
3.974618e+003, 1.030197e+004
3.976546e+003, 1.031157e+004
3.978475e+003, 1.028087e+004
3.980403e+003, 1.026372e+004
3.982332e+003, 1.026359e+004
3.984260e+003, 1.027779e+004
3.986189e+003, 1.028888e+004
3.988117e+003, 1.028253e+004
3.990046e+003, 1.026619e+004
3.991974e+003, 1.024316e+004
3.993903e+003, 1.023192e+004
3.995831e+003, 1.023189e+004
3.997760e+003, 1.024628e+004
3.999688e+003, 1.026200e+004
4.001616e+003, 1.027832e+004
4.003545e+003, 1.025496e+004
4.005473e+003, 1.022656e+004
4.007402e+003, 1.025740e+004
4.009330e+003, 1.027054e+004
4.011259e+003, 1.024185e+004
4.013187e+003, 1.023052e+004
4.015116e+003, 1.023036e+004
4.017044e+003, 1.022392e+004
4.018973e+003, 1.022300e+004
4.020901e+003, 1.023177e+004
4.022830e+003, 1.023429e+004
4.024758e+003, 1.023068e+004
4.026687e+003, 1.022517e+004
4.028615e+003, 1.021315e+004
4.030543e+003, 1.018641e+004
4.032472e+003, 1.017840e+004
4.034400e+003, 1.018456e+004
4.036329e+003, 1.018648e+004
4.038257e+003, 1.018456e+004
4.040186e+003, 1.017564e+004
4.042114e+003, 1.017847e+004
4.044043e+003, 1.018852e+004
4.045971e+003, 1.018186e+004
4.047900e+003, 1.017676e+004
4.049828e+003, 1.018630e+004
4.051757e+003, 1.019088e+004
4.053685e+003, 1.018837e+004
4.055614e+003, 1.017411e+004
4.057542e+003, 1.016013e+004
4.059470e+003, 1.015707e+004
4.061399e+003, 1.015194e+004
4.063327e+003, 1.014504e+004
4.065256e+003, 1.014795e+004
4.067184e+003, 1.014896e+004
4.069113e+003, 1.013407e+004
4.071041e+003, 1.012836e+004
4.072970e+003, 1.013134e+004
4.074898e+003, 1.012640e+004
4.076827e+003, 1.012446e+004
4.078755e+003, 1.013735e+004
4.080684e+003, 1.013872e+004
4.082612e+003, 1.012762e+004
4.084541e+003, 1.012136e+004
4.086469e+003, 1.011392e+004
4.088397e+003, 1.009564e+004
4.090326e+003, 1.009725e+004
4.092254e+003, 1.011808e+004
4.094183e+003, 1.012098e+004
4.096111e+003, 1.011826e+004
4.098040e+003, 1.011836e+004
4.099968e+003, 1.011721e+004
4.101896e+003, 1.011406e+004
4.103825e+003, 1.010531e+004
4.105754e+003, 1.010160e+004
4.107682e+003, 1.011634e+004
4.109610e+003, 1.011416e+004
4.111539e+003, 1.009837e+004
4.113468e+003, 1.010162e+004
4.115396e+003, 1.010431e+004
4.117324e+003, 1.009283e+004
4.119253e+003, 1.008382e+004
4.121182e+003, 1.008054e+004
4.123110e+003, 1.009279e+004
4.125038e+003, 1.010542e+004
4.126967e+003, 1.010922e+004
4.128896e+003, 1.011169e+004
4.130824e+003, 1.011403e+004
4.132752e+003, 1.012420e+004
4.134681e+003, 1.012556e+004
4.136609e+003, 1.009601e+004
4.138538e+003, 1.010019e+004
4.140466e+003, 1.012322e+004
4.142395e+003, 1.012222e+004
4.144323e+003, 1.012232e+004
4.146251e+003, 1.013577e+004
4.148180e+003, 1.013098e+004
4.150108e+003, 1.011763e+004
4.152037e+003, 1.011760e+004
4.153965e+003, 1.011725e+004
4.155894e+003, 1.011288e+004
4.157822e+003, 1.011191e+004
4.159751e+003, 1.011486e+004
4.161679e+003, 1.012642e+004
4.163607e+003, 1.012629e+004
4.165536e+003, 1.011083e+004
4.167465e+003, 1.011543e+004
4.169393e+003, 1.011687e+004
4.171321e+003, 1.007826e+004
4.173250e+003, 1.007451e+004
4.175179e+003, 1.011443e+004
4.177107e+003, 1.010889e+004
4.179035e+003, 1.009540e+004
4.180964e+003, 1.010033e+004
4.182893e+003, 1.012217e+004
4.184821e+003, 1.015118e+004
4.186749e+003, 1.013430e+004
4.188678e+003, 1.011553e+004
4.190606e+003, 1.012681e+004
4.192535e+003, 1.013345e+004
4.194463e+003, 1.013056e+004
4.196392e+003, 1.010105e+004
4.198320e+003, 1.007885e+004
4.200249e+003, 1.008225e+004
4.202177e+003, 1.006364e+004
4.204105e+003, 1.004224e+004
4.206034e+003, 1.005654e+004
4.207962e+003, 1.005814e+004
4.209891e+003, 1.003774e+004
4.211819e+003, 1.004046e+004
4.213748e+003, 1.005332e+004
4.215676e+003, 1.006676e+004
4.217604e+003, 1.006488e+004
4.219533e+003, 1.005020e+004
4.221462e+003, 1.005023e+004
4.223390e+003, 1.004847e+004
4.225318e+003, 1.003422e+004
4.227247e+003, 1.003163e+004
4.229176e+003, 1.003647e+004
4.231104e+003, 1.002211e+004
4.233032e+003, 1.002257e+004
4.234961e+003, 1.004877e+004
4.236890e+003, 1.003938e+004
4.238818e+003, 1.001928e+004
4.240746e+003, 1.003108e+004
4.242675e+003, 1.002625e+004
##END=



