##NAMES=Hemihedrite
##RRUFFID=R140134
##IDEAL CHEMISTRY=ZnPb_10_(CrO_4_)_6_(SiO_4_)_2_(OH)_2_
##LOCALITY=Rat Tail Claim, Wickenburg Area, Belmont Mts, Maricopa County, Arizona, USA
##OWNER=RRUFF
##SOURCE=Ron Gibbs
##DESCRIPTION=Orange axe-head shaped crystals, reported in Lafuente et al (2017)
##STATUS=The identification of this mineral is confirmed by single-crystal X-ray diffraction and chemical analysis
##URL=https://www.rruff.net/odr/rruff_sample/R140134
##MEASURED CHEMISTRY=(Zn_0.91_Mg_0.02_)Pb_10.05_(Cr_5.98_S_0.01_P_0.01_)Si_1.97_O_34_H_2.16_ ; H_2_O calculated to achieve 34 O atoms.
##DIFFRACTION SAMPLE DESCRIPTION=Single crystal, powder profile is calculated
##CELL PARAMETERS=a: 9.492 b: 11.435 c: 10.828 alpha: 120.446 beta: 92.06 gamma: 55.872 volume: 786.2 crystal system: triclinic
##FILETYPE=Raman Processed
##RAMAN WAVELENGTH=532

100.3281, 46.02290
102.2566, 46.68377
104.1851, 47.51226
106.1135, 49.19305
108.0420, 52.36959
109.9705, 54.37688
111.8989, 54.63006
113.8274, 53.88908
115.7559, 52.66212
117.6843, 50.97045
119.6128, 49.14405
121.5413, 47.06161
123.4697, 44.60971
125.3982, 42.37929
127.3267, 40.32610
129.2551, 38.48597
131.1836, 37.03485
133.1121, 35.82509
135.0405, 35.06078
136.9690, 34.78456
138.8975, 35.30713
140.8259, 35.98908
142.7544, 37.05254
144.6829, 38.35733
146.6113, 38.98857
148.5398, 38.35323
150.4683, 37.11001
152.3967, 35.79251
154.3252, 34.03258
156.2537, 32.56092
158.1821, 31.67675
160.1106, 31.33884
162.0391, 31.15216
163.9675, 31.10848
165.8960, 31.16391
167.8245, 31.26836
169.7529, 31.51806
171.6814, 31.66483
173.6099, 31.61445
175.5383, 31.31405
177.4668, 30.89545
179.3953, 30.35744
181.3237, 29.70849
183.2522, 29.00007
185.1807, 28.20010
187.1091, 27.39653
189.0376, 26.62151
190.9661, 25.81054
192.8945, 25.17091
194.8230, 24.83382
196.7515, 24.69305
198.6799, 24.50830
200.6084, 24.25563
202.5369, 23.95206
204.4653, 23.57595
206.3938, 23.09046
208.3223, 22.64376
210.2507, 22.24109
212.1792, 21.88227
214.1077, 21.67114
216.0361, 21.71012
217.9646, 21.81415
219.8931, 21.87533
221.8215, 21.90405
223.7500, 21.87046
225.6785, 21.72773
227.6069, 21.48267
229.5354, 21.33169
231.4639, 21.44261
233.3923, 21.52535
235.3208, 21.37728
237.2493, 20.81919
239.1777, 20.38829
241.1062, 20.24363
243.0347, 20.38040
244.9631, 20.46276
246.8916, 20.47207
248.8201, 20.43641
250.7485, 20.37247
252.6770, 20.13994
254.6055, 20.05335
256.5339, 20.24532
258.4624, 20.65280
260.3909, 20.96725
262.3193, 21.00132
264.2478, 21.03026
266.1763, 21.24521
268.1047, 21.80487
270.0332, 22.35108
271.9617, 22.77353
273.8901, 23.13035
275.8186, 23.64483
277.7471, 24.36203
279.6755, 25.23390
281.6040, 26.22849
283.5325, 27.26456
285.4609, 28.59570
287.3894, 30.31359
289.3179, 32.36639
291.2463, 34.74700
293.1748, 37.53933
295.1033, 40.56226
297.0317, 43.83850
298.9602, 47.44874
300.8887, 50.84752
302.8171, 53.76397
304.7456, 56.31765
306.6741, 59.03882
308.6025, 62.06040
310.5310, 65.11459
312.4595, 67.92854
314.3879, 70.33646
316.3164, 73.39401
318.2449, 76.91917
320.1733, 81.15417
322.1018, 86.86013
324.0303, 93.79510
325.9587, 102.2081
327.8872, 112.2360
329.8157, 123.8882
331.7441, 136.6921
333.6726, 152.0156
335.6011, 167.8863
337.5295, 181.7821
339.4580, 195.2946
341.3865, 204.2566
343.3149, 207.4648
345.2434, 204.2668
347.1719, 197.9848
349.1003, 186.7154
351.0288, 173.6749
352.9573, 161.8782
354.8857, 151.7286
356.8142, 141.8447
358.7427, 131.4794
360.6711, 120.7600
362.5996, 111.4782
364.5281, 103.4679
366.4565, 96.94854
368.3850, 92.01517
370.3135, 88.87788
372.2419, 86.55386
374.1704, 84.64842
376.0989, 83.32970
378.0273, 83.08789
379.9558, 84.67220
381.8843, 86.34908
383.8127, 87.60111
385.7412, 88.59499
387.6697, 88.41676
389.5981, 87.34425
391.5266, 85.07362
393.4551, 81.06475
395.3835, 74.78455
397.3120, 68.11227
399.2405, 61.37593
401.1689, 54.50421
403.0974, 48.70887
405.0259, 44.14997
406.9543, 40.39674
408.8828, 37.25503
410.8113, 34.74622
412.7397, 32.54956
414.6682, 30.60503
416.5967, 28.88966
418.5251, 27.39678
420.4536, 26.15068
422.3821, 25.05304
424.3105, 24.09969
426.2390, 23.27498
428.1675, 22.51989
430.0959, 21.77547
432.0244, 21.10827
433.9529, 20.61777
435.8813, 20.35583
437.8098, 20.14113
439.7383, 19.96499
441.6667, 19.81180
443.5952, 19.62277
445.5237, 19.28316
447.4521, 18.99797
449.3806, 18.89053
451.3091, 18.98584
453.2375, 19.06391
455.1660, 19.06653
457.0945, 19.04315
459.0229, 19.05132
460.9514, 19.17774
462.8799, 19.24415
464.8083, 19.15735
466.7368, 18.96269
468.6653, 18.88807
470.5938, 19.05180
472.5222, 19.24633
474.4507, 19.36109
476.3792, 19.33819
478.3076, 19.33619
480.2361, 19.36150
482.1646, 19.40805
484.0930, 19.46084
486.0215, 19.50698
487.9500, 19.58489
489.8784, 19.74191
491.8069, 19.97160
493.7354, 20.08132
495.6638, 20.07917
497.5923, 19.95923
499.5208, 19.72494
501.4492, 19.38650
503.3777, 18.91868
505.3062, 18.15894
507.2346, 17.33198
509.1631, 16.77420
511.0916, 16.60169
513.0200, 16.45588
514.9485, 16.20074
516.8770, 15.88778
518.8054, 15.70282
520.7339, 15.75626
522.6624, 15.86081
524.5908, 15.96253
526.5193, 16.06327
528.4478, 16.12822
530.3762, 16.09913
532.3047, 16.05973
534.2332, 16.09861
536.1616, 16.36032
538.0901, 16.45657
540.0186, 16.28787
541.9470, 15.91527
543.8755, 15.52549
545.8040, 15.07980
547.7324, 14.68466
549.6609, 14.37404
551.5894, 14.14909
553.5178, 13.99805
555.4463, 13.97864
557.3748, 13.97943
559.3032, 13.92621
561.2317, 13.82054
563.1602, 13.67849
565.0886, 13.37993
567.0171, 13.08623
568.9456, 13.00305
570.8740, 13.42455
572.8025, 13.72795
574.7310, 13.77594
576.6594, 13.64293
578.5879, 13.54239
580.5164, 13.50179
582.4448, 13.47667
584.3733, 13.46063
586.3018, 13.46222
588.2302, 13.41412
590.1587, 13.19512
592.0872, 13.01764
594.0156, 13.05319
595.9441, 13.32835
597.8726, 13.58438
599.8010, 13.79635
601.7295, 13.95139
603.6580, 14.01956
605.5864, 13.91082
607.5149, 13.84461
609.4434, 13.85659
611.3718, 13.93654
613.3003, 14.06955
615.2288, 14.33727
617.1572, 14.54921
619.0857, 14.60932
621.0142, 14.50916
622.9426, 14.49303
624.8711, 14.62980
626.7996, 14.78900
628.7280, 14.87845
630.6565, 14.88494
632.5850, 14.99133
634.5134, 15.31699
636.4419, 15.69539
638.3704, 15.97698
640.2988, 16.11044
642.2273, 16.27571
644.1558, 16.50442
646.0842, 16.77651
648.0127, 17.07330
649.9412, 17.44855
651.8696, 17.74751
653.7981, 17.81180
655.7266, 17.75403
657.6550, 18.01770
659.5835, 18.85482
661.5120, 19.64123
663.4404, 20.11947
665.3689, 20.34057
667.2974, 20.54051
669.2258, 20.61131
671.1543, 20.77776
673.0828, 21.17411
675.0112, 21.84725
676.9397, 22.44431
678.8682, 22.88958
680.7966, 23.29777
682.7251, 23.73559
684.6536, 24.20165
686.5820, 24.69386
688.5105, 25.22236
690.4390, 25.77088
692.3674, 26.31987
694.2959, 26.86460
696.2244, 27.43534
698.1528, 28.04455
700.0813, 28.68640
702.0098, 29.34921
703.9382, 30.01468
705.8667, 30.73854
707.7952, 31.56223
709.7236, 32.44888
711.6521, 33.29557
713.5806, 34.02741
715.5090, 34.84877
717.4375, 35.79313
719.3660, 36.87108
721.2944, 38.15833
723.2229, 39.65260
725.1514, 41.38387
727.0798, 43.24297
729.0083, 45.28901
730.9368, 47.98962
732.8652, 51.39429
734.7937, 55.38656
736.7222, 60.07690
738.6506, 65.42348
740.5791, 70.69759
742.5076, 75.93335
744.4360, 81.02477
746.3645, 85.92160
748.2930, 90.63815
750.2214, 95.07992
752.1499, 98.81981
754.0784, 102.6492
756.0068, 106.7110
757.9353, 110.7770
759.8638, 116.5963
761.7922, 124.0790
763.7207, 133.4361
765.6492, 144.8350
767.5776, 158.0172
769.5061, 174.2963
771.4346, 194.2540
773.3630, 217.3037
775.2915, 243.6034
777.2200, 274.6574
779.1484, 303.0232
781.0769, 330.9045
783.0054, 354.1917
784.9338, 367.5707
786.8623, 369.0674
788.7908, 366.3640
790.7192, 356.0599
792.6477, 344.1147
794.5762, 335.6695
796.5046, 329.5431
798.4331, 331.0498
800.3616, 340.9169
802.2900, 358.1710
804.2185, 382.2833
806.1470, 414.7404
808.0754, 450.9298
810.0039, 490.4584
811.9324, 533.7112
813.8608, 581.9449
815.7893, 638.3089
817.7178, 690.4933
819.6462, 742.0756
821.5747, 786.2178
823.5032, 811.2900
825.4316, 809.1580
827.3601, 800.5964
829.2886, 780.5488
831.2170, 757.9260
833.1455, 743.3613
835.0740, 736.2802
837.0024, 739.6412
838.9309, 758.8434
840.8594, 786.6780
842.7878, 813.1830
844.7163, 850.1389
846.6448, 870.0983
848.5732, 863.3637
850.5017, 841.3992
852.4302, 818.6298
854.3586, 792.1237
856.2871, 774.9222
858.2156, 776.5871
860.1440, 786.9884
862.0725, 794.8615
864.0010, 806.0968
865.9294, 805.0299
867.8579, 791.5362
869.7864, 764.9367
871.7148, 722.2905
873.6433, 661.8083
875.5718, 598.0349
877.5002, 528.6215
879.4287, 461.1976
881.3572, 403.0948
883.2856, 355.7322
885.2141, 315.5849
887.1426, 284.3562
889.0710, 258.2728
890.9995, 234.0086
892.9280, 211.4558
894.8564, 190.5791
896.7849, 170.5393
898.7134, 152.9990
900.6418, 139.0336
902.5703, 128.9907
904.4988, 120.8285
906.4272, 114.5005
908.3557, 109.6937
910.2842, 106.6007
912.2126, 105.6535
914.1411, 104.4585
916.0696, 103.3738
917.9980, 101.6919
919.9265, 98.94447
921.8550, 95.22787
923.7834, 91.13982
925.7119, 86.56744
927.6404, 81.83144
929.5688, 76.88847
931.4973, 71.73374
933.4258, 67.16135
935.3542, 63.30856
937.2827, 59.80426
939.2112, 56.39585
941.1396, 53.25319
943.0681, 50.92707
944.9966, 49.79774
946.9250, 48.88430
948.8535, 47.85298
950.7820, 46.76156
952.7104, 45.78408
954.6389, 45.02496
956.5674, 44.25829
958.4958, 43.41715
960.4243, 42.56889
962.3528, 41.84440
964.2813, 41.28401
966.2097, 40.69491
968.1382, 39.99302
970.0667, 39.26080
971.9951, 38.58487
973.9236, 37.99144
975.8521, 37.36860
977.7805, 36.61098
979.7090, 35.88532
981.6375, 35.36409
983.5659, 35.10715
985.4944, 34.66599
987.4229, 33.81678
989.3513, 32.97766
991.2798, 32.41764
993.2083, 32.09416
995.1367, 31.71661
997.0652, 31.21712
998.9937, 30.71683
1000.922, 30.21581
1002.851, 29.73516
1004.779, 29.41153
1006.708, 29.45229
1008.636, 29.37468
1010.564, 29.00090
1012.493, 28.46699
1014.421, 28.00383
1016.350, 27.61038
1018.278, 27.29117
1020.207, 27.12799
1022.135, 26.99672
1024.064, 26.76522
1025.992, 26.34830
1027.921, 26.08118
1029.849, 26.16656
1031.778, 26.23699
1033.706, 25.99931
1035.635, 25.43407
1037.563, 24.99135
1039.491, 24.69369
1041.420, 24.50699
1043.348, 24.54374
1045.277, 24.69145
1047.205, 24.54572
1049.134, 23.82788
1051.062, 23.25726
1052.991, 23.14370
1054.919, 23.26323
1056.848, 23.19787
1058.776, 22.85418
1060.705, 22.48386
1062.633, 21.99564
1064.562, 21.55238
1066.490, 21.34998
1068.418, 21.38393
1070.347, 21.35007
1072.275, 21.14911
1074.204, 20.91976
1076.132, 20.73894
1078.061, 20.60530
1079.989, 20.44216
1081.918, 20.20347
1083.846, 19.99004
1085.775, 19.83392
1087.703, 19.71857
1089.632, 19.61072
1091.560, 19.52915
1093.489, 19.40940
1095.417, 19.17409
1097.345, 18.94230
1099.274, 18.80999
1101.202, 18.78015
1103.131, 18.81402
1105.059, 19.04866
1106.988, 19.19545
1108.916, 19.03516
1110.845, 18.59484
1112.773, 18.37643
1114.702, 18.53091
1116.630, 18.70470
1118.559, 18.82507
1120.487, 18.91847
1122.416, 19.03231
1124.344, 19.16733
1126.272, 19.31774
1128.201, 19.55130
1130.129, 19.74002
1132.058, 19.74904
1133.986, 19.57208
1135.915, 19.53435
1137.843, 19.79274
1139.772, 20.05681
1141.700, 20.23112
1143.629, 20.33730
1145.557, 20.45521
1147.486, 20.63396
1149.414, 20.74796
1151.343, 20.73133
1153.271, 20.67228
1155.199, 20.65053
1157.128, 20.66338
1159.056, 20.73594
1160.985, 20.92062
1162.913, 21.10530
1164.842, 21.22361
1166.770, 21.29064
1168.699, 21.39848
1170.627, 21.59110
1172.556, 21.76000
1174.484, 21.90078
1176.413, 22.00074
1178.341, 22.02649
1180.270, 21.92757
1182.198, 21.90734
1184.126, 22.07623
1186.055, 22.22041
1187.983, 22.19675
1189.912, 22.05062
1191.840, 21.92377
1193.769, 21.80587
1195.697, 21.75765
1197.626, 21.86954
1199.554, 22.02853
1201.483, 22.11328
1203.411, 22.11567
1205.340, 22.07960
1207.268, 21.90062
1209.197, 21.79228
1211.125, 21.89355
1213.053, 22.16709
1214.982, 22.38278
1216.910, 22.54556
1218.839, 22.64202
1220.767, 22.64725
1222.696, 22.59598
1224.624, 22.51783
1226.553, 22.41562
1228.481, 22.32450
1230.410, 22.24790
1232.338, 22.19379
1234.267, 22.17015
1236.195, 22.16998
1238.124, 22.17755
1240.052, 22.23410
1241.980, 22.20485
1243.909, 22.04166
1245.837, 21.81337
1247.766, 21.54019
1249.694, 21.20947
1251.623, 21.01468
1253.551, 21.10476
1255.480, 21.14692
1257.408, 21.02627
1259.337, 20.80301
1261.265, 20.56899
1263.194, 20.31954
1265.122, 20.08833
1267.051, 19.84538
1268.979, 19.66671
1270.907, 19.64451
1272.836, 19.73364
1274.764, 19.68949
1276.693, 19.40251
1278.621, 19.18671
1280.550, 19.14379
1282.478, 19.16733
1284.407, 19.17739
1286.335, 19.18674
1288.264, 19.09626
1290.192, 18.88330
1292.121, 18.60689
1294.049, 18.17880
1295.978, 17.73235
1297.906, 17.55564
1299.834, 17.70108
1301.763, 17.74913
1303.691, 17.53584
1305.620, 17.31519
1307.548, 17.28372
1309.477, 17.35787
1311.405, 17.29174
1313.334, 17.02238
1315.262, 16.77026
1317.191, 16.59188
1319.119, 16.45363
1321.048, 16.35521
1322.976, 16.30226
1324.905, 16.17535
1326.833, 15.90950
1328.761, 15.64971
1330.690, 15.43662
1332.618, 15.23357
1334.547, 14.97601
1336.475, 14.63225
1338.404, 14.40111
1340.332, 14.30617
1342.261, 14.29654
1344.189, 14.44149
1346.118, 14.62888
1348.046, 14.66678
1349.975, 14.54423
1351.903, 14.37489
1353.832, 14.08985
1355.760, 13.87825
1357.688, 13.91623
1359.617, 14.09092
1361.545, 14.09588
1363.474, 13.84856
1365.402, 13.69471
1367.331, 13.83764
1369.259, 13.95887
1371.188, 13.85760
1373.116, 13.56946
1375.045, 13.33206
1376.973, 13.09221
1378.902, 12.98793
1380.830, 13.13925
1382.759, 13.33445
1384.687, 13.41268
1386.615, 13.38261
1388.544, 13.37438
1390.472, 13.42852
1392.401, 13.42985
1394.329, 13.28039
1396.258, 13.12378
1398.186, 13.12415
1400.115, 13.24619
1402.043, 13.26810
1403.972, 13.12208
1405.900, 13.00383
1407.829, 13.02919
1409.757, 13.07448
1411.686, 13.00539
1413.614, 12.83566
1415.542, 12.75358
1417.471, 12.79437
1419.399, 12.88719
1421.328, 13.11597
1423.256, 13.30800
1425.185, 13.24933
1427.113, 12.89297
1429.042, 12.70120
1430.970, 12.81995
1432.899, 12.91639
1434.827, 12.90989
1436.756, 12.87260
1438.684, 12.88487
1440.613, 12.95443
1442.541, 12.99948
1444.469, 12.99863
1446.398, 13.00567
1448.326, 13.03237
1450.255, 13.06917
1452.183, 13.11925
1454.112, 13.17805
1456.040, 13.17461
1457.969, 13.03482
1459.897, 12.97508
1461.826, 13.13444
1463.754, 13.34665
1465.683, 13.46592
1467.611, 13.50665
1469.540, 13.54592
1471.468, 13.61272
1473.396, 13.61224
1475.325, 13.38626
1477.253, 13.19957
1479.182, 13.31851
1481.110, 13.67231
1483.039, 13.82718
1484.967, 13.65731
1486.896, 13.57898
1488.824, 13.79025
1490.753, 14.03270
1492.681, 14.15443
1494.610, 14.17455
1496.538, 14.19519
1498.467, 14.22330
1500.395, 14.23485
1502.323, 14.15920
1504.252, 14.13896
1506.180, 14.28578
1508.109, 14.54160
1510.037, 14.74201
1511.966, 14.86234
1513.894, 14.97849
1515.823, 15.11576
1517.751, 15.22085
1519.680, 15.21552
1521.608, 15.18606
1523.537, 15.29968
1525.465, 15.59857
1527.394, 15.82747
1529.322, 15.94767
1531.250, 16.04017
1533.179, 16.06583
1535.107, 16.11408
1537.036, 16.33091
1538.964, 16.69836
1540.893, 16.94368
1542.821, 16.96864
1544.750, 17.07566
1546.678, 17.44013
1548.607, 17.83997
1550.535, 18.09643
1552.464, 18.24878
1554.392, 18.40791
1556.321, 18.57470
1558.249, 18.76282
1560.177, 19.01886
1562.106, 19.24341
1564.034, 19.30641
1565.963, 19.33201
1567.891, 19.56845
1569.820, 20.03667
1571.748, 20.39404
1573.677, 20.49475
1575.605, 20.65428
1577.534, 21.11465
1579.462, 21.60892
1581.391, 21.80962
1583.319, 21.75091
1585.248, 21.89513
1587.176, 22.34422
1589.104, 22.79942
1591.033, 23.21253
1592.961, 23.58800
1594.890, 23.88274
1596.818, 24.14449
1598.747, 24.52421
1600.675, 25.02956
1602.604, 25.63071
1604.532, 26.45833
1606.461, 27.21915
1608.389, 27.78518
1610.318, 28.26221
1612.246, 28.74060
1614.175, 29.20903
1616.103, 29.84037
1618.031, 30.72574
1619.960, 31.61109
1621.888, 32.42614
1623.817, 33.24871
1625.745, 34.15826
1627.674, 35.11085
1629.602, 35.99861
1631.531, 36.88590
1633.459, 37.54862
1635.388, 37.72417
1637.316, 38.04660
1639.245, 38.87858
1641.173, 39.82019
1643.102, 40.36779
1645.030, 40.54729
1646.958, 41.00497
1648.887, 41.97538
1650.815, 42.86932
1652.744, 43.60489
1654.672, 44.32446
1656.601, 45.14957
1658.529, 45.98890
1660.458, 46.66748
1662.386, 47.15508
1664.315, 47.64563
1666.243, 48.36506
1668.172, 48.76543
1670.100, 48.71167
1672.029, 48.35057
1673.957, 47.68538
1675.885, 46.80110
1677.814, 45.96049
1679.742, 45.12895
1681.671, 44.44740
1683.599, 44.10833
1685.528, 43.66417
1687.456, 42.90614
1689.385, 42.04826
1691.313, 41.30688
1693.242, 40.65937
1695.170, 39.94616
1697.099, 39.08562
1699.027, 38.34030
1700.956, 37.65125
1702.884, 37.16663
1704.813, 37.19756
1706.741, 37.29416
1708.669, 36.83120
1710.598, 35.84563
1712.526, 35.10291
1714.455, 34.68334
1716.383, 34.34632
1718.312, 34.18799
1720.240, 33.97611
1722.169, 33.55878
1724.097, 33.05126
1726.026, 32.58366
1727.954, 32.15252
1729.883, 31.85491
1731.811, 31.91152
1733.740, 31.73043
1735.668, 31.06691
1737.596, 30.41369
1739.525, 29.97375
1741.453, 29.70772
1743.382, 29.62189
1745.310, 29.72617
1747.239, 29.64300
1749.167, 29.19707
1751.096, 28.83399
1753.024, 28.59864
1754.953, 28.40814
1756.881, 28.21847
1758.810, 28.04963
1760.738, 27.96795
1762.667, 27.97310
1764.595, 27.83012
1766.523, 27.36135
1768.452, 27.05203
1770.380, 27.03467
1772.309, 27.04169
1774.237, 27.01290
1776.166, 26.91820
1778.094, 26.67304
1780.023, 26.29684
1781.951, 26.06377
1783.880, 26.06783
1785.808, 25.99934
1787.737, 25.79817
1789.665, 25.57729
1791.594, 25.28491
1793.522, 25.05883
1795.450, 25.13425
1797.379, 25.40799
1799.307, 25.35456
1801.236, 24.89059
1803.164, 24.43954
1805.093, 24.00833
1807.021, 23.63781
1808.950, 23.32127
1810.878, 23.08765
1812.807, 23.00355
1814.735, 23.00438
1816.664, 22.93005
1818.592, 22.77549
1820.521, 22.62609
1822.449, 22.49605
1824.377, 22.33739
1826.306, 22.12835
1828.234, 21.89646
1830.163, 21.63109
1832.091, 21.36886
1834.020, 21.15822
1835.948, 20.99646
1837.877, 20.88463
1839.805, 20.84948
1841.734, 20.69842
1843.662, 20.26689
1845.591, 19.95807
1847.519, 20.12538
1849.448, 20.32043
1851.376, 20.09274
1853.304, 19.63027
1855.233, 19.36288
1857.161, 19.29722
1859.090, 19.16480
1861.018, 18.89164
1862.947, 18.68559
1864.875, 18.63424
1866.804, 18.62716
1868.732, 18.63545
1870.661, 18.63423
1872.589, 18.59408
1874.518, 18.51278
1876.446, 18.38724
1878.375, 18.20544
1880.303, 18.01329
1882.231, 17.75600
1884.160, 17.57186
1886.088, 17.55491
1888.017, 17.56302
1889.945, 17.51903
1891.874, 17.42756
1893.802, 17.25248
1895.731, 16.98762
1897.659, 16.92183
1899.588, 17.23069
1901.516, 17.37948
1903.445, 17.22799
1905.373, 17.06363
1907.302, 17.01331
1909.230, 16.93851
1911.158, 16.66705
1913.087, 16.31044
1915.015, 16.13794
1916.944, 16.15406
1918.872, 16.17643
1920.801, 16.18884
1922.729, 16.24245
1924.658, 16.40273
1926.586, 16.50718
1928.515, 16.43060
1930.443, 16.32256
1932.372, 16.33511
1934.300, 16.39075
1936.229, 16.30586
1938.157, 16.09455
1940.085, 15.96835
1942.014, 15.94243
1943.942, 16.00894
1945.871, 16.27651
1947.799, 16.46532
1949.728, 16.40854
1951.656, 16.28519
1953.585, 16.24645
1955.513, 16.24470
1957.442, 16.17277
1959.370, 16.02945
1961.299, 15.91743
1963.227, 15.75966
1965.156, 15.78268
1967.084, 16.20704
1969.012, 16.50193
1970.941, 16.43424
1972.869, 16.29486
1974.798, 16.29677
1976.726, 16.33763
1978.655, 16.22172
1980.583, 15.97128
1982.512, 15.88388
1984.440, 15.99552
1986.369, 16.03716
1988.297, 15.92249
1990.226, 15.89416
1992.154, 16.10072
1994.083, 16.29485
1996.011, 16.33315
1997.939, 16.29566
1999.868, 16.21338
2001.796, 16.13033
2003.725, 16.18860
2005.653, 16.38760
2007.582, 16.49900
2009.510, 16.47495
2011.439, 16.47113
2013.367, 16.50928
2015.296, 16.57433
2017.224, 16.72300
2019.153, 16.82676
2021.081, 16.74444
2023.010, 16.58845
2024.938, 16.54999
2026.866, 16.60782
2028.795, 16.56570
2030.723, 16.36958
2032.652, 16.36860
2034.580, 16.74284
2036.509, 16.90415
2038.437, 16.57266
2040.366, 16.26458
2042.294, 16.16410
2044.223, 16.20005
2046.151, 16.42291
2048.080, 16.68546
2050.008, 16.69636
2051.937, 16.52301
2053.865, 16.54789
2055.793, 16.82343
2057.722, 16.94222
2059.650, 16.77330
2061.579, 16.63885
2063.507, 16.61207
2065.436, 16.61571
2067.364, 16.64992
2069.293, 16.66751
2071.221, 16.59473
2073.150, 16.49756
2075.078, 16.54006
2077.007, 16.69142
2078.935, 16.60642
2080.864, 16.23465
2082.792, 16.04212
2084.720, 16.13720
2086.649, 16.15956
2088.577, 15.96304
2090.506, 15.82046
2092.434, 15.89680
2094.363, 16.00703
2096.291, 15.97508
2098.220, 15.93256
2100.148, 16.11546
2102.077, 16.42777
2104.005, 16.52003
2105.934, 16.36859
2107.862, 16.23907
2109.791, 16.13503
2111.719, 16.04904
2113.647, 15.97749
2115.576, 15.93762
2117.504, 15.94981
2119.433, 15.97892
2121.361, 16.03977
2123.290, 16.08266
2125.218, 16.04477
2127.147, 15.96658
2129.075, 15.91483
2131.004, 15.88769
2132.932, 15.89528
2134.861, 15.93870
2136.789, 15.93235
2138.718, 15.85382
2140.646, 15.76950
2142.574, 15.67132
2144.503, 15.59986
2146.431, 15.56435
2148.360, 15.56253
2150.288, 15.64059
2152.217, 15.70870
2154.145, 15.64628
2156.074, 15.52341
2158.002, 15.45845
2159.931, 15.45806
2161.859, 15.62250
2163.788, 15.96033
2165.716, 16.11384
2167.645, 16.02520
2169.573, 15.88718
2171.501, 15.71331
2173.430, 15.54950
2175.358, 15.41360
2177.287, 15.29022
2179.215, 15.08603
2181.144, 14.97820
2183.072, 15.22568
2185.001, 15.59950
2186.929, 15.74299
2188.858, 15.69351
2190.786, 15.58914
2192.715, 15.42867
2194.643, 15.31853
2196.572, 15.26075
2198.500, 15.29027
2200.428, 15.47005
2202.357, 15.53308
2204.285, 15.31350
2206.214, 15.14672
2208.142, 15.19576
2210.071, 15.29786
2211.999, 15.40451
2213.928, 15.47135
2215.856, 15.43538
2217.785, 15.33986
2219.713, 15.25970
2221.642, 15.19244
2223.570, 15.09970
2225.499, 14.98114
2227.427, 15.02507
2229.355, 15.27271
2231.284, 15.37116
2233.212, 15.20340
2235.141, 15.12492
2237.069, 15.31363
2238.998, 15.44588
2240.926, 15.36464
2242.855, 15.25589
2244.783, 15.18786
2246.712, 15.17151
2248.640, 15.28795
2250.569, 15.41342
2252.497, 15.31892
2254.426, 15.08771
2256.354, 14.96463
2258.282, 14.94831
2260.211, 15.08623
2262.139, 15.38377
2264.068, 15.47596
2265.996, 15.27356
2267.925, 15.10308
2269.853, 14.98959
2271.782, 14.96106
2273.710, 15.08871
2275.639, 15.20799
2277.567, 15.30761
2279.496, 15.32874
2281.424, 15.13354
2283.353, 14.95127
2285.281, 15.02433
2287.209, 15.20393
2289.138, 15.32743
2291.066, 15.37898
2292.995, 15.24625
2294.923, 14.98143
2296.852, 15.01332
2298.780, 15.40752
2300.709, 15.57204
2302.637, 15.36420
2304.566, 15.25283
2306.494, 15.23426
2308.423, 15.33057
2310.351, 15.65055
2312.280, 15.85733
2314.208, 15.79725
2316.136, 15.69709
2318.065, 15.63916
2319.993, 15.61368
2321.922, 15.62471
2323.850, 15.65611
2325.779, 15.69800
2327.707, 15.74547
2329.636, 15.80523
2331.564, 15.85953
2333.493, 15.85771
2335.421, 15.80147
2337.350, 15.65591
2339.278, 15.43552
2341.207, 15.50469
2343.135, 15.92452
2345.063, 16.17266
2346.992, 16.15585
2348.920, 16.08000
2350.849, 15.86153
2352.777, 15.77407
2354.706, 15.96805
2356.634, 16.13642
2358.563, 16.17826
2360.491, 16.18624
2362.420, 16.17730
2364.348, 16.17449
2366.277, 16.22529
2368.205, 16.25903
2370.134, 16.13387
2372.062, 16.00580
2373.990, 16.14638
2375.919, 16.44318
2377.847, 16.64871
2379.776, 16.76602
2381.704, 16.80791
2383.633, 16.77537
2385.561, 16.63108
2387.490, 16.37469
2389.418, 16.40788
2391.347, 16.82045
2393.275, 17.03395
2395.204, 16.67674
2397.132, 16.89630
2399.061, 18.76928
2400.989, 19.68708
2402.917, 18.07274
2404.846, 17.30567
2406.774, 19.19251
2408.703, 20.48431
2410.631, 19.25160
2412.560, 17.78227
2414.488, 17.38311
2416.417, 17.43020
2418.345, 17.59538
2420.274, 17.76126
2422.202, 17.76697
2424.131, 17.70659
2426.059, 17.71074
2427.988, 17.77336
2429.916, 17.91072
2431.844, 18.08884
2433.773, 18.18733
2435.701, 18.21930
2437.630, 18.28467
2439.558, 18.38939
2441.487, 18.43980
2443.415, 18.41520
2445.344, 18.42662
2447.272, 18.47930
2449.201, 18.54904
2451.129, 18.63843
2453.058, 18.73426
2454.986, 18.86770
2456.915, 18.89351
2458.843, 18.66708
2460.771, 18.53069
2462.700, 18.59852
2464.628, 18.73649
2466.557, 18.95635
2468.485, 19.15995
2470.414, 19.32211
2472.342, 19.43154
2474.271, 19.36697
2476.199, 19.38872
2478.128, 19.85875
2480.056, 20.32770
2481.985, 20.24395
2483.913, 20.02307
2485.842, 20.24370
2487.770, 20.62779
2489.698, 20.71469
2491.627, 20.62330
2493.555, 20.60558
2495.484, 20.62648
2497.412, 20.56862
2499.341, 20.46543
2501.269, 20.46439
2503.198, 20.56119
2505.126, 20.73127
2507.055, 20.98862
2508.983, 21.04968
2510.912, 20.91114
2512.840, 20.58020
2514.769, 20.03117
2516.697, 19.81133
2518.625, 20.07724
2520.554, 20.20160
2522.482, 20.05398
2524.411, 19.89141
2526.339, 19.69772
2528.268, 19.53899
2530.196, 19.41274
2532.125, 19.35616
2534.053, 19.39714
2535.982, 19.45717
2537.910, 19.59027
2539.839, 19.61155
2541.767, 19.34124
2543.696, 19.13938
2545.624, 19.14141
2547.552, 19.22754
2549.481, 19.45634
2551.409, 19.59564
2553.338, 19.43197
2555.266, 19.25947
2557.195, 19.31810
2559.123, 19.36381
2561.052, 19.11909
2562.980, 18.89706
2564.909, 19.05254
2566.837, 19.25887
2568.766, 19.11879
2570.694, 18.95706
2572.623, 19.21576
2574.551, 19.55561
2576.479, 19.49475
2578.408, 19.26525
2580.336, 19.23242
2582.265, 19.28344
2584.193, 19.17424
2586.122, 19.01199
2588.050, 19.05394
2589.979, 19.19220
2591.907, 19.15213
2593.836, 19.00994
2595.764, 19.04376
2597.693, 19.18494
2599.621, 19.11204
2601.550, 18.87878
2603.478, 18.73801
2605.406, 18.68207
2607.335, 18.64106
2609.263, 18.62653
2611.192, 18.80435
2613.120, 19.16704
2615.049, 19.25075
2616.977, 19.05636
2618.906, 18.98162
2620.834, 19.02799
2622.763, 19.14183
2624.691, 19.32322
2626.620, 19.31161
2628.548, 19.05363
2630.477, 18.92722
2632.405, 18.96595
2634.333, 18.90436
2636.262, 18.72579
2638.190, 18.62278
2640.119, 18.61556
2642.047, 18.62456
2643.976, 18.63461
2645.904, 18.69553
2647.833, 18.85266
2649.761, 18.89560
2651.690, 18.79748
2653.618, 18.71663
2655.547, 18.66432
2657.475, 18.67707
2659.404, 18.79470
2661.332, 18.86621
2663.260, 18.87619
2665.189, 18.84878
2667.117, 18.79189
2669.046, 18.63032
2670.974, 18.29507
2672.903, 18.18241
2674.831, 18.51519
2676.760, 18.63909
2678.688, 18.30977
2680.617, 18.13625
2682.545, 18.18509
2684.474, 18.27391
2686.402, 18.40847
2688.331, 18.43582
2690.259, 18.23420
2692.188, 18.17117
2694.116, 18.48565
2696.044, 18.54843
2697.973, 18.18452
2699.901, 18.06707
2701.830, 18.39546
2703.758, 18.54502
2705.687, 18.29749
2707.615, 18.09621
2709.544, 17.98145
2711.472, 17.97285
2713.401, 18.12680
2715.329, 18.17455
2717.258, 18.02480
2719.186, 18.00287
2721.115, 18.26313
2723.043, 18.42139
2724.971, 18.43927
2726.900, 18.32508
2728.828, 18.01617
2730.757, 17.82573
2732.685, 17.78196
2734.614, 17.94738
2736.542, 18.53250
2738.471, 18.76802
2740.399, 18.44311
2742.328, 18.25182
2744.256, 18.25786
2746.185, 18.26517
2748.113, 18.25320
2750.042, 18.22599
2751.970, 18.17842
2753.898, 18.12853
2755.827, 18.06276
2757.755, 18.05703
2759.684, 18.11959
2761.612, 18.21006
2763.541, 18.33883
2765.469, 18.36047
2767.398, 18.21173
2769.326, 18.19862
2771.255, 18.34517
2773.183, 18.37063
2775.112, 18.26302
2777.040, 18.16838
2778.969, 18.09134
2780.897, 18.22318
2782.825, 18.60185
2784.754, 18.66243
2786.682, 18.42476
2788.611, 18.31579
2790.539, 18.32498
2792.468, 18.17326
2794.396, 17.89207
2796.325, 17.91685
2798.253, 18.20929
2800.182, 18.48151
2802.110, 18.68502
2804.039, 18.49553
2805.967, 18.07225
2807.896, 18.02905
2809.824, 18.24802
2811.752, 18.35492
2813.681, 18.38731
2815.609, 18.47527
2817.538, 18.54940
2819.466, 18.40681
2821.395, 18.20538
2823.323, 18.24458
2825.252, 18.41565
2827.180, 18.61481
2829.109, 18.76166
2831.037, 18.69475
2832.966, 18.58222
2834.894, 18.69686
2836.823, 18.77226
2838.751, 18.33591
2840.679, 17.96173
2842.608, 18.27057
2844.536, 18.65805
2846.465, 18.71921
2848.393, 18.65879
2850.322, 18.48195
2852.250, 18.41997
2854.179, 18.78996
2856.107, 18.97443
2858.036, 18.50022
2859.964, 18.13363
2861.893, 18.31439
2863.821, 18.45988
2865.750, 18.33653
2867.678, 18.28399
2869.606, 18.38352
2871.535, 18.53413
2873.463, 18.76287
2875.392, 18.92178
2877.320, 18.99440
2879.249, 18.99538
2881.177, 18.92070
2883.106, 18.80497
2885.034, 18.63170
2886.963, 18.56611
2888.891, 18.63854
2890.820, 18.71097
2892.748, 18.78174
2894.677, 18.74264
2896.605, 18.61793
2898.533, 18.75176
2900.462, 19.09067
2902.390, 19.20692
2904.319, 19.12130
2906.247, 18.77762
2908.176, 18.38432
2910.104, 18.54360
2912.033, 18.95528
2913.961, 19.05617
2915.890, 18.99583
2917.818, 18.97382
2919.747, 18.96062
2921.675, 18.92005
2923.604, 18.87864
2925.532, 18.82922
2927.460, 18.83114
2929.389, 19.04934
2931.317, 19.15335
2933.246, 18.87365
2935.174, 18.61491
2937.103, 18.50472
2939.031, 18.55940
2940.960, 18.91016
2942.888, 19.13626
2944.817, 19.15213
2946.745, 19.02225
2948.674, 18.60174
2950.602, 18.43913
2952.531, 18.61500
2954.459, 18.80527
2956.387, 18.99340
2958.316, 19.08554
2960.244, 19.06641
2962.173, 19.19501
2964.101, 19.44637
2966.030, 19.39593
2967.958, 19.13075
2969.887, 18.91019
2971.815, 18.77287
2973.744, 18.84649
2975.672, 19.02854
2977.601, 19.20956
2979.529, 19.30210
2981.458, 19.11887
2983.386, 18.92072
2985.314, 18.99319
2987.243, 19.07610
2989.171, 18.91652
2991.100, 18.85154
2993.028, 19.12289
2994.957, 19.35452
2996.885, 19.45679
2998.814, 19.38707
3000.742, 19.05175
3002.671, 18.87894
3004.599, 18.96831
3006.528, 19.06232
3008.456, 19.12217
3010.385, 19.24673
3012.313, 19.43278
3014.241, 19.45053
3016.170, 19.31550
3018.098, 19.18362
3020.027, 19.07592
3021.955, 19.09531
3023.884, 19.17978
3025.812, 19.20361
3027.741, 19.20098
3029.669, 19.20661
3031.598, 19.21515
3033.526, 19.21488
3035.455, 19.22203
3037.383, 19.25203
3039.312, 19.27755
3041.240, 19.26711
3043.168, 19.28873
3045.097, 19.40287
3047.025, 19.41347
3048.954, 19.23303
3050.882, 19.22414
3052.811, 19.57757
3054.739, 19.53494
3056.668, 19.09710
3058.596, 19.10957
3060.525, 19.49635
3062.453, 19.59850
3064.382, 19.49019
3066.310, 19.33667
3068.239, 19.22915
3070.167, 19.39750
3072.095, 19.62420
3074.024, 19.66999
3075.952, 19.67089
3077.881, 19.73831
3079.809, 19.78333
3081.738, 19.76572
3083.666, 19.72273
3085.595, 19.59525
3087.523, 19.62045
3089.452, 19.88282
3091.380, 19.96692
3093.309, 19.77925
3095.237, 19.85812
3097.166, 20.22786
3099.094, 20.30177
3101.022, 20.14651
3102.951, 20.03234
3104.879, 19.94805
3106.808, 19.84439
3108.736, 19.77167
3110.665, 19.83675
3112.593, 19.91960
3114.522, 19.93849
3116.450, 19.92611
3118.379, 19.88780
3120.307, 19.83283
3122.236, 19.71660
3124.164, 19.74926
3126.093, 20.10245
3128.021, 20.21953
3129.949, 20.04272
3131.878, 20.02764
3133.806, 20.17280
3135.735, 20.37042
3137.663, 20.55718
3139.592, 20.41982
3141.520, 20.20816
3143.449, 20.47463
3145.377, 20.75822
3147.306, 20.49834
3149.234, 20.23071
3151.163, 20.31778
3153.091, 20.42807
3155.020, 20.47256
3156.948, 20.45206
3158.876, 20.29964
3160.805, 20.29350
3162.733, 20.45351
3164.662, 20.53752
3166.590, 20.53415
3168.519, 20.47569
3170.447, 20.40380
3172.376, 20.47706
3174.304, 20.62852
3176.233, 20.79048
3178.161, 20.93725
3180.090, 21.14140
3182.018, 21.14433
3183.947, 20.57271
3185.875, 20.32470
3187.803, 21.01735
3189.732, 21.41958
3191.660, 21.40412
3193.589, 21.42214
3195.517, 21.51146
3197.446, 21.45153
3199.374, 21.28823
3201.303, 21.26784
3203.231, 21.31628
3205.160, 21.32101
3207.088, 21.30349
3209.017, 21.20518
3210.945, 21.23365
3212.874, 21.61553
3214.802, 21.87742
3216.730, 21.80266
3218.659, 21.62589
3220.587, 21.32919
3222.516, 21.28460
3224.444, 21.51741
3226.373, 21.57614
3228.301, 21.51992
3230.230, 21.61523
3232.158, 21.77649
3234.087, 21.87663
3236.015, 21.96193
3237.944, 22.03416
3239.872, 22.18120
3241.801, 22.57629
3243.729, 22.71054
3245.657, 22.17693
3247.586, 21.94585
3249.514, 22.06162
3251.443, 22.13169
3253.371, 22.14719
3255.300, 22.15827
3257.228, 22.23932
3259.157, 22.75971
3261.085, 23.23627
3263.014, 23.03873
3264.942, 22.77401
3266.871, 22.75614
3268.799, 22.89108
3270.728, 23.25797
3272.656, 23.41353
3274.584, 23.22822
3276.513, 23.20915
3278.441, 23.35282
3280.370, 23.64065
3282.298, 23.94306
3284.227, 23.80192
3286.155, 23.64603
3288.084, 24.07016
3290.012, 24.48641
3291.941, 24.51365
3293.869, 24.45401
3295.798, 24.34195
3297.726, 24.33637
3299.655, 24.48766
3301.583, 24.64719
3303.511, 24.79871
3305.440, 24.69985
3307.368, 24.56803
3309.297, 24.87333
3311.225, 25.34890
3313.154, 25.91500
3315.082, 26.20641
3317.011, 25.85526
3318.939, 25.52911
3320.868, 25.26671
3322.796, 25.51477
3324.725, 26.29516
3326.653, 26.79590
3328.582, 27.03163
3330.510, 27.06254
3332.438, 27.03086
3334.367, 27.13217
3336.295, 27.26929
3338.224, 27.38716
3340.152, 27.48090
3342.081, 27.50174
3344.009, 27.67929
3345.938, 28.10846
3347.866, 28.37401
3349.795, 28.51211
3351.723, 28.74584
3353.652, 29.00781
3355.580, 29.06088
3357.509, 29.21486
3359.437, 29.83843
3361.365, 30.41117
3363.294, 30.52709
3365.222, 30.97041
3367.151, 31.86184
3369.079, 32.46271
3371.008, 32.77297
3372.936, 33.31765
3374.865, 34.12449
3376.793, 35.48761
3378.722, 36.78686
3380.650, 37.15642
3382.579, 37.79911
3384.507, 39.38754
3386.436, 40.49998
3388.364, 40.78403
3390.292, 40.51597
3392.221, 39.79010
3394.149, 39.27854
3396.078, 38.84406
3398.006, 38.17205
3399.935, 37.45845
3401.863, 36.94494
3403.792, 36.28082
3405.720, 35.06851
3407.649, 34.26159
3409.577, 33.94904
3411.506, 33.70235
3413.434, 33.47404
3415.363, 33.11908
3417.291, 32.76318
3419.219, 32.67968
3421.148, 32.54641
3423.076, 31.92222
3425.005, 31.64378
3426.933, 32.06736
3428.862, 31.91942
3430.790, 31.00440
3432.719, 30.67670
3434.647, 30.74578
3436.576, 30.80578
3438.504, 30.72718
3440.433, 30.20594
3442.361, 29.74818
3444.290, 29.66247
3446.218, 29.41564
3448.146, 28.85486
3450.075, 28.54628
3452.003, 28.45056
3453.932, 28.22381
3455.860, 27.94677
3457.789, 27.76749
3459.717, 27.61629
3461.646, 27.41981
3463.574, 27.32069
3465.503, 27.38157
3467.431, 27.36276
3469.360, 27.23304
3471.288, 26.95647
3473.217, 26.61649
3475.145, 26.42992
3477.073, 26.30652
3479.002, 26.11747
3480.930, 26.10979
3482.859, 26.43958
3484.787, 26.54507
3486.716, 26.33292
3488.644, 25.79713
3490.573, 25.19044
3492.501, 25.41097
3494.430, 25.80503
3496.358, 25.60033
3498.287, 25.46494
3500.215, 25.76328
3502.144, 25.79002
3504.072, 25.42709
3506.000, 25.00700
3507.929, 24.62615
3509.857, 24.57160
3511.786, 24.69475
3513.714, 24.91450
3515.643, 25.06886
3517.571, 25.07003
3519.500, 25.00674
3521.428, 24.88893
3523.357, 24.76084
3525.285, 24.67562
3527.214, 24.88574
3529.142, 25.13790
3531.071, 25.18617
3532.999, 25.13347
3534.927, 24.98034
3536.856, 24.82904
3538.784, 24.69147
3540.713, 24.68937
3542.641, 24.78364
3544.570, 24.94212
3546.498, 24.98377
3548.427, 24.55653
3550.355, 24.31804
3552.284, 24.51632
3554.212, 24.65574
3556.141, 24.67206
3558.069, 24.73824
3559.998, 24.81267
3561.926, 24.77530
3563.854, 24.73006
3565.783, 24.77996
3567.711, 24.79465
3569.640, 24.71215
3571.568, 24.81231
3573.497, 25.07414
3575.425, 24.98993
3577.354, 24.76865
3579.282, 24.73372
3581.211, 24.69245
3583.139, 24.45835
3585.068, 24.52600
3586.996, 25.16468
3588.925, 25.24381
3590.853, 24.93425
3592.781, 24.73491
3594.710, 24.69550
3596.638, 25.03478
3598.567, 25.24475
3600.495, 25.00281
3602.424, 25.13122
3604.352, 25.63423
3606.281, 25.62277
3608.209, 25.37476
3610.138, 25.48441
3612.066, 25.51370
3613.995, 25.05508
3615.923, 24.87778
3617.852, 25.19640
3619.780, 25.32570
3621.708, 25.29959
3623.637, 25.30260
3625.565, 25.34930
3627.494, 25.49800
3629.422, 25.58997
3631.351, 25.45925
3633.279, 25.59205
3635.208, 25.93653
3637.136, 25.87205
3639.065, 25.65165
3640.993, 25.75161
3642.922, 25.83859
3644.850, 25.67929
3646.779, 25.59409
3648.707, 25.61316
3650.635, 25.72127
3652.564, 25.89202
3654.492, 26.19094
3656.421, 26.34122
3658.349, 25.98743
3660.278, 25.78264
3662.206, 25.85904
3664.135, 25.89417
3666.063, 25.88413
3667.992, 25.84891
3669.920, 25.87418
3671.849, 26.05267
3673.777, 26.28423
3675.706, 26.58591
3677.634, 26.68209
3679.563, 26.55774
3681.491, 26.10956
3683.419, 25.75940
3685.348, 26.10875
3687.276, 26.57410
3689.205, 27.06504
3691.133, 27.03738
3693.062, 26.51836
3694.990, 26.19424
3696.919, 26.09727
3698.847, 26.47578
3700.776, 26.69097
3702.704, 26.23149
3704.633, 26.06110
3706.561, 26.22753
3708.490, 26.42343
3710.418, 26.64630
3712.346, 26.98598
3714.275, 27.21644
3716.203, 27.18356
3718.132, 27.03864
3720.060, 26.81324
3721.989, 26.73269
3723.917, 26.79908
3725.846, 27.13614
3727.774, 27.39499
3729.703, 27.39751
3731.631, 27.14556
3733.560, 26.69147
3735.488, 26.80064
3737.417, 27.14592
3739.345, 27.09775
3741.273, 27.08066
3743.202, 27.48486
3745.130, 27.45549
3747.059, 27.02213
3748.987, 27.10644
3750.916, 27.42503
3752.844, 27.57809
3754.773, 27.60000
3756.701, 27.34406
3758.630, 27.39243
3760.558, 27.71247
3762.487, 27.91570
3764.415, 27.95664
3766.344, 27.66651
3768.272, 27.44765
3770.200, 27.50328
3772.129, 27.61526
3774.057, 27.76451
3775.986, 27.86621
3777.914, 27.94252
3779.843, 28.01764
3781.771, 28.06896
3783.700, 28.08984
3785.628, 28.02564
3787.557, 27.92167
3789.485, 27.97376
3791.414, 28.02287
3793.342, 27.89732
3795.271, 27.88608
3797.199, 28.08615
3799.127, 28.19675
3801.056, 28.27062
3802.984, 28.53010
3804.913, 28.61683
3806.841, 28.23988
3808.770, 28.13413
3810.698, 28.40575
3812.627, 28.32418
3814.555, 28.17172
3816.484, 28.52007
3818.412, 28.62567
3820.341, 28.08951
3822.269, 28.14528
3824.198, 28.72887
3826.126, 28.81998
3828.054, 28.79039
3829.983, 29.10008
3831.911, 29.11163
3833.840, 28.64268
3835.768, 28.51848
3837.697, 28.58917
3839.625, 28.34789
3841.554, 28.17224
3843.482, 28.34036
3845.411, 28.44807
3847.339, 28.44814
3849.268, 28.36066
3851.196, 28.33282
3853.125, 28.66471
3855.053, 28.81616
3856.981, 28.58774
3858.910, 28.60739
3860.838, 28.86807
3862.767, 29.45520
3864.695, 29.77090
3866.624, 29.13107
3868.552, 28.69123
3870.481, 28.58438
3872.409, 28.71280
3874.338, 28.94025
3876.266, 29.07751
3878.195, 29.23681
3880.123, 29.53335
3882.052, 29.60326
3883.980, 29.48914
3885.908, 29.31738
3887.837, 29.23082
3889.765, 29.33520
3891.694, 29.51703
3893.622, 29.75585
3895.551, 29.62873
3897.479, 29.41596
3899.408, 29.61659
3901.336, 29.62213
3903.265, 29.13318
3905.193, 29.36600
3907.122, 30.02854
3909.050, 30.08964
3910.979, 30.00680
3912.907, 30.03363
3914.835, 30.05987
3916.764, 30.08008
3918.692, 30.32537
3920.621, 30.47199
3922.549, 29.96197
3924.478, 29.76691
3926.406, 30.08019
3928.335, 30.35849
3930.263, 30.62130
3932.192, 31.13584
3934.120, 31.31624
3936.049, 30.63194
3937.977, 30.61429
3939.906, 31.02835
3941.834, 30.56280
3943.762, 30.11863
3945.691, 30.36660
3947.619, 30.64396
3949.548, 30.85332
3951.476, 30.82735
3953.405, 30.77054
3955.333, 30.89888
3957.262, 31.13826
3959.190, 31.52731
3961.119, 31.52343
3963.047, 31.29857
3964.976, 31.03811
3966.904, 30.97270
3968.833, 31.19086
3970.761, 31.36466
3972.689, 31.48479
3974.618, 31.61293
3976.546, 31.69262
3978.475, 31.68116
3980.403, 31.67001
3982.332, 31.63557
3984.260, 31.32958
3986.189, 31.06194
3988.117, 31.04316
3990.046, 31.25633
3991.974, 31.65582
3993.903, 32.10093
3995.831, 32.26323
3997.760, 31.47449
3999.688, 31.34238
4001.616, 32.35861
4003.545, 32.58774
4005.473, 32.38835
4007.402, 32.05712
4009.330, 32.04004
4011.259, 32.52339
4013.187, 32.39135
4015.116, 31.94504
4017.044, 31.54418
4018.973, 31.83931
4020.901, 33.17196
4022.830, 33.13675
4024.758, 32.33168
4026.687, 32.76304
4028.615, 33.07216
4030.543, 32.40782
4032.472, 32.16190
4034.400, 32.27394
4036.329, 32.35785
4038.257, 32.54472
4040.186, 33.05605
4042.114, 32.87013
4044.043, 32.24502
4045.971, 32.46699
4047.900, 32.91109
4049.828, 33.28807
4051.757, 33.15886
4053.685, 32.64297
4055.614, 32.64375
4057.542, 32.83523
4059.470, 33.10418
4061.399, 33.12656
4063.327, 32.95811
4065.256, 33.26228
4067.184, 33.51150
4069.113, 33.11454
4071.041, 33.11391
4072.970, 33.46851
4074.898, 33.39847
4076.827, 33.19491
4078.755, 33.05009
4080.684, 33.01323
4082.612, 33.08172
4084.541, 33.29179
4086.469, 33.45691
4088.397, 33.33626
4090.326, 33.52706
4092.254, 34.00578
4094.183, 33.96817
4096.111, 33.73275
4098.040, 33.39719
4099.968, 33.43117
4101.896, 33.77854
4103.825, 33.85445
4105.754, 33.83052
4107.682, 33.79168
4109.610, 33.84119
4111.539, 34.01487
4113.468, 34.70009
4115.396, 35.00207
4117.324, 34.15974
4119.253, 34.11214
4121.182, 34.77602
4123.110, 34.88481
4125.038, 34.92961
4126.967, 35.27256
4128.896, 35.08516
4130.824, 34.57657
4132.752, 34.68406
4134.681, 34.96547
4136.609, 35.29417
4138.538, 35.38654
4140.466, 35.30139
4142.395, 35.15985
4144.323, 35.05168
4146.251, 34.98931
4148.180, 35.28348
4150.108, 35.68677
4152.037, 35.72791
4153.965, 35.62101
4155.894, 35.43525
4157.822, 35.52652
4159.751, 35.75627
4161.679, 36.00796
4163.607, 35.95896
4165.536, 35.57172
4167.465, 35.80857
4169.393, 36.16658
4171.321, 36.06931
4173.250, 35.94837
4175.179, 35.89673
4177.107, 36.28127
4179.035, 36.64559
4180.964, 36.53376
4182.893, 36.58390
4184.821, 36.79075
4186.749, 36.84526
4188.678, 36.75072
4190.606, 36.34353
4192.535, 36.30226
4194.463, 36.54946
4196.392, 36.92984
4198.320, 37.15565
4200.249, 37.03925
4202.177, 37.46270
4204.105, 37.92123
4206.034, 37.38073
4207.962, 37.15902
4209.891, 37.52010
4211.819, 37.47332
4213.748, 37.34282
4215.676, 37.57176
4217.604, 37.49167
4219.533, 37.16764
4221.462, 37.42487
4223.390, 37.78441
4225.318, 38.02859
4227.247, 37.63555
4229.176, 36.99028
4231.104, 37.30213
4233.032, 37.78240
4234.961, 38.16154
4236.890, 37.83107
4238.818, 37.38387
4240.746, 37.83752
4242.675, 38.12136
##END=



