##NAMES=Hemusite
##RRUFFID=R061011
##IDEAL CHEMISTRY=Cu^1+^_4_Cu^2+^_2_SnMoS_8_
##LOCALITY=Kawazu mine, Shizuoka, Japan
##OWNER=RRUFF
##SOURCE=Michael Scott
##DESCRIPTION=Metallic tarnished purple coatings and blebs in quartz
##STATUS=The identification of this mineral is not yet confirmed
##URL=https://www.rruff.net/odr/rruff_sample/R061011
##FILETYPE=Raman RAW
##RAMAN WAVELENGTH=785

161.9927, 6973.086
163.9211, 7116.888
165.8496, 7292.468
167.7781, 7476.845
169.7065, 7655.147
171.6350, 7828.248
173.5635, 7950.055
175.4919, 8010.823
177.4204, 8053.907
179.3489, 8077.686
181.2773, 8101.708
183.2058, 8134.392
185.1343, 8177.088
187.0627, 8236.637
188.9912, 8315.323
190.9197, 8399.873
192.8481, 8496.298
194.7766, 8585.615
196.7051, 8657.709
198.6335, 8719.812
200.5620, 8778.578
202.4905, 8833.963
204.4189, 8886.116
206.3474, 8932.672
208.2759, 8984.597
210.2043, 9049.372
212.1328, 9115.141
214.0613, 9169.064
215.9897, 9220.595
217.9182, 9295.565
219.8467, 9397.669
221.7751, 9490.758
223.7036, 9572.705
225.6321, 9645.489
227.5605, 9701.628
229.4890, 9755.350
231.4175, 9820.815
233.3459, 9893.767
235.2744, 9955.034
237.2029, 10007.21
239.1313, 10036.06
241.0598, 10027.81
242.9883, 10017.12
244.9167, 10024.49
246.8452, 10033.22
248.7737, 10026.57
250.7021, 10004.32
252.6306, 9969.757
254.5591, 9921.729
256.4875, 9868.841
258.4160, 9821.469
260.3445, 9754.990
262.2729, 9655.362
264.2014, 9534.260
266.1299, 9406.221
268.0583, 9270.784
269.9868, 9122.742
271.9153, 8957.262
273.8438, 8802.771
275.7722, 8670.657
277.7007, 8546.363
279.6292, 8417.271
281.5576, 8295.556
283.4861, 8204.119
285.4146, 8140.375
287.3430, 8063.498
289.2715, 7967.682
291.2000, 7884.836
293.1284, 7830.880
295.0569, 7782.317
296.9854, 7728.947
298.9138, 7675.302
300.8423, 7625.856
302.7708, 7581.425
304.6992, 7547.206
306.6277, 7524.662
308.5562, 7504.419
310.4846, 7487.367
312.4131, 7467.958
314.3416, 7445.468
316.2700, 7418.879
318.1985, 7375.405
320.1270, 7325.570
322.0554, 7321.908
323.9839, 7369.284
325.9124, 7396.268
327.8408, 7380.526
329.7693, 7357.817
331.6978, 7333.926
333.6262, 7313.389
335.5547, 7306.063
337.4832, 7304.042
339.4116, 7282.377
341.3401, 7243.063
343.2686, 7218.008
345.1970, 7217.361
347.1255, 7215.409
349.0540, 7200.724
350.9824, 7188.108
352.9109, 7188.823
354.8394, 7193.550
356.7678, 7189.597
358.6963, 7176.781
360.6248, 7150.687
362.5532, 7105.937
364.4817, 7078.205
366.4102, 7085.371
368.3386, 7097.328
370.2671, 7109.349
372.1956, 7119.695
374.1240, 7131.290
376.0525, 7138.540
377.9810, 7123.847
379.9094, 7089.395
381.8379, 7072.512
383.7664, 7089.923
385.6948, 7090.369
387.6233, 7050.345
389.5518, 7009.134
391.4802, 6975.750
393.4087, 6955.377
395.3372, 6964.837
397.2656, 6990.033
399.1941, 6991.120
401.1226, 6965.581
403.0510, 6942.761
404.9795, 6923.625
406.9080, 6912.939
408.8364, 6916.325
410.7649, 6922.460
412.6934, 6926.945
414.6218, 6930.706
416.5503, 6938.903
418.4788, 6946.974
420.4072, 6935.452
422.3357, 6900.349
424.2642, 6887.871
426.1926, 6919.785
428.1211, 6946.650
430.0496, 6960.186
431.9780, 6967.130
433.9065, 6966.300
435.8350, 6964.271
437.7634, 6967.584
439.6919, 6976.252
441.6204, 6993.902
443.5488, 7021.743
445.4773, 7036.761
447.4058, 7017.803
449.3342, 7022.575
451.2627, 7070.792
453.1912, 7125.363
455.1196, 7174.086
457.0481, 7219.187
458.9766, 7247.622
460.9050, 7280.734
462.8335, 7364.191
464.7620, 7495.993
466.6904, 7625.571
468.6189, 7769.944
470.5474, 7858.569
472.4758, 7894.834
474.4043, 7868.340
476.3328, 7734.862
478.2612, 7583.329
480.1897, 7455.468
482.1182, 7352.853
484.0466, 7278.683
485.9751, 7228.682
487.9036, 7187.237
489.8320, 7152.018
491.7605, 7140.871
493.6890, 7183.898
495.6174, 7205.196
497.5459, 7179.110
499.4744, 7162.099
501.4028, 7182.988
503.3313, 7211.120
505.2598, 7222.086
507.1882, 7226.283
509.1167, 7236.362
511.0452, 7251.673
512.9736, 7271.580
514.9021, 7300.604
516.8306, 7313.877
518.7590, 7294.011
520.6875, 7287.661
522.6160, 7311.623
524.5444, 7331.700
526.4729, 7329.636
528.4014, 7326.824
530.3298, 7347.146
532.2583, 7369.233
534.1868, 7360.063
536.1152, 7328.308
538.0437, 7315.799
539.9722, 7325.305
541.9006, 7336.292
543.8291, 7354.951
545.7576, 7361.802
547.6860, 7352.106
549.6145, 7337.369
551.5430, 7310.121
553.4714, 7293.455
555.3999, 7305.844
557.3284, 7330.946
559.2568, 7365.010
561.1853, 7396.034
563.1138, 7393.729
565.0422, 7360.312
566.9707, 7334.182
568.8992, 7313.089
570.8276, 7309.998
572.7561, 7332.119
574.6846, 7353.548
576.6130, 7372.206
578.5415, 7387.053
580.4700, 7398.606
582.3984, 7404.820
584.3269, 7403.314
586.2554, 7396.352
588.1838, 7376.202
590.1123, 7355.677
592.0408, 7373.168
593.9692, 7422.927
595.8977, 7432.311
597.8262, 7387.744
599.7546, 7374.795
601.6831, 7406.244
603.6116, 7425.202
605.5400, 7416.740
607.4685, 7414.057
609.3970, 7435.200
611.3254, 7453.649
613.2539, 7450.982
615.1824, 7443.335
617.1108, 7440.405
619.0393, 7440.475
620.9678, 7440.166
622.8962, 7440.897
624.8247, 7452.141
626.7532, 7473.799
628.6816, 7473.115
630.6101, 7447.188
632.5386, 7425.084
634.4670, 7408.712
636.3955, 7395.196
638.3240, 7386.046
640.2524, 7373.862
642.1809, 7346.264
644.1094, 7331.727
646.0378, 7364.289
647.9663, 7392.816
649.8948, 7371.754
651.8232, 7333.034
653.7517, 7310.777
655.6802, 7304.799
657.6086, 7324.391
659.5371, 7363.401
661.4656, 7368.633
663.3940, 7340.206
665.3225, 7324.059
667.2510, 7322.978
669.1794, 7330.616
671.1079, 7351.038
673.0364, 7362.400
674.9648, 7359.687
676.8933, 7346.320
678.8218, 7306.973
680.7502, 7279.431
682.6787, 7285.575
684.6072, 7303.211
686.5356, 7323.735
688.4641, 7339.690
690.3926, 7337.955
692.3210, 7327.376
694.2495, 7326.089
696.1780, 7332.267
698.1064, 7337.578
700.0349, 7342.236
701.9634, 7348.368
703.8918, 7355.916
705.8203, 7358.490
707.7488, 7354.195
709.6772, 7352.669
711.6057, 7359.507
713.5342, 7354.970
715.4626, 7315.928
717.3911, 7298.040
719.3196, 7344.276
721.2480, 7377.980
723.1765, 7352.679
725.1050, 7321.381
727.0334, 7320.277
728.9619, 7331.207
730.8904, 7342.684
732.8188, 7349.227
734.7473, 7334.344
736.6758, 7310.820
738.6042, 7308.190
740.5327, 7323.239
742.4612, 7355.982
744.3896, 7400.303
746.3181, 7409.910
748.2466, 7382.973
750.1750, 7362.573
752.1035, 7354.011
754.0320, 7342.952
755.9604, 7320.562
757.8889, 7318.533
759.8174, 7358.850
761.7458, 7386.850
763.6743, 7383.679
765.6028, 7378.904
767.5313, 7386.129
769.4597, 7385.974
771.3882, 7358.904
773.3167, 7336.749
775.2451, 7344.091
777.1736, 7361.546
779.1021, 7382.316
781.0305, 7394.962
782.9590, 7377.439
784.8875, 7348.541
786.8159, 7334.410
788.7444, 7331.786
790.6729, 7337.109
792.6013, 7348.555
794.5298, 7364.948
796.4583, 7383.406
798.3867, 7385.822
800.3152, 7372.537
802.2437, 7365.965
804.1721, 7367.805
806.1006, 7364.083
808.0291, 7352.577
809.9575, 7338.643
811.8860, 7317.535
813.8145, 7307.283
815.7429, 7321.328
817.6714, 7327.097
819.5999, 7320.962
821.5283, 7310.749
823.4568, 7291.092
825.3853, 7279.176
827.3137, 7284.539
829.2422, 7290.261
831.1707, 7290.707
833.0991, 7287.686
835.0276, 7277.900
836.9561, 7270.006
838.8845, 7275.737
840.8130, 7277.930
842.7415, 7256.150
844.6699, 7232.819
846.5984, 7225.720
848.5269, 7229.329
850.4553, 7244.112
852.3838, 7260.211
854.3123, 7266.429
856.2407, 7264.789
858.1692, 7254.540
860.0977, 7241.780
862.0261, 7242.338
863.9546, 7251.168
865.8831, 7250.672
867.8115, 7243.570
869.7400, 7241.748
871.6685, 7244.629
873.5969, 7247.510
875.5254, 7250.131
877.4539, 7251.492
879.3823, 7251.229
881.3108, 7248.196
883.2393, 7241.588
885.1677, 7234.362
887.0962, 7226.084
889.0247, 7218.547
890.9531, 7213.421
892.8816, 7202.772
894.8101, 7180.983
896.7385, 7181.074
898.6670, 7217.995
900.5955, 7224.590
902.5239, 7183.094
904.4524, 7159.770
906.3809, 7164.101
908.3093, 7175.500
910.2378, 7192.228
912.1663, 7210.428
914.0947, 7233.997
916.0232, 7241.030
917.9517, 7220.875
919.8801, 7204.369
921.8086, 7201.324
923.7371, 7195.913
925.6655, 7182.358
927.5940, 7172.757
929.5225, 7174.022
931.4509, 7171.531
933.3794, 7156.243
935.3079, 7148.632
937.2363, 7154.463
939.1648, 7174.056
941.0933, 7222.722
943.0217, 7248.772
944.9502, 7218.556
946.8787, 7188.402
948.8071, 7182.407
950.7356, 7175.250
952.6641, 7149.582
954.5925, 7133.244
956.5210, 7146.167
958.4495, 7157.250
960.3779, 7153.995
962.3064, 7146.364
964.2349, 7134.250
966.1633, 7126.431
968.0918, 7138.119
970.0203, 7138.570
971.9487, 7094.569
973.8772, 7066.244
975.8057, 7095.964
977.7341, 7122.780
979.6626, 7113.474
981.5911, 7104.087
983.5195, 7118.689
985.4480, 7125.366
987.3765, 7099.151
989.3049, 7077.405
991.2334, 7083.251
993.1619, 7088.239
995.0903, 7074.615
997.0188, 7064.127
998.9473, 7069.301
1000.876, 7074.506
1002.804, 7076.000
1004.733, 7071.461
1006.661, 7058.892
1008.590, 7042.461
1010.518, 7017.195
1012.447, 6999.870
1014.375, 6997.800
1016.303, 7003.639
1018.232, 7019.645
1020.160, 7034.338
1022.089, 7046.326
1024.017, 7051.149
1025.946, 7043.190
1027.874, 7034.617
1029.803, 7027.105
1031.731, 7023.459
1033.660, 7023.613
1035.588, 7029.956
1037.517, 7057.765
1039.445, 7065.459
1041.374, 7029.279
1043.302, 6999.107
1045.230, 6983.098
1047.159, 6972.018
1049.087, 6965.068
1051.016, 6963.598
1052.944, 6976.437
1054.873, 6974.931
1056.801, 6942.155
1058.730, 6936.466
1060.658, 6978.362
1062.587, 6999.520
1064.515, 6989.452
1066.444, 6973.467
1068.372, 6947.822
1070.301, 6945.151
1072.229, 6975.353
1074.157, 6969.401
1076.086, 6916.400
1078.014, 6908.626
1079.943, 6952.710
1081.871, 6969.639
1083.800, 6957.304
1085.728, 6939.619
1087.657, 6918.115
1089.585, 6906.354
1091.514, 6903.850
1093.442, 6908.271
1095.371, 6916.898
1097.299, 6920.867
1099.228, 6916.802
1101.156, 6875.466
1103.084, 6826.830
1105.013, 6861.799
1106.941, 6930.369
1108.870, 6934.981
1110.798, 6911.408
1112.727, 6907.926
1114.655, 6911.615
1116.584, 6912.790
1118.512, 6907.455
1120.441, 6889.028
1122.369, 6867.257
1124.298, 6847.803
1126.226, 6832.270
1128.155, 6818.256
1130.083, 6815.990
1132.011, 6841.446
1133.940, 6859.355
1135.868, 6848.530
1137.797, 6838.046
1139.725, 6838.316
1141.654, 6838.120
1143.582, 6832.789
1145.511, 6830.219
1147.439, 6831.885
1149.368, 6839.213
1151.296, 6859.161
1153.225, 6851.061
1155.153, 6800.350
1157.082, 6792.266
1159.010, 6838.563
1160.938, 6848.176
1162.867, 6821.701
1164.795, 6795.450
1166.724, 6772.685
1168.652, 6788.095
1170.581, 6825.497
1172.509, 6822.041
1174.438, 6795.939
1176.366, 6792.839
1178.295, 6793.928
1180.223, 6757.085
1182.152, 6720.461
1184.080, 6734.423
1186.009, 6761.281
1187.937, 6777.111
1189.865, 6783.719
1191.794, 6779.717
1193.722, 6771.091
1195.651, 6759.278
1197.579, 6745.704
1199.508, 6728.003
1201.436, 6720.259
1203.365, 6728.657
1205.293, 6734.234
1207.222, 6734.813
1209.150, 6711.250
1211.079, 6660.837
1213.007, 6658.745
1214.936, 6703.896
1216.864, 6718.889
1218.792, 6706.181
1220.721, 6689.940
1222.649, 6673.745
1224.578, 6670.252
1226.506, 6671.810
1228.435, 6670.020
1230.363, 6659.581
1232.292, 6616.634
1234.220, 6585.855
1236.149, 6621.012
1238.077, 6656.225
1240.006, 6657.007
1241.934, 6644.613
1243.863, 6611.741
1245.791, 6597.691
1247.719, 6618.988
1249.648, 6623.808
1251.576, 6603.735
1253.505, 6576.685
1255.433, 6545.224
1257.362, 6542.083
1259.290, 6564.465
1261.219, 6592.177
1263.147, 6616.046
1265.076, 6606.239
1267.004, 6578.805
1268.933, 6551.779
1270.861, 6533.722
1272.790, 6542.288
1274.718, 6553.673
1276.646, 6549.390
1278.575, 6543.557
1280.503, 6545.909
1282.432, 6543.977
1284.360, 6526.676
1286.289, 6521.513
1288.217, 6538.850
1290.146, 6533.608
1292.074, 6499.811
1294.003, 6500.525
1295.931, 6530.829
1297.860, 6538.316
1299.788, 6527.635
1301.717, 6511.732
1303.645, 6492.455
1305.573, 6470.303
1307.502, 6448.843
1309.430, 6426.003
1311.359, 6413.396
1313.287, 6437.473
1315.216, 6439.333
1317.144, 6368.196
1319.073, 6333.707
1321.001, 6380.044
1322.930, 6402.798
1324.858, 6399.995
1326.787, 6367.422
1328.715, 6311.229
1330.644, 6316.082
1332.572, 6355.843
1334.500, 6363.236
1336.429, 6351.187
1338.357, 6325.569
1340.286, 6305.616
1342.214, 6314.879
1344.143, 6314.104
1346.071, 6274.848
1348.000, 6251.406
1349.928, 6262.154
1351.857, 6277.163
1353.785, 6296.782
1355.714, 6292.275
1357.642, 6265.150
1359.571, 6243.627
1361.499, 6226.567
1363.427, 6211.914
1365.356, 6198.649
1367.284, 6183.106
1369.213, 6171.807
1371.141, 6166.605
1373.070, 6172.791
1374.998, 6199.968
1376.927, 6209.538
1378.855, 6189.164
1380.784, 6167.593
1382.712, 6147.489
1384.641, 6141.518
1386.569, 6145.373
1388.498, 6133.227
1390.426, 6116.105
1392.354, 6128.039
1394.283, 6130.586
1396.211, 6061.071
1398.140, 6010.909
1400.068, 6035.144
1401.997, 6042.189
1403.925, 6004.979
1405.854, 5986.261
1407.782, 5993.941
1409.711, 5979.357
1411.639, 5949.646
1413.568, 5966.123
1415.496, 5996.204
1417.425, 5967.660
1419.353, 5930.185
1421.281, 5939.595
1423.210, 5943.634
1425.138, 5908.170
1427.067, 5890.714
1428.995, 5906.371
1430.924, 5902.885
1432.852, 5877.574
1434.781, 5872.251
1436.709, 5878.655
1438.638, 5858.741
1440.566, 5831.438
1442.495, 5828.856
1444.423, 5824.188
1446.352, 5792.620
1448.280, 5763.402
1450.208, 5744.475
1452.137, 5734.503
1454.065, 5734.350
1455.994, 5721.201
1457.922, 5698.900
1459.851, 5693.691
1461.779, 5698.015
1463.708, 5700.617
1465.636, 5701.656
1467.565, 5708.080
1469.493, 5700.923
1471.422, 5659.291
1473.350, 5631.422
1475.279, 5623.580
1477.207, 5627.700
1479.135, 5639.080
1481.064, 5623.432
1482.992, 5594.892
1484.921, 5575.266
1486.849, 5563.597
1488.778, 5561.351
1490.706, 5561.523
1492.635, 5564.121
1494.563, 5561.950
1496.492, 5556.226
1498.420, 5529.299
1500.349, 5489.086
1502.277, 5504.706
1504.206, 5531.794
1506.134, 5491.478
1508.063, 5441.628
1509.991, 5411.883
1511.919, 5403.956
1513.848, 5435.356
1515.776, 5434.532
1517.705, 5393.990
1519.633, 5381.590
1521.562, 5388.804
1523.490, 5392.064
1525.419, 5389.539
1527.347, 5372.397
1529.276, 5363.932
1531.204, 5383.734
1533.133, 5384.254
1535.061, 5352.102
1536.990, 5318.251
1538.918, 5285.240
1540.846, 5263.478
1542.775, 5250.896
1544.703, 5247.545
1546.632, 5246.688
1548.560, 5246.078
1550.489, 5241.527
1552.417, 5231.368
1554.346, 5221.639
1556.274, 5212.030
1558.203, 5187.347
1560.131, 5158.787
1562.060, 5151.446
1563.988, 5151.145
1565.917, 5152.975
1567.845, 5144.908
1569.773, 5122.061
1571.702, 5101.752
1573.630, 5086.541
1575.559, 5080.751
1577.487, 5080.145
1579.416, 5077.704
1581.344, 5072.056
1583.273, 5062.395
1585.201, 5048.047
1587.130, 5028.899
1589.058, 5002.328
1590.987, 4973.351
1592.915, 4998.839
1594.844, 5039.788
1596.772, 5010.652
1598.700, 4968.528
1600.629, 4959.224
1602.557, 4940.461
1604.486, 4898.117
1606.414, 4900.077
1608.343, 4938.660
1610.271, 4935.122
1612.200, 4907.912
1614.128, 4875.116
1616.057, 4852.070
1617.985, 4856.532
1619.914, 4856.233
1621.842, 4846.839
1623.771, 4827.331
1625.699, 4805.100
1627.627, 4809.923
1629.556, 4822.026
1631.484, 4830.540
1633.413, 4818.074
1635.341, 4758.574
1637.270, 4723.465
1639.198, 4715.892
1641.127, 4715.794
1643.055, 4719.141
1644.984, 4724.522
1646.912, 4722.392
1648.841, 4696.764
1650.769, 4681.981
1652.698, 4690.069
1654.626, 4688.252
1656.554, 4676.546
1658.483, 4653.549
1660.411, 4628.541
1662.340, 4606.780
1664.268, 4595.305
1666.197, 4606.636
1668.125, 4602.285
1670.054, 4581.292
1671.982, 4578.788
1673.911, 4582.234
1675.839, 4567.705
1677.768, 4552.501
1679.696, 4544.901
1681.625, 4543.538
1683.553, 4550.900
1685.481, 4525.904
1687.410, 4485.474
1689.338, 4478.372
1691.267, 4480.019
1693.195, 4478.525
1695.124, 4464.713
1697.052, 4432.729
1698.981, 4415.284
1700.909, 4412.237
1702.838, 4428.108
1704.766, 4443.150
1706.695, 4440.305
1708.623, 4429.700
1710.552, 4411.946
1712.480, 4409.615
1714.408, 4416.966
1716.337, 4399.489
1718.265, 4373.966
1720.194, 4359.948
1722.122, 4338.589
1724.051, 4301.664
1725.979, 4293.013
1727.908, 4308.272
1729.836, 4308.987
1731.765, 4300.763
1733.693, 4285.299
1735.622, 4273.182
1737.550, 4267.756
1739.479, 4260.512
1741.407, 4251.527
1743.335, 4242.943
1745.264, 4237.342
1747.192, 4241.108
1749.121, 4241.291
1751.049, 4234.646
1752.978, 4219.154
1754.906, 4200.576
1756.835, 4203.627
1758.763, 4210.768
1760.692, 4207.708
1762.620, 4196.489
1764.549, 4177.018
1766.477, 4167.438
1768.406, 4163.915
1770.334, 4147.660
1772.262, 4135.992
1774.191, 4147.379
1776.119, 4156.920
1778.048, 4160.971
1779.976, 4158.015
1781.905, 4150.621
1783.833, 4146.031
1785.762, 4136.455
1787.690, 4105.701
1789.619, 4102.500
1791.547, 4127.483
1793.476, 4146.618
1795.404, 4150.112
1797.333, 4114.802
1799.261, 4090.003
1801.189, 4108.493
1803.118, 4096.774
1805.046, 4063.925
1806.975, 4059.610
1808.903, 4059.859
1810.832, 4041.339
1812.760, 4027.478
1814.689, 4023.890
1816.617, 4015.942
1818.546, 4007.878
1820.474, 4014.404
1822.403, 4014.028
1824.331, 3984.379
1826.260, 3989.467
1828.188, 4028.433
1830.116, 3986.139
1832.045, 3923.524
1833.973, 3906.133
1835.902, 3909.806
1837.830, 3932.189
1839.759, 3925.607
1841.687, 3903.121
1843.616, 3912.757
1845.544, 3920.666
1847.473, 3907.185
1849.401, 3892.490
1851.330, 3878.592
1853.258, 3852.119
1855.187, 3829.925
1857.115, 3837.742
1859.043, 3836.595
1860.972, 3814.296
1862.900, 3798.219
1864.829, 3792.234
1866.757, 3802.812
1868.686, 3809.888
1870.614, 3803.640
1872.543, 3781.667
1874.471, 3751.741
1876.400, 3734.968
1878.328, 3726.059
1880.257, 3725.429
1882.185, 3723.014
1884.114, 3717.145
1886.042, 3712.993
1887.970, 3706.755
1889.899, 3686.459
1891.827, 3672.926
1893.756, 3671.864
1895.684, 3661.580
1897.613, 3640.375
1899.541, 3604.432
1901.470, 3583.720
1903.398, 3595.688
1905.327, 3600.285
1907.255, 3594.124
1909.184, 3570.715
1911.112, 3548.190
1913.041, 3539.893
1914.969, 3550.637
1916.897, 3572.013
1918.826, 3544.814
1920.754, 3507.876
1922.683, 3509.414
1924.611, 3502.618
1926.540, 3471.175
1928.468, 3467.229
1930.397, 3476.304
1932.325, 3470.426
1934.254, 3453.981
1936.182, 3420.596
1938.111, 3417.695
1940.039, 3425.946
1941.968, 3402.346
1943.896, 3382.704
1945.824, 3383.923
1947.753, 3384.011
1949.681, 3380.234
1951.610, 3358.697
1953.538, 3338.713
1955.467, 3333.674
1957.395, 3328.225
1959.324, 3319.084
1961.252, 3298.332
1963.181, 3276.429
1965.109, 3256.113
1967.038, 3253.849
1968.966, 3259.604
1970.895, 3242.017
1972.823, 3218.726
1974.751, 3194.376
1976.680, 3194.140
1978.608, 3212.441
1980.537, 3181.842
1982.465, 3154.722
1984.394, 3168.917
1986.322, 3166.269
1988.251, 3142.129
1990.179, 3110.907
1992.108, 3091.519
1994.036, 3097.955
1995.965, 3107.979
1997.893, 3116.747
1999.822, 3092.418
2001.750, 3069.564
2003.678, 3076.713
2005.607, 3072.545
2007.535, 3057.539
2009.464, 3046.574
2011.392, 3027.667
2013.321, 2990.809
2015.249, 2972.940
2017.178, 2977.385
2019.106, 2976.958
2021.035, 2969.300
2022.963, 2955.390
2024.892, 2946.191
2026.820, 2942.576
2028.749, 2933.198
2030.677, 2918.037
2032.605, 2894.814
2034.534, 2885.793
2036.462, 2891.844
2038.391, 2897.079
2040.319, 2882.396
2042.248, 2841.234
2044.176, 2829.766
2046.105, 2836.549
2048.033, 2850.213
2049.962, 2840.548
2051.890, 2794.403
2053.819, 2783.589
2055.747, 2787.689
2057.676, 2772.032
2059.604, 2759.970
2061.532, 2758.249
2063.461, 2730.848
2065.389, 2705.578
2067.318, 2714.304
2069.246, 2719.444
2071.175, 2712.990
2073.103, 2678.890
2075.032, 2656.715
2076.960, 2672.590
2078.889, 2680.492
2080.817, 2676.991
2082.746, 2654.539
2084.674, 2622.483
2086.603, 2570.631
2088.531, 2569.879
2090.459, 2597.876
2092.388, 2589.373
2094.316, 2579.245
2096.245, 2584.701
2098.173, 2564.450
2100.102, 2539.184
2102.030, 2542.804
2103.959, 2533.486
2105.887, 2508.703
2107.816, 2505.293
2109.744, 2507.966
2111.673, 2515.060
2113.601, 2517.899
2115.530, 2507.261
2117.458, 2511.474
2119.386, 2499.198
2121.315, 2472.895
2123.243, 2450.880
2125.172, 2429.677
2127.100, 2420.143
2129.029, 2405.536
2130.957, 2385.783
2132.886, 2370.346
2134.814, 2358.088
2136.743, 2349.670
2138.671, 2332.778
2140.600, 2316.559
2142.528, 2340.066
2144.457, 2342.126
2146.385, 2304.764
2148.313, 2296.091
2150.242, 2293.518
2152.170, 2259.695
2154.099, 2251.602
2156.027, 2267.716
2157.956, 2275.827
2159.884, 2273.164
2161.813, 2255.466
2163.741, 2237.314
2165.670, 2218.265
2167.598, 2190.767
2169.527, 2178.927
2171.455, 2185.634
2173.384, 2178.946
2175.312, 2169.727
2177.240, 2165.913
2179.169, 2165.945
2181.097, 2164.592
2183.026, 2137.250
2184.954, 2128.021
2186.883, 2154.610
2188.811, 2156.884
2190.740, 2138.286
2192.668, 2093.984
2194.597, 2083.155
2196.525, 2095.827
2198.454, 2090.637
2200.382, 2079.888
2202.311, 2069.985
2204.239, 2058.481
2206.167, 2050.617
2208.096, 2056.166
2210.024, 2049.892
2211.953, 2033.262
2213.881, 2014.761
2215.810, 1999.505
2217.738, 1990.243
2219.667, 1975.528
2221.595, 1964.913
2223.524, 1972.888
2225.452, 1963.254
2227.381, 1941.306
2229.309, 1924.162
2231.238, 1912.912
2233.166, 1909.618
2235.094, 1907.673
2237.023, 1901.299
2238.951, 1884.718
2240.880, 1872.201
2242.808, 1869.549
2244.737, 1875.359
2246.665, 1867.057
2248.594, 1846.952
2250.522, 1840.565
2252.451, 1833.791
2254.379, 1815.570
2256.308, 1815.113
2258.236, 1822.522
2260.165, 1797.342
2262.093, 1779.413
2264.021, 1784.949
2265.950, 1782.060
2267.878, 1773.916
2269.807, 1767.061
2271.735, 1768.372
2273.664, 1768.832
2275.592, 1742.563
2277.521, 1732.177
2279.449, 1735.160
2281.378, 1712.536
2283.306, 1706.349
2285.235, 1714.406
2287.163, 1710.571
2289.092, 1703.145
2291.020, 1684.419
2292.948, 1683.369
2294.877, 1678.757
2296.805, 1658.208
2298.734, 1654.028
2300.662, 1656.444
2302.591, 1651.517
2304.519, 1650.944
2306.448, 1644.329
2308.376, 1628.409
2310.305, 1623.432
2312.233, 1626.345
2314.162, 1621.584
2316.090, 1615.047
2318.019, 1612.260
2319.947, 1599.367
2321.875, 1587.337
2323.804, 1589.434
2325.732, 1587.324
2327.661, 1584.973
2329.589, 1571.189
2331.518, 1557.646
2333.446, 1543.467
2335.375, 1539.623
2337.303, 1539.072
2339.232, 1523.839
2341.160, 1513.139
2343.089, 1501.483
2345.017, 1506.444
2346.946, 1510.051
2348.874, 1497.574
2350.802, 1486.798
2352.731, 1490.359
2354.659, 1499.977
2356.588, 1474.839
2358.516, 1461.732
2360.445, 1479.981
2362.373, 1476.003
2364.302, 1458.144
2366.230, 1451.485
2368.159, 1448.600
2370.087, 1453.160
2372.016, 1453.261
2373.944, 1438.778
2375.873, 1418.729
2377.801, 1413.946
2379.729, 1403.239
2381.658, 1393.319
2383.586, 1402.221
2385.515, 1404.669
2387.443, 1396.110
2389.372, 1404.622
2391.300, 1400.816
2393.229, 1373.091
2395.157, 1371.795
2397.086, 1368.514
2399.014, 1356.859
2400.943, 1348.638
2402.871, 1340.658
2404.800, 1336.583
2406.728, 1335.365
2408.656, 1335.458
2410.585, 1334.496
2412.513, 1319.030
2414.442, 1306.783
2416.370, 1328.169
2418.299, 1392.332
2420.227, 1368.538
2422.156, 1303.748
2424.084, 1294.243
2426.013, 1294.129
2427.941, 1288.546
2429.870, 1283.122
2431.798, 1263.821
2433.727, 1255.295
2435.655, 1254.613
2437.583, 1244.984
2439.512, 1255.352
2441.440, 1258.586
2443.369, 1242.306
2445.297, 1226.157
2447.226, 1223.273
2449.154, 1220.093
2451.083, 1214.454
2453.011, 1210.797
2454.940, 1214.358
2456.868, 1213.975
2458.797, 1205.667
2460.725, 1202.123
2462.654, 1196.401
2464.582, 1180.807
2466.510, 1186.160
2468.439, 1181.485
2470.367, 1167.325
2472.296, 1157.454
2474.224, 1158.232
2476.153, 1155.531
2478.081, 1156.923
2480.010, 1161.014
2481.938, 1145.702
2483.867, 1139.207
2485.795, 1127.709
2487.724, 1120.796
2489.652, 1128.014
2491.581, 1124.186
2493.509, 1109.559
2495.438, 1111.694
2497.366, 1115.107
2499.294, 1109.620
2501.223, 1102.556
2503.151, 1090.232
2505.080, 1078.688
2507.008, 1073.149
2508.937, 1067.169
2510.865, 1059.831
2512.794, 1067.439
2514.722, 1069.724
2516.651, 1057.411
2518.579, 1050.257
2520.508, 1044.039
2522.436, 1032.543
2524.365, 1032.018
2526.293, 1032.049
2528.221, 1031.725
2530.150, 1021.167
2532.078, 1009.154
2534.007, 1007.976
2535.935, 1005.023
2537.864, 1004.357
2539.792, 998.7136
2541.721, 991.1692
2543.649, 984.9365
2545.578, 993.9372
2547.506, 992.5274
2549.435, 982.8364
2551.363, 973.7064
2553.292, 968.0557
2555.220, 971.5639
2557.148, 980.5020
2559.077, 967.6104
2561.005, 954.9216
2562.934, 946.6609
2564.862, 947.8128
2566.791, 946.7850
2568.719, 947.3938
2570.648, 937.6523
2572.576, 931.2804
2574.505, 933.6837
2576.433, 916.1582
2578.362, 903.5308
2580.290, 900.7323
2582.219, 910.7291
2584.147, 908.6028
2586.075, 892.9370
2588.004, 903.0449
2589.932, 902.3032
2591.861, 887.2428
2593.789, 868.4576
2595.718, 872.2137
2597.646, 888.4799
2599.575, 896.5148
2601.503, 886.5566
2603.432, 866.7112
2605.360, 855.6779
2607.289, 848.8824
2609.217, 844.3149
2611.146, 840.4861
2613.074, 834.6693
2615.002, 829.1749
2616.931, 831.5189
2618.859, 828.0871
2620.788, 821.0414
2622.716, 815.3985
2624.645, 815.6187
2626.573, 816.7868
2628.502, 813.5480
2630.430, 796.7839
2632.359, 787.5059
2634.287, 795.6584
2636.216, 796.4050
2638.144, 789.3528
2640.073, 777.6262
2642.001, 772.2545
2643.929, 767.9869
2645.858, 764.3985
2647.786, 772.1574
2649.715, 774.0709
2651.643, 768.3691
2653.572, 766.2603
2655.500, 762.2449
2657.429, 756.9094
2659.357, 754.0248
2661.286, 746.2823
2663.214, 735.9636
2665.143, 725.6567
2667.071, 726.0706
2669.000, 730.5840
2670.928, 731.8028
2672.856, 727.9538
2674.785, 721.3052
2676.713, 713.8733
2678.642, 708.5854
2680.570, 705.7081
2682.499, 701.9667
2684.427, 696.2762
2686.356, 695.3466
2688.284, 696.8619
2690.213, 688.2241
2692.141, 684.2836
2694.070, 684.1865
2695.998, 675.2665
2697.927, 666.1072
2699.855, 661.6926
2701.783, 671.6508
2703.712, 675.1896
2705.640, 674.8264
2707.569, 668.2068
2709.497, 654.8395
2711.426, 651.5149
2713.354, 654.1103
2715.283, 649.3751
2717.211, 644.3757
2719.140, 637.0952
2721.068, 630.1373
2722.997, 627.2104
2724.925, 626.0137
2726.854, 619.6943
2728.782, 614.8141
2730.710, 608.5196
2732.639, 594.4980
2734.567, 596.2822
2736.496, 600.0759
2738.424, 593.5002
2740.353, 597.0169
2742.281, 604.7144
2744.210, 602.0004
2746.138, 585.7689
2748.067, 582.0628
2749.995, 586.3784
2751.924, 578.0679
2753.852, 568.4512
2755.781, 565.2629
2757.709, 562.4247
2759.637, 557.8203
2761.566, 555.8680
2763.494, 555.4030
2765.423, 549.0947
2767.351, 548.8348
2769.280, 546.2542
2771.208, 534.0593
2773.137, 534.7654
2775.065, 530.7934
2776.994, 527.5612
2778.922, 524.0972
2780.851, 522.2628
2782.779, 527.3304
2784.708, 514.8238
2786.636, 508.9120
2788.564, 514.5373
2790.493, 514.3864
2792.421, 511.1728
2794.350, 505.7244
2796.278, 510.1046
2798.207, 502.6332
2800.135, 493.6944
2802.064, 489.8814
2803.992, 483.8409
2805.921, 480.7278
2807.849, 481.3271
2809.778, 476.7896
2811.706, 471.5935
2813.635, 482.2119
2815.563, 486.0791
2817.491, 473.8019
2819.420, 457.6510
2821.348, 453.1604
2823.277, 456.7078
2825.205, 459.8459
2827.134, 453.8622
2829.062, 445.6454
2830.991, 450.9316
2832.919, 461.6914
2834.848, 451.5361
2836.776, 442.6603
2838.705, 443.5205
2840.633, 440.0114
2842.562, 429.1445
2844.490, 434.2921
2846.418, 435.7764
2848.347, 422.4473
2850.275, 416.4891
2852.204, 413.1351
2854.132, 414.6693
2856.061, 411.8047
2857.989, 405.4851
2859.918, 401.8003
2861.846, 397.1584
2863.775, 390.8201
2865.703, 393.6177
2867.632, 394.7328
2869.560, 398.8939
2871.489, 402.8784
2873.417, 392.0490
2875.345, 381.0117
2877.274, 386.1276
2879.202, 384.0499
2881.131, 367.0503
2883.059, 369.4254
2884.988, 375.6249
2886.916, 373.8104
2888.845, 370.9933
2890.773, 362.4770
2892.702, 361.6476
2894.630, 361.5724
2896.559, 356.7014
2898.487, 348.1762
2900.416, 344.6388
2902.344, 342.6012
2904.272, 347.8714
2906.201, 351.8635
2908.129, 338.5356
2910.058, 335.2690
2911.986, 340.6300
2913.915, 338.9176
2915.843, 327.0790
2917.772, 315.0350
2919.700, 315.3457
2921.629, 323.1040
2923.557, 312.9500
2925.486, 306.1365
2927.414, 312.7866
2929.343, 316.1727
2931.271, 311.9267
2933.199, 303.8669
2935.128, 302.7574
2937.056, 309.3766
2938.985, 313.0164
2940.913, 299.7825
2942.842, 299.3695
2944.770, 294.5606
2946.699, 283.7774
2948.627, 285.1485
2950.556, 287.2257
2952.484, 289.3838
2954.413, 288.1596
2956.341, 273.8798
2958.270, 267.2641
2960.198, 278.1791
2962.126, 277.0985
2964.055, 267.3242
2965.983, 264.9432
2967.912, 272.4372
2969.840, 270.8495
2971.769, 267.1191
2973.697, 261.9380
2975.626, 257.1837
2977.554, 257.2914
2979.483, 259.5517
2981.411, 253.1716
2983.340, 257.8894
2985.268, 252.2478
2987.197, 241.3968
2989.125, 232.1855
2991.053, 231.6693
2992.982, 235.9910
2994.910, 236.7605
2996.839, 236.2686
2998.767, 234.0426
3000.696, 231.4673
3002.624, 229.8376
3004.553, 218.7625
3006.481, 219.2515
3008.410, 222.6750
3010.338, 225.3196
3012.267, 221.8590
3014.195, 210.8974
3016.124, 206.5315
3018.052, 218.3796
3019.980, 216.9842
3021.909, 218.5972
3023.837, 216.6111
3025.766, 201.9988
3027.694, 203.0222
3029.623, 207.1334
3031.551, 201.8548
3033.480, 203.1727
3035.408, 201.3692
3037.337, 196.3654
3039.265, 198.8249
3041.194, 196.7992
3043.122, 187.6493
3045.051, 179.3750
3046.979, 186.7291
3048.907, 182.4366
3050.836, 183.5596
3052.764, 185.4126
3054.693, 180.3308
3056.621, 171.9284
3058.550, 169.7632
3060.478, 177.0446
3062.407, 182.2351
3064.335, 169.7054
3066.264, 161.1011
3068.192, 165.7578
3070.121, 170.3334
3072.049, 162.5108
3073.978, 152.9032
3075.906, 150.4407
3077.834, 155.8279
3079.763, 155.2338
3081.691, 159.1579
3083.620, 168.5631
3085.548, 161.1591
3087.477, 156.5712
3089.405, 160.4101
3091.334, 164.8857
3093.262, 154.3227
3095.191, 146.3630
3097.119, 143.5897
3099.048, 142.8180
3100.976, 146.1775
3102.905, 140.2914
3104.833, 131.7603
3106.761, 131.8283
3108.690, 126.4126
3110.618, 131.5703
3112.547, 135.7235
3114.475, 116.9843
3116.404, 123.5925
3118.332, 129.2728
3120.261, 127.8073
3122.189, 125.8636
3124.118, 126.6253
3126.046, 129.9374
3127.975, 132.9872
3129.903, 132.0101
3131.832, 126.0952
3133.760, 115.6044
3135.688, 107.2664
3137.617, 114.7471
3139.545, 111.7852
3141.474, 114.8698
3143.402, 119.4799
3145.331, 104.6628
3147.259, 108.4800
3149.188, 113.0387
3151.116, 113.7313
3153.045, 114.7039
3154.973, 106.6888
3156.902, 100.0145
3158.830, 97.83235
3160.759, 100.9298
3162.687, 94.88921
3164.615, 90.69762
3166.544, 92.48676
3168.472, 102.5177
3170.401, 87.14061
3172.329, 86.86982
3174.258, 94.12201
3176.186, 92.30407
3178.115, 97.21500
3180.043, 98.97370
3181.972, 93.05344
3183.900, 79.87530
3185.829, 84.01789
3187.757, 91.64093
3189.686, 95.97823
3191.614, 95.21725
3193.542, 94.06998
3195.471, 89.54102
3197.399, 88.39429
3199.328, 89.26334
3201.256, 81.36288
3203.185, 77.25459
3205.113, 78.46450
3207.042, 81.53678
3208.970, 78.02432
3210.899, 87.87570
3212.827, 88.93918
3214.756, 84.59764
3216.684, 86.13165
3218.613, 90.00749
3220.541, 84.11880
3222.469, 75.35201
3224.398, 73.95287
3226.326, 75.85566
3228.255, 75.81900
3230.183, 73.59862
3232.112, 72.41379
3234.040, 70.85214
3235.969, 68.91706
3237.897, 69.18144
3239.826, 72.12933
3241.754, 75.69688
3243.683, 73.91464
3245.611, 70.72984
3247.540, 70.36160
3249.468, 73.85909
3251.396, 82.18646
3253.325, 85.15395
3255.253, 79.00494
3257.182, 68.30815
3259.110, 64.95760
3261.039, 70.27759
3262.967, 74.13145
3264.896, 70.39381
3266.824, 64.44576
3268.753, 72.25491
3270.681, 71.79735
3272.610, 65.95175
3274.538, 66.33025
3276.467, 70.09892
3278.395, 63.49650
3280.323, 58.27134
3282.252, 60.50929
3284.180, 63.46333
3286.109, 60.78870
3288.037, 60.50809
3289.966, 61.28786
3291.894, 62.50642
3293.823, 61.68879
3295.751, 67.76464
3297.680, 70.02918
3299.608, 60.81692
3301.537, 67.97208
3303.465, 71.46413
3305.394, 66.32602
3307.322, 59.63945
3309.250, 61.11891
3311.179, 48.43617
3313.107, 51.98367
3315.036, 61.43995
3316.964, 63.88175
3318.893, 61.33065
3320.821, 63.59607
3322.750, 57.32310
3324.678, 50.49189
3326.607, 60.32044
3328.535, 56.80344
3330.464, 58.75837
3332.392, 60.47770
3334.321, 57.38562
3336.249, 60.99594
3338.177, 58.42295
3340.106, 55.45907
3342.034, 53.95997
3343.963, 53.34738
3345.891, 46.32074
3347.820, 46.36040
3349.748, 48.06363
3351.677, 46.33121
3353.605, 43.11192
3355.534, 45.74092
3357.462, 42.06200
3359.391, 43.07346
3361.319, 52.42513
3363.248, 60.37421
3365.176, 47.57701
3367.104, 51.71719
3369.033, 53.76773
3370.961, 36.55532
3372.890, 40.63073
3374.818, 42.91963
3376.747, 44.56558
3378.675, 41.85006
3380.604, 29.51350
3382.532, 41.46273
3384.461, 52.55822
3386.389, 49.29837
3388.318, 37.84997
3390.246, 48.63305
3392.175, 52.26085
3394.103, 48.44015
3396.031, 45.54850
3397.960, 45.95718
3399.888, 41.53804
3401.817, 52.39481
3403.745, 51.58372
3405.674, 43.01226
3407.602, 38.48060
3409.531, 50.52854
3411.459, 37.30468
3413.388, 30.89568
3415.316, 34.80156
3417.245, 40.60116
3419.173, 48.06144
3421.102, 43.58702
3423.030, 36.66114
3424.958, 36.10439
3426.887, 45.16496
3428.815, 44.95180
3430.744, 37.29014
3432.672, 35.31090
3434.601, 38.62780
3436.529, 40.28402
3438.458, 31.60892
3440.386, 36.56929
3442.315, 35.08044
3444.243, 29.16716
3446.172, 28.75611
3448.100, 31.94849
3450.029, 24.21548
3451.957, 25.36621
3453.885, 30.27635
3455.814, 21.47373
3457.742, 32.33503
3459.671, 38.32826
3461.599, 39.71523
3463.528, 22.69917
3465.456, 29.44680
3467.385, 26.67095
3469.313, 23.50472
3471.242, 33.59684
3473.170, 19.25758
3475.099, 29.13941
3477.027, 29.35271
3478.956, 33.99101
3480.884, 29.04726
3482.813, 27.06301
3484.741, 34.66414
3486.669, 36.95784
3488.598, 30.91090
3490.526, 35.83061
3492.455, 22.05252
3494.383, 19.94057
3496.312, 28.30201
3498.240, 31.44610
3500.169, 32.43478
3502.097, 33.29829
3504.026, 33.05632
3505.954, 29.75806
3507.883, 20.91271
3509.811, 24.19875
3511.740, 34.63079
3513.668, 34.53293
3515.596, 25.67981
3517.525, 29.48733
3519.453, 30.20897
3521.382, 29.92217
3523.310, 19.64765
3525.239, 15.66058
3527.167, 33.98657
3529.096, 37.68261
3531.024, 32.17451
3532.953, 24.24490
3534.881, 23.62071
3536.810, 31.24645
3538.738, 37.26441
3540.667, 27.57501
3542.595, 32.93351
3544.523, 35.87190
3546.452, 29.36086
3548.380, 20.83667
3550.309, 26.73341
3552.237, 22.37955
3554.166, 21.95963
3556.094, 18.13168
3558.023, 15.67453
3559.951, 31.50303
3561.880, 30.07618
3563.808, 30.89887
3565.737, 28.37322
3567.665, 23.76161
3569.594, 20.29595
3571.522, 15.08247
3573.450, 20.61349
3575.379, 23.44901
3577.307, 19.89158
3579.236, 17.68866
3581.164, 22.97728
3583.093, 19.15650
3585.021, 21.00836
3586.950, 17.09929
3588.878, 9.161065
3590.807, 7.900233
3592.735, 22.12586
3594.664, 27.10971
3596.592, 20.98535
3598.521, 9.236301
3600.449, 16.09654
3602.377, 29.30865
3604.306, 7.998776
3606.234, 17.34313
3608.163, 15.74806
3610.091, 19.67690
3612.020, 20.14979
3613.948, 14.16171
3615.877, 15.30471
3617.805, 17.78086
3619.734, 28.84671
3621.662, 25.22306
3623.591, 14.16672
3625.519, 12.25924
3627.448, 23.96426
3629.376, 11.06125
3631.304, 11.93109
3633.233, 13.90141
3635.161, 15.99729
3637.090, 18.64699
3639.018, 17.77956
3640.947, 10.77190
3642.875, 14.29644
3644.804, 17.79210
3646.732, 17.80750
3648.661, 14.75652
3650.589, 10.32637
3652.518, 7.761422
3654.446, 20.52108
3656.375, 11.05811
3658.303, 12.69659
3660.231, 19.70088
3662.160, 12.73452
3664.088, 18.55857
3666.017, 20.89859
3667.945, 21.45034
3669.874, 11.80934
3671.802, 10.03301
3673.731, 18.70187
3675.659, 11.22390
3677.588, 14.69366
3679.516, 11.27353
3681.445, 19.28456
3683.373, 28.26644
3685.302, 24.05644
3687.230, 7.446611
3689.158, 4.616178
3691.087, 15.22224
3693.015, 21.25232
3694.944, 11.89379
3696.872, 6.779944
3698.801, 11.73580
3700.729, 5.971577
3702.658, 22.68204
3704.586, 11.11784
3706.515, 13.03075
3708.443, 21.91143
3710.372, 19.20587
3712.300, 9.143687
3714.229, 23.95591
3716.157, 20.16511
3718.085, 10.26175
3720.014, 6.422606
3721.942, 11.14772
3723.871, 14.11519
3725.799, 8.402984
3727.728, 14.03394
3729.656, -3.672144
3731.585, 12.92046
3733.513, 19.92446
3735.442, 15.36788
3737.370, 11.17056
3739.299, 7.158710
3741.227, -1.417320
3743.156, 3.840492
3745.084, -5.558965
3747.012, -13.81570
3748.941, -1.751438
3750.869, 15.61692
3752.798, 12.69358
3754.726, 17.70046
3756.655, -3.411547
3758.583, -1.471503
3760.512, 7.673728
3762.440, 11.43033
3764.369, 9.082822
3766.297, 3.454037
3768.226, -2.817407
3770.154, 6.419243
3772.083, 8.521438
3774.011, 10.32550
3775.939, 7.848801
3777.868, 4.980609
3779.796, 10.59921
3781.725, 22.42624
3783.653, 14.95071
3785.582, 3.270404
3787.510, 11.47485
3789.439, 9.343334
3791.367, 3.322299
3793.296, 4.480422
3795.224, 6.501855
3797.153, 15.49537
3799.081, 6.561638
3801.010, 7.090541
3802.938, 16.15380
3804.866, 11.03637
3806.795, 5.419244
3808.723, 11.03335
3810.652, 2.950945
3812.580, 17.72749
3814.509, 10.87688
3816.437, 11.97523
3818.366, 7.490972
3820.294, 3.008712
3822.223, 4.647446
3824.151, 8.903298
3826.080, 11.17341
3828.008, 5.532358
3829.937, 12.37071
3831.865, 9.270064
3833.793, 13.10139
3835.722, 7.051553
3837.650, -3.184523
3839.579, -8.3041817E-02
3841.507, -0.4404587
3843.436, 12.09880
3845.364, 12.68473
3847.293, 7.097386
3849.221, 5.356034
3851.150, -4.776921
3853.078, -6.933510
3855.007, 9.687893
3856.935, 15.12289
3858.864, 10.25316
3860.792, 4.066253
3862.720, 8.407374
3864.649, 15.94926
3866.577, 6.511336
3868.506, 4.6720370E-04
3870.434, 8.107407
3872.363, 12.44957
3874.291, 16.37701
3876.220, 11.71122
3878.148, 8.949009
3880.077, -0.3460269
3882.005, 9.828118
3883.934, 10.58802
3885.862, 3.126446
3887.791, 8.088531
3889.719, 12.69076
3891.647, 7.105086
3893.576, 2.880598
3895.504, 9.318918
3897.433, -3.249600
3899.361, -0.3850804
3901.290, 7.465358
3903.218, 11.19514
3905.147, 12.20511
3907.075, -1.139644
3909.004, -6.728162
3910.932, 1.440826
3912.861, 5.018167
3914.789, -2.176461
3916.718, 2.984411
3918.646, 6.054451
3920.574, -1.424579
3922.503, -2.873440
3924.431, 11.35656
3926.360, 16.60105
3928.288, 1.870383
3930.217, -3.0997209E-02
3932.145, -4.785303
3934.074, -3.909241
3936.002, 6.672148
3937.931, 8.347753
3939.859, 3.883333
3941.788, 6.949841
3943.716, -0.7561728
3945.645, 2.920044
3947.573, 3.959031
3949.501, 15.05524
3951.430, 13.71403
3953.358, 2.052274
3955.287, -4.025639
3957.215, 2.774511
3959.144, 6.863883
3961.072, 9.7397737E-02
3963.001, 7.756151
3964.929, 5.563041
3966.858, 7.959567
3968.786, -15.52338
3970.715, -5.158990
3972.643, 4.791442
3974.572, 10.74426
3976.500, 2.400275
3978.428, -8.665217
3980.357, -1.116480
3982.285, 7.226413
3984.214, -1.927961
3986.142, 2.151125
3988.071, -8.988033
3989.999, -2.182468
3991.928, -9.621275
3993.856, 3.351992
3995.785, 8.785340
3997.713, 5.355822
3999.642, 2.003358
4001.570, -4.518875
4003.499, 3.373429
4005.427, 3.525896
4007.355, 3.150975
4009.284, 15.03652
4011.212, 20.61533
4013.141, 4.968746
4015.069, 6.988981
4016.998, 9.763687
4018.926, 8.324263
4020.855, 6.991242
4022.783, 3.425410
4024.712, 1.167963
4026.640, -1.193941
4028.569, -3.785744
4030.497, 0.1123509
4032.426, 11.23104
4034.354, 12.65048
4036.282, 9.112063
4038.211, 4.215621
4040.139, -2.491735
4042.068, 0.4142946
4043.996, 12.88973
4045.925, 13.73371
4047.853, -0.6175995
4049.782, 3.845739
4051.710, 25.94888
4053.639, 8.8792346E-02
4055.567, 1.274000
4057.496, 11.16937
4059.424, -7.936224
4061.353, -1.453962
4063.281, 3.529336
4065.209, 11.74187
4067.138, 10.12010
4069.066, 2.997094
4070.995, 9.991144
4072.923, 10.63828
4074.852, 10.97739
4076.780, 9.920066
4078.709, 16.41596
4080.637, 4.101379
4082.566, 7.980870
4084.494, 12.36078
4086.423, 13.09719
4088.351, 5.472096
4090.280, -4.733881
4092.208, -2.219067
4094.136, 6.006394
4096.065, 1.016246
4097.993, -7.071297
4099.922, 4.479702
4101.851, 13.85060
4103.779, -11.24716
4105.707, 10.79194
4107.636, 1.993934
4109.564, -3.290825
4111.493, 2.022154
4113.421, 11.50347
4115.350, 11.40850
4117.278, 7.576400
4119.207, 1.258762
4121.135, 1.704183
4123.063, 2.474882
4124.992, 4.9341138E-02
4126.920, 1.124628
4128.849, -2.801423
4130.777, -5.750206
4132.706, 10.77362
4134.634, 6.430944
4136.563, 9.987735
4138.491, -4.872778
4140.420, 11.79180
4142.348, -5.814643
4144.276, -0.4247672
4146.205, -2.553538
4148.134, -0.1700832
4150.062, -6.260087
4151.990, -12.86622
4153.919, -1.651599
4155.848, 4.695107
4157.776, 6.435377
4159.704, -10.22725
4161.633, -3.126297
4163.562, -5.548674
4165.490, -8.361609
4167.418, 2.083914
4169.347, -11.90200
4171.275, -1.666734
4173.204, -1.100078
4175.132, 3.891621
4177.061, -0.6987784
4178.989, -2.329623
4180.917, 5.624800
4182.846, 8.271846
4184.774, 2.578312
4186.703, 7.851371
4188.631, -6.469341
4190.560, 4.927251
4192.488, 7.464458
4194.417, 2.443960
4196.345, 0.3692568
4198.273, -3.320192
4200.202, -1.936139
4202.131, 10.75599
4204.059, 20.67395
4205.987, -7.902166
4207.916, -6.462411
4209.845, -6.381636
4211.773, -4.498855
4213.701, -8.010114
4215.630, 7.333701
4217.559, 3.639108
4219.487, -4.255526
4221.415, -1.431823
4223.344, 12.45340
4225.272, 2.512510
4227.201, -11.72137
4229.129, 0.1107866
4231.058, 8.366074
4232.986, 5.7002358E-02
4234.915, -1.393122
4236.843, 0.8476176
4238.771, -0.9734368
4240.700, 3.013756
4242.628, 2.221278
4244.557, -4.586981
4246.485, -1.1129600E-02
4248.414, -2.255980
4250.342, 8.462797
4252.271, 1.107094
4254.199, 12.04065
4256.128, 2.773546
4258.056, 9.696019
4259.984, 16.11662
4261.913, 0.4544232
4263.842, -4.699746
4265.770, 11.26958
4267.698, 5.913940
4269.627, 16.79802
4271.556, 3.986808
4273.484, 2.199587
4275.412, -8.245691
4277.341, 5.352333
4279.270, -5.548847
4281.198, -11.82492
4283.126, 3.350051
4285.055, 13.15744
4286.983, 1.332808
4288.912, -9.493773
4290.840, 8.385643
4292.769, 8.853765
4294.697, -2.162602
4296.625, 8.022101
4298.554, 10.57418
4300.482, -4.116305
4302.411, -13.21924
4304.339, -3.832575
4306.268, 7.345941
4308.196, 2.355038
4310.125, 5.107189
4312.053, 11.21698
4313.981, 4.540630
4315.910, 8.718990
4317.839, 4.641316
4319.767, 0.1628770
4321.695, -2.433172
4323.624, 8.031147
4325.553, -4.836630
4327.481, 19.72265
4329.409, -2.439951
4331.338, -11.87300
4333.267, -6.237036
4335.195, 0.3613505
4337.123, -3.226429
4339.052, -3.410002
4340.980, 4.756291
4342.909, -13.39402
4344.837, 7.088752
4346.766, -6.938333
4348.694, -1.100128
4350.623, 2.314682
4352.551, 10.08225
4354.479, -0.2354251
4356.408, 9.547516
4358.336, -1.9283680E-03
4360.265, 10.93972
4362.193, -0.3294433
4364.122, 13.45377
4366.050, 19.60736
4367.979, 24.93121
4369.907, 16.33292
4371.836, 13.71714
##END=



