##NAMES=Herbertsmithite
##RRUFFID=R070099
##IDEAL CHEMISTRY=Cu_3_Zn(OH)_6_Cl_2_
##LOCALITY=San Francisco mine, Sierra Gorda, Antofagasta, Chile
##OWNER=RRUFF
##SOURCE=Michael Scott
##DESCRIPTION=Blue-green crystals scattered on matrix, showing a range of habits from hexagonal plates to pseudo-octahedra
##STATUS=The identification of this mineral has been confirmed by single-crystal X-ray diffraction
##URL=https://www.rruff.net/odr/rruff_sample/R070099
##DIFFRACTION SAMPLE DESCRIPTION=Single crystal, powder profile is calculated
##CELL PARAMETERS=a: 6.839 b: 6.839 c: 14.079 alpha: 90 beta: 90 gamma: 120 volume: 570.3 crystal system: hexagonal
##FILETYPE=Raman RAW
##RAMAN WAVELENGTH=532

126.7922, 2933.138
128.7207, 3131.775
130.6491, 3332.647
132.5776, 3535.009
134.5061, 3742.069
136.4345, 3933.521
138.3630, 4089.874
140.2915, 4223.706
142.2199, 4380.950
144.1484, 4585.090
146.0769, 4791.220
148.0053, 4984.676
149.9338, 5175.840
151.8623, 5322.033
153.7907, 5412.802
155.7192, 5451.324
157.6477, 5471.331
159.5761, 5467.472
161.5046, 5447.637
163.4331, 5418.829
165.3615, 5368.882
167.2900, 5323.855
169.2185, 5294.305
171.1469, 5275.491
173.0754, 5247.388
175.0039, 5195.947
176.9323, 5142.104
178.8608, 5097.228
180.7893, 5062.277
182.7177, 5033.021
184.6462, 5009.094
186.5747, 4990.388
188.5031, 4980.419
190.4316, 4987.429
192.3601, 4996.758
194.2885, 4999.568
196.2170, 4997.513
198.1455, 4987.906
200.0739, 4961.089
202.0024, 4917.349
203.9309, 4897.735
205.8593, 4928.862
207.7878, 4965.865
209.7163, 4974.586
211.6447, 4940.192
213.5732, 4906.959
215.5017, 4882.947
217.4301, 4870.799
219.3586, 4869.429
221.2871, 4894.050
223.2155, 4914.966
225.1440, 4915.691
227.0725, 4878.351
229.0009, 4841.634
230.9294, 4808.652
232.8579, 4777.544
234.7863, 4743.555
236.7148, 4705.046
238.6433, 4664.774
240.5717, 4626.426
242.5002, 4601.647
244.4287, 4553.280
246.3571, 4453.354
248.2856, 4322.067
250.2141, 4213.847
252.1425, 4151.324
254.0710, 4096.320
255.9995, 4031.999
257.9279, 3956.998
259.8564, 3885.852
261.7849, 3823.674
263.7133, 3768.439
265.6418, 3714.263
267.5703, 3652.704
269.4987, 3598.078
271.4272, 3559.529
273.3557, 3537.534
275.2841, 3516.539
277.2126, 3495.084
279.1411, 3472.403
281.0695, 3444.237
282.9980, 3404.764
284.9265, 3366.481
286.8549, 3336.895
288.7834, 3316.806
290.7119, 3309.567
292.6404, 3318.167
294.5688, 3329.956
296.4973, 3334.929
298.4258, 3332.627
300.3542, 3328.299
302.2827, 3322.887
304.2112, 3317.122
306.1396, 3319.751
308.0681, 3330.368
309.9966, 3349.968
311.9250, 3375.444
313.8535, 3404.634
315.7820, 3440.852
317.7104, 3487.323
319.6389, 3542.136
321.5674, 3598.314
323.4958, 3645.039
325.4243, 3710.641
327.3528, 3805.385
329.2812, 3939.091
331.2097, 4086.066
333.1381, 4231.902
335.0666, 4390.931
336.9951, 4577.628
338.9235, 4798.700
340.8520, 5041.615
342.7805, 5292.169
344.7089, 5550.151
346.6374, 5852.090
348.5659, 6228.379
350.4943, 6632.527
352.4228, 7033.763
354.3513, 7420.333
356.2797, 7816.112
358.2082, 8263.484
360.1367, 8729.675
362.0651, 9129.982
363.9936, 9457.128
365.9221, 9692.018
367.8505, 9832.197
369.7790, 9853.845
371.7075, 9786.396
373.6359, 9603.101
375.5644, 9328.960
377.4929, 9002.764
379.4213, 8643.233
381.3498, 8235.884
383.2783, 7792.713
385.2067, 7341.688
387.1352, 6936.280
389.0637, 6563.598
390.9921, 6252.421
392.9206, 6011.761
394.8491, 5836.352
396.7775, 5703.108
398.7060, 5612.079
400.6345, 5543.237
402.5629, 5479.396
404.4914, 5407.997
406.4199, 5315.855
408.3483, 5196.960
410.2768, 5053.173
412.2053, 4901.601
414.1337, 4740.275
416.0622, 4573.079
417.9907, 4398.874
419.9191, 4228.118
421.8476, 4065.600
423.7761, 3915.485
425.7045, 3775.846
427.6330, 3642.287
429.5615, 3504.734
431.4899, 3381.913
433.4184, 3279.926
435.3469, 3195.198
437.2753, 3126.587
439.2038, 3083.652
441.1323, 3052.000
443.0607, 3024.181
444.9892, 2992.580
446.9177, 2976.183
448.8461, 2985.552
450.7746, 3013.111
452.7031, 3049.170
454.6315, 3089.647
456.5600, 3141.938
458.4885, 3205.467
460.4169, 3282.002
462.3454, 3375.021
464.2739, 3491.852
466.2023, 3623.180
468.1308, 3761.688
470.0593, 3905.441
471.9877, 4075.234
473.9162, 4274.699
475.8447, 4490.967
477.7731, 4713.921
479.7016, 4951.398
481.6301, 5199.438
483.5585, 5449.277
485.4870, 5700.845
487.4155, 5971.075
489.3439, 6275.434
491.2724, 6587.846
493.2009, 6908.950
495.1293, 7228.794
497.0578, 7518.792
498.9863, 7805.015
500.9147, 8050.296
502.8432, 8235.175
504.7717, 8341.864
506.7001, 8367.460
508.6286, 8305.252
510.5571, 8153.978
512.4855, 7907.806
514.4140, 7531.306
516.3425, 7129.391
518.2709, 6699.095
520.1994, 6266.617
522.1279, 5836.246
524.0563, 5408.250
525.9848, 5000.539
527.9133, 4606.032
529.8417, 4222.159
531.7702, 3895.546
533.6987, 3639.826
535.6271, 3421.533
537.5556, 3222.300
539.4841, 3039.658
541.4125, 2880.923
543.3410, 2750.607
545.2695, 2636.385
547.1979, 2532.814
549.1264, 2443.082
551.0549, 2366.125
552.9833, 2306.294
554.9118, 2254.969
556.8403, 2209.534
558.7687, 2173.059
560.6972, 2140.177
562.6257, 2108.102
564.5541, 2078.819
566.4826, 2056.617
568.4111, 2045.290
570.3395, 2035.876
572.2680, 2024.345
574.1965, 2012.913
576.1249, 2003.335
578.0534, 1996.218
579.9819, 1989.636
581.9103, 1983.522
583.8388, 1977.600
585.7673, 1972.814
587.6957, 1969.447
589.6242, 1967.452
591.5527, 1966.037
593.4811, 1964.813
595.4096, 1965.427
597.3381, 1972.771
599.2665, 1981.251
601.1950, 1981.058
603.1235, 1965.547
605.0519, 1949.265
606.9804, 1935.757
608.9089, 1925.353
610.8373, 1917.044
612.7658, 1911.824
614.6943, 1907.602
616.6227, 1904.377
618.5512, 1902.342
620.4797, 1897.183
622.4081, 1883.556
624.3366, 1870.465
626.2651, 1865.472
628.1935, 1870.513
630.1220, 1871.069
632.0505, 1858.790
633.9789, 1844.908
635.9074, 1839.849
637.8359, 1848.208
639.7643, 1857.002
641.6928, 1863.952
643.6213, 1871.468
645.5497, 1880.373
647.4782, 1887.660
649.4067, 1902.247
651.3351, 1929.467
653.2636, 1965.959
655.1921, 2004.308
657.1205, 2039.788
659.0490, 2081.583
660.9775, 2132.673
662.9059, 2196.316
664.8344, 2266.567
666.7629, 2341.906
668.6913, 2424.663
670.6198, 2515.955
672.5483, 2615.997
674.4767, 2723.183
676.4052, 2831.483
678.3337, 2950.223
680.2621, 3089.871
682.1906, 3252.369
684.1191, 3418.415
686.0475, 3592.912
687.9760, 3760.539
689.9045, 3915.103
691.8329, 4055.306
693.7614, 4179.491
695.6899, 4290.052
697.6183, 4386.024
699.5468, 4461.773
701.4753, 4523.192
703.4037, 4556.602
705.3322, 4558.229
707.2607, 4528.786
709.1891, 4463.834
711.1176, 4350.021
713.0461, 4217.643
714.9745, 4071.705
716.9030, 3916.522
718.8315, 3749.858
720.7599, 3564.131
722.6884, 3376.338
724.6169, 3188.968
726.5453, 3009.314
728.4738, 2854.262
730.4023, 2729.289
732.3307, 2619.183
734.2592, 2523.424
736.1877, 2440.826
738.1161, 2357.919
740.0446, 2269.779
741.9731, 2191.739
743.9016, 2128.793
745.8300, 2079.976
747.7585, 2035.611
749.6870, 1992.651
751.6154, 1953.508
753.5439, 1920.996
755.4724, 1892.721
757.4008, 1870.565
759.3293, 1861.052
761.2578, 1847.009
763.1862, 1818.814
765.1147, 1787.541
767.0432, 1764.455
768.9716, 1747.940
770.9001, 1729.917
772.8286, 1718.893
774.7570, 1715.764
776.6855, 1716.080
778.6140, 1719.633
780.5424, 1725.819
782.4709, 1732.285
784.3994, 1731.067
786.3278, 1723.194
788.2563, 1712.046
790.1848, 1712.124
792.1132, 1714.264
794.0417, 1711.543
795.9702, 1709.889
797.8986, 1717.480
799.8271, 1728.546
801.7556, 1738.206
803.6840, 1749.396
805.6125, 1759.609
807.5410, 1765.842
809.4694, 1770.028
811.3979, 1775.255
813.3264, 1775.230
815.2548, 1774.696
817.1833, 1781.057
819.1118, 1803.665
821.0402, 1822.861
822.9687, 1828.065
824.8972, 1826.442
826.8256, 1828.417
828.7541, 1839.183
830.6826, 1849.284
832.6110, 1857.243
834.5395, 1867.082
836.4680, 1883.809
838.3964, 1899.108
840.3249, 1905.521
842.2534, 1910.532
844.1818, 1919.758
846.1103, 1932.222
848.0388, 1940.835
849.9672, 1946.640
851.8957, 1955.034
853.8242, 1968.434
855.7526, 1987.208
857.6811, 2007.155
859.6096, 2028.993
861.5380, 2059.020
863.4665, 2092.317
865.3950, 2117.461
867.3234, 2126.705
869.2519, 2140.300
871.1804, 2175.024
873.1088, 2221.648
875.0373, 2265.753
876.9658, 2298.495
878.8942, 2338.547
880.8227, 2389.427
882.7512, 2443.340
884.6796, 2490.262
886.6081, 2524.953
888.5366, 2562.184
890.4650, 2627.380
892.3935, 2718.295
894.3220, 2814.718
896.2504, 2900.451
898.1789, 2983.911
900.1074, 3080.961
902.0358, 3181.880
903.9643, 3296.036
905.8928, 3439.068
907.8212, 3636.319
909.7497, 3861.670
911.6782, 4087.935
913.6066, 4323.132
915.5351, 4580.887
917.4636, 4870.965
919.3920, 5185.866
921.3205, 5532.515
923.2490, 5911.827
925.1774, 6330.673
927.1059, 6762.722
929.0344, 7186.504
930.9628, 7609.833
932.8913, 8023.665
934.8198, 8425.611
936.7482, 8821.703
938.6767, 9214.331
940.6052, 9603.650
942.5336, 9933.295
944.4621, 10191.45
946.3906, 10316.31
948.3190, 10308.22
950.2475, 10159.94
952.1760, 9889.800
954.1044, 9481.903
956.0329, 8982.053
957.9614, 8388.637
959.8898, 7763.153
961.8183, 7110.733
963.7468, 6450.561
965.6752, 5835.524
967.6037, 5265.400
969.5322, 4755.186
971.4606, 4321.375
973.3891, 3952.317
975.3176, 3631.299
977.2460, 3379.810
979.1745, 3168.493
981.1030, 2981.966
983.0314, 2811.037
984.9599, 2655.923
986.8884, 2521.393
988.8168, 2405.923
990.7453, 2298.060
992.6738, 2194.811
994.6022, 2102.885
996.5307, 2024.410
998.4592, 1954.956
1000.388, 1894.546
1002.316, 1844.059
1004.245, 1795.565
1006.173, 1744.908
1008.102, 1697.723
1010.030, 1660.201
1011.958, 1628.360
1013.887, 1592.631
1015.815, 1556.438
1017.744, 1526.667
1019.672, 1505.950
1021.601, 1484.284
1023.529, 1461.727
1025.458, 1439.758
1027.386, 1423.551
1029.315, 1419.386
1031.243, 1414.022
1033.172, 1400.218
1035.100, 1379.842
1037.028, 1359.044
1038.957, 1332.952
1040.885, 1311.828
1042.814, 1306.370
1044.742, 1311.292
1046.671, 1310.916
1048.599, 1305.021
1050.528, 1294.088
1052.456, 1271.038
1054.385, 1246.977
1056.313, 1234.325
1058.242, 1237.125
1060.170, 1236.625
1062.099, 1231.493
1064.027, 1224.659
1065.955, 1213.603
1067.884, 1199.401
1069.812, 1192.970
1071.741, 1199.596
1073.669, 1205.261
1075.598, 1204.550
1077.526, 1199.186
1079.455, 1191.091
1081.383, 1178.269
1083.312, 1167.015
1085.240, 1157.020
1087.169, 1149.691
1089.097, 1148.016
1091.026, 1157.585
1092.954, 1157.686
1094.882, 1141.006
1096.811, 1120.787
1098.739, 1103.215
1100.668, 1088.553
1102.596, 1081.311
1104.525, 1086.840
1106.453, 1091.999
1108.382, 1091.727
1110.310, 1086.978
1112.239, 1079.874
1114.167, 1068.721
1116.096, 1058.325
1118.024, 1048.213
1119.953, 1039.560
1121.881, 1034.515
1123.809, 1034.141
1125.738, 1032.203
1127.666, 1028.480
1129.595, 1023.441
1131.523, 1016.748
1133.452, 1008.596
1135.380, 999.5305
1137.309, 986.8605
1139.237, 978.3607
1141.166, 980.7307
1143.094, 988.8500
1145.023, 989.4503
1146.951, 975.2648
1148.880, 967.3436
1150.808, 974.4913
1152.736, 984.1584
1154.665, 984.7164
1156.593, 977.5234
1158.522, 974.2626
1160.450, 975.7526
1162.379, 977.4093
1164.307, 977.1967
1166.236, 976.4681
1168.164, 979.0424
1170.093, 988.1655
1172.021, 995.9181
1173.950, 998.2370
1175.878, 995.0442
1177.807, 991.8995
1179.735, 993.5598
1181.663, 995.1866
1183.592, 993.9957
1185.520, 990.3317
1187.449, 984.3202
1189.377, 983.7598
1191.306, 987.3212
1193.234, 986.8269
1195.163, 986.3225
1197.091, 990.1988
1199.020, 998.6615
1200.948, 1004.667
1202.877, 1004.489
1204.805, 1002.282
1206.734, 998.1630
1208.662, 996.5301
1210.590, 998.5076
1212.519, 1004.756
1214.447, 1009.462
1216.376, 1010.076
1218.304, 1007.860
1220.233, 1000.488
1222.161, 990.7201
1224.090, 984.6365
1226.018, 993.3138
1227.947, 996.6434
1229.875, 989.2530
1231.804, 980.8385
1233.732, 978.7110
1235.661, 976.4875
1237.589, 972.8342
1239.517, 976.4886
1241.446, 979.5054
1243.374, 974.8390
1245.303, 967.9847
1247.231, 969.7118
1249.160, 974.0851
1251.088, 971.7076
1253.017, 965.3283
1254.945, 963.1639
1256.874, 966.5932
1258.802, 969.3350
1260.731, 967.2832
1262.659, 961.4794
1264.588, 962.0200
1266.516, 972.7045
1268.444, 982.3785
1270.373, 981.0547
1272.301, 969.3911
1274.230, 961.9335
1276.158, 962.1833
1278.087, 964.7107
1280.015, 968.0267
1281.944, 970.7653
1283.872, 971.1752
1285.801, 966.8010
1287.729, 965.8059
1289.658, 977.9909
1291.586, 991.5705
1293.515, 995.7957
1295.443, 989.4193
1297.371, 984.1570
1299.300, 980.4530
1301.228, 975.9887
1303.157, 971.2913
1305.085, 971.3246
1307.014, 980.8066
1308.942, 1002.310
1310.871, 1015.059
1312.799, 1011.768
1314.728, 1004.993
1316.656, 1000.994
1318.585, 1000.726
1320.513, 1002.227
1322.442, 1005.070
1324.370, 1008.930
1326.298, 1013.193
1328.227, 1014.284
1330.155, 1011.924
1332.084, 1008.553
1334.012, 1004.208
1335.941, 995.3645
1337.869, 990.4429
1339.798, 992.0264
1341.726, 993.7173
1343.655, 993.8457
1345.583, 997.5972
1347.512, 1007.909
1349.440, 1018.138
1351.369, 1018.371
1353.297, 1010.428
1355.225, 1001.632
1357.154, 998.5186
1359.082, 998.4435
1361.011, 1003.595
1362.939, 1020.789
1364.868, 1033.087
1366.796, 1033.310
1368.725, 1027.475
1370.653, 1027.779
1372.582, 1032.753
1374.510, 1037.818
1376.439, 1044.428
1378.367, 1050.030
1380.296, 1055.593
1382.224, 1061.282
1384.152, 1062.779
1386.081, 1055.671
1388.009, 1054.018
1389.938, 1068.682
1391.866, 1081.830
1393.795, 1078.943
1395.723, 1063.986
1397.652, 1060.801
1399.580, 1076.188
1401.509, 1092.691
1403.437, 1102.351
1405.366, 1107.182
1407.294, 1112.208
1409.223, 1119.093
1411.151, 1123.643
1413.079, 1117.341
1415.008, 1114.158
1416.936, 1126.160
1418.865, 1146.278
1420.793, 1160.663
1422.722, 1167.574
1424.650, 1168.713
1426.579, 1164.529
1428.507, 1155.867
1430.436, 1134.959
1432.364, 1111.911
1434.293, 1109.629
1436.221, 1136.307
1438.150, 1156.785
1440.078, 1162.249
1442.006, 1159.244
1443.935, 1155.178
1445.863, 1150.658
1447.792, 1141.482
1449.720, 1126.596
1451.649, 1112.865
1453.577, 1099.010
1455.506, 1092.428
1457.434, 1102.687
1459.363, 1117.697
1461.291, 1119.548
1463.220, 1107.684
1465.148, 1098.933
1467.077, 1096.803
1469.005, 1097.003
1470.933, 1096.546
1472.862, 1096.116
1474.790, 1100.460
1476.719, 1110.489
1478.647, 1113.757
1480.576, 1103.708
1482.504, 1094.939
1484.433, 1091.191
1486.361, 1091.948
1488.290, 1096.260
1490.218, 1104.940
1492.147, 1107.687
1494.075, 1099.143
1496.004, 1092.917
1497.932, 1093.457
1499.860, 1095.777
1501.789, 1094.230
1503.717, 1088.676
1505.646, 1083.520
1507.574, 1079.056
1509.503, 1074.136
1511.431, 1069.077
1513.360, 1064.241
1515.288, 1059.302
1517.217, 1053.786
1519.145, 1049.017
1521.074, 1045.875
1523.002, 1042.452
1524.931, 1037.337
1526.859, 1031.846
1528.787, 1028.221
1530.716, 1025.479
1532.644, 1020.740
1534.573, 1013.451
1536.501, 1007.084
1538.430, 999.7574
1540.358, 996.0035
1542.287, 1001.766
1544.215, 1012.272
1546.144, 1016.164
1548.072, 1012.291
1550.001, 1011.015
1551.929, 1018.722
1553.858, 1022.249
1555.786, 1009.831
1557.714, 992.6294
1559.643, 986.4794
1561.571, 991.1104
1563.500, 992.9175
1565.428, 987.8976
1567.357, 985.3464
1569.285, 994.2405
1571.214, 1002.618
1573.142, 997.3984
1575.071, 981.8373
1576.999, 973.2134
1578.928, 973.7327
1580.856, 977.2040
1582.785, 986.9971
1584.713, 993.5046
1586.641, 986.7368
1588.570, 973.7162
1590.498, 974.0111
1592.427, 991.1514
1594.355, 1000.729
1596.284, 994.1003
1598.212, 986.2668
1600.141, 982.3531
1602.069, 981.5610
1603.998, 984.2451
1605.926, 990.6447
1607.855, 992.0681
1609.783, 983.6946
1611.712, 978.4841
1613.640, 983.8111
1615.568, 990.5315
1617.497, 993.2774
1619.425, 991.6797
1621.354, 982.3278
1623.282, 959.0884
1625.211, 947.4587
1627.139, 964.1464
1629.068, 978.0768
1630.996, 973.9540
1632.925, 960.8739
1634.853, 953.2949
1636.782, 952.0032
1638.710, 948.1957
1640.639, 937.1317
1642.567, 931.5740
1644.495, 937.2338
1646.424, 946.1715
1648.352, 954.4918
1650.281, 961.5421
1652.209, 963.9651
1654.138, 960.0904
1656.066, 956.2621
1657.995, 952.2714
1659.923, 949.4045
1661.852, 948.8722
1663.780, 949.2100
1665.709, 947.9001
1667.637, 944.6258
1669.566, 945.4639
1671.494, 954.3198
1673.422, 959.6993
1675.351, 956.8651
1677.279, 953.4048
1679.208, 952.8333
1681.136, 954.8888
1683.065, 960.0672
1684.993, 970.2474
1686.922, 974.4429
1688.850, 966.3591
1690.779, 961.1627
1692.707, 965.1728
1694.636, 970.7520
1696.564, 971.5598
1698.493, 968.6066
1700.421, 966.3477
1702.349, 963.7484
1704.278, 965.3854
1706.206, 979.6932
1708.135, 987.6785
1710.063, 978.0540
1711.992, 963.3848
1713.920, 956.4143
1715.849, 956.7897
1717.777, 958.3860
1719.706, 962.6271
1721.634, 964.0183
1723.563, 961.1954
1725.491, 955.9568
1727.420, 941.3258
1729.348, 929.5132
1731.276, 942.6240
1733.205, 979.3516
1735.133, 994.3651
1737.062, 978.1536
1738.990, 963.6294
1740.919, 956.1620
1742.847, 953.3857
1744.776, 955.1426
1746.704, 960.2917
1748.633, 968.8751
1750.561, 980.5114
1752.490, 986.6533
1754.418, 984.7638
1756.347, 983.8156
1758.275, 985.4120
1760.203, 989.1390
1762.132, 995.9467
1764.060, 1004.028
1765.989, 1011.784
1767.917, 1018.912
1769.846, 1020.571
1771.774, 1013.238
1773.703, 1012.221
1775.631, 1025.136
1777.560, 1040.072
1779.488, 1052.647
1781.417, 1062.124
1783.345, 1065.252
1785.274, 1063.551
1787.202, 1068.802
1789.130, 1084.032
1791.059, 1096.481
1792.987, 1100.744
1794.916, 1105.208
1796.844, 1117.341
1798.773, 1129.729
1800.701, 1128.202
1802.630, 1117.816
1804.558, 1127.074
1806.487, 1163.233
1808.415, 1190.172
1810.344, 1198.667
1812.272, 1201.464
1814.201, 1196.982
1816.129, 1194.133
1818.057, 1206.862
1819.986, 1229.172
1821.914, 1234.887
1823.843, 1219.619
1825.771, 1206.733
1827.700, 1195.419
1829.628, 1189.222
1831.557, 1198.813
1833.485, 1203.967
1835.414, 1182.584
1837.342, 1148.020
1839.271, 1132.952
1841.199, 1142.335
1843.128, 1139.464
1845.056, 1112.825
1846.984, 1091.279
1848.913, 1078.507
1850.841, 1069.662
1852.770, 1062.914
1854.698, 1058.424
1856.627, 1058.411
1858.555, 1062.172
1860.484, 1057.633
1862.412, 1041.445
1864.341, 1029.224
1866.269, 1025.957
1868.198, 1021.601
1870.126, 1012.837
1872.055, 1001.765
1873.983, 986.3566
1875.911, 970.7494
1877.840, 966.8619
1879.768, 974.4460
1881.697, 976.8081
1883.625, 970.8163
1885.554, 965.4345
1887.482, 964.9388
1889.411, 962.7275
1891.339, 951.0095
1893.268, 938.9415
1895.196, 940.2335
1897.125, 949.9778
1899.053, 948.2293
1900.982, 932.3083
1902.910, 923.4233
1904.839, 930.0073
1906.767, 932.8463
1908.695, 921.8617
1910.624, 911.5352
1912.552, 915.2867
1914.481, 922.6680
1916.409, 914.1024
1918.338, 891.0798
1920.266, 881.7701
1922.195, 897.0793
1924.123, 904.1893
1926.052, 896.3607
1927.980, 890.0328
1929.909, 891.9066
1931.837, 893.4822
1933.766, 888.1884
1935.694, 879.1562
1937.622, 870.8655
1939.551, 863.4803
1941.479, 861.2223
1943.408, 865.6884
1945.336, 868.2585
1947.265, 868.6700
1949.193, 864.6863
1951.122, 848.5757
1953.050, 835.3781
1954.979, 840.3439
1956.907, 852.7936
1958.836, 855.5309
1960.764, 850.0417
1962.693, 847.4639
1964.621, 849.0869
1966.549, 849.6201
1968.478, 849.9616
1970.406, 846.5851
1972.335, 831.4429
1974.263, 820.0758
1976.192, 828.9597
1978.120, 844.1157
1980.049, 842.1153
1981.977, 825.1476
1983.906, 816.3988
1985.834, 819.7004
1987.763, 819.4518
1989.691, 809.8947
1991.620, 806.2477
1993.548, 818.1230
1995.476, 828.7322
1997.405, 829.0500
1999.333, 825.0903
2001.262, 823.3112
2003.190, 822.5350
2005.119, 817.3284
2007.047, 807.8141
2008.976, 808.5441
2010.904, 826.1935
2012.833, 833.5145
2014.761, 814.7402
2016.690, 799.1952
2018.618, 803.8560
2020.547, 811.1647
2022.475, 803.2076
2024.403, 790.0818
2026.332, 792.4034
2028.260, 809.0534
2030.189, 819.6236
2032.117, 824.0938
2034.046, 822.2075
2035.974, 804.9008
2037.903, 796.1054
2039.831, 808.3613
2041.760, 819.2835
2043.688, 816.3516
2045.617, 809.6520
2047.545, 810.1816
2049.473, 814.0083
2051.402, 811.3712
2053.330, 802.7942
2055.259, 794.4211
2057.187, 786.0567
2059.116, 781.4503
2061.044, 782.8250
2062.973, 785.0055
2064.901, 787.5142
2066.830, 789.1032
2068.758, 787.4881
2070.687, 785.9036
2072.615, 789.4633
2074.543, 795.7712
2076.472, 797.1513
2078.400, 793.0402
2080.329, 790.9477
2082.257, 791.9833
2084.186, 791.0460
2086.114, 786.3765
2088.043, 782.1993
2089.971, 777.4878
2091.900, 776.7510
2093.828, 787.1892
2095.757, 798.6152
2097.685, 800.4691
2099.614, 796.2910
2101.542, 793.7437
2103.470, 792.6136
2105.399, 788.9620
2107.327, 781.3770
2109.256, 775.8309
2111.184, 772.0559
2113.113, 771.0925
2115.041, 776.2381
2116.970, 780.0167
2118.898, 777.3983
2120.827, 774.4978
2122.755, 778.6114
2124.684, 783.8954
2126.612, 778.1385
2128.541, 765.6561
2130.469, 764.7446
2132.397, 775.6165
2134.326, 780.1960
2136.254, 775.6906
2138.183, 769.9297
2140.111, 760.6226
2142.040, 756.1813
2143.968, 764.1228
2145.897, 770.9095
2147.825, 766.7585
2149.754, 760.4803
2151.682, 762.3857
2153.611, 767.7097
2155.539, 765.5239
2157.468, 757.0912
2159.396, 753.7994
2161.324, 756.0457
2163.253, 755.9003
2165.181, 751.3669
2167.110, 750.4259
2169.038, 756.7916
2170.967, 762.7395
2172.895, 765.4177
2174.824, 767.1837
2176.752, 772.0723
2178.681, 773.9817
2180.609, 761.6572
2182.538, 745.0641
2184.466, 745.0269
2186.395, 758.6124
2188.323, 765.0799
2190.251, 764.0413
2192.180, 765.1600
2194.108, 770.8300
2196.037, 766.8896
2197.965, 744.7957
2199.894, 729.5335
2201.822, 730.3875
2203.751, 737.5349
2205.679, 754.5479
2207.608, 767.5258
2209.536, 760.2350
2211.465, 747.2333
2213.393, 751.9783
2215.322, 765.5120
2217.250, 758.7789
2219.178, 733.1603
2221.107, 721.2116
2223.035, 724.0858
2224.964, 727.5281
2226.892, 729.5216
2228.821, 735.9725
2230.749, 753.5002
2232.678, 764.0133
2234.606, 754.5153
2236.535, 746.3506
2238.463, 750.9836
2240.392, 759.1563
2242.320, 768.8089
2244.249, 773.7121
2246.177, 761.3977
2248.105, 739.0132
2250.034, 724.6429
2251.962, 718.0136
2253.891, 719.0416
2255.819, 727.7559
2257.748, 732.8533
2259.676, 732.7869
2261.605, 731.5355
2263.533, 729.5149
2265.462, 726.7226
2267.390, 721.1264
2269.319, 717.6715
2271.247, 721.3344
2273.176, 723.7271
2275.104, 716.2424
2277.032, 708.7309
2278.961, 712.1498
2280.889, 720.3232
2282.818, 724.9443
2284.746, 726.2668
2286.675, 724.2105
2288.603, 719.0524
2290.532, 714.8081
2292.460, 710.6031
2294.389, 711.5123
2296.317, 720.4472
2298.246, 728.2460
2300.174, 736.1228
2302.103, 739.1701
2304.031, 733.4303
2305.959, 728.3307
2307.888, 726.4550
2309.816, 727.5479
2311.745, 735.8246
2313.673, 742.3597
2315.602, 735.9146
2317.530, 726.2000
2319.459, 726.8958
2321.387, 734.0226
2323.316, 737.0362
2325.244, 737.4669
2327.173, 747.9376
2329.101, 767.6099
2331.030, 778.9579
2332.958, 780.9551
2334.886, 776.4417
2336.815, 763.7911
2338.743, 752.1887
2340.672, 740.7899
2342.600, 734.6287
2344.529, 740.4775
2346.457, 742.9337
2348.386, 738.0327
2350.314, 727.5129
2352.243, 706.6334
2354.171, 686.7574
2356.100, 673.2263
2358.028, 667.0513
2359.957, 673.4313
2361.885, 685.2514
2363.813, 692.5148
2365.742, 694.9571
2367.670, 688.4078
2369.599, 674.5091
2371.527, 675.9784
2373.456, 693.7753
2375.384, 698.3779
2377.313, 687.5563
2379.241, 678.7351
2381.170, 672.1816
2383.098, 676.3968
2385.027, 705.1229
2386.955, 718.6934
2388.884, 698.0823
2390.812, 678.4222
2392.740, 665.2246
2394.669, 660.3512
2396.597, 669.8858
2398.526, 681.4418
2400.454, 691.2798
2402.383, 696.8106
2404.311, 691.7369
2406.240, 684.8915
2408.168, 689.1807
2410.097, 697.4863
2412.025, 696.9029
2413.954, 689.7637
2415.882, 681.5226
2417.811, 672.9810
2419.739, 670.3798
2421.667, 673.3285
2423.596, 678.7859
2425.524, 686.8378
2427.453, 688.0863
2429.381, 679.2210
2431.310, 673.1608
2433.238, 675.3489
2435.167, 670.9047
2437.095, 651.6176
2439.024, 643.6137
2440.952, 658.0096
2442.881, 668.6479
2444.809, 664.6168
2446.738, 659.9192
2448.666, 661.4781
2450.594, 662.9427
2452.523, 660.8885
2454.451, 657.6430
2456.380, 652.9452
2458.308, 649.7815
2460.237, 652.8219
2462.165, 657.0880
2464.094, 658.3862
2466.022, 656.0981
2467.951, 646.5553
2469.879, 633.9348
2471.808, 625.8029
2473.736, 623.0033
2475.665, 631.4993
2477.593, 649.5467
2479.521, 659.8427
2481.450, 662.7643
2483.378, 662.5690
2485.307, 659.4581
2487.235, 656.1842
2489.164, 652.9052
2491.092, 649.5462
2493.021, 644.3295
2494.949, 643.3830
2496.878, 648.8998
2498.806, 652.4352
2500.735, 653.2817
2502.663, 650.7728
2504.592, 642.3469
2506.520, 636.4023
2508.448, 634.6495
2510.377, 637.0977
2512.305, 649.7751
2514.234, 657.8688
2516.162, 652.5940
2518.091, 645.5876
2520.019, 639.0106
2521.948, 636.4556
2523.876, 644.5955
2525.805, 652.2776
2527.733, 648.9473
2529.662, 643.4539
2531.590, 645.2137
2533.519, 648.3258
2535.447, 643.2536
2537.375, 637.6921
2539.304, 646.2518
2541.232, 658.3444
2543.161, 655.6279
2545.089, 645.1812
2547.018, 643.0735
2548.946, 645.4788
2550.875, 638.9656
2552.803, 626.5240
2554.732, 622.1063
2556.660, 624.5638
2558.589, 629.4641
2560.517, 636.3214
2562.446, 643.0093
2564.374, 649.6161
2566.302, 647.6208
2568.231, 635.0343
2570.159, 629.8766
2572.088, 632.7383
2574.016, 631.5688
2575.945, 625.2540
2577.873, 619.2491
2579.802, 613.0239
2581.730, 611.8699
2583.659, 618.2221
2585.587, 625.5695
2587.516, 636.2289
2589.444, 638.4968
2591.373, 628.3832
2593.301, 620.5997
2595.229, 618.7053
2597.158, 617.7897
2599.086, 614.9924
2601.015, 616.4202
2602.943, 629.1597
2604.872, 634.1853
2606.800, 624.1522
2608.729, 615.2330
2610.657, 611.9076
2612.586, 611.5447
2614.514, 619.3306
2616.443, 620.3876
2618.371, 599.4399
2620.300, 586.3277
2622.228, 596.5212
2624.156, 607.7634
2626.085, 611.2882
2628.013, 612.5596
2629.942, 614.1735
2631.870, 614.6068
2633.799, 613.1550
2635.727, 610.1183
2637.656, 601.2078
2639.584, 596.7445
2641.513, 606.6731
2643.441, 617.3739
2645.370, 619.9284
2647.298, 619.4501
2649.227, 621.0577
2651.155, 619.4947
2653.083, 605.5940
2655.012, 592.7368
2656.940, 591.8746
2658.869, 595.5967
2660.797, 601.9047
2662.726, 605.2805
2664.654, 592.5880
2666.583, 583.1645
2668.511, 605.4305
2670.440, 630.8779
2672.368, 630.0350
2674.297, 619.4651
2676.225, 612.0051
2678.154, 606.7750
2680.082, 603.0278
2682.010, 600.7696
2683.939, 600.0011
2685.867, 600.7258
2687.796, 604.3955
2689.724, 608.1444
2691.653, 610.1272
2693.581, 609.1148
2695.510, 600.8057
2697.438, 591.2029
2699.367, 587.5789
2701.295, 587.6780
2703.224, 589.1058
2705.152, 592.2454
2707.081, 600.6647
2709.009, 608.1957
2710.938, 604.1790
2712.866, 596.9275
2714.794, 598.6665
2716.723, 602.5337
2718.651, 599.9970
2720.580, 594.6761
2722.508, 588.9285
2724.437, 584.7748
2726.365, 587.3171
2728.294, 590.5801
2730.222, 585.9848
2732.151, 578.8379
2734.079, 573.0743
2736.008, 570.2095
2737.936, 573.0982
2739.865, 578.7200
2741.793, 585.3453
2743.721, 590.9493
2745.650, 594.6816
2747.578, 594.6196
2749.507, 585.4647
2751.435, 575.4412
2753.364, 571.8296
2755.292, 572.7136
2757.221, 582.4551
2759.149, 588.5699
2761.078, 572.9341
2763.006, 557.6807
2764.935, 565.2811
2766.863, 576.3174
2768.792, 575.1807
2770.720, 569.8210
2772.648, 562.3584
2774.577, 558.3956
2776.505, 567.6760
2778.434, 573.5932
2780.362, 557.6826
2782.291, 544.4698
2784.219, 552.9361
2786.148, 564.7406
2788.076, 574.0563
2790.005, 577.7621
2791.933, 568.9659
2793.862, 561.8382
2795.790, 566.9352
2797.719, 569.7897
2799.647, 559.7935
2801.575, 554.6794
2803.504, 564.4811
2805.432, 572.8374
2807.361, 575.7101
2809.289, 571.9382
2811.218, 551.3918
2813.146, 542.1747
2815.075, 556.8069
2817.003, 563.9438
2818.932, 549.7610
2820.860, 538.9512
2822.789, 535.9540
2824.717, 540.3289
2826.646, 555.9908
2828.574, 564.5281
2830.502, 561.5610
2832.431, 558.6663
2834.359, 556.9758
2836.288, 558.4860
2838.216, 565.5334
2840.145, 563.9289
2842.073, 551.5223
2844.002, 550.8651
2845.930, 566.0720
2847.859, 574.6111
2849.787, 575.0818
2851.716, 575.0215
2853.644, 574.3014
2855.573, 568.3666
2857.501, 558.2206
2859.429, 555.0986
2861.358, 558.2991
2863.286, 563.6201
2865.215, 569.2679
2867.143, 563.3459
2869.072, 550.3253
2871.000, 537.8206
2872.929, 531.5002
2874.857, 555.5168
2876.786, 588.2382
2878.714, 579.3568
2880.643, 556.9578
2882.571, 562.3157
2884.500, 576.2344
2886.428, 576.4016
2888.356, 571.5667
2890.285, 569.8171
2892.213, 568.5768
2894.142, 566.7489
2896.070, 563.4291
2897.999, 554.0483
2899.927, 548.6714
2901.856, 557.7469
2903.784, 564.9537
2905.713, 562.0630
2907.641, 560.2510
2909.570, 567.0466
2911.498, 570.3297
2913.427, 563.5435
2915.355, 560.3735
2917.283, 564.3879
2919.212, 565.4277
2921.140, 558.8994
2923.069, 558.3682
2924.997, 568.4228
2926.926, 571.3389
2928.854, 566.0469
2930.783, 565.3637
2932.711, 570.3534
2934.640, 574.2525
2936.568, 576.8318
2938.497, 573.5097
2940.425, 565.9023
2942.354, 561.7264
2944.282, 561.2912
2946.210, 567.6069
2948.139, 576.1207
2950.067, 575.7874
2951.996, 570.7471
2953.924, 561.6762
2955.853, 558.4131
2957.781, 583.1443
2959.710, 605.9906
2961.638, 592.1533
2963.567, 574.2140
2965.495, 569.6032
2967.424, 572.0386
2969.352, 588.4071
2971.281, 594.2051
2973.209, 569.1879
2975.137, 552.2064
2977.066, 552.5783
2978.994, 557.6563
2980.923, 566.8923
2982.851, 574.6059
2984.780, 581.0428
2986.708, 582.6271
2988.637, 579.0025
2990.565, 574.8357
2992.494, 570.4269
2994.422, 576.2697
2996.351, 590.1564
2998.279, 582.1926
3000.208, 563.0022
3002.136, 567.4473
3004.064, 584.4255
3005.993, 592.7897
3007.921, 596.2150
3009.850, 598.3434
3011.778, 600.5283
3013.707, 604.6132
3015.635, 608.4966
3017.564, 609.1645
3019.492, 611.6776
3021.421, 622.6811
3023.349, 626.5763
3025.278, 611.3007
3027.206, 598.5585
3029.135, 591.7094
3031.063, 590.8463
3032.991, 596.3354
3034.920, 607.4625
3036.848, 627.6472
3038.777, 625.0546
3040.705, 598.1882
3042.634, 599.6850
3044.562, 621.8079
3046.491, 626.8452
3048.419, 620.2039
3050.348, 611.6205
3052.276, 607.7414
3054.205, 628.8414
3056.133, 651.7922
3058.062, 651.6987
3059.990, 644.1017
3061.918, 633.1821
3063.847, 631.8799
3065.775, 654.5734
3067.704, 668.3348
3069.632, 650.1871
3071.561, 641.4963
3073.489, 650.8893
3075.418, 660.1890
3077.346, 667.9000
3079.275, 670.0440
3081.203, 665.3685
3083.132, 672.0629
3085.060, 688.4455
3086.989, 705.6222
3088.917, 719.6785
3090.845, 719.1315
3092.774, 710.6024
3094.702, 700.0814
3096.631, 694.4056
3098.559, 698.3621
3100.488, 711.3170
3102.416, 745.0856
3104.345, 766.9984
3106.273, 759.2994
3108.202, 752.1021
3110.130, 753.5729
3112.059, 756.3965
3113.987, 756.2717
3115.916, 773.1310
3117.844, 807.1835
3119.772, 820.0974
3121.701, 813.4199
3123.629, 816.3002
3125.558, 825.0786
3127.486, 826.1233
3129.415, 826.9855
3131.343, 841.7215
3133.272, 858.1735
3135.200, 862.6284
3137.129, 866.4115
3139.057, 875.0007
3140.986, 885.7711
3142.914, 896.0967
3144.843, 912.4786
3146.771, 937.9232
3148.699, 956.7550
3150.628, 965.8882
3152.556, 985.2899
3154.485, 1015.192
3156.413, 1046.246
3158.342, 1073.763
3160.270, 1077.340
3162.199, 1072.543
3164.127, 1079.441
3166.056, 1099.320
3167.984, 1143.916
3169.913, 1184.325
3171.841, 1200.868
3173.770, 1212.457
3175.698, 1220.693
3177.626, 1236.547
3179.555, 1261.327
3181.483, 1299.582
3183.412, 1355.499
3185.340, 1388.414
3187.269, 1403.271
3189.197, 1427.451
3191.126, 1458.481
3193.054, 1492.191
3194.983, 1526.064
3196.911, 1553.621
3198.840, 1584.025
3200.768, 1628.773
3202.697, 1669.890
3204.625, 1701.997
3206.553, 1722.383
3208.482, 1724.821
3210.410, 1744.978
3212.339, 1791.796
3214.267, 1827.019
3216.196, 1852.958
3218.124, 1882.834
3220.053, 1917.301
3221.981, 1961.976
3223.910, 2007.041
3225.838, 2037.609
3227.767, 2065.585
3229.695, 2097.208
3231.624, 2131.353
3233.552, 2164.404
3235.480, 2211.107
3237.409, 2279.924
3239.337, 2331.027
3241.266, 2360.120
3243.194, 2387.354
3245.123, 2414.674
3247.051, 2454.101
3248.980, 2495.413
3250.908, 2522.947
3252.837, 2537.525
3254.765, 2537.694
3256.694, 2531.200
3258.622, 2512.974
3260.551, 2508.473
3262.479, 2527.968
3264.407, 2534.014
3266.336, 2519.394
3268.264, 2500.417
3270.193, 2480.929
3272.121, 2507.861
3274.050, 2556.321
3275.978, 2571.286
3277.907, 2580.782
3279.835, 2611.215
3281.764, 2657.912
3283.692, 2722.514
3285.621, 2795.027
3287.549, 2865.551
3289.478, 2964.861
3291.406, 3095.847
3293.334, 3251.901
3295.263, 3429.055
3297.191, 3589.580
3299.120, 3764.470
3301.048, 4031.268
3302.977, 4328.601
3304.905, 4572.536
3306.834, 4867.692
3308.762, 5267.927
3310.691, 5701.183
3312.619, 6145.862
3314.548, 6632.499
3316.476, 7162.455
3318.405, 7653.402
3320.333, 8127.625
3322.261, 8700.405
3324.190, 9310.961
3326.118, 9844.708
3328.047, 10383.73
3329.975, 11020.17
3331.904, 11620.40
3333.832, 12127.45
3335.761, 12650.04
3337.689, 13216.10
3339.618, 13711.25
3341.546, 14144.67
3343.475, 14745.95
3345.403, 15420.42
3347.332, 15933.28
3349.260, 16446.14
3351.188, 17155.01
3353.117, 17876.04
3355.045, 18463.82
3356.974, 19169.75
3358.902, 20037.22
3360.831, 20942.54
3362.759, 21898.48
3364.688, 23124.23
3366.616, 24582.15
3368.545, 26126.35
3370.473, 27871.20
3372.402, 29967.07
3374.330, 32253.05
3376.259, 34833.75
3378.187, 37124.80
3380.115, 39007.15
3382.044, 40521.22
3383.972, 41682.65
3385.901, 42666.36
3387.829, 43489.67
3389.758, 44153.54
3391.686, 44788.81
3393.615, 45481.09
3395.543, 46316.38
3397.472, 47301.21
3399.400, 48544.39
3401.329, 50093.86
3403.257, 51691.59
3405.186, 53265.04
3407.114, 54492.32
3409.042, 55236.05
3410.971, 55208.61
3412.899, 54392.80
3414.828, 52584.82
3416.756, 50267.57
3418.685, 47614.93
3420.613, 44542.72
3422.542, 40958.09
3424.470, 37339.22
3426.399, 33739.41
3428.327, 30421.12
3430.256, 27433.76
3432.184, 24842.28
3434.113, 22652.12
3436.041, 20875.70
3437.969, 19406.51
3439.898, 18249.21
3441.826, 17348.18
3443.755, 16691.94
3445.683, 16176.07
3447.612, 15774.73
3449.540, 15485.96
3451.469, 15228.14
3453.397, 14932.93
3455.326, 14616.67
3457.254, 14300.51
3459.183, 13931.03
3461.111, 13502.22
3463.040, 13019.08
3464.968, 12493.13
3466.896, 11981.41
3468.825, 11440.16
3470.753, 10799.47
3472.682, 10138.81
3474.610, 9485.257
3476.539, 8878.825
3478.467, 8337.402
3480.396, 7780.856
3482.324, 7214.055
3484.253, 6765.096
3486.181, 6392.327
3488.110, 6019.922
3490.038, 5689.958
3491.967, 5437.403
3493.895, 5209.301
3495.823, 4987.022
3497.752, 4789.137
3499.680, 4618.317
3501.609, 4522.032
3503.537, 4469.112
3505.466, 4401.615
3507.394, 4347.166
3509.323, 4335.042
3511.251, 4319.682
3513.180, 4287.623
3515.108, 4252.676
3517.037, 4213.696
3518.965, 4145.873
3520.894, 4067.534
3522.822, 4024.675
3524.750, 3986.078
3526.679, 3927.824
3528.607, 3872.423
3530.536, 3831.941
3532.464, 3740.665
3534.393, 3597.566
3536.321, 3496.894
3538.250, 3416.217
3540.178, 3311.685
3542.107, 3206.806
3544.035, 3111.770
3545.964, 3037.363
3547.892, 2989.848
3549.821, 2938.710
3551.749, 2880.638
3553.677, 2790.108
3555.606, 2695.620
3557.534, 2639.977
3559.463, 2596.416
3561.391, 2555.085
3563.320, 2505.891
3565.248, 2443.981
3567.177, 2385.594
3569.105, 2328.517
3571.034, 2259.635
3572.962, 2194.222
3574.891, 2164.709
3576.819, 2120.508
3578.748, 2030.231
3580.676, 1956.301
3582.604, 1903.635
3584.533, 1856.581
3586.461, 1806.912
3588.390, 1724.127
3590.318, 1649.839
3592.247, 1622.176
3594.175, 1588.267
3596.104, 1529.083
3598.032, 1481.716
3599.961, 1444.204
3601.889, 1382.548
3603.818, 1333.035
3605.746, 1384.588
3607.675, 1403.681
3609.603, 1279.582
3611.531, 1215.695
3613.460, 1226.824
3615.388, 1188.220
3617.317, 1119.280
3619.245, 1072.963
3621.174, 1040.239
3623.102, 1016.831
3625.031, 999.3904
3626.959, 987.2103
3628.888, 979.3214
3630.816, 972.7430
3632.745, 948.9460
3634.673, 920.7466
3636.602, 899.0851
3638.530, 886.8021
3640.458, 890.1550
3642.387, 880.5540
3644.315, 855.9949
3646.244, 849.3210
3648.172, 848.7082
3650.101, 830.0456
3652.029, 810.0669
3653.958, 796.4110
3655.886, 793.5565
3657.815, 802.6981
3659.743, 782.6845
3661.672, 746.0547
3663.600, 728.8741
3665.529, 722.3535
3667.457, 727.4196
3669.385, 725.7447
3671.314, 712.8788
3673.242, 710.6671
3675.171, 714.3184
3677.099, 691.7322
3679.028, 667.7441
3680.956, 665.5520
3682.885, 673.5866
3684.813, 692.3732
3686.742, 681.7977
3688.670, 647.1741
3690.599, 636.4232
3692.527, 637.4595
3694.456, 639.5276
3696.384, 642.5214
3698.313, 647.1155
3700.241, 647.7111
3702.169, 643.8602
3704.098, 634.2418
3706.026, 622.8572
3707.955, 614.4318
3709.883, 606.4017
3711.812, 596.9060
3713.740, 593.8130
3715.669, 596.9623
3717.597, 593.5302
3719.526, 590.3409
3721.454, 599.7841
3723.383, 605.3197
3725.311, 600.4109
3727.240, 592.5886
3729.168, 583.9091
3731.096, 591.2507
3733.025, 600.5912
3734.953, 590.7999
3736.882, 583.5375
3738.810, 588.0685
3740.739, 585.3660
3742.667, 575.1379
3744.596, 571.6936
3746.524, 571.8871
3748.453, 574.3379
3750.381, 573.0727
3752.310, 565.3675
3754.238, 561.2780
3756.167, 561.2326
3758.095, 563.6254
3760.023, 565.8593
3761.952, 566.3901
3763.880, 562.7604
3765.809, 553.7380
3767.737, 550.3818
3769.666, 552.0692
3771.594, 554.6415
3773.523, 557.0229
3775.451, 559.5184
3777.380, 558.2651
3779.308, 552.4811
3781.237, 547.5129
3783.165, 545.5882
3785.094, 560.9064
3787.022, 568.5194
3788.950, 538.7864
3790.879, 528.4026
3792.807, 542.9404
3794.736, 562.7698
3796.664, 575.8314
3798.593, 548.2848
3800.521, 524.3719
3802.450, 526.6484
3804.378, 540.0141
3806.307, 560.7253
3808.235, 572.0037
3810.164, 573.4607
3812.092, 556.3574
3814.021, 550.1553
3815.949, 573.7700
3817.877, 578.5433
3819.806, 568.1304
3821.734, 554.7553
3823.663, 549.1460
3825.591, 563.5697
3827.520, 571.8318
3829.448, 567.7941
3831.377, 567.6926
3833.305, 571.9717
3835.234, 588.5621
3837.162, 594.2001
3839.091, 573.9034
3841.019, 564.6801
3842.948, 568.1922
3844.876, 573.8110
3846.804, 574.2923
3848.733, 551.1421
3850.661, 543.6890
3852.590, 565.4896
3854.518, 564.9432
3856.447, 552.1136
3858.375, 558.0735
3860.304, 569.2067
3862.232, 583.4831
3864.161, 575.7594
3866.089, 545.7139
3868.018, 552.3073
3869.946, 569.1586
3871.875, 563.1189
3873.803, 560.4854
3875.731, 568.1850
3877.660, 564.7089
3879.588, 555.3668
3881.517, 556.6930
3883.445, 562.2813
3885.374, 572.5382
3887.302, 570.1738
3889.231, 558.0554
3891.159, 551.6715
3893.088, 547.0863
3895.016, 545.7278
3896.945, 545.4309
3898.873, 542.6230
3900.802, 540.0326
3902.730, 536.4848
3904.658, 522.2358
3906.587, 513.3703
3908.515, 517.8662
3910.444, 525.1414
3912.372, 532.9661
3914.301, 532.5825
3916.229, 531.2544
3918.158, 538.4870
3920.086, 531.1030
3922.015, 503.0537
3923.943, 495.3421
3925.872, 499.8480
3927.800, 506.1647
3929.729, 513.5588
3931.657, 521.2330
3933.585, 518.6943
3935.514, 510.6215
3937.442, 509.1479
3939.371, 503.1613
3941.299, 474.9447
3943.228, 484.2503
3945.156, 521.7328
3947.085, 501.4921
3949.013, 474.1593
3950.942, 485.6445
3952.870, 491.0614
3954.799, 484.4711
3956.727, 477.3126
3958.656, 472.9980
3960.584, 475.0171
3962.512, 480.6722
3964.441, 493.4683
3966.369, 486.5327
3968.298, 470.0989
3970.226, 458.5410
3972.155, 461.8972
3974.083, 487.3233
3976.012, 494.0930
3977.940, 485.1142
3979.869, 467.8173
3981.797, 460.0902
3983.726, 481.2766
3985.654, 484.3988
3987.583, 467.0452
3989.511, 468.1866
3991.439, 476.9235
3993.368, 481.4208
3995.296, 480.8876
3997.225, 475.9364
3999.153, 470.4665
4001.082, 470.0018
4003.010, 471.4951
4004.939, 470.0300
4006.867, 465.5195
4008.796, 459.9815
4010.724, 460.2145
4012.653, 468.6552
4014.581, 473.8808
4016.510, 469.7047
4018.438, 477.7081
4020.366, 494.0333
4022.295, 484.9779
4024.223, 470.8209
4026.152, 470.5749
4028.080, 478.5162
4030.009, 482.1857
4031.937, 478.9003
4033.866, 475.1648
4035.794, 460.0285
4037.723, 460.5072
4039.651, 481.6340
4041.580, 479.7834
4043.508, 469.8982
4045.437, 473.4588
4047.365, 477.5081
4049.293, 484.0841
4051.222, 481.9278
4053.150, 475.3491
4055.079, 480.2603
4057.007, 482.2526
4058.936, 474.1358
4060.864, 465.6116
4062.793, 468.5028
4064.721, 479.9350
4066.650, 484.2382
4068.578, 476.3896
4070.507, 482.6747
4072.435, 498.0642
4074.364, 493.4911
4076.292, 478.3893
4078.220, 474.2686
4080.149, 479.1283
4082.077, 481.0541
4084.006, 480.4284
4085.934, 490.3542
4087.863, 496.2813
4089.791, 492.2197
4091.720, 492.2739
4093.648, 493.3289
4095.577, 484.6301
4097.505, 476.5756
4099.434, 481.7531
4101.362, 503.1797
4103.291, 513.8431
4105.219, 491.5147
4107.147, 483.7458
4109.076, 492.4829
4111.004, 480.9458
4112.933, 470.7527
4114.861, 476.8868
4116.790, 486.0948
4118.718, 495.0502
4120.646, 498.8174
4122.575, 499.0076
4124.503, 498.5338
4126.432, 498.3645
4128.360, 499.7907
4130.289, 508.8021
4132.217, 514.8325
4134.146, 508.8214
4136.074, 502.7592
4138.003, 496.9929
4139.931, 509.1916
4141.860, 520.4542
4143.788, 507.9312
4145.717, 501.9770
4147.645, 507.2268
4149.574, 511.1072
4151.502, 510.6598
4153.431, 502.0942
4155.359, 499.8348
4157.288, 508.7145
4159.216, 509.1176
4161.145, 505.7960
4163.073, 507.9935
4165.001, 513.0074
4166.930, 521.7372
4168.858, 511.2130
4170.787, 498.0431
4172.715, 512.4905
4174.644, 518.0687
4176.572, 506.6930
4178.500, 495.3048
4180.429, 487.8969
4182.357, 487.6683
4184.286, 486.6585
4186.214, 483.8829
4188.143, 486.8398
4190.071, 490.8657
4192.000, 489.5769
4193.928, 488.1700
4195.857, 487.8427
4197.785, 496.6600
4199.714, 507.8248
4201.642, 517.2343
4203.571, 514.2055
4205.499, 498.8273
4207.428, 502.8934
4209.356, 509.2657
4211.285, 501.6513
4213.213, 498.0102
4215.142, 500.2287
4217.070, 492.4723
4218.999, 488.6694
4220.927, 504.7847
4222.855, 510.8760
4224.784, 505.4301
4226.712, 496.7420
4228.641, 490.8923
4230.569, 490.8181
4232.498, 502.7531
4234.426, 522.0107
4236.354, 533.6446
4238.283, 529.8773
4240.211, 495.0416
4242.140, 487.5446
4244.068, 501.5763
4245.997, 515.3058
4247.925, 519.7020
4249.854, 506.1000
4251.782, 507.4688
4253.711, 516.5078
4255.639, 515.8953
4257.568, 515.4855
4259.496, 518.9943
4261.425, 517.7567
4263.353, 516.5203
4265.282, 525.4977
4267.210, 529.1199
4269.139, 523.1312
4271.067, 544.7394
4272.996, 565.3651
4274.924, 548.6937
4276.853, 537.0035
4278.781, 535.3373
4280.709, 531.3513
4282.638, 531.9782
4284.566, 546.8489
4286.495, 549.3519
4288.423, 539.7698
4290.352, 520.6098
4292.280, 511.4215
4294.208, 524.0913
4296.137, 534.0988
4298.065, 540.5391
4299.994, 542.4514
4301.922, 546.4476
4303.851, 555.1494
4305.779, 550.4380
4307.708, 540.9255
4309.636, 533.5984
4311.565, 539.8286
4313.493, 559.2204
4315.422, 560.2712
4317.350, 559.0817
4319.279, 570.1576
4321.207, 562.6067
4323.136, 543.4536
4325.064, 552.3003
4326.993, 558.8776
4328.921, 549.9724
4330.850, 550.4309
4332.778, 554.7740
4334.707, 547.5379
4336.635, 549.8611
4338.563, 564.0300
4340.492, 556.0540
4342.420, 544.6779
4344.349, 549.5174
4346.277, 551.9785
4348.206, 552.6393
4350.134, 566.8868
4352.063, 574.7542
4353.991, 561.3879
4355.919, 567.3701
4357.848, 582.7620
4359.776, 589.6025
4361.705, 584.8008
4363.633, 567.0306
4365.562, 554.9387
4367.490, 551.3171
4369.419, 567.0470
4371.347, 565.6766
4373.276, 551.6331
4375.204, 560.8099
4377.133, 573.8556
4379.061, 584.1229
4380.990, 574.2768
4382.918, 561.3431
4384.847, 578.1901
4386.775, 582.0509
4388.704, 567.3641
4390.632, 585.5958
4392.561, 596.5425
4394.489, 568.8802
4396.417, 553.3171
4398.346, 552.5941
4400.274, 568.9865
4402.203, 574.2941
4404.131, 561.2663
4406.060, 559.2200
4407.988, 563.2206
4409.917, 569.7650
4411.845, 568.8038
4413.773, 563.7382
4415.702, 578.6808
4417.630, 583.2003
4419.559, 552.2639
4421.487, 560.9866
4423.416, 580.3329
4425.344, 568.5578
4427.273, 554.9025
4429.201, 544.7457
4431.130, 546.7590
4433.058, 546.2082
4434.987, 534.3383
4436.915, 538.3148
4438.844, 550.4058
4440.772, 559.3712
4442.701, 561.0795
4444.629, 555.8760
4446.558, 546.2680
4448.486, 539.8455
4450.415, 540.9960
4452.343, 552.2609
4454.271, 562.7401
4456.200, 543.8596
4458.128, 545.4078
4460.057, 573.5432
4461.985, 567.9595
4463.914, 559.9426
4465.842, 568.6262
4467.771, 580.4255
4469.699, 588.1798
4471.627, 576.9723
4473.556, 571.8307
4475.484, 575.1416
4477.413, 571.9388
4479.341, 568.2252
4481.270, 567.9846
4483.198, 559.5844
4485.127, 555.9894
4487.055, 592.2617
4488.984, 594.5594
4490.912, 559.9521
4492.841, 552.0691
4494.769, 554.0306
4496.698, 558.7117
4498.626, 566.0935
4500.555, 570.8371
4502.483, 565.6567
4504.412, 558.5679
4506.340, 551.8651
4508.269, 548.6673
4510.197, 546.9224
4512.125, 545.7808
4514.054, 552.1764
4515.982, 563.3923
4517.911, 582.3376
4519.839, 584.7177
4521.768, 575.1476
4523.696, 564.2175
4525.625, 566.9001
4527.553, 583.4894
4529.481, 567.6848
4531.410, 549.9676
4533.338, 548.3738
4535.267, 557.1113
4537.195, 566.9825
4539.124, 564.2015
4541.052, 563.0349
4542.981, 563.6560
4544.909, 551.7438
4546.838, 546.9205
4548.766, 557.2986
4550.695, 566.3331
4552.623, 565.0684
4554.552, 540.4520
4556.480, 546.5557
4558.409, 569.3195
4560.337, 572.4775
4562.266, 567.4104
4564.194, 558.7477
4566.123, 565.1054
4568.051, 567.7645
4569.979, 555.9762
4571.908, 553.3360
4573.836, 552.1675
4575.765, 542.1688
4577.693, 545.2623
4579.622, 554.9006
4581.550, 545.9529
4583.479, 551.0790
4585.407, 573.5190
4587.335, 562.7411
4589.264, 553.5750
4591.192, 566.4114
4593.121, 556.3206
4595.049, 547.4739
4596.978, 568.8660
4598.906, 574.6815
4600.835, 568.0681
4602.763, 567.6842
4604.692, 558.9890
4606.620, 543.2833
4608.549, 556.0944
4610.477, 571.3571
4612.406, 578.2349
4614.334, 565.2399
4616.263, 556.2023
4618.191, 575.7081
4620.120, 554.6016
4622.048, 524.7581
4623.977, 560.0004
4625.905, 565.9674
4627.833, 542.8245
4629.762, 561.3398
4631.690, 565.4822
4633.619, 542.2451
4635.547, 549.2714
4637.476, 559.7966
4639.404, 557.8680
4641.333, 550.4727
4643.261, 547.8770
4645.189, 569.4953
4647.118, 567.9923
4649.046, 553.8547
4650.975, 559.4515
4652.903, 552.4798
4654.832, 534.1234
4656.760, 530.6703
4658.689, 535.1738
4660.617, 545.0208
4662.546, 545.8909
4664.474, 555.7302
4666.403, 588.0004
4668.331, 587.3443
4670.260, 573.5970
4672.188, 567.0988
4674.117, 564.7372
4676.045, 564.9384
4677.974, 569.5359
4679.902, 560.2127
4681.831, 541.6949
4683.759, 540.0352
4685.688, 550.0587
4687.616, 565.1834
4689.544, 547.3830
4691.473, 538.2331
4693.401, 561.7077
4695.330, 566.9297
4697.258, 565.5983
4699.187, 566.2771
4701.115, 555.4326
4703.043, 545.5979
4704.972, 553.3936
4706.900, 564.0141
4708.829, 572.9401
4710.757, 571.0232
4712.686, 578.0501
4714.614, 589.7279
4716.543, 578.5953
4718.471, 565.0172
4720.400, 557.4747
4722.328, 581.4832
4724.257, 593.8776
4726.185, 576.1489
4728.114, 555.5623
4730.042, 552.9249
4731.971, 579.8649
4733.899, 563.6344
4735.828, 544.6249
4737.756, 573.9441
4739.685, 571.3985
4741.613, 559.3286
4743.542, 571.2075
4745.470, 562.9124
4747.398, 544.5038
4749.327, 539.9594
4751.255, 546.3642
4753.184, 560.0606
4755.112, 577.9808
4757.041, 577.9032
4758.969, 562.2924
4760.897, 558.0876
4762.826, 557.4246
4764.754, 558.0731
4766.683, 568.4585
4768.611, 569.1035
4770.540, 554.4304
4772.468, 569.9227
4774.397, 580.9385
4776.325, 565.1686
4778.254, 568.5783
4780.182, 575.0608
4782.111, 573.2502
4784.039, 550.0697
4785.968, 531.8201
4787.896, 545.5154
4789.825, 563.5850
4791.753, 579.3571
4793.682, 586.9480
4795.610, 589.7069
4797.539, 587.0258
4799.467, 573.9314
4801.396, 566.0681
4803.324, 563.0538
4805.252, 558.3124
4807.181, 565.5333
4809.109, 578.0001
4811.038, 571.0265
4812.966, 562.9136
4814.895, 558.6798
4816.823, 565.5447
4818.751, 565.4262
4820.680, 559.5275
4822.608, 581.9950
4824.537, 585.3321
4826.465, 563.3351
4828.394, 578.7381
4830.322, 582.6281
4832.251, 563.7363
4834.179, 565.8207
4836.108, 566.4251
4838.036, 557.1273
4839.965, 573.2231
4841.893, 574.0995
4843.822, 546.3749
4845.750, 563.6406
4847.679, 584.0687
4849.607, 584.3211
4851.536, 572.8742
4853.464, 569.3835
4855.393, 583.4163
4857.321, 569.0372
4859.250, 560.0720
4861.178, 585.4726
4863.106, 588.6153
4865.035, 583.9369
4866.963, 580.4955
4868.892, 567.2563
4870.820, 562.5603
4872.749, 588.7183
4874.677, 572.7307
4876.605, 552.5381
4878.534, 555.6301
4880.462, 552.3839
4882.391, 546.0377
4884.319, 538.4313
4886.248, 551.1458
4888.176, 567.1381
4890.105, 573.1299
4892.033, 580.5394
4893.962, 585.8703
4895.890, 585.5752
4897.819, 584.4859
4899.747, 579.8034
4901.676, 567.5601
4903.604, 563.7870
4905.533, 568.8765
4907.461, 583.7469
4909.390, 576.0711
4911.318, 564.9636
4913.247, 567.7346
4915.175, 575.8685
4917.104, 578.1460
4919.032, 566.4155
4920.960, 575.1519
4922.889, 588.5585
4924.817, 593.8618
4926.746, 596.6597
4928.674, 595.1161
4930.603, 588.0276
4932.531, 575.3777
4934.459, 573.8361
4936.388, 593.8475
4938.316, 602.1383
4940.245, 601.4547
4942.173, 593.9807
4944.102, 561.5789
4946.030, 547.7694
4947.959, 569.4916
4949.887, 571.5346
4951.816, 567.0148
4953.744, 563.1700
4955.673, 579.7864
4957.601, 590.7769
4959.530, 588.9066
4961.458, 592.2057
4963.387, 582.2578
4965.315, 559.2284
4967.244, 581.0856
4969.172, 589.7561
4971.101, 577.0853
4973.029, 585.2094
4974.958, 594.8867
4976.886, 601.6902
4978.814, 608.2029
4980.743, 605.1059
4982.671, 594.2345
4984.600, 584.6622
4986.528, 569.4812
4988.457, 559.1358
4990.385, 587.4192
4992.313, 583.5987
4994.242, 563.4139
4996.170, 558.2803
4998.099, 581.6438
5000.027, 604.2723
5001.956, 588.7919
5003.884, 580.6577
5005.813, 580.7672
5007.741, 585.1829
5009.670, 610.9545
5011.598, 617.5568
5013.527, 577.3027
5015.455, 581.4360
5017.384, 586.3384
5019.312, 568.3316
5021.241, 586.5803
5023.169, 594.7720
5025.098, 576.8787
5027.026, 592.2826
5028.955, 600.1945
5030.883, 594.6609
5032.812, 606.1362
5034.740, 594.8544
5036.668, 571.1291
5038.597, 600.6969
5040.525, 608.1287
5042.454, 596.8362
5044.382, 596.2883
5046.311, 592.5174
5048.239, 590.8909
5050.167, 609.0839
5052.096, 587.4833
5054.024, 560.8387
5055.953, 560.3646
5057.881, 580.3621
5059.810, 605.2284
5061.738, 623.7205
5063.667, 587.1937
5065.595, 572.9412
5067.524, 607.7026
5069.452, 603.5262
5071.381, 592.1583
5073.309, 584.2700
5075.238, 585.9296
5077.166, 581.9545
5079.095, 574.5334
5081.023, 572.1944
5082.952, 581.7967
5084.880, 588.2512
5086.809, 568.8730
5088.737, 562.3451
5090.666, 571.9375
5092.594, 597.9153
5094.522, 596.3580
5096.451, 588.9498
5098.379, 588.1443
5100.308, 569.3678
5102.236, 563.5835
5104.165, 575.4024
5106.093, 579.4485
5108.021, 588.8497
5109.950, 595.6237
5111.878, 564.9863
5113.807, 572.5930
5115.735, 595.2006
5117.664, 592.4257
5119.592, 589.2769
5121.521, 587.1458
5123.449, 585.5562
5125.378, 586.0714
5127.306, 598.0369
5129.235, 621.6649
5131.163, 604.4252
5133.092, 591.6229
5135.020, 591.7587
5136.949, 591.1459
5138.877, 601.3416
5140.806, 610.8630
5142.734, 597.0707
5144.663, 584.1252
5146.591, 584.9698
5148.520, 611.1627
5150.448, 603.9290
5152.376, 587.2122
5154.305, 575.7014
5156.233, 581.2784
5158.162, 606.2820
5160.090, 634.6522
5162.019, 609.3882
5163.947, 601.2675
5165.875, 603.9337
5167.804, 593.1001
5169.732, 597.2154
5171.661, 606.7587
5173.589, 613.1888
5175.518, 632.8687
5177.446, 638.7791
5179.375, 622.7368
5181.303, 593.8831
5183.232, 591.7914
5185.160, 605.3772
5187.089, 596.2374
5189.017, 585.7174
5190.946, 587.4602
5192.874, 616.1633
5194.803, 629.4777
5196.731, 622.4965
5198.660, 598.7749
5200.588, 621.9259
5202.517, 619.8401
5204.445, 595.0259
5206.374, 595.8112
5208.302, 601.0714
5210.230, 605.1976
5212.159, 602.6423
5214.087, 611.0577
5216.016, 617.6866
5217.944, 616.0123
5219.873, 603.4892
5221.801, 607.9706
5223.729, 623.9459
5225.658, 619.3491
5227.586, 617.1722
5229.515, 617.1687
5231.443, 616.1818
5233.372, 615.1634
5235.300, 613.5772
5237.229, 612.1977
5239.157, 623.8284
5241.086, 610.2156
5243.014, 586.7242
5244.943, 613.6522
5246.871, 617.5784
5248.800, 607.6032
5250.728, 596.5257
5252.657, 621.5606
5254.585, 637.3791
5256.514, 633.9185
5258.442, 657.5218
5260.371, 640.5626
5262.299, 606.3104
5264.228, 614.5302
5266.156, 596.0568
5268.084, 592.2234
5270.013, 626.5544
5271.941, 602.9077
5273.870, 603.0047
5275.798, 625.8361
5277.727, 606.7772
5279.655, 591.9780
5281.583, 591.4922
5283.512, 615.3692
5285.440, 616.6702
5287.369, 621.3281
5289.297, 633.7940
5291.226, 620.6199
5293.154, 633.5170
5295.083, 650.5013
5297.011, 626.5930
5298.940, 643.0859
5300.868, 649.9225
5302.797, 621.9123
5304.725, 616.3284
5306.654, 614.6013
5308.582, 614.2626
5310.511, 619.8187
5312.439, 619.4095
5314.368, 619.2634
5316.296, 622.8786
5318.225, 603.5462
5320.153, 617.2962
5322.082, 649.9706
5324.010, 624.5264
5325.938, 620.5135
5327.867, 619.7953
5329.795, 605.3936
5331.724, 627.0151
5333.652, 638.5254
5335.581, 634.1245
5337.509, 637.5579
5339.438, 633.7822
5341.366, 629.4378
5343.294, 631.6463
5345.223, 627.5157
5347.151, 619.5667
5349.080, 612.9805
5351.008, 618.7159
5352.937, 628.5411
5354.865, 638.9304
5356.794, 647.1523
5358.722, 616.4974
5360.651, 604.8201
5362.579, 622.9019
5364.508, 661.3365
5366.436, 649.1694
5368.365, 625.6172
5370.293, 624.0256
5372.222, 620.4879
5374.150, 613.3582
5376.079, 610.7339
5378.007, 635.0925
5379.936, 646.0225
5381.864, 643.1506
5383.792, 629.5899
5385.721, 635.2927
5387.649, 634.5723
5389.578, 623.1868
5391.506, 602.7551
5393.435, 611.5972
5395.363, 642.2449
5397.292, 676.5336
5399.220, 646.8690
5401.148, 618.7950
5403.077, 609.0110
5405.005, 624.9336
5406.934, 644.5129
5408.862, 660.9697
5410.791, 664.9128
5412.719, 626.5960
5414.648, 623.2368
5416.576, 639.2661
5418.505, 651.0942
5420.433, 647.1187
5422.362, 632.8797
5424.290, 622.8467
5426.219, 647.0503
5428.147, 665.2002
5430.076, 670.3997
5432.004, 660.8643
5433.933, 632.8113
5435.861, 623.7780
5437.790, 631.8888
5439.718, 646.5743
5441.646, 654.9395
5443.575, 659.1085
5445.503, 658.9621
5447.432, 650.4219
5449.360, 631.8510
5451.289, 628.9025
5453.217, 655.5396
5455.146, 674.4109
5457.074, 663.8986
5459.002, 640.9439
5460.931, 632.8497
5462.859, 647.6337
5464.788, 651.7833
5466.716, 637.9139
5468.645, 620.7125
5470.573, 618.4908
5472.502, 628.6569
5474.430, 645.8626
5476.359, 635.4047
5478.287, 631.1201
5480.216, 633.4210
5482.144, 633.6019
5484.073, 634.3295
5486.001, 635.5713
5487.930, 640.3109
5489.858, 660.3057
5491.787, 657.9341
5493.715, 653.0851
5495.644, 658.3396
5497.572, 670.9478
5499.500, 663.7786
5501.429, 651.9529
5503.357, 654.1207
5505.286, 660.0709
5507.214, 663.5255
5509.143, 660.7535
5511.071, 647.8108
5513.000, 653.6753
5514.928, 646.2610
5516.856, 626.7620
5518.785, 653.1259
5520.713, 656.4438
5522.642, 646.8938
5524.570, 635.4311
5526.499, 615.2244
5528.427, 622.9538
5530.356, 653.6958
5532.284, 692.0060
5534.213, 674.9647
5536.141, 649.5691
5538.070, 636.8581
5539.998, 647.9789
5541.927, 641.1361
5543.855, 656.5839
5545.784, 685.2942
5547.712, 659.8188
5549.641, 664.0867
5551.569, 668.4053
5553.498, 660.9554
5555.426, 666.1199
5557.354, 661.2901
5559.283, 644.2637
5561.211, 624.4417
5563.140, 657.8494
5565.068, 678.4741
5566.997, 679.3199
5568.925, 666.7280
5570.854, 672.9207
5572.782, 678.2443
5574.710, 672.7179
5576.639, 645.4689
5578.567, 645.4286
5580.496, 654.3474
5582.424, 660.4807
5584.353, 654.1508
5586.281, 666.5243
5588.210, 660.7881
5590.138, 651.2703
5592.067, 696.2446
5593.995, 692.3916
5595.924, 673.6674
5597.852, 659.2193
5599.781, 643.5701
5601.709, 641.1392
5603.638, 643.6870
5605.566, 648.0227
5607.495, 665.1389
5609.423, 663.4059
5611.352, 663.1570
5613.280, 674.0475
5615.208, 673.5468
5617.137, 677.1151
5619.065, 678.0750
5620.994, 672.8577
5622.922, 677.0948
5624.851, 669.4386
5626.779, 659.2874
5628.708, 657.3515
5630.636, 676.1594
5632.564, 687.0021
5634.493, 688.2924
5636.421, 682.6456
5638.350, 655.0825
5640.278, 656.1957
5642.207, 665.3019
5644.135, 659.6130
5646.064, 696.8643
5647.992, 694.7560
5649.921, 675.1705
5651.849, 671.7206
5653.778, 677.0236
5655.706, 687.9186
5657.635, 690.8686
5659.563, 676.5673
5661.492, 656.9811
5663.420, 661.3301
5665.349, 673.3001
5667.277, 674.5389
5669.206, 685.5856
5671.134, 668.7613
5673.063, 654.5327
5674.991, 671.9404
5676.919, 673.0832
5678.848, 679.4792
5680.776, 689.2197
5682.705, 695.4328
5684.633, 681.9692
5686.562, 688.0149
5688.490, 693.4401
5690.418, 682.8230
5692.347, 680.5088
5694.275, 679.9285
5696.204, 676.9250
5698.132, 671.5643
5700.061, 675.7247
5701.989, 674.1719
5703.918, 679.6502
5705.846, 693.3594
5707.775, 682.3112
5709.703, 680.1000
5711.632, 696.4270
5713.560, 715.4818
5715.489, 680.8983
5717.417, 684.6730
5719.346, 687.0155
5721.274, 682.0654
5723.203, 702.9778
5725.131, 699.0891
5727.060, 695.6721
5728.988, 697.8074
5730.917, 695.6389
5732.845, 708.5552
5734.773, 700.9629
5736.702, 692.0744
5738.630, 718.3371
5740.559, 708.6157
5742.487, 704.8193
5744.416, 712.3010
5746.344, 724.5625
5748.272, 726.6769
5750.201, 702.6967
5752.129, 682.2015
5754.058, 686.6196
5755.986, 704.9952
5757.915, 709.9836
5759.843, 702.5197
5761.772, 696.9781
5763.700, 727.2053
5765.629, 713.9426
5767.557, 694.6851
5769.486, 692.5834
5771.414, 712.0291
5773.343, 710.5161
5775.271, 720.0760
5777.200, 723.9720
5779.128, 693.5221
5781.057, 707.0405
5782.985, 729.5880
5784.914, 740.5884
5786.842, 732.5064
5788.771, 716.9115
5790.699, 702.0923
5792.627, 704.7800
5794.556, 722.6042
5796.484, 721.0358
5798.413, 737.1859
5800.341, 719.8510
5802.270, 688.4124
5804.198, 706.2622
5806.126, 712.1612
5808.055, 710.1782
5809.983, 707.4666
5811.912, 707.8297
5813.840, 698.0222
5815.769, 712.6318
5817.697, 716.8876
5819.626, 699.8113
5821.554, 707.1401
5823.483, 712.6413
5825.411, 718.1016
5827.340, 723.8166
5829.268, 727.6193
5831.197, 727.6118
5833.125, 705.1555
5835.054, 702.9540
5836.982, 749.4102
5838.911, 702.0098
5840.839, 697.4414
5842.768, 712.6769
5844.696, 718.5042
5846.625, 691.6703
5848.553, 716.9791
5850.481, 721.4875
5852.410, 711.1132
5854.338, 723.3373
5856.267, 725.3434
5858.195, 718.5671
5860.124, 707.3978
5862.052, 699.7129
5863.980, 710.7874
5865.909, 744.6223
5867.837, 743.5400
5869.766, 728.3909
5871.694, 752.4497
5873.623, 745.4141
5875.551, 729.8113
5877.480, 729.0557
5879.408, 742.6666
5881.337, 718.7837
5883.265, 717.2653
5885.194, 722.3436
5887.122, 722.2675
5889.051, 714.4954
5890.979, 716.7298
5892.908, 729.5933
5894.836, 744.8688
5896.765, 756.7597
5898.693, 770.6665
5900.622, 735.3643
5902.550, 730.3833
5904.479, 751.5258
5906.407, 749.3318
5908.335, 718.1398
5910.264, 695.4575
5912.192, 731.2100
5914.121, 802.4786
5916.049, 760.2508
5917.978, 726.3810
5919.906, 736.9327
5921.834, 756.6495
5923.763, 742.5779
5925.691, 761.7729
5927.620, 754.3035
5929.548, 740.1652
5931.477, 733.9100
5933.405, 734.8323
5935.334, 741.7361
5937.262, 738.8726
5939.191, 744.0153
5941.119, 760.1124
5943.048, 736.3144
5944.976, 734.5003
5946.905, 757.4568
5948.833, 768.0062
5950.762, 736.6033
5952.690, 745.9170
5954.619, 756.5895
5956.547, 757.4171
5958.476, 749.4501
5960.404, 740.2692
5962.333, 759.1168
5964.261, 751.7963
5966.189, 748.6328
5968.118, 767.1875
5970.046, 767.8734
5971.975, 760.1868
5973.903, 760.0142
5975.832, 764.1417
5977.760, 763.1432
5979.688, 740.9632
5981.617, 759.5798
5983.545, 769.2670
5985.474, 756.2886
5987.402, 738.6522
5989.331, 781.3052
5991.259, 789.3225
5993.188, 777.9990
5995.116, 758.9102
5997.045, 721.4948
5998.973, 762.4221
6000.902, 750.5150
6002.830, 746.2581
6004.759, 779.4118
6006.687, 782.1952
6008.616, 783.8615
6010.544, 779.6708
6012.473, 773.6168
6014.401, 765.5791
6016.330, 733.5820
6018.258, 747.2577
6020.187, 758.9549
6022.115, 757.0978
6024.043, 751.5649
6025.972, 774.1773
6027.900, 765.0710
6029.829, 762.0807
6031.757, 781.8062
6033.686, 811.2237
6035.614, 754.8897
6037.542, 746.9872
6039.471, 745.0927
6041.399, 753.6866
6043.328, 788.0538
6045.256, 787.8358
6047.185, 788.1800
6049.113, 794.2483
6051.042, 789.9813
6052.970, 763.7544
6054.899, 753.4923
6056.827, 787.9987
6058.756, 793.1157
6060.684, 791.2958
6062.613, 824.4792
6064.541, 801.8351
6066.470, 801.1759
6068.398, 776.9449
6070.327, 749.0620
6072.255, 757.3119
6074.184, 804.1863
6076.112, 785.9576
6078.041, 775.4670
6079.969, 772.2502
6081.897, 757.5612
6083.826, 771.9987
6085.754, 785.0083
6087.683, 775.7562
6089.611, 776.1177
6091.540, 801.3149
6093.468, 792.8906
6095.396, 778.7905
6097.325, 783.6031
6099.253, 791.5904
6101.182, 790.7153
6103.110, 793.3754
6105.039, 762.1563
6106.967, 786.9205
6108.896, 799.1718
6110.824, 779.4312
6112.753, 798.0646
6114.681, 782.7762
6116.610, 817.5787
6118.538, 822.0461
6120.467, 785.0715
6122.395, 764.5886
6124.324, 785.4960
6126.252, 767.0184
6128.181, 759.2167
6130.109, 762.1914
6132.038, 754.3759
6133.966, 781.8416
6135.895, 806.6279
6137.823, 796.4293
6139.751, 784.3871
6141.680, 793.2698
6143.608, 785.8586
6145.537, 763.6537
6147.465, 757.5356
6149.394, 772.5630
6151.322, 794.7804
6153.250, 801.6129
6155.179, 807.2308
6157.107, 800.1473
6159.036, 795.9473
6160.964, 798.5852
6162.893, 802.1223
6164.821, 793.2943
6166.750, 800.3831
6168.678, 797.1368
6170.607, 791.2504
6172.535, 793.2768
6174.464, 795.7526
6176.392, 835.6187
6178.321, 801.9695
6180.249, 789.1005
6182.178, 803.0992
6184.106, 777.0225
6186.035, 783.6132
6187.963, 783.2340
6189.892, 778.6213
6191.820, 784.6411
6193.749, 801.4296
6195.677, 801.4255
6197.605, 794.7197
6199.534, 773.8536
6201.462, 771.1852
6203.391, 786.4349
6205.319, 795.0957
6207.248, 792.0440
6209.176, 800.5345
6211.104, 777.2373
6213.033, 769.0838
6214.961, 798.7720
6216.890, 813.3993
6218.818, 792.5379
6220.747, 774.9459
6222.675, 769.6248
6224.604, 781.4484
6226.532, 802.4153
6228.461, 789.5443
6230.389, 804.8186
6232.318, 788.2020
6234.246, 782.1481
6236.175, 797.2874
6238.103, 796.3456
6240.032, 785.9037
6241.960, 789.7896
6243.889, 781.4170
6245.817, 783.3875
6247.746, 801.6176
6249.674, 796.8050
6251.603, 811.4673
6253.531, 803.3840
6255.459, 791.7285
6257.388, 797.4174
6259.316, 817.6128
6261.245, 812.6207
6263.173, 801.6974
6265.102, 803.5262
6267.030, 795.2529
6268.958, 787.8320
6270.887, 801.1562
6272.815, 805.5277
6274.744, 805.4500
6276.672, 812.5430
6278.601, 811.1594
6280.529, 799.4316
6282.458, 789.6749
6284.386, 797.0085
6286.315, 791.0842
6288.243, 796.9490
6290.172, 792.2830
6292.100, 793.4201
6294.029, 824.0123
6295.957, 786.8389
6297.886, 796.6043
6299.814, 793.7623
6301.743, 796.6502
6303.671, 798.5099
6305.600, 779.3893
6307.528, 818.6109
6309.457, 814.5226
6311.385, 797.3182
6313.313, 792.0332
6315.242, 787.4886
6317.170, 769.0059
6319.099, 789.9842
6321.027, 773.1089
6322.956, 810.0244
6324.884, 817.9902
6326.813, 788.2567
6328.741, 777.2563
6330.669, 791.4635
6332.598, 806.4410
6334.526, 827.7310
6336.455, 835.8638
6338.383, 822.6060
6340.312, 805.3665
6342.240, 841.9996
6344.169, 782.0463
6346.097, 805.0710
6348.026, 823.5954
6349.954, 821.6770
6351.883, 816.7413
6353.811, 792.8669
6355.740, 791.0416
6357.668, 783.7674
6359.597, 804.3341
6361.525, 826.2671
6363.454, 827.0137
6365.382, 813.5734
6367.311, 792.7683
6369.239, 796.7565
6371.167, 801.8623
6373.096, 815.2872
6375.024, 822.1348
6376.953, 810.5319
6378.881, 826.3665
6380.810, 780.1529
6382.738, 770.0013
6384.667, 777.9830
6386.595, 793.3033
6388.523, 797.3973
6390.452, 758.1118
6392.380, 782.2813
6394.309, 777.9767
6396.237, 808.2788
6398.166, 814.6122
6400.094, 787.3911
6402.023, 773.3353
6403.951, 794.6485
6405.880, 811.5960
6407.808, 814.9043
6409.737, 818.9987
6411.665, 824.5267
6413.594, 816.0139
6415.522, 786.1135
6417.451, 803.4019
6419.379, 785.7892
6421.308, 812.7675
6423.236, 799.0231
6425.165, 791.0745
6427.093, 827.1525
6429.021, 787.9801
6430.950, 808.2774
6432.878, 793.3427
6434.807, 785.3536
6436.735, 803.8478
6438.664, 814.9904
6440.592, 795.6901
6442.521, 792.1324
6444.449, 815.1179
6446.377, 802.2554
6448.306, 821.4928
6450.234, 826.1781
6452.163, 813.8710
6454.091, 810.8519
6456.020, 734.7455
6457.948, 781.5562
6459.877, 767.4467
6461.805, 768.4040
6463.734, 792.1580
6465.662, 812.4696
6467.591, 819.4518
6469.519, 813.6869
6471.448, 795.3462
6473.376, 804.8546
6475.305, 815.1365
6477.233, 819.5805
6479.162, 820.7443
6481.090, 819.7192
6483.019, 819.2692
6484.947, 799.3060
6486.875, 784.1219
6488.804, 784.5098
6490.732, 784.5779
6492.661, 788.2814
6494.589, 809.1749
6496.518, 838.3932
6498.446, 789.6663
6500.375, 790.7472
6502.303, 784.7125
6504.231, 781.9810
6506.160, 773.3592
6508.088, 762.2396
6510.017, 792.0621
6511.945, 783.2103
6513.874, 805.8013
6515.802, 803.2949
6517.731, 789.6392
6519.659, 770.9017
6521.588, 760.5752
6523.516, 778.1729
6525.445, 780.2378
6527.373, 796.1493
6529.302, 776.6130
6531.230, 780.2222
6533.159, 782.7532
6535.087, 767.3044
6537.016, 758.0233
6538.944, 781.6658
6540.873, 778.8748
6542.801, 790.3221
6544.729, 781.2425
6546.658, 785.0637
6548.586, 797.6670
6550.515, 800.4590
6552.443, 791.2487
6554.372, 779.5464
6556.300, 787.6277
6558.229, 792.5422
6560.157, 773.6469
6562.085, 778.7792
6564.014, 801.6709
6565.942, 804.3185
6567.871, 782.0191
6569.799, 781.6605
6571.728, 769.7438
6573.656, 792.8561
6575.585, 806.4567
6577.513, 771.2477
6579.442, 737.4836
6581.370, 744.1794
6583.299, 751.6132
6585.227, 792.9245
##END=



