##NAMES=Hessite
##RRUFFID=R060226
##IDEAL CHEMISTRY=Ag_2_Te
##LOCALITY=Bambollita mine, Moctezuma, Sonora, Mexico
##OWNER=RRUFF
##SOURCE=Michael Scott
##DESCRIPTION=Grayish-black metallic bleb
##STATUS=The identification of this mineral has been confirmed by X-ray diffraction
##URL=https://www.rruff.net/odr/rruff_sample/R060226
##DIFFRACTION SAMPLE DESCRIPTION=Powder, using Mo radiation
##CELL PARAMETERS=a: 8.179 b: 4.482 c: 8.994 alpha: 90 beta: 124.09 gamma: 90 volume: 273 crystal system: monoclinic
##FILETYPE=Raman RAW
##RAMAN WAVELENGTH=532

100.3281, 581.9682
102.2566, 599.9202
104.1851, 615.4537
106.1135, 630.3243
108.0420, 651.8624
109.9705, 671.8416
111.8989, 691.9447
113.8274, 713.0891
115.7559, 732.7201
117.6843, 754.2825
119.6128, 775.9570
121.5413, 796.3755
123.4697, 815.7904
125.3982, 833.6432
127.3267, 849.1219
129.2551, 862.4675
131.1836, 875.6824
133.1121, 886.5837
135.0405, 897.1511
136.9690, 908.4493
138.8975, 920.6123
140.8259, 932.3542
142.7544, 942.9578
144.6829, 952.3839
146.6113, 961.8610
148.5398, 972.0297
150.4683, 982.1276
152.3967, 991.4305
154.3252, 999.4949
156.2537, 1007.415
158.1821, 1015.450
160.1106, 1023.649
162.0391, 1031.817
163.9675, 1039.714
165.8960, 1047.423
167.8245, 1054.934
169.7529, 1061.700
171.6814, 1068.207
173.6099, 1074.601
175.5383, 1081.046
177.4668, 1085.981
179.3953, 1089.549
181.3237, 1091.460
183.2522, 1091.888
185.1807, 1090.754
187.1091, 1088.829
189.0376, 1086.649
190.9661, 1084.576
192.8945, 1082.627
194.8230, 1080.917
196.7515, 1079.567
198.6799, 1078.690
200.6084, 1078.246
202.5369, 1078.154
204.4653, 1078.464
206.3938, 1079.220
208.3223, 1079.721
210.2507, 1079.743
212.1792, 1079.337
214.1077, 1078.649
216.0361, 1077.802
217.9646, 1076.706
219.8931, 1075.163
221.8215, 1072.957
223.7500, 1071.055
225.6785, 1069.960
227.6069, 1069.586
229.5354, 1068.347
231.4639, 1065.388
233.3923, 1062.207
235.3208, 1059.868
237.2493, 1059.011
239.1777, 1057.973
241.1062, 1056.262
243.0347, 1054.026
244.9631, 1052.505
246.8916, 1051.930
248.8201, 1052.040
250.7485, 1052.585
252.6770, 1053.978
254.6055, 1055.218
256.5339, 1055.994
258.4624, 1056.363
260.3909, 1056.818
262.3193, 1057.383
264.2478, 1057.982
266.1763, 1058.585
268.1047, 1059.424
270.0332, 1059.942
271.9617, 1059.752
273.8901, 1059.113
275.8186, 1058.901
277.7471, 1059.863
279.6755, 1060.964
281.6040, 1061.473
283.5325, 1061.143
285.4609, 1061.146
287.3894, 1062.181
289.3179, 1064.001
291.2463, 1065.167
293.1748, 1064.750
295.1033, 1064.272
297.0317, 1064.648
298.9602, 1065.821
300.8887, 1067.272
302.8171, 1068.924
304.7456, 1070.697
306.6741, 1072.373
308.6025, 1074.369
310.5310, 1075.950
312.4595, 1076.547
314.3879, 1075.983
316.3164, 1075.793
318.2449, 1076.800
320.1733, 1078.381
322.1018, 1078.859
324.0303, 1077.032
325.9587, 1075.641
327.8872, 1076.090
329.8157, 1078.853
331.7441, 1081.065
333.6726, 1081.895
335.6011, 1082.326
337.5295, 1083.917
339.4580, 1087.275
341.3865, 1090.458
343.3149, 1092.559
345.2434, 1093.116
347.1719, 1094.182
349.1003, 1096.228
351.0288, 1098.328
352.9573, 1099.682
354.8857, 1100.247
356.8142, 1100.472
358.7427, 1100.546
360.6711, 1100.563
362.5996, 1100.773
364.5281, 1101.135
366.4565, 1101.781
368.3850, 1102.796
370.3135, 1104.254
372.2419, 1105.616
374.1704, 1106.428
376.0989, 1107.010
378.0273, 1108.407
379.9558, 1111.138
381.8843, 1114.066
383.8127, 1116.656
385.7412, 1118.784
387.6697, 1121.431
389.5981, 1124.729
391.5266, 1128.430
393.4551, 1132.293
395.3835, 1136.679
397.3120, 1140.095
399.2405, 1141.865
401.1689, 1141.917
403.0974, 1141.514
405.0259, 1140.077
406.9543, 1138.664
408.8828, 1138.218
410.8113, 1139.039
412.7397, 1139.781
414.6682, 1140.262
416.5967, 1140.611
418.5251, 1141.018
420.4536, 1141.401
422.3821, 1141.995
424.3105, 1142.777
426.2390, 1143.682
428.1675, 1145.156
430.0959, 1147.886
432.0244, 1150.795
433.9529, 1152.605
435.8813, 1152.486
437.8098, 1152.867
439.7383, 1154.686
441.6667, 1157.535
443.5952, 1160.247
445.5237, 1162.684
447.4521, 1165.000
449.3806, 1167.244
451.3091, 1169.398
453.2375, 1171.504
455.1660, 1173.907
457.0945, 1176.125
459.0229, 1177.569
460.9514, 1176.970
462.8799, 1176.891
464.8083, 1178.090
466.7368, 1180.279
468.6653, 1181.934
470.5938, 1182.445
472.5222, 1182.920
474.4507, 1184.069
476.3792, 1186.991
478.3076, 1188.750
480.2361, 1188.220
482.1646, 1187.033
484.0930, 1187.287
486.0215, 1189.571
487.9500, 1192.178
489.8784, 1194.509
491.8069, 1196.500
493.7354, 1198.560
495.6638, 1200.477
497.5923, 1202.490
499.5208, 1204.982
501.4492, 1208.166
503.3777, 1210.479
505.3062, 1211.180
507.2346, 1211.213
509.1631, 1211.881
511.0916, 1213.596
513.0200, 1215.347
514.9485, 1216.572
516.8770, 1217.575
518.8054, 1219.484
520.7339, 1223.895
522.6624, 1227.888
524.5908, 1229.752
526.5193, 1228.955
528.4478, 1229.228
530.3762, 1231.334
532.3047, 1234.216
534.2332, 1237.015
536.1616, 1240.151
538.0901, 1242.311
540.0186, 1242.995
541.9470, 1242.707
543.8755, 1242.829
545.8040, 1243.755
547.7324, 1245.040
549.6609, 1246.781
551.5894, 1249.209
553.5178, 1251.266
555.4463, 1251.667
557.3748, 1252.560
559.3032, 1255.851
561.2317, 1261.584
563.1602, 1266.628
565.0886, 1269.641
567.0171, 1271.563
568.9456, 1273.482
570.8740, 1275.064
572.8025, 1277.043
574.7310, 1279.848
576.6594, 1283.293
578.5879, 1286.669
580.5164, 1289.879
582.4448, 1293.269
584.3733, 1297.128
586.3018, 1301.612
588.2302, 1305.498
590.1587, 1307.466
592.0872, 1309.789
594.0156, 1314.493
595.9441, 1322.005
597.8726, 1328.415
599.8010, 1332.291
601.7295, 1334.877
603.6580, 1337.621
605.5864, 1339.896
607.5149, 1343.157
609.4434, 1348.657
611.3718, 1355.261
613.3003, 1360.557
615.2288, 1363.381
617.1572, 1366.217
619.0857, 1369.914
621.0142, 1374.546
622.9426, 1379.282
624.8711, 1384.517
626.7996, 1389.518
628.7280, 1393.726
630.6565, 1397.062
632.5850, 1400.809
634.5134, 1405.746
636.4419, 1410.808
638.3704, 1414.878
640.2988, 1417.191
642.2273, 1420.276
644.1558, 1425.063
646.0842, 1430.552
648.0127, 1435.567
649.9412, 1440.426
651.8696, 1444.048
653.7981, 1445.235
655.7266, 1444.943
657.6550, 1446.777
659.5835, 1451.773
661.5120, 1457.627
663.4404, 1464.115
665.3689, 1471.139
667.2974, 1477.576
669.2258, 1481.994
671.1543, 1486.923
673.0828, 1493.418
675.0112, 1501.597
676.9397, 1509.474
678.8682, 1516.697
680.7966, 1523.254
682.7251, 1529.363
684.6536, 1535.165
686.5820, 1539.424
688.5105, 1541.250
690.4390, 1542.286
692.3674, 1544.371
694.2959, 1548.080
696.2244, 1551.767
698.1528, 1555.683
700.0813, 1559.443
702.0098, 1562.339
703.9382, 1563.316
705.8667, 1565.316
707.7952, 1569.636
709.7236, 1575.270
711.6521, 1579.473
713.5806, 1581.315
715.5090, 1583.401
717.4375, 1587.044
719.3660, 1591.613
721.2944, 1595.210
723.2229, 1596.910
725.1514, 1598.182
727.0798, 1599.236
729.0083, 1600.015
730.9368, 1600.736
732.8652, 1602.448
734.7937, 1602.846
736.7222, 1600.532
738.6506, 1595.674
740.5791, 1590.879
742.5076, 1586.378
744.4360, 1582.034
746.3645, 1577.919
748.2930, 1574.097
750.2214, 1569.936
752.1499, 1565.606
754.0784, 1560.858
756.0068, 1555.656
757.9353, 1550.087
759.8638, 1544.111
761.7922, 1536.806
763.7207, 1529.852
765.6492, 1524.664
767.5776, 1521.715
769.5061, 1518.451
771.4346, 1513.351
773.3630, 1508.375
775.2915, 1505.326
777.2200, 1505.056
779.1484, 1503.291
781.0769, 1498.378
783.0054, 1492.394
784.9338, 1487.720
786.8623, 1485.253
788.7908, 1482.189
790.7192, 1477.625
792.6477, 1472.717
794.5762, 1468.555
796.5046, 1465.150
798.4331, 1462.558
800.3616, 1461.056
802.2900, 1460.195
804.2185, 1459.336
806.1470, 1457.943
808.0754, 1457.625
810.0039, 1459.424
811.9324, 1462.042
813.8608, 1463.810
815.7893, 1464.300
817.7178, 1464.678
819.6462, 1465.293
821.5747, 1465.809
823.5032, 1465.710
825.4316, 1464.361
827.3601, 1463.409
829.2886, 1463.476
831.2170, 1464.043
833.1455, 1464.297
835.0740, 1464.076
837.0024, 1464.246
838.9309, 1465.008
840.8594, 1466.265
842.7878, 1467.910
844.7163, 1471.313
846.6448, 1473.259
848.5732, 1471.924
850.5017, 1469.653
852.4302, 1469.977
854.3586, 1473.768
856.2871, 1477.068
858.2156, 1478.299
860.1440, 1478.716
862.0725, 1479.729
864.0010, 1481.211
865.9294, 1483.468
867.8579, 1487.090
869.7864, 1491.070
871.7148, 1494.092
873.6433, 1495.979
875.5718, 1497.345
877.5002, 1498.084
879.4287, 1498.411
881.3572, 1498.616
883.2856, 1499.051
885.2141, 1498.818
887.1426, 1497.139
889.0710, 1495.490
890.9995, 1495.685
892.9280, 1498.190
894.8564, 1500.245
896.7849, 1500.661
898.7134, 1501.194
900.6418, 1503.259
902.5703, 1507.183
904.4988, 1510.501
906.4272, 1512.177
908.3557, 1513.511
910.2842, 1515.159
912.2126, 1516.998
914.1411, 1518.942
916.0696, 1521.670
917.9980, 1523.748
919.9265, 1524.199
921.8550, 1523.274
923.7834, 1522.591
925.7119, 1522.609
927.6404, 1523.134
929.5688, 1524.613
931.4973, 1527.162
933.4258, 1528.673
935.3542, 1526.928
937.2827, 1526.610
939.2112, 1530.320
941.1396, 1536.683
943.0681, 1541.681
944.9966, 1543.972
946.9250, 1546.470
948.8535, 1550.683
950.7820, 1555.708
952.7104, 1559.071
954.6389, 1558.647
956.5674, 1559.054
958.4958, 1561.803
960.4243, 1565.521
962.3528, 1567.728
964.2813, 1568.125
966.2097, 1568.989
968.1382, 1571.350
970.0667, 1574.451
971.9951, 1577.605
973.9236, 1580.959
975.8521, 1583.707
977.7805, 1585.098
979.7090, 1586.091
981.6375, 1587.110
983.5659, 1587.874
985.4944, 1589.498
987.4229, 1593.746
989.3513, 1597.215
991.2798, 1597.566
993.2083, 1595.474
995.1367, 1594.404
997.0652, 1595.545
998.9937, 1597.220
1000.922, 1598.943
1002.851, 1600.784
1004.779, 1602.920
1006.708, 1605.174
1008.636, 1607.550
1010.564, 1609.673
1012.493, 1611.741
1014.421, 1614.276
1016.350, 1617.400
1018.278, 1620.301
1020.207, 1623.402
1022.135, 1625.937
1024.064, 1626.921
1025.992, 1625.471
1027.921, 1625.510
1029.849, 1628.457
1031.778, 1631.911
1033.706, 1634.003
1035.635, 1634.596
1037.563, 1636.201
1039.491, 1639.210
1041.420, 1642.503
1043.348, 1645.707
1045.277, 1648.631
1047.205, 1650.765
1049.134, 1651.789
1051.062, 1652.663
1052.991, 1654.048
1054.919, 1655.673
1056.848, 1656.870
1058.776, 1656.959
1060.705, 1658.281
1062.633, 1661.861
1064.562, 1666.160
1066.490, 1669.468
1068.418, 1671.616
1070.347, 1674.205
1072.275, 1677.849
1074.204, 1681.167
1076.132, 1683.169
1078.061, 1683.868
1079.989, 1685.287
1081.918, 1688.549
1083.846, 1691.320
1085.775, 1693.000
1087.703, 1693.869
1089.632, 1694.604
1091.560, 1695.510
1093.489, 1695.709
1095.417, 1694.195
1097.345, 1692.721
1099.274, 1693.067
1101.202, 1695.473
1103.131, 1697.621
1105.059, 1698.488
1106.988, 1699.769
1108.916, 1702.136
1110.845, 1705.451
1112.773, 1709.130
1114.702, 1713.448
1116.630, 1717.274
1118.559, 1720.409
1120.487, 1722.730
1122.416, 1723.970
1124.344, 1723.924
1126.272, 1724.170
1128.201, 1725.357
1130.129, 1726.932
1132.058, 1728.767
1133.986, 1730.933
1135.915, 1732.319
1137.843, 1731.184
1139.772, 1731.114
1141.700, 1734.003
1143.629, 1738.934
1145.557, 1742.561
1147.486, 1743.567
1149.414, 1745.298
1151.343, 1749.230
1153.271, 1753.376
1155.199, 1755.238
1157.128, 1754.791
1159.056, 1755.255
1160.985, 1757.280
1162.913, 1760.190
1164.842, 1764.365
1166.770, 1769.437
1168.699, 1772.720
1170.627, 1772.365
1172.556, 1773.278
1174.484, 1777.104
1176.413, 1782.195
1178.341, 1786.373
1180.270, 1788.954
1182.198, 1792.139
1184.126, 1797.022
1186.055, 1801.154
1187.983, 1802.299
1189.912, 1801.474
1191.840, 1802.521
1193.769, 1807.124
1195.697, 1810.575
1197.626, 1810.581
1199.554, 1809.419
1201.483, 1809.454
1203.411, 1810.972
1205.340, 1813.335
1207.268, 1815.908
1209.197, 1819.686
1211.125, 1825.906
1213.053, 1833.767
1214.982, 1839.034
1216.910, 1840.160
1218.839, 1840.948
1220.767, 1841.554
1222.696, 1842.521
1224.624, 1845.157
1226.553, 1849.676
1228.481, 1852.719
1230.410, 1853.583
1232.338, 1853.781
1234.267, 1852.999
1236.195, 1852.057
1238.124, 1853.945
1240.052, 1860.402
1241.980, 1865.714
1243.909, 1868.553
1245.837, 1870.228
1247.766, 1871.561
1249.694, 1872.512
1251.623, 1873.949
1253.551, 1875.827
1255.480, 1878.414
1257.408, 1882.800
1259.337, 1887.537
1261.265, 1889.765
1263.194, 1888.882
1265.122, 1889.601
1267.051, 1894.249
1268.979, 1899.149
1270.907, 1902.224
1272.836, 1903.829
1274.764, 1905.497
1276.693, 1906.915
1278.621, 1909.294
1280.550, 1914.141
1282.478, 1919.091
1284.407, 1921.457
1286.335, 1920.449
1288.264, 1921.063
1290.192, 1923.801
1292.121, 1927.319
1294.049, 1931.994
1295.978, 1936.923
1297.906, 1940.258
1299.834, 1941.731
1301.763, 1943.458
1303.691, 1946.365
1305.620, 1948.971
1307.548, 1949.848
1309.477, 1949.815
1311.405, 1951.375
1313.334, 1955.515
1315.262, 1958.810
1317.191, 1959.345
1319.119, 1959.646
1321.048, 1961.327
1322.976, 1964.383
1324.905, 1968.440
1326.833, 1975.098
1328.761, 1980.497
1330.690, 1983.089
1332.618, 1984.490
1334.547, 1986.817
1336.475, 1990.487
1338.404, 1993.213
1340.332, 1994.226
1342.261, 1995.314
1344.189, 1997.390
1346.118, 1999.829
1348.046, 2001.318
1349.975, 2001.609
1351.903, 2002.777
1353.832, 2005.790
1355.760, 2008.949
1357.688, 2011.423
1359.617, 2013.432
1361.545, 2015.451
1363.474, 2017.554
1365.402, 2019.536
1367.331, 2021.198
1369.259, 2022.839
1371.188, 2024.662
1373.116, 2026.580
1375.045, 2028.195
1376.973, 2029.446
1378.902, 2030.474
1380.830, 2030.645
1382.759, 2031.290
1384.687, 2033.914
1386.615, 2038.339
1388.544, 2041.625
1390.472, 2043.543
1392.401, 2044.887
1394.329, 2045.220
1396.258, 2045.442
1398.186, 2046.376
1400.115, 2047.839
1402.043, 2049.132
1403.972, 2050.089
1405.900, 2050.989
1407.829, 2051.634
1409.757, 2052.560
1411.686, 2054.574
1413.614, 2057.638
1415.542, 2060.003
1417.471, 2060.924
1419.399, 2062.511
1421.328, 2065.783
1423.256, 2069.449
1425.185, 2072.299
1427.113, 2074.139
1429.042, 2075.218
1430.970, 2074.610
1432.899, 2074.312
1434.827, 2075.726
1436.756, 2077.269
1438.684, 2077.085
1440.613, 2075.188
1442.541, 2074.615
1444.469, 2075.221
1446.398, 2077.445
1448.326, 2081.977
1450.255, 2087.459
1452.183, 2092.304
1454.112, 2096.331
1456.040, 2101.143
1457.969, 2108.254
1459.897, 2112.749
1461.826, 2110.588
1463.754, 2107.248
1465.683, 2107.970
1467.611, 2112.171
1469.540, 2116.354
1471.468, 2120.371
1473.396, 2124.452
1475.325, 2129.342
1477.253, 2133.553
1479.182, 2135.504
1481.110, 2135.556
1483.039, 2136.109
1484.967, 2137.293
1486.896, 2138.910
1488.824, 2141.124
1490.753, 2143.665
1492.681, 2146.300
1494.610, 2149.165
1496.538, 2152.897
1498.467, 2158.228
1500.395, 2162.613
1502.323, 2165.351
1504.252, 2167.480
1506.180, 2169.297
1508.109, 2170.990
1510.037, 2173.060
1511.966, 2175.667
1513.894, 2178.590
1515.823, 2182.588
1517.751, 2186.252
1519.680, 2188.441
1521.608, 2190.157
1523.537, 2193.150
1525.465, 2197.609
1527.394, 2202.051
1529.322, 2206.519
1531.250, 2210.674
1533.179, 2214.415
1535.107, 2217.686
1537.036, 2219.942
1538.964, 2221.397
1540.893, 2224.754
1542.821, 2231.447
1544.750, 2237.148
1546.678, 2239.988
1548.607, 2241.907
1550.535, 2243.864
1552.464, 2246.030
1554.392, 2249.432
1556.321, 2254.622
1558.249, 2258.366
1560.177, 2259.257
1562.106, 2259.704
1564.034, 2261.086
1565.963, 2263.209
1567.891, 2265.597
1569.820, 2268.267
1571.748, 2271.598
1573.677, 2275.557
1575.605, 2279.891
1577.534, 2285.048
1579.462, 2289.688
1581.391, 2292.142
1583.319, 2292.555
1585.248, 2293.559
1587.176, 2296.211
1589.104, 2297.418
1591.033, 2294.578
1592.961, 2292.109
1594.890, 2292.887
1596.818, 2295.957
1598.747, 2298.563
1600.675, 2301.092
1602.604, 2301.758
1604.532, 2299.057
1606.461, 2296.601
1608.389, 2295.375
1610.318, 2295.516
1612.246, 2297.429
1614.175, 2301.264
1616.103, 2304.787
1618.031, 2308.011
1619.960, 2309.832
1621.888, 2307.899
1623.817, 2305.815
1625.745, 2306.068
1627.674, 2307.773
1629.602, 2308.691
1631.531, 2309.460
1633.459, 2308.439
1635.388, 2304.896
1637.316, 2301.418
1639.245, 2298.711
1641.173, 2296.737
1643.102, 2295.499
1645.030, 2294.992
1646.958, 2294.796
1648.887, 2295.192
1650.815, 2295.363
1652.744, 2294.113
1654.672, 2293.778
1656.601, 2296.199
1658.529, 2299.993
1660.458, 2302.667
1662.386, 2303.985
1664.315, 2305.237
1666.243, 2306.180
1668.172, 2307.492
1670.100, 2309.651
1672.029, 2312.034
1673.957, 2314.070
1675.885, 2315.960
1677.814, 2318.324
1679.742, 2321.126
1681.671, 2324.377
1683.599, 2328.352
1685.528, 2332.115
1687.456, 2335.188
1689.385, 2337.877
1691.313, 2340.777
1693.242, 2343.661
1695.170, 2345.053
1697.099, 2344.594
1699.027, 2343.572
1700.956, 2341.192
1702.884, 2339.605
1704.813, 2340.017
1706.741, 2341.644
1708.669, 2343.933
1710.598, 2346.876
1712.526, 2348.859
1714.455, 2348.680
1716.383, 2349.839
1718.312, 2353.948
1720.240, 2357.543
1722.169, 2358.349
1724.097, 2357.887
1726.026, 2358.278
1727.954, 2359.382
1729.883, 2359.914
1731.811, 2359.437
1733.740, 2359.010
1735.668, 2359.117
1737.596, 2359.317
1739.525, 2360.135
1741.453, 2361.142
1743.382, 2361.294
1745.310, 2360.722
1747.239, 2361.677
1749.167, 2364.567
1751.096, 2367.891
1753.024, 2371.020
1754.953, 2374.265
1756.881, 2378.247
1758.810, 2381.670
1760.738, 2382.368
1762.667, 2380.389
1764.595, 2380.127
1766.523, 2383.580
1768.452, 2386.100
1770.380, 2386.702
1772.309, 2387.856
1774.237, 2391.385
1776.166, 2395.385
1778.094, 2397.293
1780.023, 2397.219
1781.951, 2397.555
1783.880, 2398.188
1785.808, 2399.302
1787.737, 2401.335
1789.665, 2403.133
1791.594, 2404.052
1793.522, 2404.746
1795.450, 2405.690
1797.379, 2406.881
1799.307, 2408.767
1801.236, 2412.087
1803.164, 2413.151
1805.093, 2409.920
1807.021, 2407.890
1808.950, 2409.151
1810.878, 2411.785
1812.807, 2415.165
1814.735, 2418.820
1816.664, 2420.886
1818.592, 2421.040
1820.521, 2423.948
1822.449, 2431.136
1824.377, 2436.818
1826.306, 2438.291
1828.234, 2439.055
1830.163, 2441.110
1832.091, 2443.432
1834.020, 2444.625
1835.948, 2445.023
1837.877, 2446.260
1839.805, 2448.990
1841.734, 2449.937
1843.662, 2446.691
1845.591, 2445.012
1847.519, 2449.106
1849.448, 2454.044
1851.376, 2455.465
1853.304, 2454.649
1855.233, 2454.277
1857.161, 2454.468
1859.090, 2455.305
1861.018, 2457.243
1862.947, 2459.435
1864.875, 2461.074
1866.804, 2463.815
1868.732, 2469.036
1870.661, 2475.213
1872.589, 2480.256
1874.518, 2484.030
1876.446, 2487.681
1878.375, 2491.092
1880.303, 2493.073
1882.231, 2492.892
1884.160, 2492.217
1886.088, 2491.657
1888.017, 2491.346
1889.945, 2492.051
1891.874, 2493.407
1893.802, 2494.453
1895.731, 2495.350
1897.659, 2496.052
1899.588, 2495.055
1901.516, 2496.121
1903.445, 2501.128
1905.373, 2504.884
1907.302, 2504.796
1909.230, 2503.628
1911.158, 2503.500
1913.087, 2504.205
1915.015, 2505.414
1916.944, 2507.331
1918.872, 2508.342
1920.801, 2508.048
1922.729, 2507.918
1924.658, 2507.458
1926.586, 2508.011
1928.515, 2511.690
1930.443, 2514.937
1932.372, 2514.110
1934.300, 2511.322
1936.229, 2511.081
1938.157, 2513.297
1940.085, 2514.217
1942.014, 2513.060
1943.942, 2512.830
1945.871, 2514.875
1947.799, 2516.605
1949.728, 2516.316
1951.656, 2515.940
1953.585, 2517.786
1955.513, 2520.519
1957.442, 2520.658
1959.370, 2518.198
1961.299, 2519.020
1963.227, 2526.121
1965.156, 2530.828
1967.084, 2530.792
1969.012, 2531.158
1970.941, 2533.141
1972.869, 2535.555
1974.798, 2537.254
1976.726, 2538.844
1978.655, 2541.908
1980.583, 2546.279
1982.512, 2548.847
1984.440, 2549.540
1986.369, 2551.186
1988.297, 2555.355
1990.226, 2558.059
1992.154, 2557.140
1994.083, 2555.849
1996.011, 2554.826
1997.939, 2554.769
1999.868, 2556.659
2001.796, 2559.898
2003.725, 2563.611
2005.653, 2567.853
2007.582, 2571.311
2009.510, 2574.198
2011.439, 2576.003
2013.367, 2574.931
2015.296, 2575.015
2017.224, 2577.589
2019.153, 2581.076
2021.081, 2585.059
2023.010, 2588.596
2024.938, 2590.429
2026.866, 2590.805
2028.795, 2590.602
2030.723, 2589.979
2032.652, 2590.224
2034.580, 2592.388
2036.509, 2593.651
2038.437, 2591.160
2040.366, 2590.847
2042.294, 2596.851
2044.223, 2603.534
2046.151, 2606.174
2048.080, 2606.704
2050.008, 2608.769
2051.937, 2611.913
2053.865, 2612.984
2055.793, 2611.819
2057.722, 2611.438
2059.650, 2612.210
2061.579, 2613.874
2063.507, 2617.140
2065.436, 2619.733
2067.364, 2619.419
2069.293, 2618.919
2071.221, 2621.539
2073.150, 2624.947
2075.078, 2624.722
2077.007, 2621.354
2078.935, 2619.007
2080.864, 2617.959
2082.792, 2617.469
2084.720, 2618.093
2086.649, 2617.994
2088.577, 2615.935
2090.506, 2615.172
2092.434, 2618.006
2094.363, 2621.591
2096.291, 2623.290
2098.220, 2624.590
2100.148, 2627.669
2102.077, 2631.601
2104.005, 2634.098
2105.934, 2634.927
2107.862, 2633.866
2109.791, 2630.158
2111.719, 2626.384
2113.647, 2623.320
2115.576, 2620.320
2117.504, 2617.272
2119.433, 2615.302
2121.361, 2615.442
2123.290, 2616.678
2125.218, 2617.887
2127.147, 2619.419
2129.075, 2622.133
2131.004, 2625.529
2132.932, 2628.129
2134.861, 2629.664
2136.789, 2631.409
2138.718, 2634.062
2140.646, 2634.567
2142.574, 2629.601
2144.503, 2626.708
2146.431, 2629.820
2148.360, 2633.481
2150.288, 2634.409
2152.217, 2634.854
2154.145, 2637.742
2156.074, 2641.426
2158.002, 2641.896
2159.931, 2639.686
2161.859, 2639.749
2163.788, 2642.162
2165.716, 2642.726
2167.645, 2640.538
2169.573, 2639.588
2171.501, 2641.570
2173.430, 2643.303
2175.358, 2644.243
2177.287, 2644.430
2179.215, 2643.196
2181.144, 2641.876
2183.072, 2640.982
2185.001, 2640.853
2186.929, 2642.353
2188.858, 2644.985
2190.786, 2647.517
2192.715, 2649.925
2194.643, 2650.321
2196.572, 2648.460
2198.500, 2647.547
2200.428, 2648.398
2202.357, 2649.415
2204.285, 2650.213
2206.214, 2651.078
2208.142, 2651.804
2210.071, 2652.794
2211.999, 2654.755
2213.928, 2656.559
2215.856, 2656.792
2217.785, 2656.472
2219.713, 2657.204
2221.642, 2659.129
2223.570, 2663.143
2225.499, 2669.238
2227.427, 2671.379
2229.355, 2668.268
2231.284, 2668.267
2233.212, 2673.297
2235.141, 2677.401
2237.069, 2679.542
2238.998, 2679.500
2240.926, 2675.294
2242.855, 2671.818
2244.783, 2673.469
2246.712, 2675.754
2248.640, 2674.156
2250.569, 2671.312
2252.497, 2671.421
2254.426, 2673.374
2256.354, 2672.667
2258.282, 2669.979
2260.211, 2671.739
2262.139, 2678.140
2264.068, 2682.005
2265.996, 2681.773
2267.925, 2682.229
2269.853, 2684.836
2271.782, 2686.844
2273.710, 2687.609
2275.639, 2688.072
2277.567, 2688.580
2279.496, 2688.997
2281.424, 2689.269
2283.353, 2689.321
2285.281, 2688.749
2287.209, 2688.043
2289.138, 2688.179
2291.066, 2688.739
2292.995, 2688.806
2294.923, 2688.551
2296.852, 2687.968
2298.780, 2686.794
2300.709, 2688.499
2302.637, 2695.222
2304.566, 2699.432
2306.494, 2699.910
2308.423, 2699.739
2310.351, 2698.006
2312.280, 2698.131
2314.208, 2703.184
2316.136, 2706.832
2318.065, 2705.015
2319.993, 2702.166
2321.922, 2700.400
2323.850, 2700.016
2325.779, 2702.250
2327.707, 2705.402
2329.636, 2706.596
2331.564, 2706.425
2333.493, 2706.318
2335.421, 2706.289
2337.350, 2708.021
2339.278, 2711.296
2341.207, 2712.355
2343.135, 2710.998
2345.063, 2708.909
2346.992, 2705.844
2348.920, 2704.599
2350.849, 2706.966
2352.777, 2709.251
2354.706, 2710.497
2356.634, 2711.676
2358.563, 2712.222
2360.491, 2713.120
2362.420, 2715.626
2364.348, 2717.290
2366.277, 2715.974
2368.205, 2713.721
2370.134, 2712.340
2372.062, 2711.649
2373.990, 2711.327
2375.919, 2711.566
2377.847, 2712.999
2379.776, 2715.339
2381.704, 2716.520
2383.633, 2716.707
2385.561, 2718.621
2387.490, 2722.310
2389.418, 2725.531
2391.347, 2727.829
2393.275, 2730.857
2395.204, 2735.631
2397.132, 2738.357
2399.061, 2735.887
2400.989, 2735.359
2402.917, 2740.692
2404.846, 2743.684
2406.774, 2740.606
2408.703, 2738.109
2410.631, 2739.834
2412.560, 2742.273
2414.488, 2742.955
2416.417, 2743.944
2418.345, 2747.878
2420.274, 2752.002
2422.202, 2752.295
2424.131, 2751.212
2426.059, 2753.133
2427.988, 2756.523
2429.916, 2757.539
2431.844, 2756.990
2433.773, 2758.112
2435.701, 2760.411
2437.630, 2759.471
2439.558, 2755.026
2441.487, 2754.519
2443.415, 2759.262
2445.344, 2762.570
2447.272, 2764.334
2449.201, 2764.583
2451.129, 2762.351
2453.058, 2762.680
2454.986, 2767.356
2456.915, 2771.327
2458.843, 2773.522
2460.771, 2774.528
2462.700, 2773.760
2464.628, 2773.000
2466.557, 2772.183
2468.485, 2772.458
2470.414, 2775.388
2472.342, 2778.140
2474.271, 2778.964
2476.199, 2779.347
2478.128, 2780.237
2480.056, 2781.393
2481.985, 2782.757
2483.913, 2784.000
2485.842, 2784.466
2487.770, 2784.676
2489.698, 2785.448
2491.627, 2786.696
2493.555, 2788.982
2495.484, 2791.465
2497.412, 2790.996
2499.341, 2788.695
2501.269, 2789.641
2503.198, 2793.444
2505.126, 2794.718
2507.055, 2793.061
2508.983, 2793.148
2510.912, 2794.880
2512.840, 2795.681
2514.769, 2795.272
2516.697, 2795.866
2518.625, 2798.322
2520.554, 2799.496
2522.482, 2798.583
2524.411, 2797.677
2526.339, 2796.456
2528.268, 2796.501
2530.196, 2798.398
2532.125, 2800.501
2534.053, 2802.946
2535.982, 2804.031
2537.910, 2801.894
2539.839, 2800.211
2541.767, 2800.067
2543.696, 2800.251
2545.624, 2800.661
2547.552, 2800.770
2549.481, 2799.640
2551.409, 2799.669
2553.338, 2803.899
2555.266, 2807.739
2557.195, 2807.862
2559.123, 2807.388
2561.052, 2807.845
2562.980, 2809.443
2564.909, 2813.075
2566.837, 2816.784
2568.766, 2818.138
2570.694, 2818.898
2572.623, 2821.108
2574.551, 2823.603
2576.479, 2825.191
2578.408, 2826.161
2580.336, 2826.500
2582.265, 2827.062
2584.193, 2829.251
2586.122, 2832.694
2588.050, 2836.942
2589.979, 2841.353
2591.907, 2845.155
2593.836, 2847.648
2595.764, 2846.292
2597.693, 2842.192
2599.621, 2840.424
2601.550, 2840.677
2603.478, 2841.309
2605.406, 2842.330
2607.335, 2843.409
2609.263, 2844.583
2611.192, 2844.749
2613.120, 2843.980
2615.049, 2846.258
2616.977, 2851.473
2618.906, 2851.882
2620.834, 2847.705
2622.763, 2847.862
2624.691, 2852.847
2626.620, 2855.054
2628.548, 2853.684
2630.477, 2853.771
2632.405, 2855.879
2634.333, 2856.411
2636.262, 2855.132
2638.190, 2855.899
2640.119, 2859.253
2642.047, 2861.083
2643.976, 2860.556
2645.904, 2859.294
2647.833, 2856.350
2649.761, 2857.063
2651.690, 2862.835
2653.618, 2865.506
2655.547, 2863.533
2657.475, 2863.872
2659.404, 2868.419
2661.332, 2871.801
2663.260, 2873.418
2665.189, 2872.962
2667.117, 2869.363
2669.046, 2867.437
2670.974, 2868.532
2672.903, 2867.942
2674.831, 2864.298
2676.760, 2861.290
2678.688, 2859.735
2680.617, 2858.452
2682.545, 2857.135
2684.474, 2857.930
2686.402, 2862.222
2688.331, 2864.113
2690.259, 2861.039
2692.188, 2859.559
2694.116, 2861.086
2696.044, 2863.436
2697.973, 2866.866
2699.901, 2868.766
2701.830, 2867.585
2703.758, 2869.176
2705.687, 2877.171
2707.615, 2881.116
2709.544, 2875.988
2711.472, 2873.521
2713.401, 2875.036
2715.329, 2877.081
2717.258, 2879.688
2719.186, 2880.831
2721.115, 2879.749
2723.043, 2879.067
2724.971, 2879.607
2726.900, 2880.106
2728.828, 2880.241
2730.757, 2881.314
2732.685, 2883.242
2734.614, 2886.306
2736.542, 2891.731
2738.471, 2893.907
2740.399, 2890.866
2742.328, 2889.327
2744.256, 2890.205
2746.185, 2890.286
2748.113, 2888.949
2750.042, 2889.412
2751.970, 2893.871
2753.898, 2894.895
2755.827, 2890.788
2757.755, 2890.185
2759.684, 2893.961
2761.612, 2896.836
2763.541, 2898.273
2765.469, 2898.938
2767.398, 2898.440
2769.326, 2898.491
2771.255, 2898.952
2773.183, 2899.750
2775.112, 2900.781
2777.040, 2902.723
2778.969, 2905.844
2780.897, 2906.406
2782.825, 2904.276
2784.754, 2902.552
2786.682, 2901.272
2788.611, 2899.758
2790.539, 2898.267
2792.468, 2899.922
2794.396, 2904.218
2796.325, 2905.109
2798.253, 2902.965
2800.182, 2900.455
2802.110, 2898.162
2804.039, 2899.565
2805.967, 2903.326
2807.896, 2904.867
2809.824, 2904.554
2811.752, 2902.993
2813.681, 2900.810
2815.609, 2898.543
2817.538, 2897.460
2819.466, 2901.019
2821.395, 2906.317
2823.323, 2908.151
2825.252, 2907.870
2827.180, 2906.147
2829.109, 2905.318
2831.037, 2911.499
2832.966, 2917.230
2834.894, 2911.941
2836.823, 2904.386
2838.751, 2903.365
2840.679, 2904.984
2842.608, 2908.193
2844.536, 2909.592
2846.465, 2903.854
2848.393, 2899.262
2850.322, 2903.894
2852.250, 2907.750
2854.179, 2904.303
2856.107, 2901.003
2858.036, 2900.703
2859.964, 2902.165
2861.893, 2905.849
2863.821, 2909.300
2865.750, 2911.123
2867.678, 2913.179
2869.606, 2915.898
2871.535, 2917.973
2873.463, 2919.985
2875.392, 2919.325
2877.320, 2914.148
2879.249, 2911.955
2881.177, 2914.103
2883.106, 2915.760
2885.034, 2916.129
2886.963, 2917.067
2888.891, 2918.510
2890.820, 2919.419
2892.748, 2919.560
2894.677, 2919.735
2896.605, 2920.047
2898.533, 2921.207
2900.462, 2923.232
2902.390, 2925.103
2904.319, 2926.909
2906.247, 2928.340
2908.176, 2929.578
2910.104, 2931.000
2912.033, 2932.427
2913.961, 2934.009
2915.890, 2935.048
2917.818, 2933.825
2919.747, 2932.235
2921.675, 2933.188
2923.604, 2933.753
2925.532, 2929.713
2927.460, 2926.181
2929.389, 2928.618
2931.317, 2930.431
2933.246, 2927.082
2935.174, 2924.474
2937.103, 2925.884
2939.031, 2927.572
2940.960, 2928.589
2942.888, 2929.015
2944.817, 2928.263
2946.745, 2929.109
2948.674, 2934.677
2950.602, 2935.897
2952.531, 2930.770
2954.459, 2930.119
2956.387, 2934.650
2958.316, 2937.617
2960.244, 2938.094
2962.173, 2940.904
2964.101, 2945.487
2966.030, 2945.070
2967.958, 2941.210
2969.887, 2939.199
2971.815, 2938.662
2973.744, 2937.517
2975.672, 2937.185
2977.601, 2941.078
2979.529, 2945.494
2981.458, 2945.362
2983.386, 2944.149
2985.314, 2945.429
2987.243, 2946.227
2989.171, 2944.114
2991.100, 2942.245
2993.028, 2942.751
2994.957, 2943.103
2996.885, 2942.500
2998.814, 2941.673
3000.742, 2940.942
3002.671, 2939.349
3004.599, 2936.561
3006.528, 2934.483
3008.456, 2933.471
3010.385, 2932.743
3012.313, 2932.202
3014.241, 2934.337
3016.170, 2938.511
3018.098, 2941.837
3020.027, 2943.849
3021.955, 2943.004
3023.884, 2940.715
3025.812, 2940.247
3027.741, 2940.370
3029.669, 2939.431
3031.598, 2938.289
3033.526, 2937.672
3035.455, 2936.831
3037.383, 2934.448
3039.312, 2932.630
3041.240, 2932.684
3043.168, 2933.208
3045.097, 2934.632
3047.025, 2935.264
3048.954, 2934.898
3050.882, 2934.102
3052.811, 2932.205
3054.739, 2932.658
3056.668, 2935.231
3058.596, 2936.555
3060.525, 2936.353
3062.453, 2934.473
3064.382, 2931.595
3066.310, 2929.312
3068.239, 2928.076
3070.167, 2929.693
3072.095, 2931.463
3074.024, 2929.643
3075.952, 2927.332
3077.881, 2926.479
3079.809, 2926.419
3081.738, 2928.201
3083.666, 2928.546
3085.595, 2926.008
3087.523, 2923.671
3089.452, 2921.986
3091.380, 2921.801
3093.309, 2923.248
3095.237, 2924.237
3097.166, 2924.146
3099.094, 2926.010
3101.022, 2928.811
3102.951, 2929.516
3104.879, 2928.921
3106.808, 2928.884
3108.736, 2928.951
3110.665, 2928.738
3112.593, 2928.250
3114.522, 2927.694
3116.450, 2926.606
3118.379, 2922.851
3120.307, 2921.911
3122.236, 2926.031
3124.164, 2929.770
3126.093, 2931.121
3128.021, 2933.522
3129.949, 2937.014
3131.878, 2940.156
3133.806, 2942.586
3135.735, 2942.585
3137.663, 2940.972
3139.592, 2940.806
3141.520, 2941.015
3143.449, 2939.715
3145.377, 2937.783
3147.306, 2935.384
3149.234, 2933.625
3151.163, 2933.153
3153.091, 2933.388
3155.020, 2934.546
3156.948, 2935.323
3158.876, 2935.706
3160.805, 2934.535
3162.733, 2931.660
3164.662, 2932.319
3166.590, 2936.447
3168.519, 2938.537
3170.447, 2939.337
3172.376, 2942.082
3174.304, 2944.820
3176.233, 2944.256
3178.161, 2942.784
3180.090, 2941.633
3182.018, 2941.781
3183.947, 2944.716
3185.875, 2946.265
3187.803, 2942.772
3189.732, 2942.487
3191.660, 2946.611
3193.589, 2949.216
3195.517, 2949.845
3197.446, 2951.534
3199.374, 2953.327
3201.303, 2948.746
3203.231, 2942.166
3205.160, 2942.894
3207.088, 2943.986
3209.017, 2935.724
3210.945, 2929.452
3212.874, 2931.548
3214.802, 2935.770
3216.730, 2941.383
3218.659, 2943.879
3220.587, 2941.946
3222.516, 2940.681
3224.444, 2940.281
3226.373, 2938.273
3228.301, 2935.325
3230.230, 2933.940
3232.158, 2933.240
3234.087, 2930.904
3236.015, 2929.327
3237.944, 2931.782
3239.872, 2933.191
3241.801, 2930.207
3243.729, 2927.608
3245.657, 2927.164
3247.586, 2926.412
3249.514, 2925.438
3251.443, 2924.905
3253.371, 2924.765
3255.300, 2922.838
3257.228, 2919.972
3259.157, 2917.677
3261.085, 2916.026
3263.014, 2915.771
3264.942, 2915.045
3266.871, 2912.231
3268.799, 2909.376
3270.728, 2906.244
3272.656, 2905.629
3274.584, 2908.972
3276.513, 2907.273
3278.441, 2901.325
3280.370, 2898.168
3282.298, 2897.272
3284.227, 2898.867
3286.155, 2899.363
3288.084, 2891.686
3290.012, 2886.146
3291.941, 2891.865
3293.869, 2895.827
3295.798, 2894.460
3297.726, 2892.467
3299.655, 2890.226
3301.583, 2889.956
3303.511, 2891.306
3305.440, 2891.332
3307.368, 2890.286
3309.297, 2887.673
3311.225, 2885.813
3313.154, 2889.706
3315.082, 2891.269
3317.011, 2883.655
3318.939, 2879.201
3320.868, 2880.885
3322.796, 2882.946
3324.725, 2884.841
3326.653, 2889.705
3328.582, 2895.418
3330.510, 2891.485
3332.438, 2884.602
3334.367, 2884.160
3336.295, 2885.479
3338.224, 2886.156
3340.152, 2885.772
3342.081, 2883.452
3344.009, 2881.980
3345.938, 2881.302
3347.866, 2882.922
3349.795, 2885.922
3351.723, 2885.434
3353.652, 2883.316
3355.580, 2882.945
3357.509, 2883.208
3359.437, 2882.628
3361.365, 2883.006
3363.294, 2885.695
3365.222, 2886.956
3367.151, 2885.925
3369.079, 2884.939
3371.008, 2884.272
3372.936, 2887.606
3374.865, 2891.223
3376.793, 2885.145
3378.722, 2877.925
3380.650, 2877.918
3382.579, 2878.887
3384.507, 2878.749
3386.436, 2878.239
3388.364, 2877.404
3390.292, 2876.590
3392.221, 2875.733
3394.149, 2873.618
3396.078, 2871.765
3398.006, 2874.000
3399.935, 2876.874
3401.863, 2876.908
3403.792, 2877.859
3405.720, 2883.195
3407.649, 2884.906
3409.577, 2882.190
3411.506, 2880.583
3413.434, 2880.456
3415.363, 2882.587
3417.291, 2885.471
3419.219, 2886.829
3421.148, 2887.402
3423.076, 2887.501
3425.005, 2886.743
3426.933, 2884.764
3428.862, 2883.765
3430.790, 2884.404
3432.719, 2882.567
3434.647, 2879.747
3436.576, 2880.557
3438.504, 2881.404
3440.433, 2876.437
3442.361, 2872.371
3444.290, 2871.851
3446.218, 2872.695
3448.146, 2874.279
3450.075, 2876.491
3452.003, 2878.758
3453.932, 2880.030
3455.860, 2879.236
3457.789, 2872.734
3459.717, 2866.634
3461.646, 2865.931
3463.574, 2865.977
3465.503, 2865.993
3467.431, 2865.295
3469.360, 2863.738
3471.288, 2865.559
3473.217, 2868.295
3475.145, 2865.579
3477.073, 2861.463
3479.002, 2859.354
3480.930, 2857.746
3482.859, 2856.251
3484.787, 2856.008
3486.716, 2857.284
3488.644, 2858.688
3490.573, 2859.508
3492.501, 2857.656
3494.430, 2854.641
3496.358, 2850.588
3498.287, 2849.451
3500.215, 2855.299
3502.144, 2856.590
3504.072, 2851.365
3506.000, 2849.047
3507.929, 2849.017
3509.857, 2846.940
3511.786, 2846.576
3513.714, 2855.930
3515.643, 2861.712
3517.571, 2853.941
3519.500, 2850.736
3521.428, 2853.968
3523.357, 2856.821
3525.285, 2858.543
3527.214, 2856.422
3529.142, 2853.376
3531.071, 2852.519
3532.999, 2851.707
3534.927, 2850.071
3536.856, 2847.996
3538.784, 2845.688
3540.713, 2847.084
3542.641, 2850.570
3544.570, 2850.320
3546.498, 2848.974
3548.427, 2849.401
3550.355, 2848.184
3552.284, 2843.731
3554.212, 2840.759
3556.141, 2840.015
3558.069, 2834.432
3559.998, 2828.030
3561.926, 2831.398
3563.854, 2836.283
3565.783, 2834.889
3567.711, 2834.712
3569.640, 2837.355
3571.568, 2840.237
3573.497, 2842.710
3575.425, 2841.694
3577.354, 2839.161
3579.282, 2838.401
3581.211, 2837.957
3583.139, 2837.097
3585.068, 2837.549
3586.996, 2840.161
3588.925, 2841.166
3590.853, 2841.144
3592.781, 2843.273
3594.710, 2845.159
3596.638, 2842.817
3598.567, 2842.191
3600.495, 2848.004
3602.424, 2847.503
3604.352, 2840.788
3606.281, 2840.149
3608.209, 2842.200
3610.138, 2840.754
3612.066, 2837.798
3613.995, 2833.770
3615.923, 2831.410
3617.852, 2831.628
3619.780, 2832.699
3621.708, 2833.900
3623.637, 2830.833
3625.565, 2828.656
3627.494, 2834.564
3629.422, 2838.385
3631.351, 2833.084
3633.279, 2833.452
3635.208, 2838.965
3637.136, 2840.091
3639.065, 2839.091
3640.993, 2840.163
3642.922, 2840.267
3644.850, 2835.168
3646.779, 2834.741
3648.707, 2839.766
3650.635, 2846.086
3652.564, 2851.368
3654.492, 2849.530
3656.421, 2844.766
3658.349, 2838.745
3660.278, 2834.147
3662.206, 2831.401
3664.135, 2831.703
3666.063, 2834.115
3667.992, 2834.410
3669.920, 2834.456
3671.849, 2836.494
3673.777, 2837.219
3675.706, 2834.930
3677.634, 2836.478
3679.563, 2840.914
3681.491, 2836.212
3683.419, 2830.230
3685.348, 2833.135
3687.276, 2836.992
3689.205, 2838.653
3691.133, 2839.664
3693.062, 2839.868
3694.990, 2837.523
3696.919, 2834.606
3698.847, 2833.812
3700.776, 2834.453
3702.704, 2837.690
3704.633, 2838.260
3706.561, 2835.853
3708.490, 2832.675
3710.418, 2830.334
3712.346, 2833.029
3714.275, 2835.162
3716.203, 2833.108
3718.132, 2831.424
3720.060, 2830.584
3721.989, 2830.394
3723.917, 2830.388
3725.846, 2828.847
3727.774, 2828.505
3729.703, 2832.601
3731.631, 2832.423
3733.560, 2827.730
3735.488, 2829.780
3737.417, 2833.625
3739.345, 2829.238
3741.273, 2824.971
3743.202, 2827.028
3745.130, 2826.431
3747.059, 2823.282
3748.987, 2820.558
3750.916, 2819.238
3752.844, 2821.406
3754.773, 2823.628
3756.701, 2824.329
3758.630, 2822.360
3760.558, 2818.341
3762.487, 2820.428
3764.415, 2823.392
3766.344, 2819.381
3768.272, 2815.280
3770.200, 2815.051
3772.129, 2813.622
3774.057, 2811.398
3775.986, 2808.223
3777.914, 2807.096
3779.843, 2812.942
3781.771, 2816.488
3783.700, 2812.285
3785.628, 2813.150
3787.557, 2816.740
3789.485, 2814.764
3791.414, 2811.514
3793.342, 2810.332
3795.271, 2809.938
3797.199, 2810.320
3799.127, 2811.211
3801.056, 2811.342
3802.984, 2806.944
3804.913, 2802.275
3806.841, 2798.851
3808.770, 2800.070
3810.698, 2806.324
3812.627, 2806.195
3814.555, 2802.958
3816.484, 2799.938
3818.412, 2798.728
3820.341, 2800.432
3822.269, 2799.372
3824.198, 2795.961
3826.126, 2796.049
3828.054, 2795.289
3829.983, 2788.344
3831.911, 2781.332
3833.840, 2775.185
3835.768, 2777.444
3837.697, 2784.047
3839.625, 2784.395
3841.554, 2783.434
3843.482, 2784.271
3845.411, 2783.181
3847.339, 2779.759
3849.268, 2773.839
3851.196, 2768.339
3853.125, 2766.497
3855.053, 2767.378
3856.981, 2771.036
3858.910, 2771.484
3860.838, 2769.735
3862.767, 2771.464
3864.695, 2773.374
3866.624, 2772.817
3868.552, 2772.600
3870.481, 2772.923
3872.409, 2770.458
3874.338, 2767.525
3876.266, 2767.992
3878.195, 2769.206
3880.123, 2770.438
3882.052, 2771.969
3883.980, 2772.998
3885.908, 2770.753
3887.837, 2767.109
3889.765, 2762.431
3891.694, 2760.466
3893.622, 2761.790
3895.551, 2764.056
3897.479, 2765.290
3899.408, 2760.546
3901.336, 2757.790
3903.265, 2759.562
3905.193, 2763.893
3907.122, 2768.297
3909.050, 2764.650
3910.979, 2760.449
3912.907, 2760.214
3914.835, 2761.241
3916.764, 2762.795
3918.692, 2761.073
3920.621, 2758.277
3922.549, 2756.574
3924.478, 2755.734
3926.406, 2755.932
3928.335, 2754.198
3930.263, 2752.344
3932.192, 2755.025
3934.120, 2756.516
3936.049, 2752.629
3937.977, 2751.774
3939.906, 2753.601
3941.834, 2757.241
3943.762, 2758.897
3945.691, 2755.454
3947.619, 2751.672
3949.548, 2748.585
3951.476, 2751.642
3953.405, 2756.120
3955.333, 2756.888
3957.262, 2756.764
3959.190, 2756.442
3961.119, 2753.803
3963.047, 2750.591
3964.976, 2747.950
3966.904, 2750.526
3968.833, 2760.913
3970.761, 2758.790
3972.689, 2749.145
3974.618, 2752.218
3976.546, 2754.680
3978.475, 2747.501
3980.403, 2744.844
3982.332, 2746.621
3984.260, 2744.967
3986.189, 2743.060
3988.117, 2743.577
3990.046, 2743.970
3991.974, 2743.726
3993.903, 2741.247
3995.831, 2739.011
3997.760, 2740.509
3999.688, 2740.961
4001.616, 2739.259
4003.545, 2735.855
4005.473, 2732.473
4007.402, 2731.490
4009.330, 2732.274
4011.259, 2735.116
4013.187, 2731.994
4015.116, 2726.900
4017.044, 2728.136
4018.973, 2729.336
4020.901, 2727.925
4022.830, 2729.041
4024.758, 2731.367
4026.687, 2731.871
4028.615, 2729.883
4030.543, 2723.309
4032.472, 2721.640
4034.400, 2723.200
4036.329, 2721.243
4038.257, 2717.862
4040.186, 2713.183
4042.114, 2711.790
4044.043, 2713.016
4045.971, 2713.632
4047.900, 2714.613
4049.828, 2717.667
4051.757, 2714.316
4053.685, 2705.757
4055.614, 2702.943
4057.542, 2703.445
4059.470, 2707.718
4061.399, 2709.495
4063.327, 2708.457
4065.256, 2705.594
4067.184, 2703.473
4069.113, 2704.824
4071.041, 2704.760
4072.970, 2703.366
4074.898, 2706.007
4076.827, 2705.945
4078.755, 2696.194
4080.684, 2691.211
4082.612, 2692.180
4084.541, 2693.404
4086.469, 2692.659
4088.397, 2686.153
4090.326, 2684.945
4092.254, 2689.352
4094.183, 2690.895
4096.111, 2690.947
4098.040, 2690.358
4099.968, 2687.939
4101.896, 2684.279
4103.825, 2684.121
4105.754, 2684.293
4107.682, 2682.290
4109.610, 2681.847
4111.539, 2682.315
4113.468, 2678.118
4115.396, 2673.268
4117.324, 2668.989
4119.253, 2674.662
4121.182, 2686.692
4123.110, 2683.786
4125.038, 2677.429
4126.967, 2672.897
4128.896, 2671.642
4130.824, 2673.316
4132.752, 2678.138
4134.681, 2682.201
4136.609, 2683.199
4138.538, 2682.712
4140.466, 2681.405
4142.395, 2680.629
4144.323, 2680.655
4146.251, 2681.833
4148.180, 2681.045
4150.108, 2679.917
4152.037, 2682.704
4153.965, 2684.332
4155.894, 2683.455
4157.822, 2681.448
4159.751, 2680.341
4161.679, 2684.547
4163.607, 2685.234
4165.536, 2680.759
4167.465, 2683.332
4169.393, 2686.668
4171.321, 2683.272
4173.250, 2680.830
4175.179, 2680.643
4177.107, 2677.337
4179.035, 2675.393
4180.964, 2679.159
4182.893, 2683.207
4184.821, 2686.165
4186.749, 2683.512
4188.678, 2680.683
4190.606, 2681.339
4192.535, 2682.754
4194.463, 2683.531
4196.392, 2679.218
4198.320, 2675.817
4200.249, 2676.691
4202.177, 2672.799
4204.105, 2667.680
4206.034, 2667.700
4207.962, 2666.791
4209.891, 2663.700
4211.819, 2662.722
4213.748, 2663.132
4215.676, 2663.582
4217.604, 2666.099
4219.533, 2669.731
4221.462, 2670.066
4223.390, 2667.392
4225.318, 2661.019
4227.247, 2663.555
4229.176, 2670.490
4231.104, 2663.824
4233.032, 2658.647
4234.961, 2659.753
4236.890, 2663.572
4238.818, 2666.784
4240.746, 2663.293
4242.675, 2657.698
##END=



