##NAMES=Heterogenite
##RRUFFID=R050382
##IDEAL CHEMISTRY=Co^3+^O(OH)
##LOCALITY=Goodsprings, Nevada, USA
##OWNER=RRUFF
##SOURCE=University of Arizona Mineral Museum
##DESCRIPTION=Black massive, polytype 3R
##STATUS=The identification of this mineral has been confirmed by X-ray diffraction and chemical analysis
##URL=https://www.rruff.net/odr/rruff_sample/R050382
##MEASURED CHEMISTRY=(Co^3+^_0.90_Ni_0.03_As^5+^_0.03_Zn_0.03_Al_0.01_)O(OH)
##DIFFRACTION SAMPLE DESCRIPTION=Powder
##CELL PARAMETERS=a: 2.8646 b: 2.8646 c: 13.358 alpha: 90 beta: 90 gamma: 120 volume: 94.93 crystal system: hexagonal
##FILETYPE=Raman Processed
##RAMAN WAVELENGTH=532

204.9558, 105.6562
206.8843, 106.2784
208.8127, 107.0658
210.7412, 108.1778
212.6697, 109.1524
214.5981, 109.9220
216.5266, 110.5156
218.4551, 110.9620
220.3835, 110.9400
222.3120, 110.9849
224.2405, 111.4888
226.1689, 112.5748
228.0974, 113.5452
230.0259, 114.1134
231.9543, 114.3609
233.8828, 114.8297
235.8113, 115.7631
237.7397, 116.7321
239.6682, 117.4658
241.5967, 117.9198
243.5251, 118.3582
245.4536, 118.8445
247.3821, 119.3707
249.3105, 119.8869
251.2390, 120.2907
253.1675, 120.7445
255.0959, 121.3160
257.0244, 122.0073
258.9529, 122.8094
260.8813, 123.8565
262.8098, 125.0656
264.7383, 125.9929
266.6667, 126.5174
268.5952, 126.8650
270.5237, 127.1597
272.4521, 127.1365
274.3806, 127.4641
276.3091, 128.4332
278.2375, 129.8297
280.1660, 131.0128
282.0945, 131.8988
284.0229, 132.5544
285.9514, 132.9683
287.8799, 132.8370
289.8083, 132.9169
291.7368, 133.3945
293.6653, 134.1095
295.5938, 134.7309
297.5222, 135.0384
299.4507, 135.3828
301.3792, 136.0156
303.3076, 137.1019
305.2361, 137.8471
307.1646, 137.8615
309.0930, 137.4794
311.0215, 137.3261
312.9500, 137.7072
314.8784, 138.0908
316.8069, 138.2588
318.7354, 138.2121
320.6638, 138.2389
322.5923, 138.3388
324.5208, 138.5395
326.4492, 138.9226
328.3777, 139.7272
330.3062, 140.4436
332.2346, 140.7811
334.1631, 140.7815
336.0915, 141.0426
338.0200, 141.9342
339.9485, 143.0072
341.8769, 143.7923
343.8054, 144.2085
345.7339, 144.5032
347.6623, 144.5899
349.5908, 144.5090
351.5193, 144.7166
353.4477, 145.6157
355.3762, 146.5580
357.3047, 146.9318
359.2331, 146.5073
361.1616, 146.4543
363.0901, 147.5100
365.0185, 149.3229
366.9470, 150.3775
368.8755, 150.2144
370.8039, 149.7637
372.7324, 149.3136
374.6609, 148.8249
376.5893, 148.6038
378.5178, 149.0125
380.4463, 149.6509
382.3747, 149.8593
384.3032, 149.0830
386.2317, 148.4535
388.1601, 148.4417
390.0886, 148.9529
392.0171, 149.2383
393.9455, 148.9762
395.8740, 148.5867
397.8025, 148.4280
399.7309, 148.5919
401.6594, 148.7942
403.5879, 149.0419
405.5163, 149.3078
407.4448, 149.4648
409.3733, 149.3601
411.3017, 149.2727
413.2302, 149.3267
415.1587, 149.5249
417.0871, 149.8161
419.0156, 150.2173
420.9441, 150.6953
422.8725, 151.2199
424.8010, 151.8422
426.7295, 152.4214
428.6579, 152.9581
430.5864, 153.4209
432.5149, 153.6751
434.4433, 153.2231
436.3718, 152.9053
438.3003, 153.2615
440.2287, 155.2776
442.1572, 156.7382
444.0857, 157.2342
446.0141, 157.2163
447.9426, 157.4818
449.8711, 158.2588
451.7995, 159.1075
453.7280, 159.8398
455.6565, 160.4018
457.5849, 161.1427
459.5134, 162.4695
461.4419, 163.7010
463.3703, 164.3235
465.2988, 163.9612
467.2273, 163.7947
469.1557, 163.9658
471.0842, 164.4981
473.0127, 165.4032
474.9411, 166.8876
476.8696, 168.4497
478.7981, 169.9125
480.7265, 171.2931
482.6550, 172.4695
484.5835, 173.0636
486.5119, 173.6726
488.4404, 175.0323
490.3689, 177.4033
492.2973, 179.5055
494.2258, 180.9988
496.1543, 181.9830
498.0827, 182.6171
500.0112, 182.8408
501.9397, 182.7807
503.8681, 182.4483
505.7966, 181.8454
507.7251, 180.9180
509.6535, 179.2821
511.5820, 177.5246
513.5105, 176.0478
515.4390, 174.9424
517.3674, 174.0286
519.2959, 173.4641
521.2244, 173.0715
523.1528, 172.5325
525.0813, 171.7306
527.0098, 170.9460
528.9382, 170.2741
530.8667, 169.7292
532.7952, 169.2137
534.7236, 168.5641
536.6521, 168.0961
538.5806, 167.9868
540.5090, 168.2500
542.4375, 168.7920
544.3660, 169.9551
546.2944, 171.2658
548.2229, 171.9351
550.1514, 171.3897
552.0798, 171.2121
554.0083, 172.1248
555.9368, 173.7337
557.8652, 175.0118
559.7937, 175.6718
561.7222, 176.1248
563.6506, 176.3898
565.5791, 176.4308
567.5076, 176.7305
569.4360, 177.4622
571.3645, 178.4048
573.2930, 179.4697
575.2214, 180.9151
577.1499, 181.8612
579.0784, 181.8304
581.0068, 181.3438
582.9352, 181.3892
584.8637, 182.2519
586.7922, 182.9604
588.7206, 183.0337
590.6491, 182.5901
592.5776, 182.4223
594.5060, 182.7943
596.4345, 183.2044
598.3630, 183.4370
600.2914, 183.5030
602.2199, 183.6676
604.1484, 184.0911
606.0768, 184.5234
608.0053, 184.7999
609.9338, 184.8717
611.8622, 184.8500
613.7907, 184.6434
615.7192, 184.3877
617.6476, 184.2642
619.5761, 184.2830
621.5046, 184.4048
623.4330, 184.8504
625.3615, 185.4363
627.2900, 185.4590
629.2184, 183.9925
631.1469, 182.9254
633.0754, 183.2127
635.0038, 184.5344
636.9323, 185.2028
638.8608, 184.6755
640.7892, 183.7987
642.7177, 182.9885
644.6462, 182.3100
646.5746, 181.4927
648.5031, 180.3479
650.4316, 179.2084
652.3600, 178.4159
654.2885, 178.0497
656.2170, 177.5378
658.1454, 176.5380
660.0739, 175.4089
662.0024, 174.5893
663.9308, 174.3747
665.8593, 174.1293
667.7878, 173.8215
669.7162, 173.4368
671.6447, 172.9422
673.5732, 172.2053
675.5016, 171.5689
677.4301, 171.1696
679.3586, 170.9765
681.2870, 170.7128
683.2155, 170.2609
685.1440, 169.8519
687.0724, 169.7123
689.0009, 169.7705
690.9294, 169.5073
692.8578, 168.3586
694.7863, 167.3499
696.7148, 167.1372
698.6432, 168.1906
700.5717, 168.4631
702.5002, 167.3056
704.4286, 165.8356
706.3571, 164.9371
708.2856, 164.6764
710.2141, 164.3028
712.1425, 163.3410
714.0710, 162.3802
715.9995, 162.0101
717.9279, 163.0431
719.8564, 163.5051
721.7849, 162.9162
723.7133, 161.8546
725.6418, 161.0674
727.5703, 160.5881
729.4987, 160.2586
731.4272, 160.0878
733.3557, 159.9881
735.2841, 159.7795
737.2126, 159.3488
739.1411, 158.9189
741.0695, 158.5376
742.9980, 158.1865
744.9265, 157.8456
746.8549, 157.6363
748.7834, 157.2687
750.7119, 156.6548
752.6403, 155.8223
754.5688, 154.9299
756.4973, 153.4605
758.4257, 152.4667
760.3542, 152.6530
762.2827, 153.7003
764.2111, 154.3478
766.1396, 154.3125
768.0681, 154.0228
769.9965, 153.6599
771.9250, 153.2278
773.8535, 152.6406
775.7819, 151.6650
777.7104, 150.7873
779.6389, 150.3210
781.5673, 150.2158
783.4958, 150.0989
785.4243, 149.9349
787.3527, 149.7243
789.2812, 149.4001
791.2097, 148.8592
793.1381, 148.6317
795.0666, 149.0502
796.9951, 149.4646
798.9235, 149.4391
800.8520, 149.0134
802.7805, 148.5797
804.7089, 148.1891
806.6374, 147.8433
808.5659, 147.5470
810.4943, 147.3137
812.4228, 147.0831
814.3513, 146.9689
816.2797, 146.7455
818.2082, 146.0992
820.1367, 145.0057
822.0651, 144.2395
823.9936, 144.0536
825.9221, 144.1297
827.8505, 144.3495
829.7790, 144.8671
831.7075, 144.9946
833.6359, 144.4360
835.5644, 143.7699
837.4929, 143.4330
839.4213, 143.4495
841.3498, 143.4067
843.2783, 143.1830
845.2067, 142.9439
847.1352, 142.7755
849.0637, 142.6692
850.9921, 142.6561
852.9206, 142.9246
854.8491, 143.1193
856.7775, 142.8796
858.7060, 142.0981
860.6345, 141.7505
862.5629, 142.4834
864.4914, 143.1059
866.4199, 142.8330
868.3483, 141.6293
870.2768, 140.5876
872.2053, 139.8542
874.1337, 139.3115
876.0622, 138.9818
877.9907, 138.9171
879.9191, 138.7329
881.8476, 138.2597
883.7761, 137.8243
885.7045, 137.6367
887.6330, 137.6508
889.5615, 137.5814
891.4899, 137.3921
893.4184, 137.1156
895.3469, 136.6077
897.2753, 135.8750
899.2038, 135.7542
901.1323, 137.1118
903.0607, 138.1298
904.9892, 137.7803
906.9177, 136.4721
908.8461, 135.5648
910.7746, 135.0750
912.7031, 135.1058
914.6315, 135.9681
916.5600, 137.4158
918.4885, 138.2412
920.4169, 137.9159
922.3454, 137.6182
924.2739, 137.5304
926.2023, 137.6660
928.1308, 138.0348
930.0593, 138.7627
931.9877, 139.4446
933.9162, 140.0982
935.8447, 140.5896
937.7731, 140.6358
939.7016, 139.7490
941.6301, 139.2637
943.5585, 139.2680
945.4870, 139.7448
947.4155, 140.8590
949.3439, 142.8416
951.2724, 144.4292
953.2009, 145.1221
955.1293, 145.5196
957.0578, 146.1301
958.9863, 147.0150
960.9147, 147.6893
962.8432, 147.7654
964.7717, 147.8642
966.7001, 148.4031
968.6286, 149.4780
970.5571, 150.3430
972.4855, 150.5389
974.4140, 150.9481
976.3425, 152.3827
978.2709, 154.4959
980.1994, 155.7943
982.1279, 155.5923
984.0563, 155.4151
985.9848, 155.9196
987.9133, 156.9306
989.8417, 157.6808
991.7702, 157.9548
993.6987, 158.2636
995.6271, 158.6446
997.5556, 159.1387
999.4841, 159.8416
1001.413, 160.8318
1003.341, 161.7533
1005.269, 162.3187
1007.198, 162.8848
1009.126, 163.8119
1011.055, 165.1954
1012.983, 166.5357
1014.912, 167.7967
1016.840, 168.9545
1018.769, 169.9982
1020.697, 170.9185
1022.626, 171.6932
1024.554, 172.1871
1026.483, 172.7161
1028.411, 173.6483
1030.340, 174.7916
1032.268, 175.3499
1034.197, 174.6038
1036.125, 174.4044
1038.053, 175.6151
1039.982, 177.6661
1041.910, 179.2590
1043.839, 180.0845
1045.767, 180.8574
1047.696, 181.5005
1049.624, 182.1880
1051.553, 183.2505
1053.481, 184.7663
1055.410, 185.8348
1057.338, 185.6957
1059.267, 185.6659
1061.195, 186.6421
1063.124, 188.6707
1065.052, 190.3883
1066.980, 191.6938
1068.909, 192.6866
1070.837, 193.2363
1072.766, 193.4492
1074.694, 193.7727
1076.623, 194.2377
1078.551, 194.7556
1080.480, 195.0718
1082.408, 195.5798
1084.337, 196.8807
1086.265, 199.2068
1088.193, 201.0263
1090.122, 201.4770
1092.050, 201.7695
1093.979, 202.6922
1095.907, 204.3878
1097.836, 205.5966
1099.764, 205.7334
1101.693, 206.0750
1103.621, 207.1897
1105.550, 208.8626
1107.478, 210.4441
1109.407, 212.0268
1111.335, 213.2662
1113.264, 213.6999
1115.192, 213.9614
1117.120, 214.7732
1119.049, 216.2827
1120.977, 217.6701
1122.906, 218.6984
1124.834, 219.7070
1126.763, 220.8212
1128.691, 222.0341
1130.620, 223.4524
1132.548, 225.2247
1134.477, 226.9581
1136.405, 228.7806
1138.334, 230.3909
1140.262, 231.1921
1142.191, 230.9388
1144.119, 230.9907
1146.047, 231.8797
1147.976, 233.0738
1149.904, 234.1846
1151.833, 235.1847
1153.761, 236.4072
1155.690, 238.1451
1157.618, 239.8203
1159.547, 241.2550
1161.475, 242.4854
1163.404, 243.6031
1165.332, 244.5053
1167.261, 245.4680
1169.189, 246.4391
1171.118, 247.5198
1173.046, 248.9184
1174.974, 250.6246
1176.903, 252.0175
1178.831, 252.8275
1180.760, 253.6208
1182.688, 254.6679
1184.617, 255.9556
1186.545, 257.3563
1188.474, 259.1151
1190.402, 260.6427
1192.331, 261.6890
1194.259, 262.5461
1196.188, 263.4497
1198.116, 264.3439
1200.045, 265.3879
1201.973, 266.3339
1203.901, 267.6466
1205.830, 269.9661
1207.758, 272.7648
1209.687, 274.7625
1211.615, 275.6142
1213.544, 276.6318
1215.472, 278.2036
1217.401, 280.1318
1219.329, 282.4833
1221.258, 285.5225
1223.186, 287.6343
1225.115, 288.1090
1227.043, 288.4983
1228.972, 288.8462
1230.900, 289.4997
1232.828, 291.6524
1234.757, 296.2261
1236.685, 299.6298
1238.614, 300.1906
1240.542, 300.2541
1242.471, 301.7048
1244.399, 304.2666
1246.328, 306.3924
1248.256, 307.6785
1250.185, 309.0764
1252.113, 311.0775
1254.042, 313.3787
1255.970, 315.5273
1257.899, 317.4322
1259.827, 319.4877
1261.755, 322.0749
1263.684, 324.3751
1265.612, 325.7346
1267.541, 326.3349
1269.469, 327.3001
1271.398, 328.8232
1273.326, 330.3092
1275.255, 331.5729
1277.183, 332.8828
1279.112, 334.6749
1281.040, 336.9077
1282.969, 338.7083
1284.897, 339.7358
1286.826, 340.8518
1288.754, 342.5331
1290.682, 344.4926
1292.611, 346.2516
1294.539, 347.6929
1296.468, 349.4142
1298.396, 351.6148
1300.325, 353.9584
1302.253, 356.4334
1304.182, 358.9315
1306.110, 361.0276
1308.039, 361.8119
1309.967, 363.4325
1311.896, 366.8243
1313.824, 370.4512
1315.753, 373.1514
1317.681, 374.9427
1319.609, 376.2841
1321.538, 376.7845
1323.466, 377.6099
1325.395, 379.3774
1327.323, 381.5388
1329.252, 383.5037
1331.180, 385.2819
1333.109, 387.1269
1335.037, 389.1376
1336.966, 391.1928
1338.894, 393.3613
1340.823, 395.5322
1342.751, 397.4575
1344.680, 398.9575
1346.608, 400.6410
1348.536, 402.3026
1350.465, 404.3224
1352.393, 407.3137
1354.322, 410.8322
1356.250, 413.1875
1358.179, 413.4885
1360.107, 414.4961
1362.036, 416.9328
1363.964, 419.7338
1365.893, 422.2808
1367.821, 424.6182
1369.750, 426.8683
1371.678, 428.9381
1373.607, 431.1230
1375.535, 433.6631
1377.464, 436.1512
1379.392, 438.2619
1381.320, 440.0371
1383.249, 441.7564
1385.177, 443.4214
1387.106, 445.1290
1389.034, 447.0755
1390.963, 449.0082
1392.891, 450.5969
1394.820, 451.7826
1396.748, 453.4348
1398.677, 455.5122
1400.605, 458.1030
1402.534, 462.0092
1404.462, 465.8773
1406.391, 467.9057
1408.319, 467.6911
1410.247, 468.7800
1412.176, 472.5425
1414.104, 475.7643
1416.033, 477.1979
1417.961, 478.0158
1419.890, 479.7160
1421.818, 482.3177
1423.747, 484.7335
1425.675, 486.7718
1427.604, 488.8846
1429.532, 491.2085
1431.461, 493.7270
1433.389, 496.3237
1435.318, 498.9752
1437.246, 502.0836
1439.174, 506.2233
1441.103, 509.6126
1443.031, 510.7626
1444.960, 511.2313
1446.888, 512.7516
1448.817, 515.3729
1450.745, 518.0198
1452.674, 521.4263
1454.602, 523.7209
1456.531, 523.6322
1458.459, 522.9174
1460.388, 523.4504
1462.316, 525.3867
1464.245, 527.6056
1466.173, 530.5519
1468.101, 533.0895
1470.030, 534.3410
1471.958, 535.4098
1473.887, 537.6546
1475.815, 541.0851
1477.744, 543.4658
1479.672, 544.0812
1481.601, 544.8896
1483.529, 546.5629
1485.458, 548.4454
1487.386, 549.9067
1489.315, 551.0466
1491.243, 552.6138
1493.172, 555.1065
1495.100, 556.5112
1497.028, 555.1403
1498.957, 553.4210
1500.885, 553.2620
1502.814, 554.0854
1504.742, 554.2487
1506.671, 553.5267
1508.599, 553.2826
1510.528, 554.5981
1512.456, 555.6645
1514.385, 555.1507
1516.313, 553.7747
1518.242, 553.0681
1520.170, 553.1295
1522.099, 553.2482
1524.027, 553.7988
1525.955, 553.5619
1527.884, 551.2897
1529.812, 548.2950
1531.741, 546.9109
1533.669, 547.5225
1535.598, 546.9504
1537.526, 543.7427
1539.455, 541.2349
1541.383, 541.2230
1543.312, 541.5969
1545.240, 540.0690
1547.169, 536.5626
1549.097, 533.2639
1551.026, 530.1293
1552.954, 527.1733
1554.882, 524.9769
1556.811, 522.3813
1558.739, 518.3732
1560.668, 513.2829
1562.596, 508.5053
1564.525, 504.2543
1566.453, 500.0598
1568.382, 496.4743
1570.310, 492.4052
1572.239, 486.8623
1574.167, 480.7796
1576.096, 475.7855
1578.024, 472.0913
1579.953, 468.1153
1581.881, 463.4725
1583.809, 458.9252
1585.738, 455.1083
1587.666, 451.0493
1589.595, 445.5897
1591.523, 438.9540
1593.452, 432.8767
1595.380, 427.3310
1597.309, 422.5129
1599.237, 419.7987
1601.166, 416.4650
1603.094, 410.4847
1605.023, 403.1001
1606.951, 396.5831
1608.880, 390.9886
1610.808, 385.5329
1612.736, 380.2719
1614.665, 374.8539
1616.593, 368.7432
1618.522, 362.6827
1620.450, 357.3995
1622.379, 352.7360
1624.307, 348.3271
1626.236, 344.4094
1628.164, 339.5668
1630.093, 332.7099
1632.021, 325.8474
1633.950, 320.2636
1635.878, 315.3535
1637.807, 310.2941
1639.735, 305.0893
1641.663, 299.6600
1643.592, 293.8078
1645.520, 288.2136
1647.449, 283.2111
1649.377, 278.4330
1651.306, 273.3383
1653.234, 268.2305
1655.163, 264.3608
1657.091, 262.0626
1659.020, 258.8728
1660.948, 253.9476
1662.877, 248.7589
1664.805, 243.7321
1666.734, 238.9657
1668.662, 234.6087
1670.590, 230.6521
1672.519, 226.8011
1674.447, 223.0745
1676.376, 219.3792
1678.304, 215.4562
1680.233, 211.8309
1682.161, 208.9169
1684.090, 206.3552
1686.018, 203.6619
1687.947, 200.8208
1689.875, 197.5188
1691.804, 193.3334
1693.732, 189.7270
1695.661, 187.5963
1697.589, 185.6964
1699.517, 183.3405
1701.446, 180.6565
1703.374, 177.8271
1705.303, 174.8000
1707.231, 172.3047
1709.160, 170.7006
1711.088, 168.9975
1713.017, 166.7115
1714.945, 164.3569
1716.874, 162.2156
1718.802, 160.2968
1720.731, 158.6973
1722.659, 157.4818
1724.588, 155.9802
1726.516, 153.8193
1728.444, 151.9303
1730.373, 150.8340
1732.301, 149.9603
1734.230, 148.9420
1736.158, 147.8022
1738.087, 146.6079
1740.015, 145.3674
1741.944, 144.0212
1743.872, 142.3669
1745.801, 141.0037
1747.729, 140.5393
1749.658, 140.0757
1751.586, 138.6951
1753.515, 136.8033
1755.443, 135.5657
1757.371, 135.0445
1759.300, 134.6737
1761.228, 134.5140
1763.157, 134.2009
1765.085, 133.6325
1767.014, 132.8295
1768.942, 131.5946
1770.871, 130.2035
1772.799, 129.2984
1774.728, 128.9053
1776.656, 128.5465
1778.585, 128.2534
1780.513, 127.7870
1782.442, 126.7606
1784.370, 125.8852
1786.298, 125.8837
1788.227, 126.2617
1790.155, 126.0333
1792.084, 125.2280
1794.012, 124.9636
1795.941, 125.6654
1797.869, 125.8812
1799.798, 124.6768
1801.726, 123.5206
1803.655, 123.4298
1805.583, 123.7703
1807.512, 123.5883
1809.440, 122.9800
1811.369, 122.6065
1813.297, 122.5020
1815.225, 122.5940
1817.154, 123.1925
1819.082, 123.5498
1821.011, 123.0830
1822.939, 122.4467
1824.868, 122.4802
1826.796, 122.9483
1828.725, 122.7044
1830.653, 121.4196
1832.582, 120.8860
1834.510, 121.9604
1836.439, 122.6923
1838.367, 122.3374
1840.296, 121.8390
1842.224, 121.8104
1844.152, 122.0969
1846.081, 122.4820
1848.009, 123.0026
1849.938, 123.1730
1851.866, 122.5768
1853.795, 122.2881
1855.723, 122.7025
1857.652, 122.9800
1859.580, 122.5820
1861.509, 122.0372
1863.437, 121.8460
1865.366, 121.9905
1867.294, 122.4825
1869.223, 123.5573
1871.151, 123.9743
1873.079, 123.2543
1875.008, 122.6755
1876.936, 122.3939
1878.865, 122.4954
1880.793, 123.3778
1882.722, 124.4567
1884.650, 124.7768
1886.579, 124.4352
1888.507, 124.2690
1890.436, 124.3578
1892.364, 124.2661
1894.293, 123.6888
1896.221, 123.4058
1898.150, 124.0301
1900.078, 124.7384
1902.006, 124.8107
1903.935, 124.6175
1905.863, 124.8914
1907.792, 125.5618
1909.720, 125.7337
1911.649, 125.1538
1913.577, 124.9083
1915.506, 125.4120
1917.434, 125.9549
1919.363, 126.3637
1921.291, 126.6072
1923.220, 126.5132
1925.148, 126.2862
1927.077, 126.4425
1929.005, 127.0261
1930.933, 127.4044
1932.862, 127.4634
1934.790, 127.5272
1936.719, 127.7080
1938.647, 127.7384
1940.576, 127.2582
1942.504, 126.8458
1944.433, 127.1289
1946.361, 127.7746
1948.290, 128.0570
1950.218, 127.9674
1952.147, 127.7643
1954.075, 127.2633
1956.004, 127.3221
1957.932, 128.5160
1959.860, 129.4673
1961.789, 129.6021
1963.717, 129.4233
1965.646, 128.9434
1967.574, 128.5472
1969.503, 129.1337
1971.431, 130.4312
1973.360, 130.7648
1975.288, 129.8928
1977.217, 129.4861
1979.145, 129.9997
1981.074, 130.5323
1983.002, 131.0131
1984.931, 131.1767
1986.859, 130.4570
1988.787, 129.6489
1990.716, 129.8103
1992.644, 130.7445
1994.573, 131.7036
1996.501, 132.8387
1998.430, 133.3376
2000.358, 132.8309
2002.287, 132.2863
2004.215, 131.4849
2006.144, 131.0120
2008.072, 131.2655
2010.001, 131.7091
2011.929, 131.8562
2013.858, 131.9024
2015.786, 132.2695
2017.714, 132.9248
2019.643, 133.6290
2021.571, 134.4317
2023.500, 134.8505
2025.428, 134.7354
2027.357, 134.5004
2029.285, 134.1901
2031.214, 133.9189
2033.142, 133.5802
2035.071, 133.4464
2036.999, 133.9927
2038.928, 134.8992
2040.856, 135.3239
2042.785, 135.2472
2044.713, 135.3736
2046.641, 136.0542
2048.570, 136.2004
2050.499, 134.9999
2052.427, 134.4771
2054.355, 135.7001
2056.284, 136.9195
2058.212, 136.9841
2060.141, 136.7589
2062.069, 137.3091
2063.998, 138.2659
2065.926, 138.5564
2067.854, 138.2102
2069.783, 137.8093
2071.711, 137.3675
2073.640, 137.0705
2075.568, 137.0862
2077.497, 136.9574
2079.425, 136.2879
2081.354, 135.7886
2083.282, 135.9102
2085.211, 136.2887
2087.139, 136.6075
2089.068, 136.8904
2090.996, 137.3179
2092.925, 137.8521
2094.853, 137.6751
2096.781, 136.3329
2098.710, 135.6126
2100.638, 135.9902
2102.567, 136.0849
2104.495, 135.4097
2106.424, 134.8315
2108.352, 134.6802
2110.281, 134.7214
2112.209, 134.9193
2114.138, 135.1114
2116.066, 135.0126
2117.995, 134.7377
2119.923, 134.7641
2121.852, 135.0931
2123.780, 134.8530
2125.708, 133.7125
2127.637, 132.9814
2129.565, 133.1221
2131.494, 133.2195
2133.422, 133.0504
2135.351, 132.8551
2137.279, 132.4276
2139.208, 132.0888
2141.136, 131.7246
2143.065, 131.3360
2144.993, 130.8508
2146.922, 130.4903
2148.850, 130.0800
2150.779, 130.4385
2152.707, 130.4391
2154.635, 129.8130
2156.564, 129.5446
2158.492, 130.1192
2160.421, 130.4476
2162.349, 129.9445
2164.278, 129.4901
2166.206, 129.6734
2168.135, 129.8851
2170.063, 129.4497
2171.992, 128.8034
2173.920, 128.7994
2175.849, 129.1902
2177.777, 128.7898
2179.706, 127.6031
2181.634, 126.8569
2183.563, 126.6454
2185.491, 126.5420
2187.419, 126.5541
2189.348, 126.4353
2191.276, 125.9289
2193.205, 125.5945
2195.133, 126.0438
2197.062, 126.2979
2198.990, 125.2559
2200.919, 124.1378
2202.847, 124.5703
2204.776, 125.8062
2206.704, 126.2044
2208.633, 125.8507
2210.561, 125.4956
2212.490, 125.1073
2214.418, 125.1711
2216.346, 125.8890
2218.275, 125.8848
2220.203, 124.6138
2222.132, 123.5961
2224.060, 123.2866
2225.989, 123.3319
2227.917, 123.9310
2229.846, 124.4372
2231.774, 124.4735
2233.703, 124.1360
2235.631, 123.2325
2237.560, 122.1688
2239.488, 121.9218
2241.417, 122.3029
2243.345, 122.0197
2245.273, 121.1306
2247.202, 121.1041
2249.130, 122.1645
2251.059, 122.6910
2252.987, 122.2162
2254.916, 121.9735
2256.844, 122.5897
2258.773, 122.9000
2260.701, 122.3765
2262.630, 121.7018
2264.558, 120.5867
2266.487, 120.1492
2268.415, 120.0964
2270.344, 121.6914
2272.272, 122.5698
2274.200, 122.7700
2276.129, 120.2609
2278.057, 121.2503
2279.986, 120.8376
2281.914, 120.3675
2283.843, 121.8493
2285.771, 121.4148
2287.700, 121.2931
2289.628, 120.9991
2291.557, 121.0454
2293.485, 121.8648
2295.414, 122.4655
2297.342, 122.4252
2299.271, 122.4288
2301.199, 120.3192
2303.127, 122.0549
2305.056, 123.0740
2306.984, 123.4149
2308.913, 121.0465
2310.841, 122.1766
2312.770, 121.9046
2314.698, 121.5751
2316.627, 123.1977
2318.555, 121.6675
2320.484, 123.3011
2322.412, 124.2180
2324.341, 124.4568
2326.269, 121.9862
2328.198, 123.0142
2330.126, 122.6401
2332.054, 122.2086
2333.983, 123.7289
2335.911, 121.6524
2337.840, 123.1419
2339.768, 123.2078
2341.697, 123.9253
2343.625, 123.2320
2345.554, 122.9745
2347.482, 124.1281
2349.411, 122.0108
2351.339, 121.7551
2353.268, 122.4311
2355.196, 123.4221
2357.125, 123.4137
2359.053, 122.7268
2360.981, 122.5990
2362.910, 122.9761
2364.838, 122.9957
2366.767, 122.5715
2368.695, 122.3852
2370.624, 122.5363
2372.552, 122.6509
2374.481, 122.7005
2376.409, 122.8237
2378.338, 123.0106
2380.266, 123.4021
2382.195, 124.2519
2384.123, 124.8930
2386.052, 125.0778
2387.980, 124.9566
2389.908, 124.2708
2391.837, 123.6881
2393.765, 123.8147
2395.694, 124.1035
2397.622, 123.8901
2399.551, 123.7048
2401.479, 124.4572
2403.408, 125.5642
2405.336, 125.9383
2407.265, 125.8254
2409.193, 125.9668
2411.122, 126.3065
2413.050, 126.4696
2414.979, 126.4408
2416.907, 126.3266
2418.835, 126.0895
2420.764, 126.2922
2422.692, 127.0941
2424.621, 127.2964
2426.549, 126.5537
2428.478, 125.9937
2430.406, 125.8341
2432.335, 125.8827
2434.263, 126.1658
2436.192, 126.5592
2438.120, 127.1498
2440.049, 127.6718
2441.977, 128.1665
2443.906, 128.3729
2445.834, 127.9371
2447.762, 127.4443
2449.691, 127.0300
2451.619, 127.0428
2453.548, 128.4673
2455.476, 129.9030
2457.405, 129.2007
2459.333, 127.6510
2461.262, 127.3137
2463.190, 127.8108
2465.119, 128.5238
2467.047, 129.2608
2468.976, 129.4330
2470.904, 129.0938
2472.833, 128.3859
2474.761, 127.3223
2476.689, 127.6281
2478.618, 129.6468
2480.546, 130.7365
2482.475, 130.7837
2484.403, 130.9098
2486.332, 131.1861
2488.260, 131.5977
2490.189, 132.2083
2492.117, 132.6689
2494.046, 132.8771
2495.974, 132.9818
2497.903, 132.9543
2499.831, 132.8936
2501.760, 132.7366
2503.688, 132.7418
2505.616, 133.1186
2507.545, 133.4373
2509.473, 133.2633
2511.402, 133.3440
2513.330, 134.4216
2515.259, 135.3388
2517.187, 135.3132
2519.116, 134.9811
2521.044, 134.6050
2522.973, 134.3255
2524.901, 134.1207
2526.830, 134.2150
2528.758, 135.2465
2530.687, 136.3293
2532.615, 136.1418
2534.543, 135.4274
2536.472, 135.1664
2538.400, 135.3595
2540.329, 136.2985
2542.257, 137.5701
2544.186, 138.1412
2546.114, 138.2024
2548.043, 138.2817
2549.971, 138.3809
2551.900, 138.4498
2553.828, 138.5037
2555.757, 138.6409
2557.685, 138.8664
2559.614, 139.4332
2561.542, 140.2833
2563.470, 140.3469
2565.399, 139.5437
2567.327, 139.2575
2569.256, 139.5993
2571.184, 140.3602
2573.113, 141.8610
2575.041, 142.3750
2576.970, 141.6335
2578.898, 141.3673
2580.827, 141.8445
2582.755, 142.3283
2584.684, 142.8382
2586.612, 142.9987
2588.541, 142.1414
2590.469, 142.1293
2592.397, 143.5502
2594.326, 144.5837
2596.254, 144.9485
2598.183, 144.8325
2600.111, 143.8991
2602.040, 143.4304
2603.968, 144.2212
2605.897, 144.8514
2607.825, 144.7210
2609.754, 144.8144
2611.682, 145.5275
2613.611, 146.1004
2615.539, 146.2189
2617.468, 146.2089
2619.396, 145.8375
2621.324, 145.9563
2623.253, 147.7079
2625.181, 148.9480
2627.110, 148.2481
2629.038, 147.5052
2630.967, 147.3744
2632.895, 147.6267
2634.824, 148.5006
2636.752, 149.1732
2638.681, 148.9113
2640.609, 148.6331
2642.538, 149.0997
2644.466, 149.5479
2646.395, 149.5379
2648.323, 149.3319
2650.251, 148.8426
2652.180, 148.5487
2654.108, 148.9856
2656.037, 149.5330
2657.965, 149.7043
2659.894, 149.7541
2661.822, 149.7576
2663.751, 149.8814
2665.679, 150.2594
2667.608, 150.8068
2669.536, 151.5592
2671.465, 152.3108
2673.393, 153.0027
2675.322, 153.4581
2677.250, 153.3212
2679.178, 153.0654
2681.107, 153.0414
2683.035, 153.1909
2684.964, 153.6320
2686.892, 154.0447
2688.821, 154.0751
2690.749, 153.9442
2692.678, 153.8615
2694.606, 153.7745
2696.535, 153.2572
2698.463, 153.1064
2700.392, 154.6893
2702.320, 156.4564
2704.249, 156.6279
2706.177, 156.1598
2708.105, 155.7221
2710.034, 155.5622
2711.962, 156.1653
2713.891, 156.8950
2715.819, 157.0753
2717.748, 157.1026
2719.676, 157.4205
2721.605, 157.7661
2723.533, 157.8712
2725.462, 157.8682
2727.390, 157.7501
2729.319, 157.7404
2731.247, 158.1009
2733.176, 158.6276
2735.104, 159.3090
2737.032, 159.8521
2738.961, 160.1089
2740.889, 159.9389
2742.818, 158.4743
2744.746, 157.4278
2746.675, 158.6887
2748.603, 160.3911
2750.532, 161.4257
2752.460, 161.8089
2754.389, 161.1817
2756.317, 160.4758
2758.246, 160.1482
2760.174, 160.2260
2762.103, 161.2046
2764.031, 161.9437
2765.959, 161.3353
2767.888, 160.7625
2769.816, 160.8686
2771.745, 161.3459
2773.673, 162.4084
2775.602, 163.2454
2777.530, 163.2547
2779.459, 163.2518
2781.387, 163.6375
2783.316, 164.0006
2785.244, 164.0969
2787.173, 164.2452
2789.101, 164.6974
2791.030, 164.9815
2792.958, 164.7260
2794.886, 164.5893
2796.815, 164.7698
2798.743, 164.9888
2800.672, 165.1600
2802.600, 165.4133
2804.529, 166.1008
2806.457, 166.3057
2808.386, 165.7224
2810.314, 165.1394
2812.243, 164.5083
2814.171, 164.5789
2816.100, 166.1890
2818.028, 166.7916
2819.957, 165.7114
2821.885, 165.1846
2823.813, 165.4228
2825.742, 165.8586
2827.670, 166.4573
2829.599, 167.0652
2831.527, 167.7826
2833.456, 167.8448
2835.384, 167.1698
2837.313, 166.6583
2839.241, 166.4230
2841.170, 166.4404
2843.098, 168.1146
2845.027, 169.0722
2846.955, 169.3517
2848.884, 166.9218
2850.812, 167.9904
2852.740, 167.6570
2854.669, 167.2661
2856.597, 168.2527
2858.526, 166.9879
2860.454, 166.6886
2862.383, 167.0916
2864.311, 167.7311
2866.240, 168.5060
2868.168, 169.5542
2870.097, 170.3510
2872.025, 169.8173
2873.954, 168.8799
2875.882, 168.7971
2877.811, 168.7866
2879.739, 167.9144
2881.667, 167.0806
2883.596, 167.0314
2885.524, 167.2970
2887.453, 167.9066
2889.381, 168.1711
2891.310, 167.1461
2893.238, 166.7073
2895.167, 168.3090
2897.095, 169.7689
2899.024, 170.5825
2900.952, 170.6309
2902.881, 169.5040
2904.809, 168.8120
2906.738, 169.3156
2908.666, 169.5229
2910.594, 168.9113
2912.523, 169.0786
2914.451, 170.3200
2916.380, 170.6583
2918.308, 169.7519
2920.237, 168.8132
2922.165, 167.8076
2924.094, 167.7936
2926.022, 168.6568
2927.951, 168.7070
2929.879, 168.1663
2931.808, 168.7886
2933.736, 170.1284
2935.665, 170.5050
2937.593, 170.1822
2939.521, 169.5357
2941.450, 168.9246
2943.378, 169.1825
2945.307, 169.5517
2947.235, 168.8564
2949.164, 167.9759
2951.092, 167.8867
2953.021, 167.7925
2954.949, 166.6677
2956.878, 166.0188
2958.806, 167.3470
2960.735, 168.3463
2962.663, 168.0996
2964.592, 167.6122
2966.520, 166.9569
2968.448, 166.6826
2970.377, 167.2459
2972.305, 167.4717
2974.234, 167.2275
2976.162, 166.8865
2978.091, 166.4557
2980.019, 166.3235
2981.948, 166.5877
2983.876, 166.1774
2985.805, 165.2492
2987.733, 165.4782
2989.662, 166.4522
2991.590, 166.0105
2993.519, 164.9097
2995.447, 165.6620
2997.375, 166.8412
2999.304, 165.5455
3001.232, 163.7641
3003.161, 163.8353
3005.089, 164.3638
3007.018, 164.2588
3008.946, 163.9413
3010.875, 163.3355
3012.803, 163.1311
3014.732, 164.0246
3016.660, 164.7058
3018.589, 164.7984
3020.517, 164.7940
3022.446, 164.8357
3024.374, 164.5174
3026.302, 163.8179
3028.231, 162.3265
3030.159, 159.9518
3032.088, 159.4322
3034.016, 160.5699
3035.945, 160.9100
3037.873, 160.6428
3039.802, 160.8372
3041.730, 161.1873
3043.659, 161.0100
3045.587, 160.4992
3047.516, 159.5082
3049.444, 158.8266
3051.373, 159.6282
3053.301, 160.5361
3055.229, 161.0885
3057.158, 160.8618
3059.086, 158.7466
3061.015, 157.4060
3062.943, 157.8248
3064.872, 157.8245
3066.800, 156.9221
3068.729, 156.3188
3070.657, 156.2070
3072.586, 156.5574
3074.514, 157.3269
3076.443, 156.6222
3078.371, 154.9913
3080.300, 155.2057
3082.228, 156.4542
3084.156, 157.3953
3086.085, 157.3338
3088.013, 154.2491
3089.942, 151.1360
3091.870, 151.0437
3093.799, 151.5145
3095.727, 151.3411
3097.656, 150.8434
3099.584, 149.8745
3101.513, 149.1945
3103.441, 149.1035
3105.370, 149.1348
3107.298, 149.2706
3109.227, 149.3796
3111.155, 149.4350
3113.083, 149.2434
3115.012, 148.8186
3116.940, 148.1146
3118.869, 147.3801
3120.797, 147.3899
3122.726, 147.5331
3124.654, 146.6249
3126.583, 145.8199
3128.511, 146.4051
3130.440, 146.9122
3132.368, 146.5768
3134.297, 145.8503
3136.225, 144.7647
3138.154, 143.4406
3140.082, 141.6444
3142.010, 141.3874
3143.939, 143.3789
3145.867, 143.9651
3147.796, 143.2816
3149.724, 142.3838
3151.653, 141.4881
3153.581, 141.2245
3155.510, 141.2368
3157.438, 141.1128
3159.367, 140.7318
3161.295, 139.8389
3163.224, 138.9368
3165.152, 138.0115
3167.081, 137.8437
3169.009, 139.0627
3170.938, 139.3878
3172.866, 137.8797
3174.794, 137.1369
3176.723, 137.3062
3178.651, 137.7186
3180.580, 138.1474
3182.508, 137.3375
3184.437, 135.9297
3186.365, 135.4460
3188.294, 135.3060
3190.222, 134.8257
3192.151, 134.3255
3194.079, 134.0031
3196.008, 133.7966
3197.936, 133.7726
3199.865, 133.5865
3201.793, 133.0713
3203.721, 132.7190
3205.650, 132.5944
3207.578, 132.3989
3209.507, 132.0915
3211.435, 131.3107
3213.364, 130.3972
3215.292, 130.3068
3217.221, 130.5314
3219.149, 130.6586
3221.078, 130.4812
3223.006, 129.4458
3224.935, 128.7507
3226.863, 128.8597
3228.792, 129.1311
3230.720, 129.5437
3232.648, 129.5744
3234.577, 129.1768
3236.505, 128.7126
3238.434, 128.2136
3240.362, 127.7483
3242.291, 127.3595
3244.219, 127.1330
3246.148, 127.0381
3248.076, 127.4378
3250.005, 127.3186
3251.933, 125.4512
3253.862, 124.1893
3255.790, 124.1242
3257.719, 124.2392
3259.647, 124.3572
3261.575, 124.9489
3263.504, 125.9244
3265.432, 125.8827
3267.361, 125.1978
3269.289, 124.5500
3271.218, 124.0730
3273.146, 124.0788
3275.075, 124.1155
3277.003, 124.0756
3278.932, 123.7106
3280.860, 122.5718
3282.789, 122.1865
3284.717, 122.7609
3286.646, 122.7665
3288.574, 122.1597
3290.502, 121.4243
3292.431, 120.7967
3294.359, 121.1364
3296.288, 121.6227
3298.216, 121.2968
3300.145, 120.8412
3302.073, 120.4231
3304.002, 120.4392
3305.930, 121.4920
3307.859, 121.7500
3309.787, 121.0613
3311.716, 120.9032
3313.644, 121.1171
3315.573, 120.0946
3317.501, 118.8443
3319.429, 119.8083
3321.358, 121.0677
3323.286, 121.1393
3325.215, 120.7216
3327.143, 119.9009
3329.072, 119.1813
3331.000, 118.6011
3332.929, 118.4767
3334.857, 118.8143
3336.786, 119.5993
3338.714, 120.3904
3340.643, 119.6839
3342.571, 118.7479
3344.500, 119.6905
3346.428, 120.2297
3348.356, 118.6910
3350.285, 117.4328
3352.213, 117.0984
3354.142, 117.3324
3356.070, 118.1034
3357.999, 118.3814
3359.927, 118.2341
3361.856, 117.7786
3363.784, 117.4191
3365.713, 117.9204
3367.641, 118.3801
3369.570, 117.9415
3371.498, 117.7773
3373.427, 118.3424
3375.355, 118.3204
3377.283, 117.4014
3379.212, 117.0265
3381.140, 117.0037
3383.069, 116.3832
3384.997, 115.8090
3386.926, 116.4180
3388.854, 117.2307
3390.783, 117.8271
3392.711, 118.0625
3394.640, 117.6804
3396.568, 117.5275
3398.497, 117.6346
3400.425, 117.3452
3402.354, 116.7890
3404.282, 116.1940
3406.210, 115.9588
3408.139, 117.0218
3410.067, 117.7865
3411.996, 116.9341
3413.924, 116.1821
3415.853, 115.7544
3417.781, 116.1455
3419.710, 117.3554
3421.638, 117.8150
3423.567, 117.7479
3425.495, 117.6535
3427.424, 117.4382
3429.352, 116.7725
3431.281, 116.3690
3433.209, 116.5177
3435.137, 116.9922
3437.066, 117.9459
3438.994, 117.7400
3440.923, 116.7233
3442.851, 116.6635
3444.780, 117.0540
3446.708, 117.0193
3448.637, 117.1457
3450.565, 118.0521
3452.494, 118.7102
3454.422, 118.9434
3456.351, 118.5870
3458.279, 117.6609
3460.208, 116.6745
3462.136, 115.9901
3464.064, 117.1325
3465.993, 118.2316
3467.921, 117.2332
3469.850, 116.6356
3471.778, 117.4988
3473.707, 117.3394
3475.635, 115.5698
3477.564, 115.2654
3479.492, 116.0195
3481.421, 116.6551
3483.349, 117.0670
3485.278, 116.9378
3487.206, 116.8665
3489.135, 117.0733
3491.063, 117.5063
3492.991, 118.3849
3494.920, 118.0525
3496.848, 116.9507
3498.777, 116.8365
3500.705, 117.0367
3502.634, 116.4808
3504.562, 116.1269
3506.491, 116.5742
3508.419, 117.0622
3510.348, 117.5311
3512.276, 117.3993
3514.205, 116.9203
3516.133, 117.5397
3518.062, 118.3905
3519.990, 118.3120
3521.918, 117.9553
3523.847, 117.3844
3525.775, 117.3364
3527.704, 117.9572
3529.632, 117.3646
3531.561, 115.9745
3533.489, 116.1843
3535.418, 116.8512
3537.346, 116.4721
3539.275, 116.2926
3541.203, 117.0993
3543.132, 117.5647
3545.060, 117.4678
3546.989, 117.4977
3548.917, 117.6163
3550.845, 117.6111
3552.774, 117.5260
3554.702, 117.3699
3556.631, 117.1747
3558.559, 116.8663
3560.488, 116.9451
3562.416, 117.4960
3564.345, 118.3677
3566.273, 119.0044
3568.202, 117.6953
3570.130, 116.3652
3572.059, 116.7747
3573.987, 117.3207
3575.916, 117.5885
3577.844, 117.8595
3579.772, 118.1105
3581.701, 117.7933
3583.629, 117.3457
3585.558, 117.5123
3587.486, 117.7409
3589.415, 117.6505
3591.343, 117.8557
3593.272, 118.5564
3595.200, 118.9397
3597.129, 119.0069
3599.057, 118.7770
3600.986, 118.4660
3602.914, 118.2948
3604.843, 118.1133
3606.771, 117.8275
3608.699, 117.5662
3610.628, 117.3396
3612.556, 117.1160
3614.485, 117.0680
3616.413, 117.9104
3618.342, 118.4567
3620.270, 117.5466
3622.199, 117.2709
3624.127, 117.9445
3626.056, 117.8378
3627.984, 117.2396
3629.913, 117.2857
3631.841, 117.7260
3633.770, 118.7794
3635.698, 119.1211
3637.626, 118.1051
3639.555, 117.6001
3641.483, 117.6357
3643.412, 117.2659
3645.340, 116.9838
3647.269, 117.5608
3649.197, 118.3713
3651.126, 119.4707
3653.054, 119.7395
3654.983, 119.1198
3656.911, 118.5398
3658.840, 118.0862
3660.768, 118.1099
3662.697, 117.9900
3664.625, 116.8513
3666.553, 116.7013
3668.482, 117.8216
3670.410, 118.5852
3672.339, 118.9564
3674.267, 118.9465
3676.196, 118.7540
3678.124, 118.2962
3680.053, 118.3348
3681.981, 119.0863
3683.910, 119.3238
3685.838, 119.0666
3687.767, 118.5865
3689.695, 118.0460
3691.624, 117.2868
3693.552, 117.2650
3695.480, 118.4071
3697.409, 118.5991
3699.337, 117.8961
3701.266, 117.0605
3703.194, 116.8631
3705.123, 118.8578
3707.051, 120.0076
3708.980, 119.1477
3710.908, 118.3805
3712.837, 117.9111
3714.765, 117.7579
3716.694, 118.0875
3718.622, 119.7112
3720.551, 120.4226
3722.479, 119.0923
3724.407, 118.6777
3726.336, 119.1651
3728.264, 118.5237
3730.193, 117.6461
3732.121, 117.4483
3734.050, 117.7935
3735.978, 118.9032
3737.907, 119.0522
3739.835, 118.4071
3741.764, 119.2028
3743.692, 120.1721
3745.621, 119.7622
3747.549, 119.2205
3749.478, 118.8820
3751.406, 118.9883
3753.334, 119.4105
3755.263, 119.1963
3757.191, 119.0854
3759.120, 120.3256
3761.048, 120.6765
3762.977, 119.2797
3764.905, 118.4863
3766.834, 118.4195
3768.762, 119.4801
3770.691, 120.3446
3772.619, 119.6378
3774.548, 119.2084
3776.476, 119.5085
3778.405, 119.2780
3780.333, 118.8367
3782.261, 119.2709
3784.190, 119.9005
3786.118, 120.5167
3788.047, 120.3589
3789.975, 119.3271
3791.904, 119.6513
3793.832, 120.4071
3795.761, 119.2607
3797.689, 118.6050
3799.618, 119.9489
3801.546, 120.9901
3803.475, 121.4921
3805.403, 120.9533
3807.332, 120.1161
3809.260, 119.9115
3811.188, 119.8389
3813.117, 119.7631
3815.045, 119.6645
3816.974, 119.6123
3818.902, 119.9624
3820.831, 120.3759
3822.759, 120.4753
3824.688, 120.7541
3826.616, 121.4305
3828.545, 121.2900
3830.473, 120.6421
3832.402, 119.8608
3834.330, 119.6495
3836.259, 120.6498
3838.187, 120.8876
3840.115, 120.2187
3842.044, 120.5798
3843.972, 121.4417
3845.901, 122.6760
3847.829, 122.8229
3849.758, 121.3468
3851.686, 121.2358
3853.615, 122.0385
3855.543, 121.5204
3857.472, 120.7499
3859.400, 120.2785
3861.329, 120.4208
3863.257, 121.1527
3865.186, 121.2716
3867.114, 121.0454
3869.042, 120.7234
3870.971, 120.8198
3872.899, 121.6545
3874.828, 122.2091
3876.756, 122.3667
3878.685, 120.8856
3880.613, 120.1357
3882.542, 122.2867
3884.470, 123.5646
3886.399, 123.7223
3888.327, 123.1365
3890.256, 122.3348
3892.184, 122.4334
3894.113, 122.5407
3896.041, 122.3447
3897.969, 122.3244
3899.898, 122.3908
3901.826, 123.0492
3903.755, 123.4638
3905.683, 122.7266
3907.612, 122.6078
3909.540, 123.6013
3911.469, 123.5545
3913.397, 122.7119
3915.326, 122.0421
3917.254, 122.0359
3919.183, 122.5391
3921.111, 122.8497
3923.040, 122.9679
3924.968, 123.0249
3926.896, 123.8340
3928.825, 125.9368
3930.753, 125.7451
3932.682, 123.7476
3934.610, 123.5881
3936.539, 124.0641
3938.467, 123.5892
3940.396, 123.2979
3942.324, 123.3021
3944.253, 122.8518
3946.181, 122.6427
3948.110, 123.7966
3950.038, 124.5364
3951.967, 124.1484
3953.895, 123.7953
3955.823, 123.5052
3957.752, 123.9435
3959.680, 124.7946
3961.609, 124.8209
3963.537, 124.8893
3965.466, 125.8245
3967.394, 126.4208
3969.323, 126.2254
3971.251, 125.9908
3973.180, 125.6434
3975.108, 124.9948
3977.037, 125.8560
3978.965, 126.9474
3980.894, 125.6328
3982.822, 124.9815
3984.750, 126.1008
3986.679, 126.1861
3988.607, 125.7350
3990.536, 126.4221
3992.464, 127.0995
3994.393, 126.9668
3996.321, 126.5067
3998.250, 126.2947
4000.178, 125.6542
4002.107, 126.1890
4004.035, 127.6721
4005.964, 127.4977
4007.892, 126.6343
4009.821, 127.3509
4011.749, 128.0782
4013.677, 127.8712
4015.606, 127.0937
4017.534, 126.8349
4019.463, 128.2961
4021.391, 128.8755
4023.320, 127.9219
4025.248, 127.8417
4027.177, 127.7018
4029.105, 127.2723
4031.034, 127.6118
4032.962, 128.0333
4034.891, 129.0244
4036.819, 130.3587
4038.748, 129.3907
4040.676, 128.2721
4042.604, 128.8045
4044.533, 129.1644
4046.461, 129.0782
4048.390, 129.4303
4050.318, 129.2990
4052.247, 129.6894
4054.175, 130.3525
4056.104, 130.5422
4058.032, 130.2724
4059.961, 129.4958
4061.889, 129.4914
4063.818, 129.2672
4065.746, 128.7114
4067.675, 129.3589
4069.603, 129.8014
4071.531, 129.2489
4073.460, 129.9775
4075.388, 131.0081
4077.317, 130.1902
4079.245, 129.9513
4081.174, 131.8498
4083.102, 132.1689
4085.031, 130.9765
4086.959, 130.8250
4088.888, 130.8154
4090.816, 130.7280
4092.745, 130.6822
4094.673, 130.5552
4096.602, 131.5055
4098.530, 132.2290
4100.458, 131.6039
4102.387, 131.2468
4104.315, 131.3486
4106.244, 131.6122
4108.172, 131.7714
4110.101, 131.7342
4112.029, 131.5726
4113.958, 131.2767
4115.886, 130.8718
4117.814, 130.7441
4119.743, 131.1903
4121.671, 131.8461
4123.600, 132.6076
4125.528, 133.7001
4127.457, 134.1623
4129.385, 132.4402
4131.314, 132.3248
4133.242, 133.6641
4135.171, 133.4028
4137.099, 133.0471
4139.028, 134.0450
4140.956, 134.0856
4142.885, 133.2410
4144.813, 133.4096
4146.742, 133.6004
4148.670, 132.9876
4150.599, 133.0638
4152.527, 133.8417
4154.456, 133.8149
4156.384, 133.7968
4158.313, 134.5646
4160.241, 134.8743
4162.169, 134.6960
4164.098, 134.6490
4166.026, 134.8019
4167.955, 135.4712
4169.883, 136.2502
4171.812, 136.8165
4173.740, 135.5164
4175.668, 134.4566
4177.597, 135.9191
4179.525, 136.3695
4181.454, 135.7778
4183.382, 135.8374
4185.311, 136.0630
4187.239, 136.1249
4189.168, 135.6395
4191.096, 135.1037
4193.025, 135.6705
4194.953, 136.6246
4196.882, 138.0306
4198.810, 138.4204
4200.739, 138.0712
4202.667, 138.0781
4204.596, 137.9472
4206.524, 137.4510
4208.453, 137.6393
4210.381, 137.9454
4212.310, 136.2325
4214.238, 135.7578
4216.167, 137.7271
4218.095, 138.8423
4220.023, 138.8744
4221.952, 136.9016
4223.880, 136.5878
4225.809, 138.7615
4227.737, 140.0755
4229.666, 140.1823
4231.594, 137.9374
4233.522, 137.0275
4235.451, 138.0348
4237.379, 139.0214
4239.308, 139.7361
4241.236, 140.0750
4243.165, 139.5850
4245.093, 138.4211
4247.022, 138.1451
4248.950, 138.3301
4250.879, 138.7061
4252.807, 139.5483
4254.736, 140.5640
4256.664, 140.6566
4258.593, 139.9232
4260.521, 138.1024
4262.450, 138.7089
4264.378, 140.3983
4266.307, 139.6179
4268.235, 139.1140
4270.164, 139.7422
4272.092, 140.1355
4274.021, 140.5092
4275.949, 141.4983
4277.877, 141.6325
4279.806, 140.6844
4281.734, 139.0788
4283.663, 138.3037
4285.591, 140.0252
4287.520, 140.8307
4289.448, 140.5770
4291.376, 140.1315
4293.305, 140.3527
4295.233, 141.8796
4297.162, 141.8394
4299.090, 140.9832
4301.019, 141.4713
4302.947, 141.2800
4304.876, 139.8835
4306.804, 139.4393
4308.733, 139.5679
4310.661, 140.0114
4312.590, 139.8062
4314.518, 139.1087
4316.447, 140.1031
4318.375, 141.3792
4320.304, 142.1107
4322.232, 142.4619
4324.161, 142.6598
4326.089, 143.8644
4328.018, 143.2788
4329.946, 140.1635
4331.875, 140.6684
4333.803, 142.4892
4335.731, 142.5881
4337.660, 142.4241
4339.588, 142.2280
4341.517, 141.7746
4343.445, 141.3942
4345.374, 141.0708
4347.302, 142.6182
4349.230, 144.4852
4351.159, 142.3042
4353.087, 141.1697
4355.016, 142.7025
4356.944, 142.7121
4358.873, 142.3394
4360.801, 142.8186
4362.730, 143.8113
4364.658, 144.9214
4366.587, 144.5513
4368.515, 143.7571
4370.444, 142.8938
4372.372, 142.9457
4374.301, 143.3479
4376.229, 142.7192
4378.158, 143.2750
4380.086, 145.2752
4382.015, 143.7627
4383.943, 142.2454
4385.872, 143.3373
4387.800, 144.4048
4389.729, 144.9060
4391.657, 143.6027
4393.585, 142.5858
4395.514, 142.4294
4397.442, 143.5133
4399.371, 144.3396
4401.299, 143.4548
4403.228, 142.5811
4405.156, 142.0780
4407.084, 142.5795
4409.013, 142.9023
4410.941, 142.6282
4412.870, 143.3695
4414.798, 144.3390
4416.727, 144.5982
4418.655, 144.9642
4420.584, 145.2048
4422.512, 143.3488
4424.441, 142.4200
4426.369, 144.5281
4428.298, 143.6948
4430.226, 142.1431
4432.155, 142.7612
4434.083, 143.4419
4436.012, 143.9474
4437.940, 144.5518
4439.869, 145.2236
4441.797, 146.0044
4443.726, 145.1995
4445.654, 143.9155
4447.583, 143.2317
4449.511, 143.8979
4451.439, 145.2385
4453.368, 144.2816
4455.296, 143.2552
4457.225, 143.0415
4459.153, 144.3637
4461.082, 145.4201
4463.010, 143.3953
4464.938, 143.0226
4466.867, 144.0745
4468.795, 144.1902
4470.724, 143.6739
4472.652, 142.4853
4474.581, 143.0689
4476.509, 144.2732
4478.438, 145.2806
4480.366, 145.6658
4482.295, 145.4653
4484.223, 144.2694
4486.152, 144.1616
4488.080, 145.3291
4490.009, 144.4407
4491.937, 143.5886
4493.866, 144.7426
4495.794, 144.4448
4497.723, 143.6017
4499.651, 144.2561
4501.580, 144.5818
4503.508, 144.3701
4505.437, 144.7068
4507.365, 144.6465
4509.293, 143.7026
4511.222, 143.3611
4513.150, 143.3256
4515.079, 143.0765
4517.007, 143.9360
4518.936, 145.1840
4520.864, 144.3928
4522.792, 143.3192
4524.721, 142.5481
4526.649, 142.5099
4528.578, 142.8007
4530.506, 143.2836
4532.435, 142.8695
4534.363, 142.3061
4536.292, 142.7619
4538.220, 144.0815
4540.149, 145.7175
4542.077, 145.2363
4544.006, 144.7502
4545.934, 144.9596
4547.863, 143.4565
4549.791, 141.8699
4551.720, 141.7546
4553.648, 141.7910
4555.577, 142.1189
4557.505, 143.5247
4559.434, 144.2030
4561.362, 143.9718
4563.291, 143.4403
4565.219, 142.8977
4567.147, 142.4660
4569.076, 142.4045
4571.004, 142.6626
4572.933, 143.4236
4574.861, 143.3716
4576.790, 142.9979
4578.718, 143.4348
4580.646, 143.7125
4582.575, 143.6567
4584.503, 142.7511
4586.432, 142.6296
4588.360, 143.6769
4590.289, 143.3751
4592.217, 142.8766
4594.146, 143.0334
4596.074, 143.7124
4598.003, 144.0847
4599.931, 142.5253
4601.860, 141.5662
4603.788, 141.4397
4605.717, 142.2020
4607.645, 142.8610
4609.574, 143.1411
4611.502, 142.7329
4613.431, 142.5420
4615.359, 143.0498
4617.288, 143.7046
4619.216, 143.8504
4621.145, 142.4685
4623.073, 142.2844
4625.001, 142.6973
4626.930, 142.2730
4628.858, 142.3690
4630.787, 142.7853
4632.715, 141.9388
4634.644, 141.2502
4636.572, 141.1508
4638.500, 141.1474
4640.429, 141.4238
4642.357, 142.1788
4644.286, 141.6787
4646.214, 141.2800
4648.143, 142.3564
4650.071, 142.4490
4652.000, 142.0279
4653.928, 142.3435
4655.857, 142.0195
4657.785, 141.1794
4659.714, 140.6391
4661.642, 140.6139
4663.571, 141.0702
4665.499, 141.7470
4667.428, 141.6376
4669.356, 140.4419
4671.285, 141.0441
4673.213, 141.8380
4675.142, 141.4252
4677.070, 141.7753
4678.999, 142.2854
4680.927, 142.2980
4682.855, 141.8852
4684.784, 141.3944
4686.712, 141.5626
4688.641, 141.1196
4690.569, 140.2648
4692.498, 140.2410
4694.426, 140.5914
4696.354, 141.1353
4698.283, 141.4682
4700.211, 141.5671
4702.140, 141.4461
4704.068, 141.3464
4705.997, 140.7369
4707.925, 139.0271
4709.854, 138.6129
4711.782, 138.8983
4713.711, 139.4417
4715.639, 139.9849
4717.568, 139.1874
4719.496, 140.6781
4721.425, 141.4754
4723.353, 141.6167
4725.282, 139.1367
4727.210, 140.0415
4729.139, 139.5899
4731.067, 139.0826
4732.996, 140.4637
4734.924, 138.3651
4736.853, 139.7163
4738.781, 139.6904
4740.709, 140.2948
4742.638, 139.5343
4744.566, 139.1954
4746.495, 138.5981
4748.423, 138.5191
4750.352, 138.5209
4752.280, 138.5071
4754.208, 139.3268
4756.137, 139.6481
4758.065, 138.3212
4759.994, 138.7385
4761.922, 139.6987
4763.851, 139.5198
4765.779, 139.9328
4767.708, 140.2746
4769.636, 139.3419
4771.565, 138.6088
4773.493, 138.4256
4775.422, 139.6619
4777.350, 139.0842
4779.279, 137.5068
4781.207, 138.3411
4783.136, 138.4867
4785.064, 137.7935
4786.993, 137.2066
4788.921, 138.0099
4790.850, 139.7249
4792.778, 137.9538
4794.707, 137.8516
4796.635, 140.0346
4798.563, 138.5878
4800.492, 137.6544
4802.420, 138.5580
4804.349, 138.9278
4806.277, 138.9590
4808.206, 138.7955
4810.134, 140.4396
4812.063, 141.0122
4813.991, 139.2252
4815.919, 138.8379
4817.848, 138.2691
4819.776, 136.5213
4821.705, 138.0351
4823.633, 139.0013
4825.562, 136.9785
4827.490, 136.5930
4829.419, 137.3230
4831.347, 138.8673
4833.276, 138.2934
4835.204, 137.2541
4837.133, 137.0465
4839.061, 137.2762
4840.990, 137.9649
4842.918, 139.3516
4844.847, 139.3891
4846.775, 139.0282
4848.704, 139.3246
4850.632, 138.5004
4852.561, 137.7887
4854.489, 138.7585
4856.417, 139.2529
4858.346, 138.9625
4860.274, 137.1452
4862.203, 138.5542
4864.131, 140.1306
4866.060, 137.6087
4867.988, 137.1511
4869.917, 137.8572
4871.845, 138.5029
4873.773, 138.0408
4875.702, 136.9783
4877.630, 135.5912
4879.559, 137.4399
4881.487, 139.8781
4883.416, 139.4161
4885.344, 138.3098
4887.273, 138.2512
4889.201, 141.6513
4891.130, 139.9482
4893.058, 136.7924
4894.987, 137.1300
4896.915, 137.7438
4898.844, 138.2383
4900.772, 138.4357
4902.701, 137.3680
4904.629, 136.6731
4906.558, 139.0305
4908.486, 138.1800
4910.415, 136.6470
4912.343, 136.9722
4914.271, 136.9620
4916.200, 136.9679
4918.128, 137.5956
4920.057, 137.7486
4921.985, 137.6289
4923.914, 137.3928
4925.842, 137.1235
4927.771, 136.9420
4929.699, 136.9549
4931.627, 136.5649
4933.556, 136.1696
4935.484, 136.0271
4937.413, 135.9471
4939.341, 136.8191
4941.270, 138.9852
4943.198, 138.3017
4945.127, 137.4945
4947.055, 137.9829
4948.984, 137.9345
4950.912, 137.6386
4952.841, 137.2325
4954.769, 136.6686
4956.698, 136.4030
4958.626, 136.6793
4960.555, 139.1268
4962.483, 139.1987
4964.412, 136.7578
4966.340, 136.7608
4968.269, 136.6967
4970.197, 136.1242
4972.125, 135.5372
4974.054, 135.7474
4975.982, 136.3873
4977.911, 136.0516
4979.839, 135.8172
4981.768, 135.9862
4983.696, 137.0374
4985.625, 137.6653
4987.553, 137.7654
4989.481, 137.3027
4991.410, 137.3540
4993.338, 137.3544
4995.267, 136.3473
4997.195, 136.1725
4999.124, 136.4724
5001.052, 136.8789
5002.981, 138.7146
5004.909, 139.5815
5006.838, 138.0491
5008.766, 137.7020
5010.695, 137.2878
5012.623, 136.1699
5014.552, 136.3201
5016.480, 136.5016
5018.409, 136.3184
5020.337, 135.4820
5022.266, 136.1560
5024.194, 137.9499
5026.123, 137.5394
5028.051, 135.6951
5029.979, 134.0441
5031.908, 136.1965
5033.836, 136.5406
5035.765, 135.9371
5037.693, 136.8704
5039.622, 136.6995
5041.550, 136.4260
5043.479, 137.2186
5045.407, 136.0269
5047.335, 135.3840
5049.264, 137.0697
5051.192, 136.7250
5053.121, 136.1043
5055.049, 136.1114
5056.978, 137.4470
5058.906, 137.7092
5060.835, 136.8358
5062.763, 136.9781
5064.692, 138.3058
5066.620, 139.4104
5068.549, 135.9206
5070.477, 135.4740
5072.406, 136.7145
5074.334, 136.5412
5076.263, 135.4258
5078.191, 134.4767
5080.120, 134.5288
5082.048, 136.7038
5083.977, 137.3251
5085.905, 134.8420
5087.833, 134.0815
5089.762, 134.8249
5091.690, 136.3970
5093.619, 136.2941
5095.547, 136.1335
5097.476, 136.0987
5099.404, 135.6686
5101.333, 135.0492
5103.261, 135.0316
5105.189, 136.8629
5107.118, 137.4789
5109.046, 137.1252
5110.975, 135.9953
5112.903, 135.2398
5114.832, 135.6485
5116.760, 137.1436
5118.689, 136.8337
5120.617, 136.5259
5122.546, 136.6825
5124.474, 137.0902
5126.403, 137.7164
5128.331, 137.9922
5130.260, 136.9515
5132.188, 136.6482
5134.117, 136.5043
5136.045, 135.8170
5137.974, 136.8061
5139.902, 137.6057
5141.831, 137.3597
5143.759, 137.2536
5145.688, 135.9320
5147.616, 134.2887
5149.544, 135.8871
5151.473, 138.4948
5153.401, 139.7492
5155.330, 135.1664
5157.258, 137.6310
5159.187, 139.8078
5161.115, 136.6185
5163.043, 137.8296
5164.972, 139.1743
5166.900, 138.8948
5168.829, 137.0021
5170.757, 136.8515
5172.686, 137.5717
5174.614, 135.8139
5176.543, 135.5808
5178.471, 135.7988
5180.400, 135.0581
5182.328, 135.4489
5184.257, 135.8985
5186.185, 135.9784
5188.114, 137.9178
5190.042, 137.9109
5191.971, 136.4778
5193.899, 137.0602
5195.828, 137.6942
5197.756, 138.0484
5199.685, 138.0779
5201.613, 137.6767
5203.542, 137.0290
5205.470, 136.3064
5207.398, 136.6792
5209.327, 136.0310
5211.255, 134.8047
5213.184, 135.3539
5215.112, 135.7784
5217.041, 136.0905
5218.969, 136.6001
5220.897, 136.4319
5222.826, 135.9985
5224.754, 135.6688
5226.683, 136.8278
5228.611, 137.0847
5230.540, 136.4660
5232.468, 135.7518
5234.397, 136.5841
5236.325, 137.4907
5238.254, 137.1401
5240.182, 137.1196
5242.111, 136.8506
5244.039, 136.2505
5245.968, 135.8206
5247.896, 135.6203
5249.825, 135.8344
5251.753, 136.8523
5253.682, 138.0220
5255.610, 138.2939
5257.539, 137.2334
5259.467, 136.1723
5261.396, 136.1527
5263.324, 136.7397
5265.252, 136.2363
5267.181, 136.1115
5269.109, 135.8535
5271.038, 134.7125
5272.966, 136.8178
5274.895, 138.1374
5276.823, 137.4607
5278.751, 135.6319
5280.680, 135.4878
5282.608, 136.2086
5284.537, 136.4301
5286.465, 135.1396
5288.394, 134.7280
5290.322, 136.0504
5292.251, 136.6983
5294.179, 136.6429
5296.108, 136.2043
5298.036, 135.8254
5299.965, 135.7245
5301.893, 136.1223
5303.822, 137.1040
5305.750, 137.4549
5307.679, 137.3137
5309.607, 136.8724
5311.536, 136.3266
5313.464, 136.7192
5315.393, 137.1193
5317.321, 136.8007
5319.250, 136.3327
5321.178, 135.4622
5323.106, 134.7566
5325.035, 136.1054
5326.963, 135.5367
5328.892, 135.2902
5330.820, 137.1091
5332.749, 136.8150
5334.677, 135.6818
5336.605, 134.9158
5338.534, 137.1707
5340.462, 135.7592
5342.391, 133.9297
5344.319, 134.6332
5346.248, 137.8291
5348.176, 137.4989
5350.105, 134.7941
5352.033, 136.3298
5353.962, 135.4724
5355.890, 134.0138
5357.819, 133.6939
5359.747, 134.0695
5361.676, 134.3100
5363.604, 134.9242
5365.533, 137.7058
5367.461, 136.3606
5369.390, 134.4751
5371.318, 134.5328
5373.247, 134.9372
5375.175, 135.6116
5377.104, 136.0238
5379.032, 135.1494
5380.960, 134.6221
5382.889, 134.6126
5384.817, 135.0807
5386.746, 135.6980
5388.674, 135.7716
5390.603, 135.5691
5392.531, 135.5391
5394.459, 134.9359
5396.388, 135.0252
5398.316, 135.7498
5400.245, 134.9072
5402.173, 135.2414
5404.102, 135.6094
5406.030, 134.9017
5407.959, 134.2602
5409.887, 134.3777
5411.816, 135.0283
5413.744, 135.6889
5415.673, 135.0196
5417.601, 134.3871
5419.530, 134.5964
5421.458, 136.1546
5423.387, 135.7193
5425.315, 134.2678
5427.244, 133.5781
5429.172, 133.4498
5431.101, 134.3253
5433.029, 135.5174
5434.958, 134.4620
5436.886, 134.6316
5438.814, 135.1720
5440.743, 135.2792
5442.671, 134.3349
5444.600, 133.9215
5446.528, 134.0796
5448.457, 134.4038
5450.385, 132.6600
5452.313, 132.7533
5454.242, 134.6294
5456.170, 132.9958
5458.099, 133.1071
5460.027, 133.5776
5461.956, 133.2659
5463.884, 134.6276
5465.813, 134.2332
5467.741, 133.5231
5469.670, 135.0586
5471.598, 132.9368
5473.527, 132.2549
5475.455, 133.6954
5477.384, 134.3787
5479.312, 132.4577
5481.241, 131.8997
5483.169, 134.3164
5485.098, 134.0910
5487.026, 133.6858
5488.955, 133.3588
5490.883, 132.9350
5492.812, 132.3469
5494.740, 133.1509
5496.668, 134.2045
5498.597, 132.7212
5500.525, 133.6269
5502.454, 134.1256
5504.382, 133.3279
5506.311, 132.8909
5508.239, 132.6509
5510.167, 132.0106
5512.096, 130.9422
5514.024, 132.1658
5515.953, 132.4779
5517.881, 132.1876
5519.810, 132.1400
5521.738, 130.6051
5523.667, 131.7567
5525.595, 133.9393
5527.524, 132.1987
5529.452, 131.3162
5531.381, 131.1004
5533.309, 131.4696
5535.238, 132.6988
5537.166, 133.0212
5539.095, 132.1773
5541.023, 130.6694
5542.952, 130.3478
5544.880, 131.1214
5546.809, 131.3300
5548.737, 130.0329
5550.666, 130.0347
5552.594, 129.7704
5554.522, 129.7702
5556.451, 130.8984
5558.379, 131.2427
5560.308, 130.2892
5562.236, 129.8001
5564.165, 132.0588
5566.093, 131.1480
5568.021, 130.8208
5569.950, 131.5048
5571.878, 131.6372
5573.807, 130.3194
5575.735, 128.9430
5577.664, 128.5554
5579.592, 130.7990
5581.521, 131.6620
5583.449, 130.6617
5585.378, 128.8168
5587.306, 129.5979
5589.235, 129.8488
5591.163, 130.2117
5593.092, 130.8800
5595.020, 129.8866
5596.949, 129.0090
5598.877, 128.6617
5600.806, 128.9846
5602.734, 130.5748
5604.663, 131.5347
5606.591, 130.2573
5608.520, 126.4719
5610.448, 128.9395
5612.376, 129.8616
5614.305, 128.9394
5616.233, 127.5487
5618.162, 128.0515
5620.090, 128.6254
5622.019, 128.9122
5623.947, 128.9561
5625.875, 128.5526
5627.804, 129.9084
5629.732, 130.8538
5631.661, 128.5722
5633.589, 128.0432
5635.518, 128.3786
5637.446, 128.7268
5639.375, 128.4400
5641.303, 129.0142
5643.232, 128.3437
5645.160, 127.6576
5647.089, 128.6718
5649.017, 129.2751
5650.946, 126.5601
5652.874, 124.0352
5654.803, 125.8654
5656.731, 127.1082
5658.660, 127.0583
5660.588, 126.9333
5662.517, 128.2710
5664.445, 127.9569
5666.374, 127.3195
5668.302, 127.6026
5670.230, 129.5008
5672.159, 128.0125
5674.087, 127.7235
5676.016, 128.3863
5677.944, 128.5726
5679.873, 126.2097
5681.801, 125.5998
5683.729, 126.0249
5685.658, 126.2068
5687.586, 126.9677
5689.515, 127.1586
5691.443, 126.5667
5693.372, 125.4045
5695.300, 125.6186
5697.229, 124.8312
5699.157, 124.5642
5701.086, 125.5467
5703.014, 124.7617
5704.943, 126.3085
5706.871, 127.3970
5708.800, 126.5418
5710.728, 125.4416
5712.657, 125.0160
5714.585, 125.6354
5716.514, 126.4606
5718.442, 124.8647
5720.371, 124.0658
5722.299, 123.6586
5724.228, 123.7873
5726.156, 125.9423
5728.084, 124.3470
5730.013, 123.8551
5731.941, 124.6143
5733.870, 124.3100
5735.798, 124.0155
5737.727, 124.3833
5739.655, 124.3653
5741.583, 123.0229
5743.512, 124.4458
5745.440, 124.1502
5747.369, 123.7032
5749.297, 124.5765
5751.226, 123.6618
5753.154, 124.7024
5755.083, 125.4028
5757.011, 124.7205
5758.940, 125.2606
5760.868, 124.7843
5762.797, 124.7115
5764.725, 125.0235
5766.654, 123.8942
5768.582, 123.4056
5770.511, 124.1265
5772.439, 124.8442
5774.368, 123.7876
5776.296, 121.6376
5778.225, 122.5796
5780.153, 123.3010
5782.082, 121.1158
5784.010, 123.3280
5785.938, 122.3102
5787.867, 121.3371
5789.795, 122.2919
5791.724, 122.6321
5793.652, 121.9742
5795.581, 122.9736
5797.509, 124.4315
5799.438, 122.0638
5801.366, 122.1811
5803.294, 121.6264
5805.223, 120.7809
5807.151, 120.9640
5809.080, 121.0019
5811.008, 121.0685
5812.937, 121.0475
5814.865, 120.8401
5816.794, 120.2477
5818.722, 121.3542
5820.651, 121.3980
5822.579, 120.4751
5824.508, 120.6519
5826.436, 121.5891
5828.365, 121.8111
5830.293, 121.1206
5832.222, 120.0512
5834.150, 121.0567
5836.079, 120.8619
5838.007, 119.7707
5839.936, 118.8813
5841.864, 120.1552
5843.792, 119.4231
5845.721, 119.8403
5847.649, 120.9130
5849.578, 120.6000
5851.506, 120.7555
5853.435, 119.6428
5855.363, 119.1505
5857.292, 120.0322
5859.220, 119.7122
5861.148, 118.9853
5863.077, 119.4292
5865.005, 120.1042
5866.934, 118.9445
5868.862, 118.9568
5870.791, 119.0856
5872.719, 119.4391
5874.648, 119.7791
5876.576, 118.2389
5878.505, 118.0129
5880.433, 118.5204
5882.362, 119.0911
5884.290, 119.3205
5886.219, 118.3499
5888.147, 117.5723
5890.076, 117.4496
5892.004, 117.9869
5893.933, 119.0303
5895.861, 118.9980
5897.790, 119.1282
5899.718, 119.0891
5901.646, 117.8330
5903.575, 118.1751
5905.503, 118.6158
5907.432, 117.7542
5909.360, 116.0191
5911.289, 116.8703
5913.217, 116.9093
5915.146, 117.0252
5917.074, 117.2329
5919.002, 117.1077
5920.931, 115.7156
5922.859, 114.9048
5924.788, 114.7921
5926.716, 115.5084
5928.645, 117.4461
5930.573, 115.9989
5932.502, 115.3606
5934.430, 115.7481
5936.359, 116.3068
5938.287, 116.3903
5940.216, 115.0371
5942.144, 115.6628
5944.073, 116.4434
5946.001, 114.5960
5947.930, 115.2453
5949.858, 115.1492
5951.787, 114.9761
5953.715, 115.0592
5955.644, 112.9423
5957.572, 114.4268
5959.500, 115.2189
5961.429, 115.3555
5963.357, 112.8743
5965.286, 113.7735
5967.214, 113.3181
5969.143, 112.8070
5971.071, 114.1822
5973.000, 112.0816
5974.928, 113.4268
5976.856, 113.3966
5978.785, 113.9958
5980.713, 113.2320
5982.642, 112.8891
5984.570, 113.9098
5986.499, 114.1755
5988.427, 113.2547
5990.356, 113.8940
5992.284, 111.7458
5994.213, 112.0437
5996.141, 113.3969
5998.070, 112.5446
5999.998, 113.2088
6001.927, 113.2954
6003.855, 110.7573
6005.784, 112.1134
6007.712, 112.3053
6009.641, 112.6274
6011.569, 112.8570
6013.498, 112.7348
6015.426, 112.4166
6017.354, 111.7690
6019.283, 111.1102
6021.211, 112.3540
6023.140, 110.9504
6025.068, 110.5061
6026.997, 111.5578
6028.925, 112.6695
6030.854, 110.8634
6032.782, 110.2385
6034.710, 111.3027
6036.639, 111.5849
6038.567, 109.8003
6040.496, 111.9966
6042.424, 109.2207
6044.353, 109.7759
6046.281, 111.4944
6048.210, 109.7554
6050.138, 110.4052
6052.067, 110.1817
6053.995, 110.1746
6055.924, 110.2268
6057.852, 109.7771
6059.781, 109.7271
6061.709, 109.9928
6063.638, 108.2621
6065.566, 106.4847
6067.495, 107.0848
6069.423, 108.6269
6071.352, 109.0433
6073.280, 107.6169
6075.208, 106.5964
6077.137, 107.5352
6079.065, 107.8225
6080.994, 106.4695
6082.922, 107.5082
6084.851, 108.2215
6086.779, 106.4853
6088.708, 106.4512
6090.636, 106.9157
6092.564, 106.1045
6094.493, 105.4329
6096.421, 105.9709
6098.350, 106.8300
6100.278, 106.7047
6102.207, 106.4857
6104.135, 105.5889
6106.064, 104.7247
6107.992, 106.1385
6109.921, 104.5956
6111.849, 105.1289
6113.778, 105.3280
6115.706, 104.5918
6117.635, 104.7555
6119.563, 105.6098
6121.492, 104.8213
6123.420, 104.9489
6125.349, 105.4118
6127.277, 104.3826
6129.206, 102.7099
6131.134, 104.4219
6133.063, 104.8974
6134.991, 103.7731
6136.919, 102.7555
6138.848, 103.4909
6140.776, 103.7687
6142.705, 103.8066
6144.633, 103.5820
6146.562, 103.2956
6148.490, 103.4035
6150.418, 102.6331
6152.347, 103.4245
6154.275, 102.3716
6156.204, 101.0875
6158.132, 102.8492
6160.061, 102.8230
6161.989, 104.1357
6163.918, 103.1672
6165.846, 102.2822
6167.775, 102.7656
6169.703, 100.1623
6171.632, 102.7453
6173.560, 103.8191
6175.489, 102.4387
6177.417, 100.7525
6179.346, 100.9964
6181.274, 100.4915
6183.203, 101.1216
6185.131, 102.0230
6187.060, 102.1758
6188.988, 101.5735
6190.917, 101.7823
6192.845, 100.8435
6194.773, 102.0098
6196.702, 102.9088
6198.630, 101.9969
6200.559, 100.1400
6202.487, 99.67432
6204.416, 100.0086
6206.344, 100.4145
6208.272, 99.58170
6210.201, 98.30622
6212.129, 100.7625
6214.058, 99.68275
6215.986, 100.6959
6217.915, 100.9114
6219.843, 99.54838
6221.772, 98.33961
6223.700, 97.82861
6225.629, 100.2091
6227.557, 97.83451
6229.486, 95.79008
6231.414, 97.32177
6233.343, 98.84580
6235.271, 98.73535
6237.200, 98.91231
6239.128, 98.75834
6241.057, 98.34041
6242.985, 97.85350
6244.914, 96.70239
6246.842, 98.56926
6248.771, 97.98800
6250.699, 96.71870
6252.627, 96.28243
6254.556, 96.56721
6256.484, 96.29165
6258.413, 95.02043
6260.341, 95.69183
6262.270, 97.99181
6264.198, 99.05708
6266.126, 96.33688
6268.055, 95.62676
6269.983, 94.54380
6271.912, 96.76560
6273.840, 97.65915
6275.769, 96.05466
6277.697, 95.96046
6279.626, 96.90499
6281.554, 97.04935
6283.483, 97.52782
6285.411, 95.43273
6287.340, 92.49587
6289.268, 94.79178
6291.197, 95.29069
6293.125, 94.82728
6295.054, 95.82219
6296.982, 95.97645
6298.911, 95.00190
6300.839, 95.68395
6302.768, 92.91698
6304.696, 93.55630
6306.625, 94.35722
6308.553, 94.50770
6310.481, 94.33463
6312.410, 93.74300
6314.338, 92.56240
6316.267, 94.72168
6318.195, 93.90339
6320.124, 93.15926
6322.052, 94.05238
6323.980, 93.52162
6325.909, 92.74984
6327.837, 93.25975
6329.766, 92.70566
6331.694, 92.32911
6333.623, 92.64852
6335.551, 92.59419
6337.480, 90.72863
6339.408, 91.32043
6341.337, 93.09648
6343.265, 93.50495
6345.194, 92.57201
6347.122, 91.79696
6349.051, 91.70112
6350.979, 91.49022
6352.908, 91.25311
6354.836, 91.11309
6356.765, 91.97498
6358.693, 93.23695
6360.622, 92.02074
6362.550, 91.82828
6364.479, 92.08741
6366.407, 91.54777
6368.335, 90.63055
6370.264, 90.71547
6372.192, 92.21292
6374.121, 90.14002
6376.049, 89.62368
6377.978, 91.20467
6379.906, 91.19380
6381.834, 90.09800
6383.763, 90.42998
6385.691, 91.14958
6387.620, 91.06911
6389.548, 90.98941
6391.477, 89.28191
6393.405, 89.13599
6395.334, 91.02501
6397.262, 90.36728
6399.191, 87.86488
6401.119, 86.78191
6403.048, 88.61174
6404.976, 88.59374
6406.905, 87.39882
6408.833, 87.81451
6410.762, 87.38744
6412.690, 89.86649
6414.619, 89.02972
6416.547, 88.70786
6418.476, 88.87936
6420.404, 88.57075
6422.333, 88.27073
6424.261, 88.76765
6426.189, 88.61124
6428.118, 88.04333
6430.046, 87.12735
6431.975, 87.01780
6433.903, 87.87415
6435.832, 88.04424
6437.760, 85.97386
6439.688, 86.50499
6441.617, 87.15304
6443.545, 87.79984
6445.474, 88.24122
6447.402, 88.11841
6449.331, 87.78674
6451.259, 88.02339
6453.188, 86.59651
6455.116, 85.48319
6457.045, 85.84109
6458.973, 86.69324
6460.902, 86.35775
6462.830, 84.59566
6464.759, 86.01538
6466.687, 85.09128
6468.616, 85.86983
6470.544, 86.08930
6472.473, 85.79041
6474.401, 86.58761
6476.330, 86.87321
6478.258, 84.60667
6480.187, 84.85055
6482.115, 84.85796
6484.043, 84.89846
6485.972, 84.27120
6487.900, 82.82272
6489.829, 82.99625
6491.757, 83.16699
6493.686, 82.96040
6495.614, 82.04759
6497.542, 82.82433
6499.471, 83.54496
6501.399, 83.47888
6503.328, 85.63377
6505.256, 84.05468
6507.185, 81.49030
6509.113, 83.16277
6511.042, 82.83887
6512.970, 82.80920
6514.899, 83.59445
6516.827, 81.30589
6518.756, 82.28658
6520.684, 81.30679
6522.613, 82.42882
6524.541, 82.04279
6526.470, 80.55993
6528.398, 80.33155
6530.327, 81.81165
6532.255, 82.30318
6534.184, 81.56283
6536.112, 81.24456
6538.041, 81.50810
6539.969, 81.91282
6541.897, 80.56829
6543.826, 78.67068
6545.754, 79.53109
6547.683, 79.05141
6549.611, 80.30563
6551.540, 80.84521
6553.468, 80.34071
6555.396, 81.06414
6557.325, 81.42292
6559.253, 80.10349
6561.182, 80.33377
6563.110, 81.55106
6565.039, 77.93328
6566.967, 80.57020
6568.896, 81.27274
6570.824, 79.00785
6572.753, 77.68255
6574.681, 78.48949
6576.610, 78.16098
6578.538, 78.74958
6580.467, 80.94694
6582.395, 80.11213
6584.324, 79.28735
6586.252, 78.70656
6588.181, 78.69735
6590.109, 79.60014
6592.038, 78.42784
6593.966, 77.30058
6595.895, 78.50615
6597.823, 77.94971
6599.751, 76.85229
6601.680, 76.88017
6603.608, 78.16570
6605.537, 79.27699
6607.465, 77.96561
6609.394, 75.82903
6611.322, 75.51142
6613.250, 78.57333
6615.179, 77.34275
6617.107, 75.96230
6619.036, 77.42593
6620.964, 78.71661
6622.893, 76.47416
6624.821, 76.29082
6626.750, 77.36732
##END=



