##NAMES=Heulandite-Ca
##RRUFFID=R050017
##IDEAL CHEMISTRY=(Ca,Na,K)_5_(Si_27_Al_9_)O_72_·26H_2_O
##LOCALITY=Poona, Maharashtra State, India
##OWNER=RRUFF
##SOURCE=Eugene Schlepp
##DESCRIPTION=Single crystals
##STATUS=The identification of this mineral has been confirmed by X-ray diffraction and chemical analysis
##URL=https://www.rruff.net/odr/rruff_sample/R050017
##MEASURED CHEMISTRY=(Ca_.70_Na_.22_K_.02_[box]_0.06_)_5_(Si_0.77_Al_0.23_)_36_O_72_·24H_2_O
##DIFFRACTION SAMPLE DESCRIPTION=Powder
##CELL PARAMETERS=a: 17.681 b: 17.902 c: 7.415 alpha: 90 beta: 116.44 gamma: 90 volume: 2101.4 crystal system: monoclinic
##FILETYPE=Raman RAW
##RAMAN WAVELENGTH=532

127.6389, 492.1701
129.5674, 584.4326
131.4958, 697.7701
133.4243, 838.4330
135.3528, 977.8320
137.2813, 1118.582
139.2097, 1256.717
141.1382, 1385.145
143.0667, 1505.347
144.9951, 1613.701
146.9236, 1709.033
148.8521, 1784.912
150.7805, 1854.025
152.7090, 1921.576
154.6375, 1984.008
156.5659, 2025.520
158.4944, 2037.397
160.4229, 2030.943
162.3513, 2009.975
164.2798, 1969.117
166.2083, 1924.712
168.1367, 1881.370
170.0652, 1839.679
171.9937, 1794.211
173.9221, 1743.689
175.8506, 1689.669
177.7791, 1634.201
179.7075, 1574.668
181.6360, 1517.266
183.5645, 1464.222
185.4929, 1418.665
187.4214, 1372.278
189.3499, 1319.887
191.2783, 1266.941
193.2068, 1224.336
195.1353, 1200.847
197.0637, 1181.696
198.9922, 1159.355
200.9207, 1129.341
202.8491, 1102.848
204.7776, 1081.983
206.7061, 1065.742
208.6345, 1051.579
210.5630, 1040.750
212.4915, 1031.025
214.4199, 1020.366
216.3484, 1006.245
218.2769, 996.0143
220.2053, 992.5428
222.1338, 995.5010
224.0623, 1000.197
225.9907, 1010.295
227.9192, 1020.119
229.8477, 1022.456
231.7761, 1012.195
233.7046, 1005.232
235.6331, 1006.224
237.5615, 1016.711
239.4900, 1030.454
241.4185, 1049.613
243.3469, 1071.038
245.2754, 1091.092
247.2039, 1109.438
249.1323, 1126.591
251.0608, 1143.020
252.9893, 1158.898
254.9177, 1172.935
256.8462, 1188.055
258.7747, 1200.214
260.7031, 1205.145
262.6316, 1200.169
264.5601, 1189.489
266.4885, 1172.203
268.4170, 1145.712
270.3455, 1123.121
272.2739, 1108.961
274.2024, 1099.064
276.1309, 1086.840
278.0593, 1071.554
279.9878, 1054.346
281.9163, 1033.407
283.8447, 1007.769
285.7732, 987.0011
287.7017, 977.0759
289.6301, 972.8130
291.5586, 965.4169
293.4871, 948.6580
295.4155, 934.2358
297.3440, 928.4794
299.2725, 931.3901
301.2009, 932.9775
303.1294, 929.0182
305.0579, 922.6320
306.9863, 919.9345
308.9148, 925.0461
310.8433, 929.6587
312.7717, 929.8104
314.7002, 925.2838
316.6287, 922.9357
318.5571, 922.6202
320.4856, 925.1420
322.4141, 933.4266
324.3425, 955.2493
326.2710, 972.9694
328.1995, 977.3891
330.1279, 967.2215
332.0564, 963.1252
333.9849, 969.1492
335.9133, 981.5245
337.8418, 995.4182
339.7703, 1011.252
341.6987, 1027.713
343.6272, 1044.861
345.5557, 1063.032
347.4841, 1079.268
349.4126, 1087.670
351.3411, 1096.815
353.2695, 1117.418
355.1980, 1153.539
357.1265, 1190.326
359.0549, 1220.393
360.9834, 1242.195
362.9119, 1275.500
364.8403, 1327.903
366.7688, 1385.360
368.6973, 1434.792
370.6257, 1471.129
372.5542, 1515.690
374.4827, 1577.368
376.4111, 1654.139
378.3396, 1727.774
380.2681, 1791.105
382.1965, 1857.396
384.1250, 1934.797
386.0535, 2023.732
387.9819, 2117.431
389.9104, 2216.188
391.8389, 2318.236
393.7673, 2419.593
395.6958, 2514.867
397.6243, 2614.063
399.5527, 2728.310
401.4812, 2859.811
403.4097, 2971.129
405.3381, 3068.328
407.2666, 3141.260
409.1951, 3168.637
411.1235, 3149.529
413.0520, 3096.542
414.9805, 3003.804
416.9089, 2875.953
418.8374, 2735.866
420.7659, 2575.987
422.6943, 2411.129
424.6228, 2252.212
426.5513, 2097.890
428.4797, 1949.954
430.4082, 1805.842
432.3367, 1667.456
434.2651, 1546.822
436.1936, 1451.469
438.1221, 1368.021
440.0505, 1290.989
441.9790, 1219.021
443.9075, 1162.594
445.8359, 1129.993
447.7644, 1112.649
449.6929, 1100.567
451.6213, 1091.894
453.5498, 1091.187
455.4783, 1099.164
457.4067, 1116.567
459.3352, 1143.462
461.2637, 1180.329
463.1921, 1227.752
465.1206, 1286.099
467.0491, 1365.536
468.9775, 1441.222
470.9060, 1503.415
472.8345, 1561.616
474.7629, 1635.757
476.6914, 1731.636
478.6199, 1836.357
480.5483, 1948.013
482.4768, 2071.937
484.4053, 2180.478
486.3337, 2293.537
488.2622, 2380.872
490.1907, 2419.752
492.1191, 2414.777
494.0476, 2355.110
495.9761, 2222.700
497.9045, 2031.354
499.8330, 1840.967
501.7615, 1635.674
503.6899, 1444.411
505.6184, 1282.725
507.5469, 1147.743
509.4753, 1030.168
511.4038, 931.4048
513.3323, 848.3035
515.2607, 780.2676
517.1892, 732.5624
519.1177, 693.6712
521.0461, 666.0342
522.9746, 647.1974
524.9031, 630.4711
526.8315, 615.1931
528.7600, 602.5425
530.6885, 593.3718
532.6169, 588.9869
534.5454, 584.3306
536.4739, 579.3630
538.4023, 574.1422
540.3308, 568.4795
542.2593, 561.6957
544.1877, 556.3764
546.1162, 553.8201
548.0447, 553.2806
549.9731, 551.7047
551.9016, 547.3577
553.8301, 543.7951
555.7585, 543.2771
557.6870, 545.4550
559.6155, 545.8667
561.5439, 540.7367
563.4724, 535.5337
565.4009, 534.5765
567.3293, 541.9505
569.2578, 546.0876
571.1863, 541.5995
573.1147, 534.3066
575.0432, 533.0012
576.9717, 540.9349
578.9001, 550.9467
580.8286, 561.2592
582.7571, 571.8610
584.6855, 582.6484
586.6140, 591.5837
588.5425, 602.3550
590.4709, 616.8031
592.3994, 634.8083
594.3279, 655.5619
596.2563, 682.2227
598.1848, 710.0333
600.1133, 733.2540
602.0417, 746.7729
603.9702, 764.2446
605.8987, 794.4446
607.8271, 829.5252
609.7556, 853.7753
611.6841, 861.8514
613.6125, 863.7336
615.5410, 863.3024
617.4695, 860.5506
619.3979, 850.5159
621.3264, 830.4650
623.2549, 805.5710
625.1833, 778.1498
627.1118, 747.9576
629.0403, 717.8772
630.9688, 687.3352
632.8972, 657.7055
634.8257, 630.6149
636.7542, 607.9269
638.6826, 584.9943
640.6111, 558.4485
642.5396, 531.8160
644.4680, 511.3108
646.3965, 499.9243
648.3250, 491.0387
650.2534, 483.2701
652.1819, 476.5769
654.1104, 468.7708
656.0388, 458.2736
657.9673, 448.1631
659.8958, 439.5469
661.8242, 432.2724
663.7527, 427.4564
665.6812, 427.1146
667.6096, 428.2589
669.5381, 429.1707
671.4666, 430.8839
673.3950, 430.5571
675.3235, 425.7949
677.2520, 419.9085
679.1804, 416.9110
681.1089, 417.3434
683.0374, 419.3271
684.9658, 423.0016
686.8943, 427.7899
688.8228, 431.8871
690.7512, 437.5196
692.6797, 440.1793
694.6082, 435.8704
696.5366, 426.8026
698.4651, 422.0262
700.3936, 425.2032
702.3220, 429.4573
704.2505, 431.8810
706.1790, 432.1736
708.1074, 431.8703
710.0359, 429.9569
711.9644, 428.2610
713.8928, 428.7362
715.8213, 431.5712
717.7498, 432.6734
719.6782, 429.5830
721.6067, 425.3830
723.5352, 422.5555
725.4636, 421.6325
727.3921, 421.2834
729.3206, 422.8012
731.2490, 424.3425
733.1775, 422.8383
735.1060, 417.1638
737.0344, 411.9980
738.9629, 408.6832
740.8914, 406.8362
742.8198, 405.9082
744.7483, 405.4847
746.6768, 406.6375
748.6052, 410.6953
750.5337, 416.7984
752.4622, 421.1815
754.3906, 423.0622
756.3191, 424.4614
758.2476, 426.3344
760.1760, 428.5258
762.1045, 429.9702
764.0330, 428.1534
765.9614, 427.9082
767.8899, 430.6812
769.8184, 436.7397
771.7468, 445.5584
773.6753, 458.9155
775.6038, 473.4165
777.5322, 488.5070
779.4607, 504.2342
781.3892, 516.3200
783.3176, 522.2370
785.2461, 525.7737
787.1746, 528.1697
789.1030, 528.1606
791.0315, 531.1714
792.9600, 542.7315
794.8884, 553.4169
796.8169, 555.7886
798.7454, 549.4604
800.6738, 541.2209
802.6023, 530.2994
804.5308, 519.3426
806.4592, 510.6565
808.3877, 507.8029
810.3162, 501.1971
812.2446, 485.4681
814.1731, 468.8687
816.1016, 461.5833
818.0300, 465.6919
819.9585, 467.1053
821.8870, 461.8990
823.8154, 452.2363
825.7439, 439.3445
827.6724, 418.6127
829.6008, 402.5977
831.5293, 395.5050
833.4578, 392.2822
835.3862, 385.6582
837.3147, 374.9030
839.2432, 363.8435
841.1716, 352.4570
843.1001, 341.7011
845.0286, 332.7378
846.9570, 325.5049
848.8855, 320.4919
850.8140, 318.1909
852.7424, 317.8505
854.6709, 318.7811
856.5994, 322.9089
858.5278, 324.1711
860.4563, 318.5316
862.3848, 310.4291
864.3132, 305.7886
866.2417, 306.0600
868.1702, 306.2015
870.0986, 304.1283
872.0271, 301.5042
873.9556, 300.9706
875.8840, 305.7466
877.8125, 308.1906
879.7410, 305.9144
881.6694, 301.6767
883.5979, 299.5103
885.5264, 300.1077
887.4548, 300.2468
889.3833, 297.9961
891.3118, 295.2213
893.2402, 294.3690
895.1687, 297.9886
897.0972, 299.2989
899.0256, 295.0184
900.9541, 289.3910
902.8826, 288.9059
904.8110, 295.0760
906.7395, 299.2556
908.6680, 297.5608
910.5964, 294.0876
912.5249, 292.6315
914.4534, 293.3614
916.3818, 295.6838
918.3103, 302.8669
920.2388, 309.4439
922.1672, 309.6023
924.0957, 299.6797
926.0242, 292.5200
927.9526, 289.8695
929.8811, 289.4077
931.8096, 289.6522
933.7380, 290.6516
935.6665, 291.2879
937.5950, 290.6011
939.5234, 290.1113
941.4519, 290.7472
943.3804, 292.7734
945.3088, 295.0598
947.2373, 298.5202
949.1658, 301.4199
951.0942, 302.2916
953.0227, 301.2443
954.9512, 300.9891
956.8796, 301.7950
958.8081, 303.3762
960.7366, 305.8939
962.6650, 309.2224
964.5935, 312.0399
966.5220, 312.7184
968.4504, 314.5730
970.3789, 319.7303
972.3074, 327.4578
974.2358, 332.4485
976.1643, 332.5146
978.0928, 333.0345
980.0212, 336.6317
981.9497, 341.5078
983.8782, 343.4875
985.8066, 340.1679
987.7351, 339.5014
989.6636, 345.1485
991.5920, 354.3969
993.5205, 363.1880
995.4490, 373.0471
997.3774, 379.9226
999.3059, 381.3773
1001.234, 380.8956
1003.163, 382.4581
1005.091, 386.1992
1007.020, 390.5699
1008.948, 394.9927
1010.877, 400.3245
1012.805, 407.9261
1014.734, 418.1710
1016.662, 425.5649
1018.591, 426.3575
1020.519, 426.8495
1022.448, 430.2840
1024.376, 436.8781
1026.304, 441.5045
1028.233, 443.2906
1030.161, 444.3004
1032.090, 444.9705
1034.018, 445.3791
1035.947, 445.5365
1037.875, 444.5140
1039.804, 445.2679
1041.732, 450.3506
1043.661, 457.4501
1045.589, 462.7287
1047.518, 465.6207
1049.446, 467.7092
1051.375, 470.1003
1053.303, 471.3512
1055.231, 468.8986
1057.160, 460.2075
1059.088, 456.6480
1061.017, 462.7739
1062.945, 470.9816
1064.874, 475.9020
1066.802, 478.1172
1068.731, 482.3882
1070.659, 490.4603
1072.588, 499.0780
1074.516, 507.2589
1076.445, 514.9229
1078.373, 521.6403
1080.302, 522.7556
1082.230, 528.7325
1084.158, 543.8893
1086.087, 564.2126
1088.015, 582.8947
1089.944, 600.6976
1091.872, 615.2935
1093.801, 624.4680
1095.729, 631.4552
1097.658, 638.7906
1099.586, 646.4662
1101.515, 653.8080
1103.443, 661.0660
1105.372, 667.4582
1107.300, 673.3442
1109.229, 678.5658
1111.157, 680.1926
1113.085, 674.3646
1115.014, 669.6592
1116.942, 667.3459
1118.871, 667.4824
1120.799, 671.3532
1122.728, 681.6109
1124.656, 686.9222
1126.585, 681.1971
1128.513, 672.0767
1130.442, 665.2991
1132.370, 660.8548
1134.299, 658.3369
1136.227, 658.6498
1138.156, 659.9044
1140.084, 662.0696
1142.012, 664.8481
1143.941, 665.5311
1145.869, 664.0902
1147.798, 660.5435
1149.726, 653.1653
1151.655, 644.2285
1153.583, 637.5611
1155.512, 633.5053
1157.440, 629.6796
1159.369, 628.5322
1161.297, 625.1077
1163.226, 614.3719
1165.154, 597.3536
1167.083, 583.8544
1169.011, 578.3345
1170.939, 571.3275
1172.868, 556.9916
1174.796, 538.8843
1176.725, 526.7232
1178.653, 528.6750
1180.582, 523.6666
1182.510, 504.9038
1184.439, 482.1538
1186.367, 464.1690
1188.296, 451.4589
1190.224, 440.2560
1192.153, 431.0856
1194.081, 422.7105
1196.010, 416.1434
1197.938, 409.8340
1199.866, 399.3526
1201.795, 382.5374
1203.723, 367.2573
1205.652, 356.5228
1207.580, 348.1640
1209.509, 340.3813
1211.437, 333.0974
1213.366, 326.8909
1215.294, 320.6454
1217.223, 316.6348
1219.151, 317.8674
1221.080, 322.6945
1223.008, 322.8383
1224.937, 315.2907
1226.865, 308.4875
1228.793, 303.0746
1230.722, 299.3912
1232.650, 298.5920
1234.579, 300.6242
1236.507, 301.4110
1238.436, 300.0179
1240.364, 297.8080
1242.293, 294.5940
1244.221, 291.1319
1246.150, 289.9252
1248.078, 292.5958
1250.007, 293.6459
1251.935, 290.2610
1253.864, 286.1725
1255.792, 284.5637
1257.720, 285.9083
1259.649, 286.9692
1261.577, 288.1253
1263.506, 288.5899
1265.434, 286.7428
1267.363, 284.2721
1269.291, 285.8714
1271.220, 293.7014
1273.148, 297.4491
1275.077, 291.1753
1277.005, 283.9589
1278.934, 282.2473
1280.862, 284.8583
1282.791, 287.0297
1284.719, 289.0244
1286.647, 289.2088
1288.576, 284.4967
1290.504, 279.0851
1292.433, 278.4987
1294.361, 284.1042
1296.290, 287.5092
1298.218, 286.7873
1300.147, 285.0392
1302.075, 282.1843
1304.004, 279.1439
1305.932, 278.9911
1307.861, 286.2814
1309.789, 289.6509
1311.718, 284.7122
1313.646, 278.9914
1315.574, 278.7385
1317.503, 283.5626
1319.431, 286.7920
1321.360, 288.2726
1323.288, 288.2549
1325.217, 285.2444
1327.145, 281.6986
1329.074, 280.1601
1331.002, 280.6467
1332.931, 282.5581
1334.859, 287.5601
1336.788, 291.3551
1338.716, 290.4671
1340.645, 287.4222
1342.573, 288.4870
1344.501, 295.9229
1346.430, 300.5647
1348.358, 299.1434
1350.287, 296.7129
1352.215, 296.1245
1354.144, 296.9900
1356.072, 296.6593
1358.001, 293.4665
1359.929, 291.4053
1361.858, 291.3773
1363.786, 292.1220
1365.715, 292.7275
1367.643, 293.1873
1369.572, 293.4534
1371.500, 292.9121
1373.428, 293.1831
1375.357, 296.3228
1377.285, 299.5143
1379.214, 298.8296
1381.142, 294.4797
1383.071, 292.1604
1384.999, 293.7178
1386.928, 295.3349
1388.856, 294.1102
1390.785, 292.5602
1392.713, 295.0818
1394.642, 302.4244
1396.570, 306.7479
1398.499, 305.2401
1400.427, 302.6642
1402.355, 300.7671
1404.284, 299.2336
1406.212, 297.1480
1408.141, 293.5762
1410.069, 292.1805
1411.998, 294.8622
1413.926, 297.9187
1415.855, 299.7926
1417.783, 300.7469
1419.712, 301.5789
1421.640, 302.7409
1423.569, 302.9754
1425.497, 301.2198
1427.426, 299.6012
1429.354, 299.3769
1431.282, 300.2635
1433.211, 301.0854
1435.139, 301.3406
1437.068, 302.9256
1438.996, 307.8658
1440.925, 312.5588
1442.853, 314.0137
1444.782, 313.4370
1446.710, 315.3648
1448.639, 321.6432
1450.567, 323.2493
1452.496, 312.4157
1454.424, 302.1430
1456.353, 303.1927
1458.281, 311.2437
1460.209, 313.4741
1462.138, 307.3495
1464.066, 303.6415
1465.995, 306.9337
1467.923, 311.2524
1469.852, 313.5338
1471.780, 313.9792
1473.709, 313.1339
1475.637, 310.4516
1477.566, 308.1707
1479.494, 305.0440
1481.423, 304.1492
1483.351, 309.2546
1485.280, 318.0346
1487.208, 321.7033
1489.136, 317.7516
1491.065, 314.4422
1492.993, 310.4183
1494.922, 309.2854
1496.850, 315.3874
1498.779, 325.4675
1500.707, 330.3687
1502.636, 325.7100
1504.564, 324.6516
1506.493, 331.7732
1508.421, 337.1602
1510.350, 334.0388
1512.278, 327.0232
1514.207, 325.6603
1516.135, 332.3214
1518.063, 336.6361
1519.992, 337.8448
1521.920, 337.4238
1523.849, 334.9874
1525.777, 331.6535
1527.706, 328.5471
1529.634, 325.5146
1531.563, 325.0898
1533.491, 328.6162
1535.420, 332.8472
1537.348, 339.6091
1539.277, 344.6562
1541.205, 340.5699
1543.134, 329.1758
1545.062, 325.5574
1546.990, 333.7134
1548.919, 341.6495
1550.847, 345.5654
1552.776, 348.2183
1554.704, 351.5511
1556.633, 355.3391
1558.561, 359.1952
1560.490, 363.5471
1562.418, 365.9347
1564.347, 364.5086
1566.275, 362.5175
1568.204, 361.5445
1570.132, 361.4475
1572.061, 362.0051
1573.989, 363.2025
1575.917, 365.3682
1577.846, 369.8496
1579.774, 373.1667
1581.703, 372.1386
1583.631, 370.0958
1585.560, 371.0393
1587.488, 374.8525
1589.417, 378.8939
1591.345, 383.6454
1593.274, 386.9797
1595.202, 385.2124
1597.131, 384.5730
1599.059, 390.3940
1600.988, 401.3446
1602.916, 411.4887
1604.844, 421.2859
1606.773, 428.0896
1608.701, 428.7867
1610.630, 429.5988
1612.558, 432.7720
1614.487, 438.1107
1616.415, 446.3943
1618.344, 458.3333
1620.272, 465.8104
1622.201, 465.0984
1624.129, 465.2177
1626.058, 470.1543
1627.986, 475.7536
1629.915, 478.9057
1631.843, 479.6405
1633.771, 477.7679
1635.700, 471.6155
1637.628, 467.4589
1639.557, 467.4099
1641.485, 468.4084
1643.414, 471.2526
1645.342, 473.4576
1647.271, 469.1578
1649.199, 456.7210
1651.128, 450.2368
1653.056, 456.1949
1654.985, 458.3603
1656.913, 449.6848
1658.842, 438.9276
1660.770, 433.7188
1662.698, 432.5662
1664.627, 427.2524
1666.555, 416.4109
1668.484, 405.5674
1670.412, 392.6037
1672.341, 383.1523
1674.269, 380.8063
1676.198, 382.0364
1678.126, 383.1874
1680.055, 384.3430
1681.983, 382.7213
1683.912, 376.5065
1685.840, 371.3817
1687.769, 368.8698
1689.697, 367.1613
1691.625, 366.1248
1693.554, 364.9757
1695.482, 361.2577
1697.411, 354.0824
1699.339, 351.2241
1701.268, 357.0771
1703.196, 360.1901
1705.125, 354.1812
1707.053, 347.8456
1708.982, 348.6033
1710.910, 354.1496
1712.839, 356.0940
1714.767, 353.9146
1716.696, 350.6693
1718.624, 344.9880
1720.552, 341.0439
1722.481, 340.8324
1724.409, 342.3400
1726.338, 345.5114
1728.266, 349.2457
1730.195, 346.5616
1732.123, 335.2495
1734.052, 327.9229
1735.980, 327.9455
1737.909, 330.1129
1739.837, 333.2487
1741.766, 336.7855
1743.694, 341.5432
1745.623, 346.5298
1747.551, 345.3499
1749.479, 335.8404
1751.408, 330.0502
1753.336, 331.9215
1755.265, 335.1963
1757.193, 337.8509
1759.122, 339.8281
1761.050, 340.6380
1762.979, 340.6413
1764.907, 341.7034
1766.836, 344.2051
1768.764, 346.1014
1770.693, 346.4756
1772.621, 347.0175
1774.550, 349.5555
1776.478, 351.8674
1778.406, 350.6754
1780.335, 347.2374
1782.263, 347.3578
1784.192, 352.4747
1786.120, 353.6353
1788.049, 345.5156
1789.977, 339.2394
1791.906, 340.7121
1793.834, 345.1067
1795.763, 348.9294
1797.691, 351.7633
1799.620, 351.7044
1801.548, 348.0242
1803.477, 345.4274
1805.405, 344.9236
1807.333, 344.8344
1809.262, 344.8650
1811.190, 344.9434
1813.119, 344.5590
1815.047, 344.2305
1816.976, 345.9705
1818.904, 350.9701
1820.833, 352.7319
1822.761, 347.4226
1824.690, 344.5668
1826.618, 347.7110
1828.547, 351.6205
1830.475, 352.9786
1832.404, 352.9440
1834.332, 353.6203
1836.260, 355.0722
1838.189, 356.3494
1840.117, 357.2776
1842.046, 358.3501
1843.974, 360.1210
1845.903, 361.3999
1847.831, 362.1510
1849.760, 361.8362
1851.688, 358.8827
1853.617, 353.9420
1855.545, 352.4692
1857.474, 355.5765
1859.402, 356.1664
1861.331, 350.7500
1863.259, 347.9080
1865.188, 353.2610
1867.116, 359.2981
1869.044, 360.8515
1870.973, 359.6102
1872.901, 357.9276
1874.830, 356.0120
1876.758, 357.3578
1878.687, 363.5097
1880.615, 368.0593
1882.544, 368.0921
1884.472, 368.2008
1886.401, 373.1335
1888.329, 377.3277
1890.258, 372.5371
1892.186, 361.8866
1894.115, 358.1814
1896.043, 362.8562
1897.971, 364.9902
1899.900, 361.3376
1901.828, 359.0354
1903.757, 360.1049
1905.685, 362.2722
1907.614, 364.6844
1909.542, 367.0876
1911.471, 369.2837
1913.399, 371.2230
1915.328, 372.2536
1917.256, 372.6332
1919.185, 371.4802
1921.113, 366.3904
1923.042, 363.1218
1924.970, 364.2344
1926.898, 366.1898
1928.827, 366.5676
1930.755, 366.3089
1932.684, 367.6773
1934.612, 370.3362
1936.541, 369.5096
1938.469, 363.5898
1940.398, 362.3318
1942.326, 369.9102
1944.255, 377.2343
1946.183, 381.0410
1948.112, 383.0291
1950.040, 383.5129
1951.969, 383.4398
1953.897, 384.6656
1955.825, 386.9834
1957.754, 388.4301
1959.682, 389.0822
1961.611, 388.3828
1963.539, 384.9326
1965.468, 382.0234
1967.396, 380.7719
1969.325, 380.0916
1971.253, 379.5035
1973.182, 378.8643
1975.110, 377.1841
1977.039, 374.7233
1978.967, 376.5526
1980.896, 385.5605
1982.824, 388.6103
1984.752, 380.2690
1986.681, 374.5746
1988.609, 376.6229
1990.538, 380.3117
1992.466, 383.2615
1994.395, 385.5357
1996.323, 386.4771
1998.252, 386.8670
2000.180, 390.2897
2002.109, 396.9655
2004.037, 398.5263
2005.966, 391.4969
2007.894, 387.0754
2009.823, 391.5608
2011.751, 394.3954
2013.679, 387.6645
2015.608, 380.7987
2017.536, 383.4994
2019.465, 391.8543
2021.393, 398.3596
2023.322, 403.0687
2025.250, 401.6230
2027.179, 389.6184
2029.107, 383.0923
2031.036, 385.8481
2032.964, 389.2585
2034.893, 392.5335
2036.821, 394.4033
2038.750, 392.9690
2040.678, 390.7757
2042.606, 390.9812
2044.535, 392.6469
2046.463, 392.9430
2048.392, 391.8936
2050.320, 391.9896
2052.249, 393.7112
2054.177, 395.5366
2056.106, 398.6667
2058.034, 399.6957
2059.963, 395.4060
2061.891, 391.1310
2063.820, 390.0704
2065.748, 391.3815
2067.677, 395.1934
2069.605, 400.5065
2071.533, 401.9052
2073.462, 398.6059
2075.390, 397.4579
2077.319, 398.9753
2079.247, 401.8007
2081.176, 407.5639
2083.104, 410.9188
2085.033, 408.8530
2086.961, 404.9955
2088.890, 398.6164
2090.818, 394.1222
2092.747, 398.8639
2094.675, 409.7263
2096.604, 417.2991
2098.532, 421.6102
2100.460, 421.8660
2102.389, 415.6449
2104.317, 410.1492
2106.246, 403.5243
2108.174, 400.6438
2110.103, 406.5156
2112.031, 411.4716
2113.960, 408.0631
2115.888, 403.7715
2117.817, 406.9556
2119.745, 414.2563
2121.674, 418.7657
2123.602, 420.7569
2125.531, 422.3337
2127.459, 423.7740
2129.387, 422.2719
2131.316, 414.7259
2133.244, 411.0573
2135.173, 417.6006
2137.101, 422.3364
2139.030, 419.2541
2140.958, 414.8593
2142.887, 412.1298
2144.815, 411.8997
2146.744, 417.9749
2148.672, 427.1966
2150.601, 426.3477
2152.529, 416.2943
2154.458, 415.1302
2156.386, 425.1777
2158.314, 431.9769
2160.243, 433.4124
2162.171, 431.5275
2164.100, 423.0228
2166.028, 416.7549
2167.957, 418.1163
2169.885, 420.9443
2171.814, 421.3459
2173.742, 420.1011
2175.671, 417.7915
2177.599, 414.7766
2179.528, 411.1068
2181.456, 406.8548
2183.385, 410.2249
2185.313, 422.8465
2187.241, 430.1233
2189.170, 429.2007
2191.098, 427.0209
2193.027, 424.0870
2194.955, 422.3438
2196.884, 424.5203
2198.812, 425.7419
2200.741, 420.9800
2202.669, 415.6477
2204.598, 416.1429
2206.526, 419.9330
2208.455, 422.2770
2210.383, 423.1797
2212.312, 422.0170
2214.240, 418.6276
2216.168, 418.9279
2218.097, 424.4495
2220.025, 425.9295
2221.954, 418.5676
2223.882, 415.9301
2225.811, 426.2550
2227.739, 436.1951
2229.668, 441.2932
2231.596, 443.2867
2233.525, 442.2206
2235.453, 439.6624
2237.382, 435.8960
2239.310, 432.6394
2241.239, 436.0838
2243.167, 444.0597
2245.095, 441.9438
2247.024, 429.8952
2248.952, 422.6959
2250.881, 421.9479
2252.809, 423.4576
2254.738, 429.6481
2256.666, 431.1813
2258.595, 420.1196
2260.523, 412.8627
2262.452, 418.6047
2264.380, 424.7664
2266.309, 423.3694
2268.237, 420.1653
2270.166, 420.4927
2272.094, 422.1901
2274.022, 422.1425
2275.951, 420.8343
2277.879, 418.6489
2279.808, 416.0417
2281.736, 417.2435
2283.665, 423.1831
2285.593, 428.0265
2287.522, 433.1318
2289.450, 434.2629
2291.379, 427.2415
2293.307, 424.0062
2295.236, 429.9485
2297.164, 433.8027
2299.093, 428.4098
2301.021, 424.4764
2302.949, 431.1350
2304.878, 438.8184
2306.806, 438.3296
2308.735, 434.8528
2310.663, 435.3509
2312.592, 438.4683
2314.520, 441.2144
2316.449, 443.5112
2318.377, 444.4350
2320.306, 443.9561
2322.234, 444.0626
2324.163, 444.8632
2326.091, 445.7216
2328.020, 446.1172
2329.948, 448.5948
2331.876, 457.8688
2333.805, 461.4323
2335.733, 452.0091
2337.662, 442.5082
2339.590, 437.4843
2341.519, 433.8176
2343.447, 429.7306
2345.376, 426.2900
2347.304, 424.6995
2349.233, 423.9627
2351.161, 423.2892
2353.090, 422.4262
2355.018, 419.9334
2356.947, 416.8808
2358.875, 418.1110
2360.803, 423.5315
2362.732, 427.3508
2364.660, 429.2624
2366.589, 432.2007
2368.517, 437.3723
2370.446, 435.6671
2372.374, 423.0033
2374.303, 415.7003
2376.231, 420.4002
2378.160, 424.0497
2380.088, 421.3962
2382.017, 419.2224
2383.945, 419.5628
2385.874, 421.5504
2387.802, 427.6591
2389.730, 431.9303
2391.659, 427.1507
2393.587, 421.0083
2395.516, 421.4258
2397.444, 425.0186
2399.373, 427.9810
2401.301, 429.9052
2403.230, 429.4988
2405.158, 427.1436
2407.087, 424.5779
2409.015, 421.7936
2410.944, 420.0559
2412.872, 419.3217
2414.801, 422.4608
2416.729, 430.4987
2418.657, 432.3593
2420.586, 422.9114
2422.514, 420.4521
2424.443, 434.8152
2426.371, 444.6078
2428.300, 445.2618
2430.228, 443.6695
2432.157, 438.6493
2434.085, 436.1415
2436.014, 441.9544
2437.942, 445.2989
2439.871, 435.0471
2441.799, 426.2763
2443.728, 433.4780
2445.656, 443.3863
2447.584, 441.8146
2449.513, 436.5029
2451.441, 438.2297
2453.370, 442.8509
2455.298, 442.2513
2457.227, 438.9166
2459.155, 439.7434
2461.084, 443.0081
2463.012, 440.3178
2464.941, 432.3916
2466.869, 430.8217
2468.798, 436.7226
2470.726, 436.0592
2472.655, 427.7505
2474.583, 424.8848
2476.511, 428.7507
2478.440, 433.9418
2480.368, 440.7586
2482.297, 444.8882
2484.225, 445.4716
2486.154, 443.5490
2488.082, 436.8339
2490.011, 431.5962
2491.939, 428.9258
2493.868, 427.6139
2495.796, 427.7971
2497.725, 428.3354
2499.653, 428.3056
2501.582, 429.0650
2503.510, 432.1945
2505.438, 435.2136
2507.367, 438.3288
2509.295, 438.5834
2511.224, 428.7743
2513.152, 420.0730
2515.081, 425.3781
2517.009, 434.8103
2518.938, 437.3034
2520.866, 436.6252
2522.795, 438.9318
2524.723, 442.0582
2526.652, 440.2438
2528.580, 436.0803
2530.509, 438.0009
2532.437, 443.7320
2534.365, 446.1407
2536.294, 445.4725
2538.222, 443.1710
2540.151, 439.4221
2542.079, 436.5106
2544.008, 434.3158
2545.936, 435.6829
2547.865, 440.7856
2549.793, 443.2844
2551.722, 442.6757
2553.650, 444.7976
2555.579, 451.1525
2557.507, 455.1772
2559.436, 457.6135
2561.364, 454.0786
2563.292, 440.0533
2565.221, 434.8559
2567.149, 443.4356
2569.078, 449.6131
2571.006, 449.7182
2572.935, 448.5057
2574.863, 446.3674
2576.792, 444.3234
2578.720, 441.6825
2580.649, 440.6337
2582.577, 441.8115
2584.506, 444.2474
2586.434, 448.2040
2588.363, 452.2486
2590.291, 457.9499
2592.219, 460.3804
2594.148, 456.2394
2596.076, 449.9546
2598.005, 440.9442
2599.933, 434.1332
2601.862, 432.3079
2603.790, 432.7936
2605.719, 434.7937
2607.647, 437.3772
2609.576, 441.3701
2611.504, 443.9174
2613.433, 442.1061
2615.361, 438.6133
2617.290, 432.9547
2619.218, 429.7184
2621.146, 434.8249
2623.075, 442.3152
2625.003, 446.9196
2626.932, 449.7346
2628.860, 451.2256
2630.789, 452.4377
2632.717, 456.0721
2634.646, 459.0482
2636.574, 455.8921
2638.503, 450.8613
2640.431, 449.6960
2642.360, 450.9108
2644.288, 454.3848
2646.217, 456.8957
2648.145, 448.7866
2650.073, 437.6124
2652.002, 438.6102
2653.930, 446.9337
2655.859, 458.0186
2657.787, 466.9762
2659.716, 457.4186
2661.644, 438.9701
2663.573, 437.8611
2665.501, 447.9421
2667.430, 455.6555
2669.358, 460.1699
2671.287, 457.9292
2673.215, 451.5463
2675.144, 449.4057
2677.072, 450.2063
2679.000, 447.8755
2680.929, 444.7662
2682.857, 450.1505
2684.786, 461.1753
2686.714, 470.4364
2688.643, 476.1788
2690.571, 466.7700
2692.500, 447.8221
2694.428, 448.4163
2696.357, 462.2759
2698.285, 466.3863
2700.214, 462.9309
2702.142, 462.4487
2704.071, 463.6113
2705.999, 459.5786
2707.927, 451.6423
2709.856, 444.8864
2711.784, 440.3357
2713.713, 443.0638
2715.641, 451.2719
2717.570, 458.9121
2719.498, 465.2411
2721.427, 465.9421
2723.355, 462.3145
2725.284, 459.0793
2727.212, 457.2971
2729.141, 463.2653
2731.069, 473.3104
2732.998, 473.4991
2734.926, 466.8890
2736.854, 465.5169
2738.783, 467.5238
2740.711, 465.2931
2742.640, 460.9581
2744.568, 461.6074
2746.497, 464.6873
2748.425, 461.1411
2750.354, 454.5003
2752.282, 455.7407
2754.211, 462.0400
2756.139, 467.1305
2758.068, 471.2655
2759.996, 475.1629
2761.925, 478.4549
2763.853, 481.0755
2765.781, 482.0264
2767.710, 476.9565
2769.638, 470.3856
2771.567, 471.1793
2773.495, 474.7780
2775.424, 473.0572
2777.352, 469.7135
2779.281, 470.5765
2781.209, 473.7352
2783.138, 477.9130
2785.066, 481.3276
2786.995, 481.0455
2788.923, 479.5250
2790.852, 480.6403
2792.780, 481.1672
2794.708, 475.9281
2796.637, 470.1089
2798.565, 466.9809
2800.494, 467.1375
2802.422, 473.8608
2804.351, 480.7080
2806.279, 482.5698
2808.208, 482.0661
2810.136, 479.1000
2812.065, 477.2932
2813.993, 480.7488
2815.922, 483.6687
2817.850, 481.8247
2819.779, 479.5917
2821.707, 479.5208
2823.635, 478.7370
2825.564, 473.4322
2827.492, 471.4211
2829.421, 481.4492
2831.349, 486.0239
2833.278, 472.4097
2835.206, 467.8487
2837.135, 483.7093
2839.063, 497.1916
2840.992, 501.4859
2842.920, 501.9267
2844.849, 495.3087
2846.777, 495.0844
2848.706, 505.7648
2850.634, 508.7932
2852.563, 498.0745
2854.491, 491.0411
2856.419, 490.7008
2858.348, 491.8979
2860.276, 494.6372
2862.205, 498.4957
2864.133, 503.4542
2866.062, 510.5902
2867.990, 520.7657
2869.919, 520.8862
2871.847, 511.0757
2873.776, 511.0291
2875.704, 518.1462
2877.633, 511.1521
2879.561, 494.3629
2881.490, 491.2072
2883.418, 498.4140
2885.346, 506.6828
2887.275, 513.4380
2889.203, 509.4559
2891.132, 501.8500
2893.060, 504.4920
2894.989, 511.0370
2896.917, 511.0280
2898.846, 509.7805
2900.774, 514.3046
2902.703, 519.5409
2904.631, 518.6185
2906.560, 519.1406
2908.488, 531.4865
2910.417, 541.4315
2912.345, 539.9666
2914.273, 535.8683
2916.202, 531.3108
2918.130, 529.0914
2920.059, 532.1240
2921.987, 534.4332
2923.916, 533.5728
2925.844, 535.3200
2927.773, 545.7572
2929.701, 547.5699
2931.630, 530.9891
2933.558, 526.7415
2935.487, 538.4204
2937.415, 549.2077
2939.344, 557.6376
2941.272, 560.9282
2943.200, 558.4967
2945.129, 558.1434
2947.057, 559.2326
2948.986, 553.4759
2950.914, 543.9058
2952.843, 547.6734
2954.771, 559.6749
2956.700, 563.2115
2958.628, 562.7587
2960.557, 569.2304
2962.485, 576.2987
2964.414, 572.3487
2966.342, 567.6420
2968.271, 576.3419
2970.199, 586.0468
2972.127, 588.4604
2974.056, 587.2473
2975.984, 581.7603
2977.913, 577.7541
2979.841, 576.7314
2981.770, 580.3043
2983.698, 592.4777
2985.627, 599.5043
2987.555, 592.3848
2989.484, 589.9023
2991.412, 593.7325
2993.341, 601.8112
2995.269, 614.6884
2997.198, 618.6500
2999.126, 611.6268
3001.054, 614.8173
3002.983, 626.9880
3004.911, 631.0831
3006.840, 630.1057
3008.768, 634.7034
3010.697, 642.8548
3012.625, 650.6659
3014.554, 658.0610
3016.482, 666.5109
3018.411, 672.5497
3020.339, 671.0706
3022.268, 667.9592
3024.196, 664.9325
3026.125, 666.3555
3028.053, 676.8103
3029.981, 686.3621
3031.910, 692.4012
3033.838, 693.9444
3035.767, 689.6193
3037.695, 683.6995
3039.624, 674.9678
3041.552, 678.5801
3043.481, 700.3835
3045.409, 709.5131
3047.338, 706.7018
3049.266, 712.1530
3051.195, 723.8792
3053.123, 731.8176
3055.052, 737.0566
3056.980, 740.5248
3058.908, 745.1418
3060.837, 757.8721
3062.765, 771.0012
3064.694, 777.3657
3066.622, 780.6583
3068.551, 781.0554
3070.479, 783.0898
3072.408, 789.1613
3074.336, 795.8807
3076.265, 802.1229
3078.193, 808.6229
3080.122, 814.7278
3082.050, 826.3483
3083.979, 845.2048
3085.907, 854.8097
3087.835, 854.6758
3089.764, 868.6310
3091.692, 891.3654
3093.621, 900.2205
3095.549, 901.2738
3097.478, 906.9511
3099.406, 913.0109
3101.335, 908.8329
3103.263, 908.5958
3105.192, 928.6594
3107.120, 948.5709
3109.049, 952.5577
3110.977, 962.3123
3112.906, 988.9027
3114.834, 1004.198
3116.762, 992.4285
3118.691, 991.9347
3120.619, 1004.841
3122.548, 1027.880
3124.476, 1058.170
3126.405, 1063.512
3128.333, 1052.562
3130.262, 1061.996
3132.190, 1083.631
3134.119, 1105.442
3136.047, 1124.982
3137.976, 1136.109
3139.904, 1148.431
3141.833, 1167.536
3143.761, 1191.959
3145.689, 1229.562
3147.618, 1254.961
3149.546, 1253.770
3151.475, 1262.366
3153.403, 1284.046
3155.332, 1307.904
3157.260, 1332.964
3159.189, 1350.051
3161.117, 1360.844
3163.046, 1372.706
3164.974, 1385.211
3166.903, 1394.174
3168.831, 1407.284
3170.760, 1439.686
3172.688, 1470.552
3174.616, 1482.228
3176.545, 1498.210
3178.473, 1532.974
3180.402, 1562.717
3182.330, 1582.804
3184.259, 1609.378
3186.187, 1646.666
3188.116, 1670.953
3190.044, 1683.141
3191.973, 1692.191
3193.901, 1702.969
3195.830, 1730.579
3197.758, 1762.425
3199.687, 1780.262
3201.615, 1795.368
3203.543, 1811.971
3205.472, 1834.909
3207.400, 1876.609
3209.329, 1902.938
3211.257, 1904.132
3213.186, 1915.564
3215.114, 1944.170
3217.043, 1970.707
3218.971, 1995.064
3220.900, 2017.651
3222.828, 2037.602
3224.757, 2051.339
3226.685, 2063.790
3228.614, 2082.279
3230.542, 2101.008
3232.470, 2112.615
3234.399, 2129.746
3236.327, 2165.031
3238.256, 2189.415
3240.184, 2197.120
3242.113, 2216.305
3244.041, 2250.928
3245.970, 2267.557
3247.898, 2271.896
3249.827, 2289.229
3251.755, 2315.680
3253.684, 2353.512
3255.612, 2386.432
3257.541, 2395.174
3259.469, 2401.627
3261.397, 2414.729
3263.326, 2430.065
3265.254, 2445.073
3267.183, 2470.483
3269.111, 2507.456
3271.040, 2535.055
3272.968, 2554.552
3274.897, 2577.422
3276.825, 2603.077
3278.754, 2631.444
3280.682, 2660.236
3282.611, 2691.219
3284.539, 2714.448
3286.468, 2720.302
3288.396, 2732.647
3290.324, 2761.667
3292.253, 2792.415
3294.181, 2824.589
3296.110, 2857.208
3298.038, 2887.642
3299.967, 2898.392
3301.895, 2903.997
3303.824, 2929.689
3305.752, 2965.715
3307.681, 3012.699
3309.609, 3053.576
3311.538, 3081.813
3313.466, 3102.117
3315.395, 3108.224
3317.323, 3148.408
3319.251, 3223.594
3321.180, 3257.570
3323.108, 3265.662
3325.037, 3288.624
3326.965, 3321.178
3328.894, 3364.050
3330.822, 3402.181
3332.751, 3420.556
3334.679, 3444.384
3336.608, 3480.786
3338.536, 3523.014
3340.465, 3570.776
3342.393, 3608.092
3344.322, 3636.147
3346.250, 3657.705
3348.178, 3682.239
3350.107, 3724.766
3352.035, 3774.470
3353.964, 3824.358
3355.892, 3877.005
3357.821, 3941.497
3359.749, 3977.991
3361.678, 3971.107
3363.606, 3994.135
3365.535, 4041.326
3367.463, 4075.315
3369.392, 4105.764
3371.320, 4152.002
3373.249, 4204.481
3375.177, 4253.458
3377.105, 4310.179
3379.034, 4391.190
3380.962, 4447.252
3382.891, 4471.895
3384.819, 4492.609
3386.748, 4514.272
3388.676, 4522.284
3390.605, 4602.946
3392.533, 4667.343
3394.462, 4716.392
3396.390, 4704.011
3398.319, 4770.951
3400.247, 4806.087
3402.176, 4839.941
3404.104, 4918.014
3406.032, 4914.564
3407.961, 4991.957
3409.889, 5037.065
3411.818, 5096.966
3413.746, 5124.867
3415.675, 5136.319
3417.603, 5158.979
3419.532, 5197.567
3421.460, 5259.380
3423.389, 5304.907
3425.317, 5331.713
3427.246, 5360.053
3429.174, 5390.115
3431.103, 5422.364
3433.031, 5454.982
3434.959, 5490.676
3436.888, 5517.481
3438.816, 5525.620
3440.745, 5544.312
3442.673, 5582.307
3444.602, 5607.393
3446.530, 5622.164
3448.459, 5650.870
3450.387, 5678.563
3452.316, 5679.231
3454.244, 5675.463
3456.173, 5674.618
3458.101, 5688.204
3460.030, 5731.454
3461.958, 5760.474
3463.886, 5776.652
3465.815, 5796.036
3467.743, 5817.179
3469.672, 5844.454
3471.600, 5858.715
3473.529, 5823.326
3475.457, 5815.713
3477.386, 5878.155
3479.314, 5916.692
3481.243, 5924.896
3483.171, 5931.265
3485.100, 5938.086
3487.028, 5950.393
3488.957, 5963.376
3490.885, 5971.344
3492.813, 5979.803
3494.742, 5986.409
3496.670, 6013.113
3498.599, 6066.558
3500.527, 6113.637
3502.456, 6148.897
3504.384, 6137.409
3506.313, 6124.552
3508.241, 6161.887
3510.170, 6208.160
3512.098, 6253.122
3514.027, 6282.040
3515.955, 6287.487
3517.884, 6331.693
3519.812, 6397.018
3521.740, 6428.270
3523.669, 6453.976
3525.597, 6515.918
3527.526, 6561.633
3529.454, 6555.184
3531.383, 6570.235
3533.311, 6611.542
3535.240, 6645.896
3537.168, 6673.275
3539.097, 6700.629
3541.025, 6716.411
3542.954, 6698.738
3544.882, 6695.421
3546.811, 6742.474
3548.739, 6741.155
3550.667, 6690.924
3552.596, 6672.654
3554.524, 6660.647
3556.453, 6582.698
3558.381, 6496.440
3560.310, 6440.296
3562.238, 6392.032
3564.167, 6348.257
3566.095, 6303.439
3568.024, 6252.055
3569.952, 6141.039
3571.881, 6017.792
3573.809, 5955.882
3575.738, 5897.007
3577.666, 5809.011
3579.594, 5717.533
3581.523, 5624.856
3583.451, 5556.062
3585.380, 5503.378
3587.308, 5443.086
3589.237, 5374.026
3591.165, 5283.962
3593.094, 5206.518
3595.022, 5152.716
3596.951, 5103.939
3598.879, 5058.167
3600.808, 5023.170
3602.736, 4988.672
3604.665, 4926.796
3606.593, 4878.334
3608.521, 4874.151
3610.450, 4859.101
3612.378, 4818.850
3614.307, 4778.672
3616.235, 4735.974
3618.164, 4674.785
3620.092, 4618.572
3622.021, 4598.389
3623.949, 4579.293
3625.878, 4563.344
3627.806, 4483.058
3629.735, 4349.581
3631.663, 4283.864
3633.592, 4241.981
3635.520, 4165.025
3637.448, 4079.265
3639.377, 3997.831
3641.305, 3906.282
3643.234, 3803.982
3645.162, 3673.025
3647.091, 3526.426
3649.019, 3380.515
3650.948, 3250.487
3652.876, 3155.162
3654.805, 3040.635
3656.733, 2888.815
3658.662, 2760.836
3660.590, 2645.254
3662.519, 2497.292
3664.447, 2352.015
3666.375, 2245.319
3668.304, 2135.851
3670.232, 1997.132
3672.161, 1907.937
3674.089, 1856.586
3676.018, 1786.097
3677.946, 1712.948
3679.875, 1659.156
3681.803, 1602.994
3683.732, 1528.652
3685.660, 1471.970
3687.589, 1430.897
3689.517, 1391.314
3691.446, 1351.344
3693.374, 1304.477
3695.302, 1265.273
3697.231, 1245.354
3699.159, 1218.466
3701.088, 1186.021
3703.016, 1167.601
3704.945, 1156.551
3706.873, 1149.599
3708.802, 1134.124
3710.730, 1093.678
3712.659, 1078.568
3714.587, 1086.589
3716.516, 1074.800
3718.444, 1051.339
3720.373, 1021.216
3722.301, 997.5831
3724.229, 986.6785
3726.158, 985.7252
3728.086, 991.1843
3730.015, 969.4945
3731.943, 940.7142
3733.872, 934.8962
3735.800, 931.3775
3737.729, 922.9250
3739.657, 911.6923
3741.586, 898.6923
3743.514, 891.2034
3745.443, 884.8701
3747.371, 871.3338
3749.300, 862.3314
3751.228, 863.8514
3753.156, 864.1910
3755.085, 862.6249
3757.013, 859.9518
3758.942, 853.4615
3760.870, 833.3289
3762.799, 822.3431
3764.727, 832.2267
3766.656, 824.0616
3768.584, 805.3237
3770.513, 809.9240
3772.441, 819.5743
3774.370, 821.0444
3776.298, 814.8716
3778.227, 798.2417
3780.155, 793.3805
3782.083, 793.2341
3784.012, 776.0386
3785.940, 761.3215
3787.869, 762.3564
3789.797, 767.0476
3791.726, 773.7247
3793.654, 773.0392
3795.583, 768.7257
3797.511, 766.7445
3799.440, 765.0175
3801.368, 763.2169
3803.297, 757.2006
3805.225, 747.7738
3807.154, 747.8422
3809.082, 749.9505
3811.010, 744.7134
3812.939, 740.6131
3814.867, 739.5368
3816.796, 744.7744
3818.724, 751.9904
3820.653, 742.7909
3822.581, 732.9245
3824.510, 736.9512
3826.438, 734.3686
3828.367, 723.5233
3830.295, 727.9440
3832.224, 739.4531
3834.152, 747.4210
3836.081, 746.0980
3838.009, 726.5997
3839.938, 715.8636
3841.866, 714.4650
3843.794, 717.0648
3845.723, 721.2146
3847.651, 724.7753
3849.580, 728.5718
3851.508, 732.9929
3853.437, 738.2460
3855.365, 740.7653
3857.294, 729.9996
3859.222, 718.8862
3861.151, 712.0189
3863.079, 715.0253
3865.008, 724.9387
3866.936, 716.9984
3868.865, 708.5135
3870.793, 723.6623
3872.721, 728.5438
3874.650, 711.9082
3876.578, 703.9367
3878.507, 704.8754
3880.435, 721.7136
3882.364, 729.5882
3884.292, 714.0795
3886.221, 714.6368
3888.149, 730.3813
3890.078, 728.3904
3892.006, 721.1340
3893.935, 719.1934
3895.863, 717.0869
3897.792, 713.8531
3899.720, 711.3229
3901.648, 709.1392
3903.577, 702.5106
3905.505, 703.4078
3907.434, 720.5428
3909.362, 726.3154
3911.291, 722.5069
3913.219, 718.1434
3915.148, 716.0204
3917.076, 724.2180
3919.005, 722.7542
3920.933, 710.2659
3922.862, 711.7452
3924.790, 714.8935
3926.719, 699.7122
3928.647, 692.0771
3930.575, 701.6981
3932.504, 707.8612
3934.432, 711.3361
3936.361, 716.1307
3938.289, 714.6803
3940.218, 704.1136
3942.146, 706.5044
3944.075, 717.8785
3946.003, 715.1276
3947.932, 710.4155
3949.860, 716.4869
3951.789, 709.6285
3953.717, 690.3101
3955.646, 691.7180
3957.574, 700.8903
3959.502, 700.0881
3961.431, 703.9247
3963.359, 709.7466
3965.288, 708.4581
3967.216, 709.1855
3969.145, 695.0499
3971.073, 685.7355
3973.002, 700.5444
3974.930, 695.2764
3976.859, 682.0928
3978.787, 683.3236
3980.716, 687.0911
3982.644, 688.3265
3984.573, 686.8397
3986.501, 684.2482
3988.429, 688.1875
3990.358, 697.2189
3992.286, 694.4969
3994.215, 684.1356
3996.143, 679.5656
3998.072, 683.8167
4000.000, 690.5867
4001.929, 695.6323
4003.857, 696.7487
4005.786, 701.0339
4007.714, 698.5565
4009.643, 693.4805
4011.571, 694.3420
4013.500, 691.3792
4015.428, 683.3524
4017.356, 672.7343
4019.285, 677.1458
4021.213, 686.1356
4023.142, 677.6708
4025.070, 672.8602
4026.999, 679.5356
4028.927, 686.0037
4030.856, 689.9017
4032.784, 680.2338
4034.713, 668.7592
4036.641, 676.0934
4038.570, 679.3569
4040.498, 670.9817
4042.427, 670.6906
4044.355, 676.3803
4046.283, 680.6830
4048.212, 679.5110
4050.140, 675.7241
4052.069, 669.6899
4053.997, 659.8435
4055.926, 662.9977
4057.854, 667.4092
4059.783, 670.1950
4061.711, 669.0112
4063.640, 665.6722
4065.568, 673.1056
4067.497, 673.7003
4069.425, 658.5613
4071.354, 658.1343
4073.282, 672.6928
4075.210, 680.8665
4077.139, 679.8831
4079.067, 675.0726
4080.996, 669.1831
4082.924, 660.5866
4084.853, 656.3809
4086.781, 654.0488
4088.710, 653.0059
4090.638, 661.5692
4092.567, 669.4001
4094.495, 661.4728
4096.424, 652.9694
4098.352, 653.3560
4100.280, 650.9749
4102.209, 645.8408
4104.138, 652.8463
4106.066, 661.9430
4107.994, 663.5454
4109.923, 655.5151
4111.852, 640.3450
4113.780, 652.1342
4115.708, 664.5751
4117.637, 647.2449
4119.565, 644.4503
4121.494, 662.7280
4123.422, 660.3316
4125.351, 652.2089
4127.279, 655.1931
4129.208, 653.2541
4131.136, 643.3693
4133.064, 641.2120
4134.993, 643.5382
4136.921, 645.7347
4138.850, 646.3887
4140.778, 645.5473
4142.707, 645.4984
4144.635, 644.9645
4146.563, 638.0057
4148.492, 638.1718
4150.421, 647.7543
4152.349, 634.3276
4154.277, 620.3741
4156.206, 635.3904
4158.135, 639.5860
4160.063, 626.7631
4161.991, 630.6478
4163.920, 638.9932
4165.849, 626.1232
4167.777, 618.2729
4169.705, 621.2927
4171.634, 624.6308
4173.563, 625.6367
4175.491, 627.3432
4177.419, 628.5272
4179.348, 620.1653
4181.276, 610.5468
4183.205, 607.5229
4185.133, 616.5690
4187.062, 620.1675
4188.990, 613.9958
4190.918, 610.5214
4192.847, 609.5261
4194.775, 617.3365
4196.704, 626.1010
4198.632, 633.8069
4200.561, 623.9088
4202.489, 610.1314
4204.418, 610.5325
4206.346, 612.1507
4208.274, 610.7422
4210.203, 606.5285
4212.132, 603.6735
4214.060, 605.4400
4215.988, 606.4740
4217.917, 605.5729
4219.846, 602.7540
4221.774, 600.0421
4223.702, 596.6324
4225.631, 601.1465
4227.560, 611.0530
4229.488, 606.5385
4231.416, 599.6039
4233.345, 596.5627
4235.273, 600.5114
4237.202, 608.8232
4239.130, 607.4453
4241.059, 602.9124
4242.987, 597.6224
4244.916, 594.3243
4246.844, 594.6630
4248.772, 607.3379
4250.701, 616.1094
4252.629, 609.2812
4254.558, 613.2225
4256.486, 621.3749
4258.415, 619.6015
4260.343, 617.0715
4262.271, 616.6400
4264.200, 619.4691
4266.129, 620.2427
4268.057, 607.9702
4269.985, 599.6188
4271.914, 598.7549
4273.843, 601.1542
4275.771, 603.1890
4277.699, 600.7888
4279.628, 598.4128
4281.557, 595.6699
4283.485, 583.2197
4285.413, 574.2158
4287.342, 581.1649
4289.271, 586.3318
4291.199, 588.3595
4293.127, 581.8737
4295.056, 580.5182
4296.984, 594.8077
4298.913, 592.4492
4300.841, 582.4816
4302.770, 581.0545
4304.698, 579.6132
4306.626, 575.4999
4308.555, 590.9416
4310.483, 606.0429
4312.412, 598.2733
4314.340, 587.0054
4316.269, 576.8620
4318.197, 585.3488
4320.126, 596.0237
4322.054, 599.9425
4323.982, 600.1287
4325.911, 598.5321
4327.840, 599.7165
4329.768, 599.7079
4331.696, 597.3500
4333.625, 587.8675
4335.554, 579.3828
4337.482, 581.7102
4339.410, 591.4964
4341.339, 605.6601
4343.268, 610.2584
4345.196, 606.7508
4347.124, 594.9144
4349.053, 583.9982
4350.981, 577.0623
4352.910, 580.1076
4354.838, 588.0416
4356.767, 599.0848
4358.695, 602.0446
4360.624, 603.7058
4362.552, 619.1539
4364.480, 615.9937
4366.409, 594.6408
4368.337, 597.1831
4370.266, 603.5350
4372.194, 601.5935
4374.123, 587.9388
4376.051, 572.3865
4377.979, 579.4409
4379.908, 591.7294
4381.837, 605.1403
4383.765, 606.8634
4385.693, 604.6329
4387.622, 605.7559
4389.551, 606.2278
4391.479, 605.9705
4393.407, 608.7113
4395.336, 606.9120
4397.265, 596.7538
4399.193, 596.8881
4401.121, 600.7763
4403.050, 595.2433
4404.979, 599.6333
4406.907, 613.1680
4408.835, 615.4864
4410.764, 607.8620
4412.692, 588.0308
4414.621, 582.6713
4416.549, 586.6682
4418.478, 589.9167
4420.406, 587.1119
4422.334, 577.7644
4424.263, 589.7885
4426.191, 603.5367
4428.120, 602.3228
4430.048, 600.4924
4431.977, 599.6057
4433.905, 603.0479
4435.834, 602.0683
4437.762, 594.5675
4439.690, 595.5792
4441.619, 595.1668
4443.548, 581.5911
4445.476, 589.6345
4447.404, 609.2058
4449.333, 603.9382
4451.262, 597.7294
4453.190, 597.9120
4455.118, 604.8646
4457.047, 608.8370
4458.976, 594.6453
4460.904, 597.6500
4462.832, 611.0092
4464.761, 607.4048
4466.689, 604.2866
4468.618, 606.9619
4470.546, 600.3442
4472.475, 595.6816
4474.403, 603.1946
4476.332, 605.8924
4478.260, 603.4492
4480.188, 595.7957
4482.117, 594.7428
4484.045, 601.4404
4485.974, 594.0754
4487.902, 587.0353
4489.831, 594.0320
4491.759, 597.4191
4493.688, 597.5101
4495.616, 595.5267
4497.545, 592.7177
4499.473, 589.6053
4501.401, 587.5120
4503.330, 592.8373
4505.259, 610.3810
4507.187, 603.9838
4509.115, 590.4327
4511.044, 597.0412
4512.973, 599.2905
4514.901, 595.9831
4516.829, 596.9144
4518.758, 599.7260
4520.687, 604.1016
4522.615, 601.6266
4524.543, 600.7709
4526.472, 612.2595
4528.400, 612.5574
4530.329, 604.2333
4532.257, 594.1639
4534.186, 594.4089
4536.114, 604.0023
4538.042, 594.8846
4539.971, 583.1161
4541.899, 578.3188
4543.828, 579.1669
4545.756, 585.0878
4547.685, 599.5628
4549.613, 603.6582
4551.542, 598.8074
4553.470, 600.6567
4555.398, 598.6285
4557.327, 590.8396
4559.256, 602.5464
4561.184, 611.1957
4563.112, 593.5941
4565.041, 595.9399
4566.970, 605.9657
4568.898, 596.0902
4570.826, 593.5573
4572.755, 598.8018
4574.684, 589.9656
4576.612, 586.8480
4578.540, 595.0610
4580.469, 585.4401
4582.397, 579.1328
4584.326, 597.7855
4586.254, 609.0094
4588.183, 608.4011
4590.111, 579.5883
4592.040, 575.8691
4593.968, 595.6661
4595.896, 595.6656
4597.825, 596.2278
4599.753, 603.0135
4601.682, 606.0292
4603.610, 599.8251
4605.539, 572.2676
4607.467, 582.5443
4609.396, 603.6537
4611.324, 592.2584
4613.253, 584.7131
4615.181, 584.4637
4617.109, 592.0020
4619.038, 591.5649
4620.967, 582.2937
4622.895, 586.7995
4624.823, 589.4829
4626.752, 578.4276
4628.681, 582.0143
4630.609, 587.0861
4632.537, 578.5631
4634.466, 589.1645
4636.395, 605.9551
4638.323, 602.2711
4640.251, 589.0533
4642.180, 573.8860
4644.108, 579.2379
4646.037, 582.0225
4647.965, 575.0285
4649.894, 580.6819
4651.822, 585.4780
4653.750, 582.1957
4655.679, 600.3059
4657.607, 617.0875
4659.536, 604.7449
4661.464, 596.9620
4663.393, 593.6545
4665.321, 588.9686
4667.250, 595.2241
4669.178, 608.6858
4671.106, 612.1462
4673.035, 606.3491
4674.964, 594.5662
4676.892, 605.0001
4678.820, 602.7014
4680.749, 564.8118
4682.678, 581.1413
4684.606, 603.6896
4686.534, 598.1850
4688.463, 590.0013
4690.392, 584.9417
4692.320, 589.5471
4694.248, 590.2667
4696.177, 586.7659
4698.105, 579.4113
4700.034, 574.9203
4701.962, 573.5109
4703.891, 570.6876
4705.819, 571.7810
4707.748, 578.0336
4709.676, 589.5700
4711.604, 591.7660
4713.533, 578.0922
4715.461, 572.5844
4717.390, 573.4077
4719.318, 579.4001
4721.247, 584.8629
4723.175, 588.4047
4725.104, 588.1325
4727.032, 587.7353
4728.961, 589.9259
4730.889, 601.7327
4732.817, 600.4883
4734.746, 589.8342
4736.675, 582.0320
4738.603, 578.8155
4740.531, 580.3948
4742.460, 591.3635
4744.389, 591.3727
4746.317, 579.3950
4748.245, 577.0044
4750.174, 577.5289
4752.103, 578.1405
4754.031, 580.8364
4755.959, 586.4556
4757.888, 595.2583
4759.816, 588.7946
4761.745, 584.8828
4763.673, 601.7430
4765.602, 606.3903
4767.530, 601.4473
4769.458, 588.2922
4771.387, 581.2477
4773.315, 580.5327
4775.244, 588.2422
4777.172, 584.6870
4779.101, 580.3067
4781.029, 603.0339
4782.958, 604.3223
4784.886, 591.0334
4786.814, 598.0729
4788.743, 592.5083
4790.672, 575.6816
4792.600, 572.7487
4794.528, 575.7965
4796.457, 580.7028
4798.386, 571.1205
4800.314, 576.9609
4802.242, 601.3754
4804.171, 592.1814
4806.100, 583.8812
4808.028, 587.4702
4809.956, 584.4437
4811.885, 584.2781
4813.813, 591.3845
4815.742, 592.6995
4817.670, 585.8087
4819.599, 569.8716
4821.527, 576.8138
4823.456, 585.7321
4825.384, 582.3019
4827.313, 578.6910
4829.241, 578.6116
4831.169, 584.9390
4833.098, 586.7261
4835.026, 585.3286
4836.955, 582.8864
4838.883, 572.9772
4840.812, 566.4857
4842.740, 574.7956
4844.669, 576.2365
4846.597, 577.3268
4848.525, 592.3264
4850.454, 582.3367
4852.383, 569.3687
4854.311, 583.4006
4856.239, 583.2972
4858.168, 579.0651
4860.097, 593.7740
4862.025, 590.0964
4863.953, 578.3381
4865.882, 575.2498
4867.811, 580.9576
4869.739, 587.3779
4871.667, 579.1599
4873.596, 583.2236
4875.524, 592.1993
4877.453, 591.8819
4879.381, 583.3359
4881.310, 574.7626
4883.238, 583.5160
4885.167, 575.4247
4887.095, 566.0410
4889.023, 594.0214
4890.952, 600.9376
4892.880, 592.9543
4894.809, 590.8633
4896.737, 584.1170
4898.666, 578.4048
4900.594, 588.4061
4902.522, 587.8369
4904.451, 582.9283
4906.380, 588.8528
4908.308, 591.7198
4910.236, 590.2040
4912.165, 582.3755
4914.094, 582.1053
4916.022, 585.5931
4917.950, 585.8514
4919.879, 587.0833
4921.808, 584.7518
4923.736, 564.9499
4925.664, 570.6138
4927.593, 583.9105
4929.521, 578.7924
4931.450, 576.0824
4933.378, 578.2818
4935.307, 588.4063
4937.235, 583.2086
4939.164, 573.3690
4941.092, 569.6379
4943.021, 575.9496
4944.949, 585.9344
4946.877, 594.3898
4948.806, 588.9974
4950.734, 584.1789
4952.663, 595.3154
4954.591, 596.3735
4956.520, 591.7272
4958.448, 584.4297
4960.377, 586.8677
4962.305, 592.8675
4964.233, 598.4897
4966.162, 572.2625
4968.091, 563.7614
4970.019, 597.6517
4971.947, 592.1904
4973.876, 579.2954
4975.805, 573.2606
4977.733, 583.0527
4979.661, 591.2538
4981.590, 591.5107
4983.519, 582.6198
4985.447, 572.4855
4987.375, 566.7545
4989.304, 585.9257
4991.232, 584.5524
4993.161, 566.7955
4995.089, 583.0969
4997.018, 582.9664
4998.946, 569.4594
5000.875, 569.2305
5002.803, 574.0095
5004.731, 579.2888
5006.660, 582.1270
5008.588, 571.5070
5010.517, 561.3017
5012.445, 569.1995
5014.374, 591.7667
5016.302, 604.0820
5018.230, 582.6298
5020.159, 574.2103
5022.088, 578.8110
5024.016, 597.1522
5025.944, 608.7411
5027.873, 599.5791
5029.802, 568.2247
5031.730, 573.6927
5033.658, 582.6318
5035.587, 582.8252
5037.516, 581.9655
5039.444, 589.1141
5041.372, 600.0684
5043.301, 587.8926
5045.229, 577.8923
5047.158, 575.0035
5049.086, 580.4758
5051.015, 585.8386
5052.943, 587.0544
5054.872, 575.4026
5056.800, 583.3561
5058.729, 591.0540
5060.657, 576.9930
5062.585, 564.6568
5064.514, 564.0067
5066.442, 581.7347
5068.371, 595.0354
5070.299, 588.0764
5072.228, 559.6706
5074.156, 577.1981
5076.085, 580.3522
5078.013, 562.4211
5079.941, 561.1050
5081.870, 569.2344
5083.799, 579.1893
5085.727, 577.5153
5087.655, 575.1089
5089.584, 572.9042
5091.513, 569.7405
5093.441, 574.2372
5095.369, 579.0651
5097.298, 577.7277
5099.227, 570.8502
5101.155, 567.5783
5103.083, 571.4576
5105.012, 569.0513
5106.940, 578.2766
5108.869, 595.1793
5110.797, 580.5601
5112.726, 575.6531
5114.654, 579.4998
5116.583, 570.2884
5118.511, 575.1972
5120.439, 578.0894
5122.368, 555.9814
5124.296, 569.9304
5126.225, 580.1619
5128.153, 555.3325
5130.082, 571.2182
5132.010, 574.7587
5133.938, 552.5288
5135.867, 554.9195
5137.796, 568.9968
5139.724, 582.8159
5141.652, 573.4053
5143.581, 571.3622
5145.510, 574.3619
5147.438, 577.3765
5149.366, 564.2955
5151.295, 556.4184
5153.224, 566.6904
5155.152, 567.1014
5157.080, 561.5389
5159.009, 555.0125
5160.938, 565.9075
5162.866, 570.3152
5164.794, 566.7625
5166.723, 560.8641
5168.651, 571.0309
5170.580, 584.7808
5172.508, 587.8557
5174.437, 562.6979
5176.365, 559.7078
5178.293, 603.9990
5180.222, 581.0302
5182.150, 557.5411
5184.079, 551.6290
5186.007, 555.9644
5187.936, 562.3804
5189.864, 573.9085
5191.793, 602.7039
5193.721, 592.3954
5195.649, 573.8489
5197.578, 569.7717
5199.507, 568.8566
5201.435, 562.7446
5203.363, 551.5855
5205.292, 544.4248
5207.221, 545.9854
5209.149, 552.2608
5211.077, 555.8600
5213.006, 566.2781
5214.935, 569.6380
5216.863, 556.2274
5218.791, 556.6629
5220.720, 564.8774
5222.648, 573.6571
5224.577, 564.0522
5226.505, 559.0658
5228.434, 559.9871
5230.362, 565.4312
5232.291, 559.0970
5234.219, 556.0381
5236.147, 565.4229
5238.076, 574.6531
5240.004, 565.1813
5241.933, 545.0704
5243.861, 554.0392
5245.790, 572.0855
5247.718, 586.0932
5249.646, 585.4956
5251.575, 559.9506
5253.504, 543.0330
5255.432, 549.4810
5257.360, 563.3151
5259.289, 563.1371
5261.218, 555.7086
5263.146, 570.3668
5265.074, 558.6829
5267.003, 545.9516
5268.932, 557.1230
5270.860, 562.6008
5272.788, 554.8172
5274.717, 538.3790
5276.646, 536.4749
5278.574, 548.9911
5280.502, 560.1567
5282.431, 548.4911
5284.359, 541.7853
5286.288, 547.7089
5288.216, 565.6970
5290.145, 560.6619
5292.073, 557.1513
5294.001, 558.4102
5295.930, 561.0938
5297.858, 556.4587
5299.787, 550.5792
5301.715, 548.1761
5303.644, 555.3384
5305.572, 555.4965
5307.501, 548.9705
5309.429, 547.3431
5311.357, 552.4330
5313.286, 560.2341
5315.215, 566.5697
5317.143, 554.5687
5319.071, 550.6501
5321.000, 557.5694
5322.929, 553.6094
5324.857, 551.8782
5326.785, 550.8855
5328.714, 547.6039
5330.643, 553.6818
5332.571, 547.5289
5334.499, 531.6874
5336.428, 542.2684
5338.356, 548.6431
5340.285, 549.7380
5342.213, 548.8154
5344.142, 540.4077
5346.070, 538.8631
5347.999, 543.2825
5349.927, 527.9693
5351.855, 531.4722
5353.784, 540.6970
5355.712, 537.5385
5357.641, 540.9404
5359.569, 538.8107
5361.498, 532.6878
5363.426, 548.1534
5365.354, 552.2360
5367.283, 548.9358
5369.212, 545.7781
5371.140, 537.3759
5373.068, 540.3198
5374.997, 551.2114
5376.926, 548.0131
5378.854, 542.9891
5380.782, 538.6996
5382.711, 535.9914
5384.640, 548.1940
5386.568, 540.2603
5388.496, 519.5523
5390.425, 520.3806
5392.354, 527.1274
5394.282, 534.7424
5396.210, 540.1165
5398.139, 537.9094
5400.067, 526.7167
5401.996, 516.4225
5403.924, 522.5352
5405.853, 535.5986
5407.781, 533.0997
5409.709, 512.0022
5411.638, 500.5183
5413.566, 510.2785
5415.495, 520.9496
5417.423, 512.7269
5419.352, 514.7726
5421.280, 521.5945
5423.209, 528.1354
5425.137, 527.2645
5427.065, 528.2136
5428.994, 533.6974
5430.923, 542.9075
5432.851, 526.7073
5434.779, 524.7968
5436.708, 529.5718
5438.637, 519.6816
5440.565, 536.5504
5442.493, 536.4181
5444.422, 515.5345
5446.351, 525.3489
5448.279, 532.1150
5450.207, 536.8517
5452.136, 543.1710
5454.064, 540.0543
5455.993, 533.0350
5457.921, 529.6614
5459.850, 539.3128
5461.778, 526.6853
5463.707, 524.4485
5465.635, 537.8114
5467.563, 534.4773
5469.492, 518.3741
5471.420, 510.4445
5473.349, 525.1040
5475.277, 531.9751
5477.206, 527.4930
5479.134, 516.3410
5481.063, 505.5080
5482.991, 501.3580
5484.920, 507.0502
5486.848, 516.6904
5488.776, 511.2231
5490.705, 518.6820
5492.634, 522.3166
5494.562, 511.6806
5496.490, 500.3970
5498.419, 505.0152
5500.348, 514.4406
5502.276, 513.6793
5504.204, 506.7393
5506.133, 507.0772
5508.062, 513.9537
5509.990, 519.2444
5511.918, 526.8876
5513.847, 523.8741
5515.775, 510.4314
5517.704, 505.9259
5519.632, 501.0278
5521.561, 504.5070
5523.489, 520.4105
5525.417, 519.1909
5527.346, 520.6497
5529.274, 517.3972
5531.203, 498.3493
5533.131, 514.4797
5535.060, 515.3464
5536.988, 507.5863
5538.917, 522.3385
5540.845, 506.6375
5542.773, 495.0103
5544.702, 498.3516
5546.631, 506.0456
5548.559, 516.6721
5550.487, 522.1716
5552.416, 519.8171
5554.345, 516.9867
5556.273, 505.3984
5558.201, 495.5472
5560.130, 495.3848
5562.059, 502.7972
5563.987, 504.1601
5565.915, 506.6825
5567.844, 516.8671
5569.772, 500.2047
5571.701, 486.9713
5573.629, 484.5322
5575.558, 492.4671
5577.486, 488.8856
5579.415, 499.8713
5581.343, 515.3516
5583.271, 499.8123
5585.200, 502.9401
5587.128, 503.9332
5589.057, 501.3672
5590.985, 511.4340
5592.914, 512.0596
5594.842, 499.7504
5596.771, 485.0916
5598.699, 499.4358
5600.628, 505.6244
5602.556, 506.4675
5604.484, 503.9906
5606.413, 486.4945
5608.342, 489.3176
5610.270, 499.4464
5612.198, 507.2273
5614.127, 523.3540
5616.056, 503.0446
5617.984, 485.1041
5619.912, 496.1282
5621.841, 504.5616
5623.770, 492.0430
5625.698, 481.7680
5627.626, 489.0867
5629.555, 481.3036
5631.483, 486.6693
5633.412, 492.0292
5635.340, 484.7364
5637.269, 486.1662
5639.197, 483.6423
5641.125, 486.8948
5643.054, 504.0568
5644.982, 477.2334
5646.911, 466.3102
5648.839, 478.4776
5650.768, 504.1722
5652.696, 487.5511
5654.625, 468.4954
5656.553, 463.1788
5658.481, 475.1194
5660.410, 479.8951
5662.339, 479.8405
5664.267, 480.7776
5666.195, 485.5764
5668.124, 477.4133
5670.053, 472.6717
5671.981, 476.5164
5673.909, 488.7271
5675.838, 481.2265
5677.767, 471.6582
5679.695, 464.7219
5681.623, 462.2058
5683.552, 474.6986
5685.480, 480.8723
5687.409, 479.7477
5689.337, 475.0955
5691.266, 474.3446
5693.194, 482.7170
5695.123, 489.2741
5697.051, 485.4416
5698.979, 463.4334
5700.908, 459.3377
5702.836, 467.5556
5704.765, 477.4564
5706.693, 468.7910
5708.622, 473.3790
5710.550, 479.3614
5712.479, 479.8921
5714.407, 476.5085
5716.336, 479.2322
5718.264, 471.6965
5720.192, 456.9444
5722.121, 457.2861
5724.050, 454.5619
5725.978, 463.9283
5727.906, 478.1980
5729.835, 477.4617
5731.764, 467.4062
5733.692, 454.7349
5735.620, 450.4661
5737.549, 464.0999
5739.478, 484.4958
5741.406, 478.8233
5743.334, 470.5361
5745.263, 483.7347
5747.191, 470.3305
5749.120, 468.8695
5751.048, 482.1735
5752.977, 500.8360
5754.905, 490.4502
5756.833, 457.1564
5758.762, 451.9219
5760.690, 479.1899
5762.619, 473.8495
5764.547, 485.2929
5766.476, 479.0306
5768.404, 461.0272
5770.333, 468.1009
5772.261, 458.0746
5774.189, 468.4217
5776.118, 486.5217
5778.047, 485.8822
5779.975, 486.8320
5781.903, 468.9781
5783.832, 450.6352
5785.761, 448.6728
5787.689, 459.7725
5789.617, 464.9667
5791.546, 462.1859
5793.475, 456.2929
5795.403, 461.0283
5797.331, 474.8421
5799.260, 471.5605
5801.188, 457.5934
5803.117, 460.9187
5805.045, 464.7685
5806.974, 461.4366
5808.902, 456.7406
5810.831, 457.5410
5812.759, 454.6711
5814.688, 455.0410
5816.616, 459.1246
5818.544, 461.2400
5820.473, 445.1090
5822.401, 450.0694
5824.330, 459.9282
5826.258, 461.8049
5828.187, 450.9279
5830.115, 471.2263
5832.044, 477.8902
5833.972, 475.1809
5835.900, 474.8808
5837.829, 461.5334
5839.758, 480.0433
5841.686, 480.9829
5843.614, 457.7045
5845.543, 471.0097
5847.472, 458.8447
5849.400, 456.7001
5851.328, 465.9821
5853.257, 473.2785
5855.186, 462.5130
5857.114, 465.1119
5859.042, 459.1810
5860.971, 441.8845
5862.899, 470.1158
5864.828, 467.5149
5866.756, 461.0420
5868.685, 457.2624
5870.613, 448.8407
5872.542, 450.4346
5874.470, 465.3182
5876.398, 471.3902
5878.327, 460.2922
5880.255, 459.6722
5882.184, 465.6164
5884.112, 454.1463
5886.041, 440.6696
5887.969, 454.1739
5889.897, 448.7999
5891.826, 457.1542
5893.755, 466.8329
5895.683, 467.0397
5897.611, 466.6622
5899.540, 467.9657
5901.469, 460.2207
5903.397, 452.0981
5905.325, 456.8089
5907.254, 451.5242
5909.183, 453.0178
5911.111, 449.6708
5913.039, 442.9724
5914.968, 465.5212
5916.896, 468.2967
5918.825, 459.3283
5920.753, 454.6478
5922.682, 462.8354
5924.610, 446.8005
5926.539, 440.6313
5928.467, 445.5388
5930.396, 457.1782
5932.324, 474.2981
5934.252, 457.5268
5936.181, 449.9643
5938.109, 453.7195
5940.038, 459.2680
5941.966, 455.0135
5943.895, 447.7309
5945.823, 452.0856
5947.752, 459.4218
5949.680, 455.2918
5951.608, 458.1864
5953.537, 461.8947
5955.466, 459.6370
5957.394, 453.7830
5959.322, 452.9883
5961.251, 445.0446
5963.180, 449.9003
5965.108, 463.2813
5967.036, 474.1496
5968.965, 469.5438
5970.894, 480.9719
5972.822, 461.7378
5974.750, 443.6549
5976.679, 457.0227
5978.607, 435.7339
5980.536, 442.0208
5982.464, 449.7922
5984.393, 450.4007
5986.321, 449.5982
5988.250, 441.9823
5990.178, 448.5407
5992.106, 448.9863
5994.035, 439.7980
5995.963, 435.3434
5997.892, 445.0386
5999.820, 448.3542
6001.749, 456.0454
6003.677, 463.1270
6005.605, 442.3221
6007.534, 456.9700
6009.463, 440.5122
6011.391, 425.6669
6013.319, 437.5447
6015.248, 447.2737
6017.177, 466.4811
6019.105, 454.6119
6021.033, 438.4905
6022.962, 442.9611
6024.891, 446.5044
6026.819, 466.5819
6028.747, 454.1579
6030.676, 431.8656
6032.604, 434.2686
6034.533, 471.8260
6036.461, 452.6070
6038.390, 453.9819
6040.318, 460.0556
6042.247, 440.0423
6044.175, 461.7320
6046.104, 459.6714
6048.032, 459.5642
6049.960, 465.6185
6051.889, 468.2368
6053.817, 452.3439
6055.746, 449.8937
6057.674, 450.9022
6059.603, 453.7297
6061.531, 459.7415
6063.460, 458.7579
6065.388, 468.4016
6067.316, 462.0064
6069.245, 442.5717
6071.174, 426.7953
6073.102, 437.3178
6075.030, 438.0129
6076.959, 436.1956
6078.888, 437.8322
6080.816, 441.2820
6082.744, 426.5387
6084.673, 438.2170
6086.602, 447.0320
6088.530, 449.4634
6090.458, 449.2517
6092.387, 440.3557
6094.315, 426.4858
6096.244, 432.3747
6098.172, 451.9891
6100.101, 465.8186
6102.029, 446.0682
6103.958, 446.8861
6105.886, 451.2117
6107.814, 456.4291
6109.743, 455.7901
6111.671, 436.5121
6113.600, 437.6884
6115.528, 443.2666
6117.457, 436.6233
6119.385, 432.0799
6121.313, 452.7067
6123.242, 456.3214
6125.171, 443.4133
6127.099, 439.2168
6129.027, 438.0088
6130.956, 429.3639
6132.885, 444.6779
6134.813, 455.1076
6136.741, 448.4321
6138.670, 448.0015
6140.599, 457.2794
6142.527, 431.4383
6144.455, 438.5088
6146.384, 441.7599
6148.313, 438.5847
6150.241, 431.4094
6152.169, 421.3271
6154.098, 453.4846
6156.026, 447.4463
6157.955, 438.2499
6159.883, 437.2937
6161.812, 433.4417
6163.740, 422.5542
6165.668, 443.2778
6167.597, 453.9620
6169.525, 454.4644
6171.454, 451.3671
6173.382, 438.2109
6175.311, 426.7183
6177.239, 439.6046
6179.168, 443.6491
6181.096, 436.8815
6183.024, 438.5249
6184.953, 428.0244
6186.882, 434.2432
6188.810, 427.1288
6190.738, 423.6455
6192.667, 436.1597
6194.596, 437.1412
6196.524, 433.1030
6198.452, 445.4920
6200.381, 441.7795
6202.310, 429.6670
6204.238, 439.6530
6206.166, 442.1615
6208.095, 442.4929
6210.023, 434.5761
6211.952, 423.9768
6213.880, 422.5087
6215.809, 445.0240
6217.737, 432.7667
6219.666, 433.4178
6221.594, 427.5360
6223.522, 416.6700
6225.451, 414.3327
6227.379, 411.2876
6229.308, 425.4947
6231.236, 434.7579
6233.165, 448.4937
6235.093, 458.7950
6237.021, 441.9767
6238.950, 431.1800
6240.879, 432.5100
6242.807, 431.0627
6244.735, 428.8739
6246.664, 433.0621
6248.593, 445.9201
6250.521, 428.4298
6252.449, 433.1958
6254.378, 443.7035
6256.307, 437.8982
6258.235, 419.2015
6260.163, 425.8648
6262.092, 419.5930
6264.021, 422.5416
6265.949, 423.7256
6267.877, 420.6767
6269.806, 422.6871
6271.734, 441.0552
6273.663, 429.7070
6275.591, 416.5926
6277.520, 411.9796
6279.448, 419.1076
6281.376, 433.5451
6283.305, 422.0236
6285.233, 431.7000
6287.162, 428.7578
6289.090, 415.4763
6291.019, 406.5165
6292.947, 411.6761
6294.876, 423.5740
6296.804, 435.0813
6298.732, 406.8495
6300.661, 398.5684
6302.590, 420.0642
6304.518, 429.1242
6306.446, 441.5895
6308.375, 411.1198
6310.304, 433.8945
6312.232, 439.6079
6314.160, 412.5337
6316.089, 404.8143
6318.018, 418.3714
6319.946, 417.5871
6321.874, 406.2567
6323.803, 405.3517
6325.731, 419.9190
6327.660, 435.2074
6329.588, 424.6281
6331.517, 423.7219
6333.445, 418.1832
6335.374, 415.1017
6337.302, 411.9892
6339.230, 406.1419
6341.159, 413.0650
6343.087, 416.4980
6345.016, 410.7220
6346.944, 405.9935
6348.873, 405.3515
6350.801, 403.8132
6352.729, 391.9739
6354.658, 394.0267
6356.587, 416.9558
6358.515, 414.0596
6360.443, 405.4953
6362.372, 409.9291
6364.301, 415.9321
6366.229, 419.3612
6368.157, 424.5240
6370.086, 426.2048
6372.015, 425.0075
6373.943, 420.7201
6375.871, 413.1871
6377.800, 405.9083
6379.729, 388.4220
6381.657, 404.1223
6383.585, 417.6086
6385.514, 419.0648
6387.442, 415.0692
6389.371, 408.4063
6391.299, 413.5283
6393.228, 424.0781
6395.156, 427.7586
6397.084, 411.4711
6399.013, 400.2665
6400.941, 417.2635
6402.870, 399.8658
6404.798, 413.7778
6406.727, 419.6410
6408.655, 418.8080
6410.584, 410.5648
6412.512, 403.0355
6414.440, 411.3271
6416.369, 413.6176
6418.298, 428.7714
6420.226, 411.4138
6422.154, 406.6768
6424.083, 418.5620
6426.012, 420.5148
6427.940, 408.0428
6429.868, 404.3841
6431.797, 431.8169
6433.726, 423.8450
6435.654, 420.9644
6437.582, 424.0460
6439.511, 404.6828
6441.439, 416.7117
6443.368, 415.1852
6445.296, 402.1870
6447.225, 403.4963
6449.153, 413.6725
6451.082, 410.5353
6453.010, 393.5266
6454.938, 415.8171
6456.867, 408.4369
6458.795, 407.4401
6460.724, 400.1086
6462.652, 402.1481
6464.581, 408.5469
6466.509, 396.6738
6468.438, 404.3191
6470.366, 407.4867
6472.295, 398.7873
6474.223, 397.7508
6476.151, 409.7066
6478.080, 410.5889
6480.009, 383.5302
6481.937, 397.8823
6483.865, 402.1428
6485.794, 406.6672
6487.723, 412.8461
6489.651, 406.9598
6491.579, 401.9599
6493.508, 410.0891
6495.437, 390.7682
6497.365, 412.8953
6499.293, 403.3258
6501.222, 392.4450
6503.150, 402.2857
6505.079, 413.8703
6507.007, 409.9386
6508.936, 412.6812
6510.864, 385.0686
6512.792, 409.2493
6514.721, 401.1272
6516.649, 397.4763
6518.578, 404.6022
6520.506, 400.5182
6522.435, 384.9331
6524.363, 382.5441
6526.292, 381.8738
6528.220, 383.8897
6530.148, 401.5782
6532.077, 395.7797
6534.006, 377.7622
6535.934, 386.9309
6537.862, 399.6954
6539.791, 384.7714
6541.720, 389.4482
6543.648, 391.1570
6545.576, 395.5002
6547.505, 407.3192
##END=



