##NAMES=Hexahydrite
##RRUFFID=R060051
##IDEAL CHEMISTRY=Mg(SO_4_)·6H_2_O
##LOCALITY=Weathered surface of a LL5 chondritic meteorite from Antarctica
##OWNER=Kevin Righter
##SOURCE=Kevin Righter
##DESCRIPTION=Green single crystals that grew when the sample was thawed in its collection bag.
##STATUS=The identification of this mineral has been confirmed only by single crystal X-ray diffraction
##URL=https://www.rruff.net/odr/rruff_sample/R060051
##DIFFRACTION SAMPLE DESCRIPTION=Single crystal, powder profile is calculated
##CELL PARAMETERS=a: 10.04 b: 7.213 c: 24.35 alpha: 90 beta: 98.44 gamma: 90 volume: 1744 crystal system: monoclinic
##FILETYPE=Raman RAW
##RAMAN WAVELENGTH=780

133.9590, 34.46753
135.8874, 34.38302
137.8159, 33.98660
139.7444, 33.72323
141.6728, 33.84610
143.6013, 34.12596
145.5298, 34.24430
147.4582, 34.21718
149.3867, 34.17400
151.3152, 34.15993
153.2436, 34.06272
155.1721, 33.64218
157.1006, 33.28236
159.0290, 33.56842
160.9575, 34.30925
162.8860, 34.64483
164.8144, 34.29258
166.7429, 34.01256
168.6713, 34.04069
170.5998, 34.13730
172.5283, 34.00086
174.4567, 33.80925
176.3852, 34.09448
178.3137, 35.19633
180.2421, 35.73442
182.1706, 35.06197
184.0991, 34.36047
186.0275, 34.26700
187.9560, 34.53131
189.8845, 34.78072
191.8129, 35.02608
193.7414, 35.10352
195.6699, 34.89183
197.5983, 34.68148
199.5268, 34.40101
201.4553, 34.25346
203.3837, 34.56523
205.3122, 35.32140
207.2407, 35.66741
209.1691, 35.28424
211.0976, 34.89924
213.0261, 34.24744
214.9545, 33.93594
216.8830, 34.67210
218.8115, 36.05017
220.7399, 36.73186
222.6684, 36.31313
224.5969, 36.01585
226.5253, 35.85083
228.4538, 35.75300
230.3823, 35.79403
232.3107, 35.84738
234.2392, 35.76719
236.1677, 35.55289
238.0961, 35.28918
240.0246, 34.83632
241.9531, 34.62274
243.8815, 35.01437
245.8100, 35.42914
247.7385, 35.43229
249.6669, 35.14351
251.5954, 34.96581
253.5239, 34.93401
255.4523, 34.83633
257.3808, 34.64256
259.3093, 34.40931
261.2377, 34.09769
263.1662, 33.82948
265.0947, 33.73190
267.0231, 33.76682
268.9516, 33.74234
270.8801, 33.65378
272.8085, 33.60390
274.7370, 33.64686
276.6655, 33.68929
278.5939, 33.73558
280.5224, 33.69594
282.4509, 33.34985
284.3793, 32.75041
286.3078, 32.59562
288.2363, 33.10482
290.1647, 33.52613
292.0932, 33.55433
294.0217, 33.49150
295.9501, 33.48848
297.8786, 33.54961
299.8071, 33.69672
301.7355, 33.91541
303.6640, 33.96167
305.5925, 33.74164
307.5209, 33.46021
309.4494, 33.06427
311.3779, 32.75248
313.3063, 32.66837
315.2348, 32.72187
317.1633, 32.77938
319.0917, 32.83474
321.0202, 32.93671
322.9487, 33.18842
324.8771, 33.36095
326.8056, 33.38540
328.7341, 33.30191
330.6625, 33.11709
332.5910, 32.88242
334.5195, 32.62860
336.4479, 32.32723
338.3764, 32.25167
340.3049, 32.66103
342.2333, 32.97378
344.1618, 33.11320
346.0903, 33.09667
348.0187, 32.81292
349.9472, 32.45159
351.8757, 32.34018
353.8041, 32.53308
355.7326, 32.62153
357.6611, 32.42063
359.5895, 32.38199
361.5180, 32.82238
363.4465, 33.18415
365.3749, 32.99306
367.3034, 32.55799
369.2319, 32.30059
371.1603, 32.22388
373.0888, 32.31535
375.0172, 32.79159
376.9457, 32.91314
378.8742, 32.28712
380.8026, 31.76493
382.7311, 31.91851
384.6596, 32.28226
386.5880, 32.34731
388.5165, 32.17632
390.4450, 32.38281
392.3734, 33.19271
394.3019, 33.34815
396.2304, 32.29211
398.1588, 31.51275
400.0873, 31.97120
402.0158, 32.67542
403.9442, 33.01946
405.8727, 33.01482
407.8012, 32.66728
409.7296, 31.96172
411.6581, 31.58208
413.5866, 31.58849
415.5150, 31.76533
417.4435, 32.32362
419.3720, 32.63719
421.3004, 32.15733
423.2289, 31.47050
425.1574, 31.30666
427.0858, 31.62772
429.0143, 32.04238
430.9428, 32.55928
432.8712, 32.90435
434.7997, 32.99926
436.7282, 32.96360
438.6566, 32.76152
440.5851, 32.59310
442.5136, 32.55680
444.4420, 32.56804
446.3705, 32.42683
448.2990, 32.24928
450.2274, 32.60492
452.1559, 33.65057
454.0844, 34.23734
456.0128, 33.81885
457.9413, 33.41482
459.8698, 33.18445
461.7982, 33.07922
463.7267, 33.24475
465.6552, 33.51910
467.5836, 33.46274
469.5121, 33.13673
471.4406, 32.98118
473.3690, 33.06236
475.2975, 33.21389
477.2260, 33.61154
479.1544, 33.78335
481.0829, 33.39244
483.0114, 32.97932
484.9398, 33.01655
486.8683, 33.16544
488.7968, 33.04729
490.7253, 32.67999
492.6537, 32.10664
494.5822, 31.13150
496.5107, 30.53984
498.4391, 30.49705
500.3676, 30.59661
502.2961, 30.97456
504.2245, 31.16711
506.1530, 30.77847
508.0815, 30.24618
510.0099, 30.04087
511.9384, 30.06837
513.8668, 29.89459
515.7953, 29.42274
517.7238, 29.28113
519.6522, 29.62327
521.5807, 29.86517
523.5092, 29.84372
525.4376, 29.83491
527.3661, 30.05796
529.2946, 30.25687
531.2230, 30.21022
533.1515, 30.03573
535.0800, 29.92188
537.0084, 29.85741
538.9369, 29.72544
540.8654, 29.48964
542.7938, 29.36315
544.7223, 29.41836
546.6508, 29.50213
548.5792, 29.56186
550.5077, 29.57369
552.4362, 29.55765
554.3646, 29.53675
556.2931, 29.54837
558.2216, 29.54646
560.1500, 29.36834
562.0785, 29.01552
564.0070, 28.80427
565.9354, 28.77988
567.8639, 28.70772
569.7924, 28.46483
571.7208, 28.36483
573.6493, 28.63287
575.5778, 28.92701
577.5062, 29.21789
579.4347, 29.40023
581.3632, 29.32963
583.2916, 29.15511
585.2201, 29.00431
587.1486, 28.85946
589.0770, 28.84471
591.0055, 28.97007
592.9340, 28.97866
594.8624, 28.74868
596.7909, 28.71269
598.7194, 29.20902
600.6478, 29.46148
602.5763, 29.13943
604.5048, 28.77464
606.4332, 28.67628
608.3617, 28.60300
610.2902, 28.24529
612.2186, 27.84180
614.1471, 27.83682
616.0756, 28.16368
618.0040, 28.30797
619.9325, 28.19950
621.8610, 28.15738
623.7894, 28.27023
625.7179, 28.30356
627.6464, 28.28670
629.5748, 28.13899
631.5033, 27.62704
633.4318, 27.19867
635.3602, 27.31763
637.2887, 27.54024
639.2172, 27.27579
641.1456, 26.76952
643.0741, 26.74948
645.0026, 27.21405
646.9310, 27.41740
648.8595, 27.24305
650.7880, 27.07137
652.7164, 26.96391
654.6449, 26.84159
656.5734, 26.54416
658.5018, 26.41125
660.4303, 26.84763
662.3588, 27.17656
664.2872, 26.77026
666.2157, 26.20572
668.1442, 26.02380
670.0726, 26.06889
672.0011, 26.04464
673.9296, 25.92374
675.8580, 25.69747
677.7865, 25.41680
679.7150, 25.33910
681.6434, 25.42749
683.5719, 25.68229
685.5004, 26.21383
687.4288, 26.45928
689.3573, 26.15844
691.2858, 25.84931
693.2142, 25.76189
695.1427, 25.62063
697.0712, 25.25411
698.9996, 24.92652
700.9281, 24.83629
702.8566, 24.84837
704.7850, 24.82634
706.7135, 24.81554
708.6420, 24.92142
710.5704, 25.10662
712.4989, 25.18637
714.4274, 25.15578
716.3558, 25.02106
718.2843, 24.74128
720.2128, 24.59050
722.1412, 24.68092
724.0697, 24.75153
725.9982, 24.80586
727.9266, 24.76923
729.8551, 24.49445
731.7836, 24.24308
733.7120, 24.15108
735.6405, 24.19279
737.5690, 24.47494
739.4974, 24.75804
741.4259, 24.75098
743.3544, 24.52330
745.2828, 24.08481
747.2113, 23.55529
749.1398, 23.37868
751.0682, 23.56482
752.9967, 23.68827
754.9252, 23.69452
756.8536, 23.69039
758.7821, 23.81782
760.7106, 23.79781
762.6390, 23.31966
764.5675, 23.05595
766.4960, 23.30853
768.4244, 23.56358
770.3529, 23.71146
772.2814, 23.77225
774.2098, 23.66492
776.1383, 23.44545
778.0668, 23.09172
779.9952, 22.86521
781.9237, 23.04123
783.8521, 23.34625
785.7806, 23.49266
787.7090, 23.50972
789.6375, 23.33760
791.5660, 23.03169
793.4944, 22.87656
795.4229, 22.84975
797.3514, 22.86589
799.2798, 22.95697
801.2083, 22.95210
803.1368, 22.77778
805.0652, 22.73733
806.9937, 22.96345
808.9222, 23.11557
810.8506, 23.04719
812.7791, 22.93026
814.7076, 22.88132
816.6360, 22.83467
818.5645, 22.67589
820.4930, 22.49195
822.4214, 22.31278
824.3499, 22.20774
826.2784, 22.30743
828.2068, 22.45444
830.1353, 22.39772
832.0638, 22.29404
833.9922, 22.46802
835.9207, 22.74328
837.8492, 22.70941
839.7776, 22.42663
841.7061, 22.22838
843.6346, 22.12412
845.5630, 21.91014
847.4915, 21.61615
849.4200, 21.49395
851.3484, 21.52162
853.2769, 21.57590
855.2054, 21.68645
857.1339, 21.64810
859.0623, 21.34573
860.9908, 21.28063
862.9193, 21.69729
864.8477, 21.87155
866.7762, 21.52731
868.7047, 21.24282
870.6331, 21.01716
872.5616, 21.02678
874.4901, 21.52625
876.4185, 21.82203
878.3470, 21.61155
880.2755, 21.40726
882.2039, 21.41628
884.1324, 21.36757
886.0609, 21.08362
887.9893, 20.83910
889.9178, 20.75745
891.8463, 20.83069
893.7747, 21.25662
895.7032, 21.56380
897.6317, 21.13486
899.5601, 20.53740
901.4886, 20.54968
903.4171, 20.80036
905.3455, 20.66314
907.2740, 20.36457
909.2025, 20.23509
911.1309, 20.25034
913.0594, 20.61502
914.9879, 21.18216
916.9163, 21.21374
918.8448, 20.79802
920.7733, 20.44737
922.7017, 20.14108
924.6302, 20.15586
926.5587, 20.55659
928.4871, 20.45979
930.4156, 19.77829
932.3441, 19.45977
934.2725, 19.57420
936.2010, 19.82318
938.1295, 20.16784
940.0579, 20.42426
941.9864, 20.61620
943.9149, 20.62936
945.8433, 20.40378
947.7718, 20.11220
949.7003, 19.72835
951.6287, 19.70417
953.5572, 20.19877
955.4857, 20.70355
957.4141, 21.09934
959.3426, 21.55167
961.2711, 22.16681
963.1995, 22.61446
965.1280, 22.71345
967.0565, 22.97944
968.9849, 23.62414
970.9134, 24.12764
972.8419, 24.23540
974.7703, 24.56334
976.6988, 25.37909
978.6273, 26.05352
980.5557, 26.27976
982.4842, 26.75121
984.4127, 27.77150
986.3411, 28.79898
988.2696, 29.79876
990.1981, 30.61296
992.1265, 31.17486
994.0550, 31.52757
995.9835, 31.79996
997.9119, 31.58895
999.8404, 30.51078
1001.769, 29.25424
1003.697, 28.19192
1005.626, 26.94680
1007.554, 25.11235
1009.483, 23.43771
1011.411, 22.32673
1013.340, 21.50002
1015.268, 21.00386
1017.197, 20.44040
1019.125, 19.30655
1021.054, 18.40232
1022.982, 18.34167
1024.910, 18.53939
1026.839, 18.72391
1028.767, 18.85517
1030.696, 18.86697
1032.624, 18.83364
1034.553, 18.86236
1036.481, 18.86417
1038.410, 18.74102
1040.338, 18.64238
1042.267, 18.59324
1044.195, 18.53862
1046.124, 18.60366
1048.052, 18.59647
1049.980, 18.17341
1051.909, 17.87569
1053.837, 18.17668
1055.766, 18.48782
1057.694, 18.48030
1059.623, 18.46767
1061.551, 18.56378
1063.480, 18.65376
1065.408, 18.70294
1067.337, 18.68131
1069.265, 18.63789
1071.194, 18.63288
1073.122, 18.60147
1075.051, 18.53989
1076.979, 18.57808
1078.907, 18.46015
1080.836, 17.75551
1082.764, 17.41950
1084.693, 18.12227
1086.621, 18.69499
1088.550, 18.73605
1090.478, 18.64413
1092.407, 18.38845
1094.335, 18.12412
1096.264, 17.97939
1098.192, 17.91759
1100.121, 17.88647
1102.049, 17.88170
1103.978, 17.89239
1105.906, 17.99343
1107.834, 18.38566
1109.763, 18.43107
1111.691, 17.70673
1113.620, 17.38379
1115.548, 17.90143
1117.477, 18.11781
1119.405, 17.75912
1121.334, 17.55719
1123.262, 17.64438
1125.191, 17.60415
1127.119, 17.32092
1129.048, 17.19938
1130.976, 17.36510
1132.905, 17.40077
1134.833, 17.13963
1136.761, 17.13581
1138.690, 17.58987
1140.618, 17.77164
1142.547, 17.51149
1144.475, 17.28958
1146.404, 17.25176
1148.332, 17.41214
1150.261, 17.61617
1152.189, 17.54673
1154.118, 17.31215
1156.046, 16.96378
1157.975, 16.60393
1159.903, 16.85383
1161.832, 17.40369
1163.760, 17.34418
1165.688, 16.91955
1167.617, 16.68540
1169.545, 16.62045
1171.474, 16.61156
1173.402, 16.60836
1175.331, 16.70947
1177.259, 16.74283
1179.188, 16.30858
1181.116, 15.82917
1183.045, 15.74060
1184.973, 15.82441
1186.902, 16.00129
1188.830, 16.07939
1190.759, 15.88109
1192.687, 15.79919
1194.615, 16.02123
1196.544, 16.09060
1198.472, 15.89829
1200.401, 15.80556
1202.329, 15.81453
1204.258, 15.90479
1206.186, 16.18377
1208.115, 16.26407
1210.043, 16.07052
1211.972, 15.79669
1213.900, 15.45634
1215.829, 15.30587
1217.757, 15.29765
1219.686, 15.22616
1221.614, 15.14476
1223.542, 15.18986
1225.471, 15.34315
1227.399, 15.48332
1229.328, 15.53729
1231.256, 15.38688
1233.185, 15.14288
1235.113, 14.89005
1237.042, 14.76376
1238.970, 14.98741
1240.899, 15.19629
1242.827, 15.23946
1244.756, 15.19298
1246.684, 14.80155
1248.613, 14.53638
1250.541, 14.86261
1252.469, 15.17017
1254.398, 15.19482
1256.326, 15.15973
1258.255, 15.08482
1260.183, 14.92476
1262.112, 14.57866
1264.040, 14.52526
1265.969, 15.03590
1267.897, 15.19612
1269.826, 14.81886
1271.754, 14.58620
1273.683, 14.52058
1275.611, 14.65880
1277.540, 14.89503
1279.468, 14.75937
1281.396, 14.50608
1283.325, 14.67047
1285.253, 14.90684
1287.182, 14.91156
1289.110, 14.83928
1291.039, 14.39847
1292.967, 14.03209
1294.896, 14.49125
1296.824, 14.93530
1298.753, 14.88703
1300.681, 14.76980
1302.610, 14.52157
1304.538, 14.28937
1306.467, 14.29453
1308.395, 14.40931
1310.323, 14.45864
1312.252, 14.48541
1314.180, 14.55856
1316.109, 14.47968
1318.037, 14.29948
1319.966, 14.23353
1321.894, 14.24748
1323.823, 14.38016
1325.751, 14.51584
1327.680, 14.43118
1329.608, 14.25392
1331.537, 14.07204
1333.465, 14.01338
1335.394, 14.29551
1337.322, 14.45247
1339.250, 14.03998
1341.179, 13.76725
1343.107, 14.15335
1345.036, 14.38660
1346.964, 14.16324
1348.893, 14.03903
1350.821, 14.08654
1352.750, 13.87821
1354.678, 13.56154
1356.607, 13.58912
1358.535, 13.70970
1360.464, 13.92820
1362.392, 14.15067
1364.321, 13.84674
1366.249, 13.51090
1368.177, 13.64435
1370.106, 13.68839
1372.034, 13.37048
1373.963, 13.12540
1375.891, 13.04069
1377.820, 13.11992
1379.748, 13.34202
1381.677, 13.36986
1383.605, 13.28640
1385.534, 13.24197
1387.462, 13.17747
1389.391, 13.36119
1391.319, 13.54698
1393.248, 13.20373
1395.176, 12.93621
1397.104, 13.27419
1399.033, 13.47666
1400.961, 13.20929
1402.890, 13.00867
1404.818, 12.97380
1406.747, 13.00246
1408.675, 13.04509
1410.604, 13.02597
1412.532, 12.92905
1414.461, 12.98662
1416.389, 13.22960
1418.318, 13.57022
1420.246, 13.80126
1422.175, 13.29784
1424.103, 12.70847
1426.031, 12.82177
1427.960, 13.05527
1429.888, 13.12194
1431.817, 13.07171
1433.745, 12.83122
1435.674, 12.87520
1437.602, 13.29165
1439.531, 13.27558
1441.459, 12.88296
1443.388, 12.97879
1445.316, 13.35675
1447.245, 13.46509
1449.173, 13.35011
1451.102, 13.15658
1453.030, 13.02815
1454.958, 12.99640
1456.887, 12.88182
1458.815, 12.62853
1460.744, 12.50716
1462.672, 12.51354
1464.601, 12.68343
1466.529, 13.01501
1468.458, 12.98342
1470.386, 12.67833
1472.315, 12.47909
1474.243, 12.41206
1476.172, 12.51585
1478.100, 12.64330
1480.029, 12.67134
1481.957, 12.54409
1483.885, 12.32533
1485.814, 12.24907
1487.742, 12.20580
1489.671, 12.07840
1491.599, 11.97298
1493.528, 12.10937
1495.456, 12.38080
1497.385, 12.51213
1499.313, 12.54207
1501.242, 12.48860
1503.170, 12.36441
1505.099, 12.15574
1507.027, 11.96827
1508.956, 11.83595
1510.884, 12.05299
1512.813, 12.57731
1514.741, 12.53272
1516.669, 12.05516
1518.598, 11.64163
1520.526, 11.43165
1522.455, 11.72538
1524.383, 11.97347
1526.312, 11.73294
1528.240, 11.52964
1530.169, 11.61195
1532.097, 11.76281
1534.026, 11.87988
1535.954, 11.99984
1537.883, 12.12481
1539.811, 12.14167
1541.740, 12.09119
1543.668, 11.69688
1545.596, 11.30196
1547.525, 11.52580
1549.453, 11.74299
1551.382, 11.65579
1553.310, 11.64596
1555.239, 11.61584
1557.167, 11.63212
1559.096, 11.73775
1561.024, 11.68969
1562.953, 11.59140
1564.881, 11.35874
1566.810, 11.15238
1568.738, 11.41189
1570.667, 11.67910
1572.595, 11.59401
1574.523, 11.66090
1576.452, 11.85093
1578.380, 11.72677
1580.309, 11.56944
1582.237, 11.64148
1584.166, 11.69711
1586.094, 11.74961
1588.023, 11.82672
1589.951, 11.85788
1591.880, 11.78803
1593.808, 11.56600
1595.737, 11.34159
1597.665, 11.30517
1599.594, 11.38636
1601.522, 11.27622
1603.450, 11.11905
1605.379, 11.18574
1607.307, 11.22811
1609.236, 11.18169
1611.164, 11.10551
1613.093, 11.01885
1615.021, 11.03781
1616.950, 11.21906
1618.878, 11.34839
1620.807, 11.31958
1622.735, 11.22011
1624.663, 10.95946
1626.592, 10.69067
1628.520, 10.61231
1630.449, 10.72198
1632.377, 10.68764
1634.306, 10.65042
1636.234, 10.88937
1638.163, 11.03278
1640.091, 10.91593
1642.020, 10.75766
1643.948, 10.65248
1645.877, 10.55862
1647.805, 10.51757
1649.734, 10.48555
1651.662, 10.55323
1653.590, 10.70002
1655.519, 10.62624
1657.447, 10.51012
1659.376, 10.75664
1661.304, 10.94078
1663.233, 10.74467
1665.161, 10.52061
1667.090, 10.21696
1669.018, 10.20434
1670.947, 10.42692
1672.875, 10.32116
1674.804, 10.04888
1676.732, 10.02307
1678.661, 10.28955
1680.589, 10.30095
1682.517, 10.30688
1684.446, 10.48021
1686.374, 10.26785
1688.303, 10.01530
1690.231, 10.09301
1692.160, 10.18292
1694.088, 9.947735
1696.017, 9.792095
1697.945, 10.00491
1699.874, 10.06793
1701.802, 9.917913
1703.731, 9.797286
1705.659, 9.817514
1707.588, 9.965106
1709.516, 9.880285
1711.444, 9.626811
1713.373, 9.661647
1715.301, 9.723351
1717.230, 9.742788
1719.158, 9.819499
1721.087, 9.676676
1723.015, 9.496958
1724.944, 9.310127
1726.872, 9.174370
1728.801, 9.281672
1730.729, 9.424511
1732.658, 9.520963
1734.586, 9.578447
1736.515, 9.578825
1738.443, 9.347186
1740.371, 9.069498
1742.300, 9.028840
1744.228, 9.248532
1746.157, 9.489196
1748.085, 9.432058
1750.014, 9.201091
1751.942, 8.912824
1753.871, 8.917541
1755.799, 9.293653
1757.728, 9.490995
1759.656, 9.429339
1761.585, 9.172026
1763.513, 9.078870
1765.442, 9.291996
1767.370, 9.346188
1769.298, 9.008972
1771.227, 8.796554
1773.155, 8.935658
1775.084, 9.069271
1777.012, 8.950882
1778.941, 8.713930
1780.869, 8.614916
1782.798, 8.645978
1784.726, 8.624964
1786.655, 8.535500
1788.583, 8.529452
1790.512, 8.447155
1792.440, 8.158832
1794.369, 8.171745
1796.297, 8.451548
1798.225, 8.649777
1800.154, 8.684981
1802.082, 8.543946
1804.011, 8.503049
1805.939, 8.762764
1807.868, 8.817721
1809.796, 8.526395
1811.725, 8.388124
1813.653, 8.550200
1815.582, 8.414032
1817.510, 8.051315
1819.439, 8.026009
1821.367, 8.080908
1823.296, 8.069434
1825.224, 8.160995
1827.152, 8.287634
1829.081, 7.898419
1831.009, 7.577183
1832.938, 7.947792
1834.866, 8.065876
1836.795, 7.846781
1838.723, 8.058680
1840.652, 8.366758
1842.580, 8.275229
1844.509, 8.009510
1846.437, 7.798749
1848.366, 7.914171
1850.294, 8.274660
1852.223, 8.199977
1854.151, 7.764266
1856.079, 7.478352
1858.008, 7.527468
1859.936, 7.869812
1861.865, 8.026913
1863.793, 7.967429
1865.722, 7.717547
1867.650, 7.494901
1869.579, 7.931180
1871.507, 8.311738
1873.436, 7.826816
1875.364, 7.704935
1877.293, 7.791498
1879.221, 7.515018
1881.150, 7.306581
1883.078, 7.064313
1885.006, 7.049413
1886.935, 7.592496
1888.863, 7.609009
1890.792, 7.243867
1892.720, 7.374649
1894.649, 7.504056
1896.577, 7.267522
1898.506, 7.042162
1900.434, 7.039887
1902.363, 7.109295
1904.291, 7.162424
1906.220, 7.284201
1908.148, 7.267712
1910.077, 7.187768
1912.005, 7.077669
1913.933, 7.089752
1915.862, 7.392333
1917.790, 7.432631
1919.719, 7.094800
1921.647, 6.816077
1923.576, 6.759577
1925.504, 6.778980
1927.433, 6.934728
1929.361, 7.086343
1931.290, 6.941808
1933.218, 6.871741
1935.147, 6.794788
1937.075, 6.590273
1939.004, 6.693605
1940.932, 6.996175
1942.860, 7.066998
1944.789, 7.242060
1946.717, 7.422624
1948.646, 6.936910
1950.574, 6.662229
1952.503, 6.826540
1954.431, 6.657330
1956.360, 6.461908
1958.288, 6.554046
1960.217, 6.514177
1962.145, 6.632323
1964.074, 6.853948
1966.002, 6.729770
1967.931, 6.509769
1969.859, 6.232969
1971.787, 6.210025
1973.716, 6.379694
1975.644, 6.275550
1977.573, 6.473096
1979.501, 6.789226
1981.430, 6.434919
1983.358, 6.070431
1985.287, 6.290100
1987.215, 6.606717
1989.144, 6.533050
1991.072, 6.371146
1993.001, 6.174615
1994.929, 5.902812
1996.858, 6.159447
1998.786, 6.626831
2000.714, 6.508065
2002.643, 6.343123
2004.571, 6.406050
2006.500, 6.241466
2008.428, 6.049301
2010.357, 6.186618
2012.285, 6.256328
2014.214, 6.031517
2016.142, 5.944895
2018.071, 5.906201
2019.999, 5.739352
2021.928, 5.721240
2023.856, 5.715804
2025.785, 5.753120
2027.713, 5.991747
2029.641, 5.862546
2031.570, 5.520485
2033.498, 5.620842
2035.427, 5.894111
2037.355, 5.878261
2039.284, 5.622591
2041.212, 5.621677
2043.141, 5.992215
2045.069, 5.770512
2046.998, 5.369349
2048.926, 5.701865
2050.854, 5.905086
2052.783, 5.747273
2054.711, 5.599643
2056.640, 5.440799
2058.568, 5.447291
2060.497, 5.587477
2062.425, 5.737521
2064.354, 5.834219
2066.282, 5.805184
2068.211, 5.880109
2070.139, 5.950470
2072.068, 5.660631
2073.996, 5.502184
2075.925, 5.497869
2077.853, 5.362173
2079.781, 5.276597
2081.710, 5.295215
2083.638, 5.271608
2085.567, 5.110435
2087.495, 5.108934
2089.424, 5.019664
2091.352, 4.705852
2093.281, 4.703569
2095.209, 4.920515
2097.138, 5.216567
2099.066, 5.229016
2100.995, 4.898391
2102.923, 4.677140
2104.852, 4.751489
2106.780, 4.747478
2108.708, 4.566187
2110.637, 4.490833
2112.565, 4.711085
2114.494, 5.126098
2116.422, 5.005759
2118.351, 4.785260
2120.279, 4.935853
2122.208, 5.206265
2124.136, 5.058049
2126.065, 4.568534
2127.993, 4.575119
2129.922, 4.744660
2131.850, 4.535916
2133.779, 4.369742
2135.707, 4.564189
2137.635, 4.650021
2139.564, 4.692193
2141.492, 4.940091
2143.421, 4.867175
2145.349, 4.331867
2147.278, 4.182767
2149.206, 4.404193
2151.135, 4.820687
2153.063, 5.095838
2154.992, 4.982481
2156.920, 4.674140
2158.849, 4.445041
2160.777, 4.440631
2162.706, 4.416625
2164.634, 4.329211
2166.563, 4.340425
2168.491, 4.433474
2170.419, 4.158999
2172.348, 4.042794
2174.276, 4.267323
2176.205, 3.966742
2178.133, 3.885176
2180.062, 4.302430
2181.990, 4.306028
2183.919, 3.988146
2185.847, 3.854970
2187.776, 4.115127
2189.704, 4.493092
2191.633, 4.344550
2193.561, 4.225497
2195.490, 4.216308
2197.418, 4.108176
2199.346, 4.215285
2201.275, 4.302789
2203.203, 4.249726
2205.132, 3.781240
2207.060, 3.595140
2208.989, 3.754192
2210.917, 3.971087
2212.846, 3.844104
2214.774, 3.438249
2216.703, 3.520923
2218.631, 3.693894
2220.560, 3.758283
2222.488, 3.704364
2224.417, 3.537945
2226.345, 3.646312
2228.273, 3.725530
2230.202, 3.552576
2232.130, 3.723813
2234.059, 3.850934
2235.987, 3.789811
2237.916, 3.799897
2239.844, 3.576416
2241.773, 3.318771
2243.701, 3.261079
2245.630, 3.588070
2247.558, 3.751613
2249.487, 3.626273
2251.415, 3.378562
2253.344, 3.241509
2255.272, 3.516813
2257.200, 3.681920
2259.129, 3.495012
2261.057, 3.523318
2262.986, 3.519344
2264.914, 3.442441
2266.843, 3.562900
2268.771, 3.485366
2270.700, 3.411500
2272.628, 3.436005
2274.557, 3.455307
2276.485, 3.184182
2278.414, 3.150300
2280.342, 3.504955
2282.271, 3.322980
2284.199, 3.246000
2286.127, 3.554807
2288.056, 3.702965
2289.984, 3.481061
2291.913, 3.010099
2293.841, 2.911358
2295.770, 3.050235
2297.698, 3.307735
2299.627, 3.333617
2301.555, 2.930055
2303.484, 2.797973
2305.412, 3.178593
2307.341, 3.642760
2309.269, 3.230060
2311.198, 2.705820
2313.126, 2.877237
2315.054, 2.868697
2316.983, 3.017286
2318.911, 3.203672
2320.840, 3.087260
2322.768, 2.816940
2324.697, 2.898778
2326.625, 2.969251
2328.554, 2.953069
2330.482, 3.021846
2332.411, 3.018744
2334.339, 2.812127
2336.268, 2.869691
2338.196, 3.321392
2340.125, 3.214038
2342.053, 3.164606
2343.981, 3.105803
2345.910, 3.103877
2347.838, 2.952427
2349.767, 2.659536
2351.695, 2.790888
2353.624, 3.113014
2355.552, 3.029336
2357.481, 3.041794
2359.409, 3.004385
2361.338, 2.800086
2363.266, 2.861171
2365.195, 3.001121
2367.123, 3.035171
2369.052, 2.964973
2370.980, 2.865271
2372.908, 2.663549
2374.837, 2.680398
2376.765, 2.820904
2378.694, 2.865551
2380.622, 2.811118
2382.551, 2.648226
2384.479, 2.604693
2386.408, 2.450803
2388.336, 2.371364
2390.265, 2.416859
2392.193, 2.327841
2394.122, 2.462599
2396.050, 2.608273
2397.979, 2.539480
2399.907, 2.444297
2401.835, 2.625786
2403.764, 2.698360
2405.692, 2.630334
2407.621, 2.631414
2409.549, 2.837415
2411.478, 2.939733
2413.406, 2.631572
2415.335, 2.371276
2417.263, 2.379559
2419.192, 2.595535
2421.120, 2.516311
2423.049, 2.317774
2424.977, 2.509111
2426.906, 2.669261
2428.834, 2.372483
2430.762, 2.478677
2432.691, 2.751741
2434.619, 2.238831
2436.548, 2.066588
2438.476, 2.407846
2440.405, 2.393158
2442.333, 2.352199
2444.262, 2.423897
2446.190, 2.541145
2448.119, 2.539824
2450.047, 2.388628
2451.976, 2.214896
2453.904, 2.062084
2455.833, 1.991927
2457.761, 2.003553
2459.689, 2.062452
2461.618, 2.247911
2463.546, 2.303951
2465.475, 2.355871
2467.403, 2.201633
2469.332, 2.047851
2471.260, 2.010239
2473.189, 2.418106
2475.117, 2.576252
2477.046, 2.291679
2478.974, 2.108806
2480.903, 2.096017
2482.831, 2.087465
2484.760, 1.827259
2486.688, 1.641908
2488.616, 1.621832
2490.545, 1.730592
2492.473, 1.998479
2494.402, 2.233577
2496.330, 2.369116
2498.259, 2.431941
2500.187, 2.212955
2502.116, 2.399005
2504.044, 2.433520
2505.973, 1.954924
2507.901, 1.966358
2509.830, 2.102747
2511.758, 2.298710
2513.687, 2.523265
2515.615, 2.445654
2517.543, 2.158165
2519.472, 2.080768
2521.400, 1.889997
2523.329, 1.775934
2525.257, 1.638552
2527.186, 1.481527
2529.114, 1.943406
2531.043, 2.156761
2532.971, 1.992008
2534.900, 2.167398
2536.828, 2.106843
2538.757, 1.854547
2540.685, 1.929658
2542.614, 2.102605
2544.542, 2.271540
2546.470, 1.788064
2548.399, 1.526482
2550.327, 1.695702
2552.256, 1.612440
2554.184, 1.728491
2556.113, 2.115372
2558.041, 1.937883
2559.970, 1.738382
2561.898, 2.041763
2563.827, 1.707047
2565.755, 1.237803
2567.684, 1.812063
2569.612, 2.198754
2571.541, 2.292093
2573.469, 1.952751
2575.397, 1.935454
2577.326, 2.023932
2579.254, 1.645941
2581.183, 1.934015
2583.111, 2.256728
2585.040, 1.972262
2586.968, 1.792410
2588.897, 1.709578
2590.825, 1.508898
2592.754, 1.519837
2594.682, 1.697648
2596.611, 1.791179
2598.539, 1.775614
2600.468, 1.822446
2602.396, 1.700631
2604.324, 1.438470
2606.253, 1.563284
2608.181, 1.963225
2610.110, 1.718728
2612.038, 1.278715
2613.967, 1.780964
2615.895, 1.765195
2617.824, 1.599586
2619.752, 2.372714
2621.681, 2.384640
2623.609, 1.875847
2625.538, 1.998951
2627.466, 2.230155
2629.395, 2.099050
2631.323, 1.797363
2633.251, 1.693712
2635.180, 1.856361
2637.108, 1.943432
2639.037, 1.907024
2640.965, 1.717318
2642.894, 1.642514
2644.822, 1.586012
2646.751, 1.444063
2648.679, 1.549444
2650.608, 1.406908
2652.536, 1.262721
2654.465, 1.660283
2656.393, 1.562456
2658.322, 1.560585
2660.250, 2.322165
2662.178, 1.878093
2664.107, 1.187050
2666.035, 1.655680
2667.964, 1.450852
2669.892, 1.089023
2671.821, 1.328198
2673.749, 1.825491
2675.678, 1.944834
2677.606, 1.359499
2679.535, 0.9873825
2681.463, 1.072428
2683.392, 1.548110
2685.320, 1.225947
2687.249, 1.089130
2689.177, 1.366252
2691.105, 1.291929
2693.034, 1.471261
2694.962, 1.697240
2696.891, 1.718458
2698.819, 1.639389
2700.748, 1.254711
2702.676, 0.7690231
2704.605, 0.9710908
2706.533, 1.693462
2708.462, 2.153466
2710.390, 1.910176
2712.319, 1.452324
2714.247, 1.436076
2716.176, 1.437264
2718.104, 1.433795
2720.032, 1.572668
2721.961, 1.653155
2723.889, 1.597653
2725.818, 1.336935
2727.746, 1.382229
2729.675, 1.532329
2731.603, 1.308404
2733.532, 1.244866
2735.460, 1.395200
2737.389, 1.637578
2739.317, 1.407331
2741.246, 1.258942
2743.174, 1.316330
2745.103, 1.490464
2747.031, 1.455539
2748.959, 1.459764
2750.888, 1.114718
2752.816, 1.071909
2754.745, 1.288516
2756.673, 1.147232
2758.602, 1.032441
2760.530, 0.9327283
2762.459, 1.491886
2764.387, 1.624727
2766.316, 1.597359
2768.244, 1.942965
2770.173, 1.576480
2772.101, 1.338469
2774.030, 1.117873
2775.958, 1.419462
2777.886, 1.601300
2779.815, 1.383304
2781.743, 1.547575
2783.672, 1.474260
2785.600, 1.277199
2787.529, 0.8730539
2789.457, 0.8498113
2791.386, 1.340934
2793.314, 1.556011
2795.243, 1.168700
2797.171, 0.9229594
2799.100, 0.7267889
2801.028, 0.5983198
2802.957, 0.8027788
2804.885, 1.105563
2806.813, 1.365148
2808.742, 1.304349
2810.670, 1.078117
2812.599, 1.013820
2814.527, 0.9666495
2816.456, 0.9047144
2818.384, 0.9932154
2820.313, 1.019026
2822.241, 1.046332
2824.170, 1.250183
2826.098, 0.8421410
2828.027, 0.8822649
2829.955, 1.368540
2831.884, 0.6655709
2833.812, 0.6149827
2835.740, 1.076932
2837.669, 0.7675029
2839.597, 0.6461194
2841.526, 0.8656546
2843.454, 1.306152
2845.383, 1.353182
2847.311, 1.231180
2849.240, 1.308223
2851.168, 1.186083
2853.097, 1.308289
2855.025, 1.568222
2856.954, 1.058413
2858.882, 0.7891886
2860.811, 0.9168599
2862.739, 1.189393
2864.667, 1.124586
2866.596, 1.056396
2868.524, 1.188929
2870.453, 1.115120
2872.381, 1.076418
2874.310, 1.152680
2876.238, 1.414843
2878.167, 1.050693
2880.095, 0.7401584
2882.024, 1.290853
2883.952, 1.722288
2885.881, 1.495626
2887.809, 0.9646425
2889.738, 1.303351
2891.666, 0.9773859
2893.594, 0.3361672
2895.523, 0.2831112
2897.451, 0.3284700
2899.380, 0.4645433
2901.308, 0.6895553
2903.237, 0.4166571
2905.165, 0.3487245
2907.094, 0.6961967
2909.022, 1.242957
2910.951, 0.9333746
2912.879, 0.6987416
2914.808, 1.447790
2916.736, 0.7593381
2918.665, 0.4906499
2920.593, 1.016052
2922.521, 1.180847
2924.450, 0.9463873
2926.378, 0.6522135
2928.307, 0.8859149
2930.235, 1.177076
2932.164, 1.014951
2934.092, 0.5554324
2936.021, 1.051323
2937.949, 0.9564503
2939.878, 0.5067753
2941.806, 0.4541076
2943.735, 0.7524506
2945.663, 0.8671421
2947.592, 0.6571558
2949.520, 0.1279046
2951.448, 0.3598201
2953.377, 0.9636583
2955.305, 1.186428
2957.234, 1.332460
2959.162, 1.222559
2961.091, 0.8546283
2963.019, 0.5319282
2964.948, 0.3677643
2966.876, 0.5835267
2968.805, 1.149879
2970.733, 0.9979302
2972.662, 0.8788538
2974.590, 1.008793
2976.519, 0.9594992
2978.447, 1.078717
2980.375, 0.9992175
2982.304, 0.2487266
2984.232, 0.8077767
2986.161, 1.056387
2988.089, 0.8352085
2990.018, 0.8053216
2991.946, 0.6928628
2993.875, 0.7131014
2995.803, 1.276035
2997.732, 0.9221115
2999.660, 0.7567624
3001.589, 0.8141986
3003.517, 0.4964202
3005.446, 1.106126
3007.374, 1.683280
3009.302, 1.388591
3011.231, 0.8590995
3013.159, 0.5595629
3015.088, 0.6519356
3017.016, 0.8974978
3018.945, 1.262899
3020.873, 0.9966186
3022.802, 0.3165886
3024.730, 0.7326454
3026.659, 0.8497740
3028.587, 0.6808437
3030.516, 0.5799265
3032.444, 0.1705280
3034.373, 0.5897458
3036.301, 1.556470
3038.229, 1.373835
3040.158, 1.170032
3042.086, 1.168177
3044.015, 1.046816
3045.943, 0.6956308
3047.872, 0.5165490
3049.800, 0.4770707
3051.729, 0.6926030
3053.657, 0.9067259
3055.586, 0.9045949
3057.514, 0.8502166
3059.443, 0.9190904
3061.371, 0.9555844
3063.300, 1.228499
3065.228, 1.764007
3067.156, 1.377702
3069.085, 0.8921449
3071.013, 0.7347214
3072.942, 1.046852
3074.870, 0.3168700
3076.799, 0.4287966
3078.727, 0.8970085
3080.656, 0.9888877
3082.584, 0.9509360
3084.513, 1.058822
3086.441, 1.321761
3088.370, 0.4441608
3090.298, 0.4000624
3092.227, 0.5969163
3094.155, 0.4473132
3096.083, 0.2948984
3098.012, 0.6380427
3099.940, 0.8599809
3101.869, 0.2011676
3103.797, 9.3616970E-02
3105.726, 0.3879183
3107.654, 0.7010061
3109.583, 0.6935716
3111.511, 0.9165955
3113.440, 1.093898
3115.368, 1.101770
3117.297, 1.359825
3119.225, 0.8475860
3121.154, 0.6209835
3123.082, 1.002305
3125.010, 0.8777329
3126.939, 0.9674226
3128.867, 0.8295852
3130.796, 0.4005466
3132.724, 1.031844
3134.653, 0.8382428
3136.581, 0.8753095
3138.510, 1.655817
3140.438, 0.9332755
3142.367, 1.128161
3144.295, 1.375690
3146.224, 0.5748354
3148.152, 0.4790383
3150.081, 0.7718010
3152.009, 0.7953743
3153.938, 0.5300107
3155.866, 1.577899
3157.794, 1.621544
3159.723, 1.057799
3161.651, 0.9672664
3163.580, 0.5988134
3165.508, 0.5462372
3167.437, 0.6201407
3169.365, 0.7158974
3171.294, 0.5179855
3173.222, 0.3498950
3175.151, 0.3018837
3177.079, 0.1255420
3179.008, 0.3398778
3180.936, 0.5465319
3182.865, 0.5160562
3184.793, 0.3291561
3186.721, 0.6804730
3188.650, 0.8776429
3190.578, 0.9183377
3192.507, 1.181593
3194.435, 0.9922308
3196.364, 0.9324794
3198.292, 1.167176
3200.221, 1.414349
3202.149, 1.035962
3204.078, 0.9974631
3206.006, 1.523132
3207.935, 2.244159
3209.863, 1.504906
3211.792, 1.103797
3213.720, 1.180531
3215.648, 1.249292
3217.577, 0.9880127
3219.505, 0.8747961
3221.434, 0.9049037
3223.362, 0.6349411
3225.291, 1.013962
3227.219, 1.007406
3229.148, 0.7190171
3231.076, 0.7360253
3233.005, 0.7419648
3234.933, 0.1802456
3236.862, 0.1219874
3238.790, 1.298324
3240.719, 0.9956903
3242.647, 0.8066042
3244.575, 0.7792884
3246.504, 0.5337127
3248.432, 0.5074519
3250.361, 0.7960818
3252.289, 1.053715
3254.218, 1.054896
3256.146, 1.614185
3258.074, 1.286547
3260.003, 0.9469323
3261.931, 1.111096
3263.860, 1.526883
3265.788, 1.742795
3267.717, 1.474022
3269.645, 1.056461
3271.574, 1.073219
3273.502, 1.160267
3275.431, 1.221528
3277.359, 1.261114
3279.288, 1.713688
3281.216, 0.8012192
3283.145, 0.7095624
3285.073, 1.180283
3287.001, 1.201668
3288.930, 0.8598900
3290.858, 1.259804
3292.787, 1.203638
3294.715, 0.3617720
3296.644, 0.7790496
3298.572, 0.3978945
3300.501, 0.3394784
3302.429, 0.7326065
3304.358, 0.5724533
3306.286, 0.3620339
3308.215, 0.3253500
3310.143, 0.2435213
3312.072, -0.1051438
3314.000, 0.4898475
3315.928, 0.9194867
3317.857, 0.9631782
3319.785, 0.6879219
3321.714, -7.7781968E-02
3323.642, 0.6264433
3325.571, 1.591543
3327.499, 1.897215
3329.428, 1.241008
3331.356, 0.7345254
3333.285, 0.4921320
3335.213, 0.4968739
3337.142, 0.7682933
3339.070, 1.235904
3340.999, 1.383126
3342.927, 1.076784
3344.855, 0.8075206
3346.784, 1.607327
3348.712, 1.214401
3350.641, 1.130152
3352.569, 1.429619
3354.498, 1.398154
3356.426, 1.646155
3358.355, 1.599727
3360.283, 1.169887
3362.212, 0.5843028
3364.140, 1.146239
3366.069, 0.9887158
3367.997, 0.6420724
3369.926, 0.5526275
3371.854, 1.274782
3373.782, 0.4410901
3375.711, 1.028343
3377.639, 1.722489
3379.568, 1.292083
3381.496, -0.3062626
3383.425, 0.6395417
3385.353, 0.7040648
3387.282, 7.6536343E-02
3389.210, 0.6098897
3391.139, 0.4009217
3393.067, 0.9381799
3394.996, 1.633955
3396.924, 1.680885
3398.853, 0.2989514
3400.781, 0.6798170
3402.709, 1.194406
3404.638, 1.561997
3406.566, 1.643325
3408.495, 0.4031996
3410.423, 0.4633615
3412.352, 0.9986972
3414.280, 1.380442
3416.209, 1.344698
3418.137, 1.124227
3420.066, 1.265146
3421.994, 1.646680
3423.923, 1.910465
3425.851, 1.453181
3427.780, 1.508007
3429.708, 1.561403
3431.636, 1.510612
3433.565, 1.430746
3435.493, 1.155662
3437.422, 0.5615999
3439.350, 0.8515726
3441.279, 1.203411
3443.207, 0.1692849
3445.136, 0.3190542
3447.064, 0.6986834
3448.993, 1.091702
3450.921, 1.212714
3452.850, 0.7487437
3454.778, 0.5049921
3456.707, 0.9868037
3458.635, 0.6258931
3460.563, 9.2252038E-02
3462.492, 2.459244
3464.420, 1.417209
3466.349, 0.6405570
3468.277, 0.4949261
3470.206, 0.6382218
3472.134, 1.399132
3474.063, 1.230215
3475.991, 1.187631
3477.920, 0.9481436
3479.848, 0.5053066
3481.777, 1.554149
3483.705, 1.943415
3485.634, 1.285178
3487.562, 0.9288181
3489.490, 1.526753
3491.419, 0.8098152
3493.347, 1.328430
3495.276, 1.362283
3497.204, 0.8517917
3499.133, 0.4271536
3501.061, 0.8868850
3502.990, 1.275204
3504.918, 1.732772
3506.847, 1.480441
3508.775, 0.5127234
3510.704, 1.285827
3512.632, 0.5888757
3514.561, 0.6069783
3516.489, 0.9172457
3518.417, 0.7684550
3520.346, 0.6610817
3522.274, 1.240674
3524.203, 1.304378
3526.131, 0.8566702
3528.060, 0.4593812
3529.988, 0.7929412
3531.917, 0.7411979
3533.845, 0.7715629
3535.774, 1.008498
3537.702, 1.232361
3539.631, 1.084466
3541.559, 1.034104
3543.488, 1.534594
3545.416, 1.519741
3547.344, 1.329375
3549.273, 2.132772
3551.201, 1.536206
3553.130, 1.278957
3555.058, 1.796973
3556.987, 2.078493
3558.915, 1.332566
3560.844, 1.868143
3562.772, 1.895300
3564.701, 1.987331
3566.629, 2.188751
3568.558, 2.191408
3570.486, 1.585209
3572.415, 1.017320
3574.343, 1.621405
3576.271, 2.092261
3578.200, 1.779870
3580.128, 1.219541
3582.057, 1.173208
3583.985, 1.889318
3585.914, 1.585897
3587.842, 1.088730
3589.771, 1.774666
3591.699, 2.585248
3593.628, 2.400974
3595.556, 1.968754
3597.485, 1.859039
3599.413, 2.299602
3601.342, 3.158331
3603.270, 1.932263
3605.198, 3.127636
3607.127, 3.932296
3609.055, 3.841795
3610.984, 3.975981
3612.912, 4.822378
3614.841, 4.486528
3616.769, 4.619592
3618.698, 5.052452
3620.626, 5.261493
3622.555, 5.019365
3624.483, 4.292178
3626.412, 5.080642
3628.340, 5.303083
3630.269, 4.984057
3632.197, 4.761893
3634.125, 4.147924
3636.054, 4.198458
3637.982, 3.888636
3639.911, 3.138758
3641.839, 2.549463
3643.768, 2.545643
3645.696, 2.111845
3647.625, 2.116944
3649.553, 2.006395
3651.482, 1.987048
3653.410, 1.786019
3655.339, 0.9708940
3657.267, 1.589749
3659.196, 1.827782
3661.124, 2.005010
3663.052, 2.072891
3664.981, 1.980967
3666.909, 1.891308
3668.838, 1.362392
3670.766, 1.419049
3672.695, 1.876085
3674.623, 1.790079
3676.552, 1.119762
3678.480, 1.148510
3680.409, 2.565738
3682.337, 2.383981
3684.266, 2.038441
3686.194, 1.920467
3688.123, 1.906458
3690.051, 2.153738
3691.979, 1.959376
3693.908, 1.987303
3695.836, 1.720856
3697.765, 1.625543
3699.693, 1.910226
3701.622, 1.991488
3703.550, 1.570704
3705.479, 1.649073
3707.407, 1.819324
3709.336, 1.642574
3711.264, 1.489216
3713.193, 1.943559
3715.121, 1.099299
3717.050, 1.422330
3718.978, 0.7601516
3720.906, 1.000150
3722.835, 1.598007
3724.763, 0.6286117
3726.692, 1.809890
3728.620, 0.3707195
3730.549, 0.7477899
3732.477, 1.279990
3734.406, 1.042129
3736.334, 0.7603989
3738.263, 1.492432
3740.191, 0.7684460
3742.120, 0.9192769
3744.048, 1.018397
3745.977, 1.127581
3747.905, 1.334408
3749.833, 1.238113
3751.762, 1.987630
3753.690, 1.945444
3755.619, 2.548495
3757.547, 2.272164
3759.476, 1.539731
3761.404, 1.689667
3763.333, 1.770004
3765.261, 1.361030
3767.190, 1.345563
3769.118, 1.917994
3771.047, 2.319309
3772.975, 1.956137
3774.904, 1.126379
3776.832, 1.499662
3778.760, 1.396275
3780.689, 0.8818493
3782.617, 0.9738415
3784.546, 0.8120049
3786.474, 9.1154508E-02
3788.403, 0.6068616
3790.331, 0.9216612
3792.260, 0.6046022
3794.188, 1.286700
3796.117, 0.7175893
3798.045, -3.2266568E-02
3799.974, 0.7622951
3801.902, 1.154064
3803.831, -5.5128139E-02
3805.759, -1.3150050E-02
3807.688, 1.092753
3809.616, 1.352645
3811.544, 1.137230
3813.473, 1.229400
3815.401, 0.3542077
3817.330, 0.8412251
3819.258, 1.122030
3821.187, 0.9982942
3823.115, 1.130113
3825.044, 1.143457
3826.972, 0.8826159
3828.901, 1.378262
3830.829, 0.6655252
3832.758, 0.9875140
3834.686, 0.8464154
3836.615, 0.7796695
3838.543, 0.6171566
3840.471, 0.6225352
3842.400, 1.994252
3844.328, 0.6273361
3846.257, 0.1061346
3848.185, 0.1867257
3850.114, 0.6813396
3852.042, 0.9376693
3853.971, 0.4868515
3855.899, -0.1852319
3857.828, 0.8828747
3859.756, 0.2331906
3861.685, 6.0268681E-02
3863.613, 1.127573
3865.542, 0.9103395
3867.470, 4.2247970E-02
3869.398, 2.6274851E-02
3871.327, -0.3256244
3873.255, -0.2859460
3875.184, -0.3903908
3877.112, -8.2748987E-02
3879.041, 0.2782974
3880.969, 0.5548739
3882.898, 0.7928013
3884.826, 0.9677066
3886.755, 0.9050654
3888.683, -0.7920047
3890.612, 0.7153800
3892.540, 1.302255
3894.469, 1.295784
3896.397, 0.9402109
3898.325, 0.8675377
3900.254, 1.646942
3902.182, 0.7564536
3904.111, 1.014635
3906.039, 0.9728618
3907.968, 9.3308561E-02
3909.896, 1.040838
3911.825, 1.622039
3913.753, 0.7961019
3915.682, 0.6007338
3917.610, 0.5427893
3919.539, 8.3623253E-02
3921.467, 1.398504
3923.396, -0.1631726
3925.324, -0.6613416
3927.252, 6.0218301E-02
3929.181, 0.2878972
3931.109, -0.1192751
3933.038, -0.1350377
3934.966, -0.1564691
3936.895, 4.6557549E-02
3938.823, 0.2714838
3940.752, 0.7256202
3942.680, 0.4997803
3944.609, 3.0526690E-02
3946.537, 0.1149606
3948.466, 0.5189477
3950.394, 0.8230718
3952.323, 0.9932659
3954.251, 0.7791501
3956.179, 0.6081439
3958.108, 1.738680
3960.036, 2.123735
3961.965, 1.043966
3963.893, 0.3407925
3965.822, 1.138558
3967.750, 0.1927557
3969.679, 0.5129448
3971.607, 1.280074
3973.536, 0.7748584
3975.464, 0.8994158
3977.393, 1.162625
3979.321, 0.8146365
3981.250, 0.7733608
3983.178, 1.185099
3985.106, 0.6034747
3987.035, 0.3180491
3988.963, 3.6584608E-02
3990.892, -0.1245521
3992.820, -0.3214000
3994.749, 4.2396639E-02
3996.677, 0.1132639
3998.606, -0.2639170
4000.534, -9.0021178E-02
4002.463, 0.4511578
4004.391, 1.466829
4006.320, 0.3067991
4008.248, 0.1717810
4010.177, 0.9811263
4012.105, 0.5253398
4014.033, -0.1424471
4015.962, 0.2864368
4017.890, 0.1901618
4019.819, 0.5986562
4021.747, 0.8109415
4023.676, 0.8741029
4025.604, 0.6075941
4027.533, 0.6598051
4029.461, 0.3894184
4031.390, 6.6219866E-02
4033.318, -3.7031140E-02
4035.247, -0.2903252
4037.175, -0.5093981
4039.104, 0.2125169
4041.032, 0.8309730
4042.960, 9.4448462E-02
4044.889, 0.8934897
4046.817, 0.3426194
4048.746, -0.3311556
4050.674, 5.0489899E-02
4052.603, 0.8529417
4054.531, 1.313509
4056.460, 0.8799840
4058.388, -0.7760659
4060.317, 0.3058810
4062.245, -0.1130014
4064.174, -0.1130872
4066.102, -0.1717751
4068.031, -0.1594969
4069.959, 0.4662088
4071.887, 0.5031060
4073.816, -0.2630096
4075.744, 5.4365389E-02
4077.673, -0.5911409
4079.601, 0.3037419
4081.530, 7.8983437E-03
4083.458, 1.6043261E-02
4085.387, 0.1197338
4087.315, 0.3927314
4089.244, 0.1967718
4091.172, 0.3518875
4093.101, 0.7598559
4095.029, 0.9061624
4096.958, 1.540148
4098.886, -0.1582202
4100.814, -9.3590170E-02
4102.743, -0.1930284
4104.671, 1.544179
4106.600, 0.7252895
4108.528, 0.6504018
4110.457, 0.5570322
4112.385, -0.2835438
4114.313, -0.4030384
4116.242, 0.5376605
4118.170, 0.8570741
4120.099, -0.2070119
4122.027, 4.2099789E-02
4123.956, -4.8559539E-02
4125.884, -0.1240219
4127.813, 0.3987934
4129.741, 0.3717726
4131.670, 4.3364469E-02
4133.598, 0.8474019
4135.527, 1.043095
4137.455, 0.3863116
4139.384, 0.4750608
4141.312, 0.7609040
4143.241, 2.3514129E-02
4145.169, 3.8371392E-02
4147.098, 0.7998487
4149.026, 0.5115943
4150.955, 0.6117046
4152.883, 1.196159
4154.812, 0.8394699
4156.740, 7.5540178E-02
4158.668, 0.1620785
4160.597, 0.1488554
4162.525, 0.2290894
4164.454, 0.6343877
4166.382, 0.1169386
4168.311, 0.3927359
4170.239, 0.4063655
4172.167, 0.2692614
4174.096, 0.4426349
4176.024, 0.4438621
4177.953, 0.1261675
4179.881, 0.7296011
4181.810, 0.2566284
4183.738, 0.1883779
4185.667, 0.3791093
4187.595, 0.1186205
4189.524, 8.2434401E-02
4191.452, 9.7223438E-02
4193.381, -0.5670754
4195.309, -1.2536770E-02
4197.238, 0.2458250
4199.166, 0.7091193
4201.095, 0.5416938
4203.023, 7.3714361E-02
4204.952, 0.7125503
4206.880, 0.1945301
4208.809, 0.2496770
4210.737, 0.5057570
4212.666, 0.1647719
4214.594, 4.1747529E-02
4216.522, 0.3579311
4218.451, 0.7707074
4220.379, 0.7716950
4222.308, -0.1336117
4224.236, -0.2473232
4226.165, 0.6955630
4228.093, 0.5781314
4230.021, -4.3318510E-02
4231.950, 0.4715884
4233.878, 0.3711006
4235.807, -0.1279603
4237.735, -2.8041311E-02
4239.664, 0.5339650
4241.592, 0.4634526
4243.521, 0.2536105
4245.449, -0.3154737
4247.378, -0.5723420
4249.306, -0.2979194
4251.235, 8.4716633E-02
4253.163, 0.4539990
4255.092, 0.3251861
4257.020, 0.1926688
4258.949, 0.1949877
4260.877, 0.8484126
4262.806, 0.9752846
4264.734, 0.4978158
4266.663, 0.9273413
4268.591, 1.169636
4270.520, 0.9412885
4272.448, 0.5319654
4274.376, 0.8187865
4276.305, 0.4176719
4278.233, 1.087011
4280.162, 0.8829370
4282.090, 0.3724846
4284.019, 0.1476409
4285.947, 0.4139042
4287.875, 0.7156726
4289.804, -6.8783186E-02
4291.732, 0.1006130
4293.661, 1.659389
4295.589, 0.2441210
4297.518, -0.4977022
4299.446, -3.4367658E-02
4301.375, 0.1291080
4303.303, 0.1610821
4305.232, -0.1767528
4307.160, -5.8584720E-02
4309.089, 0.1604626
4311.017, 0.7762953
4312.946, 0.8185691
4314.874, 0.2124450
4316.803, 0.5087053
4318.731, -0.6390714
4320.660, 0.3193787
4322.588, 0.4610090
4324.517, -0.3947430
4326.445, -0.4934525
4328.374, 0.5870313
4330.302, 1.106951
4332.230, 0.4215161
4334.159, -1.5974291E-02
4336.087, -0.2608072
4338.016, 4.3422781E-02
4339.944, 0.2096716
4341.873, 0.8387483
4343.801, 1.130973
4345.729, 1.483541
4347.658, -0.4113921
4349.586, -0.2541717
4351.515, 0.4239657
4353.443, 0.5425874
4355.372, 0.7062457
4357.300, 0.3752634
4359.229, 0.5671436
4361.157, 0.8363091
4363.086, -3.0630600E-02
##END=



