##NAMES=Hingganite-(Y)
##RRUFFID=R070466
##IDEAL CHEMISTRY=BeY(SiO_4_)(OH)
##LOCALITY=Tuften Quarry, Tvedalen, Larvik, Vestfold, Norway
##OWNER=RRUFF
##SOURCE=Michael Scott
##DESCRIPTION=White prismatic crystals
##STATUS=The identification of this mineral has been confirmed only by single crystal X-ray diffraction
##URL=https://www.rruff.net/odr/rruff_sample/R070466
##DIFFRACTION SAMPLE DESCRIPTION=Single crystal, powder profile is calculated
##CELL PARAMETERS=a: 4.764 b: 7.618 c: 9.92 alpha: 90 beta: 90.39 gamma: 90 volume: 360 crystal system: monoclinic
##FILETYPE=Raman Processed
##RAMAN WAVELENGTH=532

156.1701, 4630.354
158.0986, 4865.225
160.0270, 5100.703
161.9555, 5342.018
163.8840, 5578.602
165.8124, 5807.252
167.7409, 6028.662
169.6694, 6247.877
171.5978, 6477.520
173.5263, 6703.222
175.4548, 6902.366
177.3832, 7068.036
179.3117, 7224.554
181.2402, 7378.341
183.1686, 7528.659
185.0971, 7679.672
187.0256, 7835.670
188.9540, 7991.023
190.8825, 8140.863
192.8110, 8291.016
194.7394, 8423.709
196.6679, 8529.521
198.5964, 8597.652
200.5248, 8681.588
202.4533, 8799.692
204.3818, 8925.556
206.3102, 9032.574
208.2387, 9102.684
210.1672, 9173.790
212.0956, 9261.147
214.0241, 9365.158
215.9526, 9453.591
217.8810, 9511.004
219.8095, 9554.927
221.7380, 9602.664
223.6664, 9659.445
225.5949, 9715.665
227.5234, 9768.492
229.4518, 9817.896
231.3803, 9868.255
233.3088, 9926.833
235.2372, 9984.958
237.1657, 10027.86
239.0942, 10039.52
241.0226, 10063.72
242.9511, 10121.73
244.8796, 10213.28
246.8080, 10290.50
248.7365, 10349.26
250.6650, 10395.85
252.5934, 10432.79
254.5219, 10456.20
256.4503, 10480.68
258.3788, 10512.41
260.3073, 10551.86
262.2357, 10585.36
264.1642, 10604.41
266.0927, 10623.74
268.0211, 10652.79
269.9496, 10693.91
271.8781, 10739.81
273.8065, 10792.31
275.7350, 10848.73
277.6635, 10899.52
279.5919, 10947.13
281.5204, 10986.77
283.4489, 11014.79
285.3773, 11015.91
287.3058, 11033.04
289.2343, 11080.92
291.1628, 11145.86
293.0912, 11197.20
295.0197, 11224.31
296.9482, 11249.04
298.8766, 11281.79
300.8051, 11328.74
302.7336, 11365.37
304.6620, 11378.10
306.5905, 11385.30
308.5190, 11406.85
310.4474, 11451.27
312.3759, 11502.41
314.3044, 11563.59
316.2328, 11633.30
318.1613, 11686.10
320.0898, 11705.79
322.0182, 11716.98
323.9467, 11737.70
325.8752, 11777.46
327.8036, 11817.63
329.7321, 11857.41
331.6606, 11894.84
333.5890, 11931.31
335.5175, 11973.68
337.4460, 12009.65
339.3744, 12029.97
341.3029, 12024.44
343.2314, 12024.63
345.1598, 12033.90
347.0883, 12051.06
349.0168, 12071.69
350.9452, 12087.91
352.8737, 12114.96
354.8022, 12169.91
356.7306, 12253.26
358.6591, 12313.82
360.5876, 12327.14
362.5160, 12326.92
364.4445, 12339.49
366.3730, 12376.75
368.3014, 12415.19
370.2299, 12456.60
372.1584, 12497.51
374.0868, 12528.87
376.0153, 12541.68
377.9438, 12550.89
379.8722, 12564.70
381.8007, 12584.35
383.7292, 12606.34
385.6576, 12624.41
387.5861, 12650.05
389.5146, 12692.36
391.4430, 12779.07
393.3715, 12846.51
395.3000, 12863.53
397.2284, 12831.15
399.1569, 12830.50
401.0854, 12895.71
403.0138, 12968.15
404.9423, 13010.40
406.8708, 12994.56
408.7992, 12998.98
410.7277, 13037.09
412.6562, 13092.67
414.5846, 13138.09
416.5131, 13167.30
418.4416, 13194.84
420.3700, 13230.14
422.2985, 13274.20
424.2270, 13306.68
426.1554, 13313.10
428.0839, 13323.08
430.0124, 13349.79
431.9408, 13397.89
433.8693, 13431.00
435.7978, 13449.52
437.7262, 13465.76
439.6547, 13487.03
441.5832, 13505.70
443.5116, 13526.88
445.4401, 13558.96
447.3686, 13601.04
449.2970, 13635.58
451.2255, 13660.61
453.1540, 13686.55
455.0824, 13715.29
457.0109, 13745.20
458.9394, 13780.78
460.8678, 13828.02
462.7963, 13872.80
464.7248, 13903.13
466.6532, 13913.53
468.5817, 13931.68
470.5102, 13950.23
472.4386, 13967.39
474.3671, 13990.09
476.2956, 14032.16
478.2240, 14080.47
480.1525, 14127.73
482.0810, 14172.75
484.0094, 14212.74
485.9379, 14250.39
487.8664, 14287.56
489.7948, 14320.72
491.7233, 14341.55
493.6518, 14356.42
495.5802, 14378.24
497.5087, 14407.71
499.4372, 14436.54
501.3656, 14456.62
503.2941, 14477.49
505.2226, 14506.51
507.1510, 14546.95
509.0795, 14591.87
511.0080, 14625.45
512.9364, 14647.51
514.8649, 14668.71
516.7933, 14699.16
518.7218, 14736.50
520.6503, 14777.54
522.5787, 14816.67
524.5072, 14847.45
526.4357, 14851.92
528.3641, 14868.30
530.2926, 14912.32
532.2211, 14969.07
534.1495, 15004.03
536.0780, 15003.31
538.0065, 15017.46
539.9349, 15062.37
541.8634, 15134.82
543.7919, 15186.87
545.7203, 15216.39
547.6488, 15239.48
549.5773, 15265.17
551.5057, 15293.72
553.4342, 15317.72
555.3627, 15342.20
557.2911, 15369.75
559.2196, 15400.93
561.1481, 15420.21
563.0765, 15444.67
565.0050, 15487.23
566.9335, 15538.61
568.8619, 15569.58
570.7904, 15576.11
572.7189, 15599.28
574.6473, 15648.12
576.5758, 15699.73
578.5043, 15727.80
580.4327, 15762.06
582.3612, 15799.95
584.2897, 15831.60
586.2181, 15831.56
588.1466, 15843.87
590.0751, 15886.12
592.0035, 15937.57
593.9320, 15978.63
595.8605, 16003.82
597.7889, 16031.47
599.7174, 16061.52
601.6459, 16088.02
603.5743, 16103.56
605.5028, 16124.36
607.4313, 16157.98
609.3597, 16205.41
611.2882, 16246.74
613.2167, 16270.16
615.1451, 16301.18
617.0736, 16340.39
619.0021, 16380.81
620.9305, 16406.34
622.8590, 16439.50
624.7875, 16495.56
626.7159, 16544.57
628.6444, 16565.06
630.5729, 16569.33
632.5013, 16589.43
634.4298, 16629.49
636.3583, 16667.54
638.2867, 16687.57
640.2152, 16699.18
642.1437, 16733.82
644.0721, 16806.77
646.0006, 16876.11
647.9291, 16916.93
649.8575, 16940.65
651.7860, 16964.18
653.7145, 16985.17
655.6429, 17008.81
657.5714, 17044.33
659.4999, 17084.13
661.4283, 17125.61
663.3568, 17173.19
665.2853, 17226.79
667.2137, 17277.11
669.1422, 17298.71
671.0707, 17322.72
672.9991, 17359.03
674.9276, 17410.31
676.8561, 17450.37
678.7845, 17476.35
680.7130, 17499.87
682.6415, 17527.38
684.5699, 17541.75
686.4984, 17557.58
688.4269, 17588.57
690.3553, 17629.09
692.2838, 17684.08
694.2123, 17736.76
696.1407, 17772.67
698.0692, 17779.29
699.9977, 17798.56
701.9261, 17846.42
703.8546, 17899.63
705.7831, 17940.07
707.7115, 17968.89
709.6400, 17999.96
711.5685, 18035.49
713.4969, 18070.72
715.4254, 18107.54
717.3539, 18154.76
719.2823, 18198.81
721.2108, 18230.26
723.1393, 18235.47
725.0677, 18246.21
726.9962, 18257.55
728.9247, 18286.02
730.8531, 18345.68
732.7816, 18437.38
734.7101, 18507.86
736.6385, 18536.84
738.5670, 18550.48
740.4955, 18567.13
742.4240, 18593.54
744.3524, 18623.58
746.2809, 18658.53
748.2094, 18693.55
750.1378, 18727.82
752.0663, 18762.96
753.9948, 18798.26
755.9232, 18835.94
757.8517, 18868.54
759.7802, 18891.14
761.7086, 18896.94
763.6371, 18918.41
765.5656, 18977.85
767.4940, 19042.03
769.4225, 19079.43
771.3510, 19077.19
773.2794, 19096.79
775.2079, 19170.40
777.1364, 19256.97
779.0648, 19309.46
780.9933, 19309.99
782.9218, 19319.99
784.8502, 19358.99
786.7787, 19404.86
788.7072, 19432.28
790.6356, 19430.06
792.5641, 19449.91
794.4926, 19512.38
796.4210, 19590.68
798.3495, 19659.33
800.2780, 19723.29
802.2064, 19769.78
804.1349, 19775.33
806.0634, 19772.20
807.9918, 19800.36
809.9203, 19874.39
811.8488, 19940.79
813.7772, 19986.20
815.7057, 20016.76
817.6342, 20040.40
819.5626, 20047.42
821.4911, 20070.30
823.4196, 20121.24
825.3480, 20190.44
827.2765, 20262.09
829.2050, 20338.22
831.1334, 20393.95
833.0619, 20412.63
834.9904, 20422.04
836.9188, 20446.07
838.8473, 20489.46
840.7758, 20530.79
842.7042, 20563.20
844.6327, 20594.63
846.5612, 20641.30
848.4896, 20712.48
850.4181, 20764.34
852.3466, 20755.51
854.2750, 20741.85
856.2035, 20771.83
858.1320, 20847.02
860.0604, 20921.42
861.9889, 20997.74
863.9174, 21091.38
865.8458, 21174.02
867.7743, 21215.99
869.7028, 21238.38
871.6312, 21238.92
873.5597, 21263.73
875.4882, 21306.20
877.4166, 21357.07
879.3451, 21401.07
881.2736, 21434.76
883.2020, 21469.16
885.1305, 21522.64
887.0590, 21604.77
888.9874, 21669.00
890.9159, 21693.23
892.8444, 21697.92
894.7728, 21707.74
896.7013, 21718.41
898.6298, 21753.92
900.5582, 21839.43
902.4867, 21947.75
904.4152, 22027.51
906.3436, 22053.37
908.2721, 22070.63
910.2006, 22085.82
912.1290, 22117.56
914.0575, 22170.44
915.9860, 22239.25
917.9144, 22302.53
919.8429, 22350.68
921.7714, 22389.70
923.6998, 22429.00
925.6283, 22485.38
927.5568, 22548.36
929.4852, 22606.69
931.4137, 22649.18
933.3422, 22683.59
935.2706, 22732.33
937.1991, 22775.02
939.1276, 22802.80
941.0560, 22837.49
942.9845, 22910.96
944.9130, 22998.71
946.8414, 23066.06
948.7699, 23112.85
950.6984, 23156.39
952.6268, 23202.16
954.5553, 23223.34
956.4838, 23235.08
958.4122, 23259.37
960.3407, 23300.67
962.2692, 23348.29
964.1976, 23397.13
966.1261, 23463.50
968.0546, 23527.20
969.9830, 23563.30
971.9115, 23576.03
973.8400, 23620.52
975.7684, 23717.11
977.6969, 23792.11
979.6254, 23830.71
981.5538, 23845.12
983.4823, 23888.69
985.4108, 23969.14
987.3392, 24043.66
989.2677, 24086.88
991.1962, 24114.28
993.1246, 24160.99
995.0531, 24215.43
996.9816, 24246.49
998.9100, 24288.36
1000.839, 24344.80
1002.767, 24402.17
1004.695, 24446.65
1006.624, 24521.91
1008.552, 24608.42
1010.481, 24681.13
1012.409, 24731.30
1014.338, 24767.46
1016.266, 24803.95
1018.195, 24856.76
1020.123, 24911.13
1022.052, 24960.60
1023.980, 25007.87
1025.909, 25057.43
1027.837, 25108.71
1029.766, 25177.96
1031.694, 25244.80
1033.622, 25296.71
1035.551, 25329.33
1037.479, 25396.66
1039.408, 25473.50
1041.336, 25533.16
1043.265, 25587.60
1045.193, 25653.17
1047.122, 25719.93
1049.050, 25753.81
1050.979, 25777.68
1052.907, 25840.73
1054.836, 25941.30
1056.764, 26031.22
1058.693, 26078.16
1060.621, 26116.94
1062.549, 26172.31
1064.478, 26244.25
1066.406, 26317.40
1068.335, 26394.76
1070.263, 26453.94
1072.192, 26477.18
1074.120, 26481.83
1076.049, 26516.70
1077.977, 26596.71
1079.906, 26681.24
1081.834, 26721.71
1083.763, 26746.52
1085.691, 26807.64
1087.620, 26910.93
1089.548, 27003.96
1091.476, 27068.96
1093.405, 27124.61
1095.333, 27170.20
1097.262, 27202.83
1099.190, 27242.05
1101.119, 27293.03
1103.047, 27363.75
1104.976, 27447.89
1106.904, 27522.15
1108.833, 27583.24
1110.761, 27635.25
1112.690, 27697.21
1114.618, 27765.95
1116.547, 27850.47
1118.475, 27939.33
1120.403, 28029.10
1122.332, 28102.57
1124.260, 28163.02
1126.189, 28209.29
1128.117, 28237.84
1130.046, 28263.93
1131.974, 28324.51
1133.903, 28446.90
1135.831, 28548.77
1137.760, 28609.00
1139.688, 28652.29
1141.617, 28694.50
1143.545, 28724.66
1145.474, 28778.36
1147.402, 28898.83
1149.330, 29040.45
1151.259, 29145.50
1153.187, 29199.66
1155.116, 29255.32
1157.044, 29339.56
1158.973, 29429.07
1160.901, 29478.36
1162.830, 29496.80
1164.758, 29544.01
1166.687, 29646.36
1168.615, 29740.31
1170.544, 29822.14
1172.472, 29893.47
1174.401, 29958.47
1176.329, 30017.67
1178.257, 30070.41
1180.186, 30107.55
1182.114, 30150.84
1184.043, 30207.62
1185.971, 30276.16
1187.900, 30356.46
1189.828, 30461.98
1191.757, 30557.00
1193.685, 30622.15
1195.614, 30675.10
1197.542, 30744.42
1199.471, 30846.33
1201.399, 30934.30
1203.328, 30987.49
1205.256, 31038.78
1207.184, 31123.45
1209.113, 31234.80
1211.041, 31322.55
1212.970, 31375.29
1214.898, 31436.27
1216.827, 31526.58
1218.755, 31624.70
1220.684, 31714.72
1222.612, 31798.60
1224.541, 31876.52
1226.469, 31938.64
1228.398, 32000.18
1230.326, 32071.95
1232.255, 32154.11
1234.183, 32240.20
1236.111, 32338.26
1238.040, 32429.98
1239.968, 32514.10
1241.897, 32589.43
1243.825, 32647.81
1245.754, 32678.38
1247.682, 32732.98
1249.611, 32833.14
1251.539, 32940.70
1253.468, 33040.73
1255.396, 33132.68
1257.325, 33208.61
1259.253, 33258.91
1261.182, 33320.09
1263.110, 33405.46
1265.038, 33506.40
1266.967, 33622.78
1268.895, 33752.75
1270.824, 33859.65
1272.752, 33928.96
1274.681, 33997.64
1276.609, 34057.58
1278.538, 34107.28
1280.466, 34181.33
1282.395, 34299.36
1284.323, 34412.18
1286.252, 34525.13
1288.180, 34626.31
1290.109, 34697.45
1292.037, 34749.11
1293.965, 34809.43
1295.894, 34871.82
1297.822, 34947.96
1299.751, 35065.37
1301.679, 35185.57
1303.608, 35258.99
1305.536, 35283.44
1307.465, 35330.79
1309.393, 35429.13
1311.322, 35530.25
1313.250, 35605.55
1315.179, 35669.84
1317.107, 35765.11
1319.036, 35910.35
1320.964, 36036.14
1322.892, 36120.43
1324.821, 36191.52
1326.749, 36270.34
1328.678, 36362.47
1330.606, 36454.34
1332.535, 36555.41
1334.463, 36641.04
1336.392, 36676.52
1338.320, 36715.14
1340.249, 36846.83
1342.177, 37055.59
1344.106, 37196.04
1346.034, 37224.68
1347.963, 37261.61
1349.891, 37360.42
1351.819, 37479.26
1353.748, 37576.77
1355.676, 37669.53
1357.605, 37771.13
1359.533, 37865.95
1361.462, 37944.98
1363.390, 38011.48
1365.319, 38095.48
1367.247, 38199.95
1369.176, 38348.77
1371.104, 38483.82
1373.033, 38558.69
1374.961, 38609.10
1376.890, 38683.82
1378.818, 38809.64
1380.746, 38923.52
1382.675, 38996.86
1384.603, 39063.49
1386.532, 39123.86
1388.460, 39193.52
1390.389, 39287.20
1392.317, 39416.08
1394.246, 39537.38
1396.174, 39631.10
1398.103, 39725.46
1400.031, 39843.47
1401.960, 39975.37
1403.888, 40093.61
1405.817, 40169.14
1407.745, 40244.87
1409.673, 40346.39
1411.602, 40439.04
1413.530, 40487.17
1415.459, 40539.59
1417.387, 40674.71
1419.316, 40892.13
1421.244, 41044.90
1423.173, 41074.71
1425.101, 41095.31
1427.030, 41148.51
1428.958, 41230.41
1430.887, 41347.83
1432.815, 41519.46
1434.744, 41640.45
1436.672, 41647.77
1438.600, 41656.84
1440.529, 41734.21
1442.457, 41869.55
1444.386, 41994.48
1446.314, 42057.67
1448.243, 42159.36
1450.171, 42361.98
1452.100, 42567.03
1454.028, 42724.02
1455.957, 42833.30
1457.885, 42903.38
1459.814, 42894.91
1461.742, 42925.03
1463.671, 43023.64
1465.599, 43139.47
1467.527, 43245.66
1469.456, 43345.79
1471.384, 43450.85
1473.313, 43558.32
1475.241, 43657.46
1477.170, 43760.72
1479.098, 43847.37
1481.027, 43883.15
1482.955, 43909.00
1484.884, 44027.77
1486.812, 44261.72
1488.741, 44432.04
1490.669, 44451.70
1492.598, 44463.55
1494.526, 44553.79
1496.454, 44685.50
1498.383, 44793.33
1500.311, 44874.18
1502.240, 44972.02
1504.168, 45126.00
1506.097, 45263.75
1508.025, 45319.91
1509.954, 45338.69
1511.882, 45411.63
1513.811, 45548.09
1515.739, 45674.01
1517.668, 45775.21
1519.596, 45870.30
1521.525, 45976.32
1523.453, 46087.76
1525.381, 46174.36
1527.310, 46221.29
1529.238, 46283.12
1531.167, 46380.89
1533.095, 46496.73
1535.024, 46635.43
1536.952, 46773.70
1538.881, 46887.10
1540.809, 46974.93
1542.738, 47054.63
1544.666, 47110.81
1546.595, 47172.89
1548.523, 47243.47
1550.452, 47335.93
1552.380, 47460.71
1554.308, 47609.14
1556.237, 47737.65
1558.165, 47842.31
1560.094, 47947.97
1562.022, 48030.53
1563.951, 48116.41
1565.879, 48249.31
1567.808, 48413.42
1569.736, 48546.61
1571.665, 48639.70
1573.593, 48719.77
1575.522, 48762.34
1577.450, 48805.36
1579.379, 48881.25
1581.307, 48981.15
1583.235, 49077.72
1585.164, 49168.36
1587.092, 49235.42
1589.021, 49248.18
1590.949, 49288.43
1592.878, 49371.23
1594.806, 49484.38
1596.735, 49632.89
1598.663, 49812.53
1600.592, 49968.96
1602.520, 50102.40
1604.449, 50211.17
1606.377, 50283.73
1608.306, 50343.00
1610.234, 50395.84
1612.162, 50450.56
1614.091, 50519.00
1616.019, 50599.23
1617.948, 50699.34
1619.876, 50838.38
1621.805, 50974.12
1623.733, 51092.54
1625.662, 51195.75
1627.590, 51289.08
1629.519, 51372.68
1631.447, 51433.41
1633.376, 51448.02
1635.304, 51497.38
1637.233, 51628.30
1639.161, 51775.94
1641.089, 51904.56
1643.018, 52016.79
1644.946, 52124.41
1646.875, 52237.77
1648.803, 52322.19
1650.732, 52332.35
1652.660, 52374.93
1654.589, 52543.46
1656.517, 52732.45
1658.446, 52801.23
1660.374, 52775.25
1662.303, 52811.18
1664.231, 52937.38
1666.160, 53058.50
1668.088, 53149.54
1670.016, 53231.45
1671.945, 53293.80
1673.873, 53364.27
1675.802, 53502.01
1677.730, 53709.53
1679.659, 53905.92
1681.587, 54110.83
1683.516, 54249.08
1685.444, 54218.01
1687.373, 54176.67
1689.301, 54276.54
1691.230, 54473.60
1693.158, 54633.18
1695.087, 54753.48
1697.015, 54829.75
1698.943, 54822.74
1700.872, 54826.79
1702.800, 54889.16
1704.729, 54977.95
1706.657, 55046.61
1708.586, 55104.33
1710.514, 55223.87
1712.443, 55440.61
1714.371, 55613.10
1716.300, 55659.62
1718.228, 55715.53
1720.157, 55866.73
1722.085, 56058.22
1724.014, 56208.72
1725.942, 56318.96
1727.870, 56412.80
1729.799, 56483.34
1731.727, 56554.38
1733.656, 56609.55
1735.584, 56689.27
1737.513, 56840.27
1739.441, 57024.12
1741.370, 57162.09
1743.298, 57249.25
1745.227, 57352.23
1747.155, 57488.30
1749.084, 57613.49
1751.012, 57690.64
1752.941, 57783.52
1754.869, 57961.04
1756.797, 58176.33
1758.726, 58326.85
1760.654, 58404.56
1762.583, 58455.52
1764.511, 58395.72
1766.440, 58432.46
1768.368, 58704.12
1770.297, 58975.04
1772.225, 59062.98
1774.154, 59044.48
1776.082, 59092.25
1778.011, 59221.55
1779.939, 59340.72
1781.868, 59420.52
1783.796, 59534.62
1785.724, 59737.73
1787.653, 59930.06
1789.581, 60036.56
1791.510, 60094.44
1793.438, 60175.70
1795.367, 60283.05
1797.295, 60398.23
1799.224, 60553.90
1801.152, 60657.33
1803.081, 60626.33
1805.009, 60621.10
1806.938, 60747.72
1808.866, 60936.31
1810.795, 61079.42
1812.723, 61177.08
1814.651, 61280.02
1816.580, 61393.95
1818.508, 61499.66
1820.437, 61593.47
1822.365, 61678.13
1824.294, 61725.79
1826.222, 61786.54
1828.151, 61944.13
1830.079, 62169.49
1832.008, 62311.97
1833.936, 62353.12
1835.865, 62398.77
1837.793, 62458.29
1839.722, 62541.55
1841.650, 62667.20
1843.578, 62805.33
1845.507, 62927.39
1847.435, 63043.95
1849.364, 63186.25
1851.292, 63355.95
1853.221, 63501.98
1855.149, 63618.93
1857.078, 63711.00
1859.006, 63755.07
1860.935, 63800.88
1862.863, 63873.87
1864.792, 63968.85
1866.720, 64091.66
1868.649, 64240.03
1870.577, 64337.29
1872.505, 64344.52
1874.434, 64392.24
1876.362, 64516.43
1878.291, 64647.64
1880.219, 64762.24
1882.148, 64873.38
1884.076, 65004.17
1886.005, 65140.03
1887.933, 65232.57
1889.862, 65271.10
1891.790, 65305.79
1893.719, 65299.47
1895.647, 65356.09
1897.576, 65558.78
1899.504, 65747.74
1901.432, 65823.19
1903.361, 65859.77
1905.289, 65958.59
1907.218, 66106.23
1909.146, 66218.50
1911.075, 66290.13
1913.003, 66350.73
1914.932, 66386.59
1916.860, 66453.21
1918.789, 66597.26
1920.717, 66746.56
1922.646, 66850.29
1924.574, 66930.16
1926.503, 67017.68
1928.431, 67111.96
1930.359, 67201.21
1932.288, 67274.30
1934.216, 67389.90
1936.145, 67614.85
1938.073, 67799.98
1940.002, 67895.33
1941.930, 67940.98
1943.859, 67923.22
1945.787, 67895.25
1947.716, 67977.84
1949.644, 68173.57
1951.573, 68305.75
1953.501, 68334.82
1955.430, 68382.30
1957.358, 68460.45
1959.286, 68547.82
1961.215, 68658.13
1963.143, 68755.91
1965.072, 68791.42
1967.000, 68810.44
1968.929, 68908.21
1970.857, 69074.23
1972.786, 69209.77
1974.714, 69307.98
1976.643, 69392.13
1978.571, 69458.31
1980.500, 69527.58
1982.428, 69607.68
1984.356, 69693.04
1986.285, 69793.24
1988.213, 69888.66
1990.142, 69937.18
1992.070, 69950.23
1993.999, 70007.76
1995.927, 70119.51
1997.856, 70236.67
1999.784, 70400.57
2001.713, 70503.94
2003.641, 70433.52
2005.570, 70416.90
2007.498, 70641.14
2009.427, 70915.11
2011.355, 71010.49
2013.283, 70981.51
2015.212, 71024.23
2017.140, 71143.66
2019.069, 71226.58
2020.997, 71243.60
2022.926, 71317.58
2024.854, 71513.27
2026.783, 71693.28
2028.711, 71780.69
2030.640, 71852.60
2032.568, 71983.46
2034.497, 72125.65
2036.425, 72190.70
2038.354, 72192.19
2040.282, 72236.11
2042.210, 72340.59
2044.139, 72410.69
2046.067, 72389.28
2047.996, 72416.70
2049.924, 72528.52
2051.853, 72672.02
2053.781, 72866.73
2055.710, 73043.56
2057.638, 73138.16
2059.567, 73168.03
2061.495, 73148.75
2063.424, 73088.84
2065.352, 73102.60
2067.281, 73198.53
2069.209, 73344.65
2071.137, 73583.73
2073.066, 73743.96
2074.994, 73679.10
2076.923, 73647.34
2078.851, 73845.39
2080.780, 74081.44
2082.708, 74162.05
2084.637, 74144.35
2086.565, 74141.20
2088.494, 74153.13
2090.422, 74225.91
2092.351, 74397.19
2094.279, 74533.63
2096.208, 74619.97
2098.136, 74696.13
2100.064, 74781.18
2101.993, 74840.81
2103.921, 74805.73
2105.850, 74794.03
2107.778, 74936.68
2109.707, 75144.09
2111.635, 75269.29
2113.564, 75326.61
2115.492, 75382.74
2117.421, 75437.48
2119.349, 75514.97
2121.278, 75647.36
2123.206, 75739.08
2125.135, 75752.48
2127.063, 75758.90
2128.991, 75769.27
2130.920, 75793.16
2132.848, 75824.30
2134.777, 75882.06
2136.705, 76012.86
2138.634, 76187.13
2140.562, 76306.82
2142.491, 76375.66
2144.419, 76434.41
2146.348, 76481.18
2148.276, 76552.69
2150.205, 76660.74
2152.133, 76778.16
2154.062, 76931.57
2155.990, 77047.45
2157.918, 77055.91
2159.847, 77057.10
2161.775, 77135.56
2163.704, 77250.51
2165.632, 77354.93
2167.561, 77443.41
2169.489, 77474.53
2171.418, 77448.91
2173.346, 77509.20
2175.275, 77677.15
2177.203, 77818.66
2179.132, 77913.04
2181.060, 77983.27
2182.989, 78028.88
2184.917, 78062.40
2186.845, 78063.13
2188.774, 78082.66
2190.702, 78172.40
2192.631, 78292.05
2194.559, 78400.48
2196.488, 78493.16
2198.416, 78545.88
2200.345, 78559.71
2202.273, 78621.52
2204.202, 78741.51
2206.130, 78800.18
2208.059, 78749.87
2209.987, 78784.05
2211.916, 78993.16
2213.844, 79198.10
2215.772, 79345.32
2217.701, 79455.12
2219.629, 79520.66
2221.558, 79571.40
2223.486, 79641.27
2225.415, 79710.79
2227.343, 79734.77
2229.272, 79728.35
2231.200, 79765.22
2233.129, 79843.62
2235.057, 79901.02
2236.986, 79927.90
2238.914, 80009.48
2240.843, 80183.16
2242.771, 80324.75
2244.699, 80391.80
2246.628, 80443.11
2248.556, 80489.65
2250.485, 80534.24
2252.413, 80572.52
2254.342, 80615.47
2256.270, 80685.95
2258.199, 80758.09
2260.127, 80776.85
2262.056, 80768.20
2263.984, 80809.25
2265.913, 80896.70
2267.841, 81009.42
2269.770, 81148.50
2271.698, 81283.82
2273.626, 81441.10
2275.555, 81517.13
2277.483, 81398.40
2279.412, 81360.47
2281.340, 81546.52
2283.269, 81690.19
2285.197, 81632.08
2287.126, 81579.05
2289.054, 81684.80
2290.983, 81821.95
2292.911, 81863.48
2294.840, 81869.07
2296.768, 81930.66
2298.697, 82032.72
2300.625, 82129.46
2302.553, 82220.71
2304.482, 82297.77
2306.410, 82349.15
2308.339, 82437.00
2310.267, 82574.50
2312.196, 82707.98
2314.124, 82858.37
2316.053, 82916.22
2317.981, 82774.08
2319.910, 82697.11
2321.838, 82846.28
2323.767, 83015.66
2325.695, 83110.07
2327.624, 83167.20
2329.552, 83194.33
2331.480, 83221.08
2333.409, 83308.09
2335.337, 83409.73
2337.266, 83384.87
2339.194, 83297.50
2341.123, 83427.56
2343.051, 83739.90
2344.980, 83859.02
2346.908, 83735.77
2348.837, 83760.78
2350.765, 84070.06
2352.694, 84263.35
2354.622, 84262.04
2356.551, 84264.61
2358.479, 84305.95
2360.407, 84325.20
2362.336, 84287.41
2364.264, 84255.31
2366.193, 84209.53
2368.121, 84240.24
2370.050, 84487.95
2371.978, 84753.17
2373.907, 84857.05
2375.835, 84858.94
2377.764, 84786.45
2379.692, 84700.20
2381.621, 84745.00
2383.549, 84897.71
2385.478, 85095.52
2387.406, 85319.41
2389.334, 85414.99
2391.263, 85370.01
2393.191, 85356.69
2395.120, 85384.45
2397.048, 85448.16
2398.977, 85579.02
2400.905, 85681.97
2402.834, 85744.82
2404.762, 85792.87
2406.691, 85825.95
2408.619, 85855.30
2410.548, 85865.29
2412.476, 85903.70
2414.405, 86033.20
2416.333, 86150.09
2418.261, 86131.55
2420.190, 86131.07
2422.118, 86345.45
2424.047, 86602.70
2425.975, 86680.49
2427.904, 86664.62
2429.832, 86689.10
2431.761, 86742.26
2433.689, 86798.51
2435.618, 86857.97
2437.546, 86925.58
2439.475, 87000.84
2441.403, 87054.27
2443.332, 87080.06
2445.260, 87123.75
2447.188, 87185.05
2449.117, 87286.73
2451.045, 87453.77
2452.974, 87517.84
2454.902, 87377.59
2456.831, 87332.30
2458.759, 87514.05
2460.688, 87675.57
2462.616, 87743.73
2464.545, 87824.57
2466.473, 87964.86
2468.402, 88093.70
2470.330, 88201.30
2472.259, 88260.69
2474.187, 88211.06
2476.115, 88160.51
2478.044, 88190.54
2479.972, 88257.91
2481.901, 88318.83
2483.829, 88394.19
2485.758, 88534.66
2487.686, 88690.61
2489.615, 88760.48
2491.543, 88793.70
2493.472, 88918.59
2495.400, 89086.65
2497.329, 89104.04
2499.257, 89006.97
2501.186, 89078.53
2503.114, 89318.17
2505.042, 89430.32
2506.971, 89418.11
2508.899, 89405.28
2510.828, 89397.16
2512.756, 89435.96
2514.685, 89547.86
2516.613, 89612.92
2518.542, 89563.95
2520.470, 89612.77
2522.399, 89829.45
2524.327, 89942.11
2526.256, 89863.63
2528.184, 89836.84
2530.113, 89936.04
2532.041, 90061.00
2533.969, 90251.48
2535.898, 90354.27
2537.826, 90197.95
2539.755, 90136.09
2541.683, 90380.59
2543.612, 90608.51
2545.540, 90671.53
2547.469, 90686.07
2549.397, 90684.07
2551.326, 90703.77
2553.254, 90809.12
2555.183, 90903.89
2557.111, 90854.86
2559.040, 90813.38
2560.968, 90958.05
2562.896, 91154.92
2564.825, 91315.50
2566.753, 91400.57
2568.682, 91258.21
2570.610, 91080.09
2572.539, 91249.81
2574.467, 91577.88
2576.396, 91651.81
2578.324, 91582.70
2580.253, 91647.37
2582.181, 91800.31
2584.110, 91917.05
2586.038, 92009.67
2587.967, 92148.88
2589.895, 92316.74
2591.823, 92361.02
2593.752, 92301.55
2595.680, 92366.32
2597.609, 92535.22
2599.537, 92608.12
2601.466, 92578.62
2603.394, 92613.36
2605.323, 92726.65
2607.251, 92785.60
2609.180, 92783.29
2611.108, 92784.31
2613.037, 92789.31
2614.965, 92821.15
2616.894, 92875.51
2618.822, 93024.90
2620.750, 93368.63
2622.679, 93527.54
2624.607, 93428.24
2626.536, 93382.77
2628.464, 93412.61
2630.393, 93483.90
2632.321, 93606.20
2634.250, 93704.72
2636.178, 93739.99
2638.107, 93811.41
2640.035, 93983.87
2641.964, 94052.82
2643.892, 93930.20
2645.821, 93938.86
2647.749, 94195.31
2649.677, 94420.79
2651.606, 94525.77
2653.534, 94627.17
2655.463, 94774.22
2657.391, 94865.37
2659.320, 94864.63
2661.248, 94853.79
2663.177, 94812.41
2665.105, 94865.18
2667.034, 95172.27
2668.962, 95379.88
2670.891, 95344.82
2672.819, 95280.48
2674.748, 95192.16
2676.676, 95172.39
2678.604, 95267.01
2680.533, 95397.12
2682.461, 95573.93
2684.390, 95716.71
2686.318, 95782.07
2688.247, 95835.86
2690.175, 95892.02
2692.104, 95949.73
2694.032, 96015.12
2695.961, 96069.54
2697.889, 96078.22
2699.818, 96116.67
2701.746, 96254.81
2703.675, 96359.87
2705.603, 96374.24
2707.531, 96380.77
2709.460, 96386.17
2711.388, 96435.31
2713.317, 96563.91
2715.245, 96713.59
2717.174, 96917.01
2719.102, 97049.07
2721.031, 97043.23
2722.959, 97015.32
2724.888, 96957.01
2726.816, 96980.13
2728.745, 97240.54
2730.673, 97415.38
2732.602, 97301.23
2734.530, 97225.61
2736.458, 97293.25
2738.387, 97388.33
2740.315, 97527.98
2742.244, 97583.88
2744.172, 97371.44
2746.101, 97305.95
2748.029, 97598.96
2749.958, 97856.09
2751.886, 97966.81
2753.815, 98026.15
2755.743, 98004.61
2757.672, 98042.55
2759.600, 98237.05
2761.529, 98389.85
2763.457, 98450.84
2765.385, 98499.73
2767.314, 98547.91
2769.242, 98610.89
2771.171, 98715.79
2773.099, 98791.57
2775.028, 98777.57
2776.956, 98867.09
2778.885, 99156.63
2780.813, 99300.35
2782.742, 99118.92
2784.670, 99059.46
2786.599, 99293.63
2788.527, 99479.74
2790.456, 99605.90
2792.384, 99652.57
2794.313, 99596.52
2796.241, 99571.55
2798.169, 99613.22
2800.098, 99643.45
2802.026, 99644.91
2803.955, 99698.09
2805.883, 99814.24
2807.812, 99895.38
2809.740, 99921.06
2811.669, 100008.3
2813.597, 100181.5
2815.526, 100325.0
2817.454, 100440.7
2819.383, 100440.6
2821.311, 100332.2
2823.240, 100390.9
2825.168, 100624.3
2827.096, 100669.0
2829.025, 100536.1
2830.953, 100546.5
2832.882, 100677.0
2834.810, 100845.1
2836.739, 101014.4
2838.667, 100985.2
2840.596, 100839.2
2842.524, 100907.6
2844.453, 101125.6
2846.381, 101365.8
2848.310, 101558.8
2850.238, 101495.4
2852.167, 101334.5
2854.095, 101411.7
2856.023, 101564.6
2857.952, 101490.7
2859.880, 101378.0
2861.809, 101453.7
2863.737, 101607.7
2865.666, 101744.9
2867.594, 101871.0
2869.523, 102004.3
2871.451, 102111.3
2873.380, 102149.4
2875.308, 102179.3
2877.237, 102253.6
2879.165, 102314.4
2881.094, 102309.7
2883.022, 102310.8
2884.950, 102309.1
2886.879, 102390.8
2888.807, 102702.5
2890.736, 102913.9
2892.664, 102896.6
2894.593, 102824.9
2896.521, 102673.9
2898.450, 102664.7
2900.378, 102931.0
2902.307, 103111.7
2904.235, 103151.7
2906.164, 103129.9
2908.092, 103034.5
2910.021, 103043.8
2911.949, 103189.4
2913.877, 103255.6
2915.806, 103223.6
2917.734, 103258.4
2919.663, 103351.1
2921.591, 103390.9
2923.520, 103389.2
2925.448, 103412.0
2927.377, 103465.5
2929.305, 103596.9
2931.234, 103764.3
2933.162, 103847.5
2935.091, 103899.0
2937.019, 104022.1
2938.948, 104147.7
2940.876, 104174.2
2942.804, 104160.3
2944.733, 104159.1
2946.661, 104153.2
2948.590, 104067.7
2950.518, 104060.8
2952.447, 104326.0
2954.375, 104552.5
2956.304, 104608.6
2958.232, 104618.7
2960.161, 104626.9
2962.089, 104604.0
2964.018, 104494.6
2965.946, 104456.4
2967.875, 104517.2
2969.803, 104597.7
2971.731, 104690.4
2973.660, 104781.6
2975.588, 104875.5
2977.517, 104942.5
2979.445, 104982.0
2981.374, 104966.4
2983.302, 104912.3
2985.231, 104970.1
2987.159, 105104.1
2989.088, 105161.4
2991.016, 105173.1
2992.945, 105204.1
2994.873, 105242.2
2996.802, 105278.7
2998.730, 105301.6
3000.658, 105304.9
3002.587, 105276.9
3004.515, 105121.9
3006.444, 105062.0
3008.372, 105337.8
3010.301, 105568.3
3012.229, 105599.5
3014.158, 105586.0
3016.086, 105550.3
3018.015, 105532.3
3019.943, 105518.7
3021.872, 105586.5
3023.800, 105753.8
3025.729, 105860.3
3027.657, 105887.7
3029.585, 105990.0
3031.514, 106164.4
3033.442, 106184.8
3035.371, 106105.8
3037.299, 106186.8
3039.228, 106331.8
3041.156, 106305.8
3043.085, 106217.7
3045.013, 106270.2
3046.942, 106316.9
3048.870, 106143.9
3050.799, 106017.0
3052.727, 106186.5
3054.656, 106367.0
3056.584, 106433.6
3058.512, 106489.4
3060.441, 106584.1
3062.369, 106633.9
3064.298, 106595.6
3066.226, 106580.5
3068.155, 106596.3
3070.083, 106605.9
3072.012, 106604.3
3073.940, 106693.2
3075.869, 106850.0
3077.797, 106805.8
3079.726, 106642.8
3081.654, 106540.9
3083.583, 106522.1
3085.511, 106703.2
3087.439, 106897.3
3089.368, 106872.9
3091.296, 106811.2
3093.225, 106828.4
3095.153, 106858.7
3097.082, 106856.5
3099.010, 106895.5
3100.939, 107024.5
3102.867, 107084.4
3104.796, 106968.5
3106.724, 106969.1
3108.653, 107100.4
3110.581, 107195.9
3112.510, 107244.2
3114.438, 107200.7
3116.366, 107108.5
3118.295, 107134.0
3120.223, 107236.4
3122.152, 107386.6
3124.080, 107509.9
3126.009, 107532.4
3127.937, 107473.4
3129.866, 107244.8
3131.794, 107127.1
3133.723, 107360.4
3135.651, 107512.0
3137.580, 107423.0
3139.508, 107382.6
3141.437, 107415.4
3143.365, 107530.0
3145.293, 107737.8
3147.222, 107760.0
3149.150, 107636.3
3151.079, 107664.8
3153.007, 107753.2
3154.936, 107672.8
3156.864, 107557.0
3158.793, 107608.2
3160.721, 107677.4
3162.650, 107617.3
3164.578, 107604.2
3166.507, 107790.1
3168.435, 107910.4
3170.364, 107898.2
3172.292, 107880.7
3174.220, 107869.1
3176.149, 107927.4
3178.077, 108059.0
3180.006, 108065.9
3181.934, 107999.7
3183.863, 108082.9
3185.791, 108217.1
3187.720, 108217.7
3189.648, 108150.3
3191.577, 108027.6
3193.505, 107951.8
3195.434, 108030.3
3197.362, 108097.3
3199.291, 108111.9
3201.219, 108082.9
3203.147, 107986.9
3205.076, 107960.6
3207.004, 108015.1
3208.933, 108055.1
3210.861, 108081.5
3212.790, 108096.5
3214.718, 108115.8
3216.647, 108191.3
3218.575, 108267.8
3220.504, 108307.4
3222.432, 108298.0
3224.361, 108157.3
3226.289, 108104.7
3228.218, 108220.9
3230.146, 108347.8
3232.074, 108471.9
3234.003, 108519.2
3235.931, 108488.4
3237.860, 108359.8
3239.788, 108200.3
3241.717, 108268.4
3243.645, 108436.9
3245.574, 108514.3
3247.502, 108533.3
3249.431, 108479.0
3251.359, 108450.1
3253.288, 108551.1
3255.216, 108570.8
3257.145, 108445.3
3259.073, 108385.9
3261.001, 108437.4
3262.930, 108458.1
3264.858, 108454.6
3266.787, 108494.8
3268.715, 108524.1
3270.644, 108367.0
3272.572, 108214.6
3274.501, 108301.8
3276.429, 108425.2
3278.358, 108525.2
3280.286, 108531.4
3282.215, 108394.0
3284.143, 108301.1
3286.072, 108275.3
3288.000, 108304.6
3289.928, 108373.7
3291.857, 108354.4
3293.785, 108288.6
3295.714, 108240.8
3297.642, 108222.6
3299.571, 108301.3
3301.499, 108321.3
3303.428, 108154.7
3305.356, 108051.3
3307.285, 108130.8
3309.213, 108152.6
3311.142, 108108.8
3313.070, 108138.8
3314.999, 108214.0
3316.927, 108124.4
3318.855, 108011.6
3320.784, 108168.4
3322.712, 108343.5
3324.641, 108355.3
3326.569, 108275.8
3328.498, 108099.9
3330.426, 107959.2
3332.355, 107874.4
3334.283, 107888.5
3336.212, 107990.6
3338.140, 108064.6
3340.069, 108085.3
3341.997, 107958.1
3343.926, 107798.9
3345.854, 107675.6
3347.782, 107677.9
3349.711, 107960.0
3351.639, 108186.3
3353.568, 108323.1
3355.496, 108229.3
3357.425, 107886.1
3359.353, 107650.3
3361.282, 107539.4
3363.210, 107706.9
3365.139, 107926.0
3367.067, 107931.0
3368.996, 107851.1
3370.924, 107696.8
3372.853, 107646.8
3374.781, 107800.0
3376.709, 107918.1
3378.638, 107986.9
3380.566, 107957.1
3382.495, 107861.0
3384.423, 107780.5
3386.352, 107749.0
3388.280, 107901.2
3390.209, 107984.2
3392.137, 107728.2
3394.066, 107628.5
3395.994, 107845.9
3397.923, 107848.2
3399.851, 107579.3
3401.780, 107467.8
3403.708, 107473.5
3405.636, 107483.6
3407.565, 107482.9
3409.493, 107412.1
3411.422, 107400.7
3413.350, 107547.6
3415.279, 107643.7
3417.207, 107617.2
3419.136, 107625.6
3421.064, 107660.7
3422.993, 107543.7
3424.921, 107360.9
3426.850, 107285.8
3428.778, 107248.9
3430.707, 107190.8
3432.635, 107147.9
3434.563, 107118.8
3436.492, 107170.0
3438.420, 107309.5
3440.349, 107274.3
3442.277, 107134.4
3444.206, 107339.4
3446.134, 107559.7
3448.063, 107275.4
3449.991, 106974.5
3451.920, 106974.9
3453.848, 107002.3
3455.777, 107026.8
3457.705, 106923.9
3459.634, 106703.3
3461.562, 106606.6
3463.490, 106620.3
3465.419, 106805.2
3467.347, 106926.8
3469.276, 106691.3
3471.204, 106530.4
3473.133, 106611.0
3475.061, 106640.8
3476.990, 106595.8
3478.918, 106548.7
3480.847, 106531.7
3482.775, 106673.0
3484.704, 106814.4
3486.632, 106767.6
3488.561, 106734.2
3490.489, 106893.5
3492.417, 106830.0
3494.346, 106515.7
3496.274, 106358.4
3498.203, 106359.5
3500.131, 106591.1
3502.060, 106787.2
3503.988, 106622.9
3505.917, 106428.1
3507.845, 106317.2
3509.774, 106326.4
3511.702, 106468.3
3513.631, 106501.8
3515.559, 106444.6
3517.488, 106382.4
3519.416, 106314.9
3521.344, 106197.9
3523.273, 106163.3
3525.201, 106297.1
3527.130, 106364.7
3529.058, 106313.6
3530.987, 106243.4
3532.915, 106183.2
3534.844, 106275.6
3536.772, 106371.3
3538.701, 106263.6
3540.629, 106186.7
3542.558, 106239.7
3544.486, 106282.8
3546.415, 106302.7
3548.343, 106217.6
3550.271, 106091.3
3552.200, 106066.8
3554.128, 106122.9
3556.057, 106339.6
3557.985, 106399.0
3559.914, 106009.3
3561.842, 105901.8
3563.771, 106058.8
3565.699, 106090.7
3567.628, 106035.1
3569.556, 105938.0
3571.485, 105859.6
3573.413, 105877.1
3575.342, 105826.8
3577.270, 105655.7
3579.198, 105663.1
3581.127, 105804.9
3583.055, 105744.1
3584.984, 105602.9
3586.912, 105494.3
3588.841, 105456.2
3590.769, 105567.4
3592.698, 105611.4
3594.626, 105572.1
3596.555, 105617.5
3598.483, 105677.7
3600.412, 105480.1
3602.340, 105273.8
3604.269, 105271.6
3606.197, 105297.2
3608.125, 105315.0
3610.054, 105310.0
3611.982, 105276.1
3613.911, 105134.9
3615.839, 104984.4
3617.768, 104936.9
3619.696, 104959.1
3621.625, 105074.5
3623.553, 105094.4
3625.482, 104981.0
3627.410, 104950.2
3629.339, 104953.0
3631.267, 104881.9
3633.196, 104767.9
3635.124, 104586.8
3637.052, 104456.2
3638.981, 104388.5
3640.909, 104567.4
3642.838, 104893.3
3644.766, 104803.0
3646.695, 104595.2
3648.623, 104537.3
3650.552, 104536.7
3652.480, 104588.3
3654.409, 104526.1
3656.337, 104358.8
3658.266, 104356.0
3660.194, 104436.9
3662.123, 104607.7
3664.051, 104557.4
3665.979, 104037.4
3667.908, 103938.6
3669.836, 104407.8
3671.765, 104429.2
3673.693, 104205.2
3675.622, 104022.6
3677.550, 103965.4
3679.479, 104133.1
3681.407, 104214.6
3683.336, 104128.1
3685.264, 104192.9
3687.193, 104289.5
3689.121, 104108.3
3691.050, 103892.8
3692.978, 103809.1
3694.906, 103747.1
3696.835, 103675.7
3698.763, 103704.6
3700.692, 103771.8
3702.620, 103675.3
3704.549, 103574.0
3706.477, 103614.2
3708.406, 103639.5
3710.334, 103613.2
3712.263, 103543.7
3714.191, 103457.8
3716.120, 103447.3
3718.048, 103453.6
3719.977, 103417.8
3721.905, 103410.6
3723.833, 103463.4
3725.762, 103448.5
3727.690, 103380.9
3729.619, 103292.7
3731.547, 103225.8
3733.476, 103221.6
3735.404, 103242.3
3737.333, 103289.6
3739.261, 103319.3
3741.190, 103296.2
3743.118, 103053.3
3745.047, 102821.9
3746.975, 102775.9
3748.904, 102824.1
3750.832, 102972.6
3752.760, 103035.5
3754.689, 103010.5
3756.617, 102855.9
3758.546, 102705.3
3760.474, 102664.4
3762.403, 102592.9
3764.331, 102459.9
3766.260, 102490.6
3768.188, 102584.4
3770.117, 102555.8
3772.045, 102465.1
3773.974, 102304.4
3775.902, 102268.8
3777.831, 102374.4
3779.759, 102237.2
3781.688, 102045.2
3783.616, 102110.8
3785.544, 102129.8
3787.473, 101954.0
3789.401, 101918.0
3791.330, 102026.7
3793.258, 102123.2
3795.187, 102154.8
3797.115, 102003.7
3799.044, 101939.8
3800.972, 102048.8
3802.901, 101885.5
3804.829, 101567.2
3806.758, 101634.8
3808.686, 101729.9
3810.615, 101505.6
3812.543, 101437.4
3814.471, 101581.2
3816.400, 101634.0
3818.328, 101586.9
3820.257, 101334.7
3822.185, 101164.0
3824.114, 101304.6
3826.042, 101357.5
3827.971, 101305.4
3829.899, 101136.2
3831.828, 101000.4
3833.756, 101123.5
3835.685, 101192.2
3837.613, 101104.6
3839.542, 100910.4
3841.470, 100685.2
3843.398, 100663.4
3845.327, 100668.0
3847.255, 100571.9
3849.184, 100538.1
3851.112, 100588.4
3853.041, 100627.6
3854.969, 100621.3
3856.898, 100353.8
3858.826, 100118.7
3860.755, 100003.4
3862.683, 100032.0
3864.612, 100120.5
3866.540, 99910.86
3868.469, 99657.36
3870.397, 99569.00
3872.325, 99402.10
3874.254, 99116.91
3876.182, 99093.52
3878.111, 99124.94
3880.039, 98865.49
3881.968, 98691.27
3883.896, 98753.23
3885.825, 98541.70
3887.753, 98157.23
3889.682, 98146.15
3891.610, 98177.02
3893.539, 97987.56
3895.467, 97793.70
3897.396, 97630.02
3899.324, 97437.20
3901.252, 97260.44
3903.181, 97159.20
3905.109, 97088.08
3907.038, 97045.88
3908.966, 96902.00
3910.895, 96718.12
3912.823, 96630.88
3914.752, 96593.44
3916.680, 96607.23
3918.609, 96414.39
3920.537, 96084.13
3922.466, 95992.73
3924.394, 95959.06
3926.323, 95738.34
3928.251, 95586.43
3930.179, 95617.46
3932.108, 95614.49
3934.036, 95497.88
3935.965, 95209.13
3937.893, 95019.91
3939.822, 94970.76
3941.750, 94797.12
3943.679, 94556.70
3945.607, 94497.44
3947.536, 94465.55
3949.464, 94351.66
3951.393, 94182.80
3953.321, 94000.70
3955.250, 93905.38
3957.178, 93804.62
3959.106, 93745.57
3961.035, 93654.16
3962.963, 93525.13
3964.892, 93446.91
3966.820, 93349.80
3968.749, 93203.82
3970.677, 93038.94
3972.606, 92990.02
3974.534, 92834.48
3976.463, 92578.89
3978.391, 92336.59
3980.320, 92212.23
3982.248, 92314.48
3984.177, 92298.34
3986.105, 92181.74
3988.033, 92076.86
3989.962, 91895.70
3991.890, 91654.55
3993.819, 91544.72
3995.747, 91521.41
3997.676, 91382.64
3999.604, 91184.75
4001.533, 91084.42
4003.461, 91101.75
4005.390, 91104.48
4007.318, 90977.84
4009.247, 90773.38
4011.175, 90608.08
4013.104, 90462.98
4015.032, 90303.11
4016.960, 90192.73
4018.889, 90129.70
4020.817, 90032.14
4022.746, 89953.13
4024.674, 90006.55
4026.603, 89796.63
4028.531, 89545.70
4030.460, 89507.34
4032.388, 89350.14
4034.317, 89176.20
4036.245, 89098.42
4038.174, 88956.46
4040.102, 88859.93
4042.031, 88830.13
4043.959, 88742.25
4045.887, 88578.10
4047.816, 88462.86
4049.744, 88439.04
4051.673, 88318.81
4053.601, 88031.55
4055.530, 87987.77
4057.458, 88072.89
4059.387, 87987.78
4061.315, 87854.38
4063.244, 87742.95
4065.172, 87606.10
4067.101, 87505.02
4069.029, 87472.71
4070.958, 87367.38
4072.886, 87105.94
4074.814, 86925.34
4076.743, 86834.83
4078.671, 86745.82
4080.600, 86704.43
4082.528, 86607.12
4084.457, 86606.09
4086.385, 86590.71
4088.314, 86257.91
4090.242, 86115.73
4092.171, 86220.44
4094.099, 86116.81
4096.027, 85912.87
4097.956, 85680.02
4099.884, 85602.36
4101.813, 85673.63
4103.741, 85474.72
4105.670, 85215.32
4107.598, 85160.12
4109.527, 85121.23
4111.455, 85057.54
4113.384, 84960.11
4115.312, 84831.00
4117.241, 84648.66
4119.169, 84529.99
4121.098, 84526.05
4123.026, 84407.54
4124.955, 84258.13
4126.883, 84234.42
4128.812, 84191.48
4130.740, 84130.91
4132.668, 83966.42
4134.597, 83779.77
4136.525, 83754.58
4138.454, 83726.14
4140.382, 83698.85
4142.311, 83628.52
4144.239, 83480.62
4146.167, 83234.69
4148.096, 83068.20
4150.024, 83032.13
4151.953, 82961.72
4153.881, 82868.75
4155.810, 82714.20
4157.738, 82631.30
4159.667, 82754.03
4161.595, 82738.14
4163.524, 82534.96
4165.452, 82292.20
4167.381, 82183.28
4169.309, 82229.33
4171.238, 82006.70
4173.166, 81699.07
4175.095, 81649.98
4177.023, 81673.57
4178.952, 81838.30
4180.880, 81736.21
4182.809, 81468.47
4184.737, 81458.34
4186.666, 81391.90
4188.594, 81150.98
4190.522, 81055.13
4192.451, 81046.75
4194.379, 81100.23
4196.308, 81047.84
4198.236, 80752.10
4200.165, 80639.37
4202.093, 80598.52
4204.021, 80548.49
4205.950, 80445.56
4207.878, 80187.46
4209.807, 80099.54
4211.735, 80104.73
4213.664, 80152.80
4215.592, 80085.71
4217.521, 79817.56
4219.449, 79582.97
4221.378, 79444.71
4223.306, 79625.26
4225.235, 79691.40
4227.163, 79502.34
4229.092, 79328.13
4231.020, 79192.27
4232.949, 79144.87
4234.877, 79048.66
4236.806, 78887.16
4238.734, 78912.28
4240.663, 78947.98
4242.591, 78814.26
4244.520, 78614.02
4246.448, 78421.04
4248.376, 78371.87
4250.305, 78374.28
4252.233, 78383.05
4254.162, 78400.21
4256.090, 78422.55
4258.019, 78461.64
4259.947, 78446.28
4261.875, 78282.10
4263.804, 78327.41
4265.732, 78492.16
4267.661, 78538.49
4269.589, 78478.88
4271.518, 78292.77
4273.446, 78262.99
4275.375, 78307.13
4277.303, 78291.38
4279.232, 78223.28
4281.160, 78104.73
4283.089, 78058.20
4285.017, 78045.09
4286.946, 78005.52
4288.874, 78022.09
4290.803, 78098.49
4292.731, 78165.35
4294.660, 78184.38
4296.588, 78063.04
4298.517, 78117.93
4300.445, 78275.02
4302.374, 78205.05
4304.302, 78052.65
4306.230, 77829.70
4308.159, 77773.98
4310.087, 77834.46
4312.016, 77994.22
4313.944, 78001.76
4315.873, 77763.55
4317.801, 77664.13
4319.729, 77648.73
4321.658, 77702.54
4323.586, 77689.24
4325.515, 77610.30
4327.443, 77635.66
4329.372, 77637.12
4331.300, 77505.23
4333.229, 77479.59
4335.157, 77515.25
4337.086, 77429.29
4339.014, 77408.98
4340.943, 77527.91
4342.871, 77492.05
4344.800, 77405.93
4346.728, 77411.22
4348.657, 77370.75
4350.585, 77274.80
4352.514, 77243.90
4354.442, 77224.19
4356.371, 77174.37
4358.299, 77189.40
4360.228, 77253.78
4362.156, 77343.04
4364.084, 77381.57
4366.013, 77349.08
4367.941, 77198.38
4369.870, 77052.97
4371.798, 77054.11
4373.727, 77120.66
4375.655, 77184.62
4377.583, 76916.54
4379.512, 76696.72
4381.440, 76786.58
4383.369, 76845.65
4385.297, 76863.00
4387.226, 76796.60
4389.154, 76822.82
4391.083, 76982.11
4393.011, 76900.78
4394.940, 76792.51
4396.868, 76870.95
4398.797, 76794.73
4400.725, 76635.24
4402.654, 76795.28
4404.582, 76779.12
4406.511, 76414.30
4408.439, 76308.51
4410.368, 76365.41
4412.296, 76505.88
4414.225, 76616.84
4416.153, 76659.13
4418.082, 76481.46
4420.010, 76333.95
4421.938, 76328.64
4423.867, 76311.72
4425.795, 76301.63
4427.724, 76359.10
4429.652, 76357.87
4431.581, 76293.90
4433.509, 76282.59
4435.438, 76295.20
4437.366, 76352.34
4439.294, 76192.79
4441.223, 75981.51
4443.151, 76000.74
4445.080, 76085.81
4447.008, 76191.14
4448.937, 76173.47
4450.865, 76114.01
4452.794, 76061.30
4454.722, 75883.50
4456.651, 75687.47
4458.579, 75671.33
4460.508, 75653.83
4462.436, 75627.38
4464.365, 75842.05
4466.293, 75987.64
4468.222, 75792.49
4470.150, 75732.02
4472.079, 75726.63
4474.007, 75622.49
4475.936, 75544.25
4477.864, 75512.28
4479.792, 75558.84
4481.721, 75556.48
4483.649, 75438.99
4485.578, 75364.02
4487.506, 75334.42
4489.435, 75358.56
4491.363, 75375.63
4493.292, 75366.68
4495.220, 75287.32
4497.148, 75189.66
4499.077, 75074.63
4501.005, 75222.45
4502.934, 75344.42
4504.862, 75015.69
4506.791, 75013.93
4508.719, 75241.80
4510.648, 75098.49
4512.576, 75095.63
4514.505, 75339.01
4516.433, 75255.72
4518.362, 75083.55
4520.290, 74994.77
4522.219, 74975.18
4524.147, 74979.66
4526.076, 74895.19
4528.004, 74916.81
4529.933, 75054.04
4531.861, 75088.73
4533.790, 74997.19
4535.718, 74742.00
4537.646, 74817.19
4539.575, 74937.38
4541.503, 74718.28
4543.432, 74717.43
4545.360, 74863.54
4547.289, 74767.23
4549.217, 74675.65
4551.146, 74661.29
4553.074, 74592.49
4555.002, 74513.52
4556.931, 74458.48
4558.859, 74357.95
4560.788, 74253.83
4562.716, 74196.87
4564.645, 74222.81
4566.573, 74299.92
4568.502, 74359.39
4570.430, 74265.78
4572.359, 73969.18
4574.287, 74131.60
4576.216, 74259.70
4578.144, 73895.30
4580.073, 73844.13
4582.001, 73920.05
4583.930, 73735.51
4585.858, 73732.58
4587.787, 73869.25
4589.715, 73709.80
4591.644, 73632.98
4593.572, 73772.14
4595.500, 73827.94
4597.429, 73795.05
4599.357, 73641.13
4601.286, 73599.38
4603.214, 73583.55
4605.143, 73434.13
4607.071, 73428.23
4609.000, 73504.00
4610.928, 73348.36
4612.856, 73245.99
4614.785, 73272.80
4616.713, 73329.35
4618.642, 73336.39
4620.570, 73247.31
4622.499, 73113.37
4624.427, 73019.51
4626.356, 73082.20
4628.284, 72939.53
4630.213, 72744.48
4632.141, 72947.50
4634.070, 72896.19
4635.998, 72592.28
4637.927, 72744.25
4639.855, 72866.63
4641.784, 72806.22
4643.712, 72668.67
4645.641, 72525.13
4647.569, 72403.52
4649.498, 72445.15
4651.426, 72535.24
4653.354, 72566.26
4655.283, 72422.00
4657.211, 72198.13
4659.140, 72082.50
4661.068, 72108.33
4662.997, 72215.86
4664.925, 72177.61
4666.854, 72083.77
4668.782, 71970.68
4670.710, 72056.16
4672.639, 72147.93
4674.567, 72141.91
4676.496, 72062.03
4678.424, 71953.41
4680.353, 71840.73
4682.281, 71798.87
4684.210, 71784.34
4686.138, 71699.95
4688.067, 71679.77
4689.995, 71700.63
4691.924, 71659.28
4693.852, 71552.48
4695.781, 71405.23
4697.709, 71329.38
4699.638, 71265.85
4701.566, 71189.79
4703.495, 71156.99
4705.423, 71154.16
4707.352, 71176.66
4709.280, 71093.60
4711.208, 71004.54
4713.137, 71020.70
4715.065, 71010.05
4716.994, 70982.63
4718.922, 70961.13
4720.851, 70938.52
4722.779, 70912.41
4724.708, 70912.34
4726.636, 70773.34
4728.564, 70547.05
4730.493, 70541.20
4732.421, 70574.13
4734.350, 70591.69
4736.278, 70575.65
4738.207, 70516.05
4740.135, 70416.64
4742.064, 70365.47
4743.992, 70333.02
4745.921, 70314.13
4747.849, 70140.58
4749.778, 70002.58
4751.706, 70058.11
4753.635, 70078.04
4755.563, 70011.88
4757.492, 69762.13
4759.420, 69651.77
4761.349, 69646.70
4763.277, 69677.91
4765.206, 69703.78
4767.134, 69674.52
4769.063, 69431.00
4770.991, 69337.80
4772.919, 69407.99
4774.848, 69515.10
4776.776, 69499.71
4778.705, 69367.01
4780.633, 69270.63
4782.562, 69228.88
4784.490, 69232.41
4786.418, 69075.02
4788.347, 68951.52
4790.275, 68931.77
4792.204, 68980.60
4794.132, 68981.02
4796.061, 68858.02
4797.989, 68799.92
4799.918, 68803.03
4801.846, 68869.41
4803.775, 68743.27
4805.703, 68613.98
4807.632, 68697.34
4809.560, 68510.55
4811.489, 68296.00
4813.417, 68318.42
4815.346, 68122.70
4817.274, 67921.53
4819.203, 68065.88
4821.131, 68026.80
4823.060, 67897.30
4824.988, 67858.88
4826.917, 67756.19
4828.845, 67673.86
4830.773, 67820.02
4832.702, 67906.13
4834.630, 67852.41
4836.559, 67496.66
4838.487, 67341.41
4840.416, 67356.42
4842.344, 67355.79
4844.272, 67256.47
4846.201, 67117.95
4848.129, 67159.52
4850.058, 67123.09
4851.986, 67023.11
4853.915, 67032.31
4855.843, 67079.27
4857.772, 67100.66
4859.700, 66865.68
4861.629, 66754.16
4863.557, 66784.94
4865.486, 66774.91
4867.414, 66676.16
4869.343, 66504.51
4871.271, 66342.13
4873.200, 66295.52
4875.128, 66343.80
4877.057, 66291.64
4878.985, 66295.05
4880.914, 66350.12
4882.842, 66168.70
4884.771, 66007.12
4886.699, 65924.50
4888.627, 65861.16
4890.556, 65766.79
4892.484, 65666.16
4894.413, 65854.51
4896.341, 65909.27
4898.270, 65748.01
4900.198, 65513.02
4902.126, 65445.65
4904.055, 65531.80
4905.983, 65393.29
4907.912, 65347.77
4909.840, 65420.82
4911.769, 65250.25
4913.697, 65178.18
4915.626, 65212.40
4917.554, 65058.72
4919.483, 64899.24
4921.411, 64792.60
4923.340, 64830.25
4925.268, 64744.82
4927.197, 64574.09
4929.125, 64717.79
4931.054, 64592.58
4932.982, 64284.80
4934.911, 64544.08
4936.839, 64587.52
4938.768, 64369.74
4940.696, 64121.24
4942.625, 64051.55
4944.553, 64097.66
4946.481, 64056.43
4948.410, 64001.80
4950.338, 63944.30
4952.267, 63890.54
4954.195, 63744.61
4956.124, 63611.89
4958.052, 63766.27
4959.980, 63661.33
4961.909, 63446.77
4963.837, 63403.29
4965.766, 63379.71
4967.694, 63344.06
4969.623, 63271.94
4971.551, 63261.68
4973.480, 63207.47
4975.408, 62925.34
4977.337, 62942.74
4979.265, 63002.43
4981.194, 62889.47
4983.122, 62896.42
4985.051, 62853.34
4986.979, 62616.18
4988.908, 62447.75
4990.836, 62400.75
4992.765, 62485.11
4994.693, 62363.15
4996.622, 62300.50
4998.550, 62378.90
5000.479, 62290.26
5002.407, 62160.20
5004.335, 62038.10
5006.264, 61914.30
5008.192, 61874.32
5010.121, 61893.46
5012.049, 61833.05
5013.978, 61720.13
5015.906, 61591.01
5017.834, 61516.82
5019.763, 61477.66
5021.691, 61447.04
5023.620, 61401.04
5025.548, 61183.44
5027.477, 61002.39
5029.405, 61250.92
5031.334, 61103.55
5033.262, 60898.35
5035.191, 60974.95
5037.119, 60845.04
5039.048, 60646.73
5040.976, 60487.18
5042.905, 60361.39
5044.833, 60266.37
5046.762, 60199.59
5048.690, 60127.71
5050.619, 60114.73
5052.547, 60144.12
5054.476, 60032.96
5056.404, 59988.27
5058.333, 60006.79
5060.261, 59934.50
5062.189, 59891.96
5064.118, 59859.29
5066.046, 59772.45
5067.975, 59625.21
5069.903, 59500.29
5071.832, 59513.02
5073.760, 59345.58
5075.688, 59248.24
5077.617, 59446.20
5079.545, 59159.81
5081.474, 58875.25
5083.402, 58815.33
5085.331, 58916.64
5087.259, 58891.06
5089.188, 58698.18
5091.116, 58563.85
5093.045, 58497.24
5094.973, 58453.72
5096.902, 58326.57
5098.830, 58238.36
5100.759, 58158.57
5102.687, 57994.89
5104.616, 58045.30
5106.544, 58047.46
5108.473, 57766.75
5110.401, 57803.89
5112.330, 57821.16
5114.258, 57670.31
5116.187, 57457.62
5118.115, 57399.19
5120.043, 57491.10
5121.972, 57528.63
5123.900, 57308.61
5125.829, 57005.05
5127.757, 57002.53
5129.686, 56923.14
5131.614, 56828.51
5133.542, 56835.54
5135.471, 56763.79
5137.399, 56669.68
5139.328, 56590.47
5141.256, 56483.42
5143.185, 56341.72
5145.113, 56200.08
5147.042, 56224.57
5148.970, 56191.31
5150.899, 56109.92
5152.827, 56081.72
5154.756, 56079.83
5156.684, 56007.97
5158.613, 55769.04
5160.541, 55749.46
5162.470, 55706.52
5164.398, 55519.66
5166.327, 55410.40
5168.255, 55428.24
5170.184, 55518.32
5172.112, 55464.39
5174.041, 55278.83
5175.969, 55085.29
5177.897, 55062.46
5179.826, 55014.65
5181.754, 55009.68
5183.683, 55125.26
5185.611, 54909.62
5187.540, 54751.98
5189.468, 54770.39
5191.396, 54731.52
5193.325, 54587.71
5195.253, 54408.41
5197.182, 54346.80
5199.110, 54277.00
5201.039, 54195.27
5202.967, 54116.14
5204.896, 53964.21
5206.824, 53873.88
5208.753, 53873.38
5210.681, 53738.16
5212.610, 53615.93
5214.538, 53522.89
5216.467, 53408.40
5218.395, 53386.11
5220.324, 53343.84
5222.252, 53156.52
5224.181, 53018.63
5226.109, 52879.01
5228.038, 52737.19
5229.966, 52739.56
5231.895, 52747.95
5233.823, 52730.14
5235.751, 52709.59
5237.680, 52504.66
5239.608, 52363.99
5241.537, 52508.56
5243.465, 52363.77
5245.394, 52271.82
5247.322, 52285.25
5249.250, 52000.64
5251.179, 51842.31
5253.107, 51811.85
5255.036, 51796.45
5256.964, 51862.28
5258.893, 51894.83
5260.821, 51823.75
5262.750, 51699.65
5264.678, 51548.12
5266.607, 51429.86
5268.535, 51513.29
5270.464, 51538.88
5272.392, 51493.23
5274.321, 51383.55
5276.249, 51285.33
5278.178, 51163.04
5280.106, 51020.34
5282.035, 50971.96
5283.963, 50855.58
5285.892, 50710.36
5287.820, 50621.99
5289.749, 50665.82
5291.677, 50719.17
5293.605, 50708.07
5295.534, 50689.40
5297.462, 50545.30
5299.391, 50336.00
5301.319, 50249.30
5303.248, 50117.46
5305.176, 50037.93
5307.104, 50094.84
5309.033, 49977.43
5310.961, 49866.95
5312.890, 49803.08
5314.818, 49726.73
5316.747, 49547.45
5318.675, 49402.62
5320.604, 49423.70
5322.532, 49531.80
5324.461, 49447.27
5326.389, 49165.30
5328.318, 49017.67
5330.246, 49032.25
5332.175, 49045.61
5334.103, 48884.79
5336.032, 48613.10
5337.960, 48413.82
5339.889, 48353.50
5341.817, 48444.85
5343.746, 48509.96
5345.674, 48491.19
5347.603, 48338.84
5349.531, 48280.78
5351.459, 48142.82
5353.388, 47923.62
5355.316, 47948.32
5357.245, 47861.23
5359.173, 47767.18
5361.102, 47828.66
5363.030, 47759.69
5364.958, 47642.16
5366.887, 47527.02
5368.815, 47449.70
5370.744, 47364.52
5372.672, 47311.94
5374.601, 47338.64
5376.529, 47269.38
5378.458, 47161.71
5380.386, 47038.80
5382.315, 46892.86
5384.243, 46784.09
5386.172, 46735.54
5388.100, 46757.13
5390.029, 46775.79
5391.957, 46697.05
5393.886, 46550.21
5395.814, 46446.99
5397.743, 46328.85
5399.671, 46270.51
5401.600, 46290.38
5403.528, 46163.59
5405.457, 46149.79
5407.385, 46158.32
5409.313, 45966.03
5411.242, 45905.69
5413.170, 45746.48
5415.099, 45477.91
5417.027, 45619.30
5418.956, 45558.00
5420.884, 45357.07
5422.813, 45175.37
5424.741, 45173.89
5426.669, 45038.71
5428.598, 44820.44
5430.526, 44907.65
5432.455, 44824.55
5434.383, 44704.16
5436.312, 44641.39
5438.240, 44543.80
5440.169, 44424.80
5442.097, 44311.37
5444.026, 44231.41
5445.954, 44142.25
5447.883, 44008.69
5449.811, 43879.50
5451.740, 43970.28
5453.668, 43904.18
5455.597, 43789.23
5457.525, 43723.16
5459.454, 43570.18
5461.382, 43478.21
5463.311, 43408.23
5465.239, 43256.50
5467.167, 43287.35
5469.096, 43245.45
5471.024, 43083.49
5472.953, 42959.45
5474.881, 42913.71
5476.810, 42952.41
5478.738, 43043.35
5480.667, 42632.11
5482.595, 42620.43
5484.523, 42782.45
5486.452, 42594.28
5488.380, 42412.25
5490.309, 42387.67
5492.237, 42429.60
5494.166, 42226.62
5496.094, 42213.70
5498.023, 42229.63
5499.951, 42150.64
5501.880, 41889.21
5503.808, 41920.06
5505.737, 42015.09
5507.665, 41902.29
5509.594, 41752.32
5511.522, 41600.52
5513.451, 41455.55
5515.379, 41312.35
5517.308, 41401.73
5519.236, 41367.67
5521.165, 41179.98
5523.093, 41135.12
5525.021, 41079.65
5526.950, 41000.26
5528.878, 40910.07
5530.807, 40893.33
5532.735, 40878.54
5534.664, 40804.01
5536.592, 40631.45
5538.521, 40481.11
5540.449, 40405.50
5542.377, 40383.10
5544.306, 40369.04
5546.234, 40185.93
5548.163, 39985.21
5550.091, 39899.25
5552.020, 40110.66
5553.948, 40048.29
5555.877, 39911.68
5557.805, 39808.08
5559.734, 39736.35
5561.662, 39671.41
5563.591, 39558.31
5565.519, 39403.57
5567.448, 39389.38
5569.376, 39342.18
5571.305, 39274.93
5573.233, 39209.45
5575.162, 39071.02
5577.090, 38922.35
5579.019, 38817.75
5580.947, 38794.78
5582.875, 38883.39
5584.804, 38825.06
5586.732, 38668.64
5588.661, 38555.24
5590.589, 38509.45
5592.518, 38493.24
5594.446, 38443.27
5596.375, 38277.82
5598.303, 38288.48
5600.231, 38200.78
5602.160, 38016.37
5604.088, 37934.65
5606.017, 37863.61
5607.945, 37770.37
5609.874, 37689.69
5611.802, 37780.68
5613.731, 37673.30
5615.659, 37589.21
5617.588, 37584.57
5619.516, 37431.19
5621.445, 37419.04
5623.373, 37367.80
5625.302, 37198.30
5627.230, 36989.00
5629.159, 36994.06
5631.087, 36995.95
5633.016, 36886.31
5634.944, 36807.88
5636.873, 36782.19
5638.801, 36711.34
5640.729, 36573.09
5642.658, 36589.34
5644.586, 36422.37
5646.515, 36262.75
5648.443, 36247.64
5650.372, 36364.99
5652.300, 36268.25
5654.229, 36156.73
5656.157, 36137.40
5658.085, 35887.39
5660.014, 35767.01
5661.942, 35687.66
5663.871, 35607.61
5665.799, 35827.92
5667.728, 35760.42
5669.656, 35572.02
5671.585, 35433.01
5673.513, 35353.45
5675.442, 35384.70
5677.370, 35371.90
5679.299, 35249.30
5681.227, 35157.74
5683.156, 35117.20
5685.084, 35057.72
5687.013, 34944.96
5688.941, 34788.08
5690.870, 34651.65
5692.798, 34642.95
5694.727, 34721.57
5696.655, 34624.12
5698.583, 34592.15
5700.512, 34480.13
5702.440, 34264.31
5704.369, 34075.90
5706.297, 34019.26
5708.226, 33947.89
5710.154, 33865.49
5712.083, 33940.21
5714.011, 33892.04
5715.939, 33771.41
5717.868, 33669.26
5719.796, 33748.14
5721.725, 33497.97
5723.653, 33420.54
5725.582, 33478.61
5727.510, 33415.89
5729.439, 33428.89
5731.367, 33241.92
5733.296, 33050.36
5735.224, 33086.88
5737.153, 32944.21
5739.081, 32959.40
5741.010, 32986.48
5742.938, 32881.92
5744.867, 32795.68
5746.795, 32697.89
5748.724, 32641.48
5750.652, 32610.63
5752.581, 32384.88
5754.509, 32176.48
5756.438, 32151.35
5758.366, 32242.12
5760.294, 32089.60
5762.223, 31952.75
5764.151, 31971.76
5766.080, 31977.96
5768.008, 31611.72
5769.937, 31623.99
5771.865, 31693.90
5773.793, 31626.19
5775.722, 31363.72
5777.650, 31442.38
5779.579, 31416.31
5781.507, 31334.85
5783.436, 31281.89
5785.364, 31152.97
5787.293, 31123.59
5789.221, 31069.89
5791.150, 30978.35
5793.078, 31020.29
5795.007, 30911.18
5796.935, 30864.27
5798.864, 30827.91
5800.792, 30593.10
5802.721, 30531.53
5804.649, 30473.03
5806.578, 30404.73
5808.506, 30351.96
5810.435, 30251.38
5812.363, 30154.50
5814.292, 30196.46
5816.220, 30299.67
5818.148, 29998.72
5820.077, 29797.09
5822.005, 29709.87
5823.934, 29709.84
5825.862, 29767.07
5827.791, 29533.33
5829.719, 29441.40
5831.647, 29416.29
5833.576, 29324.75
5835.504, 29325.45
5837.433, 29384.44
5839.361, 29261.55
5841.290, 29041.04
5843.218, 29217.57
5845.147, 29137.93
5847.075, 29004.67
5849.004, 28861.19
5850.932, 28673.41
5852.861, 28714.91
5854.789, 28788.47
5856.718, 28766.89
5858.646, 28608.69
5860.575, 28316.43
5862.503, 28278.48
5864.432, 28274.62
5866.360, 28217.08
5868.289, 28114.40
5870.217, 28188.68
5872.146, 28152.10
5874.074, 28026.64
5876.002, 27895.60
5877.931, 27829.85
5879.859, 27611.91
5881.788, 27589.42
5883.716, 27687.35
5885.645, 27563.75
5887.573, 27428.90
5889.501, 27269.79
5891.430, 27234.06
5893.358, 27342.83
5895.287, 27227.26
5897.215, 27166.86
5899.144, 27146.68
5901.072, 27103.79
5903.001, 26989.53
5904.929, 26936.30
5906.858, 26871.42
5908.786, 26728.82
5910.715, 26562.52
5912.643, 26677.89
5914.572, 26647.12
5916.500, 26555.37
5918.429, 26468.26
5920.357, 26408.42
5922.286, 26389.25
5924.214, 26304.01
5926.143, 26214.78
5928.071, 26133.56
5930.000, 25953.80
5931.928, 25958.99
5933.856, 25904.39
5935.785, 25829.47
5937.713, 25811.42
5939.642, 25701.49
5941.570, 25645.57
5943.499, 25637.38
5945.427, 25615.92
5947.355, 25498.63
5949.284, 25515.38
5951.212, 25344.64
5953.141, 25231.42
5955.069, 25252.81
5956.998, 25143.60
5958.926, 25110.64
5960.855, 25119.87
5962.783, 25038.61
5964.712, 24822.72
5966.640, 24770.73
5968.569, 24614.11
5970.497, 24577.96
5972.426, 24628.18
5974.354, 24602.42
5976.283, 24489.84
5978.211, 24373.61
5980.140, 24361.05
5982.068, 24397.20
5983.997, 24320.46
5985.925, 24308.00
5987.854, 24137.25
5989.782, 24049.06
5991.710, 24088.13
5993.639, 23908.35
5995.567, 23728.12
5997.496, 23795.69
5999.424, 23839.98
6001.353, 23668.25
6003.281, 23537.93
6005.209, 23482.66
6007.138, 23430.84
6009.066, 23433.80
6010.995, 23505.80
6012.923, 23355.02
6014.852, 23323.12
6016.780, 23191.91
6018.709, 23073.62
6020.637, 23150.08
6022.566, 23038.15
6024.494, 23014.35
6026.423, 22924.58
6028.351, 22792.80
6030.280, 22750.53
6032.208, 22735.57
6034.137, 22747.52
6036.065, 22596.06
6037.994, 22427.87
6039.922, 22528.01
6041.851, 22310.71
6043.779, 22247.79
6045.708, 22286.47
6047.636, 22292.62
6049.564, 22184.38
6051.493, 22198.07
6053.421, 22033.00
6055.350, 21882.01
6057.278, 21861.92
6059.207, 21934.53
6061.135, 21847.78
6063.063, 21786.97
6064.992, 21664.34
6066.920, 21525.53
6068.849, 21522.95
6070.777, 21468.63
6072.706, 21430.89
6074.634, 21426.82
6076.563, 21422.57
6078.491, 21367.24
6080.420, 21231.68
6082.348, 21167.77
6084.277, 21130.30
6086.205, 21076.63
6088.134, 20993.88
6090.062, 20854.38
6091.991, 20824.07
6093.919, 20769.97
6095.848, 20671.49
6097.776, 20585.40
6099.705, 20554.59
6101.633, 20464.95
6103.562, 20530.48
6105.490, 20601.16
6107.418, 20496.26
6109.347, 20372.68
6111.275, 20267.59
6113.204, 20182.49
6115.132, 20106.25
6117.061, 20032.35
6118.989, 19963.97
6120.917, 20000.48
6122.846, 19929.07
6124.774, 19866.40
6126.703, 19837.37
6128.631, 19685.54
6130.560, 19715.47
6132.488, 19633.66
6134.417, 19520.68
6136.345, 19503.18
6138.274, 19606.81
6140.202, 19481.83
6142.131, 19361.21
6144.059, 19310.48
6145.988, 19241.98
6147.916, 19110.43
6149.845, 19140.10
6151.773, 19091.84
6153.702, 18999.60
6155.630, 18926.61
6157.559, 18884.20
6159.487, 18821.96
6161.416, 18725.22
6163.344, 18771.11
6165.272, 18672.13
6167.201, 18476.81
6169.129, 18458.64
6171.058, 18459.70
6172.986, 18359.22
6174.915, 18273.01
6176.843, 18241.40
6178.771, 18222.85
6180.700, 18116.34
6182.628, 18224.02
6184.557, 18115.59
6186.485, 17953.25
6188.414, 17928.56
6190.342, 18041.37
6192.271, 17928.58
6194.199, 17861.82
6196.128, 17760.69
6198.056, 17668.49
6199.985, 17629.51
6201.913, 17502.28
6203.842, 17461.43
6205.770, 17493.95
6207.699, 17474.48
6209.627, 17368.58
6211.556, 17236.45
6213.484, 17209.73
6215.413, 17193.45
6217.341, 17092.09
6219.270, 16999.45
6221.198, 16996.35
6223.126, 17030.90
6225.055, 17001.49
6226.983, 16890.72
6228.912, 16827.36
6230.840, 16805.72
6232.769, 16751.32
6234.697, 16736.36
6236.625, 16618.56
6238.554, 16605.03
6240.482, 16565.14
6242.411, 16449.50
6244.339, 16380.17
6246.268, 16322.69
6248.196, 16314.32
6250.125, 16290.00
6252.053, 16253.23
6253.982, 16219.04
6255.910, 16170.45
6257.839, 16163.24
6259.767, 16113.51
6261.696, 15983.94
6263.624, 15883.08
6265.553, 15883.39
6267.481, 15859.55
6269.410, 15706.36
6271.338, 15708.21
6273.267, 15734.13
6275.195, 15699.90
6277.124, 15633.35
6279.052, 15593.22
6280.980, 15556.89
6282.909, 15530.98
6284.837, 15520.37
6286.766, 15462.85
6288.694, 15318.69
6290.623, 15327.05
6292.551, 15247.40
6294.479, 15180.89
6296.408, 15100.59
6298.336, 15068.33
6300.265, 15168.80
6302.193, 15060.18
6304.122, 15002.19
6306.050, 14901.64
6307.979, 14825.48
6309.907, 14809.52
6311.836, 14812.63
6313.764, 14707.09
6315.693, 14771.18
6317.621, 14707.53
6319.550, 14617.93
6321.478, 14622.99
6323.407, 14670.88
6325.335, 14428.04
6327.264, 14537.46
6329.192, 14426.10
6331.121, 14415.10
6333.049, 14430.16
6334.978, 14240.29
6336.906, 14213.44
6338.834, 14197.30
6340.763, 14218.14
6342.691, 14141.77
6344.620, 14056.05
6346.548, 14045.48
6348.477, 13954.55
6350.405, 13979.46
6352.333, 13922.86
6354.262, 13936.16
6356.190, 13945.64
6358.119, 13878.45
6360.047, 13807.63
6361.976, 13725.37
6363.904, 13602.59
6365.833, 13631.42
6367.761, 13638.68
6369.690, 13606.80
6371.618, 13651.58
6373.547, 13443.68
6375.475, 13469.12
6377.404, 13378.83
6379.332, 13434.04
6381.261, 13458.37
6383.189, 13268.49
6385.118, 13249.64
6387.046, 13229.90
6388.975, 13203.13
6390.903, 13129.14
6392.832, 13083.91
6394.760, 13073.12
6396.688, 13007.78
6398.617, 12911.96
6400.545, 13058.72
6402.474, 12960.11
6404.402, 12844.99
6406.331, 12793.75
6408.259, 12756.55
6410.188, 12857.80
6412.116, 12690.17
6414.044, 12654.13
6415.973, 12636.37
6417.901, 12609.04
6419.830, 12549.28
6421.758, 12446.42
6423.687, 12447.45
6425.615, 12564.84
6427.544, 12455.71
6429.472, 12334.72
6431.401, 12253.24
6433.329, 12208.78
6435.258, 12259.62
6437.186, 12202.32
6439.115, 12198.65
6441.043, 12118.95
6442.972, 12039.69
6444.900, 12036.32
6446.829, 12067.87
6448.757, 12002.01
6450.686, 12020.24
6452.614, 11882.40
6454.542, 11836.33
6456.471, 11836.48
6458.399, 11791.22
6460.328, 11726.21
6462.256, 11757.21
6464.185, 11738.71
6466.113, 11643.72
6468.042, 11676.52
6469.970, 11632.97
6471.898, 11531.29
6473.827, 11508.51
6475.755, 11490.68
6477.684, 11542.27
6479.612, 11512.38
6481.541, 11464.94
6483.469, 11348.97
6485.398, 11289.64
6487.326, 11338.70
6489.255, 11259.20
6491.183, 11239.24
6493.112, 11227.71
6495.040, 11203.47
6496.969, 11246.09
6498.897, 11217.93
6500.826, 11061.92
6502.754, 10999.43
6504.683, 11088.89
6506.611, 11023.07
6508.540, 11057.76
6510.468, 10956.69
6512.396, 10869.93
6514.325, 10896.62
6516.253, 10866.61
6518.182, 10750.87
6520.110, 10737.32
6522.039, 10710.95
6523.967, 10674.22
6525.896, 10669.96
6527.824, 10677.13
6529.752, 10635.12
6531.681, 10539.98
6533.609, 10553.11
6535.538, 10636.63
6537.466, 10456.60
6539.395, 10367.95
6541.323, 10425.71
6543.252, 10437.00
6545.180, 10319.67
6547.109, 10283.57
6549.037, 10297.34
6550.966, 10359.48
6552.894, 10159.07
6554.823, 10021.71
6556.751, 9958.454
6558.680, 9868.065
##END=



