##NAMES=Hingganite-(Y)
##RRUFFID=R120171
##IDEAL CHEMISTRY=BeY(SiO_4_)(OH)
##LOCALITY=Zagi Mountain, Hameed Abad Kafoor Dheri, Peshawar, Khyber Pakhtunkhwa, Pakistan
##OWNER=RRUFF
##SOURCE=Ikram Mineralogy
##DESCRIPTION=Dark green to brown, dependent on light source, prismatic single crystal
##STATUS=The identification of this mineral is confirmed by single-crystal X-ray diffraction and chemical analysis
##URL=https://www.rruff.net/odr/rruff_sample/R120171
##MEASURED CHEMISTRY=Be(Y_0.490_La_0.004_Ca_0.034_Pr_0.009_Nd_0.072_Sm_0.055_Eu_0.103_Gd_0.015_Tb_0.089_Dy_0.012_Ho_0.023_Er_0.002_Tm_0.017_Yb_0.014_Lu_0.001_Fe_0.037_Ca_0.006_)(SiO_4_)(OH) ; H and Be assumed
##DIFFRACTION SAMPLE DESCRIPTION=Single crystal, powder profile is calculated
##CELL PARAMETERS=a: 4.707 b: 7.551 c: 9.79 alpha: 90 beta: 91.14 gamma: 90 volume: 347.9 crystal system: monoclinic
##FILETYPE=Raman RAW
##RAMAN WAVELENGTH=780

7.826855e+001, 1.128454e+002
8.019702e+001, 1.009374e+002
8.212549e+001, 9.648000e+001
8.405396e+001, 1.019314e+002
8.598242e+001, 1.132684e+002
8.791089e+001, 1.242547e+002
8.983936e+001, 1.349286e+002
9.176782e+001, 1.492344e+002
9.369629e+001, 1.645366e+002
9.562476e+001, 1.684982e+002
9.755322e+001, 1.696821e+002
9.948169e+001, 1.694390e+002
1.014102e+002, 1.684762e+002
1.033386e+002, 1.669180e+002
1.052671e+002, 1.662045e+002
1.071956e+002, 1.667901e+002
1.091240e+002, 1.674121e+002
1.110525e+002, 1.675479e+002
1.129810e+002, 1.674522e+002
1.149094e+002, 1.671127e+002
1.168379e+002, 1.664158e+002
1.187664e+002, 1.670301e+002
1.206948e+002, 1.696104e+002
1.226233e+002, 1.728321e+002
1.245518e+002, 1.768277e+002
1.264802e+002, 1.809683e+002
1.284087e+002, 1.843084e+002
1.303372e+002, 1.868319e+002
1.322656e+002, 1.901288e+002
1.341941e+002, 1.952039e+002
1.361226e+002, 1.999342e+002
1.380510e+002, 2.042365e+002
1.399795e+002, 2.076625e+002
1.419080e+002, 2.095789e+002
1.438364e+002, 2.100642e+002
1.457649e+002, 2.109754e+002
1.476934e+002, 2.121021e+002
1.496218e+002, 2.141416e+002
1.515503e+002, 2.177544e+002
1.534788e+002, 2.218932e+002
1.554072e+002, 2.251175e+002
1.573357e+002, 2.277577e+002
1.592642e+002, 2.330074e+002
1.611926e+002, 2.429278e+002
1.631211e+002, 2.527134e+002
1.650496e+002, 2.617359e+002
1.669780e+002, 2.708911e+002
1.689065e+002, 2.815817e+002
1.708350e+002, 2.929291e+002
1.727634e+002, 3.016679e+002
1.746919e+002, 3.082479e+002
1.766204e+002, 3.108362e+002
1.785488e+002, 3.093489e+002
1.804773e+002, 3.038112e+002
1.824058e+002, 2.925063e+002
1.843342e+002, 2.779186e+002
1.862627e+002, 2.637259e+002
1.881912e+002, 2.495392e+002
1.901196e+002, 2.375440e+002
1.920481e+002, 2.277017e+002
1.939766e+002, 2.199632e+002
1.959050e+002, 2.142657e+002
1.978335e+002, 2.108378e+002
1.997620e+002, 2.104853e+002
2.016904e+002, 2.132959e+002
2.036189e+002, 2.168870e+002
2.055474e+002, 2.214688e+002
2.074758e+002, 2.260611e+002
2.094043e+002, 2.300424e+002
2.113328e+002, 2.343891e+002
2.132612e+002, 2.403828e+002
2.151897e+002, 2.472829e+002
2.171182e+002, 2.519687e+002
2.190466e+002, 2.541027e+002
2.209751e+002, 2.567918e+002
2.229036e+002, 2.611673e+002
2.248320e+002, 2.648822e+002
2.267605e+002, 2.652065e+002
2.286890e+002, 2.653445e+002
2.306174e+002, 2.706367e+002
2.325459e+002, 2.810860e+002
2.344744e+002, 2.886327e+002
2.364028e+002, 2.917314e+002
2.383313e+002, 2.961652e+002
2.402598e+002, 3.036644e+002
2.421882e+002, 3.134001e+002
2.441167e+002, 3.256661e+002
2.460452e+002, 3.398353e+002
2.479736e+002, 3.537885e+002
2.499021e+002, 3.674886e+002
2.518306e+002, 3.816467e+002
2.537590e+002, 3.961243e+002
2.556875e+002, 4.115566e+002
2.576160e+002, 4.293355e+002
2.595444e+002, 4.472550e+002
2.614729e+002, 4.618493e+002
2.634014e+002, 4.740670e+002
2.653298e+002, 4.886415e+002
2.672583e+002, 5.065277e+002
2.691868e+002, 5.242897e+002
2.711152e+002, 5.410479e+002
2.730437e+002, 5.576606e+002
2.749722e+002, 5.746158e+002
2.769006e+002, 5.916284e+002
2.788291e+002, 6.087021e+002
2.807576e+002, 6.256998e+002
2.826860e+002, 6.404385e+002
2.846145e+002, 6.525823e+002
2.865430e+002, 6.623112e+002
2.884714e+002, 6.692908e+002
2.903999e+002, 6.744083e+002
2.923284e+002, 6.794923e+002
2.942568e+002, 6.826016e+002
2.961853e+002, 6.796138e+002
2.981138e+002, 6.699008e+002
3.000422e+002, 6.600760e+002
3.019707e+002, 6.508683e+002
3.038992e+002, 6.417363e+002
3.058276e+002, 6.313825e+002
3.077561e+002, 6.220892e+002
3.096846e+002, 6.157070e+002
3.116130e+002, 6.118763e+002
3.135415e+002, 6.104113e+002
3.154700e+002, 6.117542e+002
3.173984e+002, 6.137297e+002
3.193269e+002, 6.171855e+002
3.212554e+002, 6.197870e+002
3.231838e+002, 6.186166e+002
3.251123e+002, 6.183761e+002
3.270408e+002, 6.241913e+002
3.289692e+002, 6.338750e+002
3.308977e+002, 6.401440e+002
3.328262e+002, 6.396908e+002
3.347546e+002, 6.446897e+002
3.366831e+002, 6.586293e+002
3.386116e+002, 6.728554e+002
3.405400e+002, 6.830110e+002
3.424685e+002, 6.946667e+002
3.443970e+002, 7.121683e+002
3.463254e+002, 7.342892e+002
3.482539e+002, 7.569304e+002
3.501824e+002, 7.801136e+002
3.521108e+002, 8.036371e+002
3.540393e+002, 8.256970e+002
3.559678e+002, 8.513039e+002
3.578962e+002, 8.811471e+002
3.598247e+002, 9.162802e+002
3.617532e+002, 9.560827e+002
3.636816e+002, 1.001455e+003
3.656101e+002, 1.054232e+003
3.675386e+002, 1.114643e+003
3.694670e+002, 1.184052e+003
3.713955e+002, 1.264240e+003
3.733240e+002, 1.348439e+003
3.752524e+002, 1.439855e+003
3.771809e+002, 1.528191e+003
3.791094e+002, 1.609838e+003
3.810378e+002, 1.683867e+003
3.829663e+002, 1.750179e+003
3.848948e+002, 1.808172e+003
3.868232e+002, 1.850806e+003
3.887517e+002, 1.879989e+003
3.906802e+002, 1.886663e+003
3.926086e+002, 1.863691e+003
3.945371e+002, 1.825921e+003
3.964656e+002, 1.778653e+003
3.983940e+002, 1.722522e+003
4.003225e+002, 1.654117e+003
4.022510e+002, 1.576880e+003
4.041794e+002, 1.506477e+003
4.061079e+002, 1.442863e+003
4.080364e+002, 1.380094e+003
4.099648e+002, 1.314941e+003
4.118933e+002, 1.256974e+003
4.138218e+002, 1.211092e+003
4.157502e+002, 1.171302e+003
4.176787e+002, 1.136301e+003
4.196072e+002, 1.104279e+003
4.215356e+002, 1.070442e+003
4.234641e+002, 1.036128e+003
4.253926e+002, 1.010375e+003
4.273210e+002, 9.948610e+002
4.292495e+002, 9.809110e+002
4.311780e+002, 9.672864e+002
4.331064e+002, 9.540028e+002
4.350349e+002, 9.398297e+002
4.369634e+002, 9.271960e+002
4.388918e+002, 9.202617e+002
4.408203e+002, 9.157992e+002
4.427488e+002, 9.061976e+002
4.446772e+002, 8.918965e+002
4.466057e+002, 8.783970e+002
4.485342e+002, 8.672410e+002
4.504626e+002, 8.540975e+002
4.523911e+002, 8.336754e+002
4.543196e+002, 8.171889e+002
4.562480e+002, 8.125597e+002
4.581765e+002, 8.108156e+002
4.601050e+002, 8.009767e+002
4.620334e+002, 7.879803e+002
4.639619e+002, 7.830201e+002
4.658904e+002, 7.865200e+002
4.678188e+002, 7.881677e+002
4.697473e+002, 7.862345e+002
4.716758e+002, 7.837467e+002
4.736042e+002, 7.782798e+002
4.755327e+002, 7.758270e+002
4.774612e+002, 7.806490e+002
4.793896e+002, 7.879988e+002
4.813181e+002, 7.940267e+002
4.832466e+002, 7.990914e+002
4.851750e+002, 8.042811e+002
4.871035e+002, 8.098501e+002
4.890320e+002, 8.124014e+002
4.909604e+002, 8.073319e+002
4.928889e+002, 8.065797e+002
4.948174e+002, 8.160184e+002
4.967458e+002, 8.221465e+002
4.986743e+002, 8.153268e+002
5.006028e+002, 8.085609e+002
5.025313e+002, 8.137601e+002
5.044597e+002, 8.244033e+002
5.063882e+002, 8.296740e+002
5.083167e+002, 8.296007e+002
5.102451e+002, 8.261740e+002
5.121736e+002, 8.164165e+002
5.141021e+002, 8.111165e+002
5.160305e+002, 8.143091e+002
5.179590e+002, 8.137010e+002
5.198875e+002, 8.025994e+002
5.218159e+002, 7.909991e+002
5.237444e+002, 7.871623e+002
5.256729e+002, 7.841522e+002
5.276013e+002, 7.732863e+002
5.295298e+002, 7.567642e+002
5.314583e+002, 7.430172e+002
5.333867e+002, 7.323807e+002
5.353152e+002, 7.234113e+002
5.372437e+002, 7.171575e+002
5.391721e+002, 7.082299e+002
5.411006e+002, 6.937097e+002
5.430291e+002, 6.802225e+002
5.449575e+002, 6.729524e+002
5.468860e+002, 6.651243e+002
5.488145e+002, 6.518087e+002
5.507429e+002, 6.358672e+002
5.526714e+002, 6.199606e+002
5.545999e+002, 6.049315e+002
5.565283e+002, 5.972611e+002
5.584568e+002, 5.969539e+002
5.603853e+002, 5.922697e+002
5.623137e+002, 5.813107e+002
5.642422e+002, 5.703940e+002
5.661707e+002, 5.590810e+002
5.680991e+002, 5.518573e+002
5.700276e+002, 5.523923e+002
5.719561e+002, 5.547894e+002
5.738845e+002, 5.553458e+002
5.758130e+002, 5.552420e+002
5.777415e+002, 5.559641e+002
5.796699e+002, 5.575015e+002
5.815984e+002, 5.595526e+002
5.835269e+002, 5.621579e+002
5.854553e+002, 5.662975e+002
5.873838e+002, 5.722495e+002
5.893123e+002, 5.787350e+002
5.912407e+002, 5.855755e+002
5.931692e+002, 5.928173e+002
5.950977e+002, 5.994587e+002
5.970261e+002, 6.077682e+002
5.989546e+002, 6.195319e+002
6.008831e+002, 6.331147e+002
6.028115e+002, 6.476044e+002
6.047400e+002, 6.622400e+002
6.066685e+002, 6.751659e+002
6.085969e+002, 6.868063e+002
6.105254e+002, 7.004518e+002
6.124539e+002, 7.171526e+002
6.143823e+002, 7.271600e+002
6.163108e+002, 7.246102e+002
6.182393e+002, 7.250072e+002
6.201677e+002, 7.338168e+002
6.220962e+002, 7.406004e+002
6.240247e+002, 7.418016e+002
6.259531e+002, 7.403086e+002
6.278816e+002, 7.378962e+002
6.298101e+002, 7.338503e+002
6.317385e+002, 7.271997e+002
6.336670e+002, 7.184882e+002
6.355955e+002, 7.080093e+002
6.375239e+002, 6.960530e+002
6.394524e+002, 6.863927e+002
6.413809e+002, 6.802766e+002
6.433093e+002, 6.722513e+002
6.452378e+002, 6.593060e+002
6.471663e+002, 6.494909e+002
6.490947e+002, 6.449194e+002
6.510232e+002, 6.409734e+002
6.529517e+002, 6.362068e+002
6.548801e+002, 6.318218e+002
6.568086e+002, 6.279235e+002
6.587371e+002, 6.253358e+002
6.606655e+002, 6.246011e+002
6.625940e+002, 6.256509e+002
6.645225e+002, 6.295308e+002
6.664509e+002, 6.352890e+002
6.683794e+002, 6.373669e+002
6.703079e+002, 6.353123e+002
6.722363e+002, 6.346427e+002
6.741648e+002, 6.364851e+002
6.760933e+002, 6.352111e+002
6.780217e+002, 6.296691e+002
6.799502e+002, 6.233394e+002
6.818787e+002, 6.164597e+002
6.838071e+002, 6.101095e+002
6.857356e+002, 6.063377e+002
6.876641e+002, 6.009148e+002
6.895925e+002, 5.922762e+002
6.915210e+002, 5.802801e+002
6.934495e+002, 5.622133e+002
6.953779e+002, 5.423094e+002
6.973064e+002, 5.286376e+002
6.992349e+002, 5.193964e+002
7.011633e+002, 5.069827e+002
7.030918e+002, 4.915652e+002
7.050203e+002, 4.798974e+002
7.069487e+002, 4.723322e+002
7.088772e+002, 4.616894e+002
7.108057e+002, 4.462372e+002
7.127341e+002, 4.335790e+002
7.146626e+002, 4.265275e+002
7.165911e+002, 4.192634e+002
7.185195e+002, 4.100337e+002
7.204480e+002, 3.999826e+002
7.223765e+002, 3.897061e+002
7.243049e+002, 3.785488e+002
7.262334e+002, 3.655129e+002
7.281619e+002, 3.519145e+002
7.300903e+002, 3.391541e+002
7.320188e+002, 3.267384e+002
7.339473e+002, 3.138539e+002
7.358757e+002, 3.006277e+002
7.378042e+002, 2.867728e+002
7.397327e+002, 2.728564e+002
7.416611e+002, 2.624440e+002
7.435896e+002, 2.556586e+002
7.455181e+002, 2.478768e+002
7.474465e+002, 2.382160e+002
7.493750e+002, 2.298356e+002
7.513035e+002, 2.234703e+002
7.532319e+002, 2.178053e+002
7.551604e+002, 2.130798e+002
7.570889e+002, 2.082912e+002
7.590173e+002, 2.023013e+002
7.609458e+002, 1.974546e+002
7.628743e+002, 1.959822e+002
7.648027e+002, 1.946387e+002
7.667312e+002, 1.912841e+002
7.686597e+002, 1.868462e+002
7.705881e+002, 1.811724e+002
7.725166e+002, 1.758157e+002
7.744451e+002, 1.733043e+002
7.763735e+002, 1.724505e+002
7.783020e+002, 1.710645e+002
7.802305e+002, 1.689622e+002
7.821589e+002, 1.647861e+002
7.840874e+002, 1.583601e+002
7.860159e+002, 1.548793e+002
7.879443e+002, 1.553839e+002
7.898728e+002, 1.552605e+002
7.918013e+002, 1.547020e+002
7.937297e+002, 1.530301e+002
7.956582e+002, 1.496240e+002
7.975867e+002, 1.463482e+002
7.995151e+002, 1.429114e+002
8.014436e+002, 1.407143e+002
8.033721e+002, 1.414280e+002
8.053005e+002, 1.410654e+002
8.072290e+002, 1.369557e+002
8.091575e+002, 1.327941e+002
8.110859e+002, 1.305095e+002
8.130144e+002, 1.292765e+002
8.149429e+002, 1.293366e+002
8.168713e+002, 1.292840e+002
8.187998e+002, 1.272804e+002
8.207283e+002, 1.247009e+002
8.226567e+002, 1.236607e+002
8.245852e+002, 1.234891e+002
8.265137e+002, 1.227482e+002
8.284421e+002, 1.215432e+002
8.303706e+002, 1.202260e+002
8.322991e+002, 1.188130e+002
8.342275e+002, 1.173422e+002
8.361560e+002, 1.157996e+002
8.380845e+002, 1.155661e+002
8.400129e+002, 1.167290e+002
8.419414e+002, 1.175042e+002
8.438699e+002, 1.176899e+002
8.457983e+002, 1.185479e+002
8.477268e+002, 1.203769e+002
8.496553e+002, 1.220672e+002
8.515837e+002, 1.234651e+002
8.535122e+002, 1.244469e+002
8.554407e+002, 1.246860e+002
8.573691e+002, 1.252007e+002
8.592976e+002, 1.260362e+002
8.612261e+002, 1.276645e+002
8.631545e+002, 1.313066e+002
8.650830e+002, 1.342037e+002
8.670115e+002, 1.350669e+002
8.689399e+002, 1.350717e+002
8.708684e+002, 1.343203e+002
8.727969e+002, 1.336415e+002
8.747253e+002, 1.337231e+002
8.766538e+002, 1.340904e+002
8.785823e+002, 1.342380e+002
8.805107e+002, 1.344776e+002
8.824392e+002, 1.349621e+002
8.843677e+002, 1.359502e+002
8.862961e+002, 1.375264e+002
8.882246e+002, 1.400631e+002
8.901531e+002, 1.449290e+002
8.920815e+002, 1.509671e+002
8.940100e+002, 1.556609e+002
8.959385e+002, 1.593902e+002
8.978669e+002, 1.633841e+002
8.997954e+002, 1.675103e+002
9.017239e+002, 1.711466e+002
9.036523e+002, 1.742642e+002
9.055808e+002, 1.766804e+002
9.075093e+002, 1.784009e+002
9.094377e+002, 1.806285e+002
9.113662e+002, 1.835223e+002
9.132947e+002, 1.856726e+002
9.152231e+002, 1.865164e+002
9.171516e+002, 1.889448e+002
9.190801e+002, 1.935746e+002
9.210085e+002, 1.983460e+002
9.229370e+002, 2.043860e+002
9.248655e+002, 2.082119e+002
9.267939e+002, 2.099035e+002
9.287224e+002, 2.091512e+002
9.306509e+002, 2.052839e+002
9.325793e+002, 2.003638e+002
9.345078e+002, 1.950010e+002
9.364363e+002, 1.876657e+002
9.383647e+002, 1.765801e+002
9.402932e+002, 1.669132e+002
9.422217e+002, 1.604585e+002
9.441501e+002, 1.542761e+002
9.460786e+002, 1.462125e+002
9.480071e+002, 1.412126e+002
9.499355e+002, 1.428291e+002
9.518640e+002, 1.441765e+002
9.537925e+002, 1.417535e+002
9.557209e+002, 1.396265e+002
9.576494e+002, 1.395531e+002
9.595779e+002, 1.405163e+002
9.615063e+002, 1.427854e+002
9.634348e+002, 1.447583e+002
9.653633e+002, 1.457479e+002
9.672917e+002, 1.459443e+002
9.692202e+002, 1.445642e+002
9.711487e+002, 1.435810e+002
9.730771e+002, 1.446713e+002
9.750056e+002, 1.459840e+002
9.769341e+002, 1.469613e+002
9.788625e+002, 1.467605e+002
9.807910e+002, 1.434809e+002
9.827195e+002, 1.402265e+002
9.846479e+002, 1.399996e+002
9.865764e+002, 1.405529e+002
9.885049e+002, 1.401441e+002
9.904333e+002, 1.391657e+002
9.923618e+002, 1.369981e+002
9.942903e+002, 1.355390e+002
9.962188e+002, 1.376585e+002
9.981472e+002, 1.406702e+002
1.000076e+003, 1.419548e+002
1.002004e+003, 1.420869e+002
1.003933e+003, 1.408888e+002
1.005861e+003, 1.397615e+002
1.007790e+003, 1.409343e+002
1.009718e+003, 1.426958e+002
1.011646e+003, 1.428978e+002
1.013575e+003, 1.423524e+002
1.015503e+003, 1.413762e+002
1.017432e+003, 1.409689e+002
1.019360e+003, 1.432988e+002
1.021289e+003, 1.462691e+002
1.023217e+003, 1.465005e+002
1.025146e+003, 1.461208e+002
1.027074e+003, 1.484514e+002
1.029003e+003, 1.515721e+002
1.030931e+003, 1.526445e+002
1.032860e+003, 1.531249e+002
1.034788e+003, 1.550477e+002
1.036717e+003, 1.575058e+002
1.038645e+003, 1.586252e+002
1.040573e+003, 1.601263e+002
1.042502e+003, 1.656609e+002
1.044430e+003, 1.716368e+002
1.046359e+003, 1.725965e+002
1.048287e+003, 1.721492e+002
1.050216e+003, 1.746133e+002
1.052144e+003, 1.785646e+002
1.054073e+003, 1.829306e+002
1.056001e+003, 1.871116e+002
1.057930e+003, 1.900854e+002
1.059858e+003, 1.927599e+002
1.061787e+003, 1.962962e+002
1.063715e+003, 2.000265e+002
1.065644e+003, 2.028630e+002
1.067572e+003, 2.058082e+002
1.069500e+003, 2.099684e+002
1.071429e+003, 2.147629e+002
1.073357e+003, 2.202601e+002
1.075286e+003, 2.253363e+002
1.077214e+003, 2.287490e+002
1.079143e+003, 2.314000e+002
1.081071e+003, 2.327032e+002
1.083000e+003, 2.353338e+002
1.084928e+003, 2.430456e+002
1.086857e+003, 2.513119e+002
1.088785e+003, 2.565703e+002
1.090714e+003, 2.608717e+002
1.092642e+003, 2.645685e+002
1.094571e+003, 2.693682e+002
1.096499e+003, 2.779566e+002
1.098427e+003, 2.859445e+002
1.100356e+003, 2.882347e+002
1.102284e+003, 2.924238e+002
1.104213e+003, 3.055194e+002
1.106141e+003, 3.176150e+002
1.108070e+003, 3.212332e+002
1.109998e+003, 3.265125e+002
1.111927e+003, 3.400569e+002
1.113855e+003, 3.527997e+002
1.115784e+003, 3.606734e+002
1.117712e+003, 3.682217e+002
1.119641e+003, 3.758700e+002
1.121569e+003, 3.852095e+002
1.123498e+003, 3.969265e+002
1.125426e+003, 4.099973e+002
1.127354e+003, 4.252002e+002
1.129283e+003, 4.394348e+002
1.131211e+003, 4.511528e+002
1.133140e+003, 4.641276e+002
1.135068e+003, 4.794983e+002
1.136997e+003, 4.947918e+002
1.138925e+003, 5.099009e+002
1.140854e+003, 5.237233e+002
1.142782e+003, 5.349977e+002
1.144711e+003, 5.502352e+002
1.146639e+003, 5.710765e+002
1.148568e+003, 5.900326e+002
1.150496e+003, 6.059654e+002
1.152425e+003, 6.254752e+002
1.154353e+003, 6.492435e+002
1.156281e+003, 6.709257e+002
1.158210e+003, 6.902531e+002
1.160138e+003, 7.147052e+002
1.162067e+003, 7.440402e+002
1.163995e+003, 7.709343e+002
1.165924e+003, 7.961868e+002
1.167852e+003, 8.265726e+002
1.169781e+003, 8.615355e+002
1.171709e+003, 8.990433e+002
1.173638e+003, 9.385875e+002
1.175566e+003, 9.775741e+002
1.177495e+003, 1.018229e+003
1.179423e+003, 1.066342e+003
1.181352e+003, 1.118636e+003
1.183280e+003, 1.171236e+003
1.185208e+003, 1.223348e+003
1.187137e+003, 1.270992e+003
1.189065e+003, 1.321065e+003
1.190994e+003, 1.379514e+003
1.192922e+003, 1.444006e+003
1.194851e+003, 1.516679e+003
1.196779e+003, 1.588728e+003
1.198708e+003, 1.652076e+003
1.200636e+003, 1.718389e+003
1.202565e+003, 1.791322e+003
1.204493e+003, 1.873760e+003
1.206422e+003, 1.967415e+003
1.208350e+003, 2.069220e+003
1.210279e+003, 2.177092e+003
1.212207e+003, 2.295071e+003
1.214135e+003, 2.422451e+003
1.216064e+003, 2.567436e+003
1.217992e+003, 2.731617e+003
1.219921e+003, 2.910741e+003
1.221849e+003, 3.103349e+003
1.223778e+003, 3.326322e+003
1.225706e+003, 3.581212e+003
1.227635e+003, 3.872712e+003
1.229563e+003, 4.199814e+003
1.231492e+003, 4.545215e+003
1.233420e+003, 4.911955e+003
1.235349e+003, 5.320164e+003
1.237277e+003, 5.761104e+003
1.239206e+003, 6.215684e+003
1.241134e+003, 6.677926e+003
1.243063e+003, 7.140328e+003
1.244991e+003, 7.599930e+003
1.246919e+003, 8.067644e+003
1.248848e+003, 8.513751e+003
1.250776e+003, 8.910719e+003
1.252705e+003, 9.269113e+003
1.254633e+003, 9.603318e+003
1.256562e+003, 9.891340e+003
1.258490e+003, 1.010834e+004
1.260419e+003, 1.029766e+004
1.262347e+003, 1.048510e+004
1.264276e+003, 1.062772e+004
1.266204e+003, 1.070900e+004
1.268133e+003, 1.076136e+004
1.270061e+003, 1.078925e+004
1.271990e+003, 1.078299e+004
1.273918e+003, 1.074224e+004
1.275846e+003, 1.066525e+004
1.277775e+003, 1.055181e+004
1.279703e+003, 1.039334e+004
1.281632e+003, 1.019474e+004
1.283560e+003, 9.995816e+003
1.285489e+003, 9.783970e+003
1.287417e+003, 9.512232e+003
1.289346e+003, 9.204995e+003
1.291274e+003, 8.904117e+003
1.293203e+003, 8.594251e+003
1.295131e+003, 8.252178e+003
1.297060e+003, 7.902948e+003
1.298988e+003, 7.558734e+003
1.300917e+003, 7.223034e+003
1.302845e+003, 6.898837e+003
1.304773e+003, 6.581285e+003
1.306702e+003, 6.266992e+003
1.308630e+003, 5.962657e+003
1.310559e+003, 5.669274e+003
1.312487e+003, 5.388093e+003
1.314416e+003, 5.118467e+003
1.316344e+003, 4.865257e+003
1.318273e+003, 4.628931e+003
1.320201e+003, 4.405341e+003
1.322130e+003, 4.196271e+003
1.324058e+003, 4.021536e+003
1.325987e+003, 3.872061e+003
1.327915e+003, 3.719079e+003
1.329844e+003, 3.576321e+003
1.331772e+003, 3.463392e+003
1.333700e+003, 3.377093e+003
1.335629e+003, 3.317684e+003
1.337557e+003, 3.278352e+003
1.339486e+003, 3.256199e+003
1.341414e+003, 3.251436e+003
1.343343e+003, 3.263960e+003
1.345271e+003, 3.294287e+003
1.347200e+003, 3.341168e+003
1.349128e+003, 3.415276e+003
1.351057e+003, 3.518667e+003
1.352985e+003, 3.631159e+003
1.354914e+003, 3.753290e+003
1.356842e+003, 3.912016e+003
1.358771e+003, 4.100574e+003
1.360699e+003, 4.286741e+003
1.362627e+003, 4.480070e+003
1.364556e+003, 4.699172e+003
1.366484e+003, 4.937097e+003
1.368413e+003, 5.186310e+003
1.370341e+003, 5.451058e+003
1.372270e+003, 5.733953e+003
1.374198e+003, 6.033563e+003
1.376127e+003, 6.346565e+003
1.378055e+003, 6.681590e+003
1.379984e+003, 7.040483e+003
1.381912e+003, 7.415307e+003
1.383841e+003, 7.799537e+003
1.385769e+003, 8.251612e+003
1.387698e+003, 8.772936e+003
1.389626e+003, 9.337293e+003
1.391554e+003, 9.966021e+003
1.393483e+003, 1.070903e+004
1.395411e+003, 1.157958e+004
1.397340e+003, 1.257751e+004
1.399268e+003, 1.372805e+004
1.401197e+003, 1.506362e+004
1.403125e+003, 1.654431e+004
1.405054e+003, 1.822235e+004
1.406982e+003, 1.988928e+004
1.408911e+003, 2.154546e+004
1.410839e+003, 2.303584e+004
1.412768e+003, 2.438073e+004
1.414696e+003, 2.541365e+004
1.416625e+003, 2.613088e+004
1.418553e+003, 2.635259e+004
1.420481e+003, 2.608684e+004
1.422410e+003, 2.531363e+004
1.424338e+003, 2.412612e+004
1.426267e+003, 2.255111e+004
1.428195e+003, 2.077961e+004
1.430124e+003, 1.886484e+004
1.432052e+003, 1.697808e+004
1.433981e+003, 1.514928e+004
1.435909e+003, 1.349279e+004
1.437838e+003, 1.203186e+004
1.439766e+003, 1.076720e+004
1.441695e+003, 9.699381e+003
1.443623e+003, 8.796627e+003
1.445552e+003, 8.046143e+003
1.447480e+003, 7.420220e+003
1.449408e+003, 6.909406e+003
1.451337e+003, 6.512745e+003
1.453265e+003, 6.194513e+003
1.455194e+003, 5.922323e+003
1.457122e+003, 5.711011e+003
1.459051e+003, 5.575128e+003
1.460979e+003, 5.486319e+003
1.462908e+003, 5.443375e+003
1.464836e+003, 5.423080e+003
1.466765e+003, 5.423775e+003
1.468693e+003, 5.473770e+003
1.470622e+003, 5.565776e+003
1.472550e+003, 5.655816e+003
1.474479e+003, 5.763008e+003
1.476407e+003, 5.927568e+003
1.478335e+003, 6.119134e+003
1.480264e+003, 6.313745e+003
1.482192e+003, 6.519224e+003
1.484121e+003, 6.740034e+003
1.486049e+003, 6.969618e+003
1.487978e+003, 7.201579e+003
1.489906e+003, 7.467436e+003
1.491835e+003, 7.767460e+003
1.493763e+003, 8.081942e+003
1.495692e+003, 8.394443e+003
1.497620e+003, 8.644594e+003
1.499549e+003, 8.879000e+003
1.501477e+003, 9.165018e+003
1.503406e+003, 9.444271e+003
1.505334e+003, 9.681801e+003
1.507262e+003, 9.898341e+003
1.509191e+003, 1.010899e+004
1.511119e+003, 1.027942e+004
1.513048e+003, 1.040738e+004
1.514976e+003, 1.050975e+004
1.516905e+003, 1.058896e+004
1.518833e+003, 1.066121e+004
1.520762e+003, 1.071448e+004
1.522690e+003, 1.073092e+004
1.524619e+003, 1.071311e+004
1.526547e+003, 1.066068e+004
1.528476e+003, 1.057642e+004
1.530404e+003, 1.045363e+004
1.532333e+003, 1.033238e+004
1.534261e+003, 1.022045e+004
1.536189e+003, 1.009531e+004
1.538118e+003, 9.957717e+003
1.540046e+003, 9.809967e+003
1.541975e+003, 9.653850e+003
1.543903e+003, 9.486693e+003
1.545832e+003, 9.320087e+003
1.547760e+003, 9.155495e+003
1.549689e+003, 9.008162e+003
1.551617e+003, 8.884641e+003
1.553546e+003, 8.760814e+003
1.555474e+003, 8.633899e+003
1.557403e+003, 8.529188e+003
1.559331e+003, 8.451115e+003
1.561260e+003, 8.416696e+003
1.563188e+003, 8.410124e+003
1.565116e+003, 8.405965e+003
1.567045e+003, 8.428057e+003
1.568973e+003, 8.492877e+003
1.570902e+003, 8.583510e+003
1.572830e+003, 8.696815e+003
1.574759e+003, 8.839275e+003
1.576687e+003, 9.009764e+003
1.578616e+003, 9.201952e+003
1.580544e+003, 9.410902e+003
1.582473e+003, 9.636941e+003
1.584401e+003, 9.862713e+003
1.586330e+003, 1.006563e+004
1.588258e+003, 1.027783e+004
1.590187e+003, 1.053283e+004
1.592115e+003, 1.074496e+004
1.594043e+003, 1.090682e+004
1.595972e+003, 1.107291e+004
1.597900e+003, 1.123844e+004
1.599829e+003, 1.138533e+004
1.601757e+003, 1.151342e+004
1.603686e+003, 1.161531e+004
1.605614e+003, 1.171077e+004
1.607543e+003, 1.181135e+004
1.609471e+003, 1.190322e+004
1.611400e+003, 1.197750e+004
1.613328e+003, 1.207539e+004
1.615257e+003, 1.219742e+004
1.617185e+003, 1.234298e+004
1.619114e+003, 1.251301e+004
1.621042e+003, 1.271488e+004
1.622970e+003, 1.292592e+004
1.624899e+003, 1.312442e+004
1.626827e+003, 1.336088e+004
1.628756e+003, 1.365121e+004
1.630684e+003, 1.395498e+004
1.632613e+003, 1.427144e+004
1.634541e+003, 1.461633e+004
1.636470e+003, 1.497166e+004
1.638398e+003, 1.531277e+004
1.640327e+003, 1.564770e+004
1.642255e+003, 1.598268e+004
1.644184e+003, 1.630631e+004
1.646112e+003, 1.661608e+004
1.648041e+003, 1.691772e+004
1.649969e+003, 1.720686e+004
1.651897e+003, 1.747692e+004
1.653826e+003, 1.770356e+004
1.655754e+003, 1.783257e+004
1.657683e+003, 1.794066e+004
1.659611e+003, 1.807126e+004
1.661540e+003, 1.815623e+004
1.663468e+003, 1.818602e+004
1.665397e+003, 1.818812e+004
1.667325e+003, 1.815971e+004
1.669254e+003, 1.808896e+004
1.671182e+003, 1.797715e+004
1.673111e+003, 1.780199e+004
1.675039e+003, 1.762838e+004
1.676968e+003, 1.748957e+004
1.678896e+003, 1.730707e+004
1.680824e+003, 1.707497e+004
1.682753e+003, 1.682843e+004
1.684681e+003, 1.656541e+004
1.686610e+003, 1.626882e+004
1.688538e+003, 1.597504e+004
1.690467e+003, 1.572427e+004
1.692395e+003, 1.545828e+004
1.694324e+003, 1.515506e+004
1.696252e+003, 1.489130e+004
1.698181e+003, 1.466124e+004
1.700109e+003, 1.441249e+004
1.702038e+003, 1.418032e+004
1.703966e+003, 1.401484e+004
1.705895e+003, 1.386450e+004
1.707823e+003, 1.368569e+004
1.709751e+003, 1.357129e+004
1.711680e+003, 1.352982e+004
1.713608e+003, 1.350464e+004
1.715537e+003, 1.349010e+004
1.717465e+003, 1.345995e+004
1.719394e+003, 1.345398e+004
1.721322e+003, 1.350412e+004
1.723251e+003, 1.356097e+004
1.725179e+003, 1.360734e+004
1.727108e+003, 1.369961e+004
1.729036e+003, 1.382347e+004
1.730965e+003, 1.391104e+004
1.732893e+003, 1.400089e+004
1.734822e+003, 1.414623e+004
1.736750e+003, 1.426554e+004
1.738678e+003, 1.432655e+004
1.740607e+003, 1.443426e+004
1.742535e+003, 1.458265e+004
1.744464e+003, 1.463977e+004
1.746392e+003, 1.464767e+004
1.748321e+003, 1.465614e+004
1.750249e+003, 1.465697e+004
1.752178e+003, 1.465077e+004
1.754106e+003, 1.461625e+004
1.756035e+003, 1.454694e+004
1.757963e+003, 1.441850e+004
1.759892e+003, 1.424870e+004
1.761820e+003, 1.406346e+004
1.763749e+003, 1.385499e+004
1.765677e+003, 1.361385e+004
1.767605e+003, 1.336789e+004
1.769534e+003, 1.311967e+004
1.771462e+003, 1.285046e+004
1.773391e+003, 1.257182e+004
1.775319e+003, 1.230819e+004
1.777248e+003, 1.204412e+004
1.779176e+003, 1.176251e+004
1.781105e+003, 1.149761e+004
1.783033e+003, 1.125296e+004
1.784962e+003, 1.101297e+004
1.786890e+003, 1.078676e+004
1.788819e+003, 1.059833e+004
1.790747e+003, 1.041651e+004
1.792676e+003, 1.020276e+004
1.794604e+003, 1.004005e+004
1.796532e+003, 9.939325e+003
1.798461e+003, 9.807913e+003
1.800389e+003, 9.666215e+003
1.802318e+003, 9.559194e+003
1.804246e+003, 9.458155e+003
1.806175e+003, 9.345544e+003
1.808103e+003, 9.242817e+003
1.810032e+003, 9.153318e+003
1.811960e+003, 9.053436e+003
1.813889e+003, 8.939463e+003
1.815817e+003, 8.796539e+003
1.817746e+003, 8.652069e+003
1.819674e+003, 8.519951e+003
1.821603e+003, 8.377757e+003
1.823531e+003, 8.222032e+003
1.825459e+003, 8.055048e+003
1.827388e+003, 7.872668e+003
1.829316e+003, 7.666148e+003
1.831245e+003, 7.444423e+003
1.833173e+003, 7.205081e+003
1.835102e+003, 7.000983e+003
1.837030e+003, 6.825225e+003
1.838959e+003, 6.602573e+003
1.840887e+003, 6.372491e+003
1.842816e+003, 6.188347e+003
1.844744e+003, 5.985175e+003
1.846673e+003, 5.747415e+003
1.848601e+003, 5.518167e+003
1.850530e+003, 5.301632e+003
1.852458e+003, 5.099398e+003
1.854386e+003, 4.909512e+003
1.856315e+003, 4.734569e+003
1.858243e+003, 4.562840e+003
1.860172e+003, 4.393293e+003
1.862100e+003, 4.240894e+003
1.864029e+003, 4.095273e+003
1.865957e+003, 3.931820e+003
1.867886e+003, 3.780637e+003
1.869814e+003, 3.660464e+003
1.871743e+003, 3.535706e+003
1.873671e+003, 3.407070e+003
1.875600e+003, 3.289337e+003
1.877528e+003, 3.181631e+003
1.879457e+003, 3.086805e+003
1.881385e+003, 2.994623e+003
1.883313e+003, 2.902614e+003
1.885242e+003, 2.814870e+003
1.887170e+003, 2.732098e+003
1.889099e+003, 2.657169e+003
1.891027e+003, 2.583881e+003
1.892956e+003, 2.505738e+003
1.894884e+003, 2.436431e+003
1.896813e+003, 2.376260e+003
1.898741e+003, 2.321942e+003
1.900670e+003, 2.269565e+003
1.902598e+003, 2.214287e+003
1.904527e+003, 2.160944e+003
1.906455e+003, 2.110071e+003
1.908384e+003, 2.073336e+003
1.910312e+003, 2.043323e+003
1.912240e+003, 1.998053e+003
1.914169e+003, 1.955036e+003
1.916097e+003, 1.922961e+003
1.918026e+003, 1.894166e+003
1.919954e+003, 1.866412e+003
1.921883e+003, 1.829424e+003
1.923811e+003, 1.790991e+003
1.925740e+003, 1.758164e+003
1.927668e+003, 1.728506e+003
1.929597e+003, 1.701524e+003
1.931525e+003, 1.674440e+003
1.933454e+003, 1.647985e+003
1.935382e+003, 1.624387e+003
1.937311e+003, 1.601426e+003
1.939239e+003, 1.578739e+003
1.941167e+003, 1.550806e+003
1.943096e+003, 1.521097e+003
1.945024e+003, 1.503540e+003
1.946953e+003, 1.487667e+003
1.948881e+003, 1.466153e+003
1.950810e+003, 1.444323e+003
1.952738e+003, 1.422390e+003
1.954667e+003, 1.398363e+003
1.956595e+003, 1.372883e+003
1.958524e+003, 1.342298e+003
1.960452e+003, 1.322848e+003
1.962381e+003, 1.317020e+003
1.964309e+003, 1.288349e+003
1.966238e+003, 1.252771e+003
1.968166e+003, 1.236761e+003
1.970094e+003, 1.223497e+003
1.972023e+003, 1.208627e+003
1.973951e+003, 1.185814e+003
1.975880e+003, 1.158219e+003
1.977808e+003, 1.133148e+003
1.979737e+003, 1.109116e+003
1.981665e+003, 1.087119e+003
1.983594e+003, 1.058144e+003
1.985522e+003, 1.025426e+003
1.987451e+003, 1.007927e+003
1.989379e+003, 9.915604e+002
1.991308e+003, 9.670698e+002
1.993236e+003, 9.419525e+002
1.995165e+003, 9.180120e+002
1.997093e+003, 9.058746e+002
1.999021e+003, 8.923224e+002
2.000950e+003, 8.652855e+002
2.002878e+003, 8.426400e+002
2.004807e+003, 8.273553e+002
2.006735e+003, 8.094995e+002
2.008664e+003, 7.906100e+002
2.010592e+003, 7.712965e+002
2.012521e+003, 7.552739e+002
2.014449e+003, 7.431826e+002
2.016378e+003, 7.303051e+002
2.018306e+003, 7.179442e+002
2.020235e+003, 7.099391e+002
2.022163e+003, 6.980803e+002
2.024092e+003, 6.809994e+002
2.026020e+003, 6.688458e+002
2.027948e+003, 6.583388e+002
2.029877e+003, 6.437856e+002
2.031805e+003, 6.289667e+002
2.033734e+003, 6.147869e+002
2.035662e+003, 6.091564e+002
2.037591e+003, 6.048865e+002
2.039519e+003, 5.887291e+002
2.041448e+003, 5.727181e+002
2.043376e+003, 5.596967e+002
2.045305e+003, 5.603520e+002
2.047233e+003, 5.634131e+002
2.049162e+003, 5.482274e+002
2.051090e+003, 5.336686e+002
2.053019e+003, 5.252659e+002
2.054947e+003, 5.195682e+002
2.056875e+003, 5.141708e+002
2.058804e+003, 5.047818e+002
2.060732e+003, 4.962675e+002
2.062661e+003, 4.903000e+002
2.064589e+003, 4.848570e+002
2.066518e+003, 4.786658e+002
2.068446e+003, 4.689294e+002
2.070375e+003, 4.608845e+002
2.072303e+003, 4.568937e+002
2.074232e+003, 4.434053e+002
2.076160e+003, 4.295558e+002
2.078089e+003, 4.285134e+002
2.080017e+003, 4.288648e+002
2.081946e+003, 4.277605e+002
2.083874e+003, 4.211252e+002
2.085802e+003, 4.125111e+002
2.087731e+003, 4.057369e+002
2.089659e+003, 4.000820e+002
2.091588e+003, 3.952758e+002
2.093516e+003, 3.882069e+002
2.095445e+003, 3.808490e+002
2.097373e+003, 3.748914e+002
2.099302e+003, 3.708424e+002
2.101230e+003, 3.681817e+002
2.103159e+003, 3.617512e+002
2.105087e+003, 3.545932e+002
2.107016e+003, 3.487850e+002
2.108944e+003, 3.444649e+002
2.110873e+003, 3.413383e+002
2.112801e+003, 3.388244e+002
2.114729e+003, 3.346675e+002
2.116658e+003, 3.268385e+002
2.118586e+003, 3.217236e+002
2.120515e+003, 3.191904e+002
2.122443e+003, 3.174361e+002
2.124372e+003, 3.164067e+002
2.126300e+003, 3.166876e+002
2.128229e+003, 3.096101e+002
2.130157e+003, 3.004782e+002
2.132086e+003, 3.000290e+002
2.134014e+003, 2.998082e+002
2.135943e+003, 2.975656e+002
2.137871e+003, 2.917349e+002
2.139800e+003, 2.855608e+002
2.141728e+003, 2.830155e+002
2.143656e+003, 2.813056e+002
2.145585e+003, 2.797741e+002
2.147513e+003, 2.747391e+002
2.149442e+003, 2.701740e+002
2.151370e+003, 2.699756e+002
2.153299e+003, 2.671532e+002
2.155227e+003, 2.623920e+002
2.157156e+003, 2.615263e+002
2.159084e+003, 2.599991e+002
2.161013e+003, 2.553089e+002
2.162941e+003, 2.536342e+002
2.164870e+003, 2.536265e+002
2.166798e+003, 2.523916e+002
2.168727e+003, 2.510213e+002
2.170655e+003, 2.498061e+002
2.172583e+003, 2.500675e+002
2.174512e+003, 2.498163e+002
2.176440e+003, 2.464290e+002
2.178369e+003, 2.455451e+002
2.180297e+003, 2.470757e+002
2.182226e+003, 2.457644e+002
2.184154e+003, 2.445143e+002
2.186083e+003, 2.449067e+002
2.188011e+003, 2.438879e+002
2.189940e+003, 2.418745e+002
2.191868e+003, 2.405274e+002
2.193797e+003, 2.372809e+002
2.195725e+003, 2.319768e+002
2.197654e+003, 2.325380e+002
2.199582e+003, 2.343837e+002
2.201510e+003, 2.320298e+002
2.203439e+003, 2.316754e+002
2.205367e+003, 2.327191e+002
2.207296e+003, 2.305027e+002
2.209224e+003, 2.281506e+002
2.211153e+003, 2.271716e+002
2.213081e+003, 2.265217e+002
2.215010e+003, 2.265991e+002
2.216938e+003, 2.287511e+002
2.218867e+003, 2.297692e+002
2.220795e+003, 2.291532e+002
2.222724e+003, 2.260589e+002
2.224652e+003, 2.238838e+002
2.226581e+003, 2.257475e+002
2.228509e+003, 2.267315e+002
2.230438e+003, 2.273262e+002
2.232366e+003, 2.297952e+002
2.234294e+003, 2.307363e+002
2.236223e+003, 2.289603e+002
2.238151e+003, 2.329501e+002
2.240080e+003, 2.367758e+002
2.242008e+003, 2.351978e+002
2.243937e+003, 2.343843e+002
2.245865e+003, 2.352937e+002
2.247794e+003, 2.402238e+002
2.249722e+003, 2.437698e+002
2.251651e+003, 2.441212e+002
2.253579e+003, 2.402055e+002
2.255508e+003, 2.374189e+002
2.257436e+003, 2.418949e+002
2.259365e+003, 2.438489e+002
2.261293e+003, 2.435445e+002
2.263221e+003, 2.469258e+002
2.265150e+003, 2.497705e+002
2.267078e+003, 2.506907e+002
2.269007e+003, 2.507886e+002
2.270935e+003, 2.509355e+002
2.272864e+003, 2.521421e+002
2.274792e+003, 2.527388e+002
2.276721e+003, 2.533747e+002
2.278649e+003, 2.575760e+002
2.280578e+003, 2.596096e+002
2.282506e+003, 2.578761e+002
2.284435e+003, 2.566088e+002
2.286363e+003, 2.571945e+002
2.288292e+003, 2.620833e+002
2.290220e+003, 2.660459e+002
2.292148e+003, 2.684426e+002
2.294077e+003, 2.668553e+002
2.296005e+003, 2.692383e+002
2.297934e+003, 2.776378e+002
2.299862e+003, 2.826279e+002
2.301791e+003, 2.861309e+002
2.303719e+003, 2.903049e+002
2.305648e+003, 2.895825e+002
2.307576e+003, 2.867894e+002
2.309505e+003, 2.863346e+002
2.311433e+003, 2.912156e+002
2.313362e+003, 3.007245e+002
2.315290e+003, 3.021742e+002
2.317219e+003, 3.042745e+002
2.319147e+003, 3.121015e+002
2.321075e+003, 3.113114e+002
2.323004e+003, 3.076141e+002
2.324932e+003, 3.078435e+002
2.326861e+003, 3.115914e+002
2.328789e+003, 3.173548e+002
2.330718e+003, 3.210880e+002
2.332646e+003, 3.231472e+002
2.334575e+003, 3.239513e+002
2.336503e+003, 3.280148e+002
2.338432e+003, 3.325332e+002
2.340360e+003, 3.355089e+002
2.342289e+003, 3.377054e+002
2.344217e+003, 3.399727e+002
2.346146e+003, 3.441613e+002
2.348074e+003, 3.474332e+002
2.350002e+003, 3.490417e+002
2.351931e+003, 3.463307e+002
2.353859e+003, 3.480096e+002
2.355788e+003, 3.565667e+002
2.357716e+003, 3.508384e+002
2.359645e+003, 3.426291e+002
2.361573e+003, 3.426873e+002
2.363502e+003, 3.433860e+002
2.365430e+003, 3.433182e+002
2.367359e+003, 3.404588e+002
2.369287e+003, 3.372048e+002
2.371216e+003, 3.342386e+002
2.373144e+003, 3.332548e+002
2.375073e+003, 3.317917e+002
2.377001e+003, 3.287617e+002
2.378929e+003, 3.302401e+002
2.380858e+003, 3.317538e+002
2.382786e+003, 3.297721e+002
2.384715e+003, 3.282558e+002
2.386643e+003, 3.266382e+002
2.388572e+003, 3.233778e+002
2.390500e+003, 3.222552e+002
2.392429e+003, 3.230972e+002
2.394357e+003, 3.250108e+002
2.396286e+003, 3.246241e+002
2.398214e+003, 3.214720e+002
2.400143e+003, 3.211903e+002
2.402071e+003, 3.222213e+002
2.404000e+003, 3.237697e+002
2.405928e+003, 3.192135e+002
2.407856e+003, 3.161309e+002
2.409785e+003, 3.221807e+002
2.411713e+003, 3.219816e+002
2.413642e+003, 3.180448e+002
2.415570e+003, 3.169411e+002
2.417499e+003, 3.147509e+002
2.419427e+003, 3.114858e+002
2.421356e+003, 3.085306e+002
2.423284e+003, 3.071484e+002
2.425213e+003, 3.071187e+002
2.427141e+003, 3.050440e+002
2.429070e+003, 3.033099e+002
2.430998e+003, 3.030503e+002
2.432927e+003, 2.992013e+002
2.434855e+003, 2.951648e+002
2.436783e+003, 2.940646e+002
2.438712e+003, 2.932701e+002
2.440640e+003, 2.924694e+002
2.442569e+003, 2.920515e+002
2.444497e+003, 2.872438e+002
2.446426e+003, 2.825701e+002
2.448354e+003, 2.917967e+002
2.450283e+003, 2.928661e+002
2.452211e+003, 2.855296e+002
2.454140e+003, 2.849716e+002
2.456068e+003, 2.858705e+002
2.457997e+003, 2.864243e+002
2.459925e+003, 2.811648e+002
2.461854e+003, 2.792160e+002
2.463782e+003, 2.853808e+002
2.465710e+003, 2.836682e+002
2.467639e+003, 2.807199e+002
2.469567e+003, 2.810048e+002
2.471496e+003, 2.833990e+002
2.473424e+003, 2.855389e+002
2.475353e+003, 2.850146e+002
2.477281e+003, 2.868091e+002
2.479210e+003, 2.889642e+002
2.481138e+003, 2.872776e+002
2.483067e+003, 2.865983e+002
2.484995e+003, 2.876207e+002
2.486924e+003, 2.925119e+002
2.488852e+003, 2.910654e+002
2.490781e+003, 2.854739e+002
2.492709e+003, 2.896838e+002
2.494637e+003, 2.942345e+002
2.496566e+003, 2.975984e+002
2.498494e+003, 3.052129e+002
2.500423e+003, 3.121703e+002
2.502351e+003, 3.172429e+002
2.504280e+003, 3.246148e+002
2.506208e+003, 3.328478e+002
2.508137e+003, 3.411729e+002
2.510065e+003, 3.522343e+002
2.511994e+003, 3.646802e+002
2.513922e+003, 3.774983e+002
2.515851e+003, 3.930505e+002
2.517779e+003, 4.101527e+002
2.519708e+003, 4.269365e+002
2.521636e+003, 4.500378e+002
2.523564e+003, 4.768289e+002
2.525493e+003, 5.028318e+002
2.527421e+003, 5.428934e+002
2.529350e+003, 5.868431e+002
2.531278e+003, 6.200455e+002
2.533207e+003, 6.605564e+002
2.535135e+003, 7.111017e+002
2.537064e+003, 7.728245e+002
2.538992e+003, 8.440214e+002
2.540921e+003, 9.246862e+002
2.542849e+003, 1.018811e+003
2.544778e+003, 1.106880e+003
2.546706e+003, 1.196545e+003
2.548635e+003, 1.324704e+003
2.550563e+003, 1.438045e+003
2.552491e+003, 1.528122e+003
2.554420e+003, 1.598653e+003
2.556348e+003, 1.647376e+003
2.558277e+003, 1.669983e+003
2.560205e+003, 1.654154e+003
2.562134e+003, 1.626975e+003
2.564062e+003, 1.592202e+003
2.565991e+003, 1.539790e+003
2.567919e+003, 1.483398e+003
2.569848e+003, 1.425274e+003
2.571776e+003, 1.359052e+003
2.573705e+003, 1.292153e+003
2.575633e+003, 1.227435e+003
2.577562e+003, 1.168802e+003
2.579490e+003, 1.114439e+003
2.581418e+003, 1.062452e+003
2.583347e+003, 1.003387e+003
2.585275e+003, 9.512220e+002
2.587204e+003, 9.083126e+002
2.589132e+003, 8.615872e+002
2.591061e+003, 8.175075e+002
2.592989e+003, 7.777033e+002
2.594918e+003, 7.411768e+002
2.596846e+003, 7.016626e+002
2.598775e+003, 6.593007e+002
2.600703e+003, 6.334952e+002
2.602632e+003, 6.041445e+002
2.604560e+003, 5.677537e+002
2.606489e+003, 5.418632e+002
2.608417e+003, 5.216554e+002
2.610345e+003, 5.052016e+002
2.612274e+003, 4.907847e+002
2.614202e+003, 4.718893e+002
2.616131e+003, 4.501387e+002
2.618059e+003, 4.457418e+002
2.619988e+003, 4.365080e+002
2.621916e+003, 4.205165e+002
2.623845e+003, 4.175905e+002
2.625773e+003, 4.117487e+002
2.627702e+003, 4.016566e+002
2.629630e+003, 3.979135e+002
2.631559e+003, 3.923088e+002
2.633487e+003, 3.847147e+002
2.635416e+003, 3.802411e+002
2.637344e+003, 3.774749e+002
2.639272e+003, 3.752679e+002
2.641201e+003, 3.711190e+002
2.643129e+003, 3.694292e+002
2.645058e+003, 3.686418e+002
2.646986e+003, 3.635628e+002
2.648915e+003, 3.576351e+002
2.650843e+003, 3.534464e+002
2.652772e+003, 3.572100e+002
2.654700e+003, 3.507342e+002
2.656629e+003, 3.411284e+002
2.658557e+003, 3.427779e+002
2.660486e+003, 3.421151e+002
2.662414e+003, 3.382080e+002
2.664343e+003, 3.307743e+002
2.666271e+003, 3.331589e+002
2.668199e+003, 3.361219e+002
2.670128e+003, 3.298403e+002
2.672056e+003, 3.264064e+002
2.673985e+003, 3.241752e+002
2.675913e+003, 3.211429e+002
2.677842e+003, 3.194977e+002
2.679770e+003, 3.199041e+002
2.681699e+003, 3.221487e+002
2.683627e+003, 3.188016e+002
2.685556e+003, 3.147740e+002
2.687484e+003, 3.120947e+002
2.689413e+003, 3.049024e+002
2.691341e+003, 3.018391e+002
2.693270e+003, 3.039452e+002
2.695198e+003, 3.002082e+002
2.697126e+003, 2.976855e+002
2.699055e+003, 2.972392e+002
2.700983e+003, 2.945836e+002
2.702912e+003, 2.922173e+002
2.704840e+003, 2.906043e+002
2.706769e+003, 2.890103e+002
2.708697e+003, 2.902403e+002
2.710626e+003, 2.922271e+002
2.712554e+003, 2.914006e+002
2.714483e+003, 2.886025e+002
2.716411e+003, 2.849865e+002
2.718340e+003, 2.817166e+002
2.720268e+003, 2.770443e+002
2.722197e+003, 2.757965e+002
2.724125e+003, 2.831821e+002
2.726053e+003, 2.800608e+002
2.727982e+003, 2.773737e+002
2.729910e+003, 2.808593e+002
2.731839e+003, 2.763904e+002
2.733767e+003, 2.739944e+002
2.735696e+003, 2.761745e+002
2.737624e+003, 2.759225e+002
2.739553e+003, 2.758597e+002
2.741481e+003, 2.757504e+002
2.743410e+003, 2.721011e+002
2.745338e+003, 2.737379e+002
2.747267e+003, 2.756435e+002
2.749195e+003, 2.668072e+002
2.751124e+003, 2.662824e+002
2.753052e+003, 2.705963e+002
2.754980e+003, 2.753611e+002
2.756909e+003, 2.711832e+002
2.758837e+003, 2.707949e+002
2.760766e+003, 2.795375e+002
2.762694e+003, 2.750812e+002
2.764623e+003, 2.710296e+002
2.766551e+003, 2.713257e+002
2.768480e+003, 2.716071e+002
2.770408e+003, 2.711712e+002
2.772337e+003, 2.705947e+002
2.774265e+003, 2.717872e+002
2.776194e+003, 2.712896e+002
2.778122e+003, 2.701037e+002
2.780051e+003, 2.698462e+002
2.781979e+003, 2.711564e+002
2.783907e+003, 2.716863e+002
2.785836e+003, 2.694154e+002
2.787764e+003, 2.702697e+002
2.789693e+003, 2.703300e+002
2.791621e+003, 2.683483e+002
2.793550e+003, 2.665370e+002
2.795478e+003, 2.664189e+002
2.797407e+003, 2.677098e+002
2.799335e+003, 2.695157e+002
2.801264e+003, 2.676270e+002
2.803192e+003, 2.654713e+002
2.805121e+003, 2.671555e+002
2.807049e+003, 2.673602e+002
2.808978e+003, 2.670327e+002
2.810906e+003, 2.665733e+002
2.812834e+003, 2.608564e+002
2.814763e+003, 2.559181e+002
2.816691e+003, 2.540350e+002
2.818620e+003, 2.561987e+002
2.820548e+003, 2.568080e+002
2.822477e+003, 2.552153e+002
2.824405e+003, 2.502664e+002
2.826334e+003, 2.542417e+002
2.828262e+003, 2.575701e+002
2.830191e+003, 2.526888e+002
2.832119e+003, 2.502741e+002
2.834048e+003, 2.530272e+002
2.835976e+003, 2.594559e+002
2.837905e+003, 2.606066e+002
2.839833e+003, 2.558639e+002
2.841761e+003, 2.494574e+002
2.843690e+003, 2.476505e+002
2.845618e+003, 2.492038e+002
2.847547e+003, 2.514688e+002
2.849475e+003, 2.522842e+002
2.851404e+003, 2.582919e+002
2.853332e+003, 2.601602e+002
2.855261e+003, 2.562730e+002
2.857189e+003, 2.551748e+002
2.859118e+003, 2.560140e+002
2.861046e+003, 2.562682e+002
2.862975e+003, 2.525342e+002
2.864903e+003, 2.537154e+002
2.866832e+003, 2.567544e+002
2.868760e+003, 2.588772e+002
2.870688e+003, 2.552699e+002
2.872617e+003, 2.559606e+002
2.874545e+003, 2.603140e+002
2.876474e+003, 2.572876e+002
2.878402e+003, 2.554900e+002
2.880331e+003, 2.536308e+002
2.882259e+003, 2.492159e+002
2.884188e+003, 2.519510e+002
2.886116e+003, 2.526806e+002
2.888045e+003, 2.496322e+002
2.889973e+003, 2.544621e+002
2.891902e+003, 2.547417e+002
2.893830e+003, 2.512967e+002
2.895759e+003, 2.486476e+002
2.897687e+003, 2.496232e+002
2.899615e+003, 2.504464e+002
2.901544e+003, 2.487648e+002
2.903472e+003, 2.483929e+002
2.905401e+003, 2.499823e+002
2.907329e+003, 2.512791e+002
2.909258e+003, 2.473963e+002
2.911186e+003, 2.393344e+002
2.913115e+003, 2.356508e+002
2.915043e+003, 2.422095e+002
2.916972e+003, 2.389037e+002
2.918900e+003, 2.356787e+002
2.920829e+003, 2.350048e+002
2.922757e+003, 2.342631e+002
2.924686e+003, 2.331441e+002
2.926614e+003, 2.323562e+002
2.928542e+003, 2.321698e+002
2.930471e+003, 2.260515e+002
2.932399e+003, 2.223874e+002
2.934328e+003, 2.224655e+002
2.936256e+003, 2.203728e+002
2.938185e+003, 2.208161e+002
2.940113e+003, 2.207229e+002
2.942042e+003, 2.169266e+002
2.943970e+003, 2.151485e+002
2.945899e+003, 2.135084e+002
2.947827e+003, 2.106102e+002
2.949756e+003, 2.041020e+002
2.951684e+003, 1.993123e+002
2.953613e+003, 1.959347e+002
2.955541e+003, 1.930869e+002
2.957469e+003, 1.923262e+002
2.959398e+003, 1.876932e+002
2.961326e+003, 1.811218e+002
2.963255e+003, 1.825774e+002
2.965183e+003, 1.814290e+002
2.967112e+003, 1.780892e+002
2.969040e+003, 1.738376e+002
2.970969e+003, 1.688682e+002
2.972897e+003, 1.628711e+002
2.974826e+003, 1.583272e+002
2.976754e+003, 1.600326e+002
2.978683e+003, 1.607324e+002
2.980611e+003, 1.604419e+002
2.982540e+003, 1.592725e+002
2.984468e+003, 1.535309e+002
2.986396e+003, 1.532772e+002
2.988325e+003, 1.530948e+002
2.990253e+003, 1.434515e+002
2.992182e+003, 1.417445e+002
2.994110e+003, 1.385304e+002
2.996039e+003, 1.325332e+002
2.997967e+003, 1.354657e+002
2.999896e+003, 1.326807e+002
3.001824e+003, 1.287691e+002
3.003753e+003, 1.291467e+002
3.005681e+003, 1.285699e+002
3.007610e+003, 1.241315e+002
3.009538e+003, 1.186992e+002
3.011467e+003, 1.192682e+002
3.013395e+003, 1.184453e+002
3.015323e+003, 1.155484e+002
3.017252e+003, 1.112934e+002
3.019180e+003, 1.111438e+002
3.021109e+003, 1.097569e+002
3.023037e+003, 1.086246e+002
3.024966e+003, 1.103054e+002
3.026894e+003, 1.068474e+002
3.028823e+003, 1.036063e+002
3.030751e+003, 1.015760e+002
3.032680e+003, 9.901352e+001
3.034608e+003, 9.862868e+001
3.036537e+003, 9.953970e+001
3.038465e+003, 1.001270e+002
3.040394e+003, 9.411632e+001
3.042322e+003, 9.275142e+001
3.044250e+003, 9.336800e+001
3.046179e+003, 9.218375e+001
3.048107e+003, 9.155260e+001
3.050036e+003, 8.999934e+001
3.051964e+003, 8.765458e+001
3.053893e+003, 8.531156e+001
3.055821e+003, 8.483897e+001
3.057750e+003, 8.351345e+001
3.059678e+003, 8.093748e+001
3.061607e+003, 7.919669e+001
3.063535e+003, 7.801807e+001
3.065464e+003, 7.724987e+001
3.067392e+003, 7.692744e+001
3.069321e+003, 7.813274e+001
3.071249e+003, 7.981120e+001
3.073177e+003, 8.060701e+001
3.075106e+003, 7.902483e+001
3.077034e+003, 8.023055e+001
3.078963e+003, 8.248971e+001
3.080891e+003, 8.335397e+001
3.082820e+003, 7.964714e+001
3.084748e+003, 8.045983e+001
3.086677e+003, 8.024532e+001
3.088605e+003, 7.835295e+001
3.090534e+003, 8.009693e+001
3.092462e+003, 8.132212e+001
3.094391e+003, 8.151298e+001
3.096319e+003, 8.053966e+001
3.098248e+003, 7.655846e+001
3.100176e+003, 7.862436e+001
3.102104e+003, 8.112285e+001
3.104033e+003, 7.977235e+001
3.105961e+003, 7.842793e+001
3.107890e+003, 7.786047e+001
3.109818e+003, 7.927338e+001
3.111747e+003, 8.321181e+001
3.113675e+003, 8.193533e+001
3.115604e+003, 8.165092e+001
3.117532e+003, 8.300255e+001
3.119461e+003, 8.480196e+001
3.121389e+003, 8.416780e+001
3.123318e+003, 8.438007e+001
3.125246e+003, 8.613246e+001
3.127175e+003, 8.951625e+001
3.129103e+003, 8.931621e+001
3.131031e+003, 8.806898e+001
3.132960e+003, 8.776328e+001
3.134888e+003, 9.037212e+001
3.136817e+003, 9.141957e+001
3.138745e+003, 9.156300e+001
3.140674e+003, 9.175072e+001
3.142602e+003, 9.316787e+001
3.144531e+003, 9.448766e+001
3.146459e+003, 9.602778e+001
3.148388e+003, 9.845067e+001
3.150316e+003, 1.037291e+002
3.152245e+003, 1.028090e+002
3.154173e+003, 1.015477e+002
3.156102e+003, 1.033195e+002
3.158030e+003, 1.083014e+002
3.159958e+003, 1.085565e+002
3.161887e+003, 1.116326e+002
3.163815e+003, 1.189275e+002
3.165744e+003, 1.194845e+002
3.167672e+003, 1.204132e+002
3.169601e+003, 1.230414e+002
3.171529e+003, 1.272800e+002
3.173458e+003, 1.321169e+002
3.175386e+003, 1.363222e+002
3.177315e+003, 1.417687e+002
3.179243e+003, 1.487080e+002
3.181172e+003, 1.524877e+002
3.183100e+003, 1.604100e+002
3.185029e+003, 1.662321e+002
3.186957e+003, 1.683888e+002
3.188885e+003, 1.769503e+002
3.190814e+003, 1.868824e+002
3.192742e+003, 1.967215e+002
3.194671e+003, 2.066225e+002
3.196599e+003, 2.185888e+002
3.198528e+003, 2.290033e+002
3.200456e+003, 2.395548e+002
3.202385e+003, 2.504734e+002
3.204313e+003, 2.593320e+002
3.206242e+003, 2.694505e+002
3.208170e+003, 2.794910e+002
3.210099e+003, 2.868100e+002
3.212027e+003, 2.862618e+002
3.213956e+003, 2.929525e+002
3.215884e+003, 2.971352e+002
3.217813e+003, 2.960865e+002
3.219741e+003, 2.920106e+002
3.221669e+003, 2.901326e+002
3.223598e+003, 2.890695e+002
3.225526e+003, 2.882422e+002
3.227455e+003, 2.879092e+002
3.229383e+003, 2.836114e+002
3.231312e+003, 2.809241e+002
3.233240e+003, 2.782263e+002
3.235169e+003, 2.719995e+002
3.237097e+003, 2.691273e+002
3.239026e+003, 2.668428e+002
3.240954e+003, 2.611356e+002
3.242883e+003, 2.507511e+002
3.244811e+003, 2.533951e+002
3.246740e+003, 2.484303e+002
3.248668e+003, 2.403228e+002
3.250596e+003, 2.347151e+002
3.252525e+003, 2.332572e+002
3.254453e+003, 2.357595e+002
3.256382e+003, 2.365722e+002
3.258310e+003, 2.341420e+002
3.260239e+003, 2.313274e+002
3.262167e+003, 2.293713e+002
3.264096e+003, 2.271879e+002
3.266024e+003, 2.254740e+002
3.267953e+003, 2.258827e+002
3.269881e+003, 2.302046e+002
3.271810e+003, 2.341878e+002
3.273738e+003, 2.385961e+002
3.275667e+003, 2.453510e+002
3.277595e+003, 2.541778e+002
3.279523e+003, 2.594849e+002
3.281452e+003, 2.657630e+002
3.283380e+003, 2.761696e+002
3.285309e+003, 2.888337e+002
3.287237e+003, 2.901424e+002
3.289166e+003, 3.001782e+002
3.291094e+003, 3.194729e+002
3.293023e+003, 3.292863e+002
3.294951e+003, 3.385174e+002
3.296880e+003, 3.463690e+002
3.298808e+003, 3.543475e+002
3.300737e+003, 3.639452e+002
3.302665e+003, 3.674454e+002
3.304594e+003, 3.837238e+002
3.306522e+003, 3.974200e+002
3.308450e+003, 4.000999e+002
3.310379e+003, 4.058474e+002
3.312307e+003, 4.128956e+002
3.314236e+003, 4.203666e+002
3.316164e+003, 4.267875e+002
3.318093e+003, 4.302595e+002
3.320021e+003, 4.438690e+002
3.321950e+003, 4.592852e+002
3.323878e+003, 4.733517e+002
3.325807e+003, 4.859009e+002
3.327735e+003, 4.988135e+002
3.329664e+003, 5.212377e+002
3.331592e+003, 5.449466e+002
3.333521e+003, 5.660607e+002
3.335449e+003, 5.860487e+002
3.337377e+003, 6.156038e+002
3.339306e+003, 6.480332e+002
3.341234e+003, 6.735355e+002
3.343163e+003, 6.874431e+002
3.345091e+003, 7.120737e+002
3.347020e+003, 7.396128e+002
3.348948e+003, 7.686126e+002
3.350877e+003, 7.971608e+002
3.352805e+003, 8.223026e+002
3.354734e+003, 8.556182e+002
3.356662e+003, 9.050780e+002
3.358591e+003, 9.541277e+002
3.360519e+003, 9.943802e+002
3.362448e+003, 1.071082e+003
3.364376e+003, 1.153324e+003
3.366304e+003, 1.242572e+003
3.368233e+003, 1.347731e+003
3.370161e+003, 1.481052e+003
3.372090e+003, 1.588753e+003
3.374018e+003, 1.688348e+003
3.375947e+003, 1.771150e+003
3.377875e+003, 1.823138e+003
3.379804e+003, 1.830013e+003
3.381732e+003, 1.796976e+003
3.383661e+003, 1.729734e+003
3.385589e+003, 1.628693e+003
3.387518e+003, 1.492251e+003
3.389446e+003, 1.363851e+003
3.391375e+003, 1.221189e+003
3.393303e+003, 1.106685e+003
3.395231e+003, 1.023029e+003
3.397160e+003, 9.196878e+002
3.399088e+003, 8.499730e+002
3.401017e+003, 7.935410e+002
3.402945e+003, 7.377721e+002
3.404874e+003, 6.833920e+002
3.406802e+003, 6.531375e+002
3.408731e+003, 6.204328e+002
3.410659e+003, 5.893264e+002
3.412588e+003, 5.642951e+002
3.414516e+003, 5.466562e+002
3.416445e+003, 5.307644e+002
3.418373e+003, 5.169310e+002
3.420302e+003, 5.074237e+002
3.422230e+003, 5.007476e+002
3.424158e+003, 4.928820e+002
3.426087e+003, 4.855706e+002
3.428015e+003, 4.813701e+002
3.429944e+003, 4.797885e+002
3.431872e+003, 4.807599e+002
3.433801e+003, 4.856793e+002
3.435729e+003, 4.914833e+002
3.437658e+003, 4.923319e+002
3.439586e+003, 4.932864e+002
3.441515e+003, 4.993180e+002
3.443443e+003, 5.111883e+002
3.445372e+003, 5.116780e+002
3.447300e+003, 5.141219e+002
3.449229e+003, 5.220472e+002
3.451157e+003, 5.331317e+002
3.453085e+003, 5.410951e+002
3.455014e+003, 5.472220e+002
3.456942e+003, 5.512607e+002
##END=



