##NAMES=Holtite
##RRUFFID=R061049
##IDEAL CHEMISTRY=(Ta_0.6_[box]_0.4_)Al_6_BSi_3_O_18_
##LOCALITY=Kola Peninsula, U.S.S.R.
##OWNER=RRUFF
##SOURCE=Michael Scott
##DESCRIPTION=Blocky crystals; as pseudohexagonal elongated needles, light buff to cream-buff or deep olive-buff in color. Crystals are twinned by a 2-fold rotation around [010].
##STATUS=The identification of this mineral has been confirmed only by single crystal X-ray diffraction
##URL=https://www.rruff.net/odr/rruff_sample/R061049
##DIFFRACTION SAMPLE DESCRIPTION=Single crystal, powder profile is calculated
##CELL PARAMETERS=a: 4.6918 b: 11.88 c: 20.372 alpha: 90 beta: 90 gamma: 90 volume: 1135.5 crystal system: orthorhombic
##FILETYPE=Raman RAW
##RAMAN WAVELENGTH=532

198.1450, 9552.274
200.0735, 9601.391
202.0020, 9644.114
203.9304, 9694.286
205.8589, 9757.533
207.7874, 9814.902
209.7158, 9857.393
211.6443, 9879.163
213.5728, 9913.402
215.5012, 9978.073
217.4297, 10047.11
219.3582, 10090.01
221.2866, 10086.43
223.2151, 10084.58
225.1436, 10102.41
227.0720, 10151.69
229.0005, 10193.61
230.9290, 10226.58
232.8574, 10251.88
234.7859, 10272.36
236.7144, 10291.63
238.6428, 10301.95
240.5713, 10293.60
242.4998, 10254.99
244.4282, 10235.74
246.3567, 10256.63
248.2852, 10303.00
250.2136, 10342.20
252.1421, 10367.22
254.0706, 10389.68
255.9990, 10416.27
257.9275, 10449.07
259.8560, 10476.38
261.7844, 10491.97
263.7129, 10498.54
265.6414, 10508.79
267.5698, 10514.63
269.4983, 10529.32
271.4268, 10568.75
273.3552, 10643.32
275.2837, 10698.82
277.2122, 10712.08
279.1406, 10688.76
281.0691, 10680.76
282.9976, 10701.36
284.9260, 10726.11
286.8545, 10739.57
288.7830, 10738.04
290.7114, 10736.27
292.6399, 10738.08
294.5684, 10743.07
296.4968, 10746.28
298.4253, 10748.45
300.3538, 10748.25
302.2822, 10745.46
304.2107, 10740.10
306.1392, 10731.62
308.0676, 10715.31
309.9961, 10693.59
311.9246, 10683.68
313.8530, 10700.57
315.7815, 10717.00
317.7100, 10715.27
319.6384, 10674.67
321.5669, 10649.54
323.4954, 10651.13
325.4238, 10676.42
327.3523, 10701.70
329.2808, 10725.21
331.2092, 10750.36
333.1377, 10779.30
335.0662, 10819.01
336.9946, 10852.71
338.9231, 10872.15
340.8516, 10884.39
342.7800, 10908.87
344.7085, 10964.30
346.6370, 11015.21
348.5654, 11043.01
350.4939, 11014.00
352.4224, 11011.44
354.3508, 11059.96
356.2793, 11133.68
358.2078, 11182.81
360.1362, 11174.84
362.0647, 11172.04
363.9932, 11204.86
365.9216, 11305.93
367.8501, 11369.97
369.7786, 11368.07
371.7070, 11333.83
373.6355, 11313.24
375.5640, 11315.61
377.4924, 11324.60
379.4209, 11336.50
381.3494, 11352.09
383.2778, 11367.81
385.2063, 11384.01
387.1348, 11400.14
389.0632, 11416.06
390.9917, 11435.48
392.9202, 11449.39
394.8486, 11449.97
396.7771, 11437.44
398.7056, 11439.37
400.6340, 11461.12
402.5625, 11495.26
404.4910, 11537.38
406.4194, 11602.38
408.3479, 11650.99
410.2764, 11668.00
412.2048, 11661.23
414.1333, 11668.74
416.0618, 11710.21
417.9902, 11745.16
419.9187, 11751.30
421.8472, 11703.91
423.7756, 11678.25
425.7041, 11694.72
427.6326, 11731.10
429.5610, 11747.43
431.4895, 11735.02
433.4180, 11716.00
435.3464, 11698.51
437.2749, 11683.18
439.2034, 11666.54
441.1318, 11646.38
443.0603, 11626.23
444.9888, 11609.83
446.9172, 11598.59
448.8457, 11587.04
450.7742, 11570.25
452.7026, 11549.50
454.6311, 11540.08
456.5596, 11540.42
458.4880, 11551.36
460.4165, 11576.91
462.3450, 11618.06
464.2734, 11658.35
466.2019, 11695.89
468.1304, 11730.29
470.0588, 11760.36
471.9873, 11781.41
473.9158, 11803.42
475.8442, 11827.37
477.7727, 11853.48
479.7012, 11885.74
481.6296, 11943.00
483.5581, 11995.23
485.4866, 12020.28
487.4150, 12000.23
489.3435, 11983.50
491.2720, 11968.21
493.2004, 11960.47
495.1289, 11972.50
497.0574, 12031.25
498.9858, 12081.12
500.9143, 12099.46
502.8428, 12076.63
504.7712, 12062.16
506.6997, 12056.39
508.6282, 12059.61
510.5566, 12071.29
512.4851, 12094.81
514.4136, 12119.76
516.3420, 12154.50
518.2705, 12191.22
520.1990, 12198.19
522.1274, 12150.13
524.0559, 12101.80
525.9844, 12074.18
527.9128, 12066.32
529.8413, 12073.46
531.7698, 12102.42
533.6982, 12141.16
535.6267, 12178.84
537.5552, 12213.43
539.4836, 12251.24
541.4121, 12288.96
543.3406, 12330.89
545.2690, 12388.62
547.1975, 12500.40
549.1260, 12592.97
551.0544, 12631.77
552.9829, 12603.11
554.9114, 12604.53
556.8398, 12669.00
558.7683, 12745.05
560.6968, 12794.68
562.6252, 12806.83
564.5537, 12816.27
566.4822, 12829.39
568.4106, 12843.95
570.3391, 12854.55
572.2676, 12863.02
574.1960, 12865.64
576.1245, 12861.71
578.0530, 12851.64
579.9814, 12832.70
581.9099, 12801.39
583.8384, 12763.75
585.7668, 12717.88
587.6953, 12655.89
589.6238, 12614.88
591.5522, 12623.71
593.4807, 12647.55
595.4092, 12645.10
597.3376, 12598.71
599.2661, 12551.40
601.1946, 12509.27
603.1230, 12473.10
605.0515, 12444.19
606.9800, 12419.41
608.9084, 12405.15
610.8369, 12409.31
612.7654, 12432.66
614.6938, 12446.21
616.6223, 12437.30
618.5508, 12424.19
620.4792, 12421.01
622.4077, 12431.06
624.3362, 12440.96
626.2646, 12452.23
628.1931, 12461.03
630.1216, 12461.55
632.0500, 12445.17
633.9785, 12433.72
635.9070, 12434.04
637.8354, 12444.56
639.7639, 12453.99
641.6924, 12465.65
643.6208, 12472.78
645.5493, 12467.82
647.4778, 12451.40
649.4063, 12445.61
651.3347, 12463.37
653.2632, 12485.28
655.1917, 12499.23
657.1201, 12502.05
659.0486, 12504.83
660.9771, 12509.68
662.9055, 12514.14
664.8340, 12513.61
666.7625, 12500.07
668.6909, 12500.17
670.6194, 12529.56
672.5479, 12577.22
674.4763, 12606.34
676.4048, 12595.99
678.3333, 12593.59
680.2617, 12624.54
682.1902, 12678.10
684.1187, 12713.22
686.0471, 12706.68
687.9756, 12698.80
689.9041, 12707.10
691.8325, 12736.43
693.7610, 12763.67
695.6895, 12793.63
697.6179, 12818.04
699.5464, 12827.81
701.4749, 12820.61
703.4033, 12818.87
705.3318, 12831.33
707.2603, 12849.79
709.1887, 12866.16
711.1172, 12879.54
713.0457, 12891.81
714.9741, 12894.80
716.9026, 12899.09
718.8311, 12924.70
720.7595, 12988.63
722.6880, 13038.46
724.6165, 13053.09
726.5449, 13039.01
728.4734, 13027.37
730.4019, 13012.50
732.3303, 13005.65
734.2588, 13010.88
736.1873, 13027.92
738.1157, 13053.84
740.0442, 13101.74
741.9727, 13142.58
743.9011, 13160.74
745.8296, 13150.94
747.7581, 13147.25
749.6865, 13147.84
751.6150, 13155.68
753.5435, 13176.34
755.4719, 13211.22
757.4004, 13241.79
759.3289, 13265.83
761.2573, 13283.94
763.1858, 13294.71
765.1143, 13291.61
767.0427, 13299.89
768.9712, 13329.75
770.8997, 13367.61
772.8281, 13398.92
774.7566, 13426.74
776.6851, 13441.67
778.6135, 13418.73
780.5420, 13390.49
782.4705, 13401.40
784.3989, 13476.78
786.3274, 13541.62
788.2559, 13576.90
790.1843, 13592.02
792.1128, 13608.00
794.0413, 13624.58
795.9697, 13642.20
797.8982, 13658.88
799.8267, 13677.07
801.7551, 13702.42
803.6836, 13740.57
805.6121, 13776.74
807.5405, 13806.38
809.4690, 13830.30
811.3975, 13853.12
813.3259, 13875.29
815.2544, 13896.07
817.1829, 13913.42
819.1113, 13928.85
821.0398, 13946.64
822.9683, 13960.78
824.8967, 13987.48
826.8252, 14045.26
828.7537, 14132.64
830.6821, 14178.60
832.6106, 14139.03
834.5391, 14104.90
836.4675, 14112.00
838.3960, 14157.54
840.3245, 14201.74
842.2529, 14246.08
844.1814, 14285.40
846.1099, 14313.17
848.0383, 14330.21
849.9668, 14358.24
851.8953, 14424.52
853.8237, 14477.08
855.7522, 14482.46
857.6807, 14437.96
859.6091, 14430.17
861.5376, 14482.05
863.4661, 14547.45
865.3945, 14619.02
867.3230, 14692.75
869.2515, 14727.38
871.1799, 14670.86
873.1084, 14620.87
875.0369, 14625.07
876.9653, 14690.30
878.8938, 14732.09
880.8223, 14736.69
882.7507, 14733.46
884.6792, 14729.14
886.6077, 14725.77
888.5361, 14739.49
890.4646, 14784.54
892.3931, 14831.73
894.3215, 14865.23
896.2500, 14883.67
898.1785, 14913.13
900.1069, 14977.88
902.0354, 15028.79
903.9639, 15035.15
905.8923, 15001.43
907.8208, 14992.24
909.7493, 15015.69
911.6777, 15054.39
913.6062, 15112.43
915.5347, 15183.23
917.4631, 15229.79
919.3916, 15225.11
921.3201, 15223.40
923.2485, 15238.53
925.1770, 15269.97
927.1055, 15312.35
929.0339, 15383.71
930.9624, 15443.80
932.8909, 15473.86
934.8193, 15483.77
936.7478, 15497.94
938.6763, 15520.15
940.6047, 15541.43
942.5332, 15554.80
944.4617, 15565.08
946.3901, 15585.92
948.3186, 15638.01
950.2471, 15675.69
952.1755, 15687.37
954.1040, 15681.84
956.0325, 15674.05
957.9609, 15659.39
959.8894, 15655.15
961.8179, 15677.27
963.7463, 15707.93
965.6748, 15724.64
967.6033, 15721.89
969.5317, 15719.27
971.4602, 15718.82
973.3887, 15720.53
975.3171, 15726.05
977.2456, 15742.06
979.1741, 15745.14
981.1025, 15715.32
983.0310, 15685.57
984.9595, 15684.79
986.8879, 15712.71
988.8164, 15740.78
990.7449, 15760.59
992.6733, 15783.10
994.6018, 15818.22
996.5303, 15870.85
998.4587, 15905.34
1000.387, 15905.39
1002.316, 15905.12
1004.244, 15921.97
1006.173, 15953.64
1008.101, 15973.96
1010.030, 15975.76
1011.958, 15976.69
1013.886, 15981.89
1015.815, 15991.50
1017.743, 16006.73
1019.672, 16027.27
1021.600, 16054.77
1023.529, 16097.43
1025.457, 16144.82
1027.386, 16178.17
1029.314, 16181.72
1031.243, 16192.65
1033.171, 16217.67
1035.100, 16247.89
1037.028, 16273.95
1038.957, 16295.93
1040.885, 16315.03
1042.813, 16324.93
1044.742, 16338.18
1046.670, 16367.11
1048.599, 16414.29
1050.527, 16446.66
1052.456, 16442.48
1054.384, 16442.46
1056.313, 16463.67
1058.241, 16505.17
1060.170, 16549.28
1062.098, 16604.46
1064.027, 16651.92
1065.955, 16685.46
1067.884, 16707.43
1069.812, 16721.88
1071.740, 16725.00
1073.669, 16731.89
1075.597, 16743.97
1077.526, 16763.90
1079.454, 16799.09
1081.383, 16863.71
1083.311, 16904.53
1085.240, 16893.26
1087.168, 16879.41
1089.097, 16902.25
1091.025, 16968.34
1092.954, 17014.04
1094.882, 17016.26
1096.811, 17022.59
1098.739, 17066.49
1100.667, 17131.08
1102.596, 17163.95
1104.524, 17139.78
1106.453, 17131.81
1108.381, 17169.99
1110.310, 17235.81
1112.238, 17301.83
1114.167, 17369.26
1116.095, 17434.34
1118.024, 17513.72
1119.952, 17578.56
1121.881, 17593.55
1123.809, 17548.18
1125.738, 17537.20
1127.666, 17597.43
1129.594, 17656.95
1131.523, 17675.46
1133.451, 17665.81
1135.380, 17660.08
1137.308, 17648.11
1139.237, 17666.79
1141.165, 17760.55
1143.094, 17877.71
1145.022, 17938.53
1146.951, 17909.62
1148.879, 17894.63
1150.808, 17909.06
1152.736, 17931.01
1154.665, 17942.81
1156.593, 17942.86
1158.521, 17955.99
1160.450, 17986.59
1162.378, 18025.01
1164.307, 18083.47
1166.235, 18144.48
1168.164, 18163.95
1170.092, 18119.57
1172.021, 18095.26
1173.949, 18140.46
1175.878, 18201.62
1177.806, 18225.57
1179.735, 18197.57
1181.663, 18191.31
1183.592, 18207.36
1185.520, 18247.44
1187.448, 18336.43
1189.377, 18461.57
1191.305, 18524.48
1193.234, 18478.68
1195.162, 18448.36
1197.091, 18469.59
1199.019, 18517.38
1200.948, 18561.98
1202.876, 18604.13
1204.805, 18638.11
1206.733, 18658.31
1208.662, 18674.89
1210.590, 18692.21
1212.519, 18710.56
1214.447, 18731.92
1216.375, 18751.41
1218.304, 18782.03
1220.232, 18836.47
1222.161, 18899.20
1224.089, 18947.75
1226.018, 18976.08
1227.946, 19001.23
1229.875, 19007.27
1231.803, 19024.72
1233.732, 19086.22
1235.660, 19181.08
1237.589, 19240.00
1239.517, 19246.34
1241.446, 19247.71
1243.374, 19254.54
1245.302, 19268.62
1247.231, 19292.71
1249.159, 19327.63
1251.088, 19366.71
1253.016, 19422.42
1254.945, 19467.18
1256.873, 19481.56
1258.802, 19470.51
1260.730, 19470.21
1262.659, 19495.54
1264.587, 19511.63
1266.516, 19487.37
1268.444, 19468.49
1270.373, 19514.84
1272.301, 19646.58
1274.229, 19741.99
1276.158, 19778.63
1278.086, 19801.56
1280.015, 19821.67
1281.943, 19842.10
1283.872, 19872.16
1285.800, 19917.24
1287.729, 19949.57
1289.657, 19943.44
1291.586, 19939.06
1293.514, 19965.78
1295.443, 20021.85
1297.371, 20082.10
1299.300, 20156.96
1301.228, 20216.19
1303.156, 20236.04
1305.085, 20243.84
1307.013, 20280.80
1308.942, 20369.95
1310.870, 20431.16
1312.799, 20454.78
1314.727, 20463.00
1316.656, 20451.29
1318.584, 20430.70
1320.513, 20445.39
1322.441, 20514.76
1324.370, 20568.52
1326.298, 20577.39
1328.227, 20579.88
1330.155, 20608.90
1332.083, 20659.37
1334.012, 20705.06
1335.940, 20740.93
1337.869, 20778.62
1339.797, 20831.36
1341.726, 20883.02
1343.654, 20910.58
1345.583, 20911.00
1347.511, 20925.88
1349.440, 20972.65
1351.368, 21018.74
1353.297, 21052.36
1355.225, 21076.85
1357.154, 21098.41
1359.082, 21111.16
1361.010, 21134.01
1362.939, 21164.17
1364.867, 21207.33
1366.796, 21287.71
1368.724, 21389.79
1370.653, 21427.69
1372.581, 21347.44
1374.510, 21308.89
1376.438, 21362.83
1378.367, 21440.27
1380.295, 21485.31
1382.224, 21504.02
1384.152, 21541.16
1386.081, 21611.71
1388.009, 21670.10
1389.938, 21692.09
1391.866, 21701.71
1393.794, 21724.71
1395.723, 21759.10
1397.651, 21772.92
1399.580, 21737.26
1401.508, 21730.12
1403.437, 21817.40
1405.365, 21927.19
1407.294, 21964.69
1409.222, 21917.65
1411.151, 21904.59
1413.079, 21956.86
1415.008, 22017.66
1416.936, 22082.84
1418.865, 22140.32
1420.793, 22166.23
1422.721, 22137.20
1424.650, 22139.44
1426.578, 22196.21
1428.507, 22254.25
1430.435, 22292.10
1432.364, 22318.32
1434.292, 22350.30
1436.221, 22391.00
1438.149, 22428.83
1440.078, 22461.97
1442.006, 22494.03
1443.935, 22533.58
1445.863, 22571.56
1447.792, 22580.72
1449.720, 22551.13
1451.648, 22553.08
1453.577, 22629.35
1455.505, 22700.83
1457.434, 22719.95
1459.362, 22709.52
1461.291, 22709.64
1463.219, 22720.41
1465.148, 22745.38
1467.076, 22791.60
1469.005, 22843.60
1470.933, 22901.59
1472.862, 22957.17
1474.790, 22993.38
1476.719, 23008.19
1478.647, 23015.10
1480.575, 23001.91
1482.504, 23000.87
1484.432, 23038.40
1486.361, 23093.20
1488.289, 23112.19
1490.218, 23074.62
1492.146, 23095.88
1494.075, 23269.21
1496.003, 23407.71
1497.932, 23418.62
1499.860, 23365.69
1501.789, 23357.57
1503.717, 23410.80
1505.646, 23456.40
1507.574, 23492.74
1509.502, 23522.97
1511.431, 23550.35
1513.359, 23570.98
1515.288, 23572.82
1517.216, 23545.49
1519.145, 23554.24
1521.073, 23623.10
1523.002, 23693.45
1524.930, 23760.89
1526.859, 23816.45
1528.787, 23842.83
1530.716, 23838.27
1532.644, 23855.74
1534.573, 23929.41
1536.501, 23971.51
1538.429, 23925.07
1540.358, 23873.83
1542.286, 23897.61
1544.215, 23985.23
1546.143, 24051.03
1548.072, 24088.01
1550.000, 24121.95
1551.929, 24158.10
1553.857, 24192.75
1555.786, 24229.89
1557.714, 24262.54
1559.643, 24267.65
1561.571, 24236.96
1563.500, 24225.17
1565.428, 24245.15
1567.356, 24281.65
1569.285, 24329.20
1571.213, 24388.20
1573.142, 24469.02
1575.070, 24572.46
1576.999, 24635.93
1578.927, 24629.21
1580.856, 24625.68
1582.784, 24678.58
1584.713, 24730.31
1586.641, 24708.44
1588.570, 24629.53
1590.498, 24608.45
1592.427, 24672.61
1594.355, 24733.90
1596.283, 24764.90
1598.212, 24787.29
1600.140, 24804.96
1602.069, 24826.54
1603.997, 24882.38
1605.926, 24981.44
1607.854, 25060.28
1609.783, 25105.59
1611.711, 25131.55
1613.640, 25128.18
1615.568, 25118.97
1617.497, 25145.82
1619.425, 25207.68
1621.354, 25227.40
1623.282, 25174.71
1625.210, 25133.54
1627.139, 25126.85
1629.067, 25144.55
1630.996, 25190.88
1632.924, 25257.13
1634.853, 25304.70
1636.781, 25326.54
1638.710, 25358.72
1640.638, 25424.65
1642.567, 25478.51
1644.495, 25484.89
1646.424, 25477.20
1648.352, 25509.74
1650.281, 25583.26
1652.209, 25632.20
1654.137, 25634.33
1656.066, 25650.89
1657.994, 25720.77
1659.923, 25789.65
1661.851, 25821.56
1663.780, 25824.04
1665.708, 25819.59
1667.637, 25802.77
1669.565, 25807.91
1671.494, 25849.11
1673.422, 25898.65
1675.351, 25953.61
1677.279, 26006.40
1679.208, 26049.91
1681.136, 26084.21
1683.064, 26104.98
1684.993, 26101.40
1686.921, 26116.74
1688.850, 26186.22
1690.778, 26245.28
1692.707, 26251.86
1694.635, 26232.51
1696.564, 26231.75
1698.492, 26250.01
1700.421, 26275.19
1702.349, 26308.64
1704.278, 26343.92
1706.206, 26389.83
1708.135, 26426.05
1710.063, 26426.79
1711.991, 26409.89
1713.920, 26431.08
1715.848, 26496.38
1717.777, 26538.54
1719.705, 26531.69
1721.634, 26535.30
1723.562, 26583.73
1725.491, 26640.04
1727.419, 26678.40
1729.348, 26700.86
1731.276, 26711.33
1733.205, 26707.42
1735.133, 26709.85
1737.062, 26721.09
1738.990, 26740.76
1740.918, 26768.61
1742.847, 26805.23
1744.775, 26856.32
1746.704, 26916.83
1748.632, 26966.96
1750.561, 27005.06
1752.489, 27037.83
1754.418, 27061.03
1756.346, 27088.42
1758.275, 27142.11
1760.203, 27190.61
1762.132, 27198.69
1764.060, 27175.00
1765.989, 27146.20
1767.917, 27106.09
1769.845, 27105.69
1771.774, 27172.76
1773.702, 27251.71
1775.631, 27341.82
1777.559, 27414.14
1779.488, 27424.04
1781.416, 27388.37
1783.345, 27372.83
1785.273, 27376.96
1787.202, 27410.33
1789.130, 27506.60
1791.059, 27585.84
1792.987, 27612.89
1794.916, 27615.97
1796.844, 27611.72
1798.772, 27605.21
1800.701, 27618.31
1802.629, 27653.33
1804.558, 27696.84
1806.486, 27756.21
1808.415, 27812.92
1810.343, 27861.48
1812.272, 27906.28
1814.200, 27960.26
1816.129, 28011.53
1818.057, 28023.82
1819.986, 27986.29
1821.914, 27954.45
1823.843, 27892.85
1825.771, 27889.34
1827.699, 28006.79
1829.628, 28131.67
1831.556, 28208.82
1833.485, 28242.83
1835.413, 28231.76
1837.342, 28170.24
1839.270, 28130.37
1841.199, 28106.10
1843.127, 28116.85
1845.056, 28202.87
1846.984, 28278.63
1848.913, 28294.28
1850.841, 28296.85
1852.770, 28346.39
1854.698, 28430.91
1856.626, 28484.96
1858.555, 28505.02
1860.483, 28508.51
1862.412, 28481.73
1864.340, 28472.48
1866.269, 28517.10
1868.197, 28565.16
1870.126, 28570.86
1872.054, 28559.20
1873.983, 28582.74
1875.911, 28638.44
1877.840, 28661.68
1879.768, 28629.69
1881.697, 28626.50
1883.625, 28684.01
1885.553, 28758.95
1887.482, 28862.59
1889.410, 28949.57
1891.339, 28950.21
1893.267, 28888.86
1895.196, 28876.61
1897.124, 28926.30
1899.053, 28967.73
1900.981, 28989.89
1902.910, 29016.67
1904.838, 29054.57
1906.767, 29095.99
1908.695, 29143.75
1910.624, 29187.91
1912.552, 29214.67
1914.480, 29224.01
1916.409, 29209.07
1918.337, 29140.16
1920.266, 29134.82
1922.194, 29266.07
1924.123, 29360.94
1926.051, 29334.72
1927.980, 29298.06
1929.908, 29335.40
1931.837, 29405.76
1933.765, 29427.83
1935.694, 29408.85
1937.622, 29419.37
1939.551, 29469.02
1941.479, 29517.10
1943.407, 29563.53
1945.336, 29592.58
1947.264, 29580.05
1949.193, 29565.49
1951.121, 29578.04
1953.050, 29608.91
1954.978, 29644.74
1956.907, 29685.25
1958.835, 29723.79
1960.764, 29761.54
1962.692, 29793.96
1964.621, 29812.36
1966.549, 29837.19
1968.478, 29885.23
1970.406, 29930.02
1972.334, 29948.21
1974.263, 29952.74
1976.191, 29965.34
1978.120, 29985.87
1980.048, 30010.28
1981.977, 30044.39
1983.905, 30056.77
1985.834, 30019.01
1987.762, 30010.60
1989.691, 30084.41
1991.619, 30157.95
1993.548, 30170.20
1995.476, 30164.50
1997.405, 30199.15
1999.333, 30260.11
2001.261, 30297.58
2003.190, 30309.26
2005.118, 30311.70
2007.047, 30290.75
2008.975, 30299.63
2010.904, 30394.20
2012.832, 30464.95
2014.761, 30434.25
2016.689, 30384.46
2018.618, 30397.47
2020.546, 30450.58
2022.475, 30484.96
2024.403, 30498.36
2026.332, 30532.71
2028.260, 30602.07
2030.188, 30652.13
2032.117, 30668.75
2034.045, 30681.91
2035.974, 30706.43
2037.902, 30722.41
2039.831, 30706.88
2041.759, 30685.42
2043.688, 30681.79
2045.616, 30698.15
2047.545, 30756.42
2049.473, 30857.79
2051.402, 30898.33
2053.330, 30841.68
2055.259, 30807.28
2057.187, 30823.51
2059.115, 30855.85
2061.044, 30908.27
2062.972, 30956.35
2064.901, 30972.30
2066.829, 30979.28
2068.758, 31019.08
2070.686, 31083.77
2072.615, 31128.38
2074.543, 31155.40
2076.472, 31128.58
2078.400, 31008.51
2080.329, 30962.39
2082.257, 31067.10
2084.186, 31167.82
2086.114, 31193.22
2088.042, 31201.39
2089.971, 31232.25
2091.899, 31270.71
2093.828, 31295.80
2095.756, 31310.71
2097.685, 31328.94
2099.613, 31351.73
2101.542, 31368.85
2103.470, 31365.44
2105.399, 31381.71
2107.327, 31445.76
2109.256, 31489.77
2111.184, 31483.87
2113.113, 31470.14
2115.041, 31457.68
2116.969, 31460.79
2118.898, 31509.94
2120.826, 31581.33
2122.755, 31616.30
2124.683, 31619.10
2126.612, 31628.91
2128.540, 31647.87
2130.469, 31673.62
2132.397, 31708.77
2134.326, 31744.74
2136.254, 31800.85
2138.183, 31828.76
2140.111, 31781.79
2142.040, 31728.66
2143.968, 31721.40
2145.896, 31740.60
2147.825, 31756.39
2149.753, 31773.32
2151.682, 31819.00
2153.610, 31892.15
2155.539, 31942.01
2157.467, 31966.23
2159.396, 31957.25
2161.324, 31883.75
2163.253, 31852.04
2165.181, 31937.49
2167.110, 32013.93
2169.038, 32003.44
2170.967, 31984.84
2172.895, 32037.28
2174.823, 32111.13
2176.752, 32118.43
2178.680, 32081.65
2180.609, 32101.21
2182.537, 32177.96
2184.466, 32237.29
2186.394, 32276.69
2188.323, 32295.21
2190.251, 32279.80
2192.180, 32284.30
2194.108, 32342.48
2196.037, 32392.61
2197.965, 32410.41
2199.894, 32409.87
2201.822, 32388.05
2203.750, 32363.34
2205.679, 32349.89
2207.607, 32353.07
2209.536, 32396.31
2211.464, 32475.67
2213.393, 32520.78
2215.321, 32529.19
2217.250, 32548.33
2219.178, 32587.92
2221.107, 32605.79
2223.035, 32579.38
2224.964, 32565.12
2226.892, 32592.88
2228.821, 32620.74
2230.749, 32632.96
2232.677, 32634.93
2234.606, 32618.77
2236.534, 32604.11
2238.463, 32620.36
2240.391, 32657.23
2242.320, 32683.88
2244.248, 32703.86
2246.177, 32755.38
2248.105, 32840.12
2250.034, 32868.64
2251.962, 32818.61
2253.891, 32784.97
2255.819, 32790.13
2257.748, 32800.84
2259.676, 32815.59
2261.604, 32826.05
2263.533, 32818.10
2265.461, 32818.07
2267.390, 32857.05
2269.318, 32898.43
2271.247, 32894.43
2273.175, 32873.98
2275.104, 32893.65
2277.032, 32938.10
2278.961, 32960.29
2280.889, 32960.57
2282.818, 32954.33
2284.746, 32935.86
2286.675, 32939.28
2288.603, 32984.44
2290.531, 33018.46
2292.460, 33033.05
2294.388, 33047.42
2296.317, 33053.11
2298.245, 33079.02
2300.174, 33175.63
2302.102, 33243.74
2304.031, 33167.25
2305.959, 33086.29
2307.888, 33169.92
2309.816, 33309.07
2311.745, 33321.90
2313.673, 33254.16
2315.602, 33247.01
2317.530, 33295.83
2319.458, 33322.53
2321.387, 33325.82
2323.315, 33327.03
2325.244, 33324.75
2327.172, 33343.68
2329.101, 33400.35
2331.029, 33431.36
2332.958, 33404.34
2334.886, 33380.67
2336.815, 33371.21
2338.743, 33376.41
2340.672, 33410.46
2342.600, 33442.39
2344.529, 33445.49
2346.457, 33444.54
2348.385, 33472.00
2350.314, 33501.72
2352.242, 33483.43
2354.171, 33446.91
2356.099, 33464.36
2358.028, 33522.83
2359.956, 33552.46
2361.885, 33551.71
2363.813, 33563.04
2365.742, 33591.39
2367.670, 33606.41
2369.599, 33603.61
2371.527, 33606.93
2373.456, 33626.68
2375.384, 33624.54
2377.313, 33556.79
2379.241, 33536.80
2381.169, 33664.39
2383.098, 33757.59
2385.026, 33697.93
2386.955, 33636.91
2388.883, 33679.84
2390.812, 33741.86
2392.740, 33759.57
2394.669, 33752.51
2396.597, 33727.02
2398.526, 33702.02
2400.454, 33711.32
2402.383, 33744.79
2404.311, 33778.02
2406.240, 33809.91
2408.168, 33831.12
2410.096, 33841.02
2412.025, 33850.42
2413.953, 33859.07
2415.882, 33874.04
2417.810, 33899.03
2419.739, 33900.88
2421.667, 33859.53
2423.596, 33846.45
2425.524, 33904.38
2427.453, 33943.25
2429.381, 33937.77
2431.310, 33926.18
2433.238, 33906.88
2435.167, 33901.13
2437.095, 33930.45
2439.023, 33956.43
2440.952, 33961.30
2442.880, 33948.01
2444.809, 33886.21
2446.737, 33839.52
2448.666, 33914.85
2450.594, 34016.72
2452.523, 33974.77
2454.451, 33872.71
2456.380, 33903.48
2458.308, 34012.26
2460.237, 34042.76
2462.165, 34011.18
2464.094, 33998.03
2466.022, 34004.03
2467.950, 34033.14
2469.879, 34093.60
2471.807, 34109.99
2473.736, 34070.41
2475.664, 34073.82
2477.593, 34137.65
2479.521, 34157.33
2481.450, 34095.25
2483.378, 34080.92
2485.307, 34193.59
2487.235, 34254.77
2489.164, 34194.66
2491.092, 34147.02
2493.021, 34151.51
2494.949, 34148.79
2496.877, 34097.93
2498.806, 34076.55
2500.734, 34133.23
2502.663, 34213.80
2504.591, 34318.25
2506.520, 34399.05
2508.448, 34427.45
2510.377, 34412.92
2512.305, 34337.11
2514.234, 34248.47
2516.162, 34175.73
2518.091, 34139.33
2520.019, 34185.95
2521.948, 34269.76
2523.876, 34330.69
2525.804, 34364.81
2527.733, 34351.55
2529.661, 34307.41
2531.590, 34273.09
2533.518, 34257.26
2535.447, 34314.83
2537.375, 34426.29
2539.304, 34479.11
2541.232, 34472.73
2543.161, 34459.39
2545.089, 34435.69
2547.018, 34444.41
2548.946, 34487.73
2550.875, 34552.89
2552.803, 34645.32
2554.731, 34646.62
2556.660, 34521.72
2558.588, 34447.18
2560.517, 34469.11
2562.445, 34482.42
2564.374, 34485.23
2566.302, 34471.46
2568.231, 34428.98
2570.159, 34408.71
2572.088, 34425.20
2574.016, 34450.95
2575.945, 34481.14
2577.873, 34515.02
2579.802, 34584.86
2581.730, 34603.96
2583.658, 34483.47
2585.587, 34431.51
2587.515, 34573.62
2589.444, 34674.69
2591.372, 34568.33
2593.301, 34487.66
2595.229, 34572.29
2597.158, 34663.98
2599.086, 34696.20
2601.015, 34689.82
2602.943, 34624.90
2604.872, 34568.23
2606.800, 34557.68
2608.729, 34575.52
2610.657, 34629.84
2612.585, 34682.52
2614.514, 34712.84
2616.442, 34715.20
2618.371, 34655.23
2620.299, 34596.21
2622.228, 34611.12
2624.156, 34641.02
2626.085, 34604.50
2628.013, 34568.25
2629.942, 34634.38
2631.870, 34729.91
2633.799, 34764.26
2635.727, 34759.02
2637.656, 34717.56
2639.584, 34678.31
2641.512, 34714.14
2643.441, 34775.38
2645.369, 34766.23
2647.298, 34730.14
2649.226, 34755.08
2651.155, 34813.36
2653.083, 34852.58
2655.012, 34878.59
2656.940, 34915.15
2658.869, 34941.81
2660.797, 34892.05
2662.726, 34802.04
2664.654, 34756.32
2666.583, 34755.66
2668.511, 34830.82
2670.439, 34942.19
2672.368, 34983.61
2674.296, 34973.24
2676.225, 34955.27
2678.153, 34935.84
2680.082, 34934.98
2682.010, 34953.01
2683.939, 35009.14
2685.867, 35081.24
2687.796, 35087.98
2689.724, 35047.37
2691.653, 35031.18
2693.581, 35028.06
2695.510, 34961.49
2697.438, 34861.43
2699.366, 34895.73
2701.295, 35016.07
2703.223, 35037.98
2705.152, 34985.61
2707.080, 34963.86
2709.009, 34964.24
2710.937, 34937.83
2712.866, 34895.77
2714.794, 34885.99
2716.723, 34905.68
2718.651, 34962.48
2720.580, 35034.46
2722.508, 35007.75
2724.437, 34917.92
2726.365, 34946.69
2728.293, 35053.09
2730.222, 35088.63
2732.150, 35067.82
2734.079, 35030.09
2736.007, 34990.88
2737.936, 35019.25
2739.864, 35090.41
2741.793, 35124.72
2743.721, 35123.06
2745.650, 35058.82
2747.578, 34973.16
2749.507, 34984.77
2751.435, 35054.95
2753.364, 35072.39
2755.292, 35064.49
2757.220, 35121.55
2759.149, 35197.57
2761.077, 35184.41
2763.006, 35128.08
2764.934, 35120.73
2766.863, 35139.30
2768.791, 35130.76
2770.720, 35119.77
2772.648, 35176.57
2774.577, 35239.87
2776.505, 35185.89
2778.434, 35108.66
2780.362, 35177.65
2782.291, 35286.63
2784.219, 35276.43
2786.147, 35227.95
2788.076, 35239.36
2790.004, 35260.30
2791.933, 35213.54
2793.861, 35169.41
2795.790, 35216.65
2797.718, 35288.41
2799.647, 35351.42
2801.575, 35376.39
2803.504, 35304.76
2805.432, 35228.85
2807.361, 35226.20
2809.289, 35240.97
2811.218, 35223.09
2813.146, 35225.60
2815.074, 35310.62
2817.003, 35377.88
2818.931, 35356.57
2820.860, 35325.54
2822.788, 35318.78
2824.717, 35318.09
2826.645, 35317.18
2828.574, 35320.68
2830.502, 35347.93
2832.431, 35350.86
2834.359, 35285.32
2836.288, 35245.52
2838.216, 35255.31
2840.145, 35278.23
2842.073, 35318.10
2844.001, 35333.72
2845.930, 35287.28
2847.858, 35272.52
2849.787, 35305.88
2851.715, 35333.18
2853.644, 35347.35
2855.572, 35366.62
2857.501, 35403.62
2859.429, 35396.20
2861.358, 35326.17
2863.286, 35303.07
2865.215, 35328.86
2867.143, 35349.50
2869.072, 35361.39
2871.000, 35355.22
2872.928, 35332.56
2874.857, 35339.87
2876.785, 35372.52
2878.714, 35408.00
2880.642, 35440.28
2882.571, 35448.28
2884.499, 35438.39
2886.428, 35423.11
2888.356, 35407.93
2890.285, 35405.17
2892.213, 35411.20
2894.142, 35426.13
2896.070, 35440.07
2897.999, 35443.84
2899.927, 35435.04
2901.855, 35406.52
2903.784, 35369.38
2905.712, 35306.83
2907.641, 35274.42
2909.569, 35356.45
2911.498, 35415.54
2913.426, 35344.98
2915.355, 35285.48
2917.283, 35294.80
2919.212, 35319.29
2921.140, 35355.83
2923.069, 35373.00
2924.997, 35355.14
2926.926, 35342.16
2928.854, 35335.99
2930.782, 35356.20
2932.711, 35418.44
2934.639, 35478.04
2936.568, 35540.64
2938.496, 35558.02
2940.425, 35528.00
2942.353, 35443.04
2944.282, 35305.14
2946.210, 35235.21
2948.139, 35231.77
2950.067, 35299.82
2951.996, 35413.05
2953.924, 35490.31
2955.853, 35538.79
2957.781, 35584.77
2959.709, 35604.38
2961.638, 35523.56
2963.566, 35426.26
2965.495, 35409.31
2967.423, 35416.73
2969.352, 35387.62
2971.280, 35376.29
2973.209, 35455.90
2975.137, 35507.74
2977.066, 35442.03
2978.994, 35399.66
2980.923, 35469.36
2982.851, 35506.71
2984.780, 35470.71
2986.708, 35445.92
2988.636, 35448.96
2990.565, 35457.23
2992.493, 35462.65
2994.422, 35497.39
2996.350, 35564.14
2998.279, 35570.03
3000.207, 35517.98
3002.136, 35493.34
3004.064, 35490.33
3005.993, 35461.79
3007.921, 35424.60
3009.850, 35442.52
3011.778, 35475.37
3013.707, 35441.24
3015.635, 35403.51
3017.563, 35459.44
3019.492, 35523.67
3021.420, 35546.25
3023.349, 35528.98
3025.277, 35429.79
3027.206, 35362.05
3029.134, 35393.63
3031.063, 35410.34
3032.991, 35369.77
3034.920, 35362.27
3036.848, 35445.81
3038.777, 35476.29
3040.705, 35441.66
3042.634, 35462.06
3044.562, 35539.18
3046.490, 35504.13
3048.419, 35378.26
3050.347, 35363.05
3052.276, 35423.63
3054.204, 35461.16
3056.133, 35477.59
3058.061, 35477.83
3059.990, 35456.41
3061.918, 35372.04
3063.847, 35310.00
3065.775, 35337.14
3067.704, 35395.27
3069.632, 35485.00
3071.561, 35543.31
3073.489, 35552.08
3075.417, 35531.99
3077.346, 35481.41
3079.274, 35421.41
3081.203, 35333.58
3083.131, 35320.22
3085.060, 35379.43
3086.988, 35470.03
3088.917, 35571.77
3090.845, 35569.96
3092.774, 35505.51
3094.702, 35480.63
3096.631, 35486.93
3098.559, 35530.60
3100.488, 35571.14
3102.416, 35573.12
3104.344, 35547.96
3106.273, 35469.27
3108.201, 35435.38
3110.130, 35558.99
3112.058, 35594.46
3113.987, 35458.13
3115.915, 35345.57
3117.844, 35271.43
3119.772, 35268.71
3121.701, 35341.75
3123.629, 35431.67
3125.558, 35527.41
3127.486, 35556.35
3129.415, 35542.92
3131.343, 35533.29
3133.271, 35523.51
3135.200, 35515.61
3137.128, 35494.47
3139.057, 35414.37
3140.985, 35374.04
3142.914, 35474.10
3144.842, 35527.02
3146.771, 35471.30
3148.699, 35450.27
3150.628, 35502.25
3152.556, 35537.40
3154.485, 35554.36
3156.413, 35486.41
3158.342, 35366.06
3160.270, 35365.11
3162.198, 35425.39
3164.127, 35407.16
3166.055, 35369.52
3167.984, 35380.27
3169.912, 35415.15
3171.841, 35493.71
3173.769, 35526.88
3175.698, 35444.91
3177.626, 35401.06
3179.555, 35446.92
3181.483, 35472.77
3183.412, 35462.09
3185.340, 35436.48
3187.269, 35401.19
3189.197, 35425.08
3191.125, 35470.92
3193.054, 35387.09
3194.982, 35273.88
3196.911, 35317.00
3198.839, 35382.57
3200.768, 35354.89
3202.696, 35322.23
3204.625, 35322.44
3206.553, 35342.48
3208.482, 35393.42
3210.410, 35410.34
3212.339, 35373.68
3214.267, 35348.70
3216.196, 35334.65
3218.124, 35322.07
3220.052, 35311.44
3221.981, 35312.79
3223.909, 35310.44
3225.838, 35261.00
3227.766, 35225.31
3229.695, 35253.66
3231.623, 35308.29
3233.552, 35411.54
3235.480, 35424.57
3237.409, 35275.00
3239.337, 35229.72
3241.266, 35327.66
3243.194, 35391.64
3245.123, 35420.70
3247.051, 35406.02
3248.979, 35365.02
3250.908, 35305.96
3252.836, 35271.43
3254.765, 35340.52
3256.693, 35386.08
3258.622, 35301.76
3260.550, 35242.46
3262.479, 35240.33
3264.407, 35277.03
3266.336, 35364.26
3268.264, 35359.46
3270.193, 35272.36
3272.121, 35252.98
3274.050, 35269.23
3275.978, 35257.91
3277.906, 35233.59
3279.835, 35200.32
3281.763, 35180.77
3283.692, 35199.80
3285.620, 35210.33
3287.549, 35197.22
3289.477, 35178.51
3291.406, 35155.06
3293.334, 35139.61
3295.263, 35132.43
3297.191, 35124.76
3299.120, 35131.85
3301.048, 35217.53
3302.977, 35288.70
3304.905, 35223.80
3306.833, 35163.27
3308.762, 35163.60
3310.690, 35188.14
3312.619, 35257.54
3314.547, 35250.43
3316.476, 35168.04
3318.404, 35200.95
3320.333, 35303.76
3322.261, 35292.69
3324.190, 35238.75
3326.118, 35243.32
3328.047, 35260.63
3329.975, 35278.20
3331.904, 35265.09
3333.832, 35203.20
3335.760, 35150.47
3337.689, 35115.17
3339.617, 35096.71
3341.546, 35092.77
3343.474, 35090.91
3345.403, 35089.38
3347.331, 35077.16
3349.260, 35074.77
3351.188, 35119.21
3353.117, 35145.84
3355.045, 35121.74
3356.974, 35096.05
3358.902, 35073.91
3360.831, 35071.36
3362.759, 35081.78
3364.688, 35046.35
3366.616, 34992.76
3368.544, 34969.81
3370.473, 34981.95
3372.401, 35065.10
3374.330, 35125.21
3376.258, 35111.86
3378.187, 35098.44
3380.115, 35097.67
3382.044, 35064.54
3383.972, 35003.27
3385.901, 34981.87
3387.829, 34984.61
3389.758, 34998.43
3391.686, 34995.05
3393.615, 34921.30
3395.543, 34871.88
3397.471, 34894.60
3399.400, 34896.06
3401.328, 34859.35
3403.257, 34850.55
3405.185, 34860.15
3407.114, 34835.04
3409.042, 34791.90
3410.971, 34737.02
3412.899, 34710.50
3414.828, 34748.45
3416.756, 34808.73
3418.685, 34902.01
3420.613, 34909.77
3422.542, 34820.56
3424.470, 34757.25
3426.398, 34709.34
3428.327, 34606.31
3430.255, 34528.61
3432.184, 34601.73
3434.112, 34660.35
3436.041, 34615.58
3437.969, 34598.62
3439.898, 34649.03
3441.826, 34655.55
3443.755, 34622.74
3445.683, 34594.28
3447.612, 34574.10
3449.540, 34585.10
3451.469, 34578.05
3453.397, 34489.83
3455.325, 34458.97
3457.254, 34591.50
3459.182, 34641.08
3461.111, 34608.36
3463.039, 34536.11
3464.968, 34463.75
3466.896, 34489.84
3468.825, 34545.19
3470.753, 34567.93
3472.682, 34605.61
3474.610, 34715.39
3476.539, 34707.83
3478.467, 34572.49
3480.396, 34552.83
3482.324, 34609.14
3484.252, 34580.46
3486.181, 34551.55
3488.109, 34628.02
3490.038, 34692.99
3491.966, 34692.87
3493.895, 34711.47
3495.823, 34766.89
3497.752, 34731.58
3499.680, 34645.41
3501.609, 34687.27
3503.537, 34767.09
3505.466, 34823.01
3507.394, 34818.12
3509.323, 34712.83
3511.251, 34668.27
3513.179, 34733.63
3515.108, 34688.47
3517.036, 34577.28
3518.965, 34540.21
3520.893, 34528.80
3522.822, 34505.49
3524.750, 34453.71
3526.679, 34333.34
3528.607, 34297.93
3530.536, 34365.03
3532.464, 34348.64
3534.393, 34264.35
3536.321, 34137.11
3538.250, 34027.63
3540.178, 33991.81
3542.106, 33986.21
3544.035, 34036.12
3545.963, 33995.03
3547.892, 33867.59
3549.820, 33811.47
3551.749, 33790.50
3553.677, 33712.95
3555.606, 33631.70
3557.534, 33571.89
3559.463, 33554.73
3561.391, 33600.13
3563.320, 33555.04
3565.248, 33428.81
3567.177, 33370.08
3569.105, 33369.27
3571.033, 33439.39
3572.962, 33507.48
3574.890, 33547.46
3576.819, 33528.96
3578.747, 33445.68
3580.676, 33411.07
3582.604, 33411.23
3584.533, 33382.67
3586.461, 33346.45
3588.390, 33334.98
3590.318, 33293.04
3592.247, 33195.52
3594.175, 33134.74
3596.104, 33118.16
3598.032, 33092.48
3599.960, 33065.05
3601.889, 33047.14
3603.817, 33035.52
3605.746, 33040.42
3607.674, 33013.40
3609.603, 32940.29
3611.531, 32907.64
3613.460, 32905.15
3615.388, 32896.25
3617.317, 32877.98
3619.245, 32834.23
3621.174, 32808.64
3623.102, 32820.44
3625.031, 32788.31
3626.959, 32717.46
3628.887, 32722.70
3630.816, 32765.95
3632.744, 32833.47
3634.673, 32839.11
3636.601, 32724.79
3638.530, 32670.92
3640.458, 32709.90
3642.387, 32668.95
3644.315, 32580.87
3646.244, 32486.49
3648.172, 32429.74
3650.101, 32457.59
3652.029, 32469.46
3653.958, 32434.29
3655.886, 32453.16
3657.814, 32495.68
3659.743, 32458.99
3661.671, 32408.63
3663.600, 32400.46
3665.528, 32402.75
3667.457, 32412.40
3669.385, 32401.98
3671.314, 32380.70
3673.242, 32414.82
3675.171, 32447.55
3677.099, 32417.64
3679.028, 32363.73
3680.956, 32286.22
3682.885, 32239.83
3684.813, 32232.16
3686.741, 32381.02
3688.670, 32502.83
3690.598, 32306.35
3692.527, 32144.09
3694.455, 32134.49
3696.384, 32172.77
3698.312, 32233.79
3700.241, 32148.56
3702.169, 32020.58
3704.098, 31953.76
3706.026, 31955.04
3707.955, 32048.29
3709.883, 32054.83
3711.812, 31972.35
3713.740, 31960.43
3715.668, 31973.52
3717.597, 31957.87
3719.525, 31937.32
3721.454, 31926.82
3723.382, 31852.10
3725.311, 31727.74
3727.239, 31804.63
3729.168, 31927.04
3731.096, 31900.79
3733.025, 31851.28
3734.953, 31814.76
3736.882, 31806.47
3738.810, 31818.51
3740.739, 31776.08
3742.667, 31730.35
3744.595, 31771.71
3746.524, 31746.65
3748.452, 31598.53
3750.381, 31557.51
3752.309, 31611.54
3754.238, 31660.12
3756.166, 31668.20
3758.095, 31562.99
3760.023, 31496.91
3761.952, 31503.92
3763.880, 31508.61
3765.809, 31504.86
3767.737, 31485.98
3769.666, 31461.96
3771.594, 31440.43
3773.522, 31412.97
3775.451, 31378.74
3777.379, 31371.37
3779.308, 31373.49
3781.236, 31317.46
3783.165, 31295.49
3785.093, 31417.60
3787.022, 31433.86
3788.950, 31338.73
3790.879, 31293.32
3792.807, 31280.29
3794.736, 31274.48
3796.664, 31274.70
3798.593, 31314.30
3800.521, 31231.36
3802.449, 31069.72
3804.378, 31061.09
3806.306, 31101.19
3808.235, 31102.46
3810.163, 31078.10
3812.092, 31017.96
3814.020, 31024.38
3815.949, 31063.86
3817.877, 31056.52
3819.806, 31031.21
3821.734, 31004.49
3823.663, 30962.60
3825.591, 30904.62
3827.520, 30935.19
3829.448, 30984.78
3831.376, 30963.21
3833.305, 30909.96
3835.233, 30830.83
3837.162, 30781.98
3839.090, 30758.56
3841.019, 30721.37
3842.947, 30699.30
3844.876, 30741.93
3846.804, 30745.26
3848.733, 30693.16
3850.661, 30648.87
3852.590, 30616.89
3854.518, 30606.11
3856.447, 30578.02
3858.375, 30505.16
3860.303, 30451.42
3862.232, 30416.26
3864.160, 30374.62
3866.089, 30339.21
3868.017, 30339.15
3869.946, 30289.43
3871.874, 30183.41
3873.803, 30144.64
3875.731, 30145.55
3877.660, 30172.93
3879.588, 30143.67
3881.517, 29967.84
3883.445, 29908.83
3885.374, 29928.02
3887.302, 29908.77
3889.230, 29868.94
3891.159, 29809.23
3893.087, 29762.97
3895.016, 29739.41
3896.944, 29633.93
3898.873, 29529.44
3900.801, 29586.09
3902.730, 29599.24
3904.658, 29504.79
3906.587, 29480.86
3908.515, 29491.07
3910.444, 29426.82
3912.372, 29342.11
3914.301, 29236.89
3916.229, 29243.36
3918.157, 29327.85
3920.086, 29300.55
3922.014, 29225.10
3923.943, 29111.46
3925.871, 29036.61
3927.800, 29001.08
3929.728, 28890.56
3931.657, 28794.68
3933.585, 28862.92
3935.514, 28910.60
3937.442, 28891.42
3939.371, 28854.78
3941.299, 28805.18
3943.228, 28790.52
3945.156, 28722.55
3947.084, 28620.71
3949.013, 28603.89
3950.941, 28603.45
3952.870, 28557.67
3954.798, 28500.32
3956.727, 28447.32
3958.655, 28411.90
3960.584, 28396.61
3962.512, 28367.49
3964.441, 28335.22
3966.369, 28320.63
3968.298, 28202.63
3970.226, 28055.78
3972.155, 28030.85
3974.083, 28033.57
3976.011, 28033.13
3977.940, 28029.87
3979.868, 27980.63
3981.797, 27939.88
3983.725, 27929.06
3985.654, 27931.38
3987.582, 27892.87
3989.511, 27816.84
3991.439, 27740.18
3993.368, 27645.79
3995.296, 27639.23
3997.225, 27647.96
3999.153, 27602.85
4001.082, 27553.18
4003.010, 27481.06
4004.938, 27394.36
4006.867, 27380.23
4008.795, 27423.70
4010.724, 27380.21
4012.652, 27329.46
4014.581, 27278.01
4016.509, 27219.46
4018.438, 27216.41
4020.366, 27199.59
4022.295, 27159.16
4024.223, 27127.99
4026.152, 27114.52
4028.080, 27112.07
4030.009, 27045.66
4031.937, 26957.38
4033.865, 26938.60
4035.794, 26927.79
4037.722, 26929.60
4039.651, 26914.69
4041.579, 26868.52
4043.508, 26805.07
4045.436, 26752.09
4047.365, 26716.61
4049.293, 26708.16
4051.222, 26700.50
4053.150, 26655.52
4055.079, 26603.20
4057.007, 26525.64
4058.936, 26499.28
4060.864, 26535.17
4062.792, 26494.86
4064.721, 26432.36
4066.649, 26406.07
4068.578, 26360.90
4070.506, 26292.24
4072.435, 26271.35
4074.363, 26263.24
4076.292, 26215.28
4078.220, 26177.95
4080.149, 26167.86
4082.077, 26167.27
4084.006, 26138.75
4085.934, 26041.65
4087.863, 25981.54
4089.791, 26002.86
4091.719, 25934.20
4093.648, 25825.11
4095.576, 25931.86
4097.505, 25975.02
4099.434, 25798.89
4101.362, 25701.52
4103.290, 25671.90
4105.219, 25750.46
4107.147, 25804.01
4109.076, 25709.24
4111.004, 25656.40
4112.933, 25637.31
4114.861, 25524.19
4116.790, 25445.71
4118.718, 25471.17
4120.646, 25451.66
4122.575, 25398.16
4124.503, 25394.80
4126.432, 25389.71
4128.360, 25342.05
4130.289, 25299.28
4132.217, 25249.86
4134.146, 25237.43
4136.074, 25257.76
4138.003, 25213.75
4139.931, 25168.11
4141.859, 25161.47
4143.788, 25142.23
4145.717, 25089.41
4147.645, 24992.12
4149.573, 24951.28
4151.502, 24920.15
4153.431, 24838.22
4155.359, 24787.83
4157.287, 24758.19
4159.216, 24764.63
4161.145, 24817.83
4163.073, 24755.33
4165.001, 24683.29
4166.930, 24715.67
4168.858, 24730.83
4170.787, 24723.86
4172.715, 24631.06
4174.644, 24498.48
4176.572, 24485.56
4178.500, 24472.30
4180.429, 24444.79
4182.357, 24415.73
4184.286, 24351.44
4186.214, 24325.55
4188.143, 24331.45
4190.071, 24337.27
4192.000, 24332.94
4193.928, 24320.57
4195.856, 24330.80
4197.785, 24303.31
4199.714, 24204.54
4201.642, 24099.17
4203.570, 24017.68
4205.499, 24018.71
4207.428, 24006.01
4209.356, 23961.10
4211.284, 23993.15
4213.213, 24033.79
4215.142, 23986.74
4217.070, 23945.77
4218.998, 23929.99
4220.927, 23878.35
4222.855, 23813.36
4224.784, 23777.09
4226.712, 23740.86
4228.641, 23696.90
4230.569, 23642.32
4232.498, 23602.21
4234.426, 23598.31
4236.354, 23646.10
4238.283, 23727.88
4240.211, 23622.23
4242.140, 23518.65
4244.068, 23586.65
4245.997, 23588.26
4247.925, 23521.36
4249.854, 23486.46
4251.782, 23446.69
4253.711, 23369.18
4255.639, 23357.91
4257.567, 23398.23
4259.496, 23441.49
4261.425, 23435.89
4263.353, 23345.23
4265.281, 23360.17
4267.210, 23428.15
4269.139, 23422.11
4271.067, 23382.22
4272.995, 23319.95
4274.924, 23270.07
4276.853, 23259.79
4278.781, 23368.71
4280.709, 23410.59
4282.638, 23353.49
4284.566, 23311.27
4286.495, 23274.17
4288.423, 23227.23
4290.352, 23182.71
4292.280, 23150.83
4294.208, 23211.36
4296.137, 23268.96
4298.065, 23260.66
4299.994, 23256.59
4301.922, 23247.80
4303.851, 23153.39
4305.779, 23093.36
4307.708, 23114.69
4309.636, 23153.23
4311.564, 23181.87
4313.493, 23167.23
4315.422, 23116.42
4317.350, 23036.58
4319.278, 22986.52
4321.207, 22972.41
4323.136, 23013.60
4325.064, 23035.04
4326.992, 23032.25
4328.921, 23035.61
4330.850, 23032.65
4332.778, 23014.18
4334.706, 22993.02
4336.635, 22966.83
4338.563, 22917.09
4340.492, 22888.70
4342.420, 22903.66
4344.349, 22896.73
4346.277, 22878.34
4348.206, 22857.95
4350.134, 22845.47
4352.063, 22841.45
4353.991, 22837.97
4355.919, 22823.52
4357.848, 22772.04
4359.776, 22795.95
4361.705, 22858.90
4363.633, 22840.84
4365.562, 22802.45
4367.490, 22760.75
4369.419, 22759.16
4371.347, 22754.31
4373.275, 22677.92
4375.204, 22644.33
4377.133, 22664.35
4379.061, 22704.88
4380.989, 22740.19
4382.918, 22758.73
4384.847, 22743.66
4386.775, 22708.76
4388.703, 22681.93
4390.632, 22648.74
4392.561, 22608.05
4394.489, 22611.27
4396.417, 22611.02
4398.346, 22547.92
4400.274, 22510.41
4402.203, 22503.69
4404.131, 22515.13
4406.060, 22544.45
4407.988, 22605.28
4409.917, 22595.53
4411.845, 22570.95
4413.773, 22627.10
4415.702, 22616.60
4417.630, 22536.83
4419.559, 22545.33
4421.487, 22541.53
4423.416, 22469.55
4425.344, 22437.03
4427.272, 22438.64
4429.201, 22470.74
4431.130, 22489.48
4433.058, 22483.43
4434.986, 22416.38
4436.915, 22348.55
4438.844, 22316.63
4440.772, 22320.43
4442.700, 22335.14
4444.629, 22301.02
4446.558, 22295.19
4448.486, 22333.06
4450.414, 22310.71
4452.343, 22256.20
4454.271, 22179.22
4456.200, 22120.05
4458.128, 22089.79
4460.057, 22121.96
4461.985, 22152.05
4463.914, 22164.94
4465.842, 22177.34
4467.771, 22158.52
4469.699, 22070.65
4471.627, 22070.05
4473.556, 22122.59
4475.484, 22162.14
4477.413, 22126.63
4479.341, 22013.62
4481.270, 22082.93
4483.198, 22138.99
4485.127, 22022.53
4487.055, 21972.86
4488.983, 21973.44
4490.912, 21985.08
4492.841, 21985.50
4494.769, 21970.49
4496.697, 21933.13
4498.626, 21896.76
4500.555, 21870.67
4502.483, 21897.99
4504.411, 21926.29
4506.340, 21852.65
4508.269, 21848.12
4510.197, 21908.78
4512.125, 21873.35
4514.054, 21845.64
4515.982, 21874.38
4517.911, 21823.75
4519.839, 21784.09
4521.768, 21871.80
4523.696, 21839.26
4525.625, 21737.36
4527.553, 21801.19
4529.481, 21817.96
4531.410, 21734.81
4533.338, 21759.17
4535.267, 21761.97
4537.195, 21598.82
4539.124, 21595.68
4541.052, 21676.23
4542.980, 21716.21
4544.909, 21691.64
4546.838, 21624.13
4548.766, 21658.47
4550.694, 21654.33
4552.623, 21556.74
4554.552, 21558.07
4556.480, 21595.41
4558.408, 21614.91
4560.337, 21583.03
4562.266, 21516.22
4564.194, 21430.15
4566.122, 21422.27
4568.051, 21493.11
4569.979, 21459.65
4571.908, 21401.29
4573.836, 21355.63
4575.765, 21336.47
4577.693, 21336.58
4579.622, 21351.83
4581.550, 21375.67
4583.479, 21389.99
4585.407, 21333.91
4587.335, 21288.40
4589.264, 21274.04
4591.192, 21324.93
4593.121, 21356.19
4595.049, 21324.41
4596.978, 21409.77
4598.906, 21467.20
4600.835, 21254.32
4602.763, 21235.93
4604.691, 21331.93
4606.620, 21258.83
4608.549, 21228.26
4610.477, 21262.33
4612.405, 21202.23
4614.334, 21149.29
4616.263, 21146.84
4618.191, 21172.23
4620.119, 21177.48
4622.048, 21099.54
4623.977, 21063.96
4625.905, 21068.55
4627.833, 21124.32
4629.762, 21085.05
4631.690, 21000.76
4633.619, 21175.41
4635.547, 21240.83
4637.476, 21087.64
4639.404, 21008.48
4641.333, 20981.85
4643.261, 21006.36
4645.189, 20940.37
4647.118, 20877.09
4649.046, 20927.47
4650.975, 20915.67
4652.903, 20881.84
4654.832, 20975.73
4656.760, 20944.90
4658.688, 20801.32
4660.617, 20816.04
4662.546, 20837.45
4664.474, 20821.76
4666.402, 20809.47
4668.331, 20767.23
4670.260, 20659.64
4672.188, 20733.90
4674.116, 20827.98
4676.045, 20764.58
4677.974, 20710.06
4679.902, 20688.89
4681.830, 20737.86
4683.759, 20764.53
4685.688, 20751.43
4687.616, 20668.41
4689.544, 20627.26
4691.473, 20646.59
4693.401, 20629.98
4695.330, 20606.98
4697.258, 20590.64
4699.187, 20630.66
4701.115, 20648.51
4703.043, 20583.43
4704.972, 20470.54
4706.900, 20393.47
4708.829, 20457.89
4710.757, 20465.02
4712.686, 20422.60
4714.614, 20334.82
4716.543, 20366.46
4718.471, 20465.74
4720.399, 20422.84
4722.328, 20363.92
4724.257, 20320.96
4726.185, 20313.52
4728.113, 20345.26
4730.042, 20404.25
4731.971, 20379.34
4733.899, 20299.80
4735.827, 20166.51
4737.756, 20191.23
4739.685, 20222.18
4741.613, 20153.81
4743.541, 20070.29
4745.470, 20042.52
4747.398, 20206.50
4749.327, 20180.62
4751.255, 20060.04
4753.184, 20006.88
4755.112, 19998.86
4757.041, 20023.37
4758.969, 20076.77
4760.897, 20115.37
4762.826, 20121.98
4764.754, 20043.94
4766.683, 19985.76
4768.611, 19965.75
4770.540, 19960.14
4772.468, 19932.42
4774.396, 19875.71
4776.325, 19937.17
4778.254, 19929.67
4780.182, 19786.86
4782.110, 19836.29
4784.039, 19883.27
4785.968, 19790.22
4787.896, 19721.53
4789.824, 19705.95
4791.753, 19773.86
4793.682, 19711.64
4795.610, 19623.12
4797.538, 19626.63
4799.467, 19625.55
4801.396, 19620.67
4803.324, 19615.80
4805.252, 19650.47
4807.181, 19671.84
4809.109, 19569.61
4811.038, 19518.41
4812.966, 19518.20
4814.895, 19548.65
4816.823, 19515.09
4818.751, 19444.14
4820.680, 19430.56
4822.608, 19422.30
4824.537, 19407.52
4826.465, 19376.61
4828.394, 19349.83
4830.322, 19336.76
4832.251, 19375.15
4834.179, 19376.85
4836.107, 19324.50
4838.036, 19225.72
4839.965, 19185.67
4841.893, 19213.37
4843.821, 19209.61
4845.750, 19186.20
4847.679, 19148.32
4849.607, 19063.75
4851.535, 19081.09
4853.464, 19211.87
4855.393, 19121.36
4857.321, 19012.23
4859.249, 18974.61
4861.178, 19098.60
4863.106, 19114.37
4865.035, 18940.74
4866.963, 18977.65
4868.892, 19026.87
4870.820, 18979.92
4872.749, 18954.67
4874.677, 18929.90
4876.605, 18896.06
4878.534, 18876.25
4880.462, 18840.72
4882.391, 18770.79
4884.319, 18819.49
4886.248, 18832.67
4888.176, 18730.82
4890.104, 18707.25
4892.033, 18699.09
4893.962, 18669.34
4895.890, 18682.78
4897.818, 18686.77
4899.747, 18648.80
4901.676, 18602.60
4903.604, 18572.82
4905.532, 18571.30
4907.461, 18563.62
4909.390, 18567.04
4911.318, 18598.48
4913.246, 18537.50
4915.175, 18496.01
4917.104, 18521.45
4919.032, 18477.26
4920.960, 18422.70
4922.889, 18391.42
4924.817, 18342.52
4926.746, 18293.94
4928.674, 18255.93
4930.603, 18272.30
4932.531, 18281.41
4934.459, 18259.20
4936.388, 18254.13
4938.316, 18243.85
4940.245, 18220.10
4942.173, 18199.92
4944.102, 18193.05
4946.030, 18191.54
4947.959, 18111.99
4949.887, 18057.66
4951.815, 18054.83
4953.744, 18046.92
4955.673, 18028.83
4957.601, 17996.91
4959.529, 17923.43
4961.458, 17899.36
4963.387, 17922.41
4965.315, 17885.05
4967.243, 17904.33
4969.172, 17960.64
4971.101, 17923.77
4973.029, 17867.38
4974.957, 17820.68
4976.886, 17832.06
4978.814, 17799.57
4980.743, 17740.24
4982.671, 17706.23
4984.600, 17701.96
4986.528, 17694.90
4988.457, 17630.99
4990.385, 17586.05
4992.313, 17549.18
4994.242, 17485.08
4996.170, 17526.54
4998.099, 17567.56
5000.027, 17505.66
5001.956, 17536.12
5003.884, 17572.14
5005.813, 17538.97
5007.741, 17485.23
5009.670, 17434.39
5011.598, 17397.18
5013.526, 17334.28
5015.455, 17328.85
5017.384, 17395.69
5019.312, 17357.80
5021.240, 17297.89
5023.169, 17249.32
5025.098, 17227.55
5027.026, 17250.15
5028.954, 17273.71
5030.883, 17118.85
5032.812, 17092.03
5034.740, 17157.71
5036.668, 17136.40
5038.597, 17093.35
5040.525, 17068.42
5042.454, 17112.70
5044.382, 17110.15
5046.311, 17079.69
5048.239, 17061.63
5050.167, 16933.93
5052.096, 16844.94
5054.024, 16896.54
5055.953, 16896.47
5057.881, 16894.86
5059.810, 16905.63
5061.738, 16784.62
5063.667, 16705.00
5065.595, 16711.10
5067.523, 16697.29
5069.452, 16706.37
5071.381, 16726.94
5073.309, 16692.80
5075.237, 16694.75
5077.166, 16701.64
5079.095, 16639.21
5081.023, 16550.53
5082.951, 16494.92
5084.880, 16534.36
5086.809, 16524.45
5088.737, 16498.35
5090.665, 16484.07
5092.594, 16464.24
5094.522, 16441.28
5096.451, 16416.50
5098.379, 16397.66
5100.308, 16343.08
5102.236, 16258.52
5104.165, 16178.80
5106.093, 16180.20
5108.021, 16231.18
5109.950, 16277.59
5111.878, 16234.49
5113.807, 16173.06
5115.735, 16177.10
5117.664, 16110.82
5119.592, 16042.38
5121.521, 16016.32
5123.449, 15960.15
5125.378, 15943.14
5127.306, 15977.32
5129.234, 15951.03
5131.163, 15938.03
5133.092, 15937.02
5135.020, 15896.88
5136.948, 15893.31
5138.877, 15893.12
5140.806, 15819.38
5142.734, 15863.52
5144.662, 15884.25
5146.591, 15779.82
5148.520, 15652.98
5150.448, 15587.82
5152.376, 15599.74
5154.305, 15609.65
5156.233, 15620.31
5158.162, 15632.84
5160.090, 15656.37
5162.019, 15645.13
5163.947, 15601.68
5165.875, 15531.32
5167.804, 15540.96
5169.732, 15553.59
5171.661, 15519.23
5173.589, 15527.68
5175.518, 15517.91
5177.446, 15476.58
5179.375, 15437.48
5181.303, 15430.00
5183.231, 15422.33
5185.160, 15345.84
5187.089, 15306.43
5189.017, 15294.96
5190.945, 15296.87
5192.874, 15313.29
5194.803, 15265.98
5196.731, 15153.95
5198.659, 15219.83
5200.588, 15242.94
5202.517, 15211.64
5204.445, 15219.07
5206.373, 15127.81
5208.302, 15027.74
5210.230, 15015.38
5212.159, 15073.69
5214.087, 15092.20
5216.016, 15037.84
5217.944, 15040.90
5219.873, 15010.03
5221.801, 14949.66
5223.729, 14912.60
5225.658, 14887.26
5227.586, 14873.86
5229.515, 14875.74
5231.443, 14875.59
5233.372, 14838.65
5235.300, 14769.22
5237.229, 14777.82
5239.157, 14755.66
5241.086, 14703.71
5243.014, 14654.08
5244.942, 14694.44
5246.871, 14717.46
5248.800, 14634.25
5250.728, 14615.75
5252.656, 14598.55
5254.585, 14550.98
5256.514, 14420.45
5258.442, 14393.96
5260.370, 14436.23
5262.299, 14468.30
5264.228, 14461.09
5266.156, 14422.94
5268.084, 14365.75
5270.013, 14360.38
5271.941, 14362.15
5273.870, 14342.84
5275.798, 14233.58
5277.727, 14267.51
5279.655, 14320.84
5281.583, 14257.81
5283.512, 14229.99
5285.440, 14190.53
5287.369, 14135.73
5289.297, 14131.25
5291.226, 14063.68
5293.154, 13988.04
5295.083, 13995.93
5297.011, 14015.17
5298.939, 14041.66
5300.868, 14066.53
5302.797, 13994.56
5304.725, 13982.77
5306.653, 13995.12
5308.582, 13909.92
5310.511, 13912.27
5312.439, 13904.82
5314.367, 13825.91
5316.296, 13838.12
5318.225, 13773.10
5320.153, 13664.76
5322.081, 13700.27
5324.010, 13664.92
5325.938, 13652.33
5327.867, 13721.67
5329.795, 13545.04
5331.724, 13497.32
5333.652, 13596.17
5335.581, 13630.21
5337.509, 13534.31
5339.438, 13449.22
5341.366, 13490.00
5343.294, 13522.71
5345.223, 13542.85
5347.151, 13527.03
5349.080, 13405.61
5351.008, 13363.29
5352.937, 13353.59
5354.865, 13323.10
5356.794, 13286.80
5358.722, 13263.86
5360.650, 13253.48
5362.579, 13244.87
5364.508, 13199.60
5366.436, 13168.41
5368.364, 13183.03
5370.293, 13158.57
5372.222, 13120.46
5374.150, 13088.51
5376.078, 13087.26
5378.007, 13095.59
5379.936, 13102.43
5381.864, 13098.13
5383.792, 13010.82
5385.721, 12931.02
5387.649, 12907.33
5389.578, 12988.82
5391.506, 12917.21
5393.435, 12851.20
5395.363, 12868.81
5397.292, 12871.22
5399.220, 12852.46
5401.148, 12824.94
5403.077, 12805.72
5405.005, 12769.31
5406.934, 12738.97
5408.862, 12714.46
5410.791, 12670.27
5412.719, 12565.64
5414.647, 12497.12
5416.576, 12541.89
5418.505, 12545.71
5420.433, 12527.47
5422.361, 12505.61
5424.290, 12512.78
5426.219, 12457.24
5428.147, 12418.08
5430.075, 12424.02
5432.004, 12321.78
5433.933, 12352.66
5435.861, 12412.22
5437.789, 12332.17
5439.718, 12342.75
5441.646, 12318.56
5443.575, 12240.22
5445.503, 12191.47
5447.432, 12208.74
5449.360, 12213.05
5451.289, 12153.92
5453.217, 12086.45
5455.146, 12040.85
5457.074, 12044.61
5459.002, 12127.74
5460.931, 12040.60
5462.859, 11981.83
5464.788, 11996.13
5466.716, 11936.59
5468.645, 11910.50
5470.573, 11912.10
5472.502, 11921.40
5474.430, 11815.98
5476.358, 11802.40
5478.287, 11829.53
5480.216, 11781.32
5482.144, 11736.89
5484.072, 11709.72
5486.001, 11690.30
5487.930, 11630.31
5489.858, 11660.99
5491.786, 11711.42
5493.715, 11723.02
5495.644, 11578.09
5497.572, 11576.82
5499.500, 11617.77
5501.429, 11558.00
5503.357, 11586.47
5505.286, 11565.41
5507.214, 11520.86
5509.143, 11567.12
5511.071, 11503.28
5513.000, 11439.69
5514.928, 11412.55
5516.856, 11351.18
5518.785, 11311.48
5520.713, 11289.22
5522.642, 11277.22
5524.570, 11279.05
5526.499, 11270.37
5528.427, 11246.19
5530.355, 11206.55
5532.284, 11130.21
5534.213, 11151.05
5536.141, 11204.75
5538.069, 11145.31
5539.998, 11050.82
5541.927, 11032.50
5543.855, 11076.26
5545.783, 11031.90
5547.712, 11061.77
5549.641, 11037.29
5551.569, 10939.02
5553.497, 10985.84
5555.426, 10937.76
5557.354, 10872.53
5559.283, 10859.05
5561.211, 10821.09
5563.140, 10809.32
5565.068, 10795.45
5566.997, 10746.21
5568.925, 10740.22
5570.854, 10730.82
5572.782, 10703.89
5574.710, 10655.37
5576.639, 10618.67
5578.567, 10636.43
5580.496, 10653.90
5582.424, 10562.56
5584.353, 10525.61
5586.281, 10506.77
5588.210, 10492.55
5590.138, 10502.28
5592.066, 10456.34
5593.995, 10449.19
5595.924, 10481.10
5597.852, 10382.98
5599.780, 10346.76
5601.709, 10353.91
5603.638, 10371.72
5605.566, 10347.70
5607.494, 10343.48
5609.423, 10321.27
5611.352, 10266.19
5613.280, 10250.78
5615.208, 10199.67
5617.137, 10192.75
5619.065, 10260.87
5620.994, 10197.60
5622.922, 10170.26
5624.851, 10130.29
5626.779, 10028.20
5628.708, 10010.56
5630.636, 10004.50
5632.564, 9995.591
5634.493, 9983.688
5636.421, 9953.207
5638.350, 9985.280
5640.278, 9979.474
5642.207, 9853.708
5644.135, 9849.736
5646.063, 9844.884
5647.992, 9822.688
5649.921, 9794.978
5651.849, 9780.948
5653.777, 9772.001
5655.706, 9754.451
5657.635, 9718.433
5659.563, 9668.533
5661.491, 9671.304
5663.420, 9681.326
5665.349, 9643.314
5667.277, 9604.989
5669.205, 9593.111
5671.134, 9590.688
5673.063, 9574.151
5674.991, 9509.430
5676.919, 9463.391
5678.848, 9476.283
5680.776, 9546.550
5682.705, 9510.482
5684.633, 9454.028
5686.562, 9420.439
5688.490, 9419.025
5690.418, 9356.788
5692.347, 9370.152
5694.275, 9367.931
5696.204, 9285.456
5698.132, 9205.801
5700.061, 9191.217
5701.989, 9211.017
5703.918, 9229.069
5705.846, 9199.807
5707.774, 9155.061
5709.703, 9143.577
5711.632, 9154.701
5713.560, 9077.047
5715.488, 9095.684
5717.417, 9081.662
5719.346, 9007.332
5721.274, 8971.354
5723.202, 8995.261
5725.131, 8999.290
5727.060, 8980.508
5728.988, 9001.429
5730.916, 8982.192
5732.845, 8890.371
5734.773, 8803.983
5736.702, 8866.423
5738.630, 8841.178
5740.559, 8799.182
5742.487, 8766.030
5744.416, 8747.213
5746.344, 8724.044
5748.272, 8729.052
5750.201, 8701.212
5752.129, 8622.947
5754.058, 8699.607
5755.986, 8726.896
5757.915, 8714.896
5759.843, 8685.324
5761.771, 8620.876
5763.700, 8566.158
5765.629, 8521.654
5767.557, 8496.206
5769.485, 8520.673
5771.414, 8482.979
5773.343, 8451.720
5775.271, 8454.188
5777.199, 8500.325
5779.128, 8484.191
5781.057, 8434.505
5782.985, 8363.967
5784.913, 8291.031
5786.842, 8368.987
5788.771, 8379.601
5790.699, 8309.927
5792.627, 8218.166
5794.556, 8237.781
5796.484, 8299.904
5798.413, 8253.916
5800.341, 8144.256
5802.270, 8143.604
5804.198, 8131.794
5806.126, 8137.308
5808.055, 8121.689
5809.983, 8050.458
5811.912, 8082.095
5813.840, 8070.680
5815.769, 8048.500
5817.697, 8050.919
5819.626, 8075.194
5821.554, 7996.318
5823.482, 7936.294
5825.411, 7934.709
5827.340, 7968.122
5829.268, 7920.182
5831.196, 7934.380
5833.125, 7957.675
5835.054, 7900.905
5836.982, 7844.579
5838.910, 7765.049
5840.839, 7761.286
5842.768, 7832.125
5844.696, 7814.209
5846.624, 7768.920
5848.553, 7749.625
5850.481, 7743.685
5852.410, 7711.938
5854.338, 7607.918
5856.267, 7618.327
5858.195, 7623.076
5860.124, 7551.484
5862.052, 7572.025
5863.980, 7558.218
5865.909, 7532.548
5867.837, 7518.884
5869.766, 7528.196
5871.694, 7545.486
5873.623, 7519.742
5875.551, 7465.594
5877.479, 7409.922
5879.408, 7371.441
5881.337, 7456.971
5883.265, 7459.868
5885.193, 7363.966
5887.122, 7299.274
5889.051, 7300.145
5890.979, 7277.560
5892.907, 7258.769
5894.836, 7267.306
5896.765, 7235.705
5898.693, 7186.313
5900.621, 7229.979
5902.550, 7281.304
5904.479, 7162.730
5906.407, 7187.513
5908.335, 7176.974
5910.264, 7171.426
5912.192, 7188.622
5914.121, 7111.131
5916.049, 7071.476
5917.978, 7083.968
5919.906, 7082.333
5921.834, 7010.507
5923.763, 7006.859
5925.691, 7020.532
5927.620, 6994.366
5929.548, 6936.064
5931.477, 6913.500
5933.405, 6856.801
5935.334, 6864.157
5937.262, 6879.790
5939.190, 6850.892
5941.119, 6834.734
5943.048, 6845.302
5944.976, 6851.056
5946.904, 6827.666
5948.833, 6769.081
5950.762, 6753.153
5952.690, 6746.714
5954.618, 6692.729
5956.547, 6629.077
5958.476, 6719.162
5960.404, 6731.108
5962.332, 6701.778
5964.261, 6653.590
5966.189, 6605.037
5968.118, 6604.538
5970.046, 6564.986
5971.975, 6544.286
5973.903, 6552.061
5975.832, 6567.369
5977.760, 6510.496
5979.688, 6541.118
5981.617, 6490.549
5983.545, 6401.909
5985.474, 6465.028
5987.402, 6448.086
5989.331, 6414.729
5991.259, 6381.288
5993.188, 6354.451
5995.116, 6342.409
5997.045, 6410.102
5998.973, 6340.898
6000.901, 6253.701
6002.830, 6258.213
6004.759, 6338.550
6006.687, 6309.660
6008.615, 6294.452
6010.544, 6276.119
6012.473, 6224.589
6014.401, 6189.774
6016.329, 6112.498
6018.258, 6143.455
6020.187, 6185.456
6022.115, 6123.908
6024.043, 6056.375
6025.972, 6107.971
6027.900, 6134.182
6029.829, 6110.150
6031.757, 6069.963
6033.686, 6023.654
6035.614, 5993.882
6037.542, 6046.938
6039.471, 6058.001
6041.399, 5927.205
6043.328, 5972.043
6045.256, 6007.536
6047.185, 5959.585
6049.113, 5902.578
6051.042, 5920.718
6052.970, 5915.377
6054.898, 5831.647
6056.827, 5830.123
6058.756, 5847.991
6060.684, 5773.832
6062.612, 5776.401
6064.541, 5794.006
6066.470, 5785.292
6068.398, 5770.187
6070.326, 5768.758
6072.255, 5704.658
6074.184, 5680.075
6076.112, 5671.713
6078.040, 5680.982
6079.969, 5710.255
6081.897, 5710.867
6083.826, 5700.977
6085.754, 5634.934
6087.683, 5611.392
6089.611, 5666.210
6091.540, 5580.241
6093.468, 5556.156
6095.396, 5525.766
6097.325, 5514.455
6099.253, 5520.849
6101.182, 5440.654
6103.110, 5486.906
6105.039, 5518.620
6106.967, 5470.011
6108.896, 5410.462
6110.824, 5497.266
6112.753, 5475.088
6114.681, 5414.633
6116.609, 5374.844
6118.538, 5337.618
6120.467, 5256.623
6122.395, 5293.233
6124.323, 5260.586
6126.252, 5255.199
6128.181, 5267.444
6130.109, 5243.243
6132.037, 5287.829
6133.966, 5261.967
6135.895, 5188.614
6137.823, 5177.524
6139.751, 5241.059
6141.680, 5176.548
6143.608, 5201.991
6145.537, 5168.663
6147.465, 5127.002
6149.394, 5125.528
6151.322, 5135.777
6153.250, 5062.542
6155.179, 5071.649
6157.107, 5062.069
6159.036, 5023.817
6160.964, 5010.867
6162.893, 4989.201
6164.821, 5031.335
6166.750, 5017.169
6168.678, 4989.959
6170.606, 4990.057
6172.535, 4946.788
6174.464, 4945.033
6176.392, 4909.974
6178.320, 4882.604
6180.249, 4891.224
6182.178, 4917.963
6184.106, 4851.002
6186.034, 4847.535
6187.963, 4845.340
6189.892, 4817.434
6191.820, 4781.222
6193.748, 4780.568
6195.677, 4770.755
6197.605, 4763.460
6199.534, 4729.150
6201.462, 4683.063
6203.391, 4673.121
6205.319, 4726.014
6207.248, 4748.308
6209.176, 4717.692
6211.104, 4647.662
6213.033, 4582.870
6214.961, 4603.292
6216.890, 4604.924
6218.818, 4575.437
6220.747, 4558.014
6222.675, 4558.901
6224.604, 4558.974
6226.532, 4541.483
6228.461, 4547.040
6230.389, 4547.067
6232.317, 4486.552
6234.246, 4417.675
6236.175, 4457.972
6238.103, 4422.810
6240.031, 4446.191
6241.960, 4422.087
6243.889, 4393.147
6245.817, 4385.251
6247.745, 4313.508
6249.674, 4435.659
6251.603, 4406.113
6253.531, 4353.067
6255.459, 4319.100
6257.388, 4289.754
6259.316, 4320.169
6261.245, 4277.125
6263.173, 4263.856
6265.102, 4251.356
6267.030, 4238.327
6268.958, 4245.389
6270.887, 4248.303
6272.815, 4254.709
6274.744, 4239.427
6276.672, 4213.157
6278.601, 4190.879
6280.529, 4174.434
6282.458, 4136.681
6284.386, 4178.273
6286.314, 4146.787
6288.243, 4112.209
6290.172, 4116.185
6292.100, 4122.665
6294.028, 4087.393
6295.957, 4032.509
6297.886, 4040.785
6299.814, 4047.588
6301.742, 4023.196
6303.671, 4002.203
6305.600, 4043.446
6307.528, 4009.601
6309.456, 3949.951
6311.385, 3937.824
6313.313, 3953.070
6315.242, 3936.567
6317.170, 3953.935
6319.099, 3948.720
6321.027, 3948.787
6322.956, 3934.657
6324.884, 3899.553
6326.813, 3866.268
6328.741, 3881.656
6330.669, 3870.203
6332.598, 3828.010
6334.526, 3802.308
6336.455, 3806.269
6338.383, 3820.118
6340.312, 3813.845
6342.240, 3774.930
6344.169, 3792.382
6346.097, 3774.344
6348.025, 3738.288
6349.954, 3728.454
6351.883, 3728.181
6353.811, 3691.898
6355.739, 3693.820
6357.668, 3724.151
6359.597, 3697.952
6361.525, 3634.476
6363.453, 3635.727
6365.382, 3630.527
6367.311, 3612.305
6369.239, 3618.305
6371.167, 3630.813
6373.096, 3613.315
6375.024, 3566.972
6376.953, 3564.887
6378.881, 3560.604
6380.810, 3584.790
6382.738, 3569.337
6384.667, 3545.318
6386.595, 3529.028
6388.523, 3491.222
6390.452, 3557.620
6392.380, 3496.830
6394.309, 3494.133
6396.237, 3452.635
6398.166, 3403.948
6400.094, 3438.761
6402.022, 3445.188
6403.951, 3421.215
6405.880, 3461.640
6407.808, 3462.485
6409.736, 3414.475
6411.665, 3366.734
6413.594, 3356.751
6415.522, 3385.412
6417.450, 3360.823
6419.379, 3318.917
6421.308, 3331.714
6423.236, 3356.941
6425.164, 3334.189
6427.093, 3283.065
6429.021, 3281.292
6430.950, 3316.681
6432.878, 3322.192
6434.807, 3286.818
6436.735, 3243.585
6438.664, 3218.378
6440.592, 3195.613
6442.521, 3153.245
6444.449, 3212.772
6446.377, 3222.098
6448.306, 3218.261
6450.234, 3223.043
6452.163, 3206.696
6454.091, 3191.953
6456.020, 3149.963
6457.948, 3148.348
6459.877, 3141.302
6461.805, 3157.492
6463.733, 3164.644
6465.662, 3120.274
6467.591, 3111.166
6469.519, 3076.432
6471.447, 3098.507
6473.376, 3110.346
6475.305, 3087.414
6477.233, 3061.168
6479.161, 3065.676
6481.090, 3090.669
6483.019, 3063.488
6484.947, 3032.254
6486.875, 3022.699
6488.804, 2979.324
6490.732, 2964.780
6492.661, 3024.746
6494.589, 3024.484
6496.518, 2990.820
6498.446, 2984.822
6500.375, 2970.121
6502.303, 2963.959
6504.231, 2943.131
6506.160, 2917.122
6508.088, 2940.943
6510.017, 2883.004
6511.945, 2871.421
6513.874, 2891.009
6515.802, 2899.066
6517.730, 2910.064
6519.659, 2904.980
6521.588, 2851.484
6523.516, 2860.244
6525.444, 2811.061
6527.373, 2838.652
6529.302, 2837.035
6531.230, 2836.300
6533.158, 2840.654
6535.087, 2820.921
6537.016, 2796.099
6538.944, 2838.245
6540.872, 2778.932
6542.801, 2790.017
6544.729, 2798.683
6546.658, 2737.552
6548.586, 2686.680
6550.515, 2731.386
6552.443, 2742.712
6554.372, 2723.353
6556.300, 2727.064
6558.229, 2692.257
6560.157, 2675.989
6562.085, 2693.012
6564.014, 2705.144
6565.942, 2685.095
##END=



