##NAMES=Holtedahlite
##RRUFFID=R060710
##IDEAL CHEMISTRY=Mg_12_(PO_3_OH,CO_3_)(PO_4_)_5_(OH,O)_6_
##LOCALITY=Tingelstadtjern, Modum, Norway
##OWNER=RRUFF
##SOURCE=Bob Jenkins
##DESCRIPTION=Pale grey crystals embedded in matrix
##STATUS=The identification of this mineral is not yet confirmed
##URL=https://www.rruff.net/odr/rruff_sample/R060710
##FILETYPE=Raman RAW
##RAMAN WAVELENGTH=532

134.2600, 1820.840
136.1890, 1871.331
138.1170, 1910.404
140.0460, 1941.224
141.9740, 1966.220
143.9030, 1981.090
145.8310, 1997.736
147.7600, 2020.697
149.6880, 2053.739
151.6170, 2084.870
153.5450, 2114.548
155.4740, 2141.309
157.4020, 2163.529
159.3310, 2177.484
161.2590, 2189.009
163.1880, 2201.120
165.1160, 2211.232
167.0440, 2225.616
168.9730, 2251.671
170.9010, 2285.996
172.8300, 2310.335
174.7580, 2311.011
176.6870, 2305.892
178.6150, 2312.990
180.5440, 2334.198
182.4720, 2360.997
184.4010, 2389.849
186.3290, 2419.412
188.2580, 2454.580
190.1860, 2491.777
192.1150, 2534.710
194.0430, 2592.231
195.9710, 2688.204
197.9000, 2768.123
199.8280, 2812.802
201.7570, 2805.467
203.6850, 2785.066
205.6140, 2739.961
207.5420, 2681.672
209.4710, 2636.545
211.3990, 2606.648
213.3280, 2590.841
215.2560, 2590.535
217.1850, 2617.449
219.1130, 2641.974
221.0420, 2658.357
222.9700, 2668.825
224.8980, 2681.134
226.8270, 2698.941
228.7550, 2717.862
230.6840, 2735.478
232.6120, 2755.495
234.5410, 2768.931
236.4690, 2769.820
238.3980, 2758.007
240.3260, 2752.074
242.2550, 2754.325
244.1830, 2761.136
246.1120, 2768.931
248.0400, 2778.355
249.9690, 2786.272
251.8970, 2791.168
253.8250, 2791.606
255.7540, 2793.433
257.6820, 2795.236
259.6110, 2799.199
261.5390, 2807.749
263.4680, 2824.120
265.3960, 2841.329
267.3250, 2856.804
269.2530, 2869.583
271.1820, 2884.751
273.1100, 2904.155
275.0390, 2925.610
276.9670, 2946.635
278.8960, 2970.863
280.8240, 2989.921
282.7520, 2997.938
284.6810, 2989.500
286.6090, 2990.139
288.5380, 3010.003
290.4660, 3038.483
292.3950, 3060.132
294.3230, 3066.046
296.2520, 3071.671
298.1800, 3082.305
300.1090, 3098.705
302.0370, 3111.787
303.9660, 3117.910
305.8940, 3120.129
307.8230, 3122.778
309.7510, 3124.207
311.6790, 3128.132
313.6080, 3135.846
315.5360, 3147.154
317.4650, 3163.286
319.3930, 3192.011
321.3220, 3224.096
323.2500, 3244.577
325.1790, 3238.052
327.1070, 3233.711
329.0360, 3244.013
330.9640, 3267.962
332.8920, 3286.518
334.8210, 3291.156
336.7500, 3290.836
338.6780, 3297.917
340.6060, 3303.700
342.5350, 3326.621
344.4630, 3381.672
346.3920, 3466.973
348.3200, 3546.631
350.2490, 3629.236
352.1770, 3699.141
354.1060, 3731.626
356.0340, 3715.897
357.9630, 3685.487
359.8910, 3642.206
361.8190, 3586.622
363.7480, 3540.896
365.6770, 3505.811
367.6050, 3481.040
369.5330, 3470.503
371.4620, 3478.941
373.3900, 3488.173
375.3190, 3487.563
377.2470, 3478.696
379.1760, 3491.069
381.1040, 3541.171
383.0330, 3599.450
384.9610, 3648.679
386.8900, 3691.213
388.8180, 3718.609
390.7470, 3726.866
392.6750, 3718.375
394.6030, 3696.357
396.5320, 3641.840
398.4600, 3590.834
400.3890, 3562.619
402.3170, 3556.673
404.2460, 3556.846
406.1740, 3562.290
408.1030, 3571.311
410.0310, 3581.524
411.9600, 3594.773
413.8880, 3607.157
415.8170, 3617.634
417.7450, 3626.605
419.6740, 3634.495
421.6020, 3634.944
423.5300, 3637.851
425.4590, 3653.530
427.3870, 3695.557
429.3160, 3732.242
431.2440, 3756.356
433.1730, 3770.173
435.1010, 3780.927
437.0300, 3788.736
438.9580, 3792.614
440.8870, 3790.401
442.8150, 3777.285
444.7440, 3768.295
446.6720, 3768.430
448.6010, 3773.349
450.5290, 3775.879
452.4570, 3774.384
454.3860, 3772.492
456.3140, 3770.211
458.2430, 3767.429
460.1710, 3771.751
462.1000, 3794.175
464.0280, 3819.050
465.9570, 3832.853
467.8850, 3827.982
469.8140, 3823.842
471.7420, 3823.110
473.6710, 3825.364
475.5990, 3828.538
477.5270, 3830.215
479.4560, 3833.608
481.3840, 3839.763
483.3130, 3848.682
485.2410, 3860.191
487.1700, 3877.087
489.0980, 3895.916
491.0270, 3911.127
492.9550, 3921.588
494.8840, 3932.402
496.8120, 3945.841
498.7410, 3961.969
500.6690, 3978.685
502.5980, 3996.322
504.5260, 4014.061
506.4540, 4029.553
508.3830, 4040.581
510.3110, 4057.530
512.2400, 4087.880
514.1680, 4123.660
516.0970, 4152.854
518.0250, 4168.939
519.9540, 4183.624
521.8820, 4200.527
523.8110, 4219.546
525.7390, 4235.332
527.6680, 4246.667
529.5960, 4258.020
531.5250, 4272.054
533.4530, 4288.179
535.3810, 4312.192
537.3100, 4343.058
539.2390, 4382.762
541.1670, 4435.571
543.0950, 4514.208
545.0240, 4579.187
546.9520, 4618.269
548.8810, 4630.300
550.8090, 4619.134
552.7380, 4569.910
554.6660, 4511.049
556.5950, 4458.010
558.5230, 4410.159
560.4520, 4372.998
562.3800, 4354.887
564.3080, 4347.466
566.2370, 4340.132
568.1660, 4333.411
570.0940, 4326.408
572.0220, 4314.107
573.9510, 4299.731
575.8790, 4296.832
577.8080, 4313.174
579.7360, 4333.406
581.6650, 4351.368
583.5930, 4369.699
585.5220, 4377.948
587.4500, 4366.283
589.3790, 4351.069
591.3070, 4349.775
593.2350, 4365.232
595.1640, 4384.735
597.0930, 4407.621
599.0210, 4431.895
600.9490, 4451.430
602.8780, 4464.944
604.8060, 4474.270
606.7350, 4477.841
608.6630, 4476.110
610.5920, 4473.712
612.5200, 4462.784
614.4490, 4459.863
616.3770, 4477.249
618.3060, 4536.472
620.2340, 4574.689
622.1620, 4578.807
624.0910, 4566.552
626.0190, 4559.389
627.9480, 4556.826
629.8760, 4557.918
631.8050, 4560.908
633.7330, 4566.717
635.6620, 4580.147
637.5900, 4615.973
639.5190, 4646.837
641.4470, 4658.518
643.3760, 4655.051
645.3040, 4666.515
647.2330, 4698.780
649.1610, 4744.287
651.0890, 4800.279
653.0180, 4875.532
654.9460, 4931.358
656.8750, 4950.675
658.8030, 4955.744
660.7320, 4970.689
662.6600, 4995.044
664.5890, 5030.477
666.5170, 5086.487
668.4460, 5156.289
670.3740, 5225.490
672.3030, 5299.104
674.2310, 5370.294
676.1600, 5438.259
678.0880, 5501.999
680.0160, 5560.526
681.9450, 5618.281
683.8730, 5660.177
685.8020, 5683.712
687.7300, 5689.946
689.6590, 5662.443
691.5870, 5578.616
693.5160, 5481.169
695.4440, 5394.300
697.3730, 5316.919
699.3010, 5258.067
701.2300, 5232.425
703.1580, 5219.653
705.0870, 5198.325
707.0150, 5157.105
708.9430, 5130.342
710.8720, 5133.031
712.8000, 5151.040
714.7290, 5154.710
716.6570, 5138.441
718.5860, 5122.634
720.5140, 5112.579
722.4430, 5108.415
724.3710, 5111.472
726.3000, 5131.615
728.2280, 5147.728
730.1570, 5145.911
732.0850, 5126.551
734.0140, 5128.549
735.9420, 5174.776
737.8700, 5218.470
739.7990, 5232.091
741.7270, 5217.388
743.6560, 5211.188
745.5840, 5226.612
747.5130, 5246.934
749.4410, 5264.868
751.3700, 5282.236
753.2980, 5293.874
755.2270, 5296.121
757.1550, 5296.050
759.0840, 5298.788
761.0120, 5304.038
762.9410, 5313.712
764.8690, 5332.163
766.7970, 5352.792
768.7260, 5368.444
770.6540, 5365.793
772.5830, 5373.541
774.5110, 5403.305
776.4400, 5440.695
778.3680, 5462.141
780.2970, 5460.902
782.2250, 5461.582
784.1540, 5472.286
786.0820, 5490.408
788.0110, 5510.099
789.9390, 5536.886
791.8680, 5558.889
793.7960, 5571.717
795.7240, 5577.530
797.6530, 5584.550
799.5810, 5592.336
801.5100, 5603.150
803.4380, 5618.154
805.3670, 5637.373
807.2950, 5660.326
809.2240, 5690.850
811.1520, 5721.175
813.0810, 5749.813
815.0090, 5775.486
816.9380, 5794.275
818.8660, 5797.897
820.7950, 5801.832
822.7230, 5815.628
824.6520, 5837.703
826.5800, 5854.155
828.5080, 5858.152
830.4370, 5863.475
832.3650, 5880.682
834.2940, 5913.219
836.2220, 5927.766
838.1510, 5899.507
840.0790, 5875.868
842.0080, 5886.103
843.9360, 5925.339
845.8650, 5959.588
847.7930, 5979.089
849.7220, 5995.905
851.6500, 6017.208
853.5780, 6045.676
855.5070, 6067.196
857.4350, 6076.292
859.3640, 6084.924
861.2920, 6103.164
863.2210, 6130.161
865.1490, 6147.503
867.0780, 6140.866
869.0060, 6133.834
870.9350, 6139.959
872.8630, 6161.479
874.7920, 6181.926
876.7200, 6201.715
878.6490, 6220.301
880.5770, 6241.209
882.5050, 6266.312
884.4340, 6277.280
886.3620, 6255.390
888.2910, 6237.437
890.2190, 6247.734
892.1480, 6286.693
894.0760, 6319.817
896.0050, 6333.783
897.9330, 6347.876
899.8620, 6372.273
901.7900, 6409.122
903.7190, 6441.347
905.6470, 6467.879
907.5760, 6490.954
909.5040, 6509.558
911.4320, 6524.491
913.3610, 6542.220
915.2890, 6564.616
917.2180, 6587.954
919.1460, 6611.193
921.0750, 6634.399
923.0030, 6652.938
924.9320, 6665.427
926.8600, 6675.858
928.7890, 6687.195
930.7170, 6699.449
932.6460, 6707.416
934.5740, 6701.850
936.5030, 6705.751
938.4310, 6738.374
940.3590, 6791.832
942.2880, 6824.292
944.2160, 6802.089
946.1450, 6793.922
948.0730, 6824.635
950.0020, 6886.724
951.9300, 6942.573
953.8590, 6988.907
955.7870, 7035.656
957.7160, 7105.375
959.6440, 7174.190
961.5730, 7190.995
963.5010, 7128.079
965.4300, 7070.605
967.3580, 7043.250
969.2860, 7036.672
971.2150, 7035.097
973.1430, 7041.988
975.0720, 7049.693
977.0000, 7057.164
978.9290, 7065.888
980.8570, 7079.161
982.7860, 7098.972
984.7140, 7113.944
986.6430, 7116.679
988.5710, 7116.230
990.5000, 7122.326
992.4280, 7138.316
994.3570, 7146.265
996.2850, 7134.685
998.2140, 7123.772
1000.142, 7127.102
1002.070, 7148.077
1003.999, 7176.533
1005.927, 7215.282
1007.856, 7258.321
1009.784, 7303.566
1011.713, 7349.145
1013.641, 7389.201
1015.570, 7420.264
1017.498, 7444.683
1019.427, 7458.943
1021.355, 7464.862
1023.284, 7479.472
1025.212, 7519.281
1027.141, 7551.472
1029.069, 7568.870
1030.997, 7575.884
1032.926, 7580.319
1034.854, 7575.325
1036.783, 7584.493
1038.711, 7629.128
1040.640, 7682.498
1042.568, 7711.833
1044.497, 7710.169
1046.425, 7710.564
1048.354, 7720.867
1050.282, 7735.619
1052.211, 7753.348
1054.139, 7779.422
1056.068, 7795.678
1057.996, 7799.132
1059.924, 7799.429
1061.853, 7797.959
1063.781, 7796.200
1065.710, 7806.539
1067.638, 7833.308
1069.567, 7863.500
1071.495, 7890.765
1073.424, 7914.821
1075.352, 7936.519
1077.281, 7951.869
1079.209, 7970.726
1081.138, 7997.566
1083.066, 8028.570
1084.995, 8058.756
1086.923, 8101.292
1088.851, 8122.089
1090.780, 8099.937
1092.708, 8070.897
1094.637, 8070.804
1096.565, 8098.879
1098.494, 8118.737
1100.422, 8124.728
1102.351, 8125.162
1104.279, 8120.774
1106.208, 8113.996
1108.136, 8118.947
1110.065, 8140.123
1111.993, 8167.353
1113.922, 8204.572
1115.850, 8243.281
1117.778, 8264.244
1119.707, 8246.890
1121.635, 8241.788
1123.564, 8260.677
1125.492, 8288.533
1127.421, 8311.085
1129.349, 8328.916
1131.278, 8349.389
1133.206, 8383.646
1135.135, 8410.179
1137.063, 8415.012
1138.992, 8401.016
1140.920, 8390.453
1142.849, 8380.062
1144.777, 8379.426
1146.705, 8393.090
1148.634, 8417.308
1150.562, 8445.609
1152.491, 8490.277
1154.419, 8518.259
1156.348, 8505.348
1158.276, 8490.267
1160.205, 8512.481
1162.133, 8569.602
1164.062, 8622.730
1165.990, 8670.781
1167.919, 8708.637
1169.847, 8732.374
1171.776, 8744.182
1173.704, 8750.179
1175.632, 8745.296
1177.561, 8744.705
1179.489, 8745.761
1181.418, 8755.530
1183.346, 8785.933
1185.275, 8857.421
1187.203, 8899.936
1189.132, 8890.303
1191.060, 8872.542
1192.989, 8867.379
1194.917, 8875.682
1196.846, 8901.209
1198.774, 8961.858
1200.703, 9010.181
1202.631, 9019.585
1204.559, 9012.158
1206.488, 9015.224
1208.416, 9028.769
1210.345, 9052.264
1212.273, 9092.168
1214.202, 9132.212
1216.130, 9161.268
1218.059, 9177.244
1219.987, 9194.168
1221.916, 9226.183
1223.844, 9243.609
1225.773, 9232.186
1227.701, 9206.656
1229.630, 9193.998
1231.558, 9196.341
1233.486, 9207.936
1235.415, 9228.630
1237.343, 9257.638
1239.272, 9297.747
1241.200, 9345.563
1243.129, 9387.117
1245.057, 9418.959
1246.986, 9446.737
1248.914, 9472.164
1250.843, 9494.085
1252.771, 9507.219
1254.700, 9500.848
1256.628, 9514.977
1258.557, 9579.913
1260.485, 9639.749
1262.413, 9660.604
1264.342, 9645.008
1266.270, 9630.095
1268.199, 9600.630
1270.127, 9597.107
1272.056, 9649.339
1273.984, 9722.257
1275.913, 9768.190
1277.841, 9784.893
1279.770, 9796.250
1281.698, 9791.969
1283.627, 9795.686
1285.555, 9834.292
1287.484, 9889.825
1289.412, 9911.589
1291.340, 9884.121
1293.269, 9865.963
1295.197, 9875.235
1297.126, 9899.245
1299.054, 9932.184
1300.983, 9976.135
1302.911, 10007.04
1304.840, 10007.29
1306.768, 10013.69
1308.697, 10037.04
1310.625, 10073.20
1312.554, 10116.11
1314.482, 10173.36
1316.411, 10222.46
1318.339, 10262.57
1320.267, 10294.47
1322.196, 10305.17
1324.124, 10304.12
1326.053, 10336.33
1327.981, 10419.95
1329.910, 10484.28
1331.838, 10496.12
1333.767, 10489.41
1335.695, 10492.76
1337.624, 10506.54
1339.552, 10517.57
1341.481, 10518.09
1343.409, 10530.68
1345.338, 10578.12
1347.266, 10634.37
1349.194, 10656.41
1351.123, 10626.99
1353.051, 10617.42
1354.980, 10644.16
1356.908, 10675.60
1358.837, 10702.27
1360.765, 10724.09
1362.694, 10740.41
1364.622, 10750.41
1366.551, 10760.85
1368.479, 10781.22
1370.408, 10797.48
1372.336, 10791.37
1374.265, 10769.76
1376.193, 10777.54
1378.121, 10827.07
1380.050, 10876.46
1381.978, 10909.08
1383.907, 10937.69
1385.835, 10974.97
1387.764, 11017.37
1389.692, 11048.01
1391.621, 11058.67
1393.549, 11068.65
1395.478, 11092.53
1397.406, 11116.96
1399.335, 11127.55
1401.263, 11125.69
1403.192, 11121.25
1405.120, 11114.55
1407.048, 11110.95
1408.977, 11114.68
1410.905, 11121.49
1412.834, 11121.99
1414.762, 11107.55
1416.691, 11110.97
1418.619, 11136.98
1420.548, 11174.77
1422.476, 11234.06
1424.405, 11300.19
1426.333, 11338.08
1428.262, 11326.50
1430.190, 11332.31
1432.119, 11361.05
1434.047, 11399.58
1435.975, 11442.29
1437.904, 11487.36
1439.832, 11534.69
1441.761, 11588.68
1443.689, 11621.76
1445.618, 11619.46
1447.546, 11606.37
1449.475, 11588.20
1451.403, 11574.01
1453.332, 11587.85
1455.260, 11641.18
1457.189, 11678.64
1459.117, 11669.22
1461.046, 11663.46
1462.974, 11694.51
1464.902, 11749.44
1466.831, 11801.25
1468.759, 11849.38
1470.688, 11882.62
1472.616, 11892.16
1474.545, 11890.18
1476.473, 11877.50
1478.402, 11859.80
1480.330, 11857.02
1482.259, 11875.21
1484.187, 11896.28
1486.116, 11928.09
1488.044, 11954.71
1489.973, 11960.41
1491.901, 11955.49
1493.829, 11974.13
1495.758, 12032.58
1497.686, 12072.03
1499.615, 12070.87
1501.543, 12067.19
1503.472, 12078.57
1505.400, 12100.22
1507.329, 12121.04
1509.257, 12142.56
1511.186, 12164.74
1513.114, 12189.12
1515.043, 12215.58
1516.971, 12248.24
1518.900, 12281.25
1520.828, 12298.61
1522.756, 12285.23
1524.685, 12300.23
1526.613, 12379.11
1528.542, 12438.97
1530.470, 12438.03
1532.399, 12407.56
1534.327, 12391.42
1536.256, 12391.70
1538.184, 12400.79
1540.113, 12429.51
1542.041, 12455.87
1543.970, 12472.00
1545.898, 12484.43
1547.827, 12498.71
1549.755, 12513.74
1551.683, 12526.36
1553.612, 12530.30
1555.540, 12543.47
1557.469, 12581.61
1559.397, 12622.39
1561.326, 12650.11
1563.254, 12666.66
1565.183, 12672.60
1567.111, 12661.77
1569.040, 12664.19
1570.968, 12697.15
1572.896, 12731.36
1574.825, 12744.86
1576.753, 12747.69
1578.682, 12760.62
1580.610, 12786.08
1582.539, 12814.91
1584.467, 12851.77
1586.396, 12885.83
1588.324, 12912.51
1590.253, 12933.52
1592.181, 12946.70
1594.110, 12951.17
1596.038, 12962.24
1597.967, 12980.70
1599.895, 13003.49
1601.823, 13029.08
1603.752, 13059.08
1605.680, 13105.50
1607.609, 13162.04
1609.537, 13183.38
1611.466, 13154.93
1613.394, 13143.63
1615.323, 13174.20
1617.251, 13214.23
1619.180, 13248.94
1621.108, 13278.80
1623.037, 13300.78
1624.965, 13308.51
1626.894, 13338.50
1628.822, 13423.52
1630.750, 13478.59
1632.679, 13456.89
1634.607, 13410.48
1636.536, 13391.57
1638.464, 13400.78
1640.393, 13409.57
1642.321, 13414.11
1644.250, 13434.58
1646.178, 13501.27
1648.107, 13556.81
1650.035, 13554.49
1651.964, 13519.59
1653.892, 13515.94
1655.821, 13546.15
1657.749, 13581.52
1659.677, 13635.38
1661.606, 13669.38
1663.534, 13664.05
1665.463, 13645.39
1667.391, 13632.44
1669.320, 13628.33
1671.248, 13651.89
1673.177, 13715.51
1675.105, 13776.12
1677.034, 13818.19
1678.962, 13862.73
1680.891, 13926.30
1682.819, 13991.19
1684.748, 14023.00
1686.676, 14015.79
1688.604, 14025.48
1690.533, 14065.18
1692.461, 14102.35
1694.390, 14129.73
1696.318, 14153.43
1698.247, 14182.37
1700.175, 14211.26
1702.104, 14214.44
1704.032, 14181.94
1705.961, 14177.64
1707.889, 14225.74
1709.818, 14274.64
1711.746, 14315.19
1713.675, 14342.96
1715.603, 14347.32
1717.531, 14334.13
1719.460, 14338.23
1721.388, 14365.21
1723.317, 14389.64
1725.245, 14399.14
1727.174, 14414.88
1729.102, 14463.47
1731.031, 14511.29
1732.959, 14508.73
1734.888, 14463.10
1736.816, 14441.62
1738.745, 14452.03
1740.673, 14475.83
1742.602, 14515.71
1744.530, 14558.66
1746.458, 14594.96
1748.387, 14629.65
1750.315, 14672.73
1752.244, 14722.17
1754.172, 14763.19
1756.101, 14795.72
1758.029, 14813.11
1759.958, 14805.60
1761.886, 14792.42
1763.815, 14774.67
1765.743, 14765.31
1767.672, 14796.47
1769.600, 14864.37
1771.529, 14893.08
1773.457, 14861.28
1775.385, 14844.33
1777.314, 14868.95
1779.242, 14907.58
1781.171, 14942.57
1783.099, 14979.36
1785.028, 15025.92
1786.956, 15079.73
1788.885, 15141.92
1790.813, 15224.13
1792.742, 15275.74
1794.670, 15271.11
1796.599, 15250.08
1798.527, 15221.06
1800.456, 15198.32
1802.384, 15215.23
1804.313, 15272.08
1806.241, 15285.69
1808.169, 15227.90
1810.098, 15194.03
1812.026, 15208.78
1813.955, 15235.66
1815.883, 15267.27
1817.812, 15297.46
1819.740, 15313.35
1821.669, 15316.64
1823.597, 15333.80
1825.526, 15359.80
1827.454, 15403.47
1829.383, 15477.73
1831.311, 15546.06
1833.240, 15599.00
1835.168, 15635.86
1837.096, 15656.30
1839.025, 15661.90
1840.953, 15651.88
1842.882, 15616.12
1844.810, 15612.15
1846.739, 15671.28
1848.667, 15716.84
1850.596, 15721.08
1852.524, 15713.64
1854.453, 15708.92
1856.381, 15706.89
1858.310, 15714.46
1860.238, 15732.71
1862.167, 15724.69
1864.095, 15674.32
1866.023, 15655.86
1867.952, 15711.14
1869.880, 15771.68
1871.809, 15799.09
1873.737, 15812.03
1875.666, 15825.04
1877.594, 15837.92
1879.523, 15855.15
1881.451, 15874.09
1883.380, 15903.18
1885.308, 15953.01
1887.237, 15995.96
1889.165, 16022.82
1891.094, 16040.94
1893.022, 16053.88
1894.950, 16062.82
1896.879, 16065.81
1898.807, 16061.13
1900.736, 16076.41
1902.664, 16153.50
1904.593, 16170.17
1906.521, 16051.56
1908.450, 15954.50
1910.378, 15957.78
1912.307, 16001.44
1914.235, 16033.44
1916.164, 16055.20
1918.092, 16065.53
1920.021, 16056.84
1921.949, 16071.21
1923.877, 16122.76
1925.806, 16167.37
1927.734, 16188.19
1929.663, 16205.14
1931.591, 16224.99
1933.520, 16246.51
1935.448, 16275.92
1937.377, 16307.28
1939.305, 16309.30
1941.234, 16279.14
1943.162, 16263.94
1945.091, 16273.12
1947.019, 16294.62
1948.948, 16335.76
1950.876, 16373.72
1952.804, 16382.09
1954.733, 16385.38
1956.661, 16424.99
1958.590, 16492.46
1960.518, 16533.06
1962.447, 16540.76
1964.375, 16548.00
1966.304, 16555.87
1968.232, 16565.72
1970.161, 16563.22
1972.089, 16577.19
1974.018, 16649.17
1975.946, 16727.61
1977.875, 16733.30
1979.803, 16678.54
1981.731, 16654.58
1983.660, 16670.34
1985.588, 16678.49
1987.517, 16670.79
1989.445, 16673.15
1991.374, 16693.86
1993.302, 16723.26
1995.231, 16758.66
1997.159, 16795.53
1999.088, 16828.93
2001.016, 16859.39
2002.945, 16895.61
2004.873, 16938.61
2006.802, 16951.88
2008.730, 16913.04
2010.658, 16899.40
2012.587, 16938.06
2014.515, 16988.60
2016.444, 17049.86
2018.372, 17103.23
2020.301, 17119.48
2022.229, 17120.25
2024.158, 17159.01
2026.086, 17236.08
2028.015, 17277.84
2029.943, 17267.31
2031.872, 17272.04
2033.800, 17315.65
2035.729, 17339.42
2037.657, 17310.82
2039.585, 17282.35
2041.514, 17286.37
2043.442, 17308.33
2045.371, 17336.97
2047.299, 17369.93
2049.228, 17398.92
2051.156, 17422.76
2053.085, 17437.61
2055.013, 17430.95
2056.942, 17444.49
2058.870, 17517.28
2060.799, 17565.92
2062.727, 17529.63
2064.656, 17496.60
2066.584, 17543.32
2068.512, 17623.60
2070.441, 17668.39
2072.369, 17680.25
2074.298, 17685.25
2076.226, 17684.78
2078.155, 17664.52
2080.083, 17611.75
2082.012, 17589.43
2083.940, 17629.12
2085.869, 17675.16
2087.797, 17709.43
2089.726, 17733.19
2091.654, 17730.41
2093.583, 17724.05
2095.511, 17754.96
2097.439, 17813.54
2099.368, 17860.04
2101.296, 17899.01
2103.225, 17902.14
2105.153, 17838.14
2107.082, 17795.73
2109.010, 17796.38
2110.939, 17800.87
2112.867, 17794.94
2114.796, 17795.98
2116.724, 17826.21
2118.653, 17861.53
2120.581, 17861.67
2122.510, 17843.82
2124.438, 17857.32
2126.366, 17901.62
2128.295, 17954.55
2130.223, 18020.68
2132.152, 18065.90
2134.080, 18060.75
2136.009, 18065.14
2137.937, 18105.30
2139.866, 18135.01
2141.794, 18116.74
2143.723, 18091.10
2145.651, 18108.47
2147.580, 18144.05
2149.508, 18149.74
2151.437, 18130.95
2153.365, 18092.47
2155.293, 18033.77
2157.222, 18027.58
2159.150, 18096.41
2161.079, 18149.90
2163.007, 18149.98
2164.936, 18158.12
2166.864, 18204.94
2168.793, 18251.91
2170.721, 18269.55
2172.650, 18282.38
2174.578, 18322.40
2176.507, 18374.67
2178.435, 18405.42
2180.364, 18415.08
2182.292, 18413.93
2184.220, 18399.95
2186.149, 18391.94
2188.077, 18389.48
2190.006, 18406.01
2191.934, 18468.78
2193.863, 18505.25
2195.791, 18464.87
2197.720, 18424.51
2199.648, 18433.41
2201.577, 18454.71
2203.505, 18444.08
2205.434, 18422.80
2207.362, 18439.83
2209.291, 18483.18
2211.219, 18482.64
2213.147, 18436.40
2215.076, 18416.75
2217.004, 18434.94
2218.933, 18441.03
2220.861, 18420.10
2222.790, 18415.63
2224.718, 18452.11
2226.647, 18492.17
2228.575, 18532.09
2230.504, 18556.61
2232.432, 18538.81
2234.361, 18514.00
2236.289, 18525.84
2238.218, 18561.70
2240.146, 18589.08
2242.074, 18609.61
2244.003, 18653.69
2245.931, 18719.95
2247.860, 18752.44
2249.788, 18739.93
2251.717, 18719.35
2253.645, 18682.86
2255.574, 18674.40
2257.502, 18742.35
2259.431, 18792.53
2261.359, 18761.23
2263.288, 18735.53
2265.216, 18794.54
2267.145, 18867.91
2269.073, 18880.54
2271.001, 18854.08
2272.930, 18816.16
2274.858, 18778.33
2276.787, 18785.79
2278.715, 18837.24
2280.644, 18868.44
2282.572, 18861.45
2284.501, 18888.73
2286.429, 18979.31
2288.358, 19054.08
2290.286, 19100.39
2292.215, 19133.40
2294.143, 19155.42
2296.072, 19168.93
2298.000, 19183.09
2299.928, 19184.82
2301.857, 19153.44
2303.785, 19117.32
2305.714, 19112.65
2307.642, 19123.33
2309.571, 19109.15
2311.499, 19079.82
2313.428, 19089.13
2315.356, 19139.84
2317.285, 19189.91
2319.213, 19239.41
2321.142, 19289.02
2323.070, 19345.94
2324.999, 19357.16
2326.927, 19277.82
2328.855, 19238.52
2330.784, 19326.86
2332.712, 19394.41
2334.641, 19369.60
2336.569, 19331.38
2338.498, 19328.60
2340.426, 19335.84
2342.355, 19322.47
2344.283, 19313.33
2346.212, 19348.46
2348.140, 19409.95
2350.069, 19457.27
2351.997, 19494.34
2353.926, 19541.18
2355.854, 19596.54
2357.782, 19651.34
2359.711, 19711.39
2361.639, 19737.69
2363.568, 19706.54
2365.496, 19699.10
2367.425, 19733.24
2369.353, 19760.03
2371.282, 19766.78
2373.210, 19774.32
2375.139, 19793.32
2377.067, 19815.02
2378.996, 19848.61
2380.924, 19869.23
2382.853, 19832.78
2384.781, 19800.39
2386.709, 19845.61
2388.638, 19922.12
2390.566, 19974.97
2392.495, 20001.24
2394.423, 19987.89
2396.352, 19944.71
2398.280, 19899.44
2400.209, 19855.63
2402.137, 19841.55
2404.066, 19862.95
2405.994, 19888.62
2407.923, 19912.38
2409.851, 19956.15
2411.780, 20031.22
2413.708, 20075.64
2415.636, 20065.56
2417.565, 20057.68
2419.493, 20076.36
2421.422, 20091.89
2423.350, 20097.31
2425.279, 20100.23
2427.207, 20082.32
2429.136, 20091.38
2431.064, 20194.17
2432.993, 20294.07
2434.921, 20286.90
2436.850, 20245.22
2438.778, 20258.77
2440.707, 20286.97
2442.635, 20250.94
2444.563, 20183.85
2446.492, 20177.74
2448.420, 20223.51
2450.349, 20270.00
2452.277, 20316.23
2454.206, 20304.14
2456.134, 20235.21
2458.063, 20230.51
2459.991, 20306.88
2461.920, 20354.85
2463.848, 20346.61
2465.777, 20351.22
2467.705, 20398.77
2469.634, 20409.52
2471.562, 20348.34
2473.490, 20319.74
2475.419, 20369.77
2477.347, 20405.99
2479.276, 20372.66
2481.204, 20353.46
2483.133, 20398.68
2485.061, 20446.43
2486.990, 20461.62
2488.918, 20465.28
2490.847, 20472.55
2492.775, 20478.78
2494.704, 20478.56
2496.632, 20482.80
2498.561, 20511.39
2500.489, 20547.26
2502.417, 20553.49
2504.346, 20548.93
2506.274, 20571.17
2508.203, 20612.41
2510.131, 20661.28
2512.060, 20712.43
2513.988, 20758.20
2515.917, 20795.84
2517.845, 20800.63
2519.774, 20773.94
2521.702, 20753.60
2523.631, 20737.90
2525.559, 20745.87
2527.488, 20782.24
2529.416, 20787.91
2531.344, 20746.87
2533.273, 20753.96
2535.201, 20846.66
2537.130, 20890.21
2539.058, 20832.42
2540.987, 20799.73
2542.915, 20838.34
2544.844, 20866.56
2546.772, 20857.97
2548.701, 20867.57
2550.629, 20903.71
2552.558, 20959.92
2554.486, 21046.51
2556.415, 21121.84
2558.343, 21169.70
2560.271, 21194.81
2562.200, 21185.57
2564.128, 21176.10
2566.057, 21195.43
2567.985, 21217.66
2569.914, 21232.12
2571.842, 21238.40
2573.771, 21226.04
2575.699, 21213.34
2577.628, 21219.04
2579.556, 21229.88
2581.485, 21227.18
2583.413, 21222.39
2585.342, 21234.17
2587.270, 21255.53
2589.198, 21283.62
2591.127, 21311.11
2593.055, 21319.20
2594.984, 21315.52
2596.912, 21318.82
2598.841, 21323.32
2600.769, 21302.74
2602.698, 21268.89
2604.626, 21264.92
2606.555, 21286.35
2608.483, 21325.28
2610.412, 21375.44
2612.340, 21360.24
2614.269, 21284.88
2616.197, 21263.82
2618.125, 21293.53
2620.054, 21314.45
2621.982, 21323.74
2623.911, 21340.44
2625.839, 21365.06
2627.768, 21376.54
2629.696, 21371.04
2631.625, 21362.30
2633.553, 21350.17
2635.482, 21340.48
2637.410, 21332.63
2639.339, 21368.19
2641.267, 21488.63
2643.196, 21530.69
2645.124, 21452.01
2647.052, 21431.61
2648.981, 21488.58
2650.909, 21528.33
2652.838, 21530.71
2654.766, 21542.53
2656.695, 21576.60
2658.623, 21611.74
2660.552, 21663.59
2662.480, 21681.62
2664.409, 21657.00
2666.337, 21624.03
2668.266, 21576.00
2670.194, 21564.72
2672.123, 21615.68
2674.051, 21673.20
2675.979, 21760.12
2677.908, 21784.44
2679.836, 21706.04
2681.765, 21647.37
2683.693, 21646.46
2685.622, 21644.83
2687.550, 21623.15
2689.479, 21609.09
2691.407, 21605.91
2693.336, 21616.64
2695.264, 21651.53
2697.193, 21672.57
2699.121, 21664.69
2701.050, 21645.88
2702.978, 21607.07
2704.906, 21579.51
2706.835, 21579.08
2708.763, 21580.51
2710.692, 21582.06
2712.620, 21587.71
2714.549, 21598.71
2716.477, 21620.08
2718.406, 21656.19
2720.334, 21692.63
2722.263, 21719.30
2724.191, 21745.88
2726.120, 21781.59
2728.048, 21786.93
2729.977, 21712.65
2731.905, 21674.90
2733.833, 21752.18
2735.762, 21800.59
2737.690, 21791.24
2739.619, 21758.22
2741.547, 21690.63
2743.476, 21653.29
2745.404, 21684.00
2747.333, 21716.78
2749.261, 21747.02
2751.190, 21755.57
2753.118, 21732.34
2755.047, 21699.66
2756.975, 21639.01
2758.904, 21630.54
2760.832, 21755.80
2762.760, 21827.99
2764.689, 21794.16
2766.617, 21765.69
2768.546, 21761.56
2770.474, 21763.77
2772.403, 21769.35
2774.331, 21777.56
2776.260, 21780.23
2778.188, 21795.70
2780.117, 21829.23
2782.045, 21856.23
2783.974, 21873.88
2785.902, 21888.47
2787.831, 21893.88
2789.759, 21927.49
2791.688, 22004.59
2793.616, 22072.34
2795.544, 22124.08
2797.473, 22157.00
2799.401, 22160.53
2801.330, 22172.12
2803.258, 22205.61
2805.187, 22207.28
2807.115, 22175.68
2809.044, 22135.64
2810.972, 22091.73
2812.901, 22063.77
2814.829, 22060.61
2816.758, 22046.56
2818.686, 22020.81
2820.615, 22000.47
2822.543, 21985.80
2824.471, 21995.28
2826.400, 22025.52
2828.328, 22022.08
2830.257, 21987.05
2832.185, 21995.68
2834.114, 22040.82
2836.042, 22083.65
2837.971, 22122.59
2839.899, 22156.48
2841.828, 22183.05
2843.756, 22177.64
2845.685, 22156.07
2847.613, 22162.17
2849.542, 22187.32
2851.470, 22218.86
2853.398, 22243.66
2855.327, 22232.63
2857.255, 22205.01
2859.184, 22199.93
2861.112, 22202.56
2863.041, 22196.38
2864.969, 22190.10
2866.898, 22198.82
2868.826, 22205.98
2870.755, 22188.47
2872.683, 22162.77
2874.612, 22137.67
2876.540, 22112.50
2878.469, 22090.59
2880.397, 22066.92
2882.325, 22032.05
2884.254, 22011.43
2886.182, 22024.91
2888.111, 22040.00
2890.039, 22032.22
2891.968, 22036.51
2893.896, 22077.53
2895.825, 22106.10
2897.753, 22105.40
2899.682, 22107.14
2901.610, 22122.85
2903.539, 22126.80
2905.467, 22090.41
2907.396, 22090.42
2909.324, 22144.06
2911.252, 22158.62
2913.181, 22121.67
2915.109, 22105.45
2917.038, 22127.38
2918.966, 22119.50
2920.895, 22080.46
2922.823, 22115.82
2924.752, 22213.46
2926.680, 22248.75
2928.609, 22227.75
2930.537, 22210.99
2932.466, 22198.96
2934.394, 22200.31
2936.323, 22216.12
2938.251, 22262.97
2940.179, 22317.72
2942.108, 22343.53
2944.036, 22349.33
2945.965, 22342.74
2947.893, 22326.63
2949.822, 22281.52
2951.750, 22258.93
2953.679, 22343.26
2955.607, 22411.50
2957.536, 22357.46
2959.464, 22310.92
2961.393, 22336.84
2963.321, 22368.42
2965.250, 22365.85
2967.178, 22383.48
2969.106, 22450.29
2971.035, 22473.91
2972.963, 22419.91
2974.892, 22388.94
2976.820, 22414.35
2978.749, 22432.80
2980.677, 22442.75
2982.606, 22465.73
2984.534, 22501.29
2986.463, 22516.43
2988.391, 22509.55
2990.320, 22454.19
2992.248, 22367.46
2994.177, 22325.56
2996.105, 22319.93
2998.033, 22333.22
2999.962, 22357.29
3001.890, 22369.91
3003.819, 22389.39
3005.747, 22445.19
3007.676, 22504.98
3009.604, 22537.68
3011.533, 22557.83
3013.461, 22565.70
3015.390, 22570.18
3017.318, 22582.00
3019.247, 22576.86
3021.175, 22532.51
3023.104, 22508.38
3025.032, 22529.38
3026.960, 22542.97
3028.889, 22545.87
3030.817, 22525.91
3032.746, 22469.98
3034.674, 22426.48
3036.603, 22393.50
3038.531, 22407.40
3040.460, 22455.73
3042.388, 22459.43
3044.317, 22438.96
3046.245, 22458.85
3048.173, 22498.24
3050.102, 22512.05
3052.030, 22519.40
3053.959, 22521.76
3055.887, 22547.69
3057.816, 22687.70
3059.744, 22759.57
3061.673, 22600.60
3063.601, 22468.80
3065.530, 22502.50
3067.458, 22537.83
3069.386, 22543.91
3071.315, 22563.16
3073.243, 22602.91
3075.172, 22648.89
3077.100, 22698.26
3079.029, 22728.95
3080.957, 22739.10
3082.886, 22739.12
3084.814, 22728.80
3086.743, 22696.41
3088.671, 22659.67
3090.600, 22651.29
3092.528, 22671.14
3094.457, 22723.04
3096.385, 22784.06
3098.313, 22810.71
3100.242, 22856.66
3102.170, 22984.37
3104.099, 23050.21
3106.027, 22942.44
3107.956, 22861.12
3109.884, 22867.24
3111.813, 22850.72
3113.741, 22800.60
3115.670, 22773.39
3117.598, 22775.71
3119.527, 22806.02
3121.455, 22853.78
3123.384, 22852.53
3125.312, 22824.83
3127.240, 22848.47
3129.169, 22883.74
3131.097, 22865.55
3133.026, 22831.00
3134.954, 22798.64
3136.883, 22791.51
3138.811, 22851.66
3140.740, 22894.10
3142.668, 22882.45
3144.597, 22877.22
3146.525, 22888.56
3148.454, 22915.90
3150.382, 22957.25
3152.311, 23002.89
3154.239, 23047.79
3156.167, 23056.76
3158.096, 23039.17
3160.024, 23053.13
3161.953, 23064.65
3163.881, 22990.16
3165.810, 22898.68
3167.738, 22836.94
3169.667, 22830.80
3171.595, 22941.07
3173.524, 23023.25
3175.452, 23000.51
3177.381, 22969.56
3179.309, 22940.83
3181.238, 22937.16
3183.166, 22961.77
3185.094, 22985.98
3187.023, 23006.61
3188.951, 23033.41
3190.880, 23063.81
3192.808, 23108.53
3194.737, 23139.86
3196.665, 23090.27
3198.594, 23037.74
3200.522, 23069.34
3202.451, 23109.07
3204.379, 23135.45
3206.308, 23126.62
3208.236, 23046.33
3210.165, 23013.35
3212.093, 23049.81
3214.021, 23046.44
3215.950, 22993.63
3217.878, 22989.21
3219.807, 23022.25
3221.735, 23039.24
3223.664, 23054.01
3225.592, 23089.47
3227.521, 23130.06
3229.449, 23142.30
3231.378, 23173.34
3233.306, 23287.88
3235.235, 23346.16
3237.163, 23304.03
3239.092, 23230.94
3241.020, 23138.95
3242.948, 23034.21
3244.877, 22923.05
3246.805, 22969.82
3248.734, 23117.69
3250.662, 23199.43
3252.591, 23228.59
3254.519, 23184.92
3256.448, 23148.92
3258.376, 23195.61
3260.305, 23242.44
3262.233, 23275.73
3264.162, 23253.41
3266.090, 23157.62
3268.019, 23123.23
3269.947, 23174.15
3271.875, 23164.03
3273.804, 23106.54
3275.732, 23097.49
3277.661, 23119.08
3279.589, 23145.43
3281.518, 23170.00
3283.446, 23180.24
3285.375, 23191.08
3287.303, 23208.86
3289.232, 23229.65
3291.160, 23271.49
3293.089, 23252.87
3295.017, 23169.97
3296.946, 23162.87
3298.874, 23223.89
3300.802, 23280.88
3302.731, 23320.85
3304.659, 23303.71
3306.588, 23274.20
3308.516, 23255.01
3310.445, 23275.21
3312.373, 23372.47
3314.302, 23438.06
3316.230, 23416.99
3318.159, 23418.54
3320.087, 23444.02
3322.016, 23465.64
3323.944, 23477.39
3325.873, 23470.27
3327.801, 23441.25
3329.729, 23349.69
3331.658, 23290.24
3333.586, 23368.54
3335.515, 23443.21
3337.443, 23468.97
3339.372, 23464.70
3341.300, 23417.29
3343.229, 23422.33
3345.157, 23475.92
3347.086, 23467.31
3349.014, 23428.28
3350.943, 23437.82
3352.871, 23453.78
3354.800, 23398.70
3356.728, 23382.23
3358.656, 23492.23
3360.585, 23581.81
3362.513, 23621.44
3364.442, 23627.55
3366.370, 23601.25
3368.299, 23582.37
3370.227, 23578.23
3372.156, 23634.03
3374.084, 23691.65
3376.013, 23671.96
3377.941, 23638.32
3379.870, 23605.73
3381.798, 23615.63
3383.727, 23694.98
3385.655, 23728.71
3387.583, 23702.52
3389.512, 23735.96
3391.440, 23795.85
3393.369, 23756.66
3395.297, 23690.35
3397.226, 23704.22
3399.154, 23726.36
3401.083, 23714.17
3403.011, 23698.59
3404.940, 23670.80
3406.868, 23708.07
3408.797, 23813.50
3410.725, 23847.99
3412.654, 23835.38
3414.582, 23870.06
3416.510, 23911.43
3418.439, 23914.09
3420.367, 23911.52
3422.296, 23934.92
3424.224, 23909.24
3426.153, 23764.68
3428.081, 23798.27
3430.010, 23992.66
3431.938, 24045.86
3433.867, 23997.62
3435.795, 23869.28
3437.724, 23785.87
3439.652, 23892.01
3441.581, 23990.00
3443.509, 23968.80
3445.438, 23987.57
3447.366, 24063.64
3449.294, 24107.13
3451.223, 24124.21
3453.151, 24158.72
3455.080, 24179.76
3457.008, 24130.93
3458.937, 24069.53
3460.865, 24011.03
3462.794, 23987.35
3464.722, 24008.65
3466.651, 24036.04
3468.579, 24067.44
3470.508, 24130.08
3472.436, 24195.38
3474.365, 24207.36
3476.293, 24190.62
3478.221, 24149.95
3480.150, 24120.03
3482.078, 24123.29
3484.007, 24110.64
3485.935, 24079.56
3487.864, 24033.72
3489.792, 23995.63
3491.721, 24050.00
3493.649, 24116.24
3495.578, 24106.60
3497.506, 24085.14
3499.435, 24090.47
3501.363, 24057.97
3503.292, 23980.63
3505.220, 23966.84
3507.148, 23999.57
3509.077, 24004.37
3511.005, 23987.09
3512.934, 23935.85
3514.862, 23898.99
3516.791, 23883.84
3518.719, 23935.24
3520.648, 24070.96
3522.576, 24106.90
3524.505, 24067.45
3526.433, 24131.36
3528.362, 24210.68
3530.290, 24192.91
3532.219, 24160.29
3534.147, 24144.80
3536.075, 24141.33
3538.004, 24161.12
3539.932, 24118.84
3541.861, 24042.80
3543.789, 24018.19
3545.718, 24037.64
3547.646, 24130.49
3549.575, 24199.48
3551.503, 24167.82
3553.432, 24189.19
3555.360, 24276.58
3557.289, 24356.93
3559.217, 24420.82
3561.146, 24444.22
3563.074, 24456.12
3565.002, 24476.35
3566.931, 24510.05
3568.859, 24598.75
3570.788, 24575.67
3572.716, 24445.79
3574.645, 24428.08
3576.573, 24484.63
3578.502, 24520.32
3580.430, 24550.54
3582.359, 24578.55
3584.287, 24603.32
3586.216, 24616.05
3588.144, 24652.55
3590.073, 24705.34
3592.001, 24696.23
3593.929, 24674.00
3595.858, 24718.16
3597.786, 24770.61
3599.715, 24806.75
3601.643, 24829.99
3603.572, 24837.85
3605.500, 24859.10
3607.429, 24878.38
3609.357, 24819.00
3611.286, 24759.66
3613.214, 24801.69
3615.143, 24822.71
3617.071, 24776.50
3619.000, 24757.53
3620.928, 24768.05
3622.856, 24723.99
3624.785, 24656.69
3626.713, 24607.22
3628.642, 24587.71
3630.570, 24621.42
3632.499, 24641.31
3634.427, 24638.29
3636.356, 24586.99
3638.284, 24521.03
3640.213, 24532.64
3642.141, 24581.56
3644.070, 24654.94
3645.998, 24691.48
3647.927, 24655.65
3649.855, 24605.58
3651.783, 24551.43
3653.712, 24541.77
3655.640, 24552.15
3657.569, 24543.54
3659.497, 24549.88
3661.426, 24548.54
3663.354, 24687.26
3665.283, 24954.88
3667.211, 25053.96
3669.140, 25089.97
3671.068, 25263.65
3672.997, 25482.29
3674.925, 25719.66
3676.854, 25914.94
3678.782, 26057.46
3680.710, 26258.56
3682.639, 26443.07
3684.567, 26359.38
3686.496, 26243.57
3688.424, 26309.72
3690.353, 26342.57
3692.281, 26335.18
3694.210, 25983.58
3696.138, 25401.14
3698.067, 24886.37
3699.995, 24580.68
3701.924, 24717.33
3703.852, 24780.51
3705.781, 24618.77
3707.709, 24504.12
3709.637, 24431.85
3711.566, 24286.78
3713.494, 24163.05
3715.423, 24162.48
3717.351, 24186.90
3719.280, 24204.73
3721.208, 24231.66
3723.137, 24256.07
3725.065, 24241.03
3726.994, 24204.96
3728.922, 24173.38
3730.851, 24138.17
3732.779, 24106.08
3734.708, 24067.47
3736.636, 24031.67
3738.564, 24014.89
3740.493, 24027.04
3742.421, 24090.60
3744.350, 24135.23
3746.278, 24122.37
3748.207, 24153.49
3750.135, 24211.07
3752.064, 24188.94
3753.992, 24146.01
3755.921, 24146.65
3757.849, 24149.17
3759.778, 24146.51
3761.706, 24147.13
3763.635, 24150.61
3765.563, 24128.70
3767.491, 24127.66
3769.420, 24204.30
3771.348, 24252.94
3773.277, 24246.21
3775.205, 24232.22
3777.134, 24220.24
3779.062, 24235.60
3780.991, 24252.10
3782.919, 24246.48
3784.848, 24236.57
3786.776, 24220.49
3788.705, 24282.03
3790.633, 24361.11
3792.562, 24299.38
3794.490, 24234.69
3796.418, 24253.80
3798.347, 24287.35
3800.275, 24323.40
3802.204, 24287.22
3804.132, 24236.15
3806.061, 24278.54
3807.989, 24319.34
3809.918, 24317.57
3811.846, 24321.62
3813.775, 24332.14
3815.703, 24312.89
3817.632, 24290.32
3819.560, 24298.20
3821.489, 24300.08
3823.417, 24272.51
3825.345, 24275.15
3827.274, 24303.02
3829.202, 24358.38
3831.131, 24398.10
3833.059, 24387.80
3834.988, 24372.53
3836.916, 24363.63
3838.845, 24310.49
3840.773, 24260.37
3842.702, 24297.70
3844.630, 24359.06
3846.559, 24424.78
3848.487, 24459.01
3850.416, 24462.88
3852.344, 24463.82
3854.272, 24459.85
3856.201, 24469.38
3858.129, 24429.59
3860.058, 24321.09
3861.986, 24347.70
3863.915, 24455.38
3865.843, 24522.71
3867.772, 24543.42
3869.700, 24497.13
3871.629, 24450.53
3873.557, 24416.17
3875.486, 24445.46
3877.414, 24480.77
3879.343, 24471.46
3881.271, 24456.06
3883.199, 24435.99
3885.128, 24402.32
3887.056, 24362.02
3888.985, 24327.07
3890.913, 24333.41
3892.842, 24431.46
3894.770, 24481.47
3896.699, 24480.46
3898.627, 24413.68
3900.556, 24344.56
3902.484, 24390.47
3904.413, 24450.60
3906.341, 24474.83
3908.270, 24444.56
3910.198, 24417.18
3912.126, 24437.38
3914.055, 24458.36
3915.983, 24490.63
3917.912, 24490.24
3919.840, 24470.86
3921.769, 24479.70
3923.697, 24480.65
3925.626, 24460.25
3927.554, 24426.96
3929.483, 24349.15
3931.411, 24377.34
3933.340, 24464.56
3935.268, 24515.70
3937.197, 24523.09
3939.125, 24482.09
3941.053, 24421.93
3942.982, 24392.49
3944.910, 24436.83
3946.839, 24457.23
3948.767, 24466.71
3950.696, 24415.46
3952.624, 24318.42
3954.553, 24403.91
3956.481, 24500.95
3958.410, 24422.77
3960.338, 24390.43
3962.267, 24447.46
3964.195, 24481.37
3966.124, 24480.25
3968.052, 24487.47
3969.980, 24496.17
3971.909, 24478.89
3973.837, 24460.12
3975.766, 24450.20
3977.694, 24477.95
3979.623, 24478.92
3981.551, 24428.39
3983.480, 24463.62
3985.408, 24548.49
3987.337, 24543.27
3989.265, 24539.61
3991.194, 24567.44
3993.122, 24585.02
3995.051, 24598.57
3996.979, 24577.83
3998.907, 24547.29
4000.836, 24527.37
4002.764, 24533.64
4004.693, 24571.20
4006.621, 24583.22
4008.550, 24595.48
4010.478, 24653.30
4012.407, 24660.84
4014.335, 24637.96
4016.264, 24697.85
4018.192, 24751.83
4020.121, 24717.90
4022.049, 24700.24
4023.978, 24719.00
4025.906, 24746.91
4027.834, 24777.56
4029.763, 24821.23
4031.691, 24851.63
4033.620, 24844.74
4035.548, 24872.06
4037.477, 24922.45
4039.405, 24962.10
4041.334, 24969.52
4043.262, 24929.20
4045.191, 24911.20
4047.119, 24920.85
4049.048, 24960.03
4050.976, 25001.01
4052.905, 25010.34
4054.833, 25049.49
4056.761, 25112.78
4058.690, 25116.04
4060.618, 25112.48
4062.547, 25134.38
4064.475, 25108.25
4066.404, 25066.67
4068.332, 25071.26
4070.261, 25078.58
4072.189, 25029.39
4074.118, 25006.33
4076.046, 25034.59
4077.975, 25064.69
4079.903, 25089.54
4081.832, 25130.37
4083.760, 25120.89
4085.688, 25042.31
4087.617, 25040.44
4089.545, 25052.77
4091.474, 24983.65
4093.402, 24963.38
4095.331, 25056.02
4097.259, 25089.35
4099.188, 25055.52
4101.116, 25064.30
4103.044, 25085.65
4104.973, 25089.00
4106.901, 25083.65
4108.830, 25089.55
4110.758, 25122.13
4112.687, 25154.73
4114.615, 25207.71
4116.544, 25232.06
4118.472, 25219.34
4120.401, 25210.10
4122.329, 25191.85
4124.258, 25173.66
4126.186, 25155.00
4128.115, 25120.51
4130.043, 25178.38
4131.972, 25304.41
4133.900, 25394.88
4135.829, 25373.96
4137.757, 25278.57
4139.686, 25333.49
4141.614, 25413.41
4143.542, 25395.38
4145.471, 25440.93
4147.399, 25594.68
4149.328, 25651.95
4151.256, 25651.90
4153.185, 25635.23
4155.113, 25647.80
4157.042, 25694.19
4158.970, 25731.61
4160.898, 25793.94
4162.827, 25855.18
4164.755, 25864.50
4166.684, 25850.48
4168.612, 25866.03
4170.541, 25844.53
4172.469, 25759.78
4174.398, 25742.62
4176.326, 25860.88
4178.255, 25920.38
4180.183, 25906.80
4182.112, 25953.62
4184.040, 26006.94
4185.969, 26020.14
4187.897, 26039.00
4189.826, 26067.86
4191.754, 26053.98
4193.683, 26049.36
4195.611, 26109.12
4197.540, 26140.40
4199.468, 26152.88
4201.396, 26091.25
4203.325, 26019.45
4205.253, 26008.84
4207.182, 26052.52
4209.110, 26121.32
4211.039, 26074.19
4212.967, 26038.90
4214.896, 26099.02
4216.824, 26160.93
4218.752, 26218.32
4220.681, 26264.80
4222.609, 26297.89
4224.538, 26310.96
4226.466, 26307.34
4228.395, 26285.67
4230.323, 26204.11
4232.252, 26172.39
4234.180, 26268.46
4236.109, 26338.21
4238.037, 26386.10
4239.966, 26462.10
4241.894, 26507.72
4243.823, 26479.09
4245.751, 26507.04
4247.680, 26556.92
4249.608, 26551.50
4251.537, 26529.08
4253.465, 26495.02
4255.394, 26499.97
4257.322, 26533.66
4259.250, 26593.20
4261.179, 26638.42
4263.107, 26653.27
4265.036, 26740.24
4266.964, 26832.52
4268.893, 26829.80
4270.821, 26873.41
4272.750, 26977.15
4274.678, 26862.09
4276.606, 26750.57
4278.535, 26868.64
4280.463, 26961.47
4282.392, 27004.95
4284.320, 26991.85
4286.249, 27020.27
4288.177, 27184.04
4290.106, 27244.16
4292.034, 27224.27
4293.963, 27226.15
4295.891, 27259.10
4297.820, 27337.65
4299.748, 27375.44
4301.677, 27410.35
4303.605, 27537.82
4305.534, 27635.70
4307.462, 27670.38
4309.391, 27679.05
4311.319, 27698.01
4313.248, 27781.04
4315.176, 27825.87
4317.104, 27823.72
4319.033, 27869.89
4320.961, 27927.52
4322.890, 27980.34
4324.818, 27993.67
4326.747, 28002.59
4328.675, 28161.16
4330.604, 28292.01
4332.532, 28319.96
4334.460, 28361.54
4336.389, 28410.70
4338.317, 28440.69
4340.246, 28485.16
4342.174, 28549.32
4344.103, 28614.93
4346.031, 28677.77
4347.960, 28751.12
4349.888, 28768.88
4351.817, 28733.04
4353.745, 28643.93
4355.674, 28600.87
4357.602, 28664.80
4359.531, 28780.75
4361.459, 28905.22
4363.388, 28935.92
4365.316, 28989.14
4367.245, 29095.34
4369.173, 29267.29
4371.102, 29382.49
4373.030, 29259.04
4374.958, 29180.46
4376.887, 29175.00
4378.815, 29224.14
4380.744, 29316.52
4382.672, 29465.54
4384.601, 29520.61
4386.529, 29516.89
4388.458, 29490.46
4390.386, 29551.69
4392.314, 29712.89
4394.243, 29758.60
4396.171, 29787.95
4398.100, 29885.95
4400.028, 29947.03
4401.957, 29972.02
4403.885, 29987.32
4405.814, 30033.20
4407.742, 30127.99
4409.671, 30139.59
4411.599, 30126.93
4413.528, 30159.70
4415.456, 30215.24
4417.385, 30287.51
4419.313, 30375.66
4421.242, 30452.29
4423.170, 30505.08
4425.099, 30480.64
4427.027, 30459.75
4428.956, 30633.47
4430.884, 30744.13
4432.813, 30745.15
4434.741, 30744.54
4436.669, 30805.29
4438.598, 30993.95
4440.526, 31036.61
4442.455, 31010.40
4444.383, 31122.21
4446.312, 31265.06
4448.240, 31398.01
4450.168, 31427.04
4452.097, 31428.76
4454.025, 31468.19
4455.954, 31554.81
4457.882, 31643.30
4459.811, 31562.35
4461.739, 31561.89
4463.668, 31727.79
4465.596, 31785.50
4467.525, 31839.54
4469.453, 31981.46
4471.382, 32117.80
4473.310, 32232.70
4475.239, 32289.02
4477.167, 32393.05
4479.096, 32559.90
4481.024, 32585.59
4482.953, 32602.57
4484.881, 32737.20
4486.810, 32891.16
4488.738, 33030.33
4490.667, 33090.18
4492.595, 33103.71
4494.523, 33078.56
4496.452, 33196.07
4498.380, 33276.98
4500.309, 33165.07
4502.237, 33192.52
4504.166, 33331.69
4506.094, 33527.54
4508.022, 33653.86
4509.951, 33690.28
4511.879, 33665.81
4513.808, 33643.52
4515.736, 33648.19
4517.665, 33787.56
4519.593, 33962.96
4521.522, 34016.64
4523.450, 33983.96
4525.379, 33906.73
4527.307, 34050.71
4529.236, 34197.67
4531.164, 34262.21
4533.093, 34321.95
4535.021, 34368.62
4536.950, 34374.65
4538.878, 34419.18
4540.807, 34504.05
4542.735, 34628.97
4544.664, 34713.84
4546.592, 34731.52
4548.521, 34778.41
4550.449, 34869.08
4552.377, 35022.29
4554.306, 35117.02
4556.234, 35140.56
4558.163, 35052.52
4560.091, 35028.84
4562.020, 35084.57
4563.948, 35134.77
4565.876, 35208.89
4567.805, 35325.00
4569.733, 35440.21
4571.662, 35567.89
4573.590, 35729.77
4575.519, 35780.68
4577.447, 35777.97
4579.376, 35897.61
4581.304, 35953.08
4583.233, 35934.11
4585.161, 35975.02
4587.090, 36023.28
4589.018, 36049.78
4590.947, 36068.30
4592.875, 36130.44
4594.804, 36309.51
4596.732, 36378.88
4598.661, 36382.43
4600.589, 36468.81
4602.518, 36565.68
4604.446, 36652.53
4606.375, 36664.70
4608.303, 36696.57
4610.231, 36801.40
4612.160, 36868.59
4614.088, 36931.68
4616.017, 37029.39
4617.945, 37095.51
4619.874, 37123.99
4621.802, 37065.95
4623.730, 37136.64
4625.659, 37317.64
4627.587, 37335.38
4629.516, 37358.68
4631.444, 37454.36
4633.373, 37533.19
4635.301, 37570.57
4637.230, 37547.19
4639.158, 37542.05
4641.087, 37604.77
4643.015, 37831.20
4644.944, 37975.37
4646.872, 38022.51
4648.801, 37982.78
4650.729, 37971.25
4652.658, 38016.62
4654.586, 38148.91
4656.515, 38255.34
4658.443, 38290.85
4660.372, 38404.67
4662.300, 38524.89
4664.229, 38572.11
4666.157, 38582.97
4668.085, 38634.75
4670.014, 38896.84
4671.942, 38981.31
4673.871, 38930.96
4675.799, 38989.77
4677.728, 38991.03
4679.656, 38919.70
4681.584, 39037.51
4683.513, 39160.89
4685.441, 39220.47
4687.370, 39326.67
4689.298, 39421.31
4691.227, 39454.63
4693.155, 39551.74
4695.084, 39701.32
4697.012, 39913.02
4698.941, 39998.12
4700.869, 40014.22
4702.798, 40123.71
4704.726, 40208.27
4706.655, 40252.88
4708.583, 40252.02
4710.512, 40288.12
4712.440, 40385.61
4714.369, 40544.30
4716.297, 40668.64
4718.226, 40718.64
4720.154, 40785.14
4722.083, 40836.28
4724.011, 40828.12
4725.939, 40900.63
4727.868, 41028.98
4729.796, 41193.11
4731.725, 41323.54
4733.653, 41409.59
4735.582, 41412.33
4737.510, 41500.54
4739.438, 41643.00
4741.367, 41680.88
4743.295, 41737.48
4745.224, 41829.08
4747.152, 41856.25
4749.081, 41965.36
4751.009, 42178.95
4752.938, 42280.56
4754.866, 42301.14
4756.795, 42252.57
4758.723, 42296.77
4760.652, 42423.44
4762.580, 42637.37
4764.509, 42656.81
4766.437, 42615.77
4768.366, 42641.37
4770.294, 42749.24
4772.223, 42908.72
4774.151, 43110.02
4776.080, 43189.52
4778.008, 43221.43
4779.937, 43363.91
4781.865, 43509.65
4783.793, 43647.64
4785.722, 43802.52
4787.650, 43995.73
4789.579, 44179.68
4791.507, 44151.04
4793.436, 44110.39
4795.364, 44113.66
4797.292, 44169.77
4799.221, 44248.42
4801.149, 44334.33
4803.078, 44398.14
4805.006, 44456.71
4806.935, 44518.54
4808.863, 44655.67
4810.792, 44790.77
4812.720, 44882.82
4814.649, 44956.77
4816.577, 45052.42
4818.506, 45223.11
4820.434, 45159.85
4822.363, 45129.68
4824.291, 45357.62
4826.220, 45537.88
4828.148, 45644.76
4830.077, 45655.19
4832.005, 45707.05
4833.934, 45788.01
4835.862, 45883.76
4837.791, 45928.78
4839.719, 45989.11
4841.647, 46199.63
4843.576, 46322.79
4845.504, 46375.20
4847.433, 46386.17
4849.361, 46517.42
4851.290, 46718.53
4853.218, 46893.04
4855.146, 46872.80
4857.075, 46779.81
4859.003, 46994.98
4860.932, 47073.61
4862.860, 47045.82
4864.789, 47223.36
4866.717, 47256.50
4868.646, 47183.39
4870.574, 47311.93
4872.503, 47426.57
4874.431, 47484.61
4876.360, 47490.71
4878.288, 47486.98
4880.217, 47491.45
4882.145, 47495.46
4884.074, 47633.04
4886.002, 47870.38
4887.931, 47938.04
4889.859, 47981.82
4891.788, 48046.64
4893.716, 48158.72
4895.645, 48293.25
4897.573, 48419.83
4899.501, 48415.77
4901.430, 48389.73
4903.358, 48406.70
4905.287, 48699.91
4907.215, 48830.30
4909.144, 48759.05
4911.072, 48841.26
4913.000, 48902.34
4914.929, 48917.07
4916.857, 48942.32
4918.786, 48992.08
4920.714, 49064.58
4922.643, 49170.00
4924.571, 49275.84
4926.500, 49364.48
4928.428, 49423.27
4930.357, 49434.02
4932.285, 49421.54
4934.214, 49444.09
4936.142, 49505.08
4938.071, 49604.66
4939.999, 49749.39
4941.928, 49838.05
4943.856, 49900.54
4945.785, 50116.20
4947.713, 50265.58
4949.642, 50342.55
4951.570, 50461.49
4953.499, 50479.45
4955.427, 50419.39
4957.355, 50361.84
4959.284, 50327.46
4961.212, 50323.83
4963.141, 50372.19
4965.069, 50432.19
4966.998, 50492.05
4968.926, 50516.22
4970.854, 50645.19
4972.783, 50814.81
4974.711, 50907.55
4976.640, 50957.07
4978.568, 50987.79
4980.497, 51041.86
4982.425, 51063.72
4984.354, 51089.74
4986.282, 51172.54
4988.211, 51075.07
4990.139, 51023.26
4992.068, 51233.62
4993.996, 51327.28
4995.925, 51443.00
4997.853, 51662.89
4999.782, 51777.72
5001.710, 51804.81
5003.639, 51777.09
5005.567, 51777.80
5007.496, 51824.86
5009.424, 51915.34
5011.353, 51960.64
5013.281, 52107.66
5015.209, 52323.72
5017.138, 52242.91
5019.066, 52174.83
5020.995, 52196.59
5022.923, 52299.47
5024.852, 52353.82
5026.780, 52346.07
5028.708, 52281.16
5030.637, 52290.41
5032.565, 52367.95
5034.494, 52446.17
5036.422, 52617.67
5038.351, 52828.57
5040.279, 53032.98
5042.208, 53038.45
5044.136, 53001.16
5046.065, 53078.58
5047.993, 53099.80
5049.922, 53136.04
5051.850, 53231.84
5053.779, 53378.82
5055.707, 53388.78
5057.636, 53219.65
5059.564, 53142.04
5061.493, 53178.84
5063.421, 53304.09
5065.350, 53333.35
5067.278, 53298.54
5069.207, 53262.36
5071.135, 53425.50
5073.063, 53509.18
5074.992, 53525.35
5076.920, 53594.86
5078.849, 53622.38
5080.777, 53627.29
5082.706, 53642.39
5084.634, 53562.73
5086.563, 53593.65
5088.491, 53868.07
5090.419, 54004.07
5092.348, 53994.44
5094.276, 53871.34
5096.205, 53823.90
5098.133, 53842.39
5100.062, 53922.08
5101.990, 54138.07
5103.919, 54081.07
5105.847, 53859.68
5107.776, 53934.16
5109.704, 54014.55
5111.633, 54066.84
5113.561, 54095.42
5115.490, 54057.91
5117.418, 54007.22
5119.347, 53979.29
5121.275, 53967.84
5123.204, 54043.73
5125.132, 54213.70
5127.061, 54140.98
5128.989, 54084.56
5130.917, 54130.25
5132.846, 54309.91
5134.774, 54431.52
5136.703, 54438.66
5138.631, 54245.84
5140.560, 54312.63
5142.488, 54464.98
5144.417, 54462.82
5146.345, 54489.13
5148.273, 54559.32
5150.202, 54669.76
5152.130, 54624.17
5154.059, 54661.00
5155.987, 54782.04
5157.916, 54630.91
5159.844, 54589.21
5161.773, 54643.10
5163.701, 54556.22
5165.630, 54714.44
5167.558, 54936.32
5169.487, 54995.59
5171.415, 55173.29
5173.344, 55353.78
5175.272, 55452.83
5177.201, 55439.19
5179.129, 55323.07
5181.058, 55173.98
5182.986, 55234.45
5184.915, 55224.72
5186.843, 55209.96
5188.771, 55377.08
5190.700, 55357.62
5192.628, 55314.75
5194.557, 55423.83
5196.485, 55347.02
5198.414, 55204.31
5200.342, 55085.63
5202.271, 55205.17
5204.199, 55367.34
5206.127, 55467.23
5208.056, 55366.98
5209.984, 55275.29
5211.913, 55261.28
5213.841, 55399.18
5215.770, 55435.31
5217.698, 55501.64
5219.627, 55629.91
5221.555, 55687.00
5223.484, 55685.18
5225.412, 55666.45
5227.341, 55700.73
5229.269, 55812.14
5231.198, 55913.00
5233.126, 55898.26
5235.055, 55862.25
5236.983, 55795.69
5238.912, 55707.12
5240.840, 55677.76
5242.769, 55622.23
5244.697, 55567.95
5246.625, 55593.02
5248.554, 55643.49
5250.482, 55599.22
5252.411, 55345.18
5254.339, 55689.41
5256.268, 55818.39
5258.196, 55562.93
5260.125, 55547.54
5262.053, 55669.73
5263.981, 55773.28
5265.910, 55626.48
5267.838, 55527.13
5269.767, 55485.00
5271.695, 55494.82
5273.624, 55426.84
5275.552, 55411.17
5277.481, 55467.56
5279.409, 55565.84
5281.338, 55653.81
5283.266, 55675.69
5285.195, 55547.58
5287.123, 55576.16
5289.052, 55628.24
5290.980, 55638.34
5292.909, 55529.83
5294.837, 55542.23
5296.766, 55619.61
5298.694, 55615.84
5300.623, 55623.33
5302.551, 55553.16
5304.479, 55367.46
5306.408, 55362.73
5308.336, 55252.92
5310.265, 55130.49
5312.193, 55377.01
5314.122, 55481.67
5316.050, 55439.94
5317.979, 55315.79
5319.907, 55504.26
5321.835, 55513.36
5323.764, 55343.66
5325.692, 55590.26
5327.621, 55588.88
5329.549, 55468.77
5331.478, 55432.96
5333.406, 55477.79
5335.335, 55424.41
5337.263, 55279.54
5339.192, 55283.31
5341.120, 55325.68
5343.049, 55323.29
5344.977, 55137.68
5346.906, 55359.64
5348.834, 55474.72
5350.763, 55351.30
5352.691, 55288.16
5354.620, 55239.15
5356.548, 55226.75
5358.477, 55290.63
5360.405, 55191.48
5362.333, 55105.30
5364.262, 55072.15
5366.190, 54917.50
5368.119, 54919.84
5370.047, 54970.70
5371.976, 54925.36
5373.904, 54879.96
5375.833, 54902.38
5377.761, 54984.74
5379.689, 55041.14
5381.618, 55063.00
5383.546, 55045.60
5385.475, 54981.86
5387.403, 55023.03
5389.332, 55054.28
5391.260, 55021.53
5393.189, 54837.40
5395.117, 54932.11
5397.046, 55001.88
5398.974, 54804.71
5400.903, 54703.02
5402.831, 54438.75
5404.760, 54175.37
5406.688, 54464.53
5408.617, 54487.78
5410.545, 54431.66
5412.474, 54425.57
5414.402, 54492.39
5416.331, 54453.75
5418.259, 54349.19
5420.188, 54290.25
5422.116, 54042.85
5424.044, 53964.05
5425.973, 54104.63
5427.901, 53971.92
5429.830, 53959.54
5431.758, 53979.49
5433.687, 53892.96
5435.615, 53941.89
5437.543, 53854.15
5439.472, 53681.00
5441.400, 53693.68
5443.329, 53630.35
5445.257, 53584.29
5447.186, 53590.32
5449.114, 53451.75
5451.043, 53221.00
5452.971, 53051.27
5454.900, 53142.59
5456.828, 53162.75
5458.757, 53114.69
5460.685, 53035.18
5462.614, 53005.86
5464.542, 53187.01
5466.471, 53233.36
5468.399, 52982.00
5470.328, 52903.25
5472.256, 52918.46
5474.185, 53017.48
5476.113, 53270.87
5478.042, 53130.09
5479.970, 52926.76
5481.898, 52788.59
5483.827, 52683.32
5485.755, 52784.99
5487.684, 52775.10
5489.612, 52530.04
5491.541, 52651.27
5493.469, 52456.47
5495.397, 52234.91
5497.326, 52421.34
5499.254, 52255.55
5501.183, 52209.25
5503.111, 52293.72
5505.040, 52190.18
5506.968, 52090.93
5508.897, 52066.60
5510.825, 52117.49
5512.754, 52156.08
5514.682, 51980.25
5516.611, 51872.54
5518.539, 52024.28
5520.468, 51781.18
5522.396, 51604.81
5524.325, 51497.27
5526.253, 51260.29
5528.182, 51429.96
5530.110, 51540.82
5532.039, 51490.37
5533.967, 51437.93
5535.896, 51454.96
5537.824, 51373.55
5539.752, 51176.15
5541.681, 51108.54
5543.609, 51108.21
5545.538, 51110.88
5547.466, 51074.68
5549.395, 51057.64
5551.323, 51045.32
5553.251, 51032.56
5555.180, 51035.11
5557.108, 50997.18
5559.037, 50819.86
5560.965, 50624.92
5562.894, 50649.51
5564.822, 50518.98
5566.751, 50491.93
5568.679, 50498.43
5570.608, 50108.53
5572.536, 50151.79
5574.465, 50276.28
5576.393, 50275.99
5578.322, 50277.06
5580.250, 50017.26
5582.179, 49872.45
5584.107, 50014.89
5586.036, 49738.66
5587.964, 49581.90
5589.893, 49645.35
5591.821, 49883.40
5593.750, 49706.84
5595.678, 49547.77
5597.606, 49406.53
5599.535, 49207.24
5601.463, 49148.48
5603.392, 49100.00
5605.320, 49033.94
5607.249, 48958.12
5609.177, 48805.97
5611.105, 48807.89
5613.034, 48857.55
5614.962, 48597.93
5616.891, 48686.32
5618.819, 48743.73
5620.748, 48672.15
5622.676, 48546.37
5624.605, 48522.92
5626.533, 48454.27
5628.462, 48324.99
5630.390, 48217.02
5632.319, 48252.17
5634.247, 48269.50
5636.176, 48217.56
5638.104, 48183.64
5640.033, 47984.32
5641.961, 47853.64
5643.890, 47849.95
5645.818, 47800.09
5647.747, 47589.19
5649.675, 47438.98
5651.604, 47445.70
5653.532, 47627.88
5655.460, 47526.85
5657.389, 47387.43
5659.317, 47330.90
5661.246, 47245.41
5663.174, 47232.25
5665.103, 47251.00
5667.031, 47236.93
5668.959, 47059.62
5670.888, 47127.35
5672.816, 47133.89
5674.745, 46975.78
5676.673, 46931.98
5678.602, 46821.41
5680.530, 46614.67
5682.459, 46378.22
5684.387, 46331.36
5686.316, 46278.02
5688.244, 46206.83
5690.173, 46150.70
5692.101, 46202.01
5694.030, 46177.70
5695.958, 46112.57
5697.887, 46042.07
5699.815, 45990.41
5701.744, 45835.65
5703.672, 45649.86
5705.601, 45506.95
5707.529, 45471.87
5709.458, 45435.13
5711.386, 45350.20
5713.314, 45254.88
5715.243, 45259.29
5717.171, 45102.05
5719.100, 45057.18
5721.028, 45043.03
5722.957, 44789.05
5724.885, 44721.63
5726.813, 44668.88
5728.742, 44649.04
5730.670, 44725.95
5732.599, 44724.73
5734.527, 44590.42
5736.456, 44489.86
5738.384, 44545.20
5740.313, 44503.38
5742.241, 44317.07
5744.170, 44148.26
5746.098, 44083.35
5748.027, 43940.13
5749.955, 43963.87
5751.884, 44014.22
5753.812, 43974.22
5755.741, 43744.40
5757.669, 43616.91
5759.598, 43582.69
5761.526, 43546.75
5763.455, 43283.16
5765.383, 43296.09
5767.312, 43148.79
5769.240, 42949.47
5771.168, 43079.86
5773.097, 43032.36
5775.025, 43073.84
5776.954, 43125.20
5778.882, 43021.17
5780.811, 42567.95
5782.739, 42534.63
5784.667, 42601.62
5786.596, 42517.39
5788.524, 42612.13
5790.453, 42489.30
5792.381, 42308.22
5794.310, 42210.78
5796.238, 42304.20
5798.167, 42281.60
5800.095, 42140.76
5802.024, 41907.01
5803.952, 41585.11
5805.881, 41645.76
5807.809, 41628.95
5809.738, 41505.64
5811.666, 41371.20
5813.595, 41265.00
5815.523, 41381.14
5817.452, 41442.39
5819.380, 41313.94
5821.309, 41125.18
5823.237, 40912.18
5825.166, 40795.14
5827.094, 40780.31
5829.022, 40800.84
5830.951, 40583.59
5832.879, 40538.13
5834.808, 40484.98
5836.736, 40242.79
5838.665, 40218.09
5840.593, 40135.38
5842.521, 40059.47
5844.450, 40015.81
5846.378, 39918.17
5848.307, 39886.13
5850.235, 39842.06
5852.164, 39747.88
5854.092, 39607.50
5856.021, 39582.45
5857.949, 39500.32
5859.878, 39365.73
5861.806, 39239.00
5863.735, 39299.21
5865.663, 39267.95
5867.592, 39169.79
5869.520, 39077.64
5871.449, 39092.57
5873.377, 39032.14
5875.306, 38900.73
5877.234, 38780.15
5879.163, 38716.47
5881.091, 38586.56
5883.020, 38476.67
5884.948, 38476.57
5886.876, 38462.82
5888.805, 38173.49
5890.733, 38031.26
5892.662, 37898.86
5894.590, 37873.72
5896.519, 37996.86
5898.447, 37921.56
5900.375, 37906.03
5902.304, 37819.52
5904.232, 37704.93
5906.161, 37732.50
5908.089, 37505.77
5910.018, 37477.62
5911.946, 37405.02
5913.875, 37149.30
5915.803, 37221.70
5917.732, 37324.94
5919.660, 37256.62
5921.589, 37146.16
5923.517, 37222.75
5925.446, 36830.94
5927.374, 36820.79
5929.303, 36834.89
5931.231, 36644.73
5933.160, 36569.46
5935.088, 36497.74
5937.017, 36356.73
5938.945, 36232.83
5940.874, 36223.19
5942.802, 36330.59
5944.730, 36155.91
5946.659, 36049.13
5948.587, 36056.18
5950.516, 35905.12
5952.444, 35608.64
5954.373, 35529.00
5956.301, 35527.66
5958.229, 35464.93
5960.158, 35394.59
5962.086, 35363.45
5964.015, 35357.32
5965.943, 35282.45
5967.872, 35086.31
5969.800, 35122.73
5971.729, 34936.14
5973.657, 34737.54
5975.586, 34678.78
5977.514, 34784.63
5979.443, 34621.40
5981.371, 34593.35
5983.300, 34647.98
5985.228, 34675.79
5987.157, 34624.02
5989.085, 34484.86
5991.014, 34244.55
5992.942, 34033.27
5994.871, 33966.72
5996.799, 34065.95
5998.728, 33954.94
6000.656, 33806.99
6002.584, 33714.11
6004.513, 33670.57
6006.441, 33538.59
6008.370, 33392.53
6010.298, 33488.22
6012.227, 33623.78
6014.155, 33488.09
6016.083, 33396.16
6018.012, 33270.56
6019.940, 33146.15
6021.869, 33043.52
6023.797, 32965.88
6025.726, 33067.70
6027.654, 33005.07
6029.583, 32864.59
6031.511, 32741.59
6033.439, 32658.12
6035.368, 32664.19
6037.296, 32500.44
6039.225, 32436.46
6041.153, 32527.51
6043.082, 32503.59
6045.010, 32382.82
6046.939, 32204.01
6048.867, 32134.78
6050.796, 32137.17
6052.724, 31934.58
6054.653, 31909.24
6056.581, 31836.98
6058.510, 31772.80
6060.438, 31777.45
6062.367, 31822.74
6064.295, 31699.88
6066.224, 31530.74
6068.152, 31453.96
6070.081, 31440.28
6072.009, 31285.94
6073.938, 31243.83
6075.866, 31119.27
6077.794, 30997.45
6079.723, 30906.12
6081.651, 30743.30
6083.580, 30660.33
6085.508, 30527.14
6087.437, 30445.33
6089.365, 30467.76
6091.293, 30532.47
6093.222, 30332.42
6095.150, 30313.35
6097.079, 30283.07
6099.007, 30218.12
6100.936, 30275.03
6102.864, 30079.54
6104.793, 30009.73
6106.721, 29867.51
6108.650, 29662.19
6110.578, 29558.85
6112.507, 29577.99
6114.435, 29528.83
6116.364, 29432.33
6118.292, 29343.35
6120.221, 29290.18
6122.149, 29211.58
6124.078, 29198.80
6126.006, 29146.77
6127.935, 29024.99
6129.863, 28905.96
6131.792, 28983.17
6133.720, 28839.33
6135.648, 28641.46
6137.577, 28606.79
6139.505, 28692.70
6141.434, 28596.79
6143.362, 28368.45
6145.291, 28253.77
6147.219, 28225.36
6149.147, 28244.05
6151.076, 28290.41
6153.004, 28253.68
6154.933, 28169.19
6156.861, 28087.94
6158.790, 27973.80
6160.718, 27816.09
6162.647, 27765.88
6164.575, 27559.18
6166.504, 27465.55
6168.432, 27478.63
6170.361, 27472.60
6172.289, 27335.81
6174.218, 27311.42
6176.146, 27300.69
6178.075, 27223.96
6180.003, 27141.81
6181.932, 27144.37
6183.860, 27103.71
6185.789, 26933.36
6187.717, 26827.65
6189.646, 26793.35
6191.574, 26753.48
6193.502, 26636.10
6195.431, 26456.31
6197.359, 26480.26
6199.288, 26449.44
6201.216, 26333.21
6203.145, 26296.53
6205.073, 26164.17
6207.001, 26181.57
6208.930, 26131.94
6210.858, 25967.46
6212.787, 25780.91
6214.715, 25745.98
6216.644, 25763.15
6218.572, 25633.98
6220.501, 25604.43
6222.429, 25622.11
6224.358, 25497.17
6226.286, 25403.88
6228.215, 25505.62
6230.143, 25412.85
6232.072, 25261.71
6234.000, 25168.98
6235.929, 25056.14
6237.857, 25136.70
6239.786, 24913.46
6241.714, 24825.39
6243.643, 24754.72
6245.571, 24601.94
6247.500, 24807.12
6249.428, 24684.63
6251.356, 24540.65
6253.285, 24411.12
6255.213, 24290.59
6257.142, 24211.27
6259.070, 24256.13
6260.999, 24198.23
6262.927, 24166.05
6264.855, 24084.90
6266.784, 23973.14
6268.712, 23926.30
6270.641, 23821.03
6272.569, 23751.96
6274.498, 23706.91
6276.426, 23649.48
6278.355, 23621.40
6280.283, 23698.31
6282.212, 23524.08
6284.140, 23487.60
6286.069, 23444.59
6287.997, 23344.38
6289.926, 23252.29
6291.854, 23284.18
6293.783, 23153.10
6295.711, 23050.72
6297.640, 22959.57
6299.568, 22926.26
6301.497, 22939.75
6303.425, 22871.88
6305.354, 22899.23
6307.282, 22863.67
6309.210, 22809.56
6311.139, 22713.94
6313.067, 22632.07
6314.996, 22717.41
6316.924, 22493.23
6318.853, 22443.22
6320.781, 22303.04
6322.709, 22206.19
6324.638, 22214.05
6326.566, 22114.65
6328.495, 22123.11
6330.423, 21957.36
6332.352, 21940.93
6334.280, 21940.60
6336.209, 21847.49
6338.137, 21768.95
6340.066, 21641.41
6341.994, 21560.04
6343.923, 21561.54
6345.851, 21604.29
6347.780, 21621.17
6349.708, 21564.21
6351.637, 21455.33
6353.565, 21409.72
6355.494, 21310.01
6357.422, 21259.10
6359.351, 21209.80
6361.279, 21063.18
6363.208, 20918.04
6365.136, 20836.12
6367.064, 20783.70
6368.993, 20699.07
6370.921, 20603.14
6372.850, 20553.26
6374.778, 20579.50
6376.707, 20620.83
6378.635, 20532.54
6380.563, 20419.74
6382.492, 20355.24
6384.420, 20299.49
6386.349, 20188.79
6388.277, 20158.18
6390.206, 20019.00
6392.134, 19999.44
6394.063, 19995.02
6395.991, 19930.60
6397.920, 19814.25
6399.848, 19645.35
6401.777, 19615.86
6403.705, 19532.24
6405.634, 19433.12
6407.562, 19415.75
6409.491, 19475.71
6411.419, 19501.94
6413.348, 19337.89
6415.276, 19256.01
6417.205, 19238.54
6419.133, 19156.04
6421.062, 19071.23
6422.990, 19046.89
6424.918, 18976.19
6426.847, 18699.02
6428.775, 18750.07
6430.704, 18623.96
6432.632, 18590.48
6434.561, 18575.60
6436.489, 18382.11
6438.417, 18519.65
6440.346, 18510.98
6442.274, 18487.85
6444.203, 18331.40
6446.131, 18213.83
6448.060, 18197.46
6449.988, 18175.84
6451.917, 18151.05
6453.845, 18033.95
6455.774, 17865.70
6457.702, 17827.71
6459.631, 17790.87
6461.559, 17715.20
6463.488, 17703.21
6465.416, 17598.09
6467.345, 17542.13
6469.273, 17517.83
6471.202, 17448.93
6473.130, 17397.43
6475.059, 17379.04
6476.987, 17327.31
6478.916, 17274.28
6480.844, 17165.08
6482.772, 17136.48
6484.701, 17124.07
6486.629, 17025.92
6488.558, 16914.98
6490.486, 16907.43
6492.415, 16814.29
6494.343, 16755.28
6496.271, 16695.51
6498.200, 16670.91
6500.128, 16643.63
6502.057, 16563.85
6503.985, 16465.79
6505.914, 16560.36
6507.842, 16373.91
6509.771, 16353.81
6511.699, 16206.63
6513.628, 16139.64
6515.556, 16126.94
6517.485, 16024.03
6519.413, 15960.43
6521.342, 15872.43
6523.270, 15838.87
6525.199, 15813.88
6527.127, 15793.07
6529.056, 15764.70
6530.984, 15707.63
6532.913, 15615.78
6534.841, 15539.24
6536.770, 15454.96
6538.698, 15375.00
6540.626, 15446.58
6542.555, 15410.65
6544.483, 15313.46
6546.412, 15293.24
6548.340, 15084.03
6550.269, 15083.60
6552.197, 15125.29
6554.125, 15016.17
6556.054, 14936.07
6557.982, 14959.72
6559.911, 14971.95
6561.839, 14864.54
6563.768, 14829.75
6565.696, 14638.65
6567.625, 14668.21
6569.553, 14585.53
6571.482, 14537.94
6573.410, 14531.21
6575.339, 14508.58
6577.267, 14519.11
6579.196, 14395.72
6581.124, 14380.21
6583.053, 14383.28
6584.981, 14309.57
6586.910, 14314.69
6588.838, 14296.93
6590.767, 14168.51
6592.695, 14117.58
6594.624, 14116.67
6596.552, 14065.42
6598.480, 14054.57
6600.409, 13949.24
6602.337, 13894.31
6604.266, 13800.43
##END=



