##NAMES=Hopeite
##RRUFFID=R130562
##IDEAL CHEMISTRY=Zn_3_(PO_4_)_2_·4H_2_O
##LOCALITY=Broken Hill mine, Kabwe, Zambia
##OWNER=RRUFF
##SOURCE=Eric van Valkenburg
##DESCRIPTION=Colorless fragment
##STATUS=The identification of this mineral has been confirmed only by single crystal X-ray diffraction
##URL=https://www.rruff.net/odr/rruff_sample/R130562
##DIFFRACTION SAMPLE DESCRIPTION=Single crystal, powder profile is calculated
##CELL PARAMETERS=a: 10.624 b: 18.373 c: 5.044 alpha: 90 beta: 90 gamma: 90 volume: 984.4 crystal system: orthorhombic
##FILETYPE=Raman Processed
##RAMAN WAVELENGTH=780

82.12549, 2743.715
84.05396, 3005.348
85.98242, 3571.583
87.91089, 4213.942
89.83936, 4925.604
91.76782, 5623.102
93.69629, 6067.811
95.62476, 6082.199
97.55322, 6058.313
99.48169, 5999.813
101.4102, 5895.326
103.3386, 5752.400
105.2671, 5583.623
107.1956, 5352.405
109.1240, 5126.237
111.0525, 4900.894
112.9810, 4688.038
114.9094, 4500.473
116.8379, 4332.856
118.7664, 4186.625
120.6948, 4064.154
122.6233, 3953.753
124.5518, 3849.351
126.4802, 3755.793
128.4087, 3678.428
130.3372, 3616.387
132.2656, 3561.061
134.1941, 3514.831
136.1226, 3469.967
138.0510, 3424.306
139.9795, 3379.634
141.9080, 3335.885
143.8364, 3293.243
145.7649, 3258.870
147.6934, 3238.346
149.6218, 3219.140
151.5503, 3200.869
153.4788, 3181.944
155.4072, 3160.495
157.3357, 3136.894
159.2642, 3114.751
161.1926, 3090.973
163.1211, 3073.598
165.0496, 3065.861
166.9780, 3062.505
168.9065, 3060.597
170.8350, 3060.265
172.7634, 3062.265
174.6919, 3068.812
176.6204, 3073.546
178.5488, 3074.926
180.4773, 3076.177
182.4058, 3078.846
184.3342, 3082.427
186.2627, 3085.918
188.1912, 3088.708
190.1196, 3094.160
192.0481, 3102.167
193.9766, 3112.944
195.9050, 3127.667
197.8335, 3144.648
199.7620, 3163.386
201.6904, 3183.944
203.6189, 3201.496
205.5474, 3215.885
207.4758, 3228.386
209.4043, 3241.202
211.3328, 3249.994
213.2612, 3254.222
215.1897, 3252.494
217.1182, 3239.065
219.0466, 3214.228
220.9751, 3178.384
222.9036, 3128.729
224.8320, 3071.785
226.7605, 3006.678
228.6890, 2938.950
230.6174, 2874.771
232.5459, 2814.542
234.4744, 2761.133
236.4028, 2714.737
238.3313, 2676.008
240.2598, 2645.520
242.1882, 2622.747
244.1167, 2608.389
246.0452, 2601.992
247.9736, 2601.660
249.9021, 2607.079
251.8306, 2617.223
253.7590, 2631.728
255.6875, 2651.268
257.6160, 2677.792
259.5444, 2707.723
261.4729, 2736.255
263.4014, 2764.464
265.3298, 2797.647
267.2583, 2837.346
269.1868, 2878.254
271.1152, 2920.659
273.0437, 2962.581
274.9722, 3002.354
276.9006, 3041.302
278.8291, 3081.044
280.7576, 3121.594
282.6860, 3164.379
284.6145, 3209.270
286.5430, 3257.228
288.4714, 3307.494
290.3999, 3361.468
292.3284, 3421.134
294.2568, 3485.236
296.1853, 3551.804
298.1138, 3621.057
300.0422, 3689.254
301.9707, 3761.354
303.8992, 3824.452
305.8276, 3883.241
307.7561, 3925.566
309.6846, 3940.284
311.6130, 3930.854
313.5415, 3899.960
315.4700, 3845.429
317.3984, 3777.652
319.3269, 3692.583
321.2554, 3602.385
323.1838, 3504.953
325.1123, 3408.294
327.0408, 3317.228
328.9692, 3232.189
330.8977, 3155.324
332.8262, 3087.868
334.7546, 3026.364
336.6831, 2969.766
338.6116, 2919.981
340.5400, 2879.362
342.4685, 2844.423
344.3970, 2812.398
346.3254, 2783.403
348.2539, 2758.539
350.1824, 2739.595
352.1108, 2718.831
354.0393, 2694.618
355.9678, 2671.538
357.8962, 2652.214
359.8247, 2632.854
361.7532, 2611.265
363.6816, 2587.704
365.6101, 2562.551
367.5386, 2535.470
369.4670, 2509.478
371.3955, 2485.378
373.3240, 2460.544
375.2524, 2434.035
377.1809, 2406.926
379.1094, 2378.906
381.0378, 2351.159
382.9663, 2325.649
384.8948, 2302.358
386.8232, 2280.062
388.7517, 2259.017
390.6802, 2237.250
392.6086, 2213.264
394.5371, 2190.389
396.4656, 2171.422
398.3940, 2153.041
400.3225, 2131.034
402.2510, 2106.697
404.1794, 2086.400
406.1079, 2070.238
408.0364, 2052.333
409.9648, 2030.811
411.8933, 2010.287
413.8218, 1992.820
415.7502, 1976.204
417.6787, 1958.712
419.6072, 1941.480
421.5356, 1927.005
423.4641, 1914.802
425.3926, 1901.542
427.3210, 1886.563
429.2495, 1873.693
431.1780, 1865.708
433.1064, 1857.293
435.0349, 1845.543
436.9634, 1834.023
438.8918, 1826.027
440.8203, 1820.579
442.7488, 1815.133
444.6772, 1809.797
446.6057, 1806.051
448.5342, 1804.324
450.4626, 1803.403
452.3911, 1803.844
454.3196, 1803.889
456.2480, 1802.287
458.1765, 1800.498
460.1050, 1800.191
462.0334, 1800.799
463.9619, 1801.225
465.8904, 1801.460
467.8188, 1801.385
469.7473, 1800.685
471.6758, 1800.122
473.6042, 1799.582
475.5327, 1799.249
477.4612, 1799.581
479.3896, 1799.705
481.3181, 1798.398
483.2466, 1796.443
485.1750, 1795.704
487.1035, 1796.396
489.0320, 1796.074
490.9604, 1793.958
492.8889, 1791.901
494.8174, 1790.458
496.7458, 1788.351
498.6743, 1784.674
500.6028, 1780.674
502.5313, 1777.724
504.4597, 1774.961
506.3882, 1770.682
508.3167, 1764.948
510.2451, 1759.537
512.1736, 1754.990
514.1021, 1749.306
516.0305, 1741.692
517.9590, 1734.340
519.8875, 1727.943
521.8159, 1721.781
523.7444, 1715.538
525.6729, 1709.222
527.6013, 1702.789
529.5298, 1696.389
531.4583, 1690.032
533.3867, 1683.488
535.3152, 1680.033
537.2437, 1679.936
539.1721, 1681.901
541.1006, 1686.087
543.0291, 1691.301
544.9575, 1695.990
546.8860, 1702.598
548.8145, 1712.811
550.7429, 1725.745
552.6714, 1740.580
554.5999, 1757.081
556.5283, 1773.836
558.4568, 1790.822
560.3853, 1809.632
562.3137, 1831.069
564.2422, 1851.424
566.1707, 1869.236
568.0991, 1886.834
570.0276, 1904.887
571.9561, 1923.272
573.8845, 1941.722
575.8130, 1960.563
577.7415, 1979.295
579.6699, 1998.965
581.5984, 2023.908
583.5269, 2053.692
585.4553, 2083.083
587.3838, 2112.475
589.3123, 2136.921
591.2407, 2158.225
593.1692, 2169.116
595.0977, 2169.679
597.0261, 2157.670
598.9546, 2128.849
600.8831, 2089.575
602.8115, 2043.304
604.7400, 1992.893
606.6685, 1942.397
608.5969, 1892.788
610.5254, 1849.104
612.4539, 1811.666
614.3823, 1779.588
616.3108, 1753.233
618.2393, 1731.490
620.1677, 1714.979
622.0962, 1701.766
624.0247, 1692.258
625.9531, 1684.847
627.8816, 1678.601
629.8101, 1673.862
631.7385, 1671.405
633.6670, 1670.479
635.5955, 1669.924
637.5239, 1669.625
639.4524, 1668.640
641.3809, 1667.310
643.3093, 1663.892
645.2378, 1658.775
647.1663, 1650.824
649.0947, 1638.375
651.0232, 1625.452
652.9517, 1612.604
654.8801, 1600.338
656.8086, 1589.457
658.7371, 1578.723
660.6655, 1566.101
662.5940, 1553.496
664.5225, 1544.427
666.4509, 1538.407
668.3794, 1532.800
670.3079, 1527.686
672.2363, 1522.798
674.1648, 1518.179
676.0933, 1513.715
678.0217, 1509.059
679.9502, 1505.522
681.8787, 1503.529
683.8071, 1502.346
685.7356, 1502.586
687.6641, 1502.141
689.5925, 1499.040
691.5210, 1495.577
693.4495, 1494.151
695.3779, 1493.610
697.3064, 1492.130
699.2349, 1489.850
701.1633, 1487.020
703.0918, 1483.706
705.0203, 1481.361
706.9487, 1480.063
708.8772, 1478.961
710.8057, 1478.190
712.7341, 1476.488
714.6626, 1473.140
716.5911, 1470.033
718.5195, 1468.354
720.4480, 1466.091
722.3765, 1461.998
724.3049, 1457.631
726.2334, 1454.054
728.1619, 1450.601
730.0903, 1446.158
732.0188, 1441.630
733.9473, 1439.055
735.8757, 1437.634
737.8042, 1434.880
739.7327, 1431.041
741.6611, 1427.387
743.5896, 1423.970
745.5181, 1420.608
747.4465, 1417.336
749.3750, 1413.656
751.3035, 1409.106
753.2319, 1404.921
755.1604, 1401.615
757.0889, 1398.153
759.0173, 1394.167
760.9458, 1390.145
762.8743, 1386.444
764.8027, 1382.677
766.7312, 1378.226
768.6597, 1373.968
770.5881, 1371.007
772.5166, 1368.608
774.4451, 1365.885
776.3735, 1362.833
778.3020, 1359.326
780.2305, 1355.451
782.1589, 1351.813
784.0874, 1348.395
786.0159, 1345.402
787.9443, 1342.930
789.8728, 1340.763
791.8013, 1339.531
793.7297, 1337.607
795.6582, 1334.598
797.5867, 1331.918
799.5151, 1329.610
801.4436, 1327.938
803.3721, 1327.276
805.3005, 1326.551
807.2290, 1325.461
809.1575, 1323.688
811.0859, 1319.888
813.0144, 1316.672
814.9429, 1316.919
816.8713, 1317.629
818.7998, 1315.914
820.7283, 1312.942
822.6567, 1309.830
824.5852, 1307.017
826.5137, 1305.710
828.4421, 1305.462
830.3706, 1304.602
832.2991, 1303.130
834.2275, 1301.198
836.1560, 1298.806
838.0845, 1296.354
840.0129, 1293.857
841.9414, 1292.231
843.8699, 1291.670
845.7983, 1291.054
847.7268, 1290.355
849.6553, 1288.667
851.5837, 1285.164
853.5122, 1282.932
855.4407, 1283.203
857.3691, 1283.537
859.2976, 1283.334
861.2261, 1282.774
863.1545, 1281.732
865.0830, 1280.620
867.0115, 1279.407
868.9399, 1278.428
870.8684, 1278.195
872.7969, 1277.876
874.7253, 1276.070
876.6538, 1274.745
878.5823, 1276.855
880.5107, 1279.515
882.4392, 1277.928
884.3677, 1275.800
886.2961, 1278.984
888.2246, 1285.354
890.1531, 1290.942
892.0815, 1296.627
894.0100, 1303.899
895.9385, 1312.963
897.8669, 1324.354
899.7954, 1338.057
901.7239, 1354.247
903.6523, 1372.840
905.5808, 1393.220
907.5093, 1415.396
909.4377, 1439.400
911.3662, 1465.240
913.2947, 1493.089
915.2231, 1522.923
917.1516, 1554.927
919.0801, 1587.815
921.0085, 1626.392
922.9370, 1670.545
924.8655, 1721.045
926.7939, 1780.469
928.7224, 1841.166
930.6509, 1906.202
932.5793, 1965.320
934.5078, 2022.806
936.4363, 2062.034
938.3647, 2081.823
940.2932, 2077.935
942.2217, 2045.030
944.1501, 1997.286
946.0786, 1934.366
948.0071, 1867.189
949.9355, 1794.125
951.8640, 1729.265
953.7925, 1674.051
955.7209, 1637.172
957.6494, 1621.926
959.5779, 1627.600
961.5063, 1659.052
963.4348, 1703.553
965.3633, 1760.074
967.2917, 1819.972
969.2202, 1875.647
971.1487, 1937.042
973.0771, 2000.424
975.0056, 2083.910
976.9341, 2193.260
978.8625, 2335.734
980.7910, 2517.651
982.7195, 2734.079
984.6479, 2999.055
986.5764, 3275.647
988.5049, 3560.911
990.4333, 3807.946
992.3618, 3996.001
994.2903, 4095.142
996.2188, 4065.079
998.1472, 3937.757
1000.076, 3718.832
1002.004, 3452.506
1003.933, 3170.538
1005.861, 2891.277
1007.790, 2629.366
1009.718, 2391.123
1011.646, 2183.261
1013.575, 2005.080
1015.503, 1857.795
1017.432, 1737.445
1019.360, 1643.308
1021.289, 1568.889
1023.217, 1508.907
1025.146, 1460.482
1027.074, 1422.308
1029.003, 1391.124
1030.931, 1362.654
1032.860, 1338.269
1034.788, 1319.433
1036.717, 1305.989
1038.645, 1298.677
1040.573, 1295.705
1042.502, 1294.904
1044.430, 1296.792
1046.359, 1302.895
1048.287, 1311.277
1050.216, 1320.901
1052.144, 1330.208
1054.073, 1339.328
1056.001, 1345.214
1057.930, 1344.068
1059.858, 1337.740
1061.787, 1327.620
1063.715, 1314.171
1065.644, 1296.263
1067.572, 1276.747
1069.500, 1257.853
1071.429, 1239.834
1073.357, 1222.094
1075.286, 1206.435
1077.214, 1195.499
1079.143, 1186.682
1081.071, 1178.019
1083.000, 1170.060
1084.928, 1162.671
1086.857, 1157.025
1088.785, 1154.110
1090.714, 1153.184
1092.642, 1154.551
1094.571, 1156.484
1096.499, 1157.778
1098.427, 1159.172
1100.356, 1161.503
1102.284, 1163.452
1104.213, 1162.997
1106.141, 1163.783
1108.070, 1167.949
1109.998, 1173.280
1111.927, 1179.271
1113.855, 1185.562
1115.784, 1192.082
1117.712, 1198.845
1119.641, 1204.416
1121.569, 1212.878
1123.498, 1226.223
1125.426, 1240.973
1127.354, 1256.239
1129.283, 1272.873
1131.211, 1290.546
1133.140, 1310.857
1135.068, 1334.619
1136.997, 1359.310
1138.925, 1384.275
1140.854, 1411.389
1142.782, 1441.698
1144.711, 1471.219
1146.639, 1500.296
1148.568, 1525.698
1150.496, 1548.102
1152.425, 1559.002
1154.353, 1557.590
1156.281, 1550.404
1158.210, 1537.659
1160.138, 1512.797
1162.067, 1476.111
1163.995, 1433.904
1165.924, 1387.451
1167.852, 1344.542
1169.781, 1304.864
1171.709, 1265.330
1173.638, 1227.706
1175.566, 1197.486
1177.495, 1173.094
1179.423, 1151.582
1181.352, 1132.946
1183.280, 1117.491
1185.208, 1104.481
1187.137, 1093.222
1189.065, 1083.505
1190.994, 1075.117
1192.922, 1068.205
1194.851, 1063.769
1196.779, 1059.605
1198.708, 1054.334
1200.636, 1049.190
1202.565, 1044.447
1204.493, 1040.842
1206.422, 1038.909
1208.350, 1037.379
1210.279, 1035.853
1212.207, 1034.250
1214.135, 1032.355
1216.064, 1031.209
1217.992, 1031.286
1219.921, 1030.011
1221.849, 1027.085
1223.778, 1023.230
1225.706, 1018.625
1227.635, 1017.019
1229.563, 1018.141
1231.492, 1016.487
1233.420, 1012.569
1235.349, 1009.389
1237.277, 1007.171
1239.206, 1007.464
1241.134, 1008.676
1243.063, 1007.684
1244.991, 1005.652
1246.919, 1003.848
1248.848, 1002.338
1250.776, 1000.863
1252.705, 1000.180
1254.633, 1001.631
1256.562, 1002.878
1258.490, 1002.576
1260.419, 1001.951
1262.347, 1001.186
1264.276, 1000.599
1266.204, 1000.128
1268.133, 1000.168
1270.061, 1001.213
1271.990, 1001.044
1273.918, 999.2861
1275.846, 998.0197
1277.775, 997.3233
1279.703, 996.5632
1281.632, 995.8513
1283.560, 996.2662
1285.489, 997.3417
1287.417, 997.6357
1289.346, 997.5067
1291.274, 997.3765
1293.203, 997.4222
1295.131, 998.6309
1297.060, 998.8951
1298.988, 995.6113
1300.917, 992.6032
1302.845, 991.9972
1304.773, 992.0209
1306.702, 992.6315
1308.630, 992.0857
1310.559, 989.4098
1312.487, 988.0719
1314.416, 988.8975
1316.344, 989.1496
1318.273, 988.6845
1320.201, 987.5371
1322.130, 985.8683
1324.058, 985.2149
1325.987, 985.3381
1327.915, 986.1859
1329.844, 986.8578
1331.772, 985.7117
1333.700, 983.8578
1335.629, 981.9957
1337.557, 980.4997
1339.486, 980.0242
1341.414, 979.2449
1343.343, 977.4413
1345.271, 976.1836
1347.200, 975.8811
1349.128, 976.0588
1351.057, 976.7047
1352.985, 976.0070
1354.914, 973.9815
1356.842, 972.4902
1358.771, 971.2927
1360.699, 968.7695
1362.627, 965.9377
1364.556, 965.0649
1366.484, 964.7302
1368.413, 963.0926
1370.341, 961.5031
1372.270, 961.1288
1374.198, 960.7865
1376.127, 960.2421
1378.055, 959.0240
1379.984, 956.1658
1381.912, 955.4394
1383.841, 957.6465
1385.769, 956.6046
1387.698, 952.6101
1389.626, 952.8176
1391.554, 955.5558
1393.483, 955.3663
1395.411, 953.4881
1397.340, 951.0391
1399.268, 948.9941
1401.197, 948.5564
1403.125, 948.1462
1405.054, 946.3593
1406.982, 945.7767
1408.911, 948.3859
1410.839, 948.7913
1412.768, 945.1617
1414.696, 944.5091
1416.625, 946.7237
1418.553, 946.5641
1420.481, 944.8718
1422.410, 944.9131
1424.338, 945.2086
1426.267, 942.9786
1428.195, 940.7864
1430.124, 940.9909
1432.052, 940.9631
1433.981, 939.5597
1435.909, 938.1812
1437.838, 937.1354
1439.766, 936.3440
1441.695, 935.7831
1443.623, 936.2530
1445.552, 937.2847
1447.480, 936.2432
1449.408, 934.2570
1451.337, 933.6482
1453.265, 933.1566
1455.194, 931.1989
1457.122, 929.3689
1459.051, 928.4541
1460.979, 927.8711
1462.908, 927.6786
1464.836, 927.2673
1466.765, 926.5994
1468.693, 924.5284
1470.622, 921.5992
1472.550, 920.1774
1474.479, 919.6720
1476.407, 918.9677
1478.335, 918.6373
1480.264, 920.0623
1482.192, 920.5139
1484.121, 917.5675
1486.049, 915.6992
1487.978, 915.9053
1489.906, 915.7875
1491.835, 915.2190
1493.763, 914.1367
1495.692, 912.7334
1497.620, 911.3580
1499.549, 910.3258
1501.477, 910.3318
1503.406, 910.3242
1505.334, 909.6492
1507.262, 908.8360
1509.191, 908.7225
1511.119, 906.8321
1513.048, 902.5589
1514.976, 900.7624
1516.905, 901.0114
1518.833, 901.1091
1520.762, 900.9535
1522.690, 899.7390
1524.619, 899.0851
1526.547, 900.6882
1528.476, 901.3766
1530.404, 899.7790
1532.333, 898.0909
1534.261, 896.5715
1536.189, 896.9283
1538.118, 898.5596
1540.046, 897.7722
1541.975, 895.9469
1543.903, 895.2057
1545.832, 894.6797
1547.760, 893.4728
1549.689, 893.0770
1551.617, 894.1604
1553.546, 894.3110
1555.474, 893.2034
1557.403, 891.8572
1559.331, 890.6594
1561.260, 891.1020
1563.188, 892.0183
1565.116, 892.4379
1567.045, 891.7530
1568.973, 888.4167
1570.902, 886.3441
1572.830, 886.2263
1574.759, 886.9841
1576.687, 888.2229
1578.616, 887.8425
1580.544, 886.5488
1582.473, 885.4865
1584.401, 884.9861
1586.330, 886.0997
1588.258, 886.6236
1590.187, 885.3571
1592.115, 884.2401
1594.043, 883.3495
1595.972, 882.2963
1597.900, 881.4183
1599.829, 882.2267
1601.757, 883.6904
1603.686, 885.4690
1605.614, 886.0983
1607.543, 883.4375
1609.471, 882.6706
1611.400, 885.3098
1613.328, 886.6924
1615.257, 887.0270
1617.185, 887.1712
1619.114, 887.2301
1621.042, 887.4025
1622.970, 887.2818
1624.899, 886.3259
1626.827, 886.0116
1628.756, 886.9815
1630.684, 886.2960
1632.613, 884.1785
1634.541, 882.3816
1636.470, 880.6955
1638.398, 878.6595
1640.327, 876.8343
1642.255, 875.4004
1644.184, 874.7130
1646.112, 874.9539
1648.041, 873.9064
1649.969, 871.7336
1651.897, 870.0011
1653.826, 868.0106
1655.754, 864.1882
1657.683, 860.8215
1659.611, 858.9856
1661.540, 857.8000
1663.468, 857.1295
1665.397, 853.4166
1667.325, 847.9125
1669.254, 845.2092
1671.182, 843.2310
1673.111, 838.6487
1675.039, 836.1355
1676.968, 838.5104
1678.896, 837.6281
1680.824, 833.1542
1682.753, 832.0188
1684.681, 831.8190
1686.610, 826.3558
1688.538, 821.0011
1690.467, 821.3290
1692.395, 819.7263
1694.324, 813.6795
1696.252, 810.7142
1698.181, 810.2699
1700.109, 807.9656
1702.038, 805.0731
1703.966, 803.1810
1705.895, 801.2499
1707.823, 798.6882
1709.751, 796.3183
1711.680, 794.2848
1713.608, 791.4651
1715.537, 788.4819
1717.465, 787.0006
1719.394, 785.5359
1721.322, 782.4521
1723.251, 781.4213
1725.179, 784.0945
1727.108, 783.1923
1729.036, 779.5262
1730.965, 776.9045
1732.893, 774.6974
1734.822, 772.1501
1736.750, 770.3257
1738.678, 769.8744
1740.607, 767.3804
1742.535, 763.1759
1744.464, 762.4565
1746.392, 762.8340
1748.321, 760.4104
1750.249, 758.6162
1752.178, 758.9543
1754.106, 758.5388
1756.035, 756.9996
1757.963, 754.9434
1759.892, 752.7159
1761.820, 750.8248
1763.749, 749.1330
1765.677, 747.5900
1767.605, 746.1498
1769.534, 744.8212
1771.462, 744.1896
1773.391, 743.4837
1775.319, 740.9098
1777.248, 738.2399
1779.176, 736.1468
1781.105, 735.8505
1783.033, 737.4299
1784.962, 736.5612
1786.890, 734.0594
1788.819, 731.1525
1790.747, 728.9104
1792.676, 728.7502
1794.604, 727.4390
1796.532, 724.4796
1798.461, 723.3896
1800.389, 723.2520
1802.318, 722.4260
1804.246, 721.1555
1806.175, 719.1789
1808.103, 718.1912
1810.032, 718.4650
1811.960, 717.3287
1813.889, 715.3035
1815.817, 712.8161
1817.746, 710.7914
1819.674, 709.7975
1821.603, 708.4413
1823.531, 706.5149
1825.459, 704.0598
1827.388, 701.6571
1829.316, 700.3397
1831.245, 699.2574
1833.173, 698.2118
1835.102, 697.7450
1837.030, 697.5251
1838.959, 694.6295
1840.887, 691.3926
1842.816, 690.5356
1844.744, 689.6785
1846.673, 688.2434
1848.601, 687.5693
1850.530, 686.8669
1852.458, 682.7750
1854.386, 679.0305
1856.315, 679.2352
1858.243, 678.5724
1860.172, 676.5919
1862.100, 676.6563
1864.029, 676.8762
1865.957, 673.0145
1867.886, 669.5446
1869.814, 668.6047
1871.743, 668.5070
1873.671, 668.7394
1875.600, 666.9593
1877.528, 664.6366
1879.457, 663.2541
1881.385, 661.7489
1883.313, 659.8675
1885.242, 658.2584
1887.170, 656.8909
1889.099, 655.8555
1891.027, 654.5284
1892.956, 652.1826
1894.884, 650.3864
1896.813, 649.1686
1898.741, 647.7158
1900.670, 646.4617
1902.598, 645.9516
1904.527, 645.5126
1906.455, 645.0336
1908.384, 643.7886
1910.312, 642.1603
1912.240, 640.8582
1914.169, 640.2850
1916.097, 641.0082
1918.026, 640.1943
1919.954, 637.7415
1921.883, 634.8759
1923.811, 632.4606
1925.740, 631.6682
1927.668, 630.5858
1929.597, 628.8172
1931.525, 626.9311
1933.454, 625.2665
1935.382, 624.9505
1937.311, 623.8702
1939.239, 621.1039
1941.167, 620.5104
1943.096, 621.2757
1945.024, 619.5970
1946.953, 617.1999
1948.881, 615.1580
1950.810, 612.8383
1952.738, 610.4239
1954.667, 609.9738
1956.595, 609.8539
1958.524, 608.1200
1960.452, 606.7741
1962.381, 606.1484
1964.309, 603.7595
1966.238, 600.7753
1968.166, 599.0619
1970.094, 597.5782
1972.023, 595.8568
1973.951, 595.4080
1975.880, 595.2175
1977.808, 592.0719
1979.737, 589.1875
1981.665, 588.7455
1983.594, 587.2361
1985.522, 584.8947
1987.451, 583.3157
1989.379, 582.3433
1991.308, 582.1426
1993.236, 581.3742
1995.165, 579.9202
1997.093, 577.7741
1999.021, 575.7044
2000.950, 574.2150
2002.878, 573.6202
2004.807, 573.7955
2006.735, 570.8623
2008.664, 567.5621
2010.592, 567.0468
2012.521, 566.5406
2014.449, 565.4595
2016.378, 563.3983
2018.306, 561.7708
2020.235, 564.0082
2022.163, 563.5136
2024.092, 559.1352
2026.020, 556.8984
2027.948, 555.8453
2029.877, 554.5001
2031.805, 552.9701
2033.734, 551.2856
2035.662, 551.0670
2037.591, 550.8016
2039.519, 547.3084
2041.448, 544.7156
2043.376, 544.1364
2045.305, 542.5114
2047.233, 540.2118
2049.162, 537.4498
2051.090, 535.9061
2053.019, 536.2577
2054.947, 534.9299
2056.875, 532.7027
2058.804, 530.8057
2060.732, 529.0105
2062.661, 527.0668
2064.589, 526.7538
2066.518, 526.9538
2068.446, 526.3893
2070.375, 524.4818
2072.303, 520.7230
2074.232, 518.8878
2076.160, 518.1696
2078.089, 517.7542
2080.017, 517.1381
2081.946, 516.2093
2083.874, 514.3774
2085.802, 512.6132
2087.731, 512.1572
2089.659, 511.5941
2091.588, 510.5756
2093.516, 509.6766
2095.445, 508.1752
2097.373, 504.9951
2099.302, 502.9346
2101.230, 502.1794
2103.159, 499.4387
2105.087, 497.4856
2107.016, 499.1129
2108.944, 498.8759
2110.873, 496.4882
2112.801, 493.7833
2114.729, 491.2857
2116.658, 489.3965
2118.586, 486.9828
2120.515, 484.8637
2122.443, 486.1358
2124.372, 486.6095
2126.300, 484.3289
2128.229, 482.8133
2130.157, 481.9198
2132.086, 481.4074
2134.014, 480.2514
2135.943, 478.1599
2137.871, 476.7630
2139.800, 475.6160
2141.728, 474.0475
2143.656, 472.9734
2145.585, 472.3957
2147.513, 469.5899
2149.442, 467.1687
2151.370, 467.6861
2153.299, 466.7345
2155.227, 464.4497
2157.156, 462.7034
2159.084, 461.2905
2161.013, 460.3255
2162.941, 458.0575
2164.870, 455.4693
2166.798, 454.3128
2168.727, 454.4484
2170.655, 455.8202
2172.583, 455.0744
2174.512, 453.2710
2176.440, 451.4200
2178.369, 449.1477
2180.297, 446.7569
2182.226, 446.6912
2184.154, 445.5793
2186.083, 441.5926
2188.011, 439.3770
2189.940, 438.8705
2191.868, 440.3523
2193.797, 440.0869
2195.725, 437.3585
2197.654, 434.5421
2199.582, 432.0781
2201.510, 430.2162
2203.439, 429.3437
2205.367, 429.1696
2207.296, 428.5669
2209.224, 427.9787
2211.153, 427.8834
2213.081, 425.7591
2215.010, 422.5937
2216.938, 419.3222
2218.867, 417.6574
2220.795, 417.6103
2222.724, 416.7245
2224.652, 416.1331
2226.581, 417.7377
2228.509, 415.1188
2230.438, 410.4838
2232.366, 409.5061
2234.294, 409.1519
2236.223, 408.5212
2238.151, 407.8442
2240.080, 406.8585
2242.008, 405.2123
2243.937, 404.3662
2245.865, 403.8677
2247.794, 401.6669
2249.722, 399.1967
2251.651, 396.9586
2253.579, 396.1466
2255.508, 395.7321
2257.436, 394.6911
2259.365, 393.4052
2261.293, 392.1673
2263.221, 392.0956
2265.150, 391.5249
2267.078, 389.9370
2269.007, 388.7690
2270.935, 387.9078
2272.864, 387.8346
2274.792, 384.8416
2276.721, 380.4272
2278.649, 380.8646
2280.578, 380.7246
2282.506, 378.3629
2284.435, 377.3634
2286.363, 377.5991
2288.292, 380.6702
2290.220, 378.2230
2292.148, 372.6689
2294.077, 371.2942
2296.005, 370.5634
2297.934, 369.4317
2299.862, 369.4635
2301.791, 369.2840
2303.719, 367.9134
2305.648, 365.2680
2307.576, 362.2244
2309.505, 360.0067
2311.433, 359.4747
2313.362, 360.3770
2315.290, 358.7400
2317.219, 356.9121
2319.147, 356.1103
2321.075, 354.8452
2323.004, 353.7741
2324.932, 354.1882
2326.861, 352.4501
2328.789, 349.0591
2330.718, 347.3257
2332.646, 345.9930
2334.575, 344.6744
2336.503, 343.3708
2338.432, 342.3494
2340.360, 341.9087
2342.289, 340.1304
2344.217, 338.2459
2346.146, 339.1083
2348.074, 339.2583
2350.002, 338.1481
2351.931, 335.7829
2353.859, 333.4676
2355.788, 331.6899
2357.716, 330.9746
2359.645, 330.2881
2361.573, 328.5084
2363.502, 327.4365
2365.430, 326.8330
2367.359, 326.2509
2369.287, 325.2430
2371.216, 323.9442
2373.144, 323.6466
2375.073, 322.7445
2377.001, 320.5641
2378.929, 319.8477
2380.858, 319.0767
2382.786, 316.9000
2384.715, 315.7359
2386.643, 315.1713
2388.572, 314.5011
2390.500, 314.0137
2392.429, 313.6104
2394.357, 313.0061
2396.286, 311.7802
2398.214, 309.9260
2400.143, 309.2632
2402.071, 307.9502
2404.000, 305.1671
2405.928, 303.3604
2407.856, 302.3568
2409.785, 301.9893
2411.713, 301.5358
2413.642, 300.6976
2415.570, 298.5032
2417.499, 297.7237
2419.427, 297.8902
2421.356, 296.2668
2423.284, 294.3781
2425.213, 292.6305
2427.141, 290.6835
2429.070, 289.0129
2430.998, 287.8217
2432.927, 287.6115
2434.855, 287.1719
2436.783, 284.9637
2438.712, 284.5587
2440.640, 285.3389
2442.569, 286.5913
2444.497, 288.1686
2446.426, 288.4043
2448.354, 281.6187
2450.283, 281.1201
2452.211, 286.0361
2454.140, 282.1906
2456.068, 277.8984
2457.997, 275.5551
2459.925, 272.5178
2461.854, 270.2365
2463.782, 269.4559
2465.710, 269.9180
2467.639, 269.6373
2469.567, 267.2359
2471.496, 266.3842
2473.424, 266.1118
2475.353, 265.2296
2477.281, 264.6420
2479.210, 264.2600
2481.138, 264.0258
2483.067, 262.9447
2484.995, 261.1172
2486.924, 258.6541
2488.852, 257.2208
2490.781, 256.5648
2492.709, 254.4586
2494.637, 253.3823
2496.566, 253.4712
2498.494, 252.4314
2500.423, 250.8589
2502.351, 249.2180
2504.280, 250.4844
2506.208, 250.5137
2508.137, 247.3108
2510.065, 246.8190
2511.994, 246.7504
2513.922, 245.6840
2515.851, 243.0107
2517.779, 240.4368
2519.708, 239.4411
2521.636, 239.7543
2523.564, 239.8292
2525.493, 237.8835
2527.421, 236.7167
2529.350, 236.1689
2531.278, 235.9174
2533.207, 235.1263
2535.135, 234.0529
2537.064, 233.3045
2538.992, 231.5383
2540.921, 229.7570
2542.849, 230.4798
2544.778, 230.1470
2546.706, 228.9013
2548.635, 228.4766
2550.563, 227.8583
2552.491, 226.9953
2554.420, 226.2374
2556.348, 225.4569
2558.277, 224.5799
2560.205, 223.4720
2562.134, 222.2844
2564.062, 220.9687
2565.991, 219.0103
2567.919, 217.6864
2569.848, 216.9639
2571.776, 215.2188
2573.705, 214.7046
2575.633, 215.3250
2577.562, 214.3192
2579.490, 212.8356
2581.418, 211.4193
2583.347, 211.4456
2585.275, 210.9964
2587.204, 209.6924
2589.132, 208.6851
2591.061, 208.2280
2592.989, 208.2153
2594.918, 207.1111
2596.846, 205.6645
2598.775, 204.1029
2600.703, 202.4940
2602.632, 201.2391
2604.560, 200.4215
2606.489, 199.4923
2608.417, 199.1353
2610.345, 199.2879
2612.274, 198.3150
2614.202, 196.7682
2616.131, 195.1874
2618.059, 195.8652
2619.988, 195.9127
2621.916, 194.7232
2623.845, 193.2362
2625.773, 191.5255
2627.702, 189.9262
2629.630, 189.6140
2631.559, 188.9395
2633.487, 187.8394
2635.416, 187.3155
2637.344, 186.8137
2639.272, 186.1072
2641.201, 184.6820
2643.129, 184.1675
2645.058, 184.2526
2646.986, 183.9639
2648.915, 182.3601
2650.843, 180.2377
2652.772, 179.3790
2654.700, 177.8149
2656.629, 176.5144
2658.557, 177.7422
2660.486, 176.3911
2662.414, 174.2469
2664.343, 174.1490
2666.271, 173.2334
2668.199, 172.0150
2670.128, 171.2129
2672.056, 171.3874
2673.985, 170.8812
2675.913, 168.5071
2677.842, 168.2959
2679.770, 168.0764
2681.699, 166.5522
2683.627, 166.2564
2685.556, 165.4784
2687.484, 163.6574
2689.413, 163.0958
2691.341, 162.9365
2693.270, 162.7062
2695.198, 162.0157
2697.126, 160.6345
2699.055, 158.9193
2700.983, 158.1335
2702.912, 157.6164
2704.840, 157.1829
2706.769, 156.8735
2708.697, 156.0889
2710.626, 155.0812
2712.554, 154.4467
2714.483, 153.7095
2716.411, 152.7968
2718.340, 151.2959
2720.268, 152.6323
2722.197, 153.2311
2724.125, 149.6753
2726.053, 148.3970
2727.982, 147.7200
2729.910, 146.6962
2731.839, 145.7984
2733.767, 145.3748
2735.696, 145.2821
2737.624, 143.5279
2739.553, 142.8671
2741.481, 143.0308
2743.410, 141.2453
2745.338, 140.0992
2747.267, 139.6598
2749.195, 139.5673
2751.124, 139.0684
2753.052, 138.5029
2754.980, 138.2336
2756.909, 137.4969
2758.837, 136.6366
2760.766, 135.8549
2762.694, 135.0904
2764.623, 133.9905
2766.551, 132.7782
2768.480, 132.9671
2770.408, 133.0714
2772.337, 132.6622
2774.265, 131.3866
2776.194, 130.6758
2778.122, 130.0803
2780.051, 128.6175
2781.979, 128.1704
2783.907, 127.6782
2785.836, 126.2234
2787.764, 125.5343
2789.693, 124.7944
2791.621, 123.9583
2793.550, 124.9737
2795.478, 128.0211
2797.407, 131.3639
2799.335, 131.2788
2801.264, 127.2130
2803.192, 122.7734
2805.121, 121.6708
2807.049, 119.5197
2808.978, 117.7271
2810.906, 117.1603
2812.834, 116.8489
2814.763, 116.3511
2816.691, 115.6234
2818.620, 114.9170
2820.548, 114.2201
2822.477, 113.7013
2824.405, 113.8956
2826.334, 112.7861
2828.262, 111.6416
2830.191, 111.5022
2832.119, 116.2521
2834.048, 116.1164
2835.976, 110.6375
2837.905, 114.6245
2839.833, 115.8042
2841.761, 113.8824
2843.690, 112.2800
2845.618, 109.3638
2847.547, 106.6899
2849.475, 105.6410
2851.404, 105.2405
2853.332, 104.3320
2855.261, 102.8586
2857.189, 102.7439
2859.118, 102.1876
2861.046, 101.3208
2862.975, 100.7961
2864.903, 99.58604
2866.832, 98.58475
2868.760, 98.32565
2870.688, 98.69073
2872.617, 98.43765
2874.545, 97.51614
2876.474, 96.80652
2878.402, 96.28276
2880.331, 95.79398
2882.259, 95.19968
2884.188, 94.75553
2886.116, 93.83363
2888.045, 92.82682
2889.973, 94.88698
2891.902, 97.52018
2893.830, 98.45901
2895.759, 94.25440
2897.687, 92.08896
2899.615, 90.91132
2901.544, 89.81861
2903.472, 89.04787
2905.401, 88.72569
2907.329, 88.44731
2909.258, 87.25153
2911.186, 86.35762
2913.115, 85.87033
2915.043, 85.74387
2916.972, 85.34135
2918.900, 84.77876
2920.829, 84.14460
2922.757, 83.52138
2924.686, 83.00634
2926.614, 82.60683
2928.542, 82.33116
2930.471, 82.73776
2932.399, 82.05214
2934.328, 80.44933
2936.256, 80.49866
2938.185, 79.97249
2940.113, 79.28133
2942.042, 79.03342
2943.970, 78.96845
2945.899, 78.90263
2947.827, 78.80009
2949.756, 78.84156
2951.684, 78.43594
2953.613, 77.63750
2955.541, 76.52640
2957.469, 75.93308
2959.398, 75.48255
2961.326, 75.19102
2963.255, 75.60830
2965.183, 74.68594
2967.112, 73.58274
2969.040, 73.35007
2970.969, 73.62514
2972.897, 72.86738
2974.826, 71.92175
2976.754, 73.17769
2978.683, 72.87948
2980.611, 72.37231
2982.540, 72.42486
2984.468, 71.12222
2986.396, 70.26421
2988.325, 69.95217
2990.253, 69.83316
2992.182, 70.09396
2994.110, 69.45245
2996.039, 68.05151
2997.967, 68.08370
2999.896, 67.83890
3001.824, 67.51034
3003.753, 67.43765
3005.681, 66.79148
3007.610, 66.81635
3009.538, 67.18217
3011.467, 66.67433
3013.395, 65.69313
3015.323, 65.11390
3017.252, 65.23394
3019.180, 65.05091
3021.109, 65.00935
3023.037, 64.89323
3024.966, 64.41994
3026.894, 64.05756
3028.823, 63.99233
3030.751, 63.90538
3032.680, 63.00568
3034.608, 62.84526
3036.537, 62.64057
3038.465, 61.98962
3040.394, 61.41604
3042.322, 61.47126
3044.250, 61.44171
3046.179, 60.74738
3048.107, 60.92381
3050.036, 60.52882
3051.964, 59.79961
3053.893, 59.88382
3055.821, 59.39905
3057.750, 59.24671
3059.678, 59.46166
3061.607, 58.87015
3063.535, 58.83626
3065.464, 58.73717
3067.392, 58.22769
3069.321, 59.24374
3071.249, 59.26822
3073.177, 58.53407
3075.106, 57.73015
3077.034, 57.82286
3078.963, 57.80190
3080.891, 57.81513
3082.820, 58.59127
3084.748, 58.45435
3086.677, 57.94336
3088.605, 57.61130
3090.534, 58.22385
3092.462, 57.65956
3094.391, 56.91493
3096.319, 56.70382
3098.248, 57.28476
3100.176, 57.21540
3102.104, 57.17942
3104.033, 57.64506
3105.961, 57.62092
3107.890, 57.07677
3109.818, 56.71574
3111.747, 57.12536
3113.675, 56.88296
3115.604, 56.85477
3117.532, 56.93662
3119.461, 56.62926
3121.389, 56.87764
3123.318, 56.93081
3125.246, 56.83571
3127.175, 57.20406
3129.103, 56.40503
3131.031, 55.86953
3132.960, 55.83223
3134.888, 55.54717
3136.817, 55.85477
3138.745, 56.34166
3140.674, 56.70759
3142.602, 56.81438
3144.531, 56.16094
3146.459, 55.79045
3148.388, 55.94909
3150.316, 55.70963
3152.245, 55.57341
3154.173, 55.24810
3156.102, 54.88630
3158.030, 55.94200
3159.958, 55.25953
3161.887, 54.81144
3163.815, 55.32215
3165.744, 54.96831
3167.672, 54.49672
3169.601, 54.36544
3171.529, 54.59734
3173.458, 54.63585
3175.386, 53.78025
3177.315, 53.21139
3179.243, 53.36448
3181.172, 52.83085
3183.100, 52.24417
3185.029, 51.94396
3186.957, 51.93780
3188.885, 51.72586
3190.814, 50.93678
3192.742, 50.04784
3194.671, 49.34738
3196.599, 48.79692
3198.528, 48.91568
3200.456, 48.68068
3202.385, 47.92851
3204.313, 47.68749
3206.242, 47.72836
3208.170, 47.49274
3210.099, 47.02284
3212.027, 46.97779
3213.956, 46.67094
3215.884, 45.82608
3217.813, 44.96326
3219.741, 45.27945
3221.669, 44.96254
3223.598, 44.60505
3225.526, 44.32171
3227.455, 43.89702
3229.383, 44.02517
3231.312, 44.01554
3233.240, 43.74575
3235.169, 43.29099
3237.097, 42.86174
3239.026, 42.63811
3240.954, 42.50468
3242.883, 42.28343
3244.811, 41.30021
3246.740, 41.40943
3248.668, 41.41928
3250.596, 40.79764
3252.525, 41.51860
3254.453, 42.27192
3256.382, 41.83761
3258.310, 40.62055
3260.239, 40.82638
3262.167, 40.95833
3264.096, 40.49380
3266.024, 40.01725
3267.953, 40.60183
3269.881, 40.51058
3271.810, 39.94833
3273.738, 40.06263
3275.667, 41.85116
3277.595, 45.84289
3279.523, 43.16421
3281.452, 39.35015
3283.380, 38.91675
3285.309, 40.02911
3287.237, 39.07592
3289.166, 38.61303
3291.094, 39.16203
3293.023, 38.98262
3294.951, 38.82910
3296.880, 39.09280
3298.808, 38.97787
3300.737, 37.74260
3302.665, 37.49823
3304.594, 37.78527
3306.522, 37.94654
3308.450, 37.71052
3310.379, 37.39411
3312.307, 37.13985
3314.236, 37.32784
3316.164, 37.38620
3318.093, 36.18481
3320.021, 36.41877
3321.950, 36.68654
3323.878, 36.53283
3325.807, 35.99325
3327.735, 35.49380
3329.664, 35.28402
3331.592, 35.22858
3333.521, 35.11470
3335.449, 34.65845
3337.377, 34.32415
3339.306, 34.19854
3341.234, 34.16201
3343.163, 34.03426
3345.091, 33.23784
3347.020, 33.41983
3348.948, 33.55386
3350.877, 33.35560
3352.805, 33.66147
3354.734, 33.43019
3356.662, 33.08645
3358.591, 32.81384
3360.519, 32.68654
3362.448, 33.01164
3364.376, 33.02354
3366.304, 32.56792
3368.233, 32.14312
3370.161, 32.66230
3372.090, 32.67187
3374.018, 32.83175
3375.947, 32.61071
3377.875, 31.72869
3379.804, 31.35751
3381.732, 31.14537
3383.661, 31.07080
3385.589, 30.98794
3387.518, 30.72415
3389.446, 31.17471
3391.375, 30.50074
3393.303, 29.86070
3395.231, 29.79618
3397.160, 29.63392
3399.088, 30.90710
3401.017, 30.06119
3402.945, 29.04784
3404.874, 29.58253
3406.802, 28.86380
3408.731, 28.36975
3410.659, 27.99597
3412.588, 27.76854
3414.516, 27.75452
3416.445, 27.58537
3418.373, 27.15101
3420.302, 27.38211
3422.230, 27.82766
3424.158, 27.04099
3426.087, 26.19810
3428.015, 25.88918
3429.944, 26.27634
3431.872, 26.86116
3433.801, 26.43679
3435.729, 25.44479
3437.658, 25.25888
3439.586, 25.08935
3441.515, 24.48413
3443.443, 24.49924
3445.372, 24.29992
3447.300, 24.19274
3449.229, 24.10970
3451.157, 23.92919
3453.085, 23.75535
3455.014, 23.28880
3456.942, 22.93550
##END=



