##NAMES=Hornesite
##RRUFFID=R060724
##IDEAL CHEMISTRY=Mg_3_(AsO_4_)_2_·8H_2_O
##LOCALITY=Huercal Overa, Almeria Province, Spain
##OWNER=RRUFF
##SOURCE=Bob Jenkins
##DESCRIPTION=Stellate aggregate of pearly white bladed crystals associated with green conichalcite
##STATUS=The identification of this mineral is confirmed by single-crystal X-ray diffraction and chemical analysis
##URL=https://www.rruff.net/odr/rruff_sample/R060724
##MEASURED CHEMISTRY=(Mg_2.88_Fe_0.10_Mn_0.02_)(As_1.00_O_4_)_2_·7.82H_2_ ; H_2_O estimated by difference
##DIFFRACTION SAMPLE DESCRIPTION=Single crystal, powder profile is calculated
##CELL PARAMETERS=a: 10.21 b: 13.34 c: 4.71 alpha: 90 beta: 105.15 gamma: 90 volume: 619 crystal system: monoclinic
##FILETYPE=Raman Processed
##RAMAN WAVELENGTH=532

126.5459, 3460.568
128.4744, 3685.239
130.4028, 3903.361
132.3313, 4105.936
134.2598, 4285.280
136.1882, 4447.123
138.1167, 4616.388
140.0452, 4789.791
141.9736, 4975.276
143.9021, 5175.537
145.8306, 5401.878
147.7590, 5635.197
149.6875, 5872.566
151.6160, 6115.750
153.5444, 6370.147
155.4729, 6669.367
157.4014, 6971.279
159.3298, 7219.708
161.2583, 7471.318
163.1868, 7623.889
165.1152, 7603.950
167.0437, 7399.797
168.9722, 7205.027
170.9006, 7029.706
172.8291, 6886.703
174.7576, 6817.951
176.6860, 6860.265
178.6145, 6943.113
180.5430, 7029.926
182.4714, 7134.491
184.3999, 7212.784
186.3284, 7236.710
188.2568, 7210.090
190.1853, 7214.040
192.1138, 7219.341
194.0422, 7277.352
195.9707, 7432.979
197.8992, 7655.984
199.8276, 8017.165
201.7561, 8622.873
203.6846, 9457.126
205.6130, 10229.85
207.5415, 11055.87
209.4700, 11775.25
211.3984, 12062.52
213.3269, 11688.12
215.2554, 11137.12
217.1838, 10504.34
219.1123, 9757.132
221.0408, 9126.576
222.9692, 8652.329
224.8977, 8316.726
226.8262, 8060.500
228.7546, 7908.518
230.6831, 7810.319
232.6116, 7732.568
234.5400, 7663.797
236.4685, 7650.605
238.3970, 7708.331
240.3254, 7833.691
242.2539, 7979.172
244.1824, 8198.811
246.1108, 8392.303
248.0393, 8499.715
249.9678, 8422.049
251.8962, 8364.639
253.8247, 8341.285
255.7532, 8353.090
257.6816, 8396.185
259.6101, 8495.424
261.5386, 8614.999
263.4670, 8730.309
265.3955, 8862.555
267.3240, 8970.927
269.2524, 9049.219
271.1809, 9100.844
273.1094, 9125.438
275.0378, 9134.692
276.9663, 9112.570
278.8948, 9031.494
280.8232, 8849.256
282.7517, 8670.086
284.6802, 8511.453
286.6086, 8371.233
288.5371, 8263.793
290.4656, 8186.216
292.3940, 8140.033
294.3225, 8134.808
296.2510, 8173.828
298.1794, 8236.590
300.1079, 8329.964
302.0364, 8460.241
303.9648, 8552.159
305.8933, 8600.117
307.8218, 8613.288
309.7502, 8604.242
311.6787, 8584.028
313.6072, 8526.735
315.5356, 8413.564
317.4641, 8225.641
319.3926, 8076.198
321.3210, 7970.526
323.2495, 7896.898
325.1780, 7840.039
327.1064, 7798.755
329.0349, 7772.727
330.9634, 7764.561
332.8918, 7778.993
334.8203, 7782.351
336.7488, 7769.468
338.6772, 7751.433
340.6057, 7737.897
342.5342, 7728.050
344.4626, 7730.641
346.3911, 7746.590
348.3196, 7777.481
350.2480, 7821.989
352.1765, 7885.893
354.1050, 7957.840
356.0334, 8027.101
357.9619, 8087.260
359.8904, 8152.660
361.8188, 8235.927
363.7473, 8332.664
365.6758, 8398.385
367.6042, 8423.988
369.5327, 8425.856
371.4612, 8415.067
373.3896, 8383.161
375.3181, 8360.857
377.2466, 8348.421
379.1750, 8350.048
381.1035, 8373.356
383.0320, 8416.850
384.9604, 8483.372
386.8889, 8568.249
388.8174, 8667.798
390.7458, 8794.718
392.6743, 8945.837
394.6028, 9124.100
396.5313, 9334.165
398.4597, 9598.603
400.3882, 9862.675
402.3167, 10115.20
404.2451, 10370.45
406.1736, 10565.09
408.1021, 10691.55
410.0305, 10762.40
411.9590, 10794.50
413.8875, 10771.29
415.8159, 10742.73
417.7444, 10698.19
419.6729, 10623.68
421.6013, 10671.53
423.5298, 10895.92
425.4583, 11198.17
427.3867, 11523.54
429.3152, 11912.31
431.2437, 12198.44
433.1721, 12364.46
435.1006, 12409.33
437.0291, 12285.86
438.9575, 11885.59
440.8860, 11431.59
442.8145, 11014.99
444.7429, 10632.19
446.6714, 10298.57
448.5999, 10011.87
450.5283, 9773.918
452.4568, 9598.832
454.3853, 9504.681
456.3137, 9446.354
458.2422, 9421.013
460.1707, 9425.637
462.0991, 9457.735
464.0276, 9548.273
465.9561, 9650.171
467.8845, 9731.543
469.8130, 9807.954
471.7415, 9837.556
473.6699, 9786.049
475.5984, 9677.367
477.5269, 9566.563
479.4553, 9443.540
481.3838, 9327.975
483.3123, 9224.645
485.2407, 9132.831
487.1692, 9062.921
489.0977, 9030.795
491.0261, 9017.203
492.9546, 9000.985
494.8831, 8979.034
496.8115, 8961.882
498.7400, 8951.925
500.6685, 8950.165
502.5969, 8955.597
504.5254, 8976.584
506.4539, 8996.563
508.3823, 9001.787
510.3108, 8981.454
512.2393, 8980.559
514.1677, 9014.854
516.0962, 9065.084
518.0247, 9098.265
519.9531, 9112.905
521.8816, 9114.221
523.8101, 9097.292
525.7385, 9066.075
527.6670, 9048.849
529.5955, 9071.213
531.5239, 9096.227
533.4524, 9098.757
535.3809, 9072.498
537.3093, 9061.214
539.2378, 9085.391
541.1663, 9125.714
543.0947, 9153.404
545.0232, 9150.071
546.9517, 9147.082
548.8801, 9147.003
550.8086, 9148.566
552.7371, 9153.785
554.6655, 9163.089
556.5940, 9175.232
558.5225, 9192.151
560.4509, 9219.876
562.3794, 9239.089
564.3079, 9247.644
566.2363, 9250.180
568.1648, 9252.388
570.0933, 9252.450
572.0217, 9255.670
573.9502, 9263.973
575.8787, 9275.747
577.8071, 9286.605
579.7356, 9292.631
581.6641, 9299.176
583.5925, 9309.717
585.5210, 9325.234
587.4495, 9338.040
589.3779, 9350.773
591.3064, 9360.046
593.2349, 9360.516
595.1633, 9335.840
597.0918, 9334.317
599.0203, 9382.928
600.9487, 9459.912
602.8772, 9499.799
604.8057, 9477.669
606.7341, 9453.750
608.6626, 9453.430
610.5911, 9475.648
612.5195, 9493.833
614.4480, 9495.319
616.3765, 9502.193
618.3049, 9535.512
620.2334, 9605.932
622.1619, 9658.655
624.0903, 9664.531
626.0188, 9655.754
627.9473, 9669.343
629.8757, 9721.752
631.8042, 9767.491
633.7327, 9791.953
635.6611, 9802.108
637.5896, 9826.107
639.5181, 9870.619
641.4465, 9925.203
643.3750, 9991.467
645.3035, 10069.90
647.2319, 10145.90
649.1604, 10217.96
651.0889, 10284.23
653.0173, 10336.42
654.9458, 10361.51
656.8743, 10399.11
658.8027, 10483.98
660.7312, 10561.91
662.6597, 10579.78
664.5881, 10510.53
666.5166, 10445.46
668.4451, 10413.23
670.3735, 10404.98
672.3020, 10389.66
674.2305, 10361.91
676.1589, 10339.70
678.0874, 10327.95
680.0159, 10323.59
681.9443, 10322.71
683.8728, 10312.51
685.8013, 10310.97
687.7297, 10329.67
689.6582, 10376.07
691.5867, 10404.43
693.5151, 10399.54
695.4436, 10389.66
697.3721, 10398.21
699.3005, 10430.02
701.2290, 10454.82
703.1575, 10456.38
705.0859, 10451.74
707.0144, 10460.39
708.9429, 10494.43
710.8713, 10523.84
712.7998, 10548.24
714.7283, 10565.61
716.6567, 10574.53
718.5852, 10575.76
720.5137, 10570.96
722.4421, 10554.81
724.3706, 10531.45
726.2991, 10529.56
728.2275, 10560.06
730.1560, 10597.71
732.0845, 10635.97
734.0129, 10673.17
735.9414, 10703.56
737.8699, 10713.48
739.7983, 10726.39
741.7268, 10756.82
743.6553, 10814.11
745.5837, 10854.78
747.5122, 10865.95
749.4407, 10872.37
751.3691, 10895.19
753.2976, 10936.79
755.2261, 10980.31
757.1545, 11025.08
759.0830, 11071.47
761.0115, 11119.65
762.9399, 11170.68
764.8684, 11221.85
766.7969, 11259.09
768.7253, 11298.94
770.6538, 11370.97
772.5823, 11483.05
774.5107, 11598.40
776.4392, 11689.69
778.3677, 11780.92
780.2961, 11915.23
782.2246, 12102.99
784.1531, 12324.74
786.0815, 12563.65
788.0100, 12829.89
789.9385, 13161.87
791.8669, 13523.57
793.7954, 13982.26
795.7239, 14536.87
797.6523, 15203.82
799.5808, 16064.98
801.5093, 17206.33
803.4377, 18465.84
805.3662, 19934.60
807.2947, 21613.88
809.2231, 22805.34
811.1516, 23629.39
813.0801, 23926.10
815.0085, 23423.01
816.9370, 22231.24
818.8655, 20921.53
820.7939, 19373.37
822.7224, 17929.27
824.6509, 16731.53
826.5793, 15802.42
828.5078, 15061.45
830.4363, 14560.84
832.3647, 14178.02
834.2932, 13865.42
836.2217, 13622.04
838.1501, 13428.57
840.0786, 13300.01
842.0071, 13207.43
843.9355, 13127.05
845.8640, 13052.99
847.7925, 13017.96
849.7209, 13029.35
851.6494, 13071.67
853.5779, 13133.81
855.5063, 13213.83
857.4348, 13337.71
859.3633, 13466.82
861.2917, 13678.25
863.2202, 14016.08
865.1487, 14482.22
867.0771, 15031.48
869.0056, 15654.50
870.9341, 16357.77
872.8625, 17198.94
874.7910, 18333.40
876.7195, 19159.48
878.6479, 19732.32
880.5764, 19961.82
882.5049, 19703.44
884.4333, 18965.70
886.3618, 18136.48
888.2903, 17135.63
890.2188, 16194.07
892.1472, 15463.34
894.0757, 14982.13
896.0042, 14618.61
897.9326, 14405.14
899.8611, 14268.10
901.7896, 14167.35
903.7180, 14103.87
905.6465, 14049.97
907.5750, 14009.92
909.5034, 13972.13
911.4319, 13928.00
913.3604, 13875.79
915.2888, 13827.68
917.2173, 13794.59
919.1458, 13755.88
921.0742, 13696.26
923.0027, 13609.26
924.9312, 13531.83
926.8596, 13474.00
928.7881, 13419.46
930.7166, 13354.73
932.6450, 13283.33
934.5735, 13233.68
936.5020, 13221.66
938.4304, 13220.63
940.3589, 13217.16
942.2874, 13209.44
944.2158, 13207.83
946.1443, 13217.22
948.0728, 13224.13
950.0012, 13220.43
951.9297, 13208.19
953.8582, 13203.49
955.7866, 13216.96
957.7151, 13226.39
959.6436, 13219.83
961.5720, 13201.61
963.5005, 13186.44
965.4290, 13161.21
967.3574, 13156.56
969.2859, 13194.83
971.2144, 13261.19
973.1428, 13300.11
975.0713, 13299.25
976.9998, 13293.25
978.9282, 13282.72
980.8567, 13274.47
982.7852, 13279.68
984.7136, 13302.62
986.6421, 13326.93
988.5706, 13354.37
990.4990, 13377.51
992.4275, 13384.59
994.3560, 13356.88
996.2844, 13348.52
998.2129, 13380.29
1000.141, 13426.00
1002.070, 13455.41
1003.998, 13464.13
1005.927, 13490.76
1007.855, 13554.17
1009.784, 13624.93
1011.712, 13680.05
1013.641, 13716.23
1015.569, 13751.76
1017.498, 13783.11
1019.426, 13812.77
1021.354, 13844.17
1023.283, 13878.01
1025.211, 13898.31
1027.140, 13900.46
1029.068, 13901.34
1030.997, 13910.29
1032.925, 13926.24
1034.854, 13939.80
1036.782, 13949.27
1038.711, 13961.12
1040.639, 13980.31
1042.568, 14001.12
1044.496, 14012.49
1046.425, 14009.15
1048.353, 14001.88
1050.281, 13985.67
1052.210, 13971.24
1054.138, 13973.34
1056.067, 14000.20
1057.995, 14032.78
1059.924, 14087.08
1061.852, 14138.75
1063.781, 14159.17
1065.709, 14150.02
1067.638, 14162.63
1069.566, 14208.18
1071.495, 14267.81
1073.423, 14325.98
1075.352, 14381.08
1077.280, 14458.63
1079.208, 14527.47
1081.137, 14654.66
1083.065, 14916.93
1084.994, 15252.95
1086.922, 15477.49
1088.851, 15590.05
1090.779, 15617.65
1092.708, 15501.40
1094.636, 15336.05
1096.565, 15234.58
1098.493, 15209.01
1100.422, 15169.38
1102.350, 15089.72
1104.279, 14999.65
1106.207, 14915.96
1108.135, 14838.98
1110.064, 14769.77
1111.992, 14684.93
1113.921, 14629.00
1115.849, 14623.12
1117.778, 14660.01
1119.706, 14706.26
1121.635, 14768.16
1123.563, 14822.46
1125.492, 14860.91
1127.420, 14888.85
1129.349, 14917.45
1131.277, 14951.63
1133.206, 14969.30
1135.134, 14947.70
1137.063, 14923.43
1138.991, 14922.85
1140.919, 14952.13
1142.848, 14973.87
1144.776, 14977.14
1146.705, 14984.32
1148.633, 15003.66
1150.562, 15034.00
1152.490, 15069.35
1154.419, 15109.02
1156.347, 15154.46
1158.276, 15222.31
1160.204, 15287.05
1162.133, 15312.45
1164.061, 15291.00
1165.990, 15285.30
1167.918, 15318.25
1169.846, 15361.39
1171.775, 15398.50
1173.703, 15429.14
1175.632, 15461.92
1177.560, 15502.57
1179.489, 15539.47
1181.417, 15568.11
1183.346, 15590.70
1185.274, 15610.97
1187.203, 15618.47
1189.131, 15641.22
1191.060, 15694.14
1192.988, 15754.15
1194.917, 15807.31
1196.845, 15854.42
1198.773, 15876.83
1200.702, 15856.48
1202.630, 15839.84
1204.559, 15852.55
1206.487, 15888.88
1208.416, 15926.86
1210.344, 15968.26
1212.273, 16002.89
1214.201, 16015.42
1216.130, 16022.02
1218.058, 16039.95
1219.987, 16072.08
1221.915, 16097.55
1223.844, 16120.59
1225.772, 16137.30
1227.700, 16143.66
1229.629, 16147.13
1231.557, 16167.04
1233.486, 16210.65
1235.414, 16259.20
1237.343, 16315.10
1239.271, 16366.20
1241.200, 16392.47
1243.128, 16389.72
1245.057, 16410.81
1246.985, 16484.50
1248.914, 16556.45
1250.842, 16594.04
1252.771, 16606.97
1254.699, 16641.46
1256.627, 16708.44
1258.556, 16776.96
1260.484, 16859.81
1262.413, 16931.46
1264.341, 16961.19
1266.270, 16940.54
1268.198, 16944.72
1270.127, 17002.73
1272.055, 17061.74
1273.984, 17096.04
1275.912, 17119.77
1277.841, 17161.95
1279.769, 17224.42
1281.698, 17284.93
1283.626, 17341.10
1285.554, 17385.07
1287.483, 17404.80
1289.411, 17403.56
1291.340, 17423.68
1293.268, 17491.04
1295.197, 17549.58
1297.125, 17573.79
1299.054, 17584.92
1300.982, 17614.56
1302.911, 17671.04
1304.839, 17722.09
1306.768, 17760.20
1308.696, 17799.47
1310.625, 17853.00
1312.553, 17917.06
1314.481, 17967.27
1316.410, 17992.62
1318.338, 18032.93
1320.267, 18111.18
1322.195, 18195.09
1324.124, 18247.86
1326.052, 18271.46
1327.981, 18309.84
1329.909, 18378.33
1331.838, 18436.47
1333.766, 18458.66
1335.695, 18466.20
1337.623, 18492.81
1339.552, 18547.07
1341.480, 18586.25
1343.408, 18587.51
1345.337, 18594.27
1347.265, 18620.76
1349.194, 18665.80
1351.122, 18729.92
1353.051, 18840.42
1354.979, 18913.81
1356.908, 18923.56
1358.836, 18908.54
1360.765, 18889.46
1362.693, 18867.94
1364.622, 18866.62
1366.550, 18910.56
1368.479, 18945.95
1370.407, 18955.85
1372.335, 18961.56
1374.264, 18987.69
1376.192, 19034.30
1378.121, 19082.21
1380.049, 19122.04
1381.978, 19171.38
1383.906, 19242.91
1385.835, 19319.74
1387.763, 19377.16
1389.692, 19410.04
1391.620, 19439.90
1393.549, 19471.50
1395.477, 19496.77
1397.406, 19514.41
1399.334, 19526.96
1401.262, 19539.66
1403.191, 19559.89
1405.119, 19572.94
1407.048, 19564.34
1408.976, 19566.18
1410.905, 19602.99
1412.833, 19665.23
1414.762, 19706.42
1416.690, 19673.34
1418.619, 19703.62
1420.547, 19876.65
1422.476, 20048.79
1424.404, 20105.06
1426.333, 20061.71
1428.261, 20069.98
1430.189, 20164.74
1432.118, 20249.41
1434.046, 20293.38
1435.975, 20332.48
1437.903, 20393.40
1439.832, 20471.96
1441.760, 20555.58
1443.689, 20664.02
1445.617, 20726.19
1447.546, 20687.69
1449.474, 20624.40
1451.403, 20605.50
1453.331, 20627.11
1455.260, 20650.93
1457.188, 20674.71
1459.116, 20710.78
1461.045, 20782.35
1462.973, 20851.94
1464.902, 20875.40
1466.830, 20856.97
1468.759, 20864.24
1470.687, 20908.07
1472.616, 20953.88
1474.544, 20991.54
1476.473, 21023.85
1478.401, 21058.65
1480.330, 21097.42
1482.258, 21113.99
1484.187, 21089.13
1486.115, 21085.19
1488.043, 21132.48
1489.972, 21196.06
1491.900, 21248.92
1493.829, 21290.67
1495.757, 21320.69
1497.686, 21319.56
1499.614, 21326.40
1501.543, 21341.67
1503.471, 21365.18
1505.400, 21392.00
1507.328, 21424.11
1509.257, 21489.17
1511.185, 21646.53
1513.114, 21757.24
1515.042, 21773.02
1516.970, 21774.32
1518.899, 21824.03
1520.827, 21911.12
1522.756, 21968.69
1524.684, 21965.97
1526.613, 21988.54
1528.541, 22081.98
1530.470, 22162.52
1532.398, 22159.98
1534.327, 22105.84
1536.255, 22106.75
1538.184, 22188.33
1540.112, 22235.64
1542.041, 22200.40
1543.969, 22169.10
1545.897, 22188.45
1547.826, 22239.61
1549.754, 22282.46
1551.683, 22312.89
1553.611, 22359.17
1555.540, 22442.51
1557.468, 22512.55
1559.397, 22527.65
1561.325, 22527.81
1563.254, 22572.01
1565.182, 22658.17
1567.111, 22711.96
1569.039, 22707.62
1570.968, 22705.11
1572.896, 22731.67
1574.824, 22762.17
1576.753, 22772.63
1578.681, 22767.75
1580.610, 22774.09
1582.538, 22800.52
1584.467, 22824.57
1586.395, 22833.55
1588.324, 22850.45
1590.252, 22890.80
1592.181, 22948.46
1594.109, 23009.34
1596.038, 23073.73
1597.966, 23120.09
1599.895, 23121.67
1601.823, 23132.72
1603.751, 23195.41
1605.680, 23274.22
1607.608, 23311.43
1609.537, 23307.30
1611.465, 23314.03
1613.394, 23342.61
1615.322, 23378.23
1617.251, 23412.96
1619.179, 23454.69
1621.108, 23512.69
1623.036, 23581.82
1624.965, 23635.98
1626.893, 23666.13
1628.822, 23686.45
1630.750, 23699.04
1632.678, 23697.86
1634.607, 23673.91
1636.535, 23641.91
1638.464, 23639.82
1640.392, 23683.85
1642.321, 23683.66
1644.249, 23594.94
1646.178, 23529.41
1648.106, 23503.89
1650.035, 23522.58
1651.963, 23610.82
1653.892, 23757.43
1655.820, 23831.70
1657.749, 23792.98
1659.677, 23776.65
1661.605, 23857.96
1663.534, 23911.91
1665.462, 23850.93
1667.391, 23742.07
1669.319, 23716.47
1671.248, 23789.63
1673.176, 23858.09
1675.105, 23925.59
1677.033, 23972.61
1678.962, 23960.58
1680.890, 23951.65
1682.819, 23997.14
1684.747, 24084.92
1686.676, 24164.65
1688.604, 24237.24
1690.532, 24285.77
1692.461, 24295.54
1694.389, 24299.11
1696.318, 24306.72
1698.246, 24319.44
1700.175, 24340.93
1702.103, 24371.04
1704.032, 24391.18
1705.960, 24393.74
1707.889, 24401.89
1709.817, 24425.56
1711.746, 24449.64
1713.674, 24473.61
1715.603, 24492.43
1717.531, 24490.88
1719.459, 24468.68
1721.388, 24460.49
1723.316, 24461.68
1725.245, 24492.16
1727.173, 24593.30
1729.102, 24687.40
1731.030, 24715.74
1732.959, 24701.41
1734.887, 24708.07
1736.816, 24740.00
1738.744, 24760.79
1740.673, 24746.41
1742.601, 24764.34
1744.530, 24858.33
1746.458, 24975.53
1748.386, 25088.17
1750.315, 25186.90
1752.243, 25237.78
1754.172, 25231.76
1756.100, 25240.47
1758.029, 25284.54
1759.957, 25323.72
1761.886, 25341.19
1763.814, 25347.30
1765.743, 25349.39
1767.671, 25350.01
1769.600, 25354.17
1771.528, 25364.34
1773.457, 25383.29
1775.385, 25409.17
1777.313, 25455.29
1779.242, 25544.52
1781.170, 25641.25
1783.099, 25697.15
1785.027, 25728.23
1786.956, 25801.18
1788.884, 25923.01
1790.813, 26011.60
1792.741, 26028.46
1794.670, 26046.59
1796.598, 26114.68
1798.527, 26178.02
1800.455, 26185.82
1802.384, 26153.14
1804.312, 26127.83
1806.240, 26117.29
1808.169, 26096.12
1810.097, 26033.20
1812.026, 26005.02
1813.954, 26047.46
1815.883, 26115.81
1817.811, 26183.45
1819.740, 26250.00
1821.668, 26310.37
1823.597, 26356.52
1825.525, 26422.85
1827.454, 26532.83
1829.382, 26616.83
1831.311, 26639.00
1833.239, 26650.80
1835.167, 26685.63
1837.096, 26728.84
1839.024, 26757.14
1840.953, 26772.97
1842.881, 26777.02
1844.810, 26756.33
1846.738, 26762.46
1848.667, 26833.77
1850.595, 26895.24
1852.524, 26914.30
1854.452, 26905.82
1856.381, 26876.44
1858.309, 26832.40
1860.238, 26819.66
1862.166, 26850.91
1864.094, 26861.62
1866.023, 26829.60
1867.951, 26816.22
1869.880, 26856.51
1871.808, 26915.96
1873.737, 26962.74
1875.665, 27006.42
1877.594, 27072.01
1879.522, 27155.38
1881.451, 27220.00
1883.379, 27252.31
1885.308, 27284.11
1887.236, 27329.28
1889.165, 27371.42
1891.093, 27396.96
1893.021, 27421.79
1894.950, 27475.34
1896.878, 27549.61
1898.807, 27586.59
1900.735, 27578.01
1902.664, 27554.91
1904.592, 27491.37
1906.521, 27450.50
1908.449, 27483.76
1910.378, 27510.54
1912.306, 27456.71
1914.235, 27370.05
1916.163, 27337.74
1918.092, 27363.05
1920.020, 27408.63
1921.948, 27481.66
1923.877, 27554.73
1925.805, 27641.83
1927.734, 27695.17
1929.662, 27652.63
1931.591, 27608.56
1933.519, 27670.41
1935.448, 27778.77
1937.376, 27772.21
1939.305, 27657.35
1941.233, 27614.53
1943.162, 27684.42
1945.090, 27741.80
1947.019, 27751.77
1948.947, 27754.54
1950.875, 27774.55
1952.804, 27788.16
1954.732, 27749.43
1956.661, 27687.88
1958.589, 27703.26
1960.518, 27810.73
1962.446, 27857.93
1964.375, 27779.18
1966.303, 27755.18
1968.232, 27870.07
1970.160, 27956.99
1972.089, 27911.56
1974.017, 27837.06
1975.946, 27830.86
1977.874, 27871.11
1979.802, 27901.71
1981.731, 27923.15
1983.659, 27945.72
1985.588, 27987.78
1987.516, 27986.36
1989.445, 27895.36
1991.373, 27824.62
1993.302, 27823.92
1995.230, 27854.57
1997.159, 27895.13
1999.087, 27938.07
2001.016, 27973.35
2002.944, 28000.16
2004.873, 28018.32
2006.801, 28031.56
2008.729, 28026.52
2010.658, 27983.23
2012.586, 27949.79
2014.515, 27936.21
2016.443, 27940.04
2018.372, 27954.92
2020.300, 27989.00
2022.229, 28069.24
2024.157, 28183.93
2026.086, 28250.70
2028.014, 28258.03
2029.943, 28255.81
2031.871, 28230.17
2033.800, 28225.71
2035.728, 28274.73
2037.656, 28313.99
2039.585, 28313.63
2041.513, 28299.16
2043.442, 28290.54
2045.370, 28288.46
2047.299, 28293.82
2049.227, 28305.38
2051.156, 28301.69
2053.084, 28265.91
2055.013, 28269.94
2056.941, 28354.27
2058.870, 28428.24
2060.798, 28473.84
2062.727, 28501.53
2064.655, 28491.46
2066.583, 28487.36
2068.512, 28556.69
2070.440, 28670.43
2072.369, 28728.44
2074.297, 28726.47
2076.226, 28737.12
2078.154, 28779.26
2080.083, 28763.89
2082.011, 28630.58
2083.940, 28552.56
2085.868, 28635.43
2087.797, 28743.72
2089.725, 28791.18
2091.654, 28816.96
2093.582, 28866.82
2095.510, 28928.05
2097.439, 28965.40
2099.367, 28973.70
2101.296, 28990.19
2103.224, 29028.48
2105.153, 29050.51
2107.081, 29054.66
2109.010, 29052.53
2110.938, 29049.27
2112.867, 29044.00
2114.795, 29020.43
2116.724, 29011.58
2118.652, 29055.75
2120.581, 29136.58
2122.509, 29229.68
2124.438, 29329.20
2126.366, 29389.25
2128.294, 29396.38
2130.223, 29436.52
2132.151, 29546.94
2134.080, 29631.63
2136.008, 29652.11
2137.937, 29659.99
2139.865, 29649.78
2141.794, 29655.22
2143.722, 29737.01
2145.651, 29830.52
2147.579, 29834.35
2149.508, 29769.62
2151.436, 29703.52
2153.365, 29642.29
2155.293, 29660.48
2157.221, 29784.02
2159.150, 29877.07
2161.078, 29896.94
2163.007, 29915.91
2164.935, 29943.95
2166.864, 29983.98
2168.792, 30039.75
2170.721, 30104.22
2172.649, 30171.79
2174.578, 30243.44
2176.506, 30323.06
2178.435, 30408.25
2180.363, 30492.92
2182.292, 30577.55
2184.220, 30626.88
2186.148, 30634.16
2188.077, 30621.85
2190.005, 30579.21
2191.934, 30558.80
2193.862, 30603.02
2195.791, 30647.25
2197.719, 30667.11
2199.648, 30672.39
2201.576, 30657.61
2203.505, 30640.84
2205.433, 30647.01
2207.362, 30670.39
2209.290, 30701.07
2211.219, 30736.97
2213.147, 30761.98
2215.075, 30776.00
2217.004, 30788.96
2218.932, 30809.67
2220.861, 30817.03
2222.789, 30794.16
2224.718, 30785.90
2226.646, 30816.58
2228.575, 30859.13
2230.503, 30895.30
2232.432, 30936.18
2234.360, 31007.46
2236.289, 31085.73
2238.217, 31112.15
2240.146, 31097.26
2242.074, 31119.32
2244.002, 31175.52
2245.931, 31253.66
2247.859, 31353.99
2249.788, 31440.03
2251.716, 31513.91
2253.645, 31549.90
2255.573, 31538.14
2257.502, 31500.91
2259.430, 31422.29
2261.359, 31355.88
2263.287, 31336.13
2265.216, 31343.06
2267.144, 31357.98
2269.073, 31385.47
2271.001, 31449.54
2272.929, 31531.68
2274.858, 31570.86
2276.786, 31571.31
2278.715, 31559.38
2280.643, 31525.78
2282.572, 31544.70
2284.500, 31633.02
2286.429, 31740.57
2288.357, 31900.61
2290.286, 32007.50
2292.214, 32006.63
2294.143, 31988.15
2296.071, 32004.04
2298.000, 31998.17
2299.928, 31907.75
2301.856, 31808.98
2303.785, 31783.63
2305.713, 31802.83
2307.642, 31811.05
2309.570, 31817.73
2311.499, 31873.03
2313.427, 31978.97
2315.356, 32022.51
2317.284, 31990.28
2319.213, 31976.36
2321.141, 31986.71
2323.070, 31999.40
2324.998, 31998.65
2326.927, 32026.71
2328.855, 32130.39
2330.783, 32203.10
2332.712, 32210.76
2334.640, 32169.96
2336.569, 32052.90
2338.497, 31938.53
2340.426, 31905.60
2342.354, 31910.13
2344.283, 31892.75
2346.211, 31872.00
2348.140, 31888.22
2350.068, 31932.62
2351.997, 31968.88
2353.925, 31995.60
2355.854, 32053.32
2357.782, 32148.15
2359.710, 32231.80
2361.639, 32295.21
2363.567, 32360.51
2365.496, 32442.29
2367.424, 32484.21
2369.353, 32460.01
2371.281, 32432.46
2373.210, 32428.26
2375.138, 32425.21
2377.067, 32421.45
2378.995, 32409.79
2380.924, 32361.17
2382.852, 32328.36
2384.781, 32383.29
2386.709, 32466.48
2388.637, 32486.33
2390.566, 32469.89
2392.494, 32484.61
2394.423, 32519.78
2396.351, 32545.94
2398.280, 32563.13
2400.208, 32546.57
2402.137, 32487.33
2404.065, 32476.50
2405.994, 32528.92
2407.922, 32588.62
2409.851, 32645.36
2411.779, 32725.04
2413.708, 32845.45
2415.636, 32930.97
2417.564, 32955.23
2419.493, 32951.17
2421.421, 32894.52
2423.350, 32875.23
2425.278, 32984.27
2427.207, 33092.93
2429.135, 33090.09
2431.064, 33079.71
2432.992, 33166.04
2434.921, 33272.13
2436.849, 33305.65
2438.778, 33297.56
2440.706, 33294.37
2442.635, 33292.52
2444.563, 33289.85
2446.491, 33284.95
2448.420, 33247.55
2450.348, 33180.41
2452.277, 33177.91
2454.205, 33241.17
2456.134, 33271.68
2458.062, 33258.49
2459.991, 33279.43
2461.919, 33362.88
2463.848, 33406.47
2465.776, 33355.41
2467.705, 33335.49
2469.633, 33364.41
2471.562, 33407.59
2473.490, 33467.73
2475.418, 33527.82
2477.347, 33595.45
2479.275, 33642.83
2481.204, 33646.87
2483.132, 33637.84
2485.061, 33621.39
2486.989, 33604.92
2488.918, 33583.62
2490.846, 33574.65
2492.775, 33610.25
2494.703, 33660.31
2496.632, 33691.66
2498.560, 33723.68
2500.489, 33787.08
2502.417, 33868.89
2504.345, 33933.77
2506.274, 33985.22
2508.202, 34037.67
2510.131, 34087.78
2512.059, 34157.42
2513.988, 34241.70
2515.916, 34331.21
2517.845, 34428.05
2519.773, 34496.82
2521.702, 34541.56
2523.630, 34556.07
2525.559, 34528.11
2527.487, 34504.04
2529.416, 34472.25
2531.344, 34481.48
2533.272, 34553.19
2535.201, 34581.43
2537.129, 34524.48
2539.058, 34497.66
2540.986, 34570.64
2542.915, 34622.41
2544.843, 34627.10
2546.772, 34635.11
2548.700, 34639.03
2550.629, 34677.57
2552.557, 34780.66
2554.486, 34877.97
2556.414, 34915.56
2558.343, 34950.91
2560.271, 35034.99
2562.199, 35096.54
2564.128, 35056.50
2566.056, 35029.25
2567.985, 35117.82
2569.913, 35233.65
2571.842, 35313.43
2573.770, 35372.92
2575.699, 35399.89
2577.627, 35435.33
2579.556, 35549.14
2581.484, 35684.03
2583.413, 35763.31
2585.341, 35803.30
2587.270, 35834.18
2589.198, 35849.79
2591.126, 35807.54
2593.055, 35752.20
2594.983, 35823.62
2596.912, 35975.23
2598.840, 36020.77
2600.769, 35994.37
2602.697, 36037.88
2604.626, 36132.70
2606.554, 36182.04
2608.483, 36190.33
2610.411, 36235.91
2612.340, 36320.20
2614.268, 36289.58
2616.197, 36156.72
2618.125, 36126.37
2620.053, 36205.51
2621.982, 36307.58
2623.910, 36435.96
2625.839, 36490.47
2627.767, 36443.54
2629.696, 36415.62
2631.624, 36406.20
2633.553, 36391.24
2635.481, 36366.89
2637.410, 36382.50
2639.338, 36466.36
2641.267, 36514.77
2643.195, 36492.16
2645.124, 36511.54
2647.052, 36589.18
2648.980, 36641.21
2650.909, 36643.56
2652.837, 36668.30
2654.766, 36745.25
2656.694, 36787.19
2658.623, 36753.16
2660.551, 36743.18
2662.480, 36777.78
2664.408, 36813.46
2666.337, 36849.14
2668.265, 36881.75
2670.194, 36912.14
2672.122, 36931.38
2674.051, 36928.68
2675.979, 36916.82
2677.907, 36872.58
2679.836, 36875.71
2681.764, 36968.14
2683.693, 37039.58
2685.621, 37070.32
2687.550, 37059.80
2689.478, 36936.07
2691.407, 36902.62
2693.335, 37045.70
2695.264, 37175.54
2697.192, 37242.23
2699.121, 37286.82
2701.049, 37314.48
2702.978, 37326.62
2704.906, 37333.19
2706.834, 37303.39
2708.763, 37204.45
2710.691, 37138.25
2712.620, 37146.25
2714.548, 37181.28
2716.477, 37251.00
2718.405, 37309.79
2720.334, 37325.08
2722.262, 37342.41
2724.191, 37335.05
2726.119, 37392.38
2728.048, 37599.42
2729.976, 37742.73
2731.905, 37719.85
2733.833, 37673.98
2735.761, 37649.60
2737.690, 37617.07
2739.618, 37581.13
2741.547, 37521.38
2743.475, 37375.57
2745.404, 37318.82
2747.332, 37469.44
2749.261, 37600.62
2751.189, 37660.59
2753.118, 37695.56
2755.046, 37712.34
2756.975, 37708.89
2758.903, 37675.97
2760.832, 37636.51
2762.760, 37581.49
2764.688, 37548.89
2766.617, 37544.50
2768.545, 37580.34
2770.474, 37699.40
2772.402, 37747.98
2774.331, 37606.78
2776.259, 37537.34
2778.188, 37598.69
2780.116, 37648.82
2782.045, 37666.91
2783.973, 37682.34
2785.902, 37697.84
2787.830, 37736.07
2789.759, 37818.63
2791.687, 37905.01
2793.615, 37995.82
2795.544, 38073.84
2797.472, 38125.51
2799.401, 38186.16
2801.329, 38252.16
2803.258, 38325.64
2805.186, 38414.57
2807.115, 38475.57
2809.043, 38516.20
2810.972, 38444.98
2812.900, 38243.23
2814.829, 38148.04
2816.757, 38191.37
2818.686, 38238.84
2820.614, 38292.09
2822.542, 38344.45
2824.471, 38392.39
2826.399, 38394.68
2828.328, 38350.68
2830.256, 38365.57
2832.185, 38432.87
2834.113, 38477.73
2836.042, 38505.35
2837.970, 38561.82
2839.899, 38634.33
2841.827, 38640.06
2843.756, 38615.27
2845.684, 38699.76
2847.613, 38852.55
2849.541, 38948.95
2851.469, 39005.46
2853.398, 39049.66
2855.326, 39078.73
2857.255, 39087.02
2859.183, 39087.50
2861.112, 39115.52
2863.040, 39150.68
2864.969, 39191.62
2866.897, 39211.77
2868.826, 39134.64
2870.754, 39071.91
2872.683, 39155.71
2874.611, 39258.45
2876.540, 39302.93
2878.468, 39305.73
2880.396, 39251.06
2882.325, 39206.22
2884.253, 39209.63
2886.182, 39246.36
2888.110, 39319.97
2890.039, 39406.70
2891.967, 39527.92
2893.896, 39598.68
2895.824, 39535.28
2897.753, 39529.38
2899.681, 39636.17
2901.610, 39736.00
2903.538, 39790.45
2905.467, 39855.97
2907.395, 39951.96
2909.323, 40014.27
2911.252, 40036.94
2913.180, 40044.75
2915.109, 40042.68
2917.037, 40033.54
2918.966, 40012.71
2920.894, 40075.00
2922.823, 40216.09
2924.751, 40333.58
2926.680, 40422.73
2928.608, 40482.99
2930.537, 40518.87
2932.465, 40573.46
2934.394, 40636.53
2936.322, 40680.63
2938.250, 40720.61
2940.179, 40787.93
2942.107, 40872.09
2944.036, 40970.88
2945.964, 41062.00
2947.893, 41117.85
2949.821, 41153.98
2951.750, 41159.32
2953.678, 41186.85
2955.607, 41295.98
2957.535, 41417.14
2959.464, 41526.86
2961.392, 41624.65
2963.321, 41700.21
2965.249, 41771.92
2967.177, 41829.57
2969.106, 41893.30
2971.034, 41954.93
2972.963, 42067.18
2974.891, 42280.73
2976.820, 42422.09
2978.748, 42475.50
2980.677, 42477.56
2982.605, 42429.27
2984.534, 42456.62
2986.462, 42564.14
2988.391, 42698.06
2990.319, 42847.45
2992.248, 42921.14
2994.176, 42944.48
2996.104, 42958.04
2998.033, 42996.14
2999.961, 43146.54
3001.890, 43339.27
3003.818, 43478.31
3005.747, 43595.25
3007.675, 43696.55
3009.604, 43808.81
3011.532, 43949.46
3013.461, 44092.62
3015.389, 44231.61
3017.318, 44341.93
3019.246, 44416.87
3021.175, 44462.30
3023.103, 44482.66
3025.031, 44494.29
3026.960, 44501.15
3028.888, 44554.31
3030.817, 44671.16
3032.745, 44767.89
3034.674, 44833.95
3036.602, 44877.33
3038.531, 44905.70
3040.459, 45039.91
3042.388, 45214.47
3044.316, 45150.96
3046.245, 44988.10
3048.173, 45009.25
3050.102, 45138.43
3052.030, 45332.87
3053.958, 45495.71
3055.887, 45488.75
3057.815, 45462.59
3059.744, 45514.28
3061.672, 45556.65
3063.601, 45559.95
3065.529, 45546.52
3067.458, 45518.91
3069.386, 45523.95
3071.315, 45583.91
3073.243, 45604.05
3075.172, 45546.69
3077.100, 45519.47
3079.029, 45514.39
3080.957, 45572.88
3082.885, 45666.80
3084.814, 45690.20
3086.742, 45656.39
3088.671, 45564.69
3090.599, 45480.85
3092.528, 45507.55
3094.456, 45589.12
3096.385, 45671.87
3098.313, 45767.81
3100.242, 45899.39
3102.170, 45979.25
3104.099, 45929.09
3106.027, 45887.61
3107.956, 45953.40
3109.884, 45927.13
3111.813, 45797.54
3113.741, 45678.23
3115.669, 45590.95
3117.598, 45560.79
3119.526, 45583.02
3121.455, 45557.64
3123.383, 45519.62
3125.312, 45617.34
3127.240, 45744.90
3129.169, 45704.51
3131.097, 45626.30
3133.026, 45657.12
3134.954, 45703.84
3136.883, 45696.39
3138.811, 45718.24
3140.740, 45835.81
3142.668, 45909.50
3144.596, 45889.87
3146.525, 45901.02
3148.453, 45965.70
3150.382, 46037.88
3152.310, 46109.46
3154.239, 46097.39
3156.167, 46017.38
3158.096, 45963.53
3160.024, 45924.60
3161.953, 45893.15
3163.881, 45852.53
3165.810, 45762.79
3167.738, 45694.94
3169.667, 45742.51
3171.595, 45755.23
3173.523, 45607.76
3175.452, 45599.55
3177.380, 45972.74
3179.309, 46160.52
3181.237, 46123.86
3183.166, 46046.80
3185.094, 45939.41
3187.023, 45761.32
3188.951, 45558.16
3190.880, 45579.56
3192.808, 45677.55
3194.737, 45605.47
3196.665, 45489.89
3198.594, 45448.48
3200.522, 45433.96
3202.450, 45451.63
3204.379, 45423.28
3206.307, 45258.45
3208.236, 45172.68
3210.164, 45199.88
3212.093, 45207.37
3214.021, 45186.02
3215.950, 45154.38
3217.878, 45113.86
3219.807, 45035.45
3221.735, 44961.99
3223.664, 44947.79
3225.592, 44994.25
3227.521, 45160.95
3229.449, 45282.44
3231.377, 45244.56
3233.306, 45180.87
3235.234, 45116.00
3237.163, 45073.91
3239.091, 45069.04
3241.020, 45024.67
3242.948, 44947.77
3244.877, 44895.34
3246.805, 44870.42
3248.734, 44842.81
3250.662, 44840.16
3252.591, 44911.32
3254.519, 44987.42
3256.448, 44992.76
3258.376, 44984.01
3260.304, 44986.52
3262.233, 44975.56
3264.161, 44964.29
3266.090, 44916.02
3268.018, 44838.04
3269.947, 44706.26
3271.875, 44548.19
3273.804, 44508.25
3275.732, 44542.71
3277.661, 44574.48
3279.589, 44602.45
3281.518, 44610.61
3283.446, 44628.23
3285.375, 44672.15
3287.303, 44707.87
3289.231, 44731.63
3291.160, 44719.68
3293.088, 44672.14
3295.017, 44622.21
3296.945, 44591.82
3298.874, 44686.82
3300.802, 44831.84
3302.731, 44841.37
3304.659, 44827.77
3306.588, 44908.05
3308.516, 44971.94
3310.445, 44950.10
3312.373, 44915.23
3314.302, 44867.57
3316.230, 44900.91
3318.158, 45040.55
3320.087, 45077.20
3322.015, 45033.63
3323.944, 44997.00
3325.872, 44962.59
3327.801, 44928.13
3329.729, 44892.63
3331.658, 44850.04
3333.586, 44831.29
3335.515, 44875.93
3337.443, 44888.25
3339.372, 44848.48
3341.300, 44859.38
3343.229, 44915.17
3345.157, 44886.36
3347.085, 44810.27
3349.014, 44786.93
3350.942, 44779.79
3352.871, 44752.49
3354.799, 44732.07
3356.728, 44725.04
3358.656, 44740.93
3360.585, 44771.00
3362.513, 44848.63
3364.442, 44964.27
3366.370, 44990.24
3368.299, 44954.59
3370.227, 44960.89
3372.156, 44975.67
3374.084, 44957.93
3376.012, 44939.66
3377.941, 44934.10
3379.869, 44944.93
3381.798, 44967.13
3383.726, 44992.91
3385.655, 45013.45
3387.583, 44985.29
3389.512, 44914.58
3391.440, 44819.14
3393.369, 44738.80
3395.297, 44763.11
3397.226, 44780.22
3399.154, 44738.73
3401.083, 44679.25
3403.011, 44597.41
3404.939, 44521.08
3406.868, 44447.27
3408.796, 44468.87
3410.725, 44533.51
3412.653, 44491.08
3414.582, 44421.98
3416.510, 44411.18
3418.439, 44427.90
3420.367, 44517.04
3422.296, 44499.81
3424.224, 44337.04
3426.153, 44196.95
3428.081, 44102.49
3430.010, 44259.91
3431.938, 44500.82
3433.866, 44460.32
3435.795, 44347.63
3437.723, 44316.99
3439.652, 44323.64
3441.580, 44370.42
3443.509, 44357.56
3445.437, 44254.93
3447.366, 44238.71
3449.294, 44290.82
3451.223, 44348.94
3453.151, 44378.75
3455.080, 44275.50
3457.008, 44200.18
3458.937, 44256.89
3460.865, 44315.49
3462.793, 44351.38
3464.722, 44349.65
3466.650, 44317.25
3468.579, 44338.86
3470.507, 44406.31
3472.436, 44539.15
3474.364, 44649.79
3476.293, 44649.62
3478.221, 44640.54
3480.150, 44655.53
3482.078, 44626.29
3484.007, 44542.13
3485.935, 44489.58
3487.864, 44445.04
3489.792, 44348.54
3491.720, 44216.41
3493.649, 44026.24
3495.577, 43877.10
3497.506, 43843.63
3499.434, 43698.69
3501.363, 43401.68
3503.291, 43116.76
3505.220, 42858.91
3507.148, 42639.34
3509.077, 42495.66
3511.005, 42524.92
3512.934, 42554.75
3514.862, 42495.17
3516.791, 42442.70
3518.719, 42399.80
3520.647, 42454.08
3522.576, 42549.05
3524.504, 42465.29
3526.433, 42331.64
3528.361, 42290.45
3530.290, 42264.80
3532.218, 42227.45
3534.147, 42178.49
3536.075, 42117.43
3538.004, 42069.61
3539.932, 42023.32
3541.861, 41933.69
3543.789, 41815.23
3545.718, 41645.07
3547.646, 41533.43
3549.574, 41520.50
3551.503, 41561.70
3553.431, 41655.04
3555.360, 41694.09
3557.288, 41697.99
3559.217, 41715.64
3561.145, 41733.38
3563.074, 41726.56
3565.002, 41723.78
3566.931, 41741.04
3568.859, 41712.29
3570.788, 41638.65
3572.716, 41470.66
3574.645, 41289.27
3576.573, 41254.35
3578.501, 41245.30
3580.430, 41153.70
3582.358, 41154.49
3584.287, 41326.35
3586.215, 41442.10
3588.144, 41505.34
3590.072, 41594.56
3592.001, 41661.01
3593.929, 41620.52
3595.858, 41566.99
3597.786, 41545.15
3599.715, 41541.53
3601.643, 41557.08
3603.572, 41527.75
3605.500, 41482.72
3607.428, 41524.41
3609.357, 41561.38
3611.285, 41500.46
3613.214, 41459.52
3615.142, 41474.25
3617.071, 41485.41
3618.999, 41484.66
3620.928, 41436.82
3622.856, 41392.62
3624.785, 41485.68
3626.713, 41508.50
3628.642, 41301.61
3630.570, 41143.87
3632.499, 41069.11
3634.427, 41131.96
3636.355, 41262.71
3638.284, 41255.73
3640.212, 41251.61
3642.141, 41383.12
3644.069, 41452.05
3645.998, 41413.52
3647.926, 41376.80
3649.855, 41357.11
3651.783, 41418.79
3653.712, 41481.41
3655.640, 41428.62
3657.569, 41429.90
3659.497, 41556.93
3661.426, 41568.88
3663.354, 41461.99
3665.282, 41517.20
3667.211, 41636.50
3669.139, 41701.84
3671.068, 41736.21
3672.996, 41739.05
3674.925, 41783.78
3676.853, 41881.02
3678.782, 41887.16
3680.710, 41857.95
3682.639, 41918.06
3684.567, 41967.04
3686.496, 41943.18
3688.424, 41888.16
3690.353, 41811.48
3692.281, 41790.82
3694.209, 41811.51
3696.138, 41826.19
3698.066, 41836.57
3699.995, 41840.21
3701.923, 41812.51
3703.852, 41728.52
3705.780, 41705.34
3707.709, 41734.95
3709.637, 41863.64
3711.566, 41939.92
3713.494, 41770.13
3715.423, 41679.79
3717.351, 41744.94
3719.280, 41808.38
3721.208, 41853.90
3723.136, 41841.74
3725.065, 41825.29
3726.993, 41881.94
3728.922, 41877.66
3730.850, 41788.89
3732.779, 41676.31
3734.707, 41564.06
3736.636, 41477.61
3738.564, 41446.68
3740.493, 41522.96
3742.421, 41606.09
3744.350, 41670.50
3746.278, 41671.75
3748.207, 41641.48
3750.135, 41747.38
3752.063, 41829.35
3753.992, 41706.89
3755.920, 41669.05
3757.849, 41782.55
3759.777, 41718.58
3761.706, 41564.94
3763.634, 41581.14
3765.563, 41632.48
3767.491, 41620.48
3769.420, 41615.45
3771.348, 41620.33
3773.277, 41606.54
3775.205, 41561.82
3777.134, 41415.48
3779.062, 41330.76
3780.990, 41433.95
3782.919, 41556.68
3784.847, 41670.69
3786.776, 41584.88
3788.704, 41455.38
3790.633, 41568.85
3792.561, 41654.79
3794.490, 41598.67
3796.418, 41537.42
3798.347, 41484.80
3800.275, 41398.82
3802.204, 41335.32
3804.132, 41357.07
3806.061, 41382.41
3807.989, 41385.16
3809.917, 41411.48
3811.846, 41432.82
3813.774, 41311.39
3815.703, 41169.43
3817.631, 41100.65
3819.560, 41046.60
3821.488, 40999.06
3823.417, 41034.23
3825.345, 41095.54
3827.274, 41050.21
3829.202, 41005.68
3831.131, 41009.82
3833.059, 41043.88
3834.988, 41089.90
3836.916, 41043.08
3838.844, 40964.51
3840.773, 40923.64
3842.701, 40899.77
3844.630, 40897.05
3846.558, 40877.31
3848.487, 40863.49
3850.415, 40940.43
3852.344, 41002.61
3854.272, 40979.49
3856.201, 40920.14
3858.129, 40832.22
3860.058, 40820.98
3861.986, 40859.23
3863.915, 40941.02
3865.843, 40984.32
3867.771, 40958.33
3869.700, 40904.49
3871.628, 40832.81
3873.557, 40742.90
3875.485, 40691.07
3877.414, 40759.77
3879.342, 40808.91
3881.271, 40814.08
3883.199, 40734.70
3885.128, 40636.54
3887.056, 40635.50
3888.985, 40592.48
3890.913, 40458.26
3892.842, 40449.27
3894.770, 40511.87
3896.698, 40410.95
3898.627, 40331.79
3900.555, 40425.44
3902.484, 40439.90
3904.412, 40383.15
3906.341, 40384.64
3908.269, 40417.04
3910.198, 40462.68
3912.126, 40491.75
3914.055, 40513.72
3915.983, 40443.77
3917.912, 40320.92
3919.840, 40249.42
3921.769, 40225.38
3923.697, 40270.82
3925.625, 40284.48
3927.554, 40259.48
3929.482, 40244.17
3931.411, 40212.97
3933.339, 40167.59
3935.268, 40170.48
3937.196, 40206.59
3939.125, 40167.19
3941.053, 40129.78
3942.982, 40114.56
3944.910, 40085.89
3946.839, 40069.52
3948.767, 40074.07
3950.696, 40065.79
3952.624, 39995.17
3954.552, 39981.81
3956.481, 40054.84
3958.409, 40115.79
3960.338, 40149.91
3962.266, 40066.34
3964.195, 39947.60
3966.123, 39874.35
3968.052, 39880.07
3969.980, 39942.04
3971.909, 39972.43
3973.837, 39984.14
3975.766, 39873.17
3977.694, 39839.17
3979.623, 39955.32
3981.551, 39867.13
3983.479, 39772.52
3985.408, 39859.99
3987.336, 39919.73
3989.265, 39901.58
3991.193, 39958.18
3993.122, 40076.26
3995.050, 40087.22
3996.979, 40011.87
3998.907, 39944.66
4000.836, 39912.02
4002.764, 39906.97
4004.693, 39966.65
4006.621, 40012.64
4008.550, 39966.91
4010.478, 39965.39
4012.406, 40011.02
4014.335, 40028.23
4016.263, 39998.34
4018.192, 39954.66
4020.120, 39975.65
4022.049, 40032.57
4023.977, 40057.73
4025.906, 40045.95
4027.834, 39973.58
4029.763, 39975.80
4031.691, 40073.52
4033.620, 40063.43
4035.548, 40026.66
4037.477, 40029.09
4039.405, 40088.00
4041.333, 40166.32
4043.262, 40035.58
4045.190, 39927.62
4047.119, 40007.77
4049.047, 40054.33
4050.976, 40079.13
4052.904, 40089.04
4054.833, 40080.77
4056.761, 40087.73
4058.690, 40125.98
4060.618, 40167.44
4062.547, 40157.91
4064.475, 40126.96
4066.404, 40155.32
4068.332, 40172.86
4070.260, 40155.04
4072.189, 40052.13
4074.117, 39957.28
4076.046, 40057.24
4077.974, 40131.97
4079.903, 40109.60
4081.831, 40107.55
4083.760, 40127.92
4085.688, 40231.86
4087.617, 40285.10
4089.545, 40206.90
4091.474, 40165.32
4093.402, 40173.08
4095.331, 40175.49
4097.259, 40196.23
4099.188, 40266.23
4101.116, 40308.12
4103.044, 40333.39
4104.973, 40299.33
4106.901, 40270.65
4108.830, 40349.57
4110.758, 40376.77
4112.687, 40332.70
4114.615, 40325.09
4116.544, 40362.44
4118.472, 40436.62
4120.400, 40390.88
4122.329, 40270.11
4124.258, 40252.41
4126.186, 40269.76
4128.114, 40225.38
4130.043, 40164.45
4131.972, 40137.52
4133.900, 40123.30
4135.828, 40072.26
4137.757, 40054.91
4139.686, 40116.36
4141.614, 40174.27
4143.542, 40166.34
4145.471, 40191.46
4147.399, 40280.64
4149.328, 40323.89
4151.256, 40285.04
4153.185, 40290.57
4155.113, 40336.94
4157.042, 40408.39
4158.970, 40434.23
4160.898, 40427.82
4162.827, 40381.02
4164.755, 40282.50
4166.684, 40192.43
4168.612, 40150.28
4170.541, 40173.38
4172.469, 40128.38
4174.397, 40041.81
4176.326, 40036.67
4178.255, 40059.86
4180.183, 40054.74
4182.111, 40081.91
4184.040, 40118.74
4185.969, 40050.31
4187.897, 39960.36
4189.825, 39904.06
4191.754, 39868.26
4193.683, 39871.15
4195.611, 39944.06
4197.539, 39962.90
4199.468, 39875.50
4201.396, 39769.68
4203.325, 39686.82
4205.253, 39713.68
4207.182, 39789.67
4209.110, 39868.33
4211.039, 39893.10
4212.967, 39854.70
4214.896, 39693.55
4216.824, 39563.51
4218.752, 39540.54
4220.681, 39602.85
4222.609, 39684.21
4224.538, 39568.48
4226.466, 39457.39
4228.395, 39443.39
4230.323, 39433.57
4232.252, 39417.61
4234.180, 39370.89
4236.108, 39333.18
4238.037, 39308.04
4239.966, 39325.34
4241.894, 39352.57
4243.822, 39333.71
4245.751, 39279.53
4247.680, 39192.86
4249.608, 39133.57
4251.536, 39100.84
4253.465, 39103.91
4255.394, 39094.52
4257.322, 39061.38
4259.250, 39016.89
4261.179, 38971.68
4263.107, 38923.27
4265.036, 38918.49
4266.964, 38960.07
4268.893, 38969.76
4270.821, 38950.94
4272.750, 38909.47
4274.678, 38842.19
4276.606, 38762.27
4278.535, 38722.20
4280.463, 38705.24
4282.392, 38697.58
4284.320, 38699.17
4286.249, 38702.14
4288.177, 38687.30
4290.105, 38693.45
4292.034, 38753.33
4293.963, 38708.65
4295.891, 38614.36
4297.819, 38589.46
4299.748, 38595.75
4301.677, 38620.89
4303.605, 38618.31
4305.533, 38619.33
4307.462, 38683.16
4309.391, 38718.56
4311.319, 38711.73
4313.247, 38723.54
4315.176, 38723.27
4317.104, 38677.93
4319.033, 38668.09
4320.961, 38684.76
4322.890, 38609.93
4324.818, 38556.40
4326.747, 38587.84
4328.675, 38551.99
4330.604, 38493.11
4332.532, 38558.16
4334.460, 38609.68
4336.389, 38607.29
4338.317, 38574.30
4340.246, 38558.05
4342.174, 38623.71
4344.103, 38683.94
4346.031, 38711.95
4347.960, 38653.52
4349.888, 38593.89
4351.816, 38648.13
4353.745, 38595.81
4355.674, 38478.44
4357.602, 38438.59
4359.530, 38421.22
4361.459, 38363.82
4363.388, 38554.71
4365.316, 38778.64
4367.244, 38653.51
4369.173, 38585.79
4371.102, 38648.41
4373.030, 38679.74
4374.958, 38704.00
4376.887, 38742.43
4378.815, 38760.99
4380.744, 38756.24
4382.672, 38686.79
4384.601, 38696.51
4386.529, 38836.50
4388.458, 38823.63
4390.386, 38777.11
4392.314, 38896.71
4394.243, 38925.92
4396.171, 38856.85
4398.100, 38892.37
4400.028, 38933.17
4401.957, 38906.84
4403.885, 38930.76
4405.813, 38977.35
4407.742, 38974.11
4409.671, 38963.07
4411.599, 38956.76
4413.527, 38917.41
4415.456, 38914.66
4417.385, 39054.80
4419.313, 39092.59
4421.241, 39054.68
4423.170, 39160.97
4425.099, 39193.55
4427.027, 39063.60
4428.955, 39050.00
4430.884, 39080.94
4432.813, 39061.54
4434.741, 39078.70
4436.669, 39125.15
4438.598, 39059.63
4440.526, 39041.66
4442.455, 39151.95
4444.383, 39266.01
4446.312, 39338.64
4448.240, 39289.54
4450.168, 39246.73
4452.097, 39234.11
4454.025, 39248.69
4455.954, 39289.40
4457.882, 39383.07
4459.811, 39364.32
4461.739, 39284.40
4463.668, 39205.84
4465.596, 39206.23
4467.524, 39280.29
4469.453, 39253.23
4471.382, 39273.43
4473.310, 39441.18
4475.238, 39479.34
4477.167, 39442.20
4479.096, 39437.16
4481.024, 39492.72
4482.952, 39595.84
4484.881, 39512.91
4486.810, 39464.49
4488.738, 39620.75
4490.666, 39647.09
4492.595, 39592.88
4494.523, 39531.41
4496.452, 39554.63
4498.380, 39650.01
4500.309, 39621.68
4502.237, 39562.70
4504.166, 39519.45
4506.094, 39397.76
4508.022, 39285.81
4509.951, 39329.46
4511.879, 39354.55
4513.808, 39360.37
4515.736, 39477.37
4517.665, 39564.11
4519.593, 39551.18
4521.521, 39638.45
4523.450, 39727.49
4525.379, 39713.02
4527.307, 39699.16
4529.235, 39691.18
4531.164, 39683.26
4533.093, 39614.48
4535.021, 39474.84
4536.949, 39453.13
4538.878, 39447.84
4540.807, 39330.27
4542.735, 39478.36
4544.663, 39737.07
4546.592, 39791.39
4548.521, 39837.69
4550.449, 39891.83
4552.377, 39844.79
4554.306, 39771.87
4556.234, 39708.11
4558.163, 39685.62
4560.091, 39656.34
4562.020, 39567.84
4563.948, 39463.84
4565.876, 39369.23
4567.805, 39314.49
4569.733, 39332.60
4571.662, 39412.50
4573.590, 39350.80
4575.519, 39316.54
4577.447, 39412.37
4579.376, 39427.63
4581.304, 39364.35
4583.232, 39228.54
4585.161, 39113.43
4587.090, 39040.99
4589.018, 39032.00
4590.946, 39031.64
4592.875, 39019.87
4594.804, 39036.38
4596.732, 39049.16
4598.660, 39040.49
4600.589, 39006.49
4602.518, 38982.83
4604.446, 39042.60
4606.374, 39045.88
4608.303, 39012.00
4610.231, 39091.56
4612.160, 39087.28
4614.088, 38968.02
4616.017, 38975.76
4617.945, 39032.62
4619.874, 39098.10
4621.802, 39124.77
4623.730, 39127.89
4625.659, 39119.30
4627.587, 39106.34
4629.516, 39087.96
4631.444, 39065.00
4633.373, 39049.12
4635.301, 39033.75
4637.229, 38948.42
4639.158, 38864.45
4641.087, 38816.81
4643.015, 38786.73
4644.943, 38763.84
4646.872, 38732.46
4648.801, 38741.66
4650.729, 38769.15
4652.657, 38774.85
4654.586, 38829.03
4656.515, 38909.23
4658.443, 38887.32
4660.371, 38882.71
4662.300, 38923.48
4664.229, 38982.25
4666.157, 38966.70
4668.085, 38834.38
4670.014, 38779.69
4671.942, 38769.20
4673.871, 38767.19
4675.799, 38802.52
4677.728, 38857.70
4679.656, 38907.84
4681.584, 38915.50
4683.513, 38878.17
4685.441, 38785.50
4687.370, 38747.00
4689.298, 38779.79
4691.227, 38749.35
4693.155, 38735.57
4695.084, 38772.48
4697.012, 38759.58
4698.940, 38730.02
4700.869, 38704.32
4702.798, 38695.78
4704.726, 38687.68
4706.654, 38631.87
4708.583, 38709.33
4710.512, 38845.67
4712.440, 38866.35
4714.368, 38866.23
4716.297, 38857.20
4718.226, 38786.68
4720.154, 38806.81
4722.082, 38942.70
4724.011, 39034.02
4725.939, 39048.05
4727.868, 38982.06
4729.796, 39066.04
4731.725, 39153.39
4733.653, 39134.44
4735.582, 39086.11
4737.510, 39059.32
4739.438, 39113.32
4741.367, 39163.70
4743.295, 39221.87
4745.224, 39357.92
4747.152, 39329.33
4749.081, 39207.98
4751.009, 39223.51
4752.938, 39231.48
4754.866, 39234.13
4756.795, 39410.80
4758.723, 39463.32
4760.651, 39357.96
4762.580, 39376.93
4764.509, 39403.62
4766.437, 39389.94
4768.365, 39334.33
4770.294, 39311.58
4772.223, 39361.76
4774.151, 39364.97
4776.079, 39364.14
4778.008, 39394.38
4779.937, 39402.15
4781.865, 39435.19
4783.793, 39548.87
4785.722, 39659.95
4787.650, 39698.59
4789.579, 39536.84
4791.507, 39455.21
4793.436, 39443.02
4795.364, 39431.34
4797.292, 39457.93
4799.221, 39488.19
4801.149, 39409.52
4803.078, 39396.65
4805.006, 39446.71
4806.935, 39417.59
4808.863, 39367.97
4810.792, 39315.35
4812.720, 39256.31
4814.648, 39217.41
4816.577, 39210.78
4818.506, 39341.25
4820.434, 39410.21
4822.362, 39367.31
4824.291, 39447.83
4826.220, 39475.39
4828.148, 39353.18
4830.076, 39283.33
4832.005, 39286.46
4833.934, 39373.17
4835.862, 39318.25
4837.790, 39248.49
4839.719, 39259.02
4841.647, 39264.95
4843.576, 39242.39
4845.504, 39170.00
4847.433, 39138.30
4849.361, 39103.67
4851.290, 39011.87
4853.218, 38948.93
4855.146, 38959.56
4857.075, 39124.53
4859.003, 39139.82
4860.932, 39031.08
4862.860, 38814.36
4864.789, 38782.99
4866.717, 38840.57
4868.646, 38861.55
4870.574, 38781.14
4872.503, 38665.57
4874.431, 38621.15
4876.359, 38556.45
4878.288, 38476.00
4880.217, 38367.21
4882.145, 38412.55
4884.073, 38498.94
4886.002, 38409.77
4887.931, 38300.05
4889.859, 38213.14
4891.787, 38175.48
4893.716, 38220.34
4895.645, 38271.95
4897.573, 38163.23
4899.501, 38093.14
4901.430, 38061.35
4903.358, 38026.05
4905.287, 37973.91
4907.215, 37890.48
4909.144, 37723.84
4911.072, 37666.66
4913.000, 37675.52
4914.929, 37636.63
4916.857, 37493.67
4918.786, 37354.34
4920.714, 37448.85
4922.643, 37461.80
4924.571, 37450.51
4926.500, 37633.25
4928.428, 37609.83
4930.356, 37432.02
4932.285, 37234.58
4934.214, 37095.45
4936.142, 37036.73
4938.070, 37097.13
4939.999, 37122.93
4941.928, 37100.99
4943.856, 36996.64
4945.784, 37058.02
4947.713, 37166.90
4949.642, 37170.41
4951.570, 37031.63
4953.498, 36882.03
4955.427, 36882.43
4957.355, 36876.14
4959.284, 36811.79
4961.212, 36614.07
4963.141, 36541.23
4965.069, 36489.07
4966.998, 36354.24
4968.926, 36400.61
4970.854, 36459.00
4972.783, 36354.66
4974.711, 36365.73
4976.640, 36429.12
4978.568, 36499.64
4980.497, 36441.50
4982.425, 36301.33
4984.354, 36124.86
4986.282, 36069.52
4988.211, 36054.11
4990.139, 36036.39
4992.067, 36068.33
4993.996, 36075.53
4995.925, 36026.74
4997.853, 35937.55
4999.781, 35924.89
5001.710, 35985.13
5003.639, 35813.98
5005.567, 35667.76
5007.495, 35621.68
5009.424, 35713.99
5011.353, 35700.55
5013.281, 35615.22
5015.209, 35703.05
5017.138, 35740.39
5019.066, 35704.42
5020.995, 35604.43
5022.923, 35515.57
5024.852, 35444.86
5026.780, 35398.48
5028.708, 35306.69
5030.637, 35211.54
5032.565, 35157.06
5034.494, 35157.13
5036.422, 35181.20
5038.351, 35203.54
5040.279, 35117.89
5042.208, 35070.90
5044.136, 35152.64
5046.064, 35269.19
5047.993, 35322.84
5049.922, 35271.94
5051.850, 35129.72
5053.778, 35109.78
5055.707, 35192.53
5057.636, 34998.00
5059.564, 34922.18
5061.492, 34986.93
5063.421, 35012.83
5065.350, 34910.73
5067.278, 34801.98
5069.206, 34941.63
5071.135, 34964.64
5073.063, 34897.80
5074.992, 34822.73
5076.920, 34766.96
5078.849, 34720.69
5080.777, 34677.52
5082.706, 34682.94
5084.634, 34612.45
5086.563, 34427.63
5088.491, 34413.73
5090.419, 34479.23
5092.348, 34556.23
5094.276, 34421.18
5096.205, 34389.48
5098.133, 34465.39
5100.062, 34456.36
5101.990, 34336.68
5103.919, 34220.27
5105.847, 34326.91
5107.775, 34320.87
5109.704, 34241.97
5111.633, 34144.19
5113.561, 34094.73
5115.489, 34072.92
5117.418, 34064.45
5119.347, 34126.74
5121.275, 34117.41
5123.203, 34008.18
5125.132, 33940.69
5127.061, 33952.29
5128.989, 33977.56
5130.917, 33787.33
5132.846, 33791.71
5134.774, 33855.88
5136.703, 33690.37
5138.631, 33760.61
5140.560, 33850.42
5142.488, 33731.04
5144.417, 33742.93
5146.345, 33774.54
5148.273, 33780.96
5150.202, 33830.85
5152.130, 33794.43
5154.059, 33671.95
5155.987, 33530.18
5157.916, 33536.98
5159.844, 33585.50
5161.772, 33458.10
5163.701, 33456.63
5165.630, 33538.97
5167.558, 33645.68
5169.486, 33633.45
5171.415, 33667.23
5173.344, 33792.29
5175.272, 33708.57
5177.200, 33614.44
5179.129, 33554.93
5181.058, 33506.07
5182.986, 33491.46
5184.914, 33475.66
5186.843, 33402.02
5188.771, 33407.64
5190.700, 33444.59
5192.628, 33477.75
5194.557, 33346.03
5196.485, 33292.25
5198.414, 33342.42
5200.342, 33246.32
5202.271, 33127.41
5204.199, 33078.18
5206.127, 33269.20
5208.056, 33250.70
5209.984, 33154.93
5211.913, 33103.00
5213.841, 33143.67
5215.770, 33182.64
5217.698, 33182.23
5219.627, 33182.44
5221.555, 33049.35
5223.483, 32864.55
5225.412, 32812.67
5227.341, 32935.35
5229.269, 32985.62
5231.197, 32738.26
5233.126, 32760.87
5235.055, 32849.36
5236.983, 32895.54
5238.911, 32859.65
5240.840, 32749.20
5242.769, 32607.22
5244.697, 32470.75
5246.625, 32471.45
5248.554, 32510.83
5250.482, 32502.06
5252.411, 32488.62
5254.339, 32380.20
5256.268, 32278.75
5258.196, 32868.13
5260.125, 32687.17
5262.053, 32142.58
5263.981, 32161.43
5265.910, 32127.14
5267.838, 32084.98
5269.767, 32075.91
5271.695, 32003.37
5273.624, 31964.18
5275.552, 31962.60
5277.480, 31938.78
5279.409, 31951.98
5281.338, 31952.71
5283.266, 31887.88
5285.194, 31746.54
5287.123, 31718.88
5289.052, 31822.35
5290.980, 31759.78
5292.908, 31718.24
5294.837, 31708.18
5296.766, 31706.82
5298.694, 31546.41
5300.622, 31448.62
5302.551, 31528.25
5304.479, 31306.82
5306.408, 31189.86
5308.336, 31213.43
5310.265, 31243.50
5312.193, 31150.36
5314.122, 31055.38
5316.050, 31059.58
5317.979, 31138.78
5319.907, 31162.96
5321.835, 31102.56
5323.764, 30956.84
5325.692, 30951.00
5327.621, 31017.18
5329.549, 31066.91
5331.478, 30983.83
5333.406, 30863.87
5335.335, 30754.33
5337.263, 30647.30
5339.191, 30676.73
5341.120, 30733.46
5343.049, 30659.66
5344.977, 30703.68
5346.905, 30717.67
5348.834, 30678.17
5350.763, 30790.47
5352.691, 30675.29
5354.619, 30506.90
5356.548, 30555.18
5358.477, 30514.97
5360.405, 30476.65
5362.333, 30459.79
5364.262, 30311.56
5366.190, 30274.08
5368.119, 30312.05
5370.047, 30348.62
5371.976, 30302.70
5373.904, 30233.54
5375.833, 30183.21
5377.761, 30208.15
5379.689, 30195.69
5381.618, 30169.77
5383.546, 30171.86
5385.475, 30205.79
5387.403, 30152.59
5389.332, 30016.92
5391.260, 29908.17
5393.188, 29950.07
5395.117, 30009.94
5397.046, 29961.26
5398.974, 29748.50
5400.902, 29701.70
5402.831, 29778.56
5404.760, 29613.33
5406.688, 29603.67
5408.616, 29631.23
5410.545, 29588.93
5412.474, 29414.23
5414.402, 29419.81
5416.330, 29478.24
5418.259, 29291.02
5420.188, 29228.35
5422.116, 29183.36
5424.044, 29116.30
5425.973, 29222.34
5427.901, 29129.25
5429.830, 28996.59
5431.758, 29065.32
5433.687, 28963.31
5435.615, 28941.21
5437.543, 28981.89
5439.472, 28816.34
5441.400, 28754.31
5443.329, 28774.87
5445.257, 28819.64
5447.186, 28730.79
5449.114, 28641.28
5451.043, 28572.39
5452.971, 28508.44
5454.899, 28461.53
5456.828, 28452.44
5458.757, 28462.23
5460.685, 28400.04
5462.613, 28352.89
5464.542, 28350.54
5466.471, 28393.55
5468.399, 28315.55
5470.327, 28221.24
5472.256, 28181.92
5474.185, 28289.59
5476.113, 28322.47
5478.041, 28295.97
5479.970, 28246.66
5481.898, 28278.56
5483.827, 28234.90
5485.755, 28194.04
5487.684, 28210.38
5489.612, 28057.25
5491.541, 27972.91
5493.469, 27972.21
5495.397, 28001.57
5497.326, 28015.59
5499.254, 27941.43
5501.183, 27821.12
5503.111, 27894.40
5505.040, 27922.22
5506.968, 27847.39
5508.896, 27695.93
5510.825, 27770.58
5512.754, 27778.93
5514.682, 27725.13
5516.610, 27671.91
5518.539, 27593.46
5520.468, 27513.13
5522.396, 27457.21
5524.324, 27466.36
5526.253, 27442.15
5528.182, 27373.37
5530.110, 27295.59
5532.038, 27352.32
5533.967, 27425.41
5535.896, 27421.31
5537.824, 27316.97
5539.752, 27285.50
5541.681, 27242.52
5543.609, 27172.70
5545.538, 27081.23
5547.466, 27204.54
5549.395, 27242.26
5551.323, 27197.39
5553.251, 27237.50
5555.180, 27157.21
5557.108, 27046.93
5559.037, 26948.63
5560.965, 26860.74
5562.894, 26924.40
5564.822, 26903.89
5566.751, 26753.52
5568.679, 26757.88
5570.607, 26734.38
5572.536, 26693.30
5574.465, 26662.25
5576.393, 26689.54
5578.321, 26723.69
5580.250, 26677.48
5582.179, 26492.82
5584.107, 26474.62
5586.035, 26439.96
5587.964, 26400.44
5589.893, 26417.17
5591.821, 26323.90
5593.749, 26289.99
5595.678, 26319.67
5597.606, 26349.85
5599.535, 26203.00
5601.463, 26070.43
5603.392, 26004.22
5605.320, 25969.23
5607.249, 25870.06
5609.177, 25835.65
5611.105, 25868.06
5613.034, 25801.73
5614.962, 25846.22
5616.891, 25891.50
5618.819, 25884.76
5620.748, 25850.53
5622.676, 25823.59
5624.604, 25770.39
5626.533, 25688.79
5628.462, 25650.20
5630.390, 25555.35
5632.318, 25474.48
5634.247, 25445.15
5636.176, 25397.23
5638.104, 25436.06
5640.032, 25441.17
5641.961, 25349.45
5643.890, 25322.21
5645.818, 25337.98
5647.746, 25293.10
5649.675, 25151.52
5651.604, 25223.33
5653.532, 25196.37
5655.460, 25098.30
5657.389, 25018.87
5659.317, 25123.05
5661.246, 25182.69
5663.174, 25198.65
5665.103, 25193.26
5667.031, 25105.09
5668.959, 25067.21
5670.888, 25038.73
5672.816, 24974.24
5674.745, 24884.98
5676.673, 24860.17
5678.602, 24797.79
5680.530, 24635.67
5682.459, 24533.89
5684.387, 24504.57
5686.315, 24503.25
5688.244, 24482.09
5690.173, 24347.28
5692.101, 24321.96
5694.029, 24345.08
5695.958, 24354.53
5697.887, 24387.73
5699.815, 24292.04
5701.743, 24152.33
5703.672, 24065.08
5705.601, 24193.20
5707.529, 24065.77
5709.457, 23942.79
5711.386, 23953.55
5713.314, 23974.77
5715.243, 23881.78
5717.171, 23793.00
5719.100, 23755.80
5721.028, 23729.96
5722.957, 23680.45
5724.885, 23669.12
5726.813, 23680.07
5728.742, 23627.00
5730.670, 23678.73
5732.599, 23653.56
5734.527, 23574.62
5736.456, 23572.38
5738.384, 23480.28
5740.313, 23378.44
5742.241, 23313.90
5744.170, 23306.12
5746.098, 23346.84
5748.026, 23334.67
5749.955, 23341.32
5751.884, 23417.29
5753.812, 23141.70
5755.740, 23082.97
5757.669, 23096.17
5759.598, 23023.49
5761.526, 22961.42
5763.454, 22941.65
5765.383, 22905.97
5767.312, 22844.34
5769.240, 22821.51
5771.168, 22837.37
5773.097, 22781.19
5775.025, 22669.72
5776.954, 22609.99
5778.882, 22748.98
5780.811, 22682.95
5782.739, 22520.13
5784.667, 22522.16
5786.596, 22449.98
5788.524, 22421.56
5790.453, 22394.54
5792.381, 22338.43
5794.310, 22473.71
5796.238, 22478.29
5798.167, 22430.58
5800.095, 22373.77
5802.023, 22146.10
5803.952, 22118.86
5805.881, 22172.44
5807.809, 22201.12
5809.737, 22104.70
5811.666, 22167.46
5813.595, 22092.95
5815.523, 21992.43
5817.451, 22057.73
5819.380, 21977.38
5821.309, 21935.65
5823.237, 21967.58
5825.165, 22035.61
5827.094, 22003.60
5829.022, 21930.41
5830.951, 21931.45
5832.879, 21939.21
5834.808, 21779.03
5836.736, 21845.80
5838.665, 21810.05
5840.593, 21711.40
5842.521, 21662.84
5844.450, 21514.70
5846.378, 21574.71
5848.307, 21654.18
5850.235, 21623.05
5852.164, 21499.46
5854.092, 21490.43
5856.021, 21464.01
5857.949, 21410.59
5859.878, 21388.90
5861.806, 21362.86
5863.734, 21255.32
5865.663, 21228.62
5867.592, 21346.65
5869.520, 21310.85
5871.448, 21265.92
5873.377, 21205.78
5875.306, 21152.49
5877.234, 21163.97
5879.162, 21175.76
5881.091, 21022.09
5883.020, 20900.73
5884.948, 20978.64
5886.876, 21106.44
5888.805, 20954.26
5890.733, 20876.26
5892.662, 20897.80
5894.590, 20768.30
5896.519, 20763.89
5898.447, 20796.47
5900.375, 20771.85
5902.304, 20662.39
5904.232, 20574.38
5906.161, 20704.36
5908.089, 20668.11
5910.018, 20522.10
5911.946, 20604.00
5913.875, 20456.98
5915.803, 20427.59
5917.731, 20459.69
5919.660, 20451.78
5921.589, 20397.92
5923.517, 20420.02
5925.445, 20325.99
5927.374, 20224.41
5929.303, 20313.28
5931.231, 20123.21
5933.159, 20175.01
5935.088, 20157.87
5937.017, 19974.73
5938.945, 20003.21
5940.873, 20078.22
5942.802, 19996.99
5944.730, 19888.55
5946.659, 19893.94
5948.587, 19766.77
5950.516, 19729.05
5952.444, 19681.35
5954.373, 19634.85
5956.301, 19701.95
5958.229, 19608.35
5960.158, 19598.22
5962.086, 19554.16
5964.015, 19451.50
5965.943, 19526.40
5967.872, 19427.56
5969.800, 19332.40
5971.729, 19250.31
5973.657, 19172.91
5975.586, 19291.07
5977.514, 19187.65
5979.442, 19156.39
5981.371, 19179.71
5983.300, 19081.95
5985.228, 19007.38
5987.156, 18975.85
5989.085, 18962.41
5991.014, 18969.78
5992.942, 19022.35
5994.870, 18964.82
5996.799, 18871.11
5998.728, 18801.03
6000.656, 18783.21
6002.584, 18815.69
6004.513, 18733.04
6006.441, 18656.63
6008.370, 18618.38
6010.298, 18613.94
6012.227, 18642.82
6014.155, 18596.03
6016.083, 18601.10
6018.012, 18610.77
6019.940, 18548.61
6021.869, 18470.55
6023.797, 18279.92
6025.726, 18267.98
6027.654, 18344.55
6029.583, 18306.57
6031.511, 18265.65
6033.439, 18276.17
6035.368, 18226.45
6037.297, 18160.87
6039.225, 18173.56
6041.153, 18088.75
6043.082, 18112.56
6045.011, 18100.31
6046.939, 18049.16
6048.867, 18059.85
6050.796, 18060.09
6052.725, 18009.28
6054.653, 17939.11
6056.581, 17855.65
6058.510, 17761.08
6060.438, 17907.57
6062.367, 17963.41
6064.295, 17912.60
6066.224, 17829.80
6068.152, 17788.06
6070.081, 17731.07
6072.009, 17686.72
6073.938, 17613.68
6075.866, 17566.92
6077.794, 17617.23
6079.723, 17464.41
6081.651, 17403.01
6083.580, 17413.41
6085.508, 17434.92
6087.437, 17437.28
6089.365, 17516.23
6091.294, 17456.59
6093.222, 17339.91
6095.150, 17272.74
6097.079, 17296.03
6099.008, 17277.36
6100.936, 17299.56
6102.864, 17351.52
6104.793, 17311.00
6106.722, 17150.64
6108.650, 17210.59
6110.578, 17227.44
6112.507, 17196.97
6114.436, 17144.74
6116.364, 17099.98
6118.292, 17107.84
6120.221, 17111.61
6122.149, 17019.93
6124.078, 16969.10
6126.006, 16981.00
6127.935, 16867.98
6129.863, 16832.51
6131.792, 16888.17
6133.720, 16879.79
6135.648, 16798.89
6137.577, 16767.77
6139.505, 16714.88
6141.434, 16730.06
6143.362, 16720.28
6145.291, 16688.31
6147.219, 16671.09
6149.147, 16559.44
6151.076, 16515.30
6153.005, 16518.89
6154.933, 16564.93
6156.861, 16599.82
6158.790, 16456.18
6160.719, 16395.97
6162.647, 16376.02
6164.575, 16344.77
6166.504, 16282.88
6168.433, 16213.48
6170.361, 16332.34
6172.289, 16344.74
6174.218, 16211.49
6176.146, 16106.64
6178.075, 16174.37
6180.003, 16167.37
6181.932, 16081.95
6183.860, 16120.64
6185.789, 16149.30
6187.717, 16068.00
6189.646, 15974.51
6191.574, 15987.07
6193.502, 15988.06
6195.431, 16035.46
6197.359, 16046.08
6199.288, 15901.85
6201.216, 15893.12
6203.145, 15890.52
6205.073, 15801.67
6207.002, 15755.93
6208.930, 15776.33
6210.858, 15631.04
6212.787, 15593.71
6214.716, 15513.51
6216.644, 15481.84
6218.572, 15504.50
6220.501, 15517.04
6222.430, 15440.27
6224.358, 15498.22
6226.286, 15511.06
6228.215, 15488.08
6230.144, 15449.13
6232.072, 15368.09
6234.000, 15361.13
6235.929, 15356.08
6237.857, 15323.50
6239.786, 15271.74
6241.714, 15239.83
6243.643, 15292.44
6245.571, 15201.62
6247.500, 15210.20
6249.428, 15193.73
6251.356, 15120.76
6253.285, 15075.95
6255.213, 15146.51
6257.142, 15018.50
6259.070, 14969.57
6260.999, 14945.90
6262.927, 14924.64
6264.855, 14978.18
6266.784, 15038.85
6268.713, 14921.07
6270.641, 14855.32
6272.569, 14846.48
6274.498, 14834.17
6276.427, 14810.00
6278.355, 14857.93
6280.283, 14804.41
6282.212, 14750.80
6284.141, 14771.22
6286.069, 14836.38
6287.997, 14829.05
6289.926, 14758.18
6291.854, 14706.64
6293.783, 14633.95
6295.711, 14660.19
6297.640, 14776.29
6299.568, 14649.74
6301.497, 14651.91
6303.425, 14711.58
6305.354, 14685.30
6307.282, 14631.14
6309.210, 14620.46
6311.139, 14593.28
6313.067, 14669.02
6314.996, 14574.77
6316.924, 14548.74
6318.853, 14541.55
6320.781, 14473.92
6322.710, 14473.87
6324.638, 14493.63
6326.566, 14352.13
6328.495, 14278.02
6330.424, 14299.13
6332.352, 14335.78
6334.280, 14335.84
6336.209, 14348.14
6338.138, 14289.88
6340.066, 14337.34
6341.994, 14318.14
6343.923, 14202.29
6345.852, 14218.75
6347.780, 14192.15
6349.708, 14165.92
6351.637, 14192.00
6353.565, 14169.79
6355.494, 14100.60
6357.422, 14072.18
6359.351, 14016.78
6361.279, 14055.08
6363.208, 13949.14
6365.136, 13967.13
6367.064, 13988.33
6368.993, 13834.56
6370.921, 13834.55
6372.850, 13824.99
6374.778, 13797.63
6376.707, 13707.19
6378.635, 13709.33
6380.563, 13795.21
6382.492, 13696.00
6384.421, 13616.36
6386.349, 13595.07
6388.277, 13562.94
6390.206, 13557.09
6392.135, 13556.56
6394.063, 13508.80
6395.991, 13505.81
6397.920, 13511.95
6399.849, 13471.07
6401.777, 13470.03
6403.705, 13464.76
6405.634, 13410.81
6407.563, 13364.02
6409.491, 13301.53
6411.419, 13334.62
6413.348, 13234.00
6415.276, 13186.96
6417.205, 13199.52
6419.133, 13137.32
6421.062, 13104.24
6422.990, 13085.67
6424.918, 13137.93
6426.847, 13089.45
6428.775, 12999.36
6430.704, 12945.47
6432.632, 12911.59
6434.561, 12952.30
6436.489, 12835.63
6438.418, 12859.80
6440.346, 12914.51
6442.274, 12897.97
6444.203, 12855.30
6446.132, 12895.36
6448.060, 12822.25
6449.988, 12818.82
6451.917, 12779.78
6453.846, 12708.37
6455.774, 12683.09
6457.702, 12716.95
6459.631, 12685.45
6461.560, 12492.48
6463.488, 12520.81
6465.416, 12566.39
6467.345, 12556.08
6469.273, 12522.84
6471.202, 12491.97
6473.130, 12425.88
6475.059, 12432.89
6476.987, 12359.58
6478.916, 12342.82
6480.844, 12393.63
6482.772, 12395.32
6484.701, 12340.74
6486.629, 12423.19
6488.558, 12408.48
6490.486, 12366.79
6492.415, 12316.95
6494.343, 12283.15
6496.271, 12251.45
6498.200, 12231.03
6500.129, 12269.54
6502.057, 12080.82
6503.985, 12143.73
6505.914, 12159.77
6507.843, 12161.44
6509.771, 12109.47
6511.699, 12036.73
6513.628, 12083.56
6515.557, 12057.08
6517.485, 11899.08
6519.413, 11876.88
6521.342, 11883.15
6523.271, 11882.87
6525.199, 11876.67
6527.127, 11845.73
6529.056, 11795.74
6530.984, 11736.98
6532.913, 11753.42
6534.841, 11712.77
6536.770, 11675.32
6538.698, 11651.54
6540.626, 11645.09
6542.555, 11723.61
6544.483, 11702.67
6546.412, 11660.81
6548.340, 11590.56
6550.269, 11626.63
6552.197, 11611.23
6554.126, 11524.36
6556.054, 11511.81
6557.982, 11536.26
6559.911, 11424.22
6561.840, 11459.21
6563.768, 11504.08
6565.696, 11450.27
6567.625, 11438.85
6569.554, 11464.02
6571.482, 11369.06
6573.410, 11426.54
6575.339, 11379.85
6577.268, 11390.38
6579.196, 11356.14
6581.124, 11338.37
6583.053, 11306.15
6584.981, 11254.60
6586.910, 11289.37
6588.838, 11302.84
6590.767, 11301.83
6592.695, 11291.40
6594.624, 11209.05
6596.552, 11185.89
6598.480, 11206.00
6600.409, 11177.11
6602.337, 11117.12
6604.266, 11128.86
6606.194, 11196.88
6608.123, 11137.56
6610.051, 11157.34
6611.979, 11127.80
6613.908, 11073.21
6615.837, 11094.24
6617.765, 11153.65
6619.693, 11033.92
6621.622, 10927.77
6623.551, 11042.75
6625.479, 11064.09
6627.407, 11017.33
6629.336, 11023.41
##END=



