##NAMES=Hornesite
##RRUFFID=R070336
##IDEAL CHEMISTRY=Mg_3_(AsO_4_)_2_·8H_2_O
##LOCALITY=Ayers, Val d' Anniviers, Wallis, Switzerland
##OWNER=RRUFF
##SOURCE=Michael Scott
##DESCRIPTION=Radiating aggregates of white fibrous crystals
##STATUS=The identification of this mineral is not yet confirmed
##URL=https://www.rruff.net/odr/rruff_sample/R070336
##FILETYPE=Raman RAW
##RAMAN WAVELENGTH=785

198.6340, 919.3679
200.5625, 910.2184
202.4910, 913.6243
204.4194, 919.5267
206.3479, 927.5518
208.2764, 934.0724
210.2048, 931.7406
212.1333, 923.0069
214.0618, 923.0735
215.9902, 935.7792
217.9187, 945.3835
219.8472, 947.8457
221.7756, 945.9500
223.7041, 936.0272
225.6326, 924.2846
227.5610, 925.8468
229.4895, 939.2429
231.4180, 945.1417
233.3464, 936.6393
235.2749, 930.0713
237.2034, 931.4789
239.1318, 934.5922
241.0603, 933.7367
242.9888, 931.1296
244.9172, 933.8627
246.8457, 942.3898
248.7742, 947.8676
250.7026, 948.5132
252.6311, 945.9893
254.5596, 936.4657
256.4880, 927.6497
258.4165, 927.8882
260.3450, 935.0248
262.2734, 941.7820
264.2019, 947.9124
266.1304, 954.3882
268.0588, 964.5132
269.9873, 970.8325
271.9158, 968.9290
273.8442, 963.8871
275.7727, 959.6202
277.7012, 956.8271
279.6296, 957.4231
281.5581, 961.2283
283.4866, 970.0322
285.4150, 989.7563
287.3435, 1007.540
289.2720, 1018.319
291.2004, 1026.302
293.1289, 1032.729
295.0574, 1040.297
296.9858, 1058.802
298.9143, 1090.746
300.8428, 1120.563
302.7712, 1136.438
304.6997, 1161.923
306.6282, 1209.840
308.5566, 1264.703
310.4851, 1317.661
312.4136, 1364.834
314.3420, 1395.461
316.2705, 1408.133
318.1990, 1415.319
320.1274, 1414.404
322.0559, 1414.578
323.9844, 1415.200
325.9128, 1419.965
327.8413, 1431.997
329.7697, 1450.295
331.6982, 1474.192
333.6267, 1503.541
335.5551, 1527.935
337.4836, 1537.703
339.4121, 1559.147
341.3405, 1608.305
343.2690, 1656.165
345.1975, 1685.099
347.1259, 1704.493
349.0544, 1729.112
350.9829, 1756.609
352.9113, 1776.579
354.8398, 1794.450
356.7683, 1783.632
358.6967, 1725.175
360.6252, 1660.467
362.5537, 1596.732
364.4821, 1537.018
366.4106, 1483.849
368.3391, 1437.206
370.2675, 1399.339
372.1960, 1371.003
374.1245, 1340.337
376.0529, 1300.921
377.9814, 1268.094
379.9099, 1248.690
381.8383, 1230.489
383.7668, 1203.012
385.6953, 1176.281
387.6237, 1160.896
389.5522, 1156.030
391.4807, 1161.092
393.4091, 1180.336
395.3376, 1191.783
397.2661, 1181.648
399.1945, 1181.497
401.1230, 1198.130
403.0515, 1225.992
404.9799, 1269.868
406.9084, 1317.646
408.8369, 1352.574
410.7654, 1376.130
412.6938, 1403.182
414.6223, 1449.223
416.5508, 1454.911
418.4792, 1393.400
420.4077, 1330.357
422.3362, 1275.273
424.2646, 1230.506
426.1931, 1197.799
428.1216, 1176.850
430.0500, 1170.710
431.9785, 1177.430
433.9070, 1179.557
435.8354, 1173.129
437.7639, 1171.584
439.6924, 1183.340
441.6208, 1187.657
443.5493, 1177.307
445.4778, 1161.530
447.4062, 1144.739
449.3347, 1126.383
451.2632, 1106.800
453.1916, 1085.283
455.1201, 1057.105
457.0486, 1018.475
458.9770, 986.2150
460.9055, 962.3927
462.8340, 941.3291
464.7624, 923.3875
466.6909, 906.7433
468.6194, 887.8442
470.5478, 872.6405
472.4763, 866.2863
474.4048, 867.0870
476.3332, 871.5823
478.2617, 880.1378
480.1902, 888.3845
482.1186, 894.5477
484.0471, 903.7522
485.9756, 915.6836
487.9040, 931.2021
489.8325, 961.6208
491.7610, 982.3293
493.6894, 975.3885
495.6179, 951.2054
497.5464, 915.1033
499.4748, 870.9637
501.4033, 834.6446
503.3318, 806.4875
505.2602, 785.5270
507.1887, 775.3189
509.1172, 763.4590
511.0456, 745.4518
512.9741, 731.5447
514.9026, 727.0206
516.8311, 725.7440
518.7595, 725.9654
520.6880, 725.2045
522.6165, 719.3054
524.5449, 709.7772
526.4734, 701.8946
528.4019, 694.7536
530.3303, 697.6155
532.2588, 717.5034
534.1873, 725.3271
536.1157, 711.4367
538.0442, 699.3504
539.9727, 696.7787
541.9011, 698.5100
543.8296, 703.8030
545.7581, 709.5770
547.6865, 713.5577
549.6150, 715.4824
551.5435, 713.4810
553.4719, 707.6129
555.4004, 706.7127
557.3289, 712.7348
559.2573, 714.9067
561.1858, 711.2033
563.1143, 708.3929
565.0427, 708.6609
566.9712, 708.9619
568.8997, 708.4703
570.8281, 706.7848
572.7566, 701.8359
574.6851, 696.9672
576.6135, 698.5834
578.5419, 703.6700
580.4704, 699.9319
582.3989, 686.9164
584.3273, 684.4048
586.2558, 694.4094
588.1843, 701.1152
590.1127, 701.8953
592.0412, 703.2198
593.9697, 706.4278
595.8981, 711.0715
597.8266, 719.4177
599.7551, 726.0872
601.6835, 727.7552
603.6120, 726.1857
605.5405, 719.4833
607.4689, 712.4848
609.3974, 718.2961
611.3259, 736.0015
613.2543, 756.1586
615.1828, 779.6027
617.1113, 792.0313
619.0397, 791.7374
620.9682, 784.1014
622.8967, 767.1996
624.8251, 750.9058
626.7536, 738.5807
628.6821, 727.6577
630.6105, 718.2234
632.5390, 708.2601
634.4675, 693.0829
636.3959, 679.0478
638.3244, 675.7951
640.2529, 679.9529
642.1813, 683.4338
644.1098, 686.1699
646.0383, 688.2906
647.9667, 689.8503
649.8952, 686.7527
651.8237, 677.5426
653.7521, 672.4688
655.6806, 673.6453
657.6091, 678.0304
659.5375, 682.3236
661.4660, 693.9557
663.3945, 721.5663
665.3229, 749.2269
667.2514, 771.4346
669.1799, 786.0679
671.1083, 792.6967
673.0368, 789.3878
674.9653, 766.3579
676.8937, 732.0620
678.8222, 713.8850
680.7507, 709.0618
682.6791, 699.6707
684.6076, 685.6035
686.5361, 684.4641
688.4645, 700.1102
690.3930, 708.8912
692.3215, 702.8888
694.2499, 702.6658
696.1784, 719.8300
698.1069, 731.9135
700.0353, 725.2286
701.9638, 722.3173
703.8923, 736.2568
705.8207, 754.2151
707.7492, 768.1000
709.6777, 779.8730
711.6061, 794.5020
713.5346, 806.8467
715.4631, 804.0663
717.3915, 792.6083
719.3200, 792.2457
721.2485, 800.0634
723.1769, 802.2567
725.1054, 798.6157
727.0339, 795.0563
728.9623, 792.5097
730.8908, 784.5033
732.8193, 767.2750
734.7477, 755.4726
736.6762, 754.1181
738.6047, 753.4164
740.5331, 751.4636
742.4616, 749.7659
744.3901, 746.2487
746.3185, 746.4536
748.2470, 755.4923
750.1755, 766.2086
752.1039, 773.3234
754.0324, 779.9971
755.9609, 787.6097
757.8893, 798.0637
759.8178, 815.4474
761.7463, 836.7607
763.6747, 859.7665
765.6032, 880.9279
767.5317, 887.5016
769.4601, 882.8315
771.3886, 886.9988
773.3171, 900.0358
775.2455, 903.4562
777.1740, 894.5694
779.1025, 892.2974
781.0309, 898.6257
782.9594, 909.8777
784.8879, 924.5839
786.8163, 946.8535
788.7448, 979.8312
790.6733, 1015.374
792.6017, 1054.536
794.5302, 1092.331
796.4587, 1124.164
798.3871, 1159.043
800.3156, 1198.367
802.2441, 1244.960
804.1725, 1292.576
806.1010, 1357.444
808.0295, 1460.031
809.9579, 1575.990
811.8864, 1690.722
813.8149, 1799.455
815.7433, 1901.934
817.6718, 1991.432
819.6003, 2051.861
821.5287, 2096.254
823.4572, 2140.441
825.3857, 2192.969
827.3141, 2286.456
829.2426, 2412.067
831.1711, 2521.844
833.0995, 2615.426
835.0280, 2696.346
836.9565, 2764.002
838.8849, 2826.188
840.8134, 2887.014
842.7419, 2921.188
844.6703, 2924.827
846.5988, 2913.123
848.5273, 2890.897
850.4557, 2840.857
852.3842, 2737.019
854.3127, 2660.918
856.2411, 2624.676
858.1696, 2600.197
860.0981, 2581.138
862.0266, 2580.410
863.9550, 2611.329
865.8835, 2640.876
867.8120, 2684.602
869.7404, 2678.165
871.6689, 2596.117
873.5974, 2465.335
875.5258, 2271.151
877.4543, 2074.660
879.3828, 1895.964
881.3112, 1738.047
883.2397, 1605.599
885.1682, 1490.272
887.0966, 1383.137
889.0251, 1296.299
890.9536, 1244.023
892.8820, 1209.053
894.8105, 1179.502
896.7390, 1160.325
898.6674, 1166.022
900.5959, 1173.906
902.5244, 1162.516
904.4528, 1138.876
906.3813, 1109.914
908.3098, 1074.869
910.2382, 1032.435
912.1667, 983.2368
914.0952, 923.7424
916.0236, 861.2131
917.9521, 807.3589
919.8806, 761.1633
921.8090, 719.7791
923.7375, 684.8570
925.6660, 662.1472
927.5944, 648.0002
929.5229, 633.9731
931.4514, 619.7714
933.3798, 601.7380
935.3083, 583.3266
937.2368, 579.6112
939.1652, 586.0768
941.0937, 583.1740
943.0222, 573.5908
944.9506, 571.6837
946.8791, 574.9044
948.8076, 567.2653
950.7360, 551.5789
952.6645, 546.5644
954.5930, 550.4839
956.5214, 551.8526
958.4499, 550.7021
960.3784, 546.3384
962.3068, 539.4846
964.2353, 536.8937
966.1638, 538.1106
968.0922, 538.6542
970.0207, 538.6470
971.9492, 539.5507
973.8776, 541.0214
975.8061, 538.5231
977.7346, 532.9149
979.6630, 531.9737
981.5915, 535.4801
983.5200, 541.8663
985.4484, 550.4369
987.3769, 553.4140
989.3054, 552.8918
991.2338, 564.2112
993.1623, 587.7350
995.0908, 613.1301
997.0192, 648.5178
998.9477, 737.0566
1000.876, 884.9119
1002.805, 1175.380
1004.733, 1557.921
1006.662, 1772.528
1008.590, 1813.216
1010.518, 1631.975
1012.447, 1283.628
1014.375, 999.4405
1016.304, 786.2836
1018.232, 662.6780
1020.161, 611.4012
1022.089, 572.1083
1024.018, 543.4926
1025.946, 527.2527
1027.875, 520.7497
1029.803, 518.0703
1031.732, 517.1651
1033.660, 511.5685
1035.589, 503.4468
1037.517, 497.4668
1039.446, 494.1135
1041.374, 495.6923
1043.302, 499.9363
1045.231, 504.8338
1047.159, 507.0016
1049.088, 494.0263
1051.016, 478.4667
1052.945, 487.1674
1054.873, 502.7779
1056.802, 496.9980
1058.730, 483.4129
1060.659, 479.3264
1062.587, 479.4485
1064.516, 477.3401
1066.444, 475.8859
1068.373, 478.9613
1070.301, 483.3902
1072.229, 487.9447
1074.158, 490.0971
1076.086, 486.4966
1078.015, 481.0910
1079.943, 474.0384
1081.872, 470.2398
1083.800, 475.9756
1085.729, 481.5930
1087.657, 480.4866
1089.586, 479.3438
1091.514, 482.6506
1093.443, 484.7205
1095.371, 481.2910
1097.299, 479.4579
1099.228, 482.5936
1101.156, 485.9638
1103.085, 488.6912
1105.013, 490.9289
1106.942, 492.3670
1108.870, 493.9997
1110.799, 495.4585
1112.727, 498.0728
1114.656, 503.0381
1116.584, 506.4806
1118.513, 506.3305
1120.441, 509.7748
1122.370, 516.2771
1124.298, 528.6151
1126.226, 546.9364
1128.155, 570.2858
1130.083, 598.7517
1132.012, 637.0161
1133.940, 682.1458
1135.869, 699.8250
1137.797, 691.2094
1139.726, 651.3688
1141.654, 594.6315
1143.583, 566.3975
1145.511, 553.5920
1147.440, 529.4584
1149.368, 501.8828
1151.297, 478.2924
1153.225, 463.0085
1155.153, 467.7982
1157.082, 474.8224
1159.010, 468.1266
1160.939, 459.4569
1162.867, 455.1287
1164.796, 452.6738
1166.724, 451.4523
1168.653, 450.4253
1170.581, 448.2338
1172.510, 449.1154
1174.438, 456.3406
1176.367, 459.5915
1178.295, 455.0737
1180.224, 453.2783
1182.152, 457.1054
1184.080, 454.6530
1186.009, 443.6943
1187.937, 438.0437
1189.866, 438.5623
1191.794, 442.4762
1193.723, 449.0684
1195.651, 451.4188
1197.580, 450.2268
1199.508, 447.6627
1201.437, 444.3473
1203.365, 440.5604
1205.294, 438.1398
1207.222, 441.9655
1209.151, 446.6299
1211.079, 446.9019
1213.007, 444.1129
1214.936, 433.8268
1216.864, 428.9631
1218.793, 442.4511
1220.721, 452.3759
1222.650, 450.5603
1224.578, 447.3995
1226.507, 445.1053
1228.435, 442.5360
1230.364, 439.1960
1232.292, 438.9657
1234.221, 442.3400
1236.149, 440.5588
1238.078, 434.0345
1240.006, 434.3334
1241.934, 440.1870
1243.863, 444.6061
1245.791, 447.1155
1247.720, 445.1860
1249.648, 441.9902
1251.577, 443.3722
1253.505, 445.1924
1255.434, 442.6915
1257.362, 439.3689
1259.291, 435.7797
1261.219, 435.2369
1263.148, 440.4858
1265.076, 447.1327
1267.005, 457.5505
1268.933, 459.7643
1270.861, 450.4616
1272.790, 441.7202
1274.718, 434.5278
1276.647, 433.6745
1278.575, 438.2216
1280.504, 440.2305
1282.432, 439.8447
1284.361, 438.1619
1286.289, 435.2884
1288.218, 429.5707
1290.146, 424.8487
1292.075, 425.8719
1294.003, 428.8992
1295.932, 432.0689
1297.860, 434.9851
1299.788, 439.4659
1301.717, 439.9139
1303.645, 428.1545
1305.574, 428.0097
1307.502, 445.8783
1309.431, 451.7253
1311.359, 444.5209
1313.288, 438.1680
1315.216, 433.2001
1317.145, 431.6020
1319.073, 431.5384
1321.002, 427.5641
1322.930, 424.8683
1324.859, 432.7093
1326.787, 438.8989
1328.715, 432.3482
1330.644, 426.1815
1332.572, 426.9994
1334.501, 426.7853
1336.429, 422.2268
1338.358, 420.3583
1340.286, 421.7224
1342.215, 424.7971
1344.143, 429.4527
1346.072, 435.9346
1348.000, 440.4093
1349.929, 425.3631
1351.857, 406.0409
1353.786, 403.7739
1355.714, 408.2792
1357.642, 415.5885
1359.571, 420.6411
1361.499, 419.7123
1363.428, 420.6348
1365.356, 427.8273
1367.285, 426.3100
1369.213, 411.8233
1371.142, 407.7498
1373.070, 412.6030
1374.999, 411.5736
1376.927, 407.5535
1378.856, 406.3823
1380.784, 408.2892
1382.713, 416.7474
1384.641, 423.5172
1386.569, 424.4148
1388.498, 420.9048
1390.426, 411.3353
1392.355, 407.7076
1394.283, 413.4001
1396.212, 411.4789
1398.140, 401.5016
1400.069, 401.2794
1401.997, 407.0201
1403.926, 408.4562
1405.854, 406.4249
1407.783, 399.9655
1409.711, 393.6447
1411.640, 389.2624
1413.568, 388.7703
1415.496, 393.5158
1417.425, 399.9668
1419.353, 407.8693
1421.282, 409.1163
1423.210, 403.8387
1425.139, 399.1006
1427.067, 395.7513
1428.996, 396.9323
1430.924, 399.1492
1432.853, 397.2424
1434.781, 396.1395
1436.710, 401.7257
1438.638, 402.8198
1440.567, 396.2972
1442.495, 388.6999
1444.423, 380.9702
1446.352, 378.9465
1448.280, 381.0860
1450.209, 378.4617
1452.137, 375.8937
1454.066, 384.7789
1455.994, 392.3359
1457.923, 384.2880
1459.851, 379.1098
1461.780, 385.5196
1463.708, 388.7845
1465.637, 387.1697
1467.565, 383.1571
1469.494, 378.0357
1471.422, 377.9379
1473.350, 380.6678
1475.279, 384.0188
1477.207, 385.4270
1479.136, 381.2978
1481.064, 377.0008
1482.993, 374.1835
1484.921, 372.6446
1486.850, 372.0791
1488.778, 377.3633
1490.707, 386.2752
1492.635, 383.5339
1494.564, 376.4919
1496.492, 376.6866
1498.421, 379.8488
1500.349, 386.3309
1502.277, 387.9934
1504.206, 378.3268
1506.134, 371.6583
1508.063, 369.1199
1509.991, 366.7638
1511.920, 365.2575
1513.848, 368.7642
1515.777, 373.8684
1517.705, 378.5068
1519.634, 379.2717
1521.562, 372.0000
1523.491, 365.1543
1525.419, 359.4878
1527.348, 359.6849
1529.276, 365.4584
1531.204, 367.4613
1533.133, 367.2755
1535.061, 367.3007
1536.990, 368.7783
1538.918, 374.7541
1540.847, 377.3071
1542.775, 372.6364
1544.704, 367.4928
1546.632, 362.6319
1548.561, 358.1376
1550.489, 353.8874
1552.418, 348.9721
1554.346, 344.6826
1556.275, 343.0754
1558.203, 340.7290
1560.131, 334.6553
1562.060, 335.4028
1563.988, 345.9178
1565.917, 347.2749
1567.845, 342.2228
1569.774, 344.8800
1571.702, 348.0124
1573.631, 340.8413
1575.559, 333.1622
1577.488, 327.5685
1579.416, 328.4583
1581.345, 336.8823
1583.273, 345.7601
1585.202, 352.4573
1587.130, 344.8094
1589.058, 334.0402
1590.987, 334.6334
1592.915, 336.5356
1594.844, 335.7695
1596.772, 336.1706
1598.701, 338.3259
1600.629, 340.6497
1602.558, 341.3468
1604.486, 330.6376
1606.415, 321.6428
1608.343, 331.9862
1610.272, 342.4065
1612.200, 347.5205
1614.129, 346.6089
1616.057, 340.5447
1617.985, 342.7361
1619.914, 347.7451
1621.842, 340.9005
1623.771, 333.9044
1625.699, 337.7912
1627.628, 341.2283
1629.556, 341.9995
1631.485, 340.2375
1633.413, 336.7567
1635.342, 336.4526
1637.270, 336.3716
1639.199, 330.7213
1641.127, 326.4516
1643.056, 327.9581
1644.984, 330.7597
1646.912, 334.4543
1648.841, 336.1278
1650.769, 335.8860
1652.698, 333.4065
1654.626, 331.0728
1656.555, 332.6869
1658.483, 331.1386
1660.412, 321.9576
1662.340, 321.1993
1664.269, 326.8979
1666.197, 323.5531
1668.126, 316.4063
1670.054, 309.1563
1671.983, 306.3512
1673.911, 315.0616
1675.839, 315.7429
1677.768, 306.9856
1679.696, 306.2997
1681.625, 309.1529
1683.553, 306.1251
1685.482, 303.6090
1687.410, 306.7834
1689.339, 307.1339
1691.267, 302.0399
1693.196, 304.6849
1695.124, 310.9564
1697.053, 307.2790
1698.981, 303.1193
1700.910, 306.0448
1702.838, 307.6194
1704.766, 305.6956
1706.695, 299.6002
1708.623, 292.0551
1710.552, 294.7697
1712.480, 300.4643
1714.409, 304.3559
1716.337, 305.2034
1718.266, 302.0979
1720.194, 300.9476
1722.123, 300.9622
1724.051, 295.5370
1725.980, 291.0972
1727.908, 296.3921
1729.837, 296.8029
1731.765, 287.3239
1733.693, 284.5702
1735.622, 287.7727
1737.550, 290.3287
1739.479, 291.5571
1741.407, 290.4800
1743.336, 288.0787
1745.264, 284.2700
1747.193, 284.8636
1749.121, 288.9293
1751.050, 293.7082
1752.978, 295.7166
1754.907, 289.1787
1756.835, 284.0013
1758.764, 282.0036
1760.692, 279.9266
1762.620, 278.5389
1764.549, 282.0754
1766.477, 285.4439
1768.406, 283.4387
1770.334, 282.6206
1772.263, 283.8744
1774.191, 289.1525
1776.120, 292.8111
1778.048, 278.0839
1779.977, 265.8388
1781.905, 271.6112
1783.834, 276.0042
1785.762, 277.4467
1787.691, 279.7499
1789.619, 280.2831
1791.547, 270.9170
1793.476, 266.4600
1795.404, 275.5170
1797.333, 283.1129
1799.261, 286.5940
1801.190, 270.2981
1803.118, 254.5134
1805.047, 264.3543
1806.975, 268.1194
1808.904, 256.9469
1810.832, 252.9489
1812.761, 252.9133
1814.689, 244.5098
1816.618, 240.2542
1818.546, 252.3187
1820.474, 260.1770
1822.403, 262.0771
1824.331, 262.5691
1826.260, 262.9203
1828.188, 268.4229
1830.117, 265.9302
1832.045, 243.9297
1833.974, 239.0793
1835.902, 246.4355
1837.831, 244.7920
1839.759, 244.2982
1841.688, 254.3151
1843.616, 257.3753
1845.545, 250.7423
1847.473, 247.8047
1849.401, 247.0166
1851.330, 244.9216
1853.258, 248.8262
1855.187, 264.1167
1857.115, 260.3709
1859.044, 244.4149
1860.972, 240.9507
1862.901, 242.3085
1864.829, 244.8207
1866.758, 246.9488
1868.686, 247.8306
1870.615, 241.3031
1872.543, 234.3788
1874.472, 236.7997
1876.400, 238.1759
1878.328, 235.9403
1880.257, 235.1922
1882.185, 236.2869
1884.114, 241.5947
1886.042, 243.1347
1887.971, 237.1665
1889.899, 239.2963
1891.828, 246.3063
1893.756, 240.5791
1895.685, 233.5150
1897.613, 233.6026
1899.542, 233.4522
1901.470, 232.2887
1903.399, 228.8946
1905.327, 226.7801
1907.255, 233.9389
1909.184, 234.5774
1911.112, 225.6229
1913.041, 223.8058
1914.969, 225.2437
1916.898, 220.6984
1918.826, 217.2611
1920.755, 217.1045
1922.683, 216.8721
1924.612, 216.9025
1926.540, 218.4851
1928.469, 218.4449
1930.397, 213.1458
1932.326, 214.7854
1934.254, 220.1500
1936.182, 214.2682
1938.111, 207.3763
1940.039, 205.6287
1941.968, 210.9330
1943.896, 221.0101
1945.825, 212.0514
1947.753, 203.1509
1949.682, 216.9886
1951.610, 220.2252
1953.539, 210.4712
1955.467, 210.4983
1957.396, 212.5076
1959.324, 210.0637
1961.253, 208.1739
1963.181, 207.7688
1965.109, 211.9956
1967.038, 214.1788
1968.966, 205.5229
1970.895, 199.1553
1972.823, 197.9987
1974.752, 207.0682
1976.680, 214.3928
1978.609, 200.0220
1980.537, 191.7422
1982.466, 197.3696
1984.394, 206.1217
1986.323, 212.1102
1988.251, 200.4867
1990.180, 192.2791
1992.108, 192.9005
1994.036, 195.6054
1995.965, 197.4344
1997.893, 187.0906
1999.822, 182.9823
2001.750, 190.8624
2003.679, 191.6095
2005.607, 190.1915
2007.536, 194.5992
2009.464, 195.2645
2011.393, 192.6101
2013.321, 193.2461
2015.250, 193.5243
2017.178, 194.1189
2019.107, 187.7179
2021.035, 174.9629
2022.964, 178.7446
2024.892, 187.0860
2026.820, 186.6777
2028.749, 179.6145
2030.677, 170.2283
2032.606, 172.2585
2034.534, 178.0808
2036.463, 183.7517
2038.391, 181.5537
2040.320, 174.5726
2042.248, 172.6196
2044.177, 174.4309
2046.105, 178.8976
2048.034, 164.3812
2049.962, 172.2671
2051.891, 176.3941
2053.819, 176.9650
2055.748, 163.3269
2057.676, 168.0367
2059.604, 165.3936
2061.533, 162.4486
2063.461, 169.7407
2065.390, 158.1692
2067.318, 165.2988
2069.247, 166.1476
2071.175, 166.3958
2073.104, 168.3161
2075.032, 169.1622
2076.960, 164.9182
2078.889, 160.6417
2080.817, 159.1042
2082.746, 161.0642
2084.674, 165.1605
2086.603, 169.1053
2088.531, 164.7200
2090.460, 140.7693
2092.388, 138.9499
2094.317, 153.3653
2096.245, 151.7504
2098.174, 153.8277
2100.102, 167.1244
2102.031, 165.4198
2103.959, 157.6327
2105.887, 160.6362
2107.816, 163.5104
2109.744, 161.8077
2111.673, 158.5107
2113.601, 155.1420
2115.530, 154.4297
2117.458, 156.1820
2119.387, 159.2588
2121.315, 149.3056
2123.244, 142.7621
2125.172, 144.9608
2127.101, 145.8974
2129.029, 146.2911
2130.958, 147.2584
2132.886, 146.9310
2134.814, 142.8210
2136.743, 145.4014
2138.671, 150.2589
2140.600, 148.7586
2142.528, 145.8211
2144.457, 140.5859
2146.385, 141.9507
2148.314, 144.6047
2150.242, 142.4495
2152.171, 138.3887
2154.099, 134.0759
2156.028, 133.7652
2157.956, 136.0602
2159.885, 138.2092
2161.813, 139.4343
2163.741, 141.0437
2165.670, 140.8214
2167.598, 136.5178
2169.527, 132.3504
2171.455, 131.0833
2173.384, 134.2895
2175.312, 140.9755
2177.241, 141.5593
2179.169, 138.4984
2181.098, 133.8908
2183.026, 133.6731
2184.955, 133.0917
2186.883, 132.2781
2188.812, 132.2708
2190.740, 129.4160
2192.668, 133.9041
2194.597, 139.4415
2196.525, 139.2877
2198.454, 133.9441
2200.382, 126.9472
2202.311, 124.5518
2204.239, 126.1927
2206.168, 127.8358
2208.096, 125.6626
2210.025, 127.1556
2211.953, 132.2996
2213.882, 128.6575
2215.810, 123.0793
2217.739, 121.4864
2219.667, 120.2644
2221.595, 122.4348
2223.524, 124.0115
2225.452, 125.3491
2227.381, 128.1526
2229.309, 126.4378
2231.238, 121.2501
2233.166, 120.8082
2235.095, 121.2117
2237.023, 120.1278
2238.952, 117.4709
2240.880, 115.2169
2242.809, 116.9353
2244.737, 120.7989
2246.666, 123.8393
2248.594, 119.1766
2250.522, 113.7987
2252.451, 111.5104
2254.379, 111.2365
2256.308, 110.5855
2258.236, 109.5781
2260.165, 113.4588
2262.093, 116.0855
2264.022, 112.9340
2265.950, 107.0047
2267.879, 101.2419
2269.807, 108.0605
2271.736, 111.9379
2273.664, 108.5912
2275.593, 112.0203
2277.521, 114.0612
2279.449, 105.1335
2281.378, 104.2627
2283.306, 109.1861
2285.235, 110.9270
2287.163, 109.1507
2289.092, 105.0142
2291.020, 104.8174
2292.949, 106.2277
2294.877, 107.5982
2296.806, 107.5828
2298.734, 106.8299
2300.663, 106.1391
2302.591, 106.8435
2304.520, 107.1968
2306.448, 103.2517
2308.376, 100.4561
2310.305, 99.07837
2312.233, 101.8958
2314.162, 104.3149
2316.090, 103.1875
2318.019, 103.5785
2319.947, 105.9424
2321.876, 110.5351
2323.804, 110.5397
2325.733, 106.9695
2327.661, 100.1187
2329.590, 98.18254
2331.518, 100.1347
2333.447, 96.40983
2335.375, 96.49037
2337.303, 101.7245
2339.232, 96.78384
2341.160, 92.09253
2343.089, 93.13760
2345.017, 92.75995
2346.946, 90.31844
2348.874, 83.83504
2350.803, 87.42493
2352.731, 94.71333
2354.660, 87.13313
2356.588, 86.36716
2358.517, 92.68375
2360.445, 92.38550
2362.374, 87.65107
2364.302, 81.21829
2366.230, 83.48598
2368.159, 83.69052
2370.087, 76.35233
2372.016, 76.76757
2373.944, 79.99886
2375.873, 84.99717
2377.801, 81.98163
2379.730, 77.21751
2381.658, 82.87238
2383.587, 84.71603
2385.515, 83.24507
2387.444, 82.01494
2389.372, 82.14201
2391.301, 83.60768
2393.229, 78.85461
2395.157, 75.40217
2397.086, 78.34360
2399.014, 81.59184
2400.943, 82.14812
2402.871, 77.93726
2404.800, 77.24420
2406.728, 76.89355
2408.657, 75.07136
2410.585, 72.90929
2412.514, 71.89560
2414.442, 74.29447
2416.371, 74.00958
2418.299, 73.94524
2420.228, 76.71170
2422.156, 79.29794
2424.084, 81.64024
2426.013, 78.15067
2427.941, 74.96783
2429.870, 74.05416
2431.798, 73.20316
2433.727, 70.98620
2435.655, 67.77180
2437.584, 66.84337
2439.512, 68.64201
2441.441, 71.00576
2443.369, 69.08765
2445.298, 69.15747
2447.226, 74.03001
2449.155, 68.68022
2451.083, 63.53362
2453.011, 69.02581
2454.940, 69.51589
2456.868, 69.48915
2458.797, 71.20057
2460.725, 67.72397
2462.654, 63.78337
2464.582, 66.05673
2466.511, 67.32352
2468.439, 63.74994
2470.368, 63.63587
2472.296, 63.84613
2474.225, 61.53673
2476.153, 62.98273
2478.082, 62.11496
2480.010, 58.22222
2481.938, 57.98119
2483.867, 56.32060
2485.795, 57.56752
2487.724, 60.43568
2489.652, 61.92738
2491.581, 61.96218
2493.509, 62.24339
2495.438, 63.79390
2497.366, 61.51896
2499.295, 59.86207
2501.223, 58.92872
2503.152, 53.31974
2505.080, 55.81231
2507.009, 60.09894
2508.937, 59.34077
2510.865, 56.08236
2512.794, 58.41136
2514.722, 60.66702
2516.651, 58.85233
2518.579, 59.37579
2520.508, 57.02816
2522.436, 55.82397
2524.365, 57.63182
2526.293, 58.28358
2528.222, 56.57828
2530.150, 56.42165
2532.079, 62.31618
2534.007, 61.52197
2535.936, 59.07456
2537.864, 60.84533
2539.792, 58.90232
2541.721, 54.62473
2543.649, 53.56604
2545.578, 47.68853
2547.506, 42.66681
2549.435, 48.08593
2551.363, 52.25852
2553.292, 51.20309
2555.220, 49.41840
2557.149, 50.42063
2559.077, 51.77425
2561.006, 49.37790
2562.934, 50.05727
2564.863, 53.65237
2566.791, 50.41473
2568.719, 48.26636
2570.648, 50.93818
2572.576, 47.22732
2574.505, 46.35322
2576.433, 48.19884
2578.362, 46.24976
2580.290, 44.37517
2582.219, 44.32838
2584.147, 43.70655
2586.076, 43.01218
2588.004, 44.93408
2589.933, 45.83012
2591.861, 45.42665
2593.790, 46.35078
2595.718, 43.37006
2597.646, 41.12630
2599.575, 42.74048
2601.503, 43.31315
2603.432, 43.17419
2605.360, 46.85374
2607.289, 44.48756
2609.217, 39.92355
2611.146, 44.28658
2613.074, 44.24809
2615.003, 39.98870
2616.931, 41.65652
2618.860, 41.75126
2620.788, 42.56165
2622.717, 43.99862
2624.645, 37.46171
2626.573, 36.52917
2628.502, 42.95646
2630.430, 44.19246
2632.359, 42.06111
2634.287, 39.98781
2636.216, 40.69255
2638.144, 41.38849
2640.073, 39.42619
2642.001, 37.54548
2643.930, 39.67156
2645.858, 39.66452
2647.787, 39.16368
2649.715, 38.10368
2651.644, 35.92603
2653.572, 37.91077
2655.500, 37.55420
2657.429, 39.48938
2659.357, 37.84784
2661.286, 37.00269
2663.214, 35.33561
2665.143, 37.75148
2667.071, 39.20937
2669.000, 35.36477
2670.928, 31.29695
2672.857, 31.80402
2674.785, 33.58825
2676.714, 31.74503
2678.642, 30.55888
2680.571, 30.84876
2682.499, 33.14494
2684.427, 37.71845
2686.356, 34.27930
2688.284, 30.78622
2690.213, 30.86982
2692.141, 30.84785
2694.070, 28.14046
2695.998, 33.62045
2697.927, 35.98548
2699.855, 34.60592
2701.784, 37.55061
2703.712, 33.71067
2705.641, 26.16173
2707.569, 26.97254
2709.498, 31.10725
2711.426, 35.86708
2713.354, 35.24471
2715.283, 31.99942
2717.211, 32.01743
2719.140, 38.50758
2721.068, 36.76110
2722.997, 34.10835
2724.925, 32.26065
2726.854, 35.07828
2728.782, 33.52816
2730.711, 27.54627
2732.639, 30.96146
2734.568, 30.37446
2736.496, 29.22280
2738.425, 34.80591
2740.353, 36.66085
2742.281, 34.42076
2744.210, 29.37767
2746.138, 26.75349
2748.067, 27.34398
2749.995, 32.26873
2751.924, 34.75562
2753.852, 28.37702
2755.781, 21.12370
2757.709, 26.47275
2759.638, 24.95419
2761.566, 23.18942
2763.495, 26.53135
2765.423, 27.40954
2767.352, 27.24628
2769.280, 24.28712
2771.208, 22.92966
2773.137, 21.52024
2775.065, 21.32756
2776.994, 23.16206
2778.922, 22.51395
2780.851, 21.51223
2782.779, 20.52870
2784.708, 18.73842
2786.636, 19.89006
2788.565, 24.61849
2790.493, 25.65869
2792.422, 23.34364
2794.350, 19.79708
2796.279, 18.69993
2798.207, 19.31922
2800.135, 20.29471
2802.064, 21.46731
2803.992, 28.72901
2805.921, 31.19340
2807.849, 24.81122
2809.778, 24.93944
2811.706, 24.67875
2813.635, 22.98726
2815.563, 19.93631
2817.492, 19.75164
2819.420, 20.29870
2821.349, 19.27294
2823.277, 20.45794
2825.206, 21.36311
2827.134, 20.75817
2829.063, 23.44137
2830.991, 23.23253
2832.919, 21.27024
2834.848, 22.24574
2836.776, 21.45202
2838.705, 19.29727
2840.633, 16.73145
2842.562, 15.18964
2844.490, 17.03743
2846.419, 21.46841
2848.347, 18.86548
2850.276, 14.59479
2852.204, 14.42072
2854.133, 19.24578
2856.061, 18.53905
2857.990, 17.01243
2859.918, 15.16814
2861.846, 18.98152
2863.775, 18.10091
2865.703, 14.24792
2867.632, 14.43894
2869.560, 13.93416
2871.489, 11.03529
2873.417, 11.41146
2875.346, 16.42910
2877.274, 15.62114
2879.203, 15.06212
2881.131, 24.08421
2883.060, 19.78196
2884.988, 13.70079
2886.917, 13.15791
2888.845, 12.66817
2890.773, 15.31127
2892.702, 18.58638
2894.630, 13.67473
2896.559, 15.55079
2898.487, 14.97275
2900.416, 8.641910
2902.344, 13.56752
2904.273, 16.35392
2906.201, 15.35209
2908.130, 16.70546
2910.058, 16.23294
2911.987, 15.79699
2913.915, 14.23503
2915.844, 13.05517
2917.772, 18.46685
2919.700, 22.72725
2921.629, 10.36436
2923.557, 10.00066
2925.486, 13.36238
2927.414, 13.82840
2929.343, 14.82832
2931.271, 14.43158
2933.200, 10.93345
2935.128, 10.01000
2937.057, 13.10432
2938.985, 13.75464
2940.914, 12.41078
2942.842, 11.75114
2944.771, 15.91731
2946.699, 17.78191
2948.627, 13.74550
2950.556, 13.09756
2952.484, 12.91277
2954.413, 9.412808
2956.341, 10.57542
2958.270, 11.04678
2960.198, 9.386647
2962.127, 6.699694
2964.055, 8.035829
2965.984, 9.690994
2967.912, 9.370963
2969.841, 2.893338
2971.769, 10.35435
2973.698, 15.44362
2975.626, 12.89035
2977.554, 8.402224
2979.483, 6.039105
2981.411, 5.666516
2983.340, 7.588678
2985.268, 12.26444
2987.197, 10.85960
2989.125, 7.351165
2991.054, 10.76203
2992.982, 10.26735
2994.911, 10.81936
2996.839, 11.07554
2998.768, 8.871106
3000.696, 8.551406
3002.625, 8.125051
3004.553, 8.621331
3006.481, 5.803146
3008.410, 10.55501
3010.338, 12.65429
3012.267, 9.585912
3014.195, 2.915228
3016.124, 0.4124917
3018.052, 5.852154
3019.981, 11.62871
3021.909, 11.68808
3023.838, 9.091545
3025.766, 8.664992
3027.695, 5.102024
3029.623, 4.261510
3031.552, 6.461765
3033.480, 10.73447
3035.408, 10.64165
3037.337, 9.051629
3039.265, 7.205050
3041.194, 7.635325
3043.122, 10.25542
3045.051, 9.379398
3046.979, 8.932471
3048.908, 9.560250
3050.836, 9.532694
3052.765, 7.670812
3054.693, 7.696050
3056.622, 5.789464
3058.550, 6.375453
3060.479, 6.702077
3062.407, 1.774475
3064.335, 1.341128
3066.264, 3.666490
3068.192, 2.712223
3070.121, 0.8229623
3072.049, 0.5495598
3073.978, -0.9977618
3075.906, 0.5254459
3077.835, 8.482997
3079.763, 1.453548
3081.692, -3.7131871E-03
3083.620, 6.023885
3085.549, 9.570485
3087.477, -1.186860
3089.406, -2.568758
3091.334, 7.298740
3093.262, 2.160430
3095.191, 4.847540
3097.119, 7.131435
3099.048, 6.201897
3100.976, -0.3168127
3102.905, -1.165606
3104.833, 3.644335
3106.762, 8.210898
3108.690, 6.149533
3110.619, 1.348915
3112.547, -0.1614003
3114.476, 1.190592
3116.404, 0.1904510
3118.333, 5.634457
3120.261, 8.600914
3122.189, 7.492306
3124.118, 4.655784
3126.046, 2.428705
3127.975, 3.257598
3129.903, 5.585463
3131.832, 5.968310
3133.760, 2.050098
3135.689, 1.120471
3137.617, 5.356977
3139.546, 1.633487
3141.474, -5.368845
3143.403, -5.304943
3145.331, 7.514918
3147.260, 3.451598
3149.188, 0.1179491
3151.116, 1.211088
3153.045, 0.1721103
3154.973, 2.610636
3156.902, -0.1012728
3158.830, -3.873075
3160.759, 1.185046
3162.687, 3.281402
3164.616, 2.612467
3166.544, 3.454575
3168.473, 3.580900
3170.401, -2.198448
3172.330, 1.237341
3174.258, 4.489110
3176.187, 0.2587321
3178.115, -2.565408
3180.043, 1.966658
3181.972, 3.617363
3183.900, -1.225064
3185.829, -0.3380112
3187.757, -7.710079
3189.686, -4.991137
3191.614, 5.809897
3193.543, 2.309938
3195.471, 2.669929
3197.400, 1.869874
3199.328, 0.1445717
3201.257, 0.7258601
3203.185, 2.592135
3205.114, 4.327919
3207.042, 3.006271
3208.970, -2.388788
3210.899, 7.354132
3212.827, 5.873245
3214.756, 1.273598
3216.684, 3.173762
3218.613, 4.164432
3220.541, 3.947524
3222.470, 6.622413
3224.398, 9.578531
3226.327, -4.562027
3228.255, -3.703666
3230.184, 4.939713
3232.112, 10.53973
3234.041, 0.6225652
3235.969, -1.163029
3237.897, -1.296098
3239.826, -2.719690
3241.754, -5.716859
3243.683, -6.501229
3245.611, -8.139454
3247.540, -1.765458
3249.468, 13.65383
3251.397, 0.2472371
3253.325, -1.381085
3255.254, 1.211939
3257.182, 1.060191
3259.111, -2.664433
3261.039, -2.282540
3262.968, 2.376832
3264.896, 3.599142
3266.824, -6.857464
3268.753, -1.186089
3270.681, 0.6248837
3272.610, -2.729227
3274.538, -6.525084
3276.467, 0.6345847
3278.395, 2.989134
3280.324, 5.661388
3282.252, 6.787644
3284.181, 0.9197499
3286.109, 1.013643
3288.038, 0.6576481
3289.966, 2.715405
3291.895, 7.840368
3293.823, -3.544315
3295.751, -2.891298
3297.680, -2.591556
3299.608, -5.444742
3301.537, -1.444667
3303.465, -5.407736
3305.394, 3.556831
3307.322, 6.888466
3309.251, -9.237516
3311.179, 4.875997
3313.108, 3.302338
3315.036, -3.782145
3316.965, -7.157114
3318.893, -2.600085
3320.822, 3.983180
3322.750, 1.315681
3324.678, -2.499635
3326.607, -9.3690120E-02
3328.535, -2.592018
3330.464, -1.551304
3332.392, -4.538445
3334.321, -6.163484
3336.249, 4.055162
3338.178, -6.245336
3340.106, -3.685464
3342.035, 3.444041
3343.963, 5.279785
3345.892, 1.976637
3347.820, -0.4340142
3349.749, -0.4404576
3351.677, 3.294622
3353.605, 7.930634
3355.534, -3.191921
3357.462, 3.766310
3359.391, 5.474206
3361.319, -3.575041
3363.248, -9.623640
3365.176, -3.179471
3367.105, 2.734616
3369.033, 4.661046
3370.962, 3.066238
3372.890, 0.5724859
3374.819, -1.390790
3376.747, 0.5891637
3378.676, 2.661896
3380.604, 3.013408
3382.532, 8.520503
3384.461, -1.603016
3386.389, -4.196681
3388.318, -0.9860881
3390.246, -2.619087
3392.175, -2.356924
3394.103, -1.536015
3396.032, 2.444300
3397.960, 4.036451
3399.889, -4.068465
3401.817, 3.575226
3403.746, 0.5396445
3405.674, -1.064824
3407.603, -1.063278
3409.531, -9.120483
3411.459, -8.476323
3413.388, -5.160772
3415.316, -7.548982
3417.245, -11.02265
3419.173, 0.9578707
3421.102, 5.512725
3423.030, 1.118544
3424.959, -4.368999
3426.887, -3.781285
3428.816, 6.285553
3430.744, -7.037943
3432.673, -6.050780
3434.601, 4.139529
3436.530, 7.644860
3438.458, -9.398064
3440.386, -7.006093
3442.315, -2.614596
3444.243, -2.684682
3446.172, -3.654534
3448.100, 4.535413
3450.029, 0.5489108
3451.957, -4.743114
3453.886, -3.584352
3455.814, 1.192451
3457.743, -1.515685
3459.671, 6.366203
3461.600, -4.816038
3463.528, -8.932844
3465.457, -1.009275
3467.385, 1.907501
3469.313, -3.077365
3471.242, -3.678364
3473.170, -1.962695
3475.099, 6.9191098E-02
3477.027, 2.716704
3478.956, 10.24726
3480.884, 9.274383
3482.813, 6.097208
3484.741, 2.052641
3486.670, -2.303502
3488.598, 1.665337
3490.527, 7.592707
3492.455, 7.184053
3494.384, 6.173505
3496.312, 6.168834
3498.240, -2.183399
3500.169, -7.465976
3502.097, -4.874089
3504.026, -2.351234
3505.954, -0.4674256
3507.883, 5.557064
3509.811, 1.425123
3511.740, 2.587911
3513.668, 6.436615
3515.597, 5.896312
3517.525, 1.122572
3519.454, 15.12954
3521.382, 8.525796
3523.311, 13.30300
3525.239, 16.50244
3527.167, 9.840003
3529.096, 8.477270
3531.024, 11.24771
3532.953, -2.364055
3534.881, 0.3335757
3536.810, 11.55143
3538.738, 8.089806
3540.667, 8.531477
3542.595, 12.31805
3544.524, 14.56143
3546.452, 12.55603
3548.381, 7.973081
3550.309, 6.085744
3552.238, 6.718767
3554.166, 11.92971
3556.094, 16.57282
3558.023, 17.40025
3559.951, 13.96577
3561.880, 7.262481
3563.808, 4.926785
3565.737, 2.322515
3567.665, 0.5090503
3569.594, -9.1651678E-02
3571.522, -0.7223573
3573.451, -0.5429627
3575.379, 7.769871
3577.308, 5.366108
3579.236, 8.139400
3581.165, 21.84297
3583.093, 25.49611
3585.021, 3.785916
3586.950, -8.617627
3588.878, -8.565590
3590.807, -4.007341
3592.735, 0.4819767
3594.664, 8.265785
3596.592, -3.292620
3598.521, -0.8967696
3600.449, 5.539023
3602.378, 4.467649
3604.306, -4.152925
3606.235, -6.226211
3608.163, -9.325901
3610.092, -2.715478
3612.020, 2.181576
3613.948, -4.733327
3615.877, -17.50171
3617.805, -2.375465
3619.734, -0.7208113
3621.662, 1.491794
3623.591, -2.596606
3625.519, -5.050240
3627.448, 1.783113
3629.376, 1.905489
3631.305, -3.406852
3633.233, -6.690314
3635.162, -4.470536
3637.090, -3.340325
3639.019, -6.095056
3640.947, 2.112851
3642.875, -1.954910
3644.804, -0.5547988
3646.732, 6.473654
3648.661, 3.840552
3650.589, -6.373074
3652.518, 4.289727
3654.446, -6.094700
3656.375, -4.586117
3658.303, -9.2128873E-02
3660.232, 1.1400890E-02
3662.160, -0.4732119
3664.089, 5.698425
3666.017, 5.972218
3667.946, -10.62516
3669.874, -4.406020
3671.802, 1.387547
3673.731, -2.693787
3675.659, -6.281874
3677.588, -6.602936
3679.516, -5.503198
3681.445, -5.486857
3683.373, -6.678279
3685.302, -9.204008
3687.230, -8.809833
3689.159, -0.4941835
3691.087, -4.297120
3693.016, 0.3576859
3694.944, 0.5345781
3696.873, -4.309509
3698.801, -7.354746
3700.729, -5.426962
3702.658, -7.134508
3704.586, -1.092741
3706.515, 1.670958
3708.443, -0.6659589
3710.372, -4.151717
3712.300, -4.760322
3714.229, -2.040581
3716.157, -8.326139
3718.086, 4.098482
3720.014, 3.144768
3721.943, -3.246735
3723.871, -4.697299
3725.800, -4.075141
3727.728, -10.74415
3729.656, 0.4385535
3731.585, 2.900472
3733.513, -2.422885
3735.442, -2.026365
3737.370, 9.2476413E-02
3739.299, -2.816468
3741.227, -5.437166
3743.156, -2.919983
3745.084, -8.515265
3747.013, -6.457811
3748.941, -10.37684
3750.870, -12.57671
3752.798, -4.738736
3754.727, -1.168581
3756.655, -7.224035
3758.583, -8.644343
3760.512, -2.808024
3762.440, -3.459295
3764.369, -6.326624
3766.297, -2.825528
3768.226, 4.127532
3770.154, 3.025322
3772.083, -0.2760442
3774.011, 3.758183
3775.940, -5.308618
3777.868, -12.97718
3779.797, -8.153238
3781.725, -1.360409
3783.654, -5.729241
3785.582, 2.441314
3787.510, -0.2898165
3789.439, -3.757333
3791.367, -2.760499
3793.296, -0.5999776
3795.224, 0.3142869
3797.153, 2.391259
3799.081, -7.362659
3801.010, -6.382926
3802.938, 1.124396
3804.867, 5.572687
3806.795, 0.1139242
3808.724, -4.593563
3810.652, 1.343825
3812.581, -3.694267
3814.509, -7.416336
3816.438, -9.607186
3818.366, -12.26163
3820.294, -3.503296
3822.223, 0.8541443
3824.151, -5.301859
3826.080, -6.821881
3828.008, -6.679757
3829.937, -10.60548
3831.865, -10.76808
3833.794, -8.069089
3835.722, -4.287120
3837.651, -4.168852
3839.579, -7.634240
3841.508, -9.257503
3843.436, -7.951858
3845.365, -5.988337
3847.293, 4.568008
3849.221, -10.86612
3851.150, -14.19486
3853.078, -3.132868
3855.007, 0.9385349
3856.935, -5.581687
3858.864, -0.8706717
3860.792, -7.176091
3862.721, 3.933853
3864.649, 0.1943833
3866.578, -0.6634995
3868.506, -0.2980562
3870.435, -0.7345345
3872.363, 0.4242131
3874.292, -0.5658486
3876.220, 1.511707
3878.148, 3.172551
3880.077, 7.039013
3882.005, 3.286970
3883.934, -1.262249
3885.862, -3.830327
3887.791, -7.311273
3889.719, -8.870047
3891.648, 0.1473557
3893.576, -1.018093
3895.505, -0.7312759
3897.433, -11.22059
3899.362, -1.615599
3901.290, 1.212672
3903.219, -3.364246
3905.147, -7.046082
3907.075, -11.10621
3909.004, -3.069817
3910.932, -2.388453
3912.861, -11.93458
3914.789, -9.920430
3916.718, -4.853787
3918.646, -3.578354
3920.575, -5.273786
3922.503, -7.737678
3924.432, -10.37301
3926.360, -12.02606
3928.289, -3.143892
3930.217, 0.4519059
3932.146, -7.613273
3934.074, -2.575382
3936.002, 3.193484
3937.931, 2.052114
3939.859, 2.781811
3941.788, 5.279148
3943.716, -0.9059753
3945.645, -5.226590
3947.573, -2.386522
3949.502, -3.120097
3951.430, -4.131368
3953.359, -4.036521
3955.287, 1.501521
3957.216, 0.5159945
3959.144, -6.550341
3961.073, -8.183415
3963.001, -2.503096
3964.929, 2.068071
3966.858, -3.799116
3968.786, 1.201859
3970.715, -4.938346
3972.643, -5.523905
3974.572, -4.842775
3976.500, -7.672102
3978.429, -7.011335
3980.357, -3.787880
3982.286, -5.639100
3984.214, -7.697541
3986.143, -12.64862
3988.071, -4.343883
3990.000, -1.297760
3991.928, -3.665267
3993.856, -11.25610
3995.785, -3.964335
3997.713, -0.3276950
3999.642, -4.404182
4001.570, -7.451174
4003.499, -11.91777
4005.427, -10.75328
4007.356, -6.567493
4009.284, 2.305947
4011.213, -3.703684
4013.141, -8.700326
4015.070, 1.600723
4016.998, -1.092094
4018.927, -7.916240
4020.855, -4.503274
4022.783, -0.2446043
4024.712, -3.880852
4026.640, -4.913858
4028.569, -2.326216
4030.497, -1.335071
4032.426, -4.741892
4034.354, 4.852172
4036.283, -2.392886
4038.211, -18.69498
4040.140, -4.592830
4042.068, -0.5056756
4043.997, -9.144135
4045.925, -10.35280
4047.854, -9.351227
4049.782, -5.944028
4051.710, -8.534370
4053.639, -9.462039
4055.567, -3.905560
4057.496, -8.615823
4059.424, -6.583334
4061.353, -2.565308
4063.281, -1.971352
4065.210, -2.150931
4067.138, 0.3887706
4069.067, -1.212343
4070.995, -2.660791
4072.924, 5.281467
4074.852, 10.22401
4076.781, 8.182392
4078.709, -3.785996
4080.637, -11.33348
4082.566, -6.043884
4084.494, -0.6279533
4086.423, -1.800616
4088.351, -8.381353
4090.280, -6.835598
4092.208, -6.973282
4094.137, -8.159930
4096.065, -7.181276
4097.994, -6.413682
4099.922, -2.916701
4101.851, 1.186689
4103.779, -11.32938
4105.708, 3.310053
4107.636, -7.197869
4109.564, -1.845641
4111.493, -0.2280657
4113.421, -4.490408
4115.350, -6.142600
4117.278, -4.265077
4119.207, -0.9396613
4121.135, -5.104028
4123.063, -2.981606
4124.992, 3.309055
4126.920, -0.8246084
4128.849, -10.10391
4130.777, -11.83335
4132.706, -3.380584
4134.634, -4.478422
4136.563, 0.5833648
4138.491, -3.972656
4140.420, -2.364275
4142.348, 3.153012
4144.277, 0.3102841
4146.205, -3.842160
4148.134, -10.61444
4150.062, -7.103993
4151.991, -4.113987
4153.919, 1.375016
4155.848, 0.2914609
4157.776, -1.869854
4159.705, -1.548477
4161.633, -2.345183
4163.562, 10.82400
4165.490, 4.968561
4167.418, 6.998574
4169.347, 2.460065
4171.275, 3.966001
4173.204, 9.834046
4175.132, -10.74627
4177.061, -3.174308
4178.989, 9.0066781E-03
4180.917, -6.196529
4182.846, -3.058685
4184.774, 1.127056
4186.703, -5.858055
4188.631, 2.548886
4190.560, 2.744328
4192.488, -1.959973
4194.417, -5.103908
4196.345, -6.758631
4198.274, -2.899763
4200.202, -4.681925
4202.131, -0.7923812
4204.059, -3.863191
4205.988, 5.683542
4207.916, 1.480179
4209.845, -9.008337
4211.773, -0.3815742
4213.702, 6.255544
4215.630, -4.806747
4217.559, -6.186247
4219.487, -11.78544
4221.416, -3.839522
4223.344, -2.726003
4225.272, -3.939761
4227.201, 11.28301
4229.129, 6.339611
4231.058, -0.3073984
4232.986, -5.224946
4234.915, 0.1831522
4236.843, 5.354388
4238.771, -4.274103
4240.700, 2.835782
4242.628, 9.557952
4244.557, -6.359212
4246.485, -3.613460
4248.414, -0.7273045
4250.342, -3.269467
4252.271, -7.399483
4254.199, 2.838989
4256.128, -0.9266208
4258.056, -6.989067
4259.985, -0.4565638
4261.913, -2.023447
4263.842, -3.662163
4265.770, -4.726189
4267.699, 9.115858
4269.627, -2.738008
4271.556, 0.2237254
4273.484, -1.678309
4275.413, -14.42218
4277.341, -5.350943
4279.270, -8.348419
4281.198, -1.623236
4283.126, -6.793407
4285.055, -5.259200
4286.983, -2.602043
4288.912, 2.350504
4290.840, -3.001642
4292.769, -2.580795
4294.697, 0.7190396
4296.625, -6.390321
4298.554, -8.299308
4300.482, -0.2557813
4302.411, 8.561348
4304.339, 6.280288
4306.268, 3.060055
4308.196, -1.566903
4310.125, -5.084899
4312.053, 9.332773
4313.982, 8.774460
4315.910, -5.006421
4317.839, -1.575203
4319.767, -7.065962
4321.696, -3.586725
4323.624, 7.870828
4325.553, -7.239197
4327.481, -5.467783
4329.410, -4.070357
4331.338, -7.036118
4333.267, 0.5019793
4335.195, -8.657213
4337.124, -4.068493
4339.052, -10.69469
4340.980, -1.666516
4342.909, -3.027390
4344.837, -2.278747
4346.766, 1.317764
##END=



