##NAMES=Hubnerite
##RRUFFID=R060900
##IDEAL CHEMISTRY=Mn^2+^(WO_4_)
##LOCALITY=near Kara-Oba Deposit, Kazakhstan
##OWNER=RRUFF
##SOURCE=Michael Scott
##DESCRIPTION=Very dark red single crystal
##STATUS=The identification of this mineral is not yet confirmed
##URL=https://www.rruff.net/odr/rruff_sample/R060900
##DIFFRACTION SAMPLE DESCRIPTION=Powder
##CELL PARAMETERS=a: 4.8242 b: 5.7565 c: 4.9939 alpha: 90 beta: 88.92 gamma: 90 volume: 138.66 crystal system: monoclinic
##FILETYPE=Raman RAW
##RAMAN WAVELENGTH=532

114.9753, 68.47343
116.9038, 87.80106
118.8323, 112.4357
120.7607, 140.3783
122.6892, 190.3951
124.6177, 294.1927
126.5461, 413.5500
128.4746, 485.2697
130.4031, 501.9106
132.3315, 482.0960
134.2600, 436.0992
136.1885, 334.3688
138.1169, 251.7192
140.0454, 197.2746
141.9739, 167.7320
143.9023, 146.3006
145.8308, 136.8273
147.7593, 133.0575
149.6877, 131.1241
151.6162, 133.5585
153.5447, 135.1836
155.4731, 133.5634
157.4016, 128.7822
159.3301, 127.1748
161.2585, 132.4032
163.1870, 140.8842
165.1155, 145.9584
167.0439, 146.2409
168.9724, 145.0548
170.9009, 143.5498
172.8293, 140.8970
174.7578, 140.0028
176.6863, 141.2520
178.6147, 144.6788
180.5432, 148.9362
182.4717, 151.6450
184.4001, 157.1411
186.3286, 168.0336
188.2571, 188.0076
190.1855, 210.2441
192.1140, 230.5741
194.0425, 250.5047
195.9709, 282.6030
197.8994, 331.7118
199.8279, 392.9748
201.7563, 464.7403
203.6848, 592.9835
205.6133, 686.4735
207.5417, 710.9241
209.4702, 667.0269
211.3987, 603.2717
213.3272, 510.0772
215.2556, 403.9285
217.1841, 321.5459
219.1126, 269.0410
221.0410, 232.0883
222.9695, 203.8484
224.8980, 186.3224
226.8264, 173.4672
228.7549, 164.9114
230.6834, 160.7342
232.6118, 159.3671
234.5403, 162.7860
236.4688, 167.4766
238.3972, 171.2581
240.3257, 171.1986
242.2542, 173.8586
244.1826, 177.6133
246.1111, 184.0646
248.0396, 198.1882
249.9680, 221.0551
251.8965, 252.3209
253.8250, 293.0183
255.7534, 369.1564
257.6819, 425.9604
259.6104, 452.8684
261.5388, 453.7558
263.4673, 435.1401
265.3958, 378.4050
267.3242, 311.4963
269.2527, 260.1263
271.1812, 226.8980
273.1096, 202.6415
275.0381, 187.8820
276.9666, 181.9373
278.8950, 177.4400
280.8235, 174.0934
282.7520, 171.5355
284.6804, 169.3666
286.6089, 167.3039
288.5374, 165.9991
290.4658, 165.2793
292.3943, 164.8020
294.3228, 166.7403
296.2512, 172.0903
298.1797, 179.2831
300.1082, 185.7517
302.0366, 188.8653
303.9651, 195.9912
305.8936, 209.2317
307.8220, 229.9180
309.7505, 253.0087
311.6790, 275.1322
313.6074, 301.0421
315.5359, 335.0535
317.4644, 377.3638
319.3928, 427.9612
321.3213, 492.6871
323.2498, 580.6185
325.1782, 640.7269
327.1067, 671.9484
329.0352, 673.9063
330.9636, 651.2900
332.8921, 589.4324
334.8206, 523.8173
336.7491, 462.6371
338.6775, 406.2272
340.6060, 357.0706
342.5345, 315.3227
344.4629, 281.3137
346.3914, 254.2998
348.3199, 236.9413
350.2483, 223.6758
352.1768, 213.8510
354.1053, 207.8628
356.0337, 202.7690
357.9622, 198.4938
359.8907, 195.2693
361.8191, 193.3465
363.7476, 194.7128
365.6761, 194.6105
367.6045, 190.8670
369.5330, 184.0463
371.4615, 180.1862
373.3899, 179.7306
375.3184, 182.3229
377.2469, 187.3098
379.1753, 194.1766
381.1038, 204.8184
383.0323, 217.6239
384.9607, 234.5349
386.8892, 258.4460
388.8177, 284.7328
390.7461, 324.2543
392.6746, 384.8176
394.6031, 502.4191
396.5315, 581.1467
398.4600, 615.4980
400.3885, 607.0065
402.3169, 569.0140
404.2454, 476.6075
406.1739, 385.2121
408.1023, 315.1947
410.0308, 273.4493
411.9593, 239.6113
413.8877, 215.4564
415.8162, 198.7929
417.7447, 186.1463
419.6731, 179.3351
421.6016, 173.6425
423.5301, 167.0102
425.4585, 159.1377
427.3870, 154.2425
429.3155, 154.3535
431.2439, 156.0411
433.1724, 156.5995
435.1009, 155.3139
437.0293, 154.7585
438.9578, 155.9480
440.8863, 158.4944
442.8147, 160.1076
444.7432, 159.2914
446.6717, 158.9218
448.6001, 161.0523
450.5286, 166.5293
452.4571, 169.4333
454.3855, 167.4447
456.3140, 162.9147
458.2425, 159.8784
460.1709, 158.7909
462.0994, 158.2531
464.0279, 157.6718
465.9563, 157.0508
467.8848, 157.3923
469.8133, 160.1496
471.7417, 163.0265
473.6702, 163.9751
475.5987, 162.1522
477.5271, 160.5557
479.4556, 159.8977
481.3841, 159.9224
483.3125, 160.1178
485.2410, 161.7503
487.1695, 162.4451
489.0979, 160.2870
491.0264, 154.4545
492.9549, 151.7533
494.8833, 156.2808
496.8118, 162.8182
498.7403, 166.0194
500.6687, 163.1833
502.5972, 160.4149
504.5257, 158.2824
506.4541, 156.9803
508.3826, 157.0463
510.3111, 159.0253
512.2395, 161.8439
514.1680, 164.9278
516.0964, 168.3758
518.0249, 171.7327
519.9534, 174.2243
521.8818, 176.8700
523.8103, 181.3659
525.7388, 188.4468
527.6672, 195.7638
529.5957, 201.5614
531.5242, 206.0730
533.4526, 214.5427
535.3811, 229.2280
537.3096, 245.9814
539.2380, 264.8425
541.1665, 287.3366
543.0950, 302.2117
545.0234, 304.6041
546.9519, 298.3742
548.8804, 287.7628
550.8088, 268.3156
552.7373, 249.0693
554.6658, 230.0644
556.5942, 212.1579
558.5227, 198.7223
560.4512, 193.0839
562.3796, 188.9325
564.3081, 182.4530
566.2366, 171.6830
568.1650, 164.5487
570.0935, 162.7498
572.0220, 163.9100
573.9504, 165.3455
575.8789, 167.5487
577.8074, 168.7903
579.7358, 167.7926
581.6644, 165.1618
583.5928, 163.7231
585.5213, 164.0094
587.4498, 165.0081
589.3782, 166.5823
591.3067, 168.7534
593.2352, 171.0142
595.1636, 173.9300
597.0921, 176.4424
599.0206, 177.5421
600.9490, 175.5852
602.8775, 175.1684
604.8060, 178.7219
606.7344, 183.8177
608.6629, 184.8558
610.5914, 178.6604
612.5198, 174.2805
614.4483, 176.4759
616.3768, 184.7758
618.3052, 189.9803
620.2337, 188.3964
622.1622, 186.6450
624.0906, 188.9940
626.0191, 196.1841
627.9476, 200.6071
629.8760, 198.2825
631.8045, 194.3340
633.7330, 193.6075
635.6614, 198.5415
637.5899, 202.6496
639.5184, 203.7516
641.4468, 203.5169
643.3753, 206.3175
645.3038, 213.9001
647.2322, 221.4479
649.1607, 226.6621
651.0892, 229.8270
653.0176, 233.7628
654.9461, 237.5934
656.8746, 242.9859
658.8030, 250.6443
660.7315, 260.6546
662.6600, 273.3351
664.5884, 289.1725
666.5169, 307.8408
668.4454, 327.9474
670.3738, 347.1646
672.3023, 374.8232
674.2308, 407.1227
676.1592, 448.6594
678.0877, 510.1402
680.0162, 592.5274
681.9446, 688.6335
683.8731, 795.3868
685.8016, 914.4724
687.7300, 1052.630
689.6585, 1218.818
691.5870, 1397.016
693.5154, 1605.502
695.4439, 1850.281
697.3724, 2007.808
699.3008, 2079.904
701.2293, 2065.368
703.1578, 1942.707
705.0862, 1708.534
707.0147, 1476.024
708.9432, 1246.836
710.8716, 1038.177
712.8001, 864.7229
714.7286, 735.8124
716.6570, 631.4980
718.5855, 560.3828
720.5140, 511.8684
722.4424, 469.5593
724.3709, 433.5106
726.2994, 403.7498
728.2278, 381.1846
730.1563, 364.3940
732.0848, 349.8596
734.0132, 338.9314
735.9417, 328.5712
737.8702, 317.3389
739.7986, 306.0630
741.7271, 297.5544
743.6556, 292.9422
745.5840, 290.1979
747.5125, 289.0365
749.4410, 289.9051
751.3694, 288.8620
753.2979, 284.7277
755.2264, 279.9934
757.1548, 275.2665
759.0833, 270.4452
761.0118, 268.2120
762.9402, 270.6152
764.8687, 274.4522
766.7972, 277.3083
768.7256, 278.3435
770.6541, 280.9014
772.5826, 288.3760
774.5110, 295.6768
776.4395, 296.2602
778.3680, 287.8048
780.2964, 281.8489
782.2249, 282.5818
784.1534, 286.2375
786.0818, 288.4736
788.0103, 288.4503
789.9388, 288.6836
791.8672, 290.4914
793.7957, 292.7123
795.7242, 292.7355
797.6526, 288.6596
799.5811, 285.8423
801.5096, 286.3058
803.4380, 288.7802
805.3665, 290.8645
807.2950, 292.1171
809.2234, 293.5570
811.1519, 295.7146
813.0804, 298.2986
815.0089, 300.0616
816.9373, 299.6736
818.8658, 299.8920
820.7943, 300.6946
822.7227, 302.6691
824.6512, 307.6713
826.5797, 317.7076
828.5081, 328.1398
830.4366, 336.7852
832.3651, 343.8010
834.2935, 352.8768
836.2220, 362.2807
838.1505, 375.3354
840.0789, 392.5866
842.0074, 414.5962
843.9359, 442.2837
845.8643, 473.4992
847.7928, 513.6563
849.7213, 562.7364
851.6497, 620.6314
853.5782, 694.4977
855.5067, 776.9243
857.4351, 883.1763
859.3636, 1008.032
861.2921, 1152.481
863.2205, 1372.208
865.1490, 1654.130
867.0775, 2023.502
869.0059, 2468.163
870.9344, 2989.909
872.8629, 3682.704
874.7913, 4518.338
876.7198, 5585.409
878.6483, 7060.566
880.5767, 9051.901
882.5052, 10583.11
884.4337, 12071.08
886.3621, 12792.85
888.2906, 12027.87
890.2191, 9973.967
892.1475, 7982.938
894.0760, 6041.352
896.0045, 4399.127
897.9329, 3168.769
899.8614, 2374.979
901.7899, 1767.132
903.7183, 1417.970
905.6468, 1167.829
907.5753, 968.9948
909.5037, 824.2377
911.4322, 708.7557
913.3607, 634.0661
915.2891, 576.4431
917.2176, 526.8020
919.1461, 484.6278
921.0745, 450.1006
923.0030, 428.0654
924.9315, 408.9243
926.8599, 389.6729
928.7884, 370.4783
930.7169, 353.5163
932.6453, 337.1852
934.5738, 324.5088
936.5023, 319.5236
938.4307, 319.3654
940.3592, 314.2101
942.2877, 298.4288
944.2161, 286.2545
946.1446, 286.0393
948.0731, 294.3249
950.0015, 295.7981
951.9300, 283.0591
953.8585, 271.9966
955.7869, 266.0751
957.7154, 263.9073
959.6439, 261.6721
961.5723, 259.5157
963.5008, 256.9744
965.4293, 253.0564
967.3577, 248.9018
969.2862, 246.4803
971.2147, 246.9527
973.1431, 246.5336
975.0716, 243.2874
977.0001, 239.2648
978.9285, 237.4170
980.8570, 240.5286
982.7855, 241.2418
984.7139, 238.0156
986.6424, 232.9334
988.5709, 227.7630
990.4993, 222.3546
992.4278, 218.0299
994.3563, 215.4829
996.2847, 213.9163
998.2132, 212.6225
1000.142, 211.3403
1002.070, 211.6840
1003.999, 216.5257
1005.927, 220.4125
1007.856, 219.1425
1009.784, 211.9975
1011.712, 208.3435
1013.641, 210.3136
1015.569, 213.4905
1017.498, 216.8431
1019.426, 219.9541
1021.355, 220.6974
1023.283, 216.5982
1025.212, 213.9932
1027.140, 216.5200
1029.069, 222.3075
1030.997, 224.9339
1032.926, 220.6474
1034.854, 217.8285
1036.782, 218.4161
1038.711, 220.7889
1040.639, 222.2650
1042.568, 222.7294
1044.496, 222.8034
1046.425, 222.4487
1048.353, 221.8896
1050.282, 221.4496
1052.210, 221.2630
1054.139, 220.5702
1056.067, 217.8444
1057.996, 215.8387
1059.924, 216.6312
1061.853, 220.8646
1063.781, 223.5970
1065.709, 223.6488
1067.638, 223.4293
1069.566, 224.0381
1071.495, 225.1892
1073.423, 225.7776
1075.352, 225.7747
1077.280, 225.1738
1079.209, 223.5958
1081.137, 221.5126
1083.066, 219.6734
1084.994, 217.7003
1086.923, 216.9130
1088.851, 218.7538
1090.780, 221.0775
1092.708, 221.5080
1094.637, 219.0249
1096.565, 217.0732
1098.494, 215.5341
1100.422, 214.6818
1102.350, 215.5359
1104.279, 217.7250
1106.207, 217.7726
1108.136, 213.4557
1110.064, 209.7123
1111.993, 209.8608
1113.921, 212.4367
1115.850, 211.8668
1117.778, 205.0756
1119.707, 200.0372
1121.635, 199.7683
1123.564, 201.4858
1125.492, 200.9230
1127.421, 195.4248
1129.349, 193.3693
1131.277, 198.9260
1133.206, 205.0501
1135.134, 205.7067
1137.063, 201.5275
1138.991, 198.3306
1140.920, 197.1163
1142.848, 196.4517
1144.777, 195.7587
1146.705, 195.0734
1148.634, 194.5389
1150.562, 194.2258
1152.491, 193.9566
1154.419, 193.1332
1156.348, 192.5838
1158.276, 193.5636
1160.204, 197.5100
1162.133, 199.8980
1164.061, 200.0894
1165.990, 199.2613
1167.918, 197.2916
1169.847, 194.5428
1171.775, 194.2626
1173.704, 198.9621
1175.632, 202.3217
1177.561, 200.2532
1179.489, 195.3360
1181.418, 192.1945
1183.346, 190.8723
1185.275, 191.4466
1187.203, 196.5321
1189.131, 201.5002
1191.060, 202.0074
1192.988, 196.5481
1194.917, 193.1634
1196.845, 192.6941
1198.774, 193.2471
1200.702, 194.7026
1202.631, 196.6781
1204.559, 197.5933
1206.488, 196.7303
1208.416, 196.5092
1210.345, 198.5366
1212.273, 200.8412
1214.202, 201.1442
1216.130, 199.2158
1218.058, 198.5695
1219.987, 201.8081
1221.915, 204.0950
1223.844, 202.0448
1225.772, 196.6787
1227.701, 194.6256
1229.629, 199.3233
1231.558, 202.8018
1233.486, 203.1859
1235.415, 202.2746
1237.343, 202.1976
1239.272, 203.1795
1241.200, 204.0675
1243.129, 205.2150
1245.057, 205.8547
1246.985, 205.8369
1248.914, 204.9574
1250.842, 202.2137
1252.771, 196.1806
1254.699, 191.9734
1256.628, 192.7784
1258.556, 195.2193
1260.485, 195.9189
1262.413, 194.6051
1264.342, 194.3302
1266.270, 196.5686
1268.199, 198.7738
1270.127, 200.0630
1272.056, 200.5893
1273.984, 200.8954
1275.912, 199.6668
1277.841, 199.9769
1279.769, 203.7088
1281.698, 207.7270
1283.626, 209.2719
1285.555, 208.2255
1287.483, 206.6916
1289.412, 204.1617
1291.340, 201.9855
1293.269, 201.3968
1295.197, 201.1982
1297.126, 199.1224
1299.054, 194.6079
1300.983, 191.4126
1302.911, 191.2413
1304.839, 191.6757
1306.768, 191.2127
1308.696, 190.0400
1310.625, 189.6619
1312.553, 190.9400
1314.482, 191.5861
1316.410, 190.2291
1318.339, 188.5911
1320.267, 188.3101
1322.196, 189.3013
1324.124, 192.0223
1326.053, 200.7488
1327.981, 206.0711
1329.910, 201.4980
1331.838, 191.7774
1333.766, 188.3044
1335.695, 192.9397
1337.623, 196.1646
1339.552, 195.7965
1341.480, 194.4674
1343.409, 193.0223
1345.337, 191.8378
1347.266, 192.6871
1349.194, 196.7086
1351.123, 199.7172
1353.051, 200.4948
1354.980, 199.5296
1356.908, 196.4549
1358.837, 191.3302
1360.765, 188.2346
1362.693, 188.7540
1364.622, 189.4806
1366.550, 189.3447
1368.479, 188.8617
1370.407, 188.7357
1372.336, 188.9709
1374.264, 189.5832
1376.193, 191.0326
1378.121, 192.2771
1380.050, 192.2281
1381.978, 191.6608
1383.907, 192.8382
1385.835, 196.9889
1387.764, 200.0510
1389.692, 201.8594
1391.620, 202.4162
1393.549, 201.1927
1395.477, 198.6483
1397.406, 196.6417
1399.334, 195.1544
1401.263, 194.3897
1403.191, 195.7897
1405.120, 196.7963
1407.048, 194.6510
1408.977, 190.2553
1410.905, 187.8686
1412.834, 188.2560
1414.762, 189.4074
1416.691, 191.8954
1418.619, 193.9017
1420.547, 193.4063
1422.476, 190.5222
1424.404, 188.5926
1426.333, 188.2430
1428.261, 188.1910
1430.190, 188.2268
1432.118, 188.2252
1434.047, 187.9892
1435.975, 187.3984
1437.904, 187.0265
1439.832, 187.3952
1441.761, 187.2827
1443.689, 185.6512
1445.618, 183.8257
1447.546, 183.7435
1449.474, 185.9912
1451.403, 187.5168
1453.331, 186.3220
1455.260, 187.0065
1457.188, 193.6525
1459.117, 201.6549
1461.045, 203.8229
1462.974, 199.0914
1464.902, 195.3461
1466.831, 193.6432
1468.759, 191.9334
1470.688, 188.6062
1472.616, 185.3077
1474.545, 184.4354
1476.473, 185.9686
1478.401, 188.9903
1480.330, 195.8332
1482.258, 200.3025
1484.187, 197.7177
1486.115, 192.4523
1488.044, 189.7796
1489.972, 189.7086
1491.901, 190.4884
1493.829, 192.3708
1495.758, 194.1628
1497.686, 195.2337
1499.615, 195.9909
1501.543, 197.2460
1503.472, 199.0157
1505.400, 199.0821
1507.328, 195.7674
1509.257, 193.4250
1511.185, 193.8717
1513.114, 195.7736
1515.042, 198.6329
1516.971, 202.5903
1518.899, 202.7284
1520.828, 194.5581
1522.756, 189.6679
1524.685, 193.7057
1526.613, 199.7196
1528.542, 201.3149
1530.470, 198.4177
1532.399, 196.2214
1534.327, 194.8489
1536.255, 194.1129
1538.184, 193.3544
1540.112, 193.8239
1542.041, 197.7843
1543.969, 204.4436
1545.898, 207.3564
1547.826, 203.1293
1549.755, 200.2093
1551.683, 198.5575
1553.612, 198.6392
1555.540, 201.6843
1557.469, 206.6813
1559.397, 210.6436
1561.326, 214.8962
1563.254, 215.1043
1565.182, 206.7762
1567.111, 199.4638
1569.039, 197.5732
1570.968, 199.2422
1572.896, 201.9101
1574.825, 206.5009
1576.753, 207.4728
1578.682, 201.1387
1580.610, 195.9081
1582.539, 194.4383
1584.467, 195.0946
1586.396, 196.2903
1588.324, 198.0318
1590.253, 200.2645
1592.181, 204.3173
1594.109, 206.1899
1596.038, 203.6366
1597.966, 199.7816
1599.895, 195.7385
1601.823, 192.2630
1603.752, 192.6875
1605.680, 198.7152
1607.609, 201.9547
1609.537, 198.5064
1611.466, 194.8695
1613.394, 193.8267
1615.323, 194.6380
1617.251, 196.7311
1619.180, 200.1877
1621.108, 201.1514
1623.036, 197.4359
1624.965, 194.3860
1626.893, 194.5540
1628.822, 195.6535
1630.750, 195.5560
1632.679, 194.5559
1634.607, 193.8184
1636.536, 193.4072
1638.464, 193.3489
1640.393, 193.3547
1642.321, 194.0920
1644.250, 196.8394
1646.178, 200.2139
1648.107, 201.4827
1650.035, 200.5045
1651.964, 199.6615
1653.892, 198.5077
1655.820, 198.8545
1657.749, 204.1502
1659.677, 209.1267
1661.606, 208.2661
1663.534, 202.8315
1665.463, 197.2209
1667.391, 191.1575
1669.320, 186.8532
1671.248, 183.4870
1673.177, 183.5847
1675.105, 192.1447
1677.034, 203.2997
1678.962, 207.4230
1680.891, 204.6318
1682.819, 201.9333
1684.747, 198.9341
1686.676, 198.4456
1688.604, 204.3379
1690.533, 210.4167
1692.461, 210.8166
1694.390, 207.9255
1696.318, 208.6757
1698.247, 213.9101
1700.175, 217.1481
1702.104, 216.9539
1704.032, 215.3532
1705.961, 210.5980
1707.889, 206.6727
1709.818, 209.1732
1711.746, 216.7123
1713.674, 222.0003
1715.603, 224.8317
1717.531, 225.4137
1719.460, 220.5746
1721.388, 217.2088
1723.317, 219.2240
1725.245, 224.2805
1727.174, 229.6509
1729.102, 235.2760
1731.031, 239.2944
1732.959, 240.4285
1734.888, 242.7915
1736.816, 248.1835
1738.745, 254.1072
1740.673, 259.9019
1742.601, 264.9364
1744.530, 267.3690
1746.458, 266.7750
1748.387, 268.0901
1750.315, 272.6306
1752.244, 277.0737
1754.172, 280.9092
1756.101, 284.2812
1758.029, 287.6604
1759.958, 290.5667
1761.886, 292.0802
1763.815, 292.3681
1765.743, 290.3592
1767.672, 284.8763
1769.600, 278.9508
1771.528, 273.7798
1773.457, 267.6893
1775.385, 258.4592
1777.314, 247.5766
1779.242, 238.8668
1781.171, 232.7125
1783.099, 227.0159
1785.028, 221.0781
1786.956, 216.5190
1788.885, 215.2602
1790.813, 213.7661
1792.742, 208.8949
1794.670, 202.3061
1796.599, 198.0715
1798.527, 196.9192
1800.455, 194.4783
1802.384, 188.5851
1804.312, 185.2456
1806.241, 187.7359
1808.169, 190.5343
1810.098, 190.4249
1812.026, 188.5537
1813.955, 186.6571
1815.883, 184.6988
1817.812, 184.4612
1819.740, 186.8850
1821.669, 188.6276
1823.597, 187.8833
1825.526, 187.5600
1827.454, 190.6324
1829.382, 193.9587
1831.311, 192.3226
1833.239, 186.6839
1835.168, 184.0686
1837.096, 185.6100
1839.025, 186.4896
1840.953, 184.6465
1842.882, 183.7790
1844.810, 186.6758
1846.739, 190.5326
1848.667, 192.6386
1850.596, 193.3757
1852.524, 193.9358
1854.453, 194.3818
1856.381, 194.2894
1858.309, 193.1955
1860.238, 192.3706
1862.166, 192.3336
1864.095, 192.6383
1866.023, 193.2017
1867.952, 193.8002
1869.880, 193.8034
1871.809, 193.0692
1873.737, 192.8791
1875.666, 193.2002
1877.594, 194.0081
1879.523, 196.5955
1881.451, 198.0471
1883.380, 196.0433
1885.308, 192.9382
1887.236, 191.7054
1889.165, 192.0233
1891.093, 191.1339
1893.022, 187.8996
1894.950, 187.3533
1896.879, 192.3234
1898.807, 195.8251
1900.736, 195.9619
1902.664, 194.2828
1904.593, 190.6090
1906.521, 186.3237
1908.450, 183.9991
1910.378, 183.5473
1912.307, 183.9295
1914.235, 185.2109
1916.163, 186.8170
1918.092, 188.8712
1920.020, 190.7936
1921.949, 193.0170
1923.877, 194.3469
1925.806, 192.8121
1927.734, 189.7912
1929.663, 188.5584
1931.591, 189.1280
1933.520, 191.1828
1935.448, 196.8893
1937.377, 199.2299
1939.305, 193.7553
1941.234, 188.7944
1943.162, 189.2552
1945.090, 191.0081
1947.019, 188.8004
1948.947, 184.1599
1950.876, 183.2573
1952.804, 187.2374
1954.733, 190.3692
1956.661, 193.0788
1958.590, 194.1493
1960.518, 190.8984
1962.447, 189.0892
1964.375, 192.3288
1966.304, 197.1722
1968.232, 201.2759
1970.161, 203.9001
1972.089, 201.3171
1974.017, 193.3468
1975.946, 189.9363
1977.874, 193.9583
1979.803, 196.0910
1981.731, 191.3601
1983.660, 188.0260
1985.588, 191.9262
1987.517, 197.5101
1989.445, 199.1867
1991.374, 198.2842
1993.302, 198.5547
1995.231, 200.2134
1997.159, 200.9720
1999.088, 200.3214
2001.016, 199.6235
2002.944, 199.2053
2004.873, 198.4093
2006.801, 196.4614
2008.730, 194.6241
2010.658, 194.1024
2012.587, 194.3071
2014.515, 193.6821
2016.444, 192.4042
2018.372, 193.5352
2020.301, 197.7640
2022.229, 200.5682
2024.158, 200.9064
2026.086, 200.6006
2028.015, 200.0697
2029.943, 199.3027
2031.871, 197.4435
2033.800, 195.9886
2035.728, 197.5502
2037.657, 201.0999
2039.585, 202.8394
2041.514, 202.7389
2043.442, 201.0613
2045.371, 195.7482
2047.299, 192.2288
2049.228, 190.6266
2051.156, 191.1512
2053.084, 196.3729
2055.013, 201.1495
2056.941, 200.2884
2058.870, 197.1582
2060.798, 198.1082
2062.727, 202.2969
2064.656, 204.1698
2066.584, 203.3653
2068.512, 203.2715
2070.441, 205.2322
2072.369, 204.9032
2074.298, 197.8332
2076.226, 192.9816
2078.155, 197.6220
2080.083, 203.1390
2082.012, 200.5187
2083.940, 194.2329
2085.869, 193.5348
2087.797, 197.9716
2089.726, 199.8928
2091.654, 197.6725
2093.583, 197.9190
2095.511, 202.6069
2097.439, 205.8964
2099.368, 206.3887
2101.296, 205.7934
2103.225, 204.5321
2105.153, 202.7934
2107.082, 199.4177
2109.010, 196.4486
2110.939, 198.1504
2112.867, 203.2346
2114.796, 205.2109
2116.724, 203.5048
2118.653, 202.3894
2120.581, 201.6769
2122.510, 202.4063
2124.438, 207.5274
2126.366, 210.1008
2128.295, 205.3744
2130.223, 200.2111
2132.152, 198.2005
2134.080, 198.9639
2136.009, 205.0604
2137.937, 213.0853
2139.866, 209.6964
2141.794, 196.0098
2143.723, 189.1192
2145.651, 190.8863
2147.580, 195.4445
2149.508, 205.5547
2151.437, 210.5273
2153.365, 203.0637
2155.293, 195.7278
2157.222, 194.2165
2159.150, 195.1770
2161.079, 195.9028
2163.007, 197.0844
2164.936, 200.6545
2166.864, 205.9075
2168.793, 208.5455
2170.721, 208.5144
2172.650, 208.0434
2174.578, 207.0801
2176.507, 206.9625
2178.435, 209.3395
2180.364, 209.1766
2182.292, 202.0137
2184.220, 195.5912
2186.149, 192.7989
2188.077, 193.1581
2190.006, 198.9572
2191.934, 206.0106
2193.863, 206.6053
2195.791, 202.3346
2197.720, 200.8514
2199.648, 202.2454
2201.577, 203.0690
2203.505, 203.0374
2205.434, 203.2463
2207.362, 203.8589
2209.291, 204.6432
2211.219, 205.3077
2213.147, 206.5107
2215.076, 210.1393
2217.004, 212.6081
2218.933, 210.2684
2220.861, 206.3825
2222.790, 205.2144
2224.718, 205.4966
2226.647, 203.0703
2228.575, 198.4412
2230.504, 199.9035
2232.432, 207.9865
2234.361, 211.2780
2236.289, 207.4854
2238.218, 205.4637
2240.146, 208.4942
2242.074, 209.9447
2244.003, 206.2339
2245.931, 202.5714
2247.860, 199.9930
2249.788, 199.7429
2251.717, 205.8334
2253.645, 212.3665
2255.574, 210.2087
2257.502, 203.2031
2259.431, 201.4651
2261.359, 203.8748
2263.288, 203.4552
2265.216, 199.9938
2267.145, 201.3001
2269.073, 210.2139
2271.001, 214.8161
2272.930, 209.3190
2274.858, 206.1200
2276.787, 209.9202
2278.715, 212.3799
2280.644, 207.6155
2282.572, 204.3003
2284.501, 210.3428
2286.429, 217.3052
2288.358, 216.0097
2290.286, 211.5283
2292.215, 211.7339
2294.143, 214.9828
2296.072, 216.3958
2298.000, 216.0459
2299.928, 215.0078
2301.857, 212.3912
2303.785, 213.2271
2305.714, 220.6979
2307.642, 222.7820
2309.571, 215.2539
2311.499, 210.3139
2313.428, 212.0002
2315.356, 214.4095
2317.285, 214.8603
2319.213, 215.5750
2321.142, 216.9046
2323.070, 219.9993
2324.999, 226.0821
2326.927, 234.3938
2328.855, 247.4265
2330.784, 260.6078
2332.712, 260.7252
2334.641, 249.8815
2336.569, 240.0846
2338.498, 231.4988
2340.426, 224.6113
2342.355, 219.6548
2344.283, 214.2665
2346.212, 206.4116
2348.140, 202.6741
2350.069, 207.0883
2351.997, 210.5683
2353.926, 208.8430
2355.854, 209.7403
2357.782, 219.5267
2359.711, 227.4981
2361.639, 227.5780
2363.568, 224.2677
2365.496, 217.9152
2367.425, 212.9446
2369.353, 217.2525
2371.282, 225.2620
2373.210, 225.2984
2375.139, 219.7889
2377.067, 218.2429
2378.996, 220.4673
2380.924, 222.8159
2382.853, 225.2463
2384.781, 223.3432
2386.709, 215.7446
2388.638, 213.9553
2390.566, 222.9051
2392.495, 227.7677
2394.423, 222.4265
2396.352, 219.2141
2398.280, 221.8274
2400.209, 224.5588
2402.137, 225.8497
2404.066, 226.8480
2405.994, 228.9297
2407.923, 229.7309
2409.851, 225.3494
2411.780, 221.1988
2413.708, 223.9805
2415.636, 228.9412
2417.565, 229.6353
2419.493, 227.4831
2421.422, 224.4998
2423.350, 221.4026
2425.279, 222.0788
2427.207, 225.5483
2429.136, 225.2859
2431.064, 221.2101
2432.993, 220.0941
2434.921, 223.0477
2436.850, 225.3690
2438.778, 226.7020
2440.707, 228.0360
2442.635, 229.8395
2444.563, 230.4739
2446.492, 229.3815
2448.420, 227.9639
2450.349, 225.8737
2452.277, 224.9985
2454.206, 226.9806
2456.134, 229.0341
2458.063, 229.9879
2459.991, 230.4636
2461.920, 230.8131
2463.848, 230.8390
2465.777, 230.0845
2467.705, 229.2243
2469.634, 228.8490
2471.562, 228.8351
2473.490, 228.3979
2475.419, 228.5524
2477.347, 233.1707
2479.276, 239.6323
2481.204, 238.2955
2483.133, 230.5589
2485.061, 226.8144
2486.990, 226.3597
2488.918, 222.3198
2490.847, 214.6036
2492.775, 215.1852
2494.704, 227.9794
2496.632, 234.0687
2498.561, 230.5086
2500.489, 227.6459
2502.417, 224.7948
2504.346, 226.5775
2506.274, 235.9571
2508.203, 241.3655
2510.131, 238.3661
2512.060, 234.9105
2513.988, 233.2947
2515.917, 231.4011
2517.845, 228.8548
2519.774, 225.6491
2521.702, 221.2206
2523.631, 216.9071
2525.559, 210.9228
2527.488, 208.5285
2529.416, 216.8523
2531.344, 225.3982
2533.273, 225.3172
2535.201, 222.7616
2537.130, 222.8164
2539.058, 224.2885
2540.987, 226.7216
2542.915, 229.0051
2544.844, 229.4254
2546.772, 228.7959
2548.701, 227.7428
2550.629, 226.9563
2552.558, 229.0880
2554.486, 232.6214
2556.415, 231.7610
2558.343, 227.8001
2560.271, 226.9012
2562.200, 228.4377
2564.128, 228.2762
2566.057, 226.5613
2567.985, 228.0292
2569.914, 233.0116
2571.842, 236.8977
2573.771, 239.7868
2575.699, 239.3696
2577.628, 235.2917
2579.556, 233.5162
2581.485, 235.0007
2583.413, 235.8244
2585.342, 235.2601
2587.270, 234.8269
2589.198, 234.0228
2591.127, 235.2567
2593.055, 239.8069
2594.984, 242.1797
2596.912, 241.2474
2598.841, 238.4860
2600.769, 231.1640
2602.698, 227.4959
2604.626, 231.2266
2606.555, 234.9678
2608.483, 238.2508
2610.412, 239.7279
2612.340, 238.4426
2614.269, 236.6183
2616.197, 233.3172
2618.125, 232.4307
2620.054, 238.0063
2621.982, 242.3787
2623.911, 241.5152
2625.839, 239.9687
2627.768, 238.6884
2629.696, 238.5747
2631.625, 242.4560
2633.553, 244.5027
2635.482, 238.1511
2637.410, 233.0059
2639.339, 237.0708
2641.267, 242.2717
2643.196, 243.3506
2645.124, 243.5995
2647.052, 246.5130
2648.981, 248.1729
2650.909, 243.9198
2652.838, 238.5941
2654.766, 236.4311
2656.695, 235.4381
2658.623, 233.5061
2660.552, 232.1242
2662.480, 233.0138
2664.409, 234.8508
2666.337, 237.1528
2668.266, 238.6426
2670.194, 236.9072
2672.123, 234.2670
2674.051, 233.2235
2675.979, 233.3052
2677.908, 233.8087
2679.836, 235.1795
2681.765, 239.5413
2683.693, 243.8830
2685.622, 243.5569
2687.550, 240.4628
2689.479, 234.7381
2691.407, 230.4405
2693.336, 236.2002
2695.264, 244.6282
2697.193, 242.9339
2699.121, 236.7888
2701.050, 234.8298
2702.978, 236.0867
2704.906, 240.4538
2706.835, 245.6924
2708.763, 249.5335
2710.692, 250.9064
2712.620, 245.8694
2714.549, 238.3825
2716.477, 235.0668
2718.406, 235.1804
2720.334, 239.6398
2722.263, 244.8914
2724.191, 244.6935
2726.120, 241.4439
2728.048, 238.0079
2729.977, 235.7242
2731.905, 238.7765
2733.833, 243.5781
2735.762, 243.0887
2737.690, 240.4655
2739.619, 240.8175
2741.547, 242.2543
2743.476, 240.8568
2745.404, 238.7936
2747.333, 240.9505
2749.261, 243.9241
2751.190, 242.3885
2753.118, 238.6185
2755.047, 234.0954
2756.975, 231.0500
2758.904, 235.2407
2760.832, 240.9752
2762.760, 238.3691
2764.689, 234.0658
2766.617, 237.0928
2768.546, 242.2907
2770.474, 243.4511
2772.403, 242.6488
2774.331, 241.5151
2776.260, 240.7457
2778.188, 240.4825
2780.117, 241.6175
2782.045, 247.2805
2783.974, 252.4061
2785.902, 251.8578
2787.831, 248.3416
2789.759, 240.3288
2791.688, 235.2905
2793.616, 242.8500
2795.544, 251.1887
2797.473, 249.3536
2799.401, 246.1772
2801.330, 248.4089
2803.258, 251.5556
2805.187, 254.4948
2807.115, 255.1699
2809.044, 250.2070
2810.972, 245.7119
2812.901, 245.9466
2814.829, 246.4318
2816.758, 244.5497
2818.686, 243.5826
2820.615, 244.7995
2822.543, 247.6445
2824.471, 255.0549
2826.400, 258.7253
2828.328, 253.1779
2830.257, 249.7191
2832.185, 253.7198
2834.114, 254.9192
2836.042, 247.0760
2837.971, 241.2329
2839.899, 239.6960
2841.828, 240.0430
2843.756, 242.3771
2845.685, 245.2090
2847.613, 249.2635
2849.542, 250.3721
2851.470, 245.2679
2853.398, 244.0549
2855.327, 248.0881
2857.255, 249.3687
2859.184, 246.7576
2861.112, 244.3961
2863.041, 242.1993
2864.969, 243.3812
2866.898, 248.2533
2868.826, 250.7071
2870.755, 250.5979
2872.683, 248.5096
2874.612, 244.7568
2876.540, 244.2791
2878.469, 246.6823
2880.397, 248.0306
2882.325, 248.7603
2884.254, 250.4625
2886.182, 252.8813
2888.111, 257.0892
2890.039, 260.3643
2891.968, 252.8185
2893.896, 241.7847
2895.825, 241.1375
2897.753, 245.1082
2899.682, 247.4350
2901.610, 248.4464
2903.539, 248.3541
2905.467, 247.3239
2907.396, 243.8142
2909.324, 241.7615
2911.252, 245.8230
2913.181, 250.1646
2915.109, 250.4687
2917.038, 250.8044
2918.966, 253.4903
2920.895, 255.6766
2922.823, 256.0323
2924.752, 255.7001
2926.680, 254.0862
2928.609, 253.5348
2930.537, 254.9104
2932.466, 255.5146
2934.394, 254.0696
2936.323, 254.1342
2938.251, 257.5830
2940.179, 258.1949
2942.108, 255.4633
2944.036, 253.8293
2945.965, 253.6508
2947.893, 255.5209
2949.822, 259.4470
2951.750, 263.9951
2953.679, 268.4521
2955.607, 266.7956
2957.536, 261.1151
2959.464, 258.8165
2961.393, 258.9762
2963.321, 259.7085
2965.250, 260.8520
2967.178, 262.4536
2969.106, 263.9938
2971.035, 265.5319
2972.963, 265.9094
2974.892, 263.0313
2976.820, 259.7543
2978.749, 257.3813
2980.677, 256.1556
2982.606, 256.8130
2984.534, 257.6669
2986.463, 259.0810
2988.391, 258.2644
2990.320, 252.6870
2992.248, 250.7222
2994.177, 257.0787
2996.105, 261.7744
2998.033, 263.7079
2999.962, 267.1779
3001.890, 272.7620
3003.819, 271.2704
3005.747, 261.6304
3007.676, 258.7982
3009.604, 261.8371
3011.533, 259.5051
3013.461, 254.4166
3015.390, 254.9677
3017.318, 259.1893
3019.247, 264.8794
3021.175, 269.5935
3023.104, 268.1713
3025.032, 265.6399
3026.960, 265.6917
3028.889, 267.8548
3030.817, 276.1725
3032.746, 279.2525
3034.674, 268.0511
3036.603, 259.3037
3038.531, 260.7126
3040.460, 263.9131
3042.388, 267.9543
3044.317, 272.4487
3046.245, 278.1450
3048.174, 278.1341
3050.102, 269.9026
3052.031, 264.9800
3053.959, 263.2794
3055.887, 262.9248
3057.816, 263.7770
3059.744, 266.1068
3061.673, 268.7409
3063.601, 267.2929
3065.530, 265.1394
3067.458, 268.7690
3069.387, 273.1883
3071.315, 273.1991
3073.244, 272.0233
3075.172, 270.6225
3077.101, 270.9911
3079.029, 276.0569
3080.958, 278.7961
3082.886, 275.1350
3084.814, 272.0135
3086.743, 269.8993
3088.671, 270.9253
3090.600, 276.0490
3092.528, 278.3303
3094.457, 277.3383
3096.385, 276.0751
3098.314, 274.7601
3100.242, 274.4932
3102.171, 275.4236
3104.099, 279.7065
3106.028, 284.0571
3107.956, 283.7146
3109.885, 280.6357
3111.813, 273.3053
3113.741, 268.5877
3115.670, 273.9328
3117.598, 277.4028
3119.527, 274.0000
3121.455, 271.6467
3123.384, 274.0660
3125.312, 273.7262
3127.241, 269.1746
3129.169, 273.3476
3131.098, 286.1304
3133.026, 284.8973
3134.955, 272.8831
3136.883, 270.6972
3138.812, 274.5780
3140.740, 275.3246
3142.668, 276.7854
3144.597, 287.4460
3146.525, 296.4571
3148.454, 292.9195
3150.382, 288.2000
3152.311, 289.2982
3154.239, 287.6118
3156.168, 276.4298
3158.096, 274.7092
3160.025, 286.7254
3161.953, 290.0676
3163.882, 281.2094
3165.810, 277.0612
3167.739, 277.5398
3169.667, 285.2193
3171.595, 294.9824
3173.524, 294.7811
3175.452, 289.6959
3177.381, 284.5209
3179.309, 280.9278
3181.238, 279.7032
3183.166, 281.1169
3185.095, 288.2169
3187.023, 292.0524
3188.952, 289.5133
3190.880, 289.9579
3192.809, 297.1102
3194.737, 298.0818
3196.666, 293.0612
3198.594, 290.5292
3200.522, 290.0415
3202.451, 289.0787
3204.379, 288.4901
3206.308, 289.7257
3208.236, 292.3688
3210.165, 298.3788
3212.093, 301.9321
3214.022, 297.0204
3215.950, 293.6672
3217.879, 294.4086
3219.807, 296.5837
3221.736, 300.4578
3223.664, 303.2949
3225.593, 304.9727
3227.521, 301.7625
3229.449, 296.0491
3231.378, 298.6148
3233.306, 303.4124
3235.235, 298.3221
3237.163, 291.6866
3239.092, 289.7699
3241.020, 290.4290
3242.949, 293.7740
3244.877, 297.6663
3246.806, 302.5877
3248.734, 303.5329
3250.663, 297.8751
3252.591, 297.1104
3254.520, 300.3112
3256.448, 300.5133
3258.376, 298.7684
3260.305, 297.1898
3262.233, 296.4012
3264.162, 298.3542
3266.090, 299.7435
3268.019, 297.5057
3269.947, 295.8292
3271.876, 296.0277
3273.804, 296.4940
3275.733, 296.4746
3277.661, 301.6305
3279.590, 312.2275
3281.518, 310.0844
3283.447, 299.9428
3285.375, 292.3413
3287.303, 289.8939
3289.232, 301.8853
3291.160, 312.8596
3293.089, 310.1688
3295.017, 307.8133
3296.946, 311.4610
3298.874, 317.0094
3300.803, 324.8997
3302.731, 323.7919
3304.660, 313.3719
3306.588, 312.3616
3308.517, 317.1834
3310.445, 317.3703
3312.374, 315.3717
3314.302, 311.7399
3316.230, 310.7474
3318.159, 316.3286
3320.087, 321.4225
3322.016, 324.8483
3323.944, 323.3507
3325.873, 316.2758
3327.801, 314.7004
3329.730, 317.9146
3331.658, 316.7701
3333.587, 313.1173
3335.515, 308.7806
3337.444, 306.8646
3339.372, 312.7335
3341.301, 317.6738
3343.229, 318.1638
3345.157, 315.8069
3347.086, 309.4583
3349.014, 308.5769
3350.943, 313.6591
3352.871, 315.2225
3354.800, 314.3620
3356.728, 313.2040
3358.657, 313.0446
3360.585, 315.3609
3362.514, 319.7540
3364.442, 330.0162
3366.371, 334.0967
3368.299, 327.5267
3370.228, 322.5166
3372.156, 320.1230
3374.084, 318.7847
3376.013, 318.4182
3377.941, 320.5524
3379.870, 321.8040
3381.798, 315.5383
3383.727, 310.3466
3385.655, 312.5804
3387.584, 315.5322
3389.512, 317.2444
3391.441, 321.9480
3393.369, 330.5625
3395.298, 331.3664
3397.226, 326.4360
3399.155, 320.5423
3401.083, 317.2016
3403.011, 324.1502
3404.940, 331.2038
3406.868, 333.7694
3408.797, 332.0830
3410.725, 324.3425
3412.654, 323.2426
3414.582, 329.5932
3416.511, 334.7129
3418.439, 337.8574
3420.368, 336.3875
3422.296, 332.5993
3424.225, 324.9234
3426.153, 323.0463
3428.082, 335.1471
3430.010, 339.8755
3431.938, 329.4330
3433.867, 328.8945
3435.795, 337.3883
3437.724, 343.0745
3439.652, 346.0082
3441.581, 345.9010
3443.509, 343.6387
3445.438, 333.2543
3447.366, 336.3375
3449.295, 382.1960
3451.223, 384.7775
3453.152, 342.0678
3455.080, 355.1323
3457.009, 400.3965
3458.937, 389.5605
3460.865, 361.3182
3462.794, 356.2852
3464.722, 354.9272
3466.651, 345.2877
3468.579, 343.3566
3470.508, 352.2707
3472.436, 349.9600
3474.365, 338.4676
3476.293, 339.3672
3478.222, 345.4214
3480.150, 347.1540
3482.079, 347.0493
3484.007, 346.9490
3485.936, 344.1628
3487.864, 335.2750
3489.792, 338.6304
3491.721, 353.2457
3493.649, 356.5494
3495.578, 353.1075
3497.506, 350.3643
3499.435, 347.0896
3501.363, 340.2213
3503.292, 337.9400
3505.220, 348.0201
3507.149, 350.6338
3509.077, 346.1669
3511.006, 341.8473
3512.934, 339.6562
3514.863, 345.2914
3516.791, 352.7408
3518.719, 360.0516
3520.648, 361.7715
3522.576, 355.1742
3524.505, 346.6844
3526.433, 337.9049
3528.362, 346.0574
3530.290, 362.7404
3532.219, 371.6272
3534.147, 373.6796
3536.076, 366.7585
3538.004, 357.1483
3539.933, 345.2102
3541.861, 339.9541
3543.790, 341.9060
3545.718, 345.0384
3547.646, 348.5530
3549.575, 350.6625
3551.503, 353.0127
3553.432, 358.0963
3555.360, 360.1861
3557.289, 356.5598
3559.217, 356.9123
3561.146, 360.4401
3563.074, 355.2832
3565.003, 348.5645
3566.931, 350.8718
3568.860, 356.6507
3570.788, 366.7003
3572.717, 366.9605
3574.645, 351.1912
3576.573, 348.5253
3578.502, 355.3051
3580.430, 356.4780
3582.359, 356.7266
3584.287, 362.6853
3586.216, 367.1079
3588.144, 366.3963
3590.073, 363.6372
3592.001, 359.3651
3593.930, 360.4298
3595.858, 364.5076
3597.787, 368.5263
3599.715, 369.4111
3601.644, 359.8917
3603.572, 358.6485
3605.500, 371.4854
3607.429, 374.7463
3609.357, 369.8854
3611.286, 376.7433
3613.214, 384.1082
3615.143, 374.2463
3617.071, 365.5361
3619.000, 368.1152
3620.928, 369.2099
3622.857, 368.0175
3624.785, 374.0573
3626.714, 381.6749
3628.642, 372.9091
3630.571, 363.9563
3632.499, 366.4988
3634.427, 372.7738
3636.356, 382.2615
3638.284, 378.7359
3640.213, 366.2968
3642.141, 368.1183
3644.070, 373.4839
3645.998, 371.0621
3647.927, 368.1933
3649.855, 367.0386
3651.784, 366.2195
3653.712, 366.0969
3655.641, 377.5582
3657.569, 389.7683
3659.498, 384.1995
3661.426, 378.1685
3663.354, 380.9924
3665.283, 382.6735
3667.211, 381.6129
3669.140, 380.4723
3671.068, 380.1984
3672.997, 385.1664
3674.925, 387.8618
3676.854, 380.3979
3678.782, 375.3532
3680.711, 375.0378
3682.639, 376.4524
3684.568, 379.1672
3686.496, 384.6542
3688.425, 387.3168
3690.353, 378.7701
3692.281, 373.6266
3694.210, 375.6287
3696.138, 374.5495
3698.067, 371.7971
3699.995, 377.7917
3701.924, 385.2940
3703.852, 388.9350
3705.781, 388.1720
3707.709, 381.8568
3709.638, 379.3910
3711.566, 381.2250
3713.495, 390.0924
3715.423, 398.5212
3717.352, 397.5868
3719.280, 395.2585
3721.208, 393.3051
3723.137, 392.4465
3725.065, 392.6500
3726.994, 397.0568
3728.922, 398.4733
3730.851, 381.2484
3732.779, 376.3647
3734.708, 394.9505
3736.636, 402.6901
3738.565, 400.1059
3740.493, 404.9672
3742.422, 408.6772
3744.350, 398.6371
3746.279, 392.2271
3748.207, 394.3219
3750.135, 396.4844
3752.064, 397.7776
3753.992, 394.7270
3755.921, 392.7902
3757.849, 399.1566
3759.778, 404.3570
3761.706, 406.5744
3763.635, 402.0715
3765.563, 394.0010
3767.492, 396.3519
3769.420, 398.4515
3771.349, 387.5540
3773.277, 384.5044
3775.206, 393.2979
3777.134, 394.9502
3779.063, 392.5748
3780.991, 396.3811
3782.919, 401.1217
3784.848, 402.5533
3786.776, 406.6672
3788.705, 413.8636
3790.633, 413.0313
3792.562, 409.6124
3794.490, 416.2786
3796.419, 420.0960
3798.347, 411.1794
3800.276, 411.1418
3802.204, 419.9433
3804.133, 417.5108
3806.061, 410.3314
3807.990, 402.8536
3809.918, 402.7811
3811.846, 414.6683
3813.775, 420.1430
3815.703, 419.0069
3817.632, 412.9610
3819.560, 406.9988
3821.489, 403.0257
3823.417, 406.3129
3825.346, 417.5835
3827.274, 422.1194
3829.203, 421.2001
3831.131, 415.9364
3833.060, 411.2453
3834.988, 409.1682
3836.917, 411.2141
3838.845, 416.4904
3840.773, 415.8566
3842.702, 415.3432
3844.630, 425.9243
3846.559, 432.1776
3848.487, 426.2435
3850.416, 423.1981
3852.344, 422.1613
3854.273, 418.9353
3856.201, 418.6006
3858.130, 426.8451
3860.058, 430.2497
3861.987, 426.3532
3863.915, 423.3543
3865.844, 422.2162
3867.772, 425.8923
3869.700, 429.4149
3871.629, 430.8589
3873.557, 430.4704
3875.486, 430.0670
3877.414, 439.5585
3879.343, 444.9124
3881.271, 429.2930
3883.200, 423.0418
3885.128, 430.0582
3887.057, 432.4651
3888.985, 430.9526
3890.914, 426.2498
3892.842, 424.4818
3894.771, 426.7977
3896.699, 427.6621
3898.627, 427.9294
3900.556, 436.5969
3902.484, 440.7273
3904.413, 425.6945
3906.341, 424.2665
3908.270, 431.1519
3910.198, 425.3976
3912.127, 424.0101
3914.055, 441.5609
3915.984, 442.2638
3917.912, 415.4668
3919.841, 419.1250
3921.769, 436.0745
3923.698, 434.7033
3925.626, 431.9369
3927.554, 438.0254
3929.483, 442.7621
3931.411, 443.0163
3933.340, 438.9342
3935.268, 437.7308
3937.197, 440.5711
3939.125, 439.1704
3941.054, 437.1219
3942.982, 436.2971
3944.911, 437.0310
3946.839, 441.7906
3948.768, 440.6663
3950.696, 432.4391
3952.625, 436.4705
3954.553, 445.4166
3956.481, 450.2282
3958.410, 447.7842
3960.338, 436.2959
3962.267, 435.8438
3964.195, 439.5824
3966.124, 442.6411
3968.052, 446.2737
3969.981, 450.1941
3971.909, 449.0891
3973.838, 444.9805
3975.766, 445.1830
3977.695, 443.5346
3979.623, 438.1290
3981.552, 437.4610
3983.480, 440.7375
3985.408, 448.8950
3987.337, 455.8344
3989.265, 454.6729
3991.194, 453.8570
3993.122, 455.2305
3995.051, 455.8740
3996.979, 455.4408
3998.908, 458.2351
4000.836, 460.3267
4002.765, 458.9615
4004.693, 450.2202
4006.622, 441.6179
4008.550, 451.2041
4010.479, 459.8177
4012.407, 455.3713
4014.335, 457.4624
4016.264, 463.9732
4018.192, 464.7822
4020.121, 463.7434
4022.049, 463.1917
4023.978, 460.9050
4025.906, 457.3743
4027.835, 459.2924
4029.763, 461.6344
4031.692, 459.4624
4033.620, 455.7691
4035.549, 451.8964
4037.477, 452.2823
4039.406, 456.0337
4041.334, 462.0979
4043.262, 463.1350
4045.191, 461.2213
4047.119, 456.4750
4049.048, 452.2757
4050.976, 459.0378
4052.905, 464.0179
4054.833, 465.6125
4056.762, 470.3147
4058.690, 472.6391
4060.619, 469.6545
4062.547, 466.7104
4064.476, 466.9532
4066.404, 473.3339
4068.333, 477.2835
4070.261, 466.1130
4072.189, 460.9807
4074.118, 472.2447
4076.046, 474.8047
4077.975, 471.9543
4079.903, 469.1850
4081.832, 464.8148
4083.760, 466.9992
4085.689, 469.0615
4087.617, 468.4149
4089.546, 468.3831
4091.474, 472.4797
4093.403, 476.0101
4095.331, 477.0437
4097.260, 477.7584
4099.188, 481.2832
4101.117, 482.4877
4103.045, 481.4389
4104.974, 481.1596
4106.902, 478.0728
4108.831, 478.2305
4110.759, 479.0621
4112.688, 479.5272
4114.616, 480.4437
4116.544, 474.5789
4118.473, 473.1931
4120.401, 480.4973
4122.330, 477.1384
4124.258, 474.7570
4126.187, 486.1367
4128.115, 488.6617
4130.043, 483.7656
4131.972, 488.6828
4133.900, 490.6926
4135.829, 486.0161
4137.757, 484.3263
4139.686, 481.6134
4141.614, 489.8033
4143.543, 504.2434
4145.471, 495.8899
4147.400, 488.3167
4149.328, 505.2673
4151.257, 512.0646
4153.185, 503.6246
4155.114, 492.3593
4157.042, 488.1815
4158.971, 499.9123
4160.899, 503.5168
4162.828, 500.0388
4164.756, 503.3957
4166.685, 504.8404
4168.613, 501.6404
4170.542, 499.5660
4172.470, 500.6348
4174.398, 506.0330
4176.327, 508.7837
4178.255, 501.1328
4180.184, 495.9684
4182.112, 495.9287
4184.041, 505.6382
4185.969, 512.7432
4187.897, 506.4694
4189.826, 503.7234
4191.754, 503.8429
4193.683, 506.5285
4195.611, 508.7802
4197.540, 506.6921
4199.468, 501.6732
4201.397, 497.7410
4203.325, 513.7195
4205.254, 525.1055
4207.182, 511.6151
4209.111, 507.7476
4211.039, 511.2165
4212.968, 512.2209
4214.896, 515.6702
4216.825, 525.7494
4218.753, 528.1496
4220.682, 525.0116
4222.610, 522.4217
4224.539, 521.2260
4226.467, 522.7412
4228.396, 515.7753
4230.324, 507.9214
4232.252, 520.4506
4234.181, 529.1714
4236.109, 524.8252
4238.038, 525.6418
4239.966, 529.4211
4241.895, 530.9199
4243.823, 533.4788
4245.751, 538.0887
4247.680, 531.0867
4249.608, 525.6718
4251.537, 546.1111
4253.465, 558.8559
4255.394, 557.6022
4257.322, 554.2255
4259.251, 549.3873
4261.179, 539.7592
4263.108, 539.2421
4265.036, 548.2864
4266.965, 561.2429
4268.893, 566.0396
4270.822, 548.2385
4272.750, 538.6906
4274.679, 540.5106
4276.607, 556.6309
4278.536, 570.6993
4280.464, 574.8444
4282.393, 561.6025
4284.321, 541.8176
4286.250, 547.3147
4288.178, 553.5778
4290.106, 550.2457
4292.035, 546.7822
4293.963, 547.4487
4295.892, 564.0353
4297.820, 569.9200
4299.749, 558.3272
4301.677, 558.3962
4303.605, 563.2943
4305.534, 563.0386
4307.462, 569.1588
4309.391, 580.8344
4311.319, 573.9850
4313.248, 565.5098
4315.176, 570.9528
4317.105, 570.7859
4319.033, 567.4292
4320.962, 576.1853
4322.890, 582.9750
4324.819, 578.8294
4326.747, 573.1196
4328.676, 571.4313
4330.604, 594.3113
4332.533, 598.5898
4334.461, 570.4291
4336.390, 576.2337
4338.318, 589.7974
4340.247, 581.4108
4342.175, 578.4592
4344.104, 582.9607
4346.032, 589.1774
4347.960, 589.1879
4349.889, 575.5482
4351.817, 575.3477
4353.746, 583.4145
4355.674, 584.4813
4357.603, 587.2686
4359.531, 594.1525
4361.459, 595.8129
4363.388, 596.1971
4365.316, 599.9125
4367.245, 603.2633
4369.173, 606.0571
4371.102, 612.3913
4373.030, 614.8218
4374.959, 608.7574
4376.887, 605.1511
4378.816, 604.4067
4380.744, 607.0880
4382.673, 607.5273
4384.601, 604.2404
4386.530, 598.2623
4388.458, 593.3693
4390.387, 591.1063
4392.315, 601.3898
4394.244, 617.9201
4396.172, 607.2603
4398.101, 596.8933
4400.029, 601.0214
4401.958, 603.8217
4403.886, 607.6400
4405.814, 620.9836
4407.743, 621.4331
4409.671, 606.9230
4411.600, 605.4407
4413.528, 610.5231
4415.457, 620.6797
4417.385, 612.2075
4419.313, 598.0385
4421.242, 614.5596
4423.170, 621.9888
4425.099, 612.5587
4427.027, 616.0516
4428.956, 623.2793
4430.884, 629.9728
4432.813, 616.8571
4434.741, 596.2655
4436.670, 610.9449
4438.598, 625.1517
4440.527, 624.7471
4442.455, 631.3671
4444.384, 638.6528
4446.312, 641.1923
4448.241, 633.9177
4450.169, 621.4998
4452.098, 625.8812
4454.026, 630.3475
4455.955, 629.0233
4457.883, 628.8702
4459.812, 631.3584
4461.740, 639.9810
4463.668, 643.7912
4465.597, 641.4089
4467.525, 630.7972
4469.454, 620.9659
4471.382, 615.0621
4473.311, 622.7177
4475.239, 632.2860
4477.167, 627.6633
4479.096, 626.3473
4481.024, 628.3806
4482.953, 623.9575
4484.881, 624.3152
4486.810, 633.4507
4488.738, 638.3527
4490.667, 637.0830
4492.595, 625.1555
4494.524, 621.6714
4496.452, 625.1280
4498.381, 624.9805
4500.309, 625.7431
4502.238, 629.0226
4504.166, 637.0606
4506.095, 643.0684
4508.023, 639.2578
4509.952, 637.8373
4511.880, 638.4752
4513.809, 636.4906
4515.737, 642.2721
4517.666, 655.5242
4519.594, 646.0063
4521.522, 637.0866
4523.451, 643.5480
4525.379, 654.9885
4527.308, 662.8849
4529.236, 652.4462
4531.165, 641.5808
4533.093, 634.6981
4535.021, 642.0650
4536.950, 650.5803
4538.878, 655.2492
4540.807, 644.5549
4542.735, 635.7956
4544.664, 649.8904
4546.592, 651.2598
4548.521, 644.1765
4550.449, 652.6008
4552.378, 655.2115
4554.306, 646.3743
4556.235, 638.0652
4558.163, 638.6606
4560.092, 657.9432
4562.020, 656.3345
4563.949, 647.5401
4565.877, 653.7432
4567.806, 657.3915
4569.734, 657.3636
4571.663, 659.8484
4573.591, 661.4939
4575.520, 660.8739
4577.448, 658.0786
4579.376, 654.1024
4581.305, 649.2915
4583.233, 644.0788
4585.162, 645.4177
4587.090, 672.4521
4589.019, 680.7365
4590.947, 669.9360
4592.875, 665.0509
4594.804, 661.9456
4596.732, 659.0113
4598.661, 647.4453
4600.589, 642.9637
4602.518, 663.2761
4604.446, 661.2192
4606.375, 649.5538
4608.303, 651.4860
4610.232, 656.4692
4612.160, 661.4402
4614.089, 662.4977
4616.017, 662.5413
4617.946, 662.6531
4619.874, 672.7284
4621.803, 678.4816
4623.731, 669.5222
4625.660, 665.3610
4627.588, 662.8186
4629.517, 654.2360
4631.445, 657.9742
4633.374, 667.6309
4635.302, 658.9796
4637.230, 656.5761
4639.159, 665.2873
4641.087, 676.4009
4643.016, 679.7993
4644.944, 671.3409
4646.873, 669.9453
4648.801, 669.0165
4650.729, 659.7335
4652.658, 661.5536
4654.586, 671.2295
4656.515, 688.2523
4658.443, 685.4510
4660.372, 668.7791
4662.300, 665.5380
4664.229, 675.2438
4666.157, 693.0476
4668.086, 693.7300
4670.014, 682.1092
4671.943, 656.8759
4673.871, 651.6823
4675.800, 659.5343
4677.728, 678.1221
4679.657, 673.1525
4681.585, 660.9102
4683.514, 669.5992
4685.442, 671.1358
4687.371, 666.3658
4689.299, 665.0520
4691.228, 667.4999
4693.156, 672.3892
4695.084, 667.0972
4697.013, 672.4070
4698.941, 692.3285
4700.870, 676.2223
4702.798, 661.0359
4704.727, 672.9413
4706.655, 682.6428
4708.583, 687.1141
4710.512, 682.9752
4712.440, 684.8806
4714.369, 686.2562
4716.297, 672.0056
4718.226, 665.3570
4720.154, 666.1468
4722.083, 666.9581
4724.011, 669.9428
4725.940, 674.8386
4727.868, 678.3982
4729.797, 683.7612
4731.725, 690.8929
4733.654, 676.5989
4735.582, 670.0379
4737.511, 685.0162
4739.439, 694.4250
4741.368, 694.8881
4743.296, 683.6052
4745.225, 674.5679
4747.153, 672.1370
4749.082, 682.4404
4751.010, 688.5797
4752.938, 691.3071
4754.867, 695.5145
4756.795, 688.5291
4758.724, 677.8942
4760.652, 689.1591
4762.581, 686.0375
4764.509, 671.1270
4766.438, 681.6540
4768.366, 689.1469
4770.294, 687.7354
4772.223, 680.9927
4774.151, 686.6085
4776.080, 710.4212
4778.008, 707.2863
4779.937, 702.6650
4781.865, 707.3057
4783.794, 703.8843
4785.722, 699.7880
4787.651, 699.5155
4789.579, 713.8153
4791.508, 723.5698
4793.436, 712.4380
4795.365, 706.4535
4797.293, 706.4700
4799.222, 713.2982
4801.150, 719.3532
4803.079, 720.1723
4805.007, 708.4175
4806.936, 698.2224
4808.864, 692.4171
4810.792, 693.1324
4812.721, 697.2778
4814.649, 701.5411
4816.578, 697.2220
4818.506, 697.8146
4820.435, 703.8684
4822.363, 714.2397
4824.292, 710.5087
4826.220, 696.0590
4828.148, 705.3164
4830.077, 711.2477
4832.005, 709.4481
4833.934, 712.8972
4835.862, 713.8952
4837.791, 710.7182
4839.719, 710.4109
4841.648, 714.7466
4843.576, 721.7924
4845.505, 708.8063
4847.433, 693.4476
4849.362, 683.8708
4851.290, 712.8119
4853.219, 728.9359
4855.147, 711.2294
4857.076, 712.4513
4859.004, 718.0754
4860.933, 719.9508
4862.861, 700.9597
4864.790, 693.0167
4866.718, 715.1088
4868.646, 723.5778
4870.575, 728.3155
4872.503, 736.2040
4874.432, 716.4276
4876.360, 702.9434
4878.289, 724.0994
4880.217, 726.2020
4882.146, 719.9634
4884.074, 712.9850
4886.002, 720.9761
4887.931, 730.6327
4889.859, 729.1531
4891.788, 732.9250
4893.716, 736.5004
4895.645, 735.8585
4897.573, 725.8259
4899.502, 720.1686
4901.430, 734.0928
4903.359, 727.6259
4905.287, 722.4779
4907.216, 736.6210
4909.144, 730.3146
4911.073, 717.5383
4913.001, 710.1466
4914.930, 714.6392
4916.858, 721.4418
4918.787, 724.2563
4920.715, 710.0063
4922.644, 702.7776
4924.572, 720.8381
4926.500, 712.2807
4928.429, 705.1742
4930.357, 727.0148
4932.286, 730.7922
4934.214, 732.8142
4936.143, 742.9046
4938.071, 741.7055
4940.000, 734.0084
4941.928, 721.8552
4943.856, 728.9789
4945.785, 732.3958
4947.713, 720.9297
4949.642, 732.0577
4951.570, 735.5298
4953.499, 717.4582
4955.427, 716.9376
4957.356, 725.2068
4959.284, 736.9672
4961.213, 721.1107
4963.141, 712.3788
4965.070, 721.0662
4966.998, 728.8281
4968.927, 731.5240
4970.855, 728.4926
4972.784, 724.7692
4974.712, 719.3181
4976.641, 715.2133
4978.569, 733.2652
4980.498, 741.0182
4982.426, 735.8892
4984.354, 736.9374
4986.283, 740.5356
4988.211, 745.6750
4990.140, 753.2444
4992.068, 751.7035
4993.997, 747.4895
4995.925, 763.3555
4997.854, 758.9465
4999.782, 742.5804
5001.710, 734.4772
5003.639, 736.1572
5005.567, 740.3677
5007.496, 736.7746
5009.424, 742.2566
5011.353, 747.0399
5013.281, 737.8983
5015.210, 727.0580
5017.138, 729.4049
5019.067, 755.7807
5020.995, 758.5443
5022.924, 746.3503
5024.852, 726.3110
5026.781, 728.2573
5028.709, 736.8700
5030.638, 743.9748
5032.566, 729.9059
5034.495, 722.0134
5036.423, 727.5193
5038.352, 742.0209
5040.280, 753.4786
5042.208, 758.0024
5044.137, 748.7037
5046.065, 748.0989
5047.994, 755.6532
5049.922, 764.9707
5051.851, 750.1231
5053.779, 732.9156
5055.708, 755.1660
5057.636, 760.3102
5059.564, 755.0189
5061.493, 748.6019
5063.421, 743.6110
5065.350, 740.4658
5067.278, 739.2128
5069.207, 742.6924
5071.135, 744.0716
5073.064, 740.1198
5074.992, 731.7045
5076.921, 727.0188
5078.849, 729.9575
5080.778, 755.2621
5082.706, 747.9329
5084.635, 720.9643
5086.563, 740.2435
5088.492, 751.9673
5090.420, 751.7055
5092.349, 741.5688
5094.277, 752.4219
5096.206, 766.2374
5098.134, 762.9124
5100.063, 760.5284
5101.991, 760.1220
5103.919, 762.2031
5105.848, 744.4311
5107.776, 734.8450
5109.705, 740.5408
5111.633, 741.3301
5113.562, 744.1024
5115.490, 748.5088
5117.418, 749.1510
5119.347, 746.6321
5121.275, 742.4297
5123.204, 737.5905
5125.132, 742.6121
5127.061, 745.2009
5128.989, 733.4000
5130.918, 738.6313
5132.846, 746.6841
5134.775, 748.7440
5136.703, 752.0906
5138.632, 754.0173
5140.560, 753.2454
5142.489, 745.4754
5144.417, 744.6615
5146.346, 752.4779
5148.274, 775.5685
5150.203, 764.1094
5152.131, 746.3942
5154.060, 757.1840
5155.988, 761.5909
5157.917, 760.8073
5159.845, 757.5179
5161.773, 761.7227
5163.702, 767.3545
5165.630, 770.2515
5167.559, 758.7197
5169.487, 754.0753
5171.416, 757.6401
5173.344, 764.4399
5175.272, 779.4499
5177.201, 791.0435
5179.129, 788.6911
5181.058, 768.0442
5182.986, 759.9649
5184.915, 776.1295
5186.843, 759.6702
5188.772, 749.1057
5190.700, 751.8270
5192.629, 760.7114
5194.557, 766.6554
5196.486, 769.7751
5198.414, 771.6912
5200.343, 773.4729
5202.271, 774.7100
5204.200, 775.0421
5206.128, 755.5159
5208.057, 745.4305
5209.985, 748.5244
5211.914, 743.1726
5213.842, 750.0484
5215.771, 763.9192
5217.699, 774.3478
5219.627, 780.2133
5221.556, 775.5876
5223.484, 757.2913
5225.413, 759.6331
5227.341, 758.8179
5229.270, 752.9637
5231.198, 768.2843
5233.126, 774.3455
5235.055, 773.0433
5236.983, 775.5407
5238.912, 770.5475
5240.840, 766.4081
5242.769, 768.5645
5244.697, 771.6422
5246.626, 771.0164
5248.554, 767.1473
5250.483, 764.2218
5252.411, 767.5132
5254.340, 774.0972
5256.268, 781.8837
5258.197, 776.3312
5260.125, 769.4617
5262.054, 766.1861
5263.982, 747.5459
5265.911, 740.9866
5267.839, 748.0748
5269.768, 759.8143
5271.696, 770.2056
5273.625, 769.1406
5275.553, 744.5349
5277.481, 751.6774
5279.410, 767.5880
5281.338, 779.6078
5283.267, 772.4288
5285.195, 767.4736
5287.124, 764.4738
5289.052, 758.2382
5290.980, 744.9247
5292.909, 753.4075
5294.837, 793.4250
5296.766, 777.3986
5298.694, 757.6954
5300.623, 752.1362
5302.551, 773.0837
5304.480, 770.1619
5306.408, 762.8129
5308.337, 769.5179
5310.265, 775.1179
5312.194, 769.4263
5314.122, 758.9646
5316.051, 775.1866
5317.979, 782.3379
5319.908, 782.2322
5321.836, 781.3361
5323.765, 779.6924
5325.693, 780.2645
5327.622, 781.2071
5329.550, 765.0076
5331.479, 770.7103
5333.407, 781.3448
5335.335, 770.0083
5337.264, 765.3290
5339.192, 765.2484
5341.121, 766.8141
5343.049, 762.7728
5344.978, 764.9354
5346.906, 771.4645
5348.834, 780.0134
5350.763, 768.2153
5352.691, 766.8010
5354.620, 782.7079
5356.548, 773.1122
5358.477, 764.6843
5360.405, 765.9537
5362.334, 781.3514
5364.262, 765.3238
5366.191, 756.8915
5368.119, 768.5599
5370.048, 764.9890
5371.976, 754.2748
5373.905, 755.2539
5375.833, 792.0318
5377.762, 787.9819
5379.690, 778.4288
5381.619, 779.3638
5383.547, 795.8779
5385.476, 780.6038
5387.404, 763.9524
5389.333, 783.1549
5391.261, 787.2939
5393.189, 782.5941
5395.118, 775.3437
5397.046, 773.6421
5398.975, 782.2817
5400.903, 793.9889
5402.832, 801.3009
5404.760, 781.4108
5406.688, 776.9138
5408.617, 785.9108
5410.545, 777.3268
5412.474, 773.5753
5414.402, 781.4230
5416.331, 800.8201
5418.259, 790.5409
5420.188, 789.0729
5422.116, 793.5305
5424.045, 788.1693
5425.973, 783.4583
5427.902, 781.3380
5429.830, 782.0272
5431.759, 785.6957
5433.687, 787.9805
5435.616, 786.9023
5437.544, 780.1158
5439.473, 793.2118
5441.401, 791.1606
5443.330, 777.0308
5445.258, 778.9401
5447.187, 779.6046
5449.115, 776.2769
5451.043, 766.9580
5452.972, 732.2883
5454.900, 740.2195
5456.829, 771.9558
5458.757, 796.8067
5460.686, 780.4803
5462.614, 765.6656
5464.542, 766.4275
5466.471, 781.7122
5468.399, 777.5955
5470.328, 781.7095
5472.256, 806.2214
5474.185, 802.4525
5476.113, 807.4886
5478.042, 807.2766
5479.970, 776.9963
5481.899, 788.7017
5483.827, 788.9359
5485.756, 772.6599
5487.684, 777.2141
5489.613, 789.2421
5491.541, 791.2308
5493.470, 778.1379
5495.398, 774.0948
5497.327, 775.7244
5499.255, 777.8060
5501.184, 776.8765
5503.112, 793.4482
5505.041, 801.5610
5506.969, 795.6782
5508.897, 775.4989
5510.826, 767.2132
5512.754, 774.5718
5514.683, 792.3691
5516.611, 800.2570
5518.540, 803.6345
5520.468, 795.8786
5522.396, 776.9243
5524.325, 784.6172
5526.253, 784.1301
5528.182, 778.0284
5530.110, 776.5226
5532.039, 796.6782
5533.967, 791.9658
5535.896, 773.9308
5537.824, 798.8649
5539.753, 795.1442
5541.681, 785.6822
5543.610, 781.3813
5545.538, 779.1976
5547.467, 788.8594
5549.395, 800.4103
5551.324, 805.2821
5553.252, 790.7208
5555.181, 800.6919
5557.109, 808.9656
5559.038, 789.5204
5560.966, 781.9786
5562.895, 786.2610
5564.823, 788.1132
5566.751, 763.9084
5568.680, 789.2824
5570.608, 800.3346
5572.537, 791.8979
5574.465, 790.4819
5576.394, 799.5352
5578.322, 798.6237
5580.250, 785.6127
5582.179, 774.0561
5584.107, 778.6030
5586.036, 793.3110
5587.964, 808.0563
5589.893, 793.2028
5591.821, 804.2407
5593.750, 817.1062
5595.678, 813.5197
5597.607, 797.0227
5599.535, 795.9832
5601.464, 799.7833
5603.392, 796.0978
5605.321, 780.1465
5607.249, 775.4310
5609.178, 782.2630
5611.106, 794.3273
5613.035, 788.0513
5614.963, 797.7164
5616.892, 808.5522
5618.820, 796.4385
5620.749, 792.5845
5622.677, 810.5593
5624.605, 826.7061
5626.534, 798.4656
5628.462, 793.7445
5630.391, 789.8160
5632.319, 789.6639
5634.248, 808.5524
5636.176, 826.2230
5638.104, 830.0815
5640.033, 823.5839
5641.961, 817.7598
5643.890, 784.4299
5645.818, 784.2989
5647.747, 810.8833
5649.675, 814.6556
5651.604, 809.1295
5653.532, 806.1428
5655.461, 811.2796
5657.389, 833.5911
5659.318, 819.9378
5661.246, 808.8646
5663.175, 809.1096
5665.103, 807.0543
5667.032, 805.3464
5668.960, 814.6409
5670.889, 825.0197
5672.817, 811.2206
5674.746, 807.1248
5676.674, 799.6890
5678.603, 794.5428
5680.531, 812.5161
5682.459, 805.5104
5684.388, 797.7622
5686.316, 797.9649
5688.245, 805.1779
5690.173, 790.2498
5692.102, 787.0082
5694.030, 798.0153
5695.958, 808.4385
5697.887, 817.3441
5699.815, 813.8203
5701.744, 804.1446
5703.672, 801.6198
5705.601, 823.4533
5707.529, 816.7830
5709.458, 793.5360
5711.386, 785.2468
5713.315, 791.7772
5715.243, 801.4243
5717.172, 802.0414
5719.100, 786.9767
5721.029, 774.6215
5722.957, 805.3915
5724.886, 821.3501
5726.814, 778.7674
5728.743, 805.4182
5730.671, 812.8428
5732.600, 807.6887
5734.528, 806.9727
5736.457, 818.0590
5738.385, 806.0302
5740.313, 802.1968
5742.242, 814.6895
5744.170, 794.7900
5746.099, 815.9781
5748.027, 825.1303
5749.956, 807.9002
5751.884, 797.5865
5753.813, 805.1242
5755.741, 826.1016
5757.669, 836.9000
5759.598, 806.2131
5761.526, 792.0692
5763.455, 779.8044
5765.383, 784.0854
5767.312, 823.5425
5769.240, 801.4268
5771.169, 811.4406
5773.097, 824.8239
5775.026, 805.3002
5776.954, 823.3599
5778.883, 822.8028
5780.811, 818.9446
5782.740, 821.3525
5784.668, 803.6497
5786.597, 814.7742
5788.525, 819.5587
5790.454, 807.4638
5792.382, 792.5085
5794.311, 805.1696
5796.239, 813.7621
5798.167, 807.5524
5800.096, 789.0534
5802.024, 784.7021
5803.953, 803.5508
5805.881, 807.8474
5807.810, 780.6081
5809.738, 805.9121
5811.667, 811.2853
5813.595, 818.2739
5815.523, 832.7458
5817.452, 819.3168
5819.380, 816.7310
5821.309, 810.5671
5823.237, 802.2161
5825.166, 802.6724
5827.094, 822.6146
5829.023, 820.7095
5830.951, 815.8036
5832.880, 827.0741
5834.808, 804.1681
5836.737, 794.5461
5838.665, 804.1992
5840.594, 816.0951
5842.522, 786.8204
5844.451, 798.2206
5846.379, 806.3604
5848.308, 806.3825
5850.236, 812.3763
5852.165, 808.0107
5854.093, 796.4785
5856.021, 792.9829
5857.950, 803.7570
5859.878, 812.4562
5861.807, 837.3373
5863.735, 840.7719
5865.664, 824.2089
5867.592, 817.0023
5869.521, 820.8482
5871.449, 823.9855
5873.377, 819.9660
5875.306, 809.1168
5877.234, 808.4327
5879.163, 806.8643
5881.091, 805.1136
5883.020, 804.0882
5884.948, 803.1249
5886.877, 810.4603
5888.805, 810.7750
5890.734, 812.1787
5892.662, 822.6479
5894.591, 821.4366
5896.519, 790.4943
5898.448, 793.8250
5900.376, 825.5503
5902.305, 806.0601
5904.233, 834.4282
5906.162, 822.6781
5908.090, 800.1465
5910.019, 809.1188
5911.947, 827.1345
5913.875, 809.2419
5915.804, 799.6013
5917.732, 810.8080
5919.661, 827.1306
5921.589, 813.1899
5923.518, 824.2803
5925.446, 828.1683
5927.375, 810.3505
5929.303, 838.2687
5931.231, 812.8663
5933.160, 808.1680
5935.088, 817.0829
5937.017, 801.3967
5938.945, 823.7768
5940.874, 831.5729
5942.802, 821.1703
5944.731, 806.1716
5946.659, 807.1802
5948.588, 838.9164
5950.516, 826.8511
5952.445, 815.4829
5954.373, 840.5036
5956.302, 822.2458
5958.230, 812.6273
5960.159, 820.2848
5962.087, 831.8154
5964.016, 830.1876
5965.944, 830.9319
5967.873, 822.1443
5969.801, 812.1173
5971.729, 809.0500
5973.658, 818.4074
5975.586, 819.3599
5977.515, 830.2426
5979.443, 832.9818
5981.372, 818.7501
5983.300, 816.0883
5985.229, 849.3633
5987.157, 843.2072
5989.085, 819.0416
5991.014, 822.0108
5992.942, 832.4772
5994.871, 831.3657
5996.799, 818.1503
5998.728, 805.0411
6000.656, 807.8668
6002.585, 826.8467
6004.513, 822.8497
6006.442, 809.9077
6008.370, 807.5016
6010.299, 838.4931
6012.227, 810.2446
6014.156, 811.4540
6016.084, 823.3249
6018.013, 825.2610
6019.941, 825.2558
6021.870, 813.1353
6023.798, 820.7693
6025.727, 833.4386
6027.655, 835.6997
6029.583, 830.4617
6031.512, 823.0922
6033.440, 823.0398
6035.369, 829.1563
6037.297, 833.5809
6039.226, 814.9050
6041.154, 822.5992
6043.083, 843.8174
6045.011, 848.8711
6046.939, 825.2100
6048.868, 812.0173
6050.796, 824.7547
6052.725, 819.0220
6054.653, 820.8517
6056.582, 855.8106
6058.510, 859.3770
6060.439, 844.9706
6062.367, 823.4866
6064.296, 814.4332
6066.224, 828.2620
6068.153, 841.0414
6070.081, 820.3517
6072.010, 825.6819
6073.938, 834.0214
6075.867, 816.7932
6077.795, 836.9268
6079.724, 816.7092
6081.652, 826.7044
6083.581, 840.5978
6085.509, 824.4221
6087.438, 826.6045
6089.366, 825.4422
6091.294, 820.6721
6093.223, 833.8184
6095.151, 862.0338
6097.080, 840.5969
6099.008, 832.4796
6100.937, 830.7572
6102.865, 825.0557
6104.793, 823.6169
6106.722, 863.4927
6108.650, 826.4257
6110.579, 832.5342
6112.507, 834.2714
6114.436, 817.7123
6116.364, 849.1239
6118.293, 840.4890
6120.221, 846.9410
6122.150, 833.7960
6124.078, 815.0342
6126.007, 845.9619
6127.935, 833.8324
6129.864, 830.4141
6131.792, 835.6531
6133.721, 840.6591
6135.649, 841.4167
6137.578, 862.1534
6139.506, 840.3062
6141.435, 835.0668
6143.363, 832.0944
6145.292, 815.7364
6147.220, 849.2667
6149.148, 835.6077
6151.077, 833.5242
6153.005, 832.6737
6154.934, 823.7272
6156.862, 823.1833
6158.791, 835.8178
6160.719, 819.5743
6162.647, 824.1224
6164.576, 841.6635
6166.504, 831.3226
6168.433, 844.6467
6170.361, 840.7808
6172.290, 834.1686
6174.218, 835.4863
6176.147, 843.6851
6178.075, 841.9271
6180.004, 871.0480
6181.932, 843.5533
6183.861, 814.7405
6185.789, 824.1367
6187.718, 858.8854
6189.646, 866.4342
6191.575, 842.1136
6193.503, 831.0745
6195.432, 833.8180
6197.360, 838.2715
6199.289, 864.7161
6201.217, 826.6183
6203.146, 813.5901
6205.074, 820.9412
6207.002, 832.9056
6208.931, 848.7058
6210.859, 847.7181
6212.788, 856.8160
6214.716, 852.8134
6216.645, 842.5313
6218.573, 839.1201
6220.501, 836.0125
6222.430, 829.6350
6224.358, 821.4938
6226.287, 824.4359
6228.215, 836.5352
6230.144, 842.9724
6232.072, 825.3789
6234.001, 848.5275
6235.929, 853.6802
6237.858, 845.1528
6239.786, 843.1213
6241.715, 849.0917
6243.643, 838.4940
6245.572, 816.5968
6247.500, 821.3507
6249.429, 830.2623
6251.357, 817.0287
6253.286, 819.4173
6255.214, 844.1961
6257.143, 849.8735
6259.071, 832.8336
6261.000, 820.3955
6262.928, 837.9999
6264.856, 851.2009
6266.785, 838.8341
6268.713, 844.1245
6270.642, 853.4692
6272.570, 849.1474
6274.499, 832.7951
6276.427, 848.8761
6278.355, 830.5352
6280.284, 819.0441
6282.212, 823.8084
6284.141, 827.2759
6286.069, 810.9292
6287.998, 825.6658
6289.926, 832.5233
6291.855, 841.0272
6293.783, 836.0380
6295.712, 817.7882
6297.640, 819.2338
6299.569, 855.3156
6301.497, 845.6271
6303.426, 827.7226
6305.354, 829.3077
6307.283, 842.6861
6309.211, 836.6539
6311.140, 851.5412
6313.068, 849.7785
6314.997, 845.3439
6316.925, 838.2892
6318.854, 823.5414
6320.782, 801.3604
6322.710, 820.2940
6324.639, 819.2682
6326.567, 813.5250
6328.496, 824.8034
6330.424, 844.7205
6332.353, 839.4364
6334.281, 873.7009
6336.209, 854.6834
6338.138, 828.0374
6340.066, 823.5773
6341.995, 838.8842
6343.923, 851.3038
6345.852, 821.1339
6347.780, 832.2118
6349.709, 840.2102
6351.637, 839.1544
6353.566, 840.3318
6355.494, 842.3224
6357.423, 806.7477
6359.351, 837.3258
6361.280, 833.3864
6363.208, 823.5235
6365.137, 834.9437
6367.065, 853.3012
6368.994, 826.0515
6370.922, 835.5059
6372.851, 834.5511
6374.779, 847.1161
6376.708, 857.3652
6378.636, 848.6656
6380.564, 833.8716
6382.493, 821.9625
6384.421, 843.5313
6386.350, 826.7927
6388.278, 815.9714
6390.207, 836.1609
6392.135, 851.6540
6394.063, 808.0376
6395.992, 817.3648
6397.920, 819.9346
6399.849, 814.8179
6401.777, 825.6613
6403.706, 848.8009
6405.634, 841.6434
6407.563, 823.6207
6409.491, 827.3203
6411.420, 843.1810
6413.348, 844.2383
6415.277, 832.5134
6417.205, 828.0085
6419.134, 830.9716
6421.062, 833.0806
6422.991, 836.1650
6424.919, 853.4501
6426.848, 854.1268
6428.776, 835.4742
6430.705, 837.3357
6432.633, 828.4291
6434.562, 825.8954
6436.490, 832.7997
6438.418, 816.5159
6440.347, 805.7867
6442.275, 820.2046
6444.204, 806.3575
6446.132, 812.6956
6448.061, 820.9073
6449.989, 816.0502
6451.917, 817.4724
6453.846, 818.1544
6455.774, 805.3530
6457.703, 810.9457
6459.631, 824.0475
6461.560, 836.7849
6463.488, 826.3339
6465.417, 827.3676
6467.345, 833.6931
6469.274, 815.8028
6471.202, 800.0720
6473.131, 811.7610
6475.059, 828.9822
6476.988, 833.0073
6478.916, 831.0565
6480.845, 830.1649
6482.773, 830.0901
6484.702, 832.6353
6486.630, 835.9143
6488.559, 828.8450
6490.487, 839.4397
6492.416, 825.5526
6494.344, 799.7756
6496.272, 804.9197
6498.201, 822.9752
6500.129, 818.3205
6502.058, 830.0973
6503.986, 813.6841
6505.915, 814.0203
6507.843, 830.2301
6509.771, 827.0735
6511.700, 804.4165
6513.628, 804.4376
6515.557, 819.5382
6517.485, 838.6677
6519.414, 827.5135
6521.342, 794.3411
6523.271, 776.0892
6525.199, 796.8255
6527.128, 818.0863
6529.056, 808.8690
6530.985, 802.5681
6532.913, 798.9720
6534.842, 788.9746
6536.770, 798.6021
6538.699, 834.8039
6540.627, 811.4646
6542.556, 797.3334
6544.484, 799.1735
6546.413, 794.5994
6548.341, 793.0562
6550.270, 812.7848
6552.198, 830.7960
6554.126, 801.9092
6556.055, 798.9803
6557.983, 813.6396
6559.912, 776.0341
6561.840, 784.0263
6563.769, 808.6001
6565.697, 821.5031
6567.625, 827.1378
6569.554, 811.8257
6571.482, 795.6873
6573.411, 793.6732
6575.339, 789.9011
6577.268, 789.4029
6579.196, 788.4761
6581.125, 795.4114
6583.053, 808.7115
6584.982, 785.1088
6586.910, 792.8300
##END=



