##NAMES=Hubnerite
##RRUFFID=R050556
##IDEAL CHEMISTRY=Mn^2+^(WO_4_)
##LOCALITY=Pasto Bueno, Ancash Department, Peru
##OWNER=RRUFF
##SOURCE=Dave Bunk Minerals
##DESCRIPTION=Blackish brown bladed crystal associated with quartz
##STATUS=The identification of this mineral has been confirmed by X-ray diffraction and chemical analysis
##URL=https://www.rruff.net/odr/rruff_sample/R050556
##MEASURED CHEMISTRY=Mn^2+^_0.98_W_1.00_O_4_
##DIFFRACTION SAMPLE DESCRIPTION=Powder
##CELL PARAMETERS=a: 4.8293 b: 5.7595 c: 4.9975 alpha: 90 beta: 88.859 gamma: 90 volume: 138.97 crystal system: monoclinic
##FILETYPE=Raman Processed
##RAMAN WAVELENGTH=532

172.5213, 593.3356
174.4497, 727.0505
176.3782, 866.9400
178.3067, 955.3461
180.2351, 978.7944
182.1636, 981.9724
184.0921, 977.8219
186.0205, 945.1047
187.9490, 955.9380
189.8775, 1013.938
191.8059, 1116.597
193.7344, 1249.318
195.6629, 1440.682
197.5913, 1629.570
199.5198, 1803.392
201.4483, 1975.685
203.3767, 2091.608
205.3052, 2124.152
207.2337, 2100.736
209.1621, 2051.890
211.0906, 1961.258
213.0191, 1851.185
214.9475, 1727.129
216.8760, 1585.835
218.8045, 1463.745
220.7329, 1351.458
222.6614, 1263.398
224.5899, 1238.291
226.5183, 1334.782
228.4468, 1424.539
230.3753, 1477.006
232.3037, 1499.727
234.2322, 1464.948
236.1607, 1322.523
238.0891, 1142.150
240.0176, 1019.237
241.9461, 956.0240
243.8745, 939.5078
245.8030, 965.6265
247.7315, 1042.469
249.6599, 1121.015
251.5884, 1222.864
253.5169, 1321.071
255.4453, 1383.684
257.3738, 1405.177
259.3023, 1404.616
261.2307, 1376.514
263.1592, 1309.967
265.0877, 1241.407
267.0161, 1175.949
268.9446, 1111.475
270.8731, 1051.619
272.8015, 979.8990
274.7300, 942.5881
276.6585, 945.0103
278.5869, 989.6433
280.5154, 1052.606
282.4439, 1146.962
284.3723, 1243.608
286.3008, 1319.732
288.2293, 1336.212
290.1577, 1407.701
292.0862, 1581.783
294.0147, 1813.976
295.9431, 2038.643
297.8716, 2283.391
299.8001, 2492.507
301.7285, 2627.644
303.6570, 2685.703
305.5855, 2776.723
307.5139, 2893.604
309.4424, 3059.178
311.3709, 3307.509
313.2993, 3690.484
315.2278, 4095.423
317.1563, 4559.376
319.0847, 5070.537
321.0132, 5502.379
322.9417, 5832.302
324.8701, 6085.573
326.7986, 6195.273
328.7271, 6128.279
330.6555, 5947.341
332.5840, 5668.730
334.5125, 5297.641
336.4409, 4900.735
338.3694, 4444.998
340.2979, 4022.319
342.2263, 3687.468
344.1548, 3437.912
346.0833, 3249.649
348.0117, 3170.939
349.9402, 3133.824
351.8687, 3037.830
353.7971, 2858.348
355.7256, 2645.860
357.6541, 2368.119
359.5826, 2045.708
361.5110, 1780.383
363.4395, 1585.297
365.3680, 1444.847
367.2964, 1380.508
369.2249, 1414.397
371.1534, 1437.526
373.0818, 1408.227
375.0103, 1353.533
376.9388, 1320.505
378.8672, 1288.201
380.7957, 1293.126
382.7242, 1357.922
384.6526, 1476.531
386.5811, 1618.251
388.5096, 1824.550
390.4380, 2036.595
392.3665, 2214.402
394.2950, 2367.865
396.2234, 2503.500
398.1519, 2553.634
400.0804, 2513.524
402.0088, 2415.356
403.9373, 2272.496
405.8658, 2092.372
407.7942, 1894.997
409.7227, 1686.521
411.6512, 1505.625
413.5796, 1350.702
415.5081, 1233.994
417.4366, 1163.356
419.3650, 1185.786
421.2935, 1199.899
423.2220, 1201.765
425.1504, 1179.403
427.0789, 1114.011
429.0074, 970.8527
430.9358, 822.2003
432.8643, 693.4266
434.7928, 586.5352
436.7212, 506.9888
438.6497, 463.1858
440.5782, 436.7628
442.5066, 414.1395
444.4351, 397.7253
446.3636, 384.1144
448.2920, 371.8679
450.2205, 361.5902
452.1490, 355.0411
454.0774, 354.3189
456.0059, 355.2979
457.9344, 354.7467
459.8628, 351.5053
461.7913, 347.7300
463.7198, 346.7535
465.6482, 346.4484
467.5767, 344.1228
469.5052, 338.5406
471.4336, 332.5663
473.3621, 327.9084
475.2906, 325.2989
477.2190, 325.7605
479.1475, 330.1059
481.0760, 335.6510
483.0044, 344.0124
484.9329, 355.2093
486.8614, 367.3172
488.7898, 377.2089
490.7183, 387.4211
492.6468, 398.4825
494.5752, 410.0050
496.5037, 425.4421
498.4322, 443.0094
500.3606, 466.3389
502.2891, 497.6796
504.2176, 532.8650
506.1460, 567.6870
508.0745, 606.0125
510.0030, 651.3150
511.9314, 703.7018
513.8599, 766.6481
515.7883, 827.0027
517.7168, 883.1883
519.6453, 938.9405
521.5737, 997.3308
523.5022, 1048.779
525.4307, 1099.827
527.3591, 1152.729
529.2876, 1210.144
531.2161, 1288.314
533.1445, 1397.840
535.0730, 1515.612
537.0015, 1624.549
538.9299, 1728.741
540.8584, 1819.694
542.7869, 1882.947
544.7153, 1912.972
546.6438, 1916.681
548.5723, 1883.000
550.5007, 1814.284
552.4292, 1710.318
554.3577, 1595.005
556.2861, 1481.041
558.2146, 1364.171
560.1431, 1259.128
562.0715, 1171.880
564.0000, 1109.668
565.9285, 1052.893
567.8569, 1002.970
569.7854, 955.4078
571.7139, 910.5283
573.6423, 860.3757
575.5708, 801.4156
577.4993, 726.6548
579.4277, 652.2296
581.3562, 595.7729
583.2847, 559.3121
585.2131, 525.1646
587.1416, 489.8659
589.0701, 457.4490
590.9985, 433.3318
592.9270, 421.6045
594.8555, 413.5465
596.7839, 406.5112
598.7124, 400.8292
600.6409, 398.5947
602.5693, 401.4928
604.4978, 404.4257
606.4263, 405.0006
608.3547, 403.3399
610.2832, 401.8229
612.2117, 402.1270
614.1401, 403.6345
616.0686, 405.1012
617.9971, 405.5595
619.9255, 409.6646
621.8540, 420.1081
623.7825, 431.2416
625.7109, 438.8629
627.6394, 442.5849
629.5679, 447.5067
631.4963, 454.0907
633.4248, 464.6523
635.3533, 477.6443
637.2817, 494.1118
639.2102, 515.7111
641.1387, 541.0682
643.0671, 578.5489
644.9956, 633.0091
646.9241, 703.7633
648.8525, 787.1337
650.7810, 886.9940
652.7095, 984.0098
654.6379, 1085.416
656.5664, 1186.956
658.4949, 1297.046
660.4233, 1414.753
662.3518, 1540.276
664.2803, 1679.253
666.2087, 1850.480
668.1372, 2043.174
670.0657, 2260.156
671.9941, 2501.225
673.9226, 2712.233
675.8511, 2844.395
677.7795, 2985.482
679.7080, 3170.981
681.6365, 3388.515
683.5649, 3648.908
685.4934, 3970.800
687.4219, 4334.106
689.3503, 4737.403
691.2788, 5182.724
693.2073, 5580.090
695.1357, 5939.902
697.0642, 6173.887
698.9927, 6259.477
700.9211, 6179.582
702.8496, 5970.733
704.7781, 5575.764
706.7065, 5135.749
708.6350, 4655.306
710.5635, 4152.597
712.4919, 3723.579
714.4204, 3370.904
716.3489, 3080.800
718.2773, 2866.449
720.2058, 2727.315
722.1343, 2596.106
724.0627, 2481.414
725.9912, 2353.672
727.9197, 2191.101
729.8481, 1948.336
731.7766, 1727.557
733.7051, 1533.427
735.6335, 1367.820
737.5620, 1230.731
739.4905, 1122.693
741.4189, 1034.132
743.3474, 968.1284
745.2759, 916.8301
747.2043, 872.6628
749.1328, 842.3273
751.0613, 814.7600
752.9897, 789.7702
754.9182, 765.6838
756.8467, 742.2638
758.7751, 718.8375
760.7036, 700.7396
762.6321, 689.8914
764.5605, 684.0624
766.4890, 680.8799
768.4175, 680.2217
770.3459, 678.9589
772.2744, 676.1199
774.2029, 674.0436
776.1313, 672.7675
778.0598, 672.0206
779.9883, 671.1137
781.9167, 668.9237
783.8452, 667.8279
785.7737, 670.0982
787.7021, 677.7685
789.6306, 687.1489
791.5591, 699.2493
793.4875, 711.3273
795.4160, 721.8699
797.3445, 729.8747
799.2729, 740.6647
801.2014, 752.6369
803.1299, 768.0177
805.0583, 790.1125
806.9868, 819.8777
808.9153, 855.3866
810.8438, 894.7820
812.7722, 941.7250
814.7007, 997.2664
816.6292, 1059.342
818.5576, 1139.471
820.4861, 1226.070
822.4146, 1336.666
824.3430, 1487.016
826.2715, 1663.721
828.2000, 1915.244
830.1284, 2180.675
832.0569, 2573.690
833.9854, 3178.135
835.9138, 4015.691
837.8423, 4989.439
839.7708, 6190.923
841.6992, 7457.549
843.6277, 8611.913
845.5562, 9658.577
847.4846, 10641.16
849.4131, 11351.26
851.3416, 12137.79
853.2700, 13277.91
855.1985, 14734.38
857.1270, 16356.94
859.0554, 18439.49
860.9839, 20467.23
862.9124, 22045.50
864.8408, 23130.95
866.7693, 24573.54
868.6978, 26181.19
870.6262, 28338.47
872.5547, 31357.18
874.4832, 35068.15
876.4116, 38986.16
878.3401, 43649.96
880.2686, 47913.86
882.1970, 51630.84
884.1255, 55603.96
886.0540, 56837.15
887.9824, 54523.82
889.9109, 50522.20
891.8394, 45249.50
893.7678, 38817.46
895.6963, 32865.45
897.6248, 27395.35
899.5532, 22818.93
901.4817, 19178.19
903.4102, 16534.98
905.3386, 14718.11
907.2671, 14121.16
909.1956, 13552.26
911.1240, 12954.03
913.0525, 12163.99
914.9810, 10845.40
916.9094, 8887.800
918.8379, 7099.013
920.7664, 5536.723
922.6948, 4246.520
924.6233, 3281.088
926.5518, 2703.520
928.4802, 2239.327
930.4087, 1922.561
932.3372, 1685.523
934.2656, 1505.313
936.1941, 1377.244
938.1226, 1267.607
940.0510, 1175.924
941.9795, 1097.302
943.9080, 1032.482
945.8364, 980.7490
947.7649, 933.4460
949.6934, 888.6791
951.6218, 847.1613
953.5503, 813.4658
955.4788, 792.6271
957.4072, 768.7614
959.3357, 737.3643
961.2642, 705.3375
963.1926, 681.1945
965.1211, 662.7662
967.0496, 644.8979
968.9780, 627.6938
970.9065, 612.7667
972.8350, 598.7408
974.7634, 581.1574
976.6919, 564.2302
978.6204, 550.0482
980.5488, 538.8447
982.4773, 531.6409
984.4058, 523.3115
986.3342, 510.0912
988.2627, 489.4362
990.1912, 470.3938
992.1196, 457.6539
994.0481, 450.3013
995.9766, 439.4919
997.9050, 421.4234
999.8335, 405.8070
1001.762, 395.6124
1003.690, 390.2530
1005.619, 389.0459
1007.547, 386.1118
1009.476, 381.2846
1011.404, 375.2585
1013.333, 372.5849
1015.261, 370.6682
1017.190, 368.8719
1019.118, 368.5847
1021.047, 369.6062
1022.975, 368.4663
1024.904, 362.9448
1026.832, 356.8619
1028.760, 357.7271
1030.689, 366.2202
1032.617, 372.8074
1034.546, 372.9512
1036.474, 368.2599
1038.403, 364.7278
1040.331, 364.5534
1042.260, 366.6348
1044.188, 371.5141
1046.117, 375.8689
1048.045, 375.4117
1049.974, 370.7245
1051.902, 368.2106
1053.831, 366.8498
1055.759, 364.8252
1057.688, 362.6565
1059.616, 365.2495
1061.544, 369.6471
1063.473, 373.7183
1065.401, 375.0898
1067.330, 372.5007
1069.258, 372.8465
1071.187, 377.8101
1073.115, 378.8550
1075.044, 374.4542
1076.972, 368.1403
1078.901, 364.6752
1080.829, 359.4641
1082.758, 349.3862
1084.686, 344.6840
1086.615, 347.5098
1088.543, 350.2832
1090.471, 344.1442
1092.400, 331.5773
1094.328, 322.3186
1096.257, 320.1980
1098.185, 317.0533
1100.114, 307.1674
1102.042, 292.4602
1103.971, 280.2947
1105.899, 277.0334
1107.828, 278.3116
1109.756, 277.7286
1111.685, 269.9357
1113.613, 261.5572
1115.542, 266.3756
1117.470, 268.2821
1119.398, 263.4642
1121.327, 255.9715
1123.255, 250.2770
1125.184, 243.1544
1127.112, 234.3708
1129.041, 226.3109
1130.969, 220.3958
1132.898, 217.6179
1134.826, 218.5974
1136.755, 220.9816
1138.683, 218.9243
1140.612, 213.1742
1142.540, 205.9758
1144.469, 200.1149
1146.397, 197.4219
1148.325, 197.3446
1150.254, 198.2170
1152.182, 199.1912
1154.111, 197.3882
1156.039, 192.3312
1157.968, 187.6072
1159.896, 188.0513
1161.825, 192.1193
1163.753, 192.2789
1165.682, 188.7442
1167.610, 185.4118
1169.539, 187.1734
1171.467, 189.1652
1173.396, 187.4848
1175.324, 185.2831
1177.252, 184.9188
1179.181, 187.1704
1181.109, 191.0645
1183.038, 190.3269
1184.966, 184.4075
1186.895, 180.9169
1188.823, 180.1252
1190.752, 179.8503
1192.680, 179.9167
1194.609, 183.6791
1196.537, 186.2477
1198.466, 180.9045
1200.394, 175.7944
1202.323, 179.8452
1204.251, 196.7168
1206.179, 204.9648
1208.108, 198.8103
1210.036, 191.7054
1211.965, 188.0114
1213.893, 187.3364
1215.822, 187.6336
1217.750, 188.4654
1219.679, 188.4277
1221.607, 190.9788
1223.536, 193.5401
1225.464, 190.4971
1227.393, 182.0677
1229.321, 178.4957
1231.250, 182.3564
1233.178, 185.7535
1235.106, 188.4521
1237.035, 191.9297
1238.963, 197.4085
1240.892, 206.8711
1242.820, 210.7793
1244.749, 202.9474
1246.677, 193.5525
1248.606, 193.3142
1250.534, 203.4828
1252.463, 209.0343
1254.391, 202.8698
1256.320, 197.2393
1258.248, 200.8527
1260.177, 210.5033
1262.105, 214.6384
1264.033, 210.4345
1265.962, 206.7872
1267.890, 209.8385
1269.819, 215.5374
1271.747, 219.5544
1273.676, 219.9748
1275.604, 215.4279
1277.533, 202.8273
1279.461, 197.6134
1281.390, 205.5331
1283.318, 215.7992
1285.247, 219.7959
1287.175, 217.3625
1289.104, 213.0333
1291.032, 206.1902
1292.960, 195.9611
1294.889, 182.3147
1296.817, 170.9157
1298.746, 164.9665
1300.674, 163.0468
1302.603, 157.7325
1304.531, 148.8955
1306.460, 141.4932
1308.388, 135.0602
1310.317, 129.1063
1312.245, 125.5015
1314.174, 126.2892
1316.102, 126.4011
1318.031, 121.3043
1319.959, 115.0175
1321.887, 109.6154
1323.816, 104.1357
1325.744, 103.6133
1327.673, 118.2326
1329.601, 128.0044
1331.530, 122.7227
1333.458, 110.6675
1335.387, 104.1830
1337.315, 105.1620
1339.244, 105.3503
1341.172, 101.5975
1343.101, 99.96304
1345.029, 105.6053
1346.958, 113.6826
1348.886, 114.6312
1350.814, 107.1727
1352.743, 100.4978
1354.671, 97.04555
1356.600, 95.37713
1358.528, 93.20882
1360.457, 91.99426
1362.385, 94.84905
1364.314, 103.2099
1366.242, 108.7264
1368.171, 109.1476
1370.099, 108.2911
1372.028, 106.7860
1373.956, 105.1425
1375.885, 103.8876
1377.813, 104.2824
1379.741, 102.3392
1381.670, 94.61960
1383.598, 88.67451
1385.527, 90.73313
1387.455, 100.0684
1389.384, 106.6649
1391.312, 109.5440
1393.241, 111.0503
1395.169, 113.3425
1397.098, 114.1841
1399.026, 108.7929
1400.955, 98.57378
1402.883, 93.20176
1404.812, 95.02044
1406.740, 97.87019
1408.668, 100.7387
1410.597, 102.4701
1412.525, 101.5352
1414.454, 98.11654
1416.382, 96.88986
1418.311, 100.0604
1420.239, 102.0563
1422.168, 100.1114
1424.096, 97.20676
1426.025, 95.47372
1427.953, 94.71275
1429.882, 94.05942
1431.810, 91.47431
1433.739, 92.37208
1435.667, 102.9616
1437.595, 112.9609
1439.524, 109.9844
1441.452, 92.82660
1443.381, 84.47343
1445.309, 91.78373
1447.238, 97.87558
1449.166, 97.90138
1451.095, 96.45660
1453.023, 98.43060
1454.952, 103.2741
1456.880, 106.9842
1458.809, 109.6624
1460.737, 111.1945
1462.666, 110.3854
1464.594, 109.2368
1466.522, 109.3755
1468.451, 110.7407
1470.379, 113.6070
1472.308, 119.3440
1474.236, 122.3871
1476.165, 117.7898
1478.093, 112.9634
1480.022, 114.3452
1481.950, 120.3734
1483.879, 122.4456
1485.807, 118.0796
1487.736, 115.6194
1489.664, 120.1181
1491.593, 124.2546
1493.521, 122.5211
1495.449, 116.4398
1497.378, 113.7821
1499.306, 116.7845
1501.235, 118.1717
1503.163, 117.2354
1505.092, 114.7625
1507.020, 109.2880
1508.949, 102.6595
1510.877, 99.87762
1512.806, 103.5030
1514.734, 106.3007
1516.663, 108.2978
1518.591, 109.0197
1520.520, 107.8075
1522.448, 105.9702
1524.376, 105.3722
1526.305, 106.0934
1528.233, 105.2225
1530.162, 101.1850
1532.090, 98.21858
1534.019, 98.41074
1535.947, 99.34122
1537.876, 99.47571
1539.804, 98.99197
1541.733, 94.20521
1543.661, 80.18951
1545.590, 72.48252
1547.518, 82.29358
1549.447, 94.20542
1551.375, 95.23417
1553.303, 89.56729
1555.232, 89.21841
1557.160, 96.23157
1559.089, 99.91895
1561.017, 94.08223
1562.946, 89.09985
1564.874, 94.20817
1566.803, 103.1142
1568.731, 103.4096
1570.660, 94.17638
1572.588, 88.97932
1574.517, 91.59924
1576.445, 94.89190
1578.374, 98.38272
1580.302, 99.55940
1582.230, 93.87118
1584.159, 81.89051
1586.087, 74.52734
1588.016, 74.20226
1589.944, 74.43383
1591.873, 74.48368
1593.801, 73.50508
1595.730, 70.40413
1597.658, 66.22968
1599.587, 64.17403
1601.515, 65.10664
1603.444, 64.30078
1605.372, 60.20028
1607.301, 56.01814
1609.229, 50.70819
1611.157, 46.87135
1613.086, 49.56420
1615.014, 59.60172
1616.943, 63.00471
1618.871, 53.05006
1620.800, 47.42828
1622.728, 49.75795
1624.657, 55.63372
1626.585, 65.98714
1628.514, 77.42675
1630.442, 79.64444
1632.371, 67.06444
1634.299, 59.57460
1636.228, 60.22315
1638.156, 61.81594
1640.084, 62.67230
1642.013, 63.37281
1643.941, 64.81413
1645.870, 66.81927
1647.798, 67.62732
1649.727, 66.25327
1651.655, 65.16928
1653.584, 61.57689
1655.512, 61.54568
1657.441, 73.97702
1659.369, 89.41939
1661.298, 89.13232
1663.226, 69.24943
1665.155, 58.24449
1667.083, 60.42667
1669.011, 64.71951
1670.940, 72.65742
1672.868, 78.96490
1674.797, 76.68951
1676.725, 70.02581
1678.654, 72.63201
1680.582, 89.57102
1682.511, 101.0155
1684.439, 104.9375
1686.368, 106.1174
1688.296, 100.6338
1690.225, 97.18518
1692.153, 106.5020
1694.082, 126.1486
1696.010, 140.8252
1697.938, 150.3368
1699.867, 155.2695
1701.795, 148.9049
1703.724, 146.4060
1705.652, 153.6029
1707.581, 167.3886
1709.509, 185.5911
1711.438, 207.9170
1713.366, 229.6794
1715.295, 252.5776
1717.223, 271.8209
1719.152, 282.9035
1721.080, 295.3203
1723.009, 312.5520
1724.937, 333.8708
1726.865, 360.9371
1728.794, 393.7738
1730.722, 416.8063
1732.651, 423.7871
1734.579, 432.0188
1736.508, 441.8522
1738.436, 453.9285
1740.365, 468.4418
1742.293, 485.3171
1744.222, 507.0082
1746.150, 533.6130
1748.079, 549.9764
1750.007, 545.4838
1751.936, 547.5321
1753.864, 560.6406
1755.792, 576.6540
1757.721, 599.1077
1759.649, 618.1223
1761.578, 617.6754
1763.506, 598.1335
1765.435, 581.4654
1767.363, 572.5412
1769.292, 557.9891
1771.220, 536.0721
1773.149, 509.9394
1775.077, 477.0642
1777.006, 443.2301
1778.934, 418.1694
1780.863, 400.3827
1782.791, 370.1047
1784.719, 311.9196
1786.648, 276.8306
1788.576, 293.7975
1790.505, 299.3710
1792.433, 265.2168
1794.362, 218.8148
1796.290, 183.9746
1798.219, 159.2319
1800.147, 137.3148
1802.076, 117.5211
1804.004, 103.9021
1805.933, 99.82861
1807.861, 96.99341
1809.790, 94.96258
1811.718, 91.66586
1813.646, 83.82459
1815.575, 74.13697
1817.503, 69.99667
1819.432, 71.77776
1821.360, 70.26430
1823.289, 62.53600
1825.217, 57.76535
1827.146, 59.86264
1829.074, 63.39181
1831.003, 67.10608
1832.931, 69.58516
1834.860, 67.94964
1836.788, 63.07121
1838.717, 60.32530
1840.645, 60.29153
1842.573, 60.64605
1844.502, 61.76027
1846.430, 61.69412
1848.359, 56.59631
1850.287, 52.70967
1852.216, 59.27584
1854.144, 69.92580
1856.073, 68.48011
1858.001, 54.61366
1859.930, 45.63406
1861.858, 44.45771
1863.787, 44.83705
1865.715, 46.02823
1867.644, 47.27876
1869.572, 48.12233
1871.500, 48.86296
1873.429, 50.10797
1875.357, 51.69759
1877.286, 52.22565
1879.214, 50.93399
1881.143, 51.24408
1883.071, 54.76927
1885.000, 57.94437
1886.928, 60.44509
1888.857, 61.71542
1890.785, 61.12632
1892.714, 59.14200
1894.642, 56.07407
1896.571, 51.82688
1898.499, 49.75978
1900.427, 50.86261
1902.356, 52.19828
1904.284, 56.54404
1906.213, 57.13483
1908.141, 46.27548
1910.070, 36.31033
1911.998, 39.99023
1913.927, 51.24902
1915.855, 54.99055
1917.784, 51.05076
1919.712, 48.02394
1921.641, 45.74776
1923.569, 46.64309
1925.498, 54.19899
1927.426, 59.91478
1929.354, 58.36562
1931.283, 55.17566
1933.211, 53.87785
1935.140, 54.63234
1937.068, 59.33164
1938.997, 67.47449
1940.925, 69.99600
1942.854, 64.00836
1944.782, 61.33949
1946.711, 69.06509
1948.639, 73.56374
1950.568, 64.34004
1952.496, 54.60827
1954.425, 57.03101
1956.353, 66.37271
1958.281, 71.91563
1960.210, 73.59086
1962.138, 73.63727
1964.067, 69.47613
1965.995, 68.47636
1967.924, 74.24156
1969.852, 78.20702
1971.781, 77.34900
1973.709, 74.74307
1975.638, 71.29499
1977.566, 68.11275
1979.495, 67.97330
1981.423, 70.44013
1983.352, 67.93073
1985.280, 58.55354
1987.208, 57.14125
1989.137, 70.63409
1991.065, 78.77299
1992.994, 70.94822
1994.922, 62.97561
1996.851, 64.54832
1998.779, 69.71881
2000.708, 73.03783
2002.636, 74.83899
2004.565, 76.09807
2006.493, 76.82998
2008.422, 75.66611
2010.350, 72.00100
2012.279, 67.98883
2014.207, 60.66146
2016.135, 57.68682
2018.064, 65.50842
2019.992, 74.34246
2021.921, 76.70338
2023.849, 75.74059
2025.778, 75.98952
2027.706, 77.45071
2029.635, 80.83685
2031.563, 87.65466
2033.492, 89.05489
2035.420, 81.97529
2037.349, 75.87286
2039.277, 73.18002
2041.206, 70.98225
2043.134, 66.00079
2045.063, 63.07585
2046.991, 66.81520
2048.919, 74.67799
2050.848, 85.35179
2052.776, 96.94429
2054.705, 97.02808
2056.633, 82.76836
2058.562, 76.09136
2060.490, 83.80305
2062.419, 90.01221
2064.347, 92.97054
2066.276, 91.98119
2068.204, 80.58845
2070.133, 71.27924
2072.061, 78.63242
2073.990, 93.46157
2075.918, 98.09814
2077.846, 93.52023
2079.775, 92.40408
2081.703, 95.47585
2083.632, 96.54404
2085.560, 94.03216
2087.489, 92.98562
2089.417, 94.66796
2091.346, 97.76316
2093.274, 105.4647
2095.203, 110.1704
2097.131, 102.0011
2099.060, 90.66174
2100.988, 90.04448
2102.917, 97.57888
2104.845, 104.1980
2106.773, 110.1492
2108.702, 112.8684
2110.630, 110.8857
2112.559, 108.2342
2114.487, 104.3264
2116.416, 100.6907
2118.344, 97.10317
2120.273, 94.54919
2122.201, 93.41831
2124.130, 93.61956
2126.058, 95.86124
2127.987, 98.99870
2129.915, 100.2697
2131.844, 100.3391
2133.772, 103.4362
2135.700, 110.0061
2137.629, 111.5776
2139.557, 104.6356
2141.486, 100.7718
2143.414, 103.6924
2145.343, 107.6845
2147.271, 113.4130
2149.200, 117.0121
2151.128, 114.5392
2153.057, 110.4213
2154.985, 108.0966
2156.914, 108.0569
2158.842, 112.8287
2160.771, 121.4613
2162.699, 125.8242
2164.627, 125.6382
2166.556, 125.0894
2168.484, 124.4459
2170.413, 124.0142
2172.341, 123.9867
2174.270, 123.9292
2176.198, 123.9853
2178.127, 123.6189
2180.055, 120.7672
2181.984, 119.1582
2183.912, 123.5815
2185.841, 130.6666
2187.769, 136.0765
2189.698, 139.1551
2191.626, 134.8756
2193.554, 122.9942
2195.483, 118.2841
2197.411, 122.2883
2199.340, 126.9117
2201.268, 132.2155
2203.197, 134.2211
2205.125, 129.3100
2207.054, 125.3874
2208.982, 126.7070
2210.911, 128.7460
2212.839, 127.9143
2214.768, 127.0605
2216.696, 129.8063
2218.625, 134.4205
2220.553, 136.7557
2222.481, 137.5508
2224.410, 143.0464
2226.338, 153.3362
2228.267, 157.8061
2230.195, 155.3301
2232.124, 150.8663
2234.052, 143.2689
2235.981, 139.8450
2237.909, 146.5144
2239.838, 151.0477
2241.766, 147.2314
2243.695, 142.3305
2245.623, 138.2636
2247.552, 137.2052
2249.480, 143.8361
2251.408, 153.1158
2253.337, 156.7084
2255.265, 156.0629
2257.194, 156.4930
2259.122, 157.6665
2261.051, 155.7645
2262.979, 150.3691
2264.908, 150.0513
2266.836, 157.9396
2268.765, 161.9111
2270.693, 156.5935
2272.622, 152.7742
2274.550, 153.6069
2276.479, 154.7633
2278.407, 152.9733
2280.335, 153.1194
2282.264, 161.7108
2284.192, 170.0585
2286.121, 168.0352
2288.049, 161.9462
2289.978, 161.6107
2291.906, 164.6345
2293.835, 164.3559
2295.763, 161.2384
2297.692, 160.2190
2299.620, 161.1658
2301.549, 165.5340
2303.477, 179.3336
2305.406, 181.8538
2307.334, 162.9716
2309.262, 155.6644
2311.191, 173.1630
2313.119, 185.7031
2315.048, 180.0045
2316.976, 173.5899
2318.905, 175.6263
2320.833, 179.7992
2322.762, 181.4392
2324.690, 183.1920
2326.619, 189.7401
2328.547, 197.1104
2330.476, 196.7278
2332.404, 191.7741
2334.333, 193.4263
2336.261, 200.7676
2338.189, 206.9224
2340.118, 211.6638
2342.046, 209.7057
2343.975, 199.1691
2345.903, 197.1681
2347.832, 211.4176
2349.760, 218.6033
2351.689, 208.9015
2353.617, 202.3528
2355.546, 204.3367
2357.474, 207.2397
2359.403, 208.3206
2361.331, 210.2721
2363.260, 215.6635
2365.188, 220.7729
2367.116, 223.8921
2369.045, 224.5185
2370.973, 218.7806
2372.902, 212.5504
2374.830, 216.5225
2376.759, 226.9177
2378.687, 235.3814
2380.616, 241.2423
2382.544, 237.4577
2384.473, 224.7642
2386.401, 223.4547
2388.330, 234.4815
2390.258, 237.8753
2392.187, 229.8927
2394.115, 227.2983
2396.043, 236.4750
2397.972, 241.5267
2399.900, 235.9391
2401.829, 233.3205
2403.757, 237.3596
2405.686, 242.7353
2407.614, 250.0302
2409.543, 255.1711
2411.471, 253.8494
2413.400, 253.0000
2415.328, 260.2254
2417.257, 266.5065
2419.185, 260.8075
2421.114, 252.6248
2423.042, 254.0034
2424.970, 260.3703
2426.899, 264.7527
2428.827, 267.4752
2430.756, 268.6826
2432.684, 269.0368
2434.613, 270.8547
2436.541, 274.0962
2438.470, 278.4739
2440.398, 284.1418
2442.327, 288.9520
2444.255, 294.6466
2446.184, 292.2347
2448.112, 278.1549
2450.041, 269.4764
2451.969, 267.8608
2453.897, 270.7602
2455.826, 278.5823
2457.754, 288.4180
2459.683, 304.4714
2461.611, 313.9684
2463.540, 310.2943
2465.468, 304.1237
2467.397, 295.4701
2469.325, 290.3440
2471.254, 293.7407
2473.182, 298.6483
2475.111, 300.7337
2477.039, 303.0468
2478.968, 310.2733
2480.896, 316.5659
2482.824, 313.7679
2484.753, 308.3474
2486.681, 309.0782
2488.610, 313.1378
2490.538, 316.0581
2492.467, 318.1307
2494.395, 320.0354
2496.324, 321.6574
2498.252, 321.6030
2500.181, 320.8357
2502.109, 325.8938
2504.038, 336.4435
2505.966, 342.0414
2507.895, 342.2527
2509.823, 343.0491
2511.751, 344.4645
2513.680, 346.6203
2515.608, 349.5718
2517.537, 352.4782
2519.465, 356.1522
2521.394, 355.9483
2523.322, 345.0792
2525.251, 342.5628
2527.179, 353.8135
2529.108, 361.9228
2531.036, 365.1086
2532.965, 363.0436
2534.893, 349.1144
2536.822, 345.5878
2538.750, 375.9547
2540.678, 392.4824
2542.607, 364.1090
2544.535, 342.4260
2546.464, 352.6210
2548.392, 366.1527
2550.321, 372.2180
2552.249, 376.7857
2554.178, 384.3039
2556.106, 390.1157
2558.035, 389.9465
2559.963, 388.2451
2561.892, 385.6361
2563.820, 386.3030
2565.749, 396.9614
2567.677, 409.9373
2569.605, 418.8127
2571.534, 424.5330
2573.462, 427.0380
2575.391, 427.7332
2577.319, 429.7712
2579.248, 430.3202
2581.176, 420.9156
2583.105, 408.6928
2585.033, 409.8497
2586.962, 418.5525
2588.890, 422.6525
2590.819, 423.7389
2592.747, 424.5559
2594.676, 426.1425
2596.604, 432.8166
2598.532, 443.4502
2600.461, 453.4404
2602.389, 462.0720
2604.318, 463.6601
2606.246, 460.2152
2608.175, 465.5526
2610.103, 479.1443
2612.032, 487.4529
2613.960, 490.5414
2615.889, 488.4748
2617.817, 481.2322
2619.746, 471.9100
2621.674, 460.9767
2623.603, 461.6322
2625.531, 475.5902
2627.459, 480.7700
2629.388, 473.2651
2631.316, 473.4489
2633.245, 482.5372
2635.173, 493.5327
2637.102, 507.0115
2639.030, 510.2600
2640.959, 500.4000
2642.887, 494.1805
2644.816, 493.4735
2646.744, 496.4078
2648.673, 503.9192
2650.601, 512.2300
2652.530, 521.9477
2654.458, 527.2073
2656.386, 526.3455
2658.315, 526.3272
2660.243, 529.1127
2662.172, 530.1581
2664.100, 527.6953
2666.029, 527.1315
2667.957, 529.1551
2669.886, 532.1163
2671.814, 536.8969
2673.743, 537.5015
2675.671, 529.3598
2677.600, 525.6423
2679.528, 528.8288
2681.457, 535.4352
2683.385, 548.4948
2685.313, 552.3524
2687.242, 540.5881
2689.170, 534.8472
2691.099, 540.9631
2693.027, 550.6232
2694.956, 569.4817
2696.884, 577.7741
2698.813, 569.0115
2700.741, 567.0592
2702.670, 579.5315
2704.598, 585.0231
2706.527, 575.5038
2708.455, 566.2317
2710.384, 555.7528
2712.312, 553.3771
2714.240, 561.8070
2716.169, 572.4728
2718.097, 585.8542
2720.026, 593.6357
2721.954, 590.1281
2723.883, 589.9900
2725.811, 598.0572
2727.740, 602.0193
2729.668, 599.2031
2731.597, 599.2257
2733.525, 603.7396
2735.454, 610.9817
2737.382, 622.6299
2739.311, 632.7011
2741.239, 643.4915
2743.167, 643.4106
2745.096, 627.7805
2747.024, 621.8725
2748.953, 631.6006
2750.881, 638.9052
2752.810, 639.2263
2754.738, 642.1885
2756.667, 648.6717
2758.595, 655.9061
2760.524, 664.4140
2762.452, 666.3594
2764.381, 659.0966
2766.309, 656.7191
2768.238, 659.7675
2770.166, 671.0903
2772.094, 692.4888
2774.023, 706.1692
2775.951, 711.1809
2777.880, 710.4853
2779.808, 703.7495
2781.737, 696.4384
2783.665, 687.5809
2785.594, 689.6919
2787.522, 702.2635
2789.451, 707.5414
2791.379, 705.9807
2793.308, 716.7697
2795.236, 738.4760
2797.165, 735.0182
2799.093, 709.4154
2801.021, 705.7227
2802.950, 719.2403
2804.878, 728.1320
2806.807, 733.2628
2808.735, 740.8031
2810.664, 749.6044
2812.592, 754.6956
2814.521, 757.4323
2816.449, 763.5479
2818.378, 769.8318
2820.306, 765.0156
2822.235, 758.4340
2824.163, 774.2939
2826.092, 797.2619
2828.020, 798.5695
2829.948, 790.3067
2831.877, 787.9402
2833.805, 787.9542
2835.734, 783.6030
2837.662, 782.0353
2839.591, 795.3692
2841.519, 810.6726
2843.448, 818.2728
2845.376, 819.9641
2847.305, 811.3334
2849.233, 804.9729
2851.162, 811.5622
2853.090, 821.2365
2855.019, 831.0453
2856.947, 838.1627
2858.875, 838.9860
2860.804, 840.4313
2862.732, 842.6517
2864.661, 850.8965
2866.589, 874.3026
2868.518, 888.3112
2870.446, 885.7561
2872.375, 876.2957
2874.303, 850.2379
2876.232, 843.8827
2878.160, 872.0042
2880.089, 894.8733
2882.017, 910.2898
2883.946, 912.3139
2885.874, 896.4940
2887.802, 888.3740
2889.731, 891.3860
2891.659, 894.4693
2893.588, 897.4910
2895.516, 902.2597
2897.445, 908.7501
2899.373, 918.4677
2901.302, 929.9294
2903.230, 921.4095
2905.159, 900.5955
2907.087, 916.7125
2909.016, 952.4383
2910.944, 960.4395
2912.873, 952.3631
2914.801, 949.3669
2916.729, 950.9030
2918.658, 957.7849
2920.586, 967.0984
2922.515, 978.7780
2924.443, 987.2913
2926.372, 984.8419
2928.300, 980.0728
2930.229, 977.3549
2932.157, 978.3538
2934.086, 984.7817
2936.014, 993.8656
2937.943, 1005.878
2939.871, 1017.585
2941.800, 1031.137
2943.728, 1036.133
2945.656, 1026.241
2947.585, 1019.740
2949.513, 1020.753
2951.442, 1027.586
2953.370, 1042.981
2955.299, 1050.062
2957.227, 1047.248
2959.156, 1046.084
2961.084, 1047.384
2963.013, 1056.705
2964.941, 1073.170
2966.870, 1065.683
2968.798, 1043.691
2970.727, 1047.951
2972.655, 1069.000
2974.583, 1086.664
2976.512, 1099.159
2978.440, 1098.150
2980.369, 1094.584
2982.297, 1103.885
2984.226, 1114.211
2986.154, 1111.986
2988.083, 1108.984
2990.011, 1113.330
2991.940, 1119.768
2993.868, 1129.722
2995.797, 1134.355
2997.725, 1122.673
2999.654, 1119.968
3001.582, 1134.260
3003.510, 1145.585
3005.439, 1149.845
3007.367, 1154.278
3009.296, 1161.210
3011.224, 1160.464
3013.153, 1152.050
3015.081, 1166.519
3017.010, 1199.765
3018.938, 1207.251
3020.867, 1195.737
3022.795, 1190.686
3024.724, 1192.711
3026.652, 1208.095
3028.581, 1227.015
3030.509, 1237.460
3032.438, 1243.329
3034.366, 1248.584
3036.294, 1250.489
3038.223, 1244.355
3040.151, 1239.164
3042.080, 1234.287
3044.008, 1241.026
3045.937, 1270.642
3047.865, 1287.161
3049.794, 1279.591
3051.722, 1276.723
3053.651, 1285.528
3055.579, 1293.195
3057.508, 1299.861
3059.436, 1292.965
3061.365, 1276.479
3063.293, 1282.503
3065.221, 1304.562
3067.150, 1325.963
3069.078, 1340.657
3071.007, 1328.259
3072.935, 1312.999
3074.864, 1329.203
3076.792, 1346.625
3078.721, 1333.763
3080.649, 1324.494
3082.578, 1336.303
3084.506, 1352.437
3086.435, 1381.608
3088.363, 1380.182
3090.292, 1329.308
3092.220, 1321.466
3094.148, 1378.382
3096.077, 1400.258
3098.005, 1380.880
3099.934, 1383.349
3101.862, 1401.600
3103.791, 1407.683
3105.719, 1406.660
3107.648, 1407.501
3109.576, 1411.776
3111.505, 1427.415
3113.433, 1440.157
3115.362, 1434.450
3117.290, 1427.467
3119.219, 1428.209
3121.147, 1431.597
3123.075, 1435.093
3125.004, 1445.556
3126.932, 1474.547
3128.861, 1481.361
3130.789, 1461.281
3132.718, 1450.951
3134.646, 1452.000
3136.575, 1467.437
3138.503, 1491.876
3140.432, 1510.810
3142.360, 1520.190
3144.289, 1500.986
3146.217, 1482.913
3148.146, 1501.127
3150.074, 1526.307
3152.002, 1547.990
3153.931, 1553.892
3155.859, 1524.743
3157.788, 1512.439
3159.716, 1539.102
3161.645, 1552.679
3163.573, 1549.713
3165.502, 1552.907
3167.430, 1563.855
3169.359, 1583.402
3171.287, 1606.228
3173.216, 1610.485
3175.144, 1605.675
3177.073, 1604.112
3179.001, 1603.793
3180.929, 1601.552
3182.858, 1601.321
3184.786, 1601.178
3186.715, 1611.147
3188.643, 1646.018
3190.572, 1667.223
3192.500, 1670.135
3194.429, 1673.101
3196.357, 1677.934
3198.286, 1675.405
3200.214, 1668.291
3202.143, 1672.906
3204.071, 1683.577
3206.000, 1689.047
3207.928, 1695.603
3209.856, 1711.083
3211.785, 1729.323
3213.713, 1754.256
3215.642, 1765.371
3217.570, 1737.463
3219.499, 1733.920
3221.427, 1764.769
3223.356, 1779.889
3225.284, 1774.496
3227.213, 1758.943
3229.141, 1740.313
3231.070, 1758.012
3232.998, 1787.701
3234.927, 1790.682
3236.855, 1785.800
3238.783, 1787.003
3240.712, 1792.800
3242.640, 1804.953
3244.569, 1814.901
3246.497, 1814.573
3248.426, 1825.138
3250.354, 1848.071
3252.283, 1863.013
3254.211, 1868.797
3256.140, 1864.819
3258.068, 1855.046
3259.997, 1840.524
3261.925, 1836.666
3263.854, 1877.021
3265.782, 1908.863
3267.710, 1889.013
3269.639, 1873.255
3271.567, 1879.846
3273.496, 1883.972
3275.424, 1878.493
3277.353, 1896.705
3279.281, 1933.348
3281.210, 1935.054
3283.138, 1920.196
3285.067, 1947.543
3286.995, 1976.612
3288.924, 1945.749
3290.852, 1921.562
3292.781, 1960.818
3294.709, 1989.665
3296.637, 1988.167
3298.566, 1982.810
3300.494, 1975.699
3302.423, 1982.777
3304.351, 2001.885
3306.280, 2013.169
3308.208, 2017.291
3310.137, 2008.768
3312.065, 2003.263
3313.994, 2024.251
3315.922, 2042.876
3317.851, 2040.363
3319.779, 2040.525
3321.708, 2046.171
3323.636, 2065.701
3325.564, 2099.386
3327.493, 2122.709
3329.421, 2133.991
3331.350, 2120.503
3333.278, 2099.603
3335.207, 2092.542
3337.135, 2093.825
3339.064, 2103.998
3340.992, 2113.217
3342.921, 2117.958
3344.849, 2124.427
3346.778, 2134.383
3348.706, 2141.799
3350.635, 2147.115
3352.563, 2148.927
3354.491, 2154.827
3356.420, 2193.807
3358.348, 2225.323
3360.277, 2208.159
3362.205, 2189.025
3364.134, 2190.200
3366.062, 2188.253
3367.991, 2179.891
3369.919, 2179.293
3371.848, 2187.734
3373.776, 2215.095
3375.705, 2246.984
3377.633, 2256.575
3379.562, 2248.703
3381.490, 2199.095
3383.418, 2186.081
3385.347, 2253.791
3387.275, 2305.064
3389.204, 2315.295
3391.132, 2311.125
3393.061, 2295.472
3394.989, 2291.055
3396.918, 2291.119
3398.846, 2277.846
3400.775, 2268.143
3402.703, 2273.336
3404.632, 2288.898
3406.560, 2323.470
3408.489, 2342.915
3410.417, 2343.861
3412.345, 2349.341
3414.274, 2359.905
3416.202, 2371.948
3418.131, 2384.476
3420.059, 2397.000
3421.988, 2407.552
3423.916, 2416.394
3425.845, 2417.176
3427.773, 2404.703
3429.702, 2402.185
3431.630, 2412.260
3433.559, 2427.780
3435.487, 2444.366
3437.416, 2455.485
3439.344, 2455.011
3441.272, 2413.705
3443.201, 2397.517
3445.129, 2452.232
3447.058, 2488.354
3448.986, 2485.397
3450.915, 2502.354
3452.843, 2533.298
3454.772, 2534.835
3456.700, 2522.827
3458.629, 2520.819
3460.557, 2525.230
3462.486, 2539.881
3464.414, 2547.660
3466.343, 2541.899
3468.271, 2547.344
3470.199, 2566.288
3472.128, 2595.033
3474.056, 2620.086
3475.985, 2592.318
3477.913, 2564.419
3479.842, 2593.905
3481.770, 2611.448
3483.699, 2590.927
3485.627, 2590.086
3487.556, 2620.636
3489.484, 2607.537
3491.413, 2578.396
3493.341, 2627.059
3495.270, 2688.642
3497.198, 2699.859
3499.126, 2688.000
3501.055, 2649.854
3502.983, 2641.060
3504.912, 2673.416
3506.840, 2683.780
3508.769, 2679.723
3510.697, 2687.493
3512.626, 2699.119
3514.554, 2701.653
3516.483, 2711.388
3518.411, 2744.750
3520.340, 2765.051
3522.268, 2769.415
3524.197, 2768.714
3526.125, 2767.600
3528.053, 2781.852
3529.982, 2798.727
3531.910, 2806.562
3533.839, 2809.216
3535.767, 2809.469
3537.696, 2794.926
3539.624, 2765.561
3541.553, 2789.733
3543.481, 2839.292
3545.410, 2805.582
3547.338, 2768.801
3549.267, 2818.194
3551.195, 2854.505
3553.124, 2843.880
3555.052, 2837.675
3556.980, 2842.430
3558.909, 2871.050
3560.837, 2902.292
3562.766, 2881.520
3564.694, 2853.138
3566.623, 2842.511
3568.551, 2857.077
3570.480, 2905.644
3572.408, 2928.914
3574.337, 2926.623
3576.265, 2936.300
3578.194, 2947.136
3580.122, 2938.481
3582.051, 2933.838
3583.979, 2946.600
3585.907, 2959.220
3587.836, 2967.792
3589.764, 2979.597
3591.693, 2989.756
3593.621, 2973.731
3595.550, 2961.416
3597.478, 2997.941
3599.407, 3024.458
3601.335, 3013.089
3603.264, 3021.055
3605.192, 3049.255
3607.121, 3057.660
3609.049, 3060.100
3610.978, 3089.444
3612.906, 3112.785
3614.834, 3110.383
3616.763, 3102.370
3618.691, 3091.542
3620.620, 3090.705
3622.548, 3099.524
3624.477, 3115.567
3626.405, 3135.016
3628.334, 3160.845
3630.262, 3172.456
3632.191, 3147.710
3634.119, 3147.689
3636.048, 3170.191
3637.976, 3187.778
3639.905, 3198.531
3641.833, 3192.262
3643.761, 3189.393
3645.690, 3202.959
3647.618, 3213.538
3649.547, 3219.271
3651.475, 3223.981
3653.404, 3231.234
3655.332, 3261.956
3657.261, 3278.823
3659.189, 3236.904
3661.118, 3219.434
3663.046, 3240.766
3664.975, 3268.186
3666.903, 3294.428
3668.832, 3298.569
3670.760, 3295.507
3672.688, 3294.930
3674.617, 3300.838
3676.545, 3316.231
3678.474, 3325.907
3680.402, 3329.222
3682.331, 3323.828
3684.259, 3323.006
3686.188, 3345.751
3688.116, 3369.052
3690.045, 3380.086
3691.973, 3412.408
3693.902, 3460.376
3695.830, 3467.586
3697.759, 3451.634
3699.687, 3423.826
3701.615, 3411.260
3703.544, 3434.964
3705.472, 3459.592
3707.401, 3480.685
3709.329, 3470.062
3711.258, 3452.835
3713.186, 3474.844
3715.115, 3495.638
3717.043, 3492.610
3718.972, 3488.339
3720.900, 3485.061
3722.829, 3491.473
3724.757, 3504.133
3726.686, 3530.399
3728.614, 3536.445
3730.542, 3474.526
3732.471, 3473.745
3734.399, 3532.791
3736.328, 3556.273
3738.256, 3561.721
3740.185, 3573.370
3742.113, 3593.411
3744.042, 3638.438
3745.970, 3647.448
3747.899, 3624.346
3749.827, 3626.268
3751.756, 3639.399
3753.684, 3648.044
3755.613, 3646.834
3757.541, 3610.240
3759.469, 3636.419
3761.398, 3709.707
3763.326, 3709.754
3765.255, 3687.145
3767.183, 3710.210
3769.112, 3724.912
3771.040, 3700.718
3772.969, 3691.099
3774.897, 3696.645
3776.826, 3726.051
3778.754, 3749.006
3780.683, 3726.540
3782.611, 3714.528
3784.540, 3732.371
3786.468, 3763.806
3788.396, 3794.990
3790.325, 3775.991
3792.253, 3756.763
3794.182, 3776.652
3796.110, 3791.636
3798.039, 3790.757
3799.967, 3796.907
3801.896, 3806.058
3803.824, 3811.331
3805.753, 3813.157
3807.681, 3805.917
3809.610, 3831.788
3811.538, 3892.083
3813.467, 3877.485
3815.395, 3844.560
3817.323, 3874.605
3819.252, 3900.215
3821.180, 3897.689
3823.109, 3907.093
3825.037, 3926.334
3826.966, 3922.740
3828.894, 3926.730
3830.823, 3985.688
3832.751, 4010.958
3834.680, 3985.047
3836.608, 3984.831
3838.537, 3994.404
3840.465, 3963.138
3842.394, 3943.758
3844.322, 3969.152
3846.250, 4000.024
3848.179, 4029.330
3850.107, 4016.747
3852.036, 4004.902
3853.964, 4060.416
3855.893, 4083.669
3857.821, 4046.567
3859.750, 4018.881
3861.678, 4008.356
3863.607, 4037.983
3865.535, 4068.421
3867.464, 4066.409
3869.392, 4084.374
3871.321, 4122.056
3873.249, 4123.108
3875.177, 4113.226
3877.106, 4128.978
3879.034, 4142.587
3880.963, 4141.774
3882.891, 4151.166
3884.820, 4166.522
3886.748, 4156.772
3888.677, 4156.169
3890.605, 4202.698
3892.534, 4225.801
3894.462, 4214.641
3896.391, 4198.979
3898.319, 4199.533
3900.248, 4266.296
3902.176, 4297.166
3904.104, 4261.161
3906.033, 4255.848
3907.961, 4268.982
3909.890, 4288.472
3911.818, 4305.725
3913.747, 4308.533
3915.675, 4287.736
3917.604, 4259.229
3919.532, 4297.392
3921.461, 4344.668
3923.389, 4346.881
3925.318, 4339.335
3927.246, 4331.982
3929.175, 4319.364
3931.103, 4312.455
3933.031, 4338.574
3934.960, 4360.233
3936.888, 4367.770
3938.817, 4401.479
3940.745, 4433.756
3942.674, 4449.678
3944.602, 4435.286
3946.531, 4353.849
3948.459, 4344.640
3950.388, 4407.011
3952.316, 4429.016
3954.245, 4430.187
3956.173, 4446.963
3958.102, 4465.927
3960.030, 4471.587
3961.958, 4468.898
3963.887, 4469.919
3965.815, 4474.908
3967.744, 4490.611
3969.672, 4520.683
3971.601, 4523.417
3973.529, 4513.217
3975.458, 4515.544
3977.386, 4513.903
3979.315, 4508.284
3981.243, 4536.757
3983.172, 4572.083
3985.100, 4578.472
3987.029, 4586.885
3988.957, 4582.297
3990.885, 4574.948
3992.814, 4569.391
3994.742, 4584.151
3996.671, 4611.618
3998.599, 4631.029
4000.528, 4627.330
4002.456, 4613.812
4004.385, 4630.697
4006.313, 4635.546
4008.242, 4625.844
4010.170, 4642.059
4012.099, 4665.147
4014.027, 4678.583
4015.956, 4691.918
4017.884, 4698.698
4019.813, 4699.243
4021.741, 4704.030
4023.669, 4708.505
4025.598, 4708.345
4027.526, 4727.050
4029.455, 4738.504
4031.383, 4731.627
4033.312, 4765.616
4035.240, 4807.728
4037.169, 4801.885
4039.097, 4781.207
4041.026, 4771.239
4042.954, 4798.022
4044.883, 4829.270
4046.811, 4830.897
4048.740, 4832.210
4050.668, 4851.803
4052.596, 4870.880
4054.525, 4880.421
4056.453, 4868.061
4058.382, 4851.606
4060.310, 4865.601
4062.239, 4864.670
4064.167, 4853.761
4066.096, 4875.220
4068.024, 4898.242
4069.953, 4911.570
4071.881, 4919.938
4073.810, 4920.262
4075.738, 4902.631
4077.667, 4903.135
4079.595, 4939.751
4081.523, 4962.395
4083.452, 4966.705
4085.380, 4953.563
4087.309, 4942.148
4089.237, 4941.291
4091.166, 4958.325
4093.094, 4986.217
4095.023, 4975.632
4096.951, 4965.180
4098.880, 4993.752
4100.808, 5002.573
4102.737, 4992.314
4104.665, 5004.120
4106.594, 5024.028
4108.522, 5033.353
4110.451, 5053.879
4112.379, 5084.513
4114.308, 5068.561
4116.236, 5045.626
4118.165, 5069.849
4120.093, 5075.684
4122.021, 5048.380
4123.950, 5054.372
4125.878, 5065.904
4127.807, 5043.082
4129.735, 5062.119
4131.664, 5127.759
4133.592, 5125.924
4135.521, 5110.183
4137.449, 5115.128
4139.377, 5123.786
4141.306, 5151.815
4143.234, 5171.019
4145.163, 5176.811
4147.091, 5179.196
4149.020, 5182.283
4150.948, 5179.559
4152.877, 5187.286
4154.805, 5206.149
4156.734, 5235.458
4158.662, 5239.171
4160.591, 5220.105
4162.519, 5243.408
4164.448, 5274.934
4166.376, 5264.830
4168.305, 5264.804
4170.233, 5268.098
4172.162, 5262.581
4174.090, 5275.936
4176.019, 5301.950
4177.947, 5326.551
4179.875, 5350.579
4181.804, 5311.206
4183.732, 5273.458
4185.661, 5315.031
4187.589, 5339.663
4189.518, 5323.729
4191.446, 5316.057
4193.375, 5322.610
4195.303, 5336.431
4197.231, 5379.313
4199.160, 5443.555
4201.088, 5447.132
4203.017, 5429.383
4204.945, 5402.224
4206.874, 5392.567
4208.802, 5404.747
4210.731, 5402.660
4212.659, 5400.207
4214.588, 5411.115
4216.516, 5430.700
4218.445, 5452.802
4220.373, 5476.723
4222.302, 5487.027
4224.230, 5443.529
4226.159, 5463.997
4228.087, 5508.512
4230.016, 5461.899
4231.944, 5433.757
4233.873, 5464.728
4235.801, 5494.888
4237.729, 5515.261
4239.658, 5507.535
4241.586, 5499.377
4243.515, 5497.965
4245.443, 5483.831
4247.372, 5472.518
4249.300, 5479.779
4251.229, 5503.229
4253.157, 5538.600
4255.085, 5555.094
4257.014, 5571.000
4258.942, 5620.495
4260.871, 5599.716
4262.799, 5535.767
4264.728, 5568.467
4266.656, 5603.559
4268.585, 5589.129
4270.513, 5565.401
4272.442, 5547.834
4274.370, 5567.417
4276.299, 5590.754
4278.227, 5606.626
4280.156, 5614.150
4282.084, 5619.102
4284.013, 5623.388
4285.941, 5653.890
4287.870, 5705.997
4289.798, 5654.898
4291.727, 5610.790
4293.655, 5707.926
4295.583, 5705.184
4297.512, 5624.253
4299.440, 5626.436
4301.369, 5657.143
4303.297, 5696.593
4305.226, 5701.904
4307.154, 5693.773
4309.083, 5724.405
4311.011, 5732.232
4312.939, 5698.081
4314.868, 5724.095
4316.796, 5753.036
4318.725, 5701.356
4320.653, 5698.009
4322.582, 5742.334
4324.510, 5736.866
4326.439, 5713.835
4328.367, 5674.421
4330.296, 5699.564
4332.224, 5752.107
4334.153, 5748.105
4336.081, 5725.392
4338.010, 5691.126
4339.938, 5692.467
4341.867, 5714.678
4343.795, 5757.677
4345.724, 5765.399
4347.652, 5737.092
4349.581, 5684.909
4351.509, 5667.950
4353.438, 5726.999
4355.366, 5755.927
4357.294, 5764.999
4359.223, 5782.831
4361.151, 5787.841
4363.080, 5775.709
4365.008, 5760.170
4366.937, 5740.117
4368.865, 5707.665
4370.793, 5724.217
4372.722, 5768.584
4374.650, 5748.656
4376.579, 5747.186
4378.507, 5789.455
4380.436, 5762.360
4382.364, 5729.380
4384.293, 5794.011
4386.221, 5797.936
4388.150, 5745.129
4390.078, 5731.120
4392.007, 5762.457
4393.935, 5864.012
4395.864, 5831.970
4397.792, 5754.718
4399.721, 5789.160
4401.649, 5828.205
4403.578, 5849.584
4405.506, 5831.698
4407.435, 5820.826
4409.363, 5853.436
4411.292, 5881.267
4413.220, 5898.158
4415.148, 5889.153
4417.077, 5884.685
4419.005, 5892.841
4420.934, 5960.658
4422.862, 6007.379
4424.791, 5972.986
4426.719, 5937.554
4428.647, 5921.916
4430.576, 5970.745
4432.504, 6000.946
4434.433, 5996.036
4436.361, 5989.520
4438.290, 5983.975
4440.218, 5977.518
4442.147, 5986.210
4444.075, 6010.875
4446.004, 6065.981
4447.932, 6087.477
4449.861, 6060.028
4451.789, 6065.369
4453.718, 6083.649
4455.646, 6107.232
4457.575, 6100.444
4459.503, 6085.225
4461.432, 6120.540
4463.360, 6126.192
4465.289, 6092.549
4467.217, 6099.307
4469.146, 6104.656
4471.074, 6081.106
4473.002, 6090.024
4474.931, 6112.463
4476.859, 6106.364
4478.788, 6120.919
4480.716, 6155.387
4482.645, 6144.589
4484.573, 6141.628
4486.501, 6188.483
4488.430, 6176.738
4490.358, 6152.617
4492.287, 6177.677
4494.215, 6189.909
4496.144, 6187.682
4498.072, 6202.530
4500.001, 6194.912
4501.929, 6156.293
4503.858, 6143.762
4505.786, 6162.468
4507.715, 6226.894
4509.643, 6255.482
4511.572, 6254.658
4513.500, 6242.022
4515.429, 6243.036
4517.357, 6260.782
4519.286, 6266.044
4521.214, 6270.809
4523.143, 6281.233
4525.071, 6301.005
4527.000, 6309.926
4528.928, 6279.159
4530.856, 6251.485
4532.785, 6232.623
4534.713, 6214.244
4536.642, 6218.773
4538.570, 6252.473
4540.499, 6311.032
4542.427, 6341.510
4544.355, 6277.423
4546.284, 6307.529
4548.212, 6367.767
4550.141, 6346.280
4552.069, 6344.961
4553.998, 6362.372
4555.926, 6307.238
4557.855, 6281.111
4559.783, 6313.077
4561.712, 6354.451
4563.640, 6369.425
4565.569, 6307.445
4567.497, 6298.622
4569.426, 6325.967
4571.354, 6373.895
4573.283, 6372.012
4575.211, 6337.585
4577.140, 6406.923
4579.068, 6422.298
4580.997, 6350.485
4582.925, 6346.229
4584.854, 6380.449
4586.782, 6449.910
4588.710, 6443.875
4590.639, 6399.103
4592.567, 6355.704
4594.496, 6343.085
4596.424, 6357.480
4598.353, 6391.289
4600.281, 6400.734
4602.209, 6387.852
4604.138, 6459.388
4606.066, 6496.522
4607.995, 6425.917
4609.923, 6441.318
4611.852, 6460.789
4613.780, 6384.147
4615.709, 6377.906
4617.637, 6410.800
4619.566, 6396.547
4621.494, 6440.029
4623.423, 6518.437
4625.351, 6478.992
4627.280, 6466.376
4629.208, 6522.079
4631.137, 6449.186
4633.065, 6373.021
4634.994, 6363.871
4636.922, 6400.639
4638.851, 6451.020
4640.779, 6494.491
4642.708, 6479.383
4644.636, 6446.533
4646.564, 6483.773
4648.493, 6488.440
4650.421, 6465.677
4652.350, 6505.976
4654.278, 6540.178
4656.207, 6549.050
4658.135, 6533.426
4660.063, 6491.156
4661.992, 6421.735
4663.920, 6495.399
4665.849, 6571.128
4667.777, 6503.955
4669.706, 6494.291
4671.634, 6503.079
4673.563, 6465.488
4675.491, 6453.579
4677.420, 6468.897
4679.348, 6504.466
4681.277, 6523.095
4683.205, 6524.767
4685.134, 6550.532
4687.062, 6551.233
4688.991, 6517.816
4690.919, 6555.838
4692.848, 6571.382
4694.776, 6525.833
4696.705, 6523.331
4698.633, 6536.558
4700.562, 6544.587
4702.490, 6536.542
4704.418, 6527.080
4706.347, 6531.466
4708.275, 6541.897
4710.204, 6561.079
4712.132, 6618.396
4714.061, 6586.893
4715.989, 6506.850
4717.917, 6557.189
4719.846, 6558.862
4721.774, 6504.104
4723.703, 6550.056
4725.631, 6589.360
4727.560, 6592.184
4729.488, 6614.065
4731.417, 6588.127
4733.345, 6476.289
4735.274, 6517.622
4737.202, 6563.030
4739.131, 6526.772
4741.059, 6482.184
4742.988, 6468.015
4744.916, 6532.747
4746.845, 6574.488
4748.773, 6592.616
4750.702, 6583.559
4752.630, 6609.220
4754.559, 6642.116
4756.487, 6618.662
4758.416, 6635.363
4760.344, 6664.171
4762.272, 6599.509
4764.201, 6583.031
4766.129, 6611.623
4768.058, 6605.813
4769.986, 6590.446
4771.915, 6573.373
4773.843, 6550.647
4775.771, 6567.694
4777.700, 6622.866
4779.628, 6581.586
4781.557, 6563.678
4783.485, 6606.480
4785.414, 6628.727
4787.342, 6636.550
4789.271, 6633.062
4791.199, 6615.643
4793.128, 6597.620
4795.056, 6585.949
4796.985, 6604.894
4798.913, 6622.789
4800.842, 6616.723
4802.770, 6592.293
4804.699, 6593.604
4806.627, 6659.802
4808.556, 6645.102
4810.484, 6613.337
4812.413, 6649.929
4814.341, 6622.657
4816.270, 6592.333
4818.198, 6637.859
4820.126, 6624.535
4822.055, 6602.593
4823.983, 6679.430
4825.912, 6677.345
4827.840, 6635.893
4829.769, 6623.203
4831.697, 6637.299
4833.625, 6661.935
4835.554, 6678.764
4837.482, 6665.907
4839.411, 6636.237
4841.339, 6613.014
4843.268, 6611.371
4845.196, 6617.429
4847.125, 6592.508
4849.053, 6595.947
4850.982, 6620.531
4852.910, 6630.569
4854.839, 6653.970
4856.767, 6682.271
4858.696, 6686.032
4860.624, 6688.260
4862.553, 6688.991
4864.481, 6669.378
4866.410, 6690.274
4868.338, 6725.671
4870.267, 6668.915
4872.195, 6661.263
4874.124, 6693.434
4876.052, 6667.843
4877.980, 6675.325
4879.909, 6705.603
4881.837, 6685.370
4883.766, 6681.095
4885.694, 6685.469
4887.623, 6634.394
4889.551, 6631.351
4891.479, 6666.166
4893.408, 6671.761
4895.336, 6668.603
4897.265, 6662.460
4899.193, 6655.254
4901.122, 6661.648
4903.050, 6678.746
4904.979, 6698.237
4906.907, 6711.710
4908.836, 6710.581
4910.764, 6669.826
4912.693, 6644.685
4914.621, 6641.978
4916.550, 6660.060
4918.478, 6707.751
4920.407, 6745.363
4922.335, 6695.466
4924.264, 6654.906
4926.192, 6651.387
4928.121, 6724.275
4930.049, 6744.977
4931.978, 6730.162
4933.906, 6726.898
4935.834, 6659.241
4937.763, 6611.148
4939.691, 6692.628
4941.620, 6727.035
4943.548, 6719.635
4945.477, 6682.514
4947.405, 6687.805
4949.333, 6719.564
4951.262, 6769.659
4953.190, 6760.323
4955.119, 6723.558
4957.047, 6683.511
4958.976, 6654.673
4960.904, 6658.013
4962.833, 6710.465
4964.761, 6750.085
4966.690, 6745.021
4968.618, 6693.162
4970.547, 6740.563
4972.475, 6766.836
4974.404, 6727.659
4976.332, 6721.562
4978.261, 6713.285
4980.189, 6694.761
4982.118, 6678.309
4984.046, 6683.500
4985.975, 6704.604
4987.903, 6703.860
4989.832, 6702.684
4991.760, 6702.921
4993.688, 6694.632
4995.617, 6710.917
4997.545, 6719.571
4999.474, 6644.706
5001.402, 6568.973
5003.331, 6553.521
5005.259, 6693.125
5007.188, 6670.115
5009.116, 6596.464
5011.044, 6604.022
5012.973, 6703.272
5014.901, 6755.189
5016.830, 6649.400
5018.758, 6621.666
5020.687, 6641.793
5022.615, 6686.069
5024.544, 6694.634
5026.472, 6699.497
5028.401, 6705.409
5030.329, 6609.718
5032.258, 6579.123
5034.186, 6633.200
5036.115, 6695.675
5038.043, 6733.804
5039.972, 6737.540
5041.900, 6674.432
5043.829, 6679.797
5045.757, 6710.212
5047.686, 6680.850
5049.614, 6666.439
5051.542, 6666.425
5053.471, 6674.194
5055.399, 6687.114
5057.328, 6677.944
5059.256, 6630.942
5061.185, 6615.123
5063.113, 6616.476
5065.042, 6624.033
5066.970, 6603.964
5068.898, 6598.500
5070.827, 6617.487
5072.755, 6665.442
5074.684, 6675.185
5076.612, 6658.559
5078.541, 6660.972
5080.469, 6655.039
5082.398, 6647.855
5084.326, 6648.421
5086.255, 6685.791
5088.183, 6679.011
5090.112, 6579.186
5092.040, 6596.157
5093.969, 6622.484
5095.897, 6611.784
5097.826, 6625.909
5099.754, 6620.354
5101.683, 6612.020
5103.611, 6730.390
5105.540, 6724.425
5107.468, 6648.354
5109.396, 6674.992
5111.325, 6617.452
5113.253, 6566.025
5115.182, 6633.880
5117.110, 6632.049
5119.039, 6601.594
5120.967, 6575.451
5122.896, 6642.742
5124.824, 6661.258
5126.752, 6615.997
5128.681, 6675.307
5130.609, 6662.299
5132.538, 6601.733
5134.466, 6598.094
5136.395, 6626.387
5138.323, 6660.330
5140.252, 6681.777
5142.180, 6637.485
5144.109, 6627.628
5146.037, 6700.885
5147.966, 6673.160
5149.894, 6648.502
5151.823, 6650.215
5153.751, 6666.035
5155.680, 6627.410
5157.608, 6583.378
5159.537, 6644.163
5161.465, 6646.646
5163.394, 6644.367
5165.322, 6682.498
5167.250, 6624.040
5169.179, 6571.362
5171.107, 6572.067
5173.036, 6659.919
5174.964, 6635.659
5176.893, 6555.199
5178.821, 6646.335
5180.750, 6662.069
5182.678, 6627.321
5184.606, 6595.155
5186.535, 6587.956
5188.463, 6588.735
5190.392, 6588.472
5192.320, 6596.016
5194.249, 6605.362
5196.177, 6605.713
5198.106, 6568.995
5200.034, 6560.270
5201.963, 6567.436
5203.891, 6573.649
5205.820, 6539.459
5207.748, 6527.062
5209.677, 6562.065
5211.605, 6585.121
5213.534, 6592.815
5215.462, 6590.495
5217.391, 6578.371
5219.319, 6650.070
5221.248, 6693.379
5223.176, 6567.111
5225.104, 6521.953
5227.033, 6552.875
5228.961, 6622.753
5230.890, 6540.357
5232.818, 6487.628
5234.747, 6501.763
5236.675, 6600.547
5238.604, 6645.381
5240.532, 6636.170
5242.460, 6582.122
5244.389, 6560.464
5246.317, 6548.875
5248.246, 6537.066
5250.174, 6513.664
5252.103, 6527.245
5254.031, 6549.866
5255.960, 6535.192
5257.888, 6503.755
5259.817, 6480.975
5261.745, 6482.184
5263.674, 6539.735
5265.602, 6544.696
5267.531, 6502.642
5269.459, 6467.393
5271.388, 6466.853
5273.316, 6483.332
5275.245, 6502.328
5277.173, 6518.046
5279.102, 6527.253
5281.030, 6517.905
5282.958, 6425.801
5284.887, 6447.521
5286.815, 6503.072
5288.744, 6483.641
5290.672, 6423.486
5292.601, 6382.327
5294.529, 6388.266
5296.458, 6475.722
5298.386, 6497.372
5300.314, 6453.104
5302.243, 6362.036
5304.171, 6403.811
5306.100, 6433.058
5308.028, 6387.018
5309.957, 6437.557
5311.885, 6455.190
5313.814, 6430.165
5315.742, 6386.692
5317.671, 6406.459
5319.599, 6430.820
5321.528, 6421.966
5323.456, 6387.820
5325.385, 6329.789
5327.313, 6299.662
5329.242, 6405.241
5331.170, 6337.909
5333.099, 6250.551
5335.027, 6249.213
5336.956, 6332.425
5338.884, 6356.162
5340.813, 6329.601
5342.741, 6322.909
5344.669, 6341.647
5346.598, 6316.782
5348.526, 6230.542
5350.455, 6297.700
5352.383, 6344.813
5354.312, 6328.083
5356.240, 6221.695
5358.168, 6272.007
5360.097, 6306.798
5362.025, 6245.453
5363.954, 6255.082
5365.882, 6272.429
5367.811, 6281.564
5369.739, 6279.633
5371.668, 6267.131
5373.596, 6260.486
5375.525, 6257.460
5377.453, 6206.030
5379.382, 6197.793
5381.310, 6218.576
5383.239, 6238.083
5385.167, 6294.347
5387.096, 6273.339
5389.024, 6193.897
5390.953, 6216.313
5392.881, 6212.119
5394.810, 6204.674
5396.738, 6220.896
5398.667, 6177.759
5400.595, 6179.029
5402.523, 6212.598
5404.452, 6203.128
5406.380, 6174.764
5408.309, 6176.001
5410.237, 6211.760
5412.166, 6171.701
5414.094, 6150.992
5416.022, 6147.891
5417.951, 6139.790
5419.879, 6181.776
5421.808, 6132.700
5423.736, 6030.437
5425.665, 6161.924
5427.593, 6101.966
5429.522, 6026.333
5431.450, 6073.277
5433.379, 6065.745
5435.307, 6057.842
5437.236, 6059.874
5439.164, 6070.126
5441.093, 6055.149
5443.021, 6044.530
5444.950, 6045.217
5446.878, 6034.619
5448.807, 6029.112
5450.735, 6031.733
5452.664, 6043.977
5454.592, 6090.223
5456.521, 6086.324
5458.449, 6040.911
5460.377, 5984.752
5462.306, 6006.723
5464.234, 6009.465
5466.163, 5974.971
5468.091, 5978.422
5470.020, 5991.692
5471.948, 6005.024
5473.876, 6008.983
5475.805, 5961.206
5477.733, 5909.447
5479.662, 5909.470
5481.590, 6026.445
5483.519, 6015.131
5485.447, 5947.555
5487.376, 5894.143
5489.304, 5961.381
5491.233, 5968.354
5493.161, 5935.905
5495.090, 5894.436
5497.018, 5875.911
5498.947, 5902.003
5500.875, 5898.347
5502.804, 5811.303
5504.732, 5849.967
5506.661, 5872.676
5508.589, 5878.084
5510.518, 5926.180
5512.446, 5884.739
5514.375, 5831.291
5516.303, 5803.718
5518.231, 5820.130
5520.160, 5842.584
5522.088, 5813.734
5524.017, 5742.485
5525.945, 5790.276
5527.874, 5789.389
5529.802, 5751.475
5531.730, 5708.272
5533.659, 5773.722
5535.587, 5808.589
5537.516, 5813.522
5539.444, 5820.134
5541.373, 5791.425
5543.301, 5785.546
5545.230, 5792.345
5547.158, 5772.921
5549.087, 5779.032
5551.015, 5722.846
5552.944, 5639.367
5554.872, 5721.887
5556.801, 5679.651
5558.729, 5671.298
5560.658, 5722.876
5562.586, 5616.743
5564.515, 5613.130
5566.443, 5649.509
5568.372, 5660.913
5570.300, 5623.977
5572.229, 5609.843
5574.157, 5625.050
5576.085, 5659.227
5578.014, 5631.186
5579.942, 5633.196
5581.871, 5629.104
5583.799, 5564.748
5585.728, 5585.894
5587.656, 5579.957
5589.584, 5567.145
5591.513, 5598.020
5593.441, 5551.259
5595.370, 5546.998
5597.298, 5565.263
5599.227, 5532.793
5601.155, 5508.573
5603.084, 5531.210
5605.012, 5565.411
5606.941, 5517.993
5608.869, 5521.817
5610.798, 5554.233
5612.726, 5563.034
5614.655, 5460.739
5616.583, 5472.426
5618.512, 5480.731
5620.440, 5441.760
5622.369, 5371.415
5624.297, 5372.747
5626.226, 5433.970
5628.154, 5495.493
5630.083, 5420.557
5632.011, 5392.199
5633.939, 5378.764
5635.868, 5382.298
5637.796, 5493.672
5639.725, 5432.188
5641.653, 5394.427
5643.582, 5427.049
5645.510, 5401.103
5647.438, 5381.816
5649.367, 5336.618
5651.295, 5279.242
5653.224, 5281.644
5655.152, 5350.561
5657.081, 5386.822
5659.009, 5368.904
5660.938, 5359.431
5662.866, 5356.583
5664.795, 5338.846
5666.723, 5309.390
5668.652, 5297.433
5670.580, 5306.991
5672.509, 5276.185
5674.437, 5240.639
5676.366, 5324.208
5678.294, 5305.186
5680.223, 5251.234
5682.151, 5221.354
5684.080, 5256.501
5686.008, 5243.330
5687.937, 5254.746
5689.865, 5282.580
5691.793, 5268.992
5693.722, 5216.341
5695.650, 5212.104
5697.579, 5237.184
5699.507, 5226.495
5701.436, 5208.847
5703.364, 5196.808
5705.292, 5198.835
5707.221, 5213.587
5709.149, 5101.313
5711.078, 5120.060
5713.006, 5171.473
5714.935, 5133.936
5716.863, 5169.917
5718.792, 5165.631
5720.720, 5153.360
5722.649, 5168.077
5724.577, 5204.738
5726.506, 5124.093
5728.434, 5048.060
5730.363, 5042.563
5732.291, 5038.310
5734.220, 5047.416
5736.148, 5086.800
5738.077, 5131.156
5740.005, 5107.084
5741.934, 5054.333
5743.862, 5044.262
5745.791, 5060.016
5747.719, 5039.871
5749.647, 5034.220
5751.576, 4991.693
5753.504, 4960.606
5755.433, 5002.450
5757.361, 5021.598
5759.290, 4980.910
5761.218, 4942.599
5763.146, 4957.397
5765.075, 5006.451
5767.003, 4996.750
5768.932, 4985.151
5770.860, 4984.727
5772.789, 4890.699
5774.717, 4867.914
5776.646, 4918.460
5778.574, 4960.977
5780.503, 4870.462
5782.431, 4882.914
5784.360, 4904.922
5786.288, 4898.146
5788.217, 4864.130
5790.145, 4890.000
5792.074, 4878.811
5794.002, 4861.031
5795.931, 4864.016
5797.859, 4834.077
5799.788, 4876.974
5801.716, 4869.090
5803.645, 4792.601
5805.573, 4754.441
5807.501, 4769.936
5809.430, 4812.592
5811.358, 4814.582
5813.287, 4705.668
5815.215, 4749.470
5817.144, 4749.995
5819.072, 4742.779
5821.000, 4758.233
5822.929, 4665.861
5824.857, 4713.173
5826.786, 4744.927
5828.714, 4714.429
5830.643, 4697.724
5832.571, 4745.230
5834.500, 4695.317
5836.428, 4649.914
5838.357, 4726.052
5840.285, 4705.747
5842.214, 4665.600
5844.142, 4623.308
5846.071, 4596.605
5847.999, 4646.081
5849.928, 4635.909
5851.856, 4633.325
5853.785, 4640.591
5855.713, 4625.290
5857.642, 4591.387
5859.570, 4602.931
5861.499, 4606.685
5863.427, 4577.517
5865.355, 4584.633
5867.284, 4565.740
5869.212, 4582.043
5871.141, 4596.089
5873.069, 4533.873
5874.998, 4561.048
5876.926, 4558.434
5878.854, 4515.242
5880.783, 4463.517
5882.711, 4464.890
5884.640, 4554.771
5886.568, 4591.764
5888.497, 4568.176
5890.425, 4547.457
5892.354, 4503.466
5894.282, 4484.878
5896.211, 4471.688
5898.139, 4455.191
5900.068, 4475.909
5901.996, 4445.528
5903.925, 4463.040
5905.853, 4490.705
5907.782, 4448.017
5909.710, 4416.507
5911.639, 4420.529
5913.567, 4429.059
5915.496, 4423.409
5917.424, 4401.749
5919.353, 4424.066
5921.281, 4404.809
5923.209, 4366.287
5925.138, 4353.532
5927.066, 4384.795
5928.995, 4412.420
5930.923, 4377.255
5932.852, 4312.294
5934.780, 4291.976
5936.708, 4367.834
5938.637, 4314.713
5940.565, 4265.089
5942.494, 4289.308
5944.422, 4293.368
5946.351, 4264.595
5948.279, 4278.761
5950.208, 4306.601
5952.136, 4298.680
5954.065, 4205.880
5955.993, 4211.427
5957.922, 4239.042
5959.850, 4243.284
5961.779, 4221.495
5963.707, 4224.168
5965.636, 4201.446
5967.564, 4235.908
5969.493, 4295.848
5971.421, 4217.076
5973.350, 4200.242
5975.278, 4184.786
5977.207, 4182.378
5979.135, 4193.069
5981.063, 4147.834
5982.992, 4206.834
5984.920, 4171.109
5986.849, 4100.704
5988.777, 4092.461
5990.706, 4096.015
5992.634, 4116.372
5994.563, 4113.687
5996.491, 4092.862
5998.419, 4077.121
6000.348, 4071.122
6002.276, 4125.563
6004.205, 4124.940
6006.133, 4072.021
6008.062, 4035.425
6009.990, 3974.344
6011.919, 4012.720
6013.847, 4109.524
6015.776, 4139.908
6017.704, 3987.858
6019.633, 3971.726
6021.561, 4055.448
6023.490, 4084.149
6025.418, 4033.016
6027.347, 3999.837
6029.275, 4009.469
6031.204, 3942.500
6033.132, 3918.539
6035.061, 3949.397
6036.989, 3905.833
6038.917, 3917.786
6040.846, 3954.001
6042.774, 3974.062
6044.703, 3965.015
6046.631, 3942.644
6048.560, 3885.067
6050.488, 3936.629
6052.417, 3921.969
6054.345, 3823.645
6056.273, 3848.704
6058.202, 3891.263
6060.130, 3866.016
6062.059, 3846.847
6063.987, 3862.588
6065.916, 3864.972
6067.844, 3835.478
6069.773, 3844.093
6071.701, 3829.328
6073.630, 3790.394
6075.558, 3796.576
6077.487, 3838.799
6079.415, 3803.729
6081.344, 3773.641
6083.272, 3780.272
6085.201, 3786.984
6087.129, 3741.413
6089.058, 3754.615
6090.986, 3758.146
6092.915, 3741.411
6094.843, 3736.380
6096.771, 3672.730
6098.700, 3731.154
6100.628, 3743.460
6102.557, 3708.192
6104.485, 3703.165
6106.414, 3734.690
6108.342, 3661.388
6110.271, 3659.580
6112.199, 3681.460
6114.127, 3651.765
6116.056, 3639.003
6117.984, 3686.973
6119.913, 3634.008
6121.841, 3625.136
6123.770, 3687.863
6125.698, 3579.955
6127.627, 3634.685
6129.555, 3625.285
6131.484, 3614.591
6133.412, 3622.601
6135.341, 3597.610
6137.269, 3646.908
6139.198, 3651.139
6141.126, 3661.749
6143.055, 3653.928
6144.983, 3602.856
6146.912, 3668.328
6148.840, 3668.541
6150.769, 3651.347
6152.697, 3637.117
6154.625, 3621.031
6156.554, 3586.120
6158.482, 3588.733
6160.411, 3582.914
6162.339, 3575.660
6164.268, 3568.226
6166.196, 3554.013
6168.125, 3572.274
6170.053, 3536.855
6171.981, 3559.594
6173.910, 3578.957
6175.838, 3537.463
6177.767, 3549.569
6179.695, 3531.825
6181.624, 3501.484
6183.552, 3503.359
6185.481, 3519.806
6187.409, 3499.640
6189.338, 3573.556
6191.266, 3476.489
6193.195, 3446.490
6195.123, 3466.546
6197.052, 3450.899
6198.980, 3464.317
6200.909, 3418.309
6202.837, 3419.045
6204.766, 3417.363
6206.694, 3408.679
6208.623, 3424.747
6210.551, 3329.994
6212.479, 3379.770
6214.408, 3414.823
6216.336, 3405.004
6218.265, 3387.347
6220.193, 3387.159
6222.122, 3340.868
6224.050, 3338.589
6225.979, 3354.469
6227.907, 3381.592
6229.835, 3397.427
6231.764, 3281.181
6233.692, 3320.214
6235.621, 3345.348
6237.549, 3385.288
6239.478, 3413.154
6241.406, 3351.119
6243.335, 3354.703
6245.263, 3347.757
6247.192, 3360.538
6249.120, 3348.880
6251.049, 3329.021
6252.977, 3396.451
6254.906, 3356.359
6256.834, 3349.716
6258.763, 3323.891
6260.691, 3326.573
6262.620, 3378.033
6264.548, 3361.202
6266.477, 3357.483
6268.405, 3374.032
6270.333, 3386.723
6272.262, 3376.727
6274.190, 3357.175
6276.119, 3406.040
6278.047, 3403.625
6279.976, 3432.899
6281.904, 3434.786
6283.833, 3420.851
6285.761, 3431.073
6287.689, 3416.636
6289.618, 3416.022
6291.546, 3435.628
6293.475, 3429.513
6295.403, 3412.757
6297.332, 3412.248
6299.260, 3356.523
6301.189, 3414.422
6303.117, 3415.204
6305.046, 3359.589
6306.974, 3348.751
6308.903, 3425.417
6310.831, 3448.443
6312.760, 3389.938
6314.688, 3387.502
6316.617, 3386.482
6318.545, 3389.414
6320.474, 3412.730
6322.402, 3391.062
6324.331, 3405.027
6326.259, 3431.689
6328.188, 3401.016
6330.116, 3382.862
6332.044, 3425.462
6333.973, 3435.291
6335.901, 3488.081
6337.830, 3434.764
6339.758, 3436.545
6341.687, 3470.010
6343.615, 3492.734
6345.543, 3556.844
6347.472, 3590.381
6349.400, 3552.540
6351.329, 3572.413
6353.257, 3575.164
6355.186, 3556.976
6357.114, 3603.918
6359.043, 3606.296
6360.971, 3676.132
6362.900, 3681.927
6364.828, 3666.787
6366.757, 3663.117
6368.685, 3660.708
6370.614, 3646.050
6372.542, 3691.121
6374.471, 3657.350
6376.399, 3645.373
6378.328, 3637.861
6380.256, 3597.724
6382.185, 3549.508
6384.113, 3490.671
6386.042, 3496.028
6387.970, 3464.825
6389.898, 3426.139
6391.827, 3391.611
6393.755, 3340.052
6395.684, 3284.163
6397.612, 3278.668
6399.541, 3218.295
6401.469, 3183.850
6403.397, 3156.534
6405.326, 3113.504
6407.254, 3085.646
6409.183, 3006.699
6411.111, 3051.849
6413.040, 2967.241
6414.968, 2970.772
6416.897, 2981.802
6418.825, 2882.785
6420.754, 2913.522
6422.682, 2974.407
6424.611, 2899.322
6426.539, 2894.062
6428.468, 2903.108
6430.396, 2866.862
6432.325, 2820.962
6434.253, 2814.448
6436.182, 2814.351
6438.110, 2796.072
6440.039, 2817.801
6441.967, 2832.011
6443.896, 2800.079
6445.824, 2750.441
6447.752, 2784.569
6449.681, 2731.172
6451.609, 2726.439
6453.538, 2709.694
6455.466, 2699.316
6457.395, 2720.135
6459.323, 2738.495
6461.251, 2689.684
6463.180, 2635.135
6465.108, 2667.924
6467.037, 2632.706
6468.965, 2591.906
6470.894, 2600.049
6472.822, 2586.707
6474.751, 2570.760
6476.679, 2602.505
6478.608, 2580.827
6480.536, 2528.132
6482.465, 2508.422
6484.393, 2523.610
6486.322, 2529.434
6488.250, 2551.230
6490.179, 2504.316
6492.107, 2511.400
6494.036, 2524.253
6495.964, 2506.761
6497.893, 2481.366
6499.821, 2485.537
6501.750, 2516.890
6503.678, 2543.612
6505.606, 2471.873
6507.535, 2490.688
6509.463, 2481.000
6511.392, 2420.208
6513.320, 2399.476
6515.249, 2430.737
6517.177, 2390.051
6519.105, 2413.150
6521.034, 2491.007
6522.962, 2506.390
6524.891, 2484.234
6526.819, 2469.711
6528.748, 2438.113
6530.676, 2385.266
6532.605, 2402.755
6534.533, 2415.466
6536.462, 2430.432
6538.390, 2393.655
6540.319, 2349.967
6542.247, 2352.676
6544.176, 2322.172
6546.104, 2327.792
6548.033, 2308.955
6549.961, 2281.597
6551.890, 2270.906
6553.818, 2283.561
6555.747, 2284.995
6557.675, 2243.364
6559.604, 2215.561
6561.532, 2277.108
6563.460, 2245.317
6565.389, 2293.465
6567.317, 2275.957
6569.246, 2205.392
6571.174, 2180.402
6573.103, 2190.462
6575.031, 2165.456
6576.959, 2192.737
6578.888, 2151.513
6580.816, 2137.295
6582.745, 2155.906
6584.673, 2160.737
6586.602, 2137.529
6588.530, 2115.685
6590.459, 2134.365
6592.387, 2134.796
6594.316, 2069.102
6596.244, 2105.828
6598.173, 2125.229
6600.101, 2111.399
6602.030, 2092.012
6603.958, 2044.363
6605.887, 2086.720
6607.815, 2084.390
6609.744, 2061.824
6611.672, 2074.049
6613.601, 2069.897
6615.529, 2076.199
6617.458, 2079.077
6619.386, 2027.109
6621.314, 2011.725
6623.243, 2053.842
6625.171, 2063.183
6627.100, 1989.272
6629.028, 2026.608
6630.957, 2056.673
##END=



