##NAMES=Hulsite
##RRUFFID=R070537
##IDEAL CHEMISTRY=Fe^2+^_2_Fe^3+^O_2_(BO_3_)
##LOCALITY=Brooks Mountain, Seward Peninsula, Nome Borough, Alaska, USA
##OWNER=RRUFF
##SOURCE=James Shigley
##DESCRIPTION=Submetallic black platy crystals
##STATUS=The identification of this mineral is not yet confirmed
##URL=https://www.rruff.net/odr/rruff_sample/R070537
##FILETYPE=Raman RAW
##RAMAN WAVELENGTH=532

155.1799, 262.8152
157.1083, 271.8411
159.0368, 273.8504
160.9653, 262.6158
162.8937, 257.5304
164.8222, 262.0602
166.7507, 272.9050
168.6791, 284.1090
170.6076, 296.2494
172.5361, 308.2442
174.4645, 319.0941
176.3930, 328.9866
178.3215, 339.8604
180.2499, 352.0235
182.1784, 365.1238
184.1069, 379.2270
186.0353, 394.0316
187.9638, 409.6914
189.8923, 426.2513
191.8207, 445.2215
193.7492, 463.8018
195.6777, 480.2405
197.6061, 494.2317
199.5346, 510.9432
201.4631, 535.2686
203.3915, 559.1721
205.3200, 578.0040
207.2485, 588.5323
209.1769, 596.6600
211.1054, 601.1946
213.0338, 602.7562
214.9623, 605.7128
216.8908, 615.6752
218.8192, 623.3113
220.7477, 621.9743
222.6762, 606.6280
224.6046, 591.3334
226.5331, 578.9922
228.4616, 568.6964
230.3900, 555.7625
232.3185, 536.9641
234.2470, 517.8272
236.1754, 502.2189
238.1039, 490.4123
240.0324, 477.6448
241.9608, 462.7952
243.8893, 446.5378
245.8178, 428.5266
247.7462, 404.2003
249.6747, 381.6601
251.6032, 366.1415
253.5316, 358.7642
255.4601, 350.5391
257.3886, 338.3004
259.3170, 323.6964
261.2455, 312.0713
263.1740, 303.7067
265.1024, 298.0569
267.0309, 295.6777
268.9594, 298.6051
270.8878, 297.1637
272.8163, 287.0289
274.7448, 273.1463
276.6732, 263.9887
278.6017, 262.0725
280.5302, 260.8224
282.4586, 257.0830
284.3871, 249.9786
286.3156, 246.2834
288.2440, 249.6184
290.1725, 254.1347
292.1010, 254.7876
294.0294, 248.8424
295.9579, 243.5155
297.8864, 241.0364
299.8148, 241.0388
301.7433, 239.4807
303.6718, 233.8064
305.6003, 228.6425
307.5287, 227.0430
309.4572, 232.8727
311.3857, 236.7195
313.3141, 236.8096
315.2426, 234.3933
317.1711, 232.3561
319.0995, 231.4111
321.0280, 230.1559
322.9565, 227.8344
324.8849, 223.1964
326.8134, 220.2697
328.7419, 220.7043
330.6703, 222.4283
332.5988, 222.7928
334.5273, 220.7949
336.4557, 218.3277
338.3842, 215.5081
340.3127, 212.3062
342.2411, 210.0119
344.1696, 209.2452
346.0981, 209.1946
348.0265, 209.1565
349.9550, 207.2547
351.8835, 207.7033
353.8119, 213.2457
355.7404, 221.9356
357.6689, 227.4088
359.5973, 225.7816
361.5258, 223.8070
363.4543, 224.8945
365.3827, 231.5135
367.3112, 236.3598
369.2397, 237.7623
371.1681, 237.7819
373.0966, 238.9372
375.0251, 241.3343
376.9535, 244.8831
378.8820, 250.8053
380.8105, 259.1841
382.7389, 265.2377
384.6674, 266.1058
386.5959, 267.1180
388.5243, 271.3517
390.4528, 283.1714
392.3813, 290.8444
394.3097, 291.3213
396.2382, 287.5727
398.1666, 286.3122
400.0951, 289.7945
402.0236, 292.7602
403.9520, 292.3662
405.8805, 287.3101
407.8090, 286.4056
409.7374, 294.3058
411.6659, 303.6034
413.5944, 307.8475
415.5228, 304.1138
417.4513, 300.4649
419.3798, 299.1145
421.3082, 300.2536
423.2367, 301.5315
425.1652, 303.3928
427.0936, 304.1018
429.0221, 302.3832
430.9506, 297.2368
432.8790, 295.5925
434.8075, 300.9203
436.7360, 307.7243
438.6644, 310.1062
440.5929, 306.5755
442.5214, 303.5991
444.4498, 304.0662
446.3783, 308.2744
448.3068, 312.6151
450.2352, 318.0627
452.1637, 320.4251
454.0922, 319.0142
456.0206, 315.1547
457.9491, 312.8629
459.8776, 312.6608
461.8060, 312.6062
463.7345, 312.9708
465.6630, 315.4673
467.5914, 314.3312
469.5199, 305.2772
471.4484, 293.4789
473.3768, 286.4213
475.3053, 288.5451
477.2338, 290.3040
479.1622, 290.9973
481.0907, 291.6517
483.0192, 291.5885
484.9476, 287.5820
486.8761, 281.6458
488.8046, 278.5674
490.7330, 281.2743
492.6615, 282.7976
494.5900, 280.1376
496.5184, 275.0582
498.4469, 270.8499
500.3754, 267.6976
502.3038, 266.0651
504.2323, 267.7968
506.1608, 272.3013
508.0892, 274.5240
510.0177, 272.1015
511.9462, 269.4389
513.8746, 268.1001
515.8031, 267.8423
517.7316, 267.0803
519.6600, 266.0217
521.5885, 264.0913
523.5170, 260.9919
525.4454, 256.4836
527.3739, 252.3667
529.3024, 248.4467
531.2308, 244.9287
533.1593, 241.9008
535.0878, 238.9289
537.0162, 236.0173
538.9447, 235.7596
540.8732, 238.5422
542.8016, 241.1657
544.7301, 241.1077
546.6586, 238.2614
548.5870, 235.2806
550.5155, 233.2925
552.4440, 231.3768
554.3724, 227.3405
556.3009, 224.0920
558.2294, 223.5096
560.1578, 225.3113
562.0863, 226.7018
564.0148, 226.4951
565.9432, 224.6774
567.8717, 221.9339
569.8002, 219.9800
571.7286, 220.4314
573.6571, 221.1881
575.5856, 221.1548
577.5140, 220.3838
579.4425, 220.6727
581.3710, 221.3368
583.2994, 221.4141
585.2279, 220.5414
587.1564, 219.7551
589.0848, 218.7026
591.0133, 218.2696
592.9418, 218.8076
594.8702, 220.1031
596.7987, 221.1189
598.7272, 224.2161
600.6556, 228.1347
602.5841, 231.4719
604.5126, 231.9074
606.4410, 231.0076
608.3695, 230.0226
610.2980, 229.1338
612.2264, 227.9492
614.1549, 226.2565
616.0834, 227.0280
618.0118, 230.3107
619.9403, 233.3823
621.8688, 232.3751
623.7972, 229.2968
625.7257, 228.4835
627.6542, 231.5839
629.5826, 236.7776
631.5111, 240.5074
633.4396, 239.6046
635.3680, 237.5297
637.2965, 235.5231
639.2250, 236.1618
641.1534, 239.1387
643.0819, 241.7550
645.0104, 242.7133
646.9388, 241.8880
648.8673, 240.6081
650.7958, 240.6082
652.7242, 242.6690
654.6527, 244.4147
656.5812, 243.8734
658.5096, 243.3323
660.4381, 243.2041
662.3666, 240.8523
664.2950, 237.9821
666.2235, 237.3733
668.1520, 240.6546
670.0804, 239.6857
672.0089, 231.7786
673.9374, 223.6589
675.8658, 219.7983
677.7943, 220.3501
679.7228, 221.2672
681.6512, 220.6743
683.5797, 218.3976
685.5082, 215.6295
687.4366, 216.1045
689.3651, 217.4277
691.2936, 220.4792
693.2220, 220.4595
695.1505, 215.9466
697.0790, 209.3085
699.0074, 206.5023
700.9359, 209.8863
702.8644, 213.8417
704.7928, 212.9421
706.7213, 206.7516
708.6498, 201.8786
710.5782, 200.2335
712.5067, 201.0761
714.4352, 203.0835
716.3636, 207.7527
718.2921, 210.9786
720.2206, 210.8254
722.1490, 207.6044
724.0775, 207.0324
726.0060, 211.1098
727.9344, 213.9854
729.8629, 211.9491
731.7914, 208.2315
733.7198, 206.3515
735.6483, 206.2697
737.5768, 206.1150
739.5052, 205.2867
741.4337, 204.5929
743.3622, 205.5333
745.2906, 209.1926
747.2191, 211.9699
749.1476, 211.9547
751.0760, 210.7436
753.0045, 211.2743
754.9330, 215.1361
756.8615, 217.7090
758.7899, 217.0727
760.7184, 214.6487
762.6469, 211.5820
764.5753, 206.7207
766.5037, 202.4662
768.4322, 199.9064
770.3607, 198.8268
772.2891, 199.5405
774.2176, 203.7584
776.1461, 207.9111
778.0745, 210.7804
780.0030, 211.7762
781.9315, 211.0077
783.8599, 207.3574
785.7884, 203.9225
787.7169, 201.2450
789.6453, 199.0439
791.5738, 198.9030
793.5023, 202.9514
795.4307, 206.6228
797.3592, 207.9953
799.2877, 207.6780
801.2161, 206.8038
803.1446, 204.0511
805.0731, 202.4489
807.0015, 204.2989
808.9300, 210.2391
810.8585, 213.3148
812.7869, 211.1743
814.7154, 208.8017
816.6439, 208.5551
818.5723, 209.9712
820.5008, 210.5415
822.4293, 209.2854
824.3577, 208.2818
826.2862, 209.0713
828.2147, 211.5813
830.1431, 211.6369
832.0716, 206.5671
834.0001, 202.3307
835.9285, 201.4158
837.8570, 203.0269
839.7855, 203.8458
841.7139, 202.5857
843.6424, 202.0887
845.5709, 204.3033
847.4993, 208.8712
849.4278, 211.6709
851.3563, 210.5054
853.2847, 209.0952
855.2132, 209.0408
857.1417, 212.0330
859.0701, 213.2986
860.9986, 211.0328
862.9271, 208.7068
864.8555, 209.1521
866.7840, 210.7997
868.7125, 212.2236
870.6409, 213.6766
872.5694, 216.2201
874.4979, 218.7898
876.4263, 219.6960
878.3548, 219.9583
880.2833, 219.9233
882.2117, 218.7077
884.1402, 213.9597
886.0687, 208.1656
887.9971, 205.9545
889.9256, 209.7074
891.8541, 212.8984
893.7825, 214.6030
895.7110, 214.5940
897.6395, 212.0537
899.5679, 205.8115
901.4964, 202.8882
903.4249, 206.4960
905.3533, 214.2167
907.2818, 222.0240
909.2103, 231.0963
911.1387, 234.6542
913.0672, 226.1187
914.9957, 214.2426
916.9241, 208.8734
918.8526, 212.7751
920.7811, 216.9139
922.7095, 219.0121
924.6380, 219.5179
926.5665, 220.1616
928.4949, 221.3571
930.4234, 221.6295
932.3519, 219.3812
934.2803, 216.8231
936.2088, 217.2287
938.1373, 219.5964
940.0657, 220.1037
941.9942, 217.5383
943.9227, 216.6570
945.8511, 218.5680
947.7796, 219.3591
949.7081, 219.1405
951.6365, 218.1223
953.5650, 218.4612
955.4935, 221.1331
957.4219, 225.0921
959.3504, 226.8508
961.2789, 225.4167
963.2073, 224.4058
965.1358, 225.1641
967.0643, 224.8696
968.9927, 223.9487
970.9212, 223.2978
972.8497, 222.6849
974.7781, 220.7021
976.7066, 216.7667
978.6351, 215.2594
980.5635, 217.2453
982.4920, 220.7866
984.4205, 224.8934
986.3489, 227.3363
988.2774, 227.2016
990.2059, 226.8554
992.1343, 227.6386
994.0628, 228.6940
995.9913, 226.5576
997.9197, 224.2064
999.8482, 223.1061
1001.777, 222.8143
1003.705, 223.4076
1005.634, 226.0634
1007.562, 227.2826
1009.491, 224.9472
1011.419, 223.2068
1013.347, 223.9574
1015.276, 225.9535
1017.204, 227.4338
1019.133, 228.6049
1021.061, 228.6599
1022.990, 227.8056
1024.918, 227.0936
1026.847, 227.8273
1028.775, 228.4312
1030.704, 229.5441
1032.632, 232.3018
1034.561, 235.9979
1036.489, 239.0774
1038.417, 241.1987
1040.346, 241.8861
1042.274, 238.4173
1044.203, 231.6169
1046.131, 225.4786
1048.060, 224.9976
1049.988, 230.7787
1051.917, 237.4877
1053.845, 243.2065
1055.774, 246.2951
1057.702, 245.3425
1059.631, 240.8835
1061.559, 236.8961
1063.488, 235.0276
1065.416, 235.4661
1067.344, 238.0079
1069.273, 241.5074
1071.201, 245.4658
1073.130, 246.7160
1075.058, 244.9327
1076.987, 241.9427
1078.915, 240.2551
1080.844, 240.2953
1082.772, 242.8052
1084.701, 243.7917
1086.629, 241.1453
1088.558, 236.3756
1090.486, 230.6388
1092.415, 229.2181
1094.343, 232.8159
1096.271, 235.6197
1098.200, 236.3457
1100.128, 236.3988
1102.057, 236.5506
1103.985, 233.6823
1105.914, 230.0324
1107.842, 229.6794
1109.771, 232.2581
1111.699, 234.8487
1113.628, 236.9797
1115.556, 238.1234
1117.485, 238.2895
1119.413, 239.2091
1121.342, 240.5038
1123.270, 241.2027
1125.198, 240.9891
1127.127, 242.9789
1129.055, 245.5224
1130.984, 244.3469
1132.912, 239.3391
1134.841, 235.9978
1136.769, 237.5906
1138.698, 239.1144
1140.626, 236.4684
1142.555, 231.9025
1144.483, 229.5555
1146.412, 229.0355
1148.340, 230.4220
1150.269, 236.9215
1152.197, 244.2267
1154.125, 247.7102
1156.054, 246.1618
1157.982, 244.3099
1159.911, 239.8597
1161.839, 237.8281
1163.768, 241.5838
1165.696, 246.9972
1167.625, 247.6404
1169.553, 242.0365
1171.482, 238.4930
1173.410, 238.0156
1175.339, 239.5153
1177.267, 241.6104
1179.196, 244.8038
1181.124, 245.9412
1183.052, 242.9412
1184.981, 240.2840
1186.909, 240.8616
1188.838, 244.6578
1190.766, 246.1255
1192.695, 243.2722
1194.623, 241.6054
1196.552, 242.0264
1198.480, 243.8753
1200.409, 247.1270
1202.337, 252.9312
1204.266, 255.7148
1206.194, 250.6365
1208.123, 244.3499
1210.051, 242.9872
1211.979, 247.1196
1213.908, 251.7870
1215.836, 257.6137
1217.765, 261.5257
1219.693, 262.4373
1221.622, 260.9684
1223.550, 259.5331
1225.479, 257.5703
1227.407, 256.7368
1229.336, 257.6790
1231.264, 258.7480
1233.193, 258.1200
1235.121, 255.2167
1237.050, 254.4825
1238.978, 258.5506
1240.906, 261.4492
1242.835, 259.1067
1244.763, 254.5645
1246.692, 253.2764
1248.620, 256.2996
1250.549, 259.1045
1252.477, 259.9877
1254.406, 260.6217
1256.334, 262.8338
1258.263, 266.8373
1260.191, 268.0608
1262.120, 263.3117
1264.048, 259.4031
1265.977, 258.6740
1267.905, 259.6426
1269.833, 259.5561
1271.762, 257.0167
1273.690, 256.5273
1275.619, 259.6008
1277.547, 263.4467
1279.476, 266.8731
1281.404, 269.6056
1283.333, 271.2672
1285.261, 271.9300
1287.190, 271.5677
1289.118, 268.6253
1291.047, 265.5876
1292.975, 265.1859
1294.904, 267.3177
1296.832, 269.2171
1298.760, 270.6719
1300.689, 272.4756
1302.617, 275.9242
1304.546, 278.6333
1306.474, 276.2018
1308.403, 263.5901
1310.331, 257.3274
1312.260, 263.1257
1314.188, 271.1608
1316.117, 275.7690
1318.045, 277.5062
1319.974, 278.3723
1321.902, 276.2039
1323.831, 274.2510
1325.759, 274.0866
1327.688, 274.8836
1329.616, 273.9041
1331.544, 270.1900
1333.473, 268.4366
1335.401, 271.8087
1337.330, 274.5358
1339.258, 272.5900
1341.187, 268.7956
1343.115, 265.6104
1345.044, 260.8606
1346.972, 260.1373
1348.901, 269.5273
1350.829, 278.6828
1352.758, 281.8749
1354.686, 280.5405
1356.615, 276.7785
1358.543, 265.9274
1360.471, 260.7804
1362.400, 267.9548
1364.328, 277.2382
1366.257, 280.6277
1368.185, 278.1013
1370.114, 275.7874
1372.042, 273.2677
1373.971, 272.0141
1375.899, 273.3768
1377.828, 274.3746
1379.756, 271.6367
1381.685, 267.3237
1383.613, 264.9138
1385.542, 262.6969
1387.470, 261.6643
1389.398, 263.6527
1391.327, 267.2675
1393.255, 270.1954
1395.184, 272.1002
1397.112, 273.4414
1399.041, 275.4043
1400.969, 276.7983
1402.898, 275.4417
1404.826, 273.4503
1406.755, 275.9665
1408.683, 283.4877
1410.612, 285.2433
1412.540, 275.8532
1414.469, 266.0472
1416.397, 258.4398
1418.325, 252.8602
1420.254, 252.7032
1422.182, 263.6805
1424.111, 272.4796
1426.039, 277.0867
1427.968, 278.7004
1429.896, 276.8174
1431.825, 272.0116
1433.753, 268.6254
1435.682, 267.7097
1437.610, 267.8808
1439.539, 268.9479
1441.467, 270.8439
1443.396, 275.2417
1445.324, 282.0373
1447.252, 285.4474
1449.181, 281.2143
1451.109, 276.5980
1453.038, 272.6760
1454.966, 269.5573
1456.895, 268.3410
1458.823, 269.7554
1460.752, 271.2828
1462.680, 270.2126
1464.609, 269.2708
1466.537, 271.2925
1468.466, 274.8664
1470.394, 277.9633
1472.323, 279.6691
1474.251, 280.7332
1476.179, 282.5074
1478.108, 284.3282
1480.036, 285.4751
1481.965, 285.8033
1483.893, 285.5339
1485.822, 284.5517
1487.750, 281.9069
1489.679, 276.4845
1491.607, 274.3810
1493.536, 278.8684
1495.464, 283.1795
1497.393, 284.3988
1499.321, 283.5453
1501.250, 283.1586
1503.178, 283.8990
1505.106, 284.4627
1507.035, 281.6749
1508.963, 279.7255
1510.892, 282.5951
1512.820, 288.4938
1514.749, 291.2985
1516.677, 288.3994
1518.606, 286.0936
1520.534, 286.9974
1522.463, 288.9387
1524.391, 289.1471
1526.320, 287.8169
1528.248, 287.0260
1530.177, 287.8993
1532.105, 288.4328
1534.033, 286.5138
1535.962, 286.0464
1537.890, 290.1555
1539.819, 295.9464
1541.747, 299.1054
1543.676, 299.0778
1545.604, 302.6697
1547.533, 316.5919
1549.461, 323.8019
1551.390, 314.3465
1553.318, 300.5755
1555.247, 294.8904
1557.175, 296.7948
1559.104, 298.8746
1561.032, 302.4870
1562.960, 304.4043
1564.889, 300.1192
1566.817, 295.6103
1568.746, 298.0469
1570.674, 304.8366
1572.603, 305.4638
1574.531, 297.2265
1576.460, 294.6075
1578.388, 305.6409
1580.317, 316.1742
1582.245, 318.5854
1584.174, 316.2047
1586.102, 314.4595
1588.031, 313.2985
1589.959, 309.8875
1591.887, 301.5207
1593.816, 295.5773
1595.744, 295.9716
1597.673, 298.9946
1599.601, 300.8167
1601.530, 302.0142
1603.458, 306.9152
1605.387, 318.6068
1607.315, 325.1652
1609.244, 318.4519
1611.172, 310.7577
1613.101, 311.2157
1615.029, 316.1575
1616.958, 317.0382
1618.886, 312.9235
1620.814, 310.4168
1622.743, 310.8820
1624.671, 312.6447
1626.600, 316.7220
1628.528, 320.7008
1630.457, 321.3293
1632.385, 318.8779
1634.314, 316.3445
1636.242, 313.2618
1638.171, 312.1102
1640.099, 315.9829
1642.028, 319.5306
1643.956, 319.1989
1645.885, 315.8455
1647.813, 310.7045
1649.741, 302.9535
1651.670, 300.4150
1653.598, 307.4711
1655.527, 314.8683
1657.455, 320.2084
1659.384, 322.7266
1661.312, 319.5512
1663.241, 311.6477
1665.169, 308.6956
1667.098, 312.9181
1669.026, 316.7915
1670.955, 317.9220
1672.883, 318.5259
1674.812, 320.0474
1676.740, 321.8724
1678.668, 322.7841
1680.597, 322.7918
1682.525, 322.5836
1684.454, 322.6097
1686.382, 321.8672
1688.311, 318.8233
1690.239, 315.9952
1692.168, 315.0832
1694.096, 315.9841
1696.025, 319.0308
1697.953, 324.9181
1699.882, 328.2414
1701.810, 325.9953
1703.739, 324.1529
1705.667, 326.5454
1707.595, 329.9915
1709.524, 330.5910
1711.452, 328.9394
1713.381, 329.4788
1715.309, 333.7562
1717.238, 334.9309
1719.166, 328.3478
1721.095, 322.5364
1723.023, 324.2696
1724.952, 328.5134
1726.880, 327.0348
1728.809, 320.6183
1730.737, 320.2346
1732.666, 329.7393
1734.594, 335.7484
1736.522, 329.8976
1738.451, 324.6443
1740.379, 330.5901
1742.308, 340.9913
1744.236, 344.7660
1746.165, 342.0047
1748.093, 338.1528
1750.022, 332.8803
1751.950, 328.8439
1753.879, 327.2201
1755.807, 326.6919
1757.736, 325.7586
1759.664, 325.5791
1761.593, 329.4396
1763.521, 337.4816
1765.449, 341.7514
1767.378, 338.7897
1769.306, 338.1233
1771.235, 347.0602
1773.163, 354.2334
1775.092, 349.1041
1777.020, 337.9580
1778.949, 334.1840
1780.877, 338.3474
1782.806, 342.1412
1784.734, 345.3397
1786.663, 348.0788
1788.591, 351.5809
1790.520, 353.3404
1792.448, 350.1233
1794.376, 344.8314
1796.305, 342.7336
1798.233, 343.9847
1800.162, 346.9044
1802.090, 355.2116
1804.019, 359.3089
1805.947, 355.5135
1807.876, 350.5566
1809.804, 346.1915
1811.733, 343.6871
1813.661, 346.4374
1815.590, 354.6168
1817.518, 357.4963
1819.447, 351.6707
1821.375, 347.5472
1823.303, 344.6127
1825.232, 345.1268
1827.160, 353.4136
1829.089, 362.8804
1831.017, 365.7725
1832.946, 362.9132
1834.874, 360.7314
1836.803, 359.0748
1838.731, 358.7347
1840.660, 361.3769
1842.588, 362.6189
1844.517, 359.2726
1846.445, 355.7518
1848.374, 355.9939
1850.302, 358.2030
1852.230, 357.1941
1854.159, 352.9372
1856.087, 352.4381
1858.016, 357.5836
1859.944, 362.8595
1861.873, 368.4603
1863.801, 371.3744
1865.730, 365.5089
1867.658, 358.6147
1869.587, 364.4773
1871.515, 379.5419
1873.444, 382.1003
1875.372, 367.9320
1877.301, 357.3054
1879.229, 354.9667
1881.157, 354.3124
1883.086, 351.7258
1885.014, 351.4236
1886.943, 359.9517
1888.871, 372.8045
1890.800, 377.8375
1892.728, 373.5630
1894.657, 371.1960
1896.585, 372.5860
1898.514, 372.7692
1900.442, 370.0255
1902.371, 367.4648
1904.299, 366.2983
1906.228, 366.1428
1908.156, 366.2278
1910.084, 366.8660
1912.013, 370.9578
1913.941, 380.4467
1915.870, 382.4717
1917.798, 371.0828
1919.727, 362.9320
1921.655, 363.4180
1923.584, 367.2089
1925.512, 374.6122
1927.441, 381.5177
1929.369, 380.8540
1931.298, 374.5999
1933.226, 372.4778
1935.155, 375.6440
1937.083, 375.4173
1939.011, 367.3760
1940.940, 362.2563
1942.868, 367.0310
1944.797, 372.2732
1946.725, 369.8337
1948.654, 365.3622
1950.582, 368.5677
1952.511, 378.6321
1954.439, 385.2908
1956.368, 387.0761
1958.296, 388.7724
1960.225, 390.7377
1962.153, 391.8799
1964.082, 391.5129
1966.010, 390.7489
1967.938, 391.1066
1969.867, 391.1547
1971.795, 388.2182
1973.724, 382.7440
1975.652, 378.2843
1977.581, 374.2700
1979.509, 375.3662
1981.438, 385.2805
1983.366, 392.2928
1985.295, 391.4128
1987.223, 388.6829
1989.152, 386.8515
1991.080, 385.6069
1993.009, 384.3085
1994.937, 383.3304
1996.865, 384.4514
1998.794, 387.9827
2000.722, 389.1479
2002.651, 385.1802
2004.579, 384.1165
2006.508, 391.6603
2008.436, 396.7678
2010.365, 391.5193
2012.293, 385.0842
2014.222, 387.3418
2016.150, 394.2407
2018.078, 396.2478
2020.007, 393.1405
2021.935, 388.0614
2023.864, 378.9072
2025.792, 375.6910
2027.721, 382.5455
2029.649, 389.7011
2031.578, 395.8151
2033.506, 399.0872
2035.435, 396.0316
2037.363, 391.2098
2039.292, 390.9833
2041.220, 393.3694
2043.149, 390.6884
2045.077, 382.3235
2047.005, 380.2729
2048.934, 388.8973
2050.863, 395.6576
2052.791, 397.0929
2054.719, 398.6162
2056.648, 402.6681
2058.576, 406.6416
2060.505, 409.2471
2062.433, 409.9990
2064.362, 407.3545
2066.290, 401.8633
2068.219, 398.4984
2070.147, 397.7098
2072.076, 394.7676
2074.004, 387.6035
2075.933, 384.1789
2077.861, 386.9407
2079.790, 392.6971
2081.718, 404.5601
2083.646, 414.0109
2085.575, 410.9994
2087.503, 403.4389
2089.432, 405.4331
2091.360, 414.6110
2093.289, 416.1460
2095.217, 407.6635
2097.146, 402.0983
2099.074, 400.0424
2101.003, 400.0596
2102.931, 403.2087
2104.860, 406.8989
2106.788, 412.1827
2108.717, 415.7448
2110.645, 414.2284
2112.573, 410.5940
2114.502, 408.4324
2116.430, 407.1763
2118.359, 404.7244
2120.287, 401.2197
2122.216, 401.0188
2124.144, 405.2913
2126.073, 409.5571
2128.001, 413.9284
2129.930, 417.2209
2131.858, 421.1022
2133.787, 421.5011
2135.715, 412.9568
2137.644, 403.4156
2139.572, 398.4837
2141.500, 398.6781
2143.429, 408.8087
2145.357, 425.9976
2147.286, 430.6270
2149.214, 421.8090
2151.143, 415.5426
2153.071, 413.4760
2155.000, 413.9473
2156.928, 419.6022
2158.857, 422.5213
2160.785, 417.1056
2162.714, 411.8966
2164.642, 411.6241
2166.571, 414.1508
2168.499, 420.2131
2170.427, 426.1414
2172.356, 421.3976
2174.284, 407.2902
2176.213, 402.7269
2178.141, 408.5107
2180.070, 412.6505
2181.998, 413.7267
2183.927, 415.0093
2185.855, 416.7447
2187.784, 419.5402
2189.712, 426.8633
2191.641, 431.0615
2193.569, 424.5750
2195.498, 416.6261
2197.426, 417.0049
2199.354, 421.1044
2201.283, 421.2406
2203.211, 417.9339
2205.140, 412.2957
2207.068, 404.1637
2208.997, 404.4766
2210.925, 415.8159
2212.854, 420.7568
2214.782, 413.1022
2216.711, 410.1264
2218.639, 423.0595
2220.568, 431.5774
2222.496, 421.7371
2224.425, 411.2603
2226.353, 412.4540
2228.281, 418.6151
2230.210, 423.9628
2232.138, 427.8003
2234.067, 427.7822
2235.995, 424.6498
2237.924, 423.9632
2239.852, 425.7990
2241.781, 426.5204
2243.709, 425.1960
2245.638, 428.3766
2247.566, 441.8218
2249.495, 448.2660
2251.423, 438.5089
2253.352, 428.0421
2255.280, 420.4201
2257.208, 415.9869
2259.137, 416.2316
2261.065, 418.5160
2262.994, 420.6602
2264.922, 422.8067
2266.851, 425.7115
2268.779, 428.7744
2270.708, 429.7928
2272.636, 428.9262
2274.565, 427.7546
2276.493, 425.9480
2278.422, 426.6276
2280.350, 432.9069
2282.279, 436.2971
2284.207, 435.3707
2286.135, 432.8071
2288.064, 425.5279
2289.992, 421.5727
2291.921, 424.9693
2293.849, 431.2545
2295.778, 440.1637
2297.706, 448.0359
2299.635, 450.6740
2301.563, 450.0224
2303.492, 449.2259
2305.420, 448.0755
2307.349, 444.9426
2309.277, 439.8775
2311.206, 440.0389
2313.134, 447.3404
2315.063, 446.8764
2316.991, 434.9515
2318.919, 431.3245
2320.848, 442.5763
2322.776, 450.8230
2324.705, 449.1693
2326.633, 447.1721
2328.562, 448.8091
2330.490, 450.2596
2332.419, 449.9043
2334.347, 448.0047
2336.276, 443.5956
2338.204, 438.7472
2340.133, 434.6360
2342.061, 432.5804
2343.990, 436.8468
2345.918, 445.0419
2347.846, 449.9109
2349.775, 451.5313
2351.703, 451.8298
2353.632, 450.7570
2355.560, 448.6190
2357.489, 443.8734
2359.417, 442.0005
2361.346, 445.5055
2363.274, 444.9771
2365.203, 434.9990
2367.131, 430.4656
2369.060, 439.4608
2370.988, 448.6863
2372.917, 454.5637
2374.845, 456.0716
2376.773, 449.5313
2378.702, 441.7976
2380.630, 437.7724
2382.559, 436.6724
2384.487, 440.0915
2386.416, 444.2364
2388.344, 437.7415
2390.273, 427.1135
2392.201, 435.2442
2394.130, 457.7057
2396.058, 461.5854
2397.987, 444.6203
2399.915, 436.3943
2401.844, 439.9234
2403.772, 442.6455
2405.700, 444.4108
2407.629, 446.1908
2409.557, 448.1147
2411.486, 450.2761
2413.414, 453.0986
2415.343, 455.1830
2417.271, 455.0776
2419.200, 455.4366
2421.128, 459.1299
2423.057, 460.9562
2424.985, 456.1461
2426.914, 450.6395
2428.842, 447.0864
2430.771, 446.5182
2432.699, 453.2873
2434.627, 460.8102
2436.556, 460.2683
2438.484, 454.9157
2440.413, 449.9453
2442.341, 445.6687
2444.270, 441.9432
2446.198, 439.4117
2448.127, 445.6508
2450.055, 459.8505
2451.984, 468.3449
2453.912, 470.5616
2455.841, 468.9459
2457.769, 463.3041
2459.698, 455.9016
2461.626, 441.7399
2463.554, 437.0735
2465.483, 447.3791
2467.411, 456.9398
2469.340, 465.0309
2471.268, 469.6732
2473.197, 469.9154
2475.125, 467.3296
2477.054, 458.8935
2478.982, 452.8492
2480.911, 455.1923
2482.839, 457.6905
2484.768, 454.0599
2486.696, 450.9536
2488.625, 454.6533
2490.553, 459.3905
2492.481, 459.8167
2494.410, 459.2082
2496.338, 462.1450
2498.267, 465.4697
2500.195, 462.1547
2502.124, 456.9510
2504.052, 462.2529
2505.980, 473.2719
2507.909, 474.2240
2509.837, 467.7222
2511.766, 462.7019
2513.694, 459.6501
2515.623, 462.1143
2517.551, 470.2050
2519.480, 468.6505
2521.408, 454.7801
2523.337, 450.7967
2525.265, 458.4623
2527.194, 461.5741
2529.122, 458.2263
2531.051, 458.2462
2532.979, 463.3591
2534.907, 469.3663
2536.836, 479.3045
2538.764, 482.6295
2540.693, 473.5804
2542.621, 467.5465
2544.550, 468.1487
2546.478, 468.2059
2548.407, 465.5083
2550.335, 463.3212
2552.264, 462.6808
2554.192, 463.1906
2556.121, 465.1018
2558.049, 467.5234
2559.978, 470.7870
2561.906, 473.2513
2563.834, 474.1670
2565.763, 473.8265
2567.691, 470.3725
2569.620, 468.1299
2571.548, 471.1885
2573.477, 475.7285
2575.405, 481.6462
2577.334, 484.2056
2579.262, 474.1636
2581.191, 462.8398
2583.119, 464.1649
2585.048, 469.6915
2586.976, 466.3628
2588.905, 462.6320
2590.833, 476.0668
2592.761, 495.4867
2594.690, 500.3274
2596.618, 494.7120
2598.547, 484.2601
2600.475, 472.1644
2602.404, 465.2703
2604.332, 463.0536
2606.261, 465.4171
2608.189, 470.9803
2610.118, 473.6078
2612.046, 473.8387
2613.975, 476.5424
2615.903, 480.5373
2617.832, 477.8800
2619.760, 469.7019
2621.688, 468.5379
2623.617, 474.3791
2625.545, 480.7554
2627.474, 487.7740
2629.402, 488.6327
2631.331, 483.4281
2633.259, 479.3084
2635.188, 476.5667
2637.116, 478.1520
2639.045, 485.7502
2640.973, 487.9652
2642.902, 483.5235
2644.830, 483.1630
2646.759, 487.7833
2648.687, 488.7171
2650.615, 484.2804
2652.544, 485.3485
2654.472, 497.0960
2656.401, 500.1855
2658.329, 489.9746
2660.258, 486.7347
2662.186, 492.6751
2664.115, 497.5123
2666.043, 500.5018
2667.972, 500.0471
2669.900, 493.7163
2671.829, 490.3199
2673.757, 491.6463
2675.686, 491.8733
2677.614, 489.9402
2679.542, 489.8934
2681.471, 492.9681
2683.399, 494.7709
2685.328, 492.4958
2687.256, 493.1936
2689.185, 500.7831
2691.113, 501.0465
2693.042, 488.9865
2694.970, 485.5097
2696.899, 497.8257
2698.827, 507.0508
2700.756, 510.2007
2702.684, 507.9029
2704.613, 497.5576
2706.541, 488.5848
2708.469, 481.2856
2710.398, 479.2188
2712.326, 484.9654
2714.255, 490.5547
2716.183, 496.8213
2718.112, 498.1420
2720.040, 491.7375
2721.969, 487.2922
2723.897, 485.6353
2725.826, 487.8890
2727.754, 496.7750
2729.683, 502.3919
2731.611, 501.9077
2733.540, 499.9431
2735.468, 495.1314
2737.396, 495.5939
2739.325, 504.8557
2741.253, 508.2118
2743.182, 499.2994
2745.110, 494.0258
2747.039, 495.3611
2748.967, 496.3642
2750.896, 496.1446
2752.824, 498.6386
2754.753, 505.5048
2756.681, 509.2744
2758.610, 507.6511
2760.538, 505.7065
2762.467, 503.8185
2764.395, 499.8833
2766.323, 493.0447
2768.252, 490.9934
2770.180, 495.7896
2772.109, 498.4854
2774.037, 496.6042
2775.966, 499.6962
2777.894, 508.9818
2779.823, 510.7284
2781.751, 503.7436
2783.680, 499.1885
2785.608, 498.4216
2787.537, 497.3240
2789.465, 495.7948
2791.394, 494.1715
2793.322, 492.6223
2795.250, 497.2065
2797.179, 507.7466
2799.107, 513.7532
2801.036, 515.1553
2802.964, 518.3030
2804.893, 522.9143
2806.821, 524.6482
2808.750, 523.7131
2810.678, 520.5350
2812.607, 515.6705
2814.535, 511.5288
2816.464, 507.9378
2818.392, 502.5573
2820.321, 497.8132
2822.249, 503.6924
2824.177, 515.2719
2826.106, 522.5740
2828.034, 525.2067
2829.963, 517.3227
2831.891, 507.5396
2833.820, 517.1440
2835.748, 531.8080
2837.677, 530.2095
2839.605, 521.1828
2841.534, 512.5319
2843.462, 507.7792
2845.391, 514.4905
2847.319, 523.7556
2849.248, 530.0560
2851.176, 531.8432
2853.104, 521.6123
2855.033, 514.3454
2856.961, 528.5345
2858.890, 539.9229
2860.818, 530.3087
2862.747, 520.1691
2864.675, 521.3021
2866.604, 524.2581
2868.532, 525.3011
2870.461, 526.2072
2872.389, 528.1905
2874.318, 528.7977
2876.246, 526.0681
2878.175, 524.1476
2880.103, 525.0279
2882.031, 525.2359
2883.960, 524.3216
2885.888, 522.5988
2887.817, 518.9286
2889.745, 519.0527
2891.674, 527.8124
2893.602, 529.2714
2895.531, 521.5021
2897.459, 523.5086
2899.388, 536.9981
2901.316, 542.0529
2903.245, 537.2982
2905.173, 531.1657
2907.102, 523.9442
2909.030, 520.5326
2910.958, 520.2555
2912.887, 519.3436
2914.815, 518.4050
2916.744, 520.0008
2918.672, 523.4026
2920.601, 525.9927
2922.529, 529.6349
2924.458, 541.6291
2926.386, 552.3915
2928.315, 545.0219
2930.243, 533.3250
2932.172, 531.5547
2934.100, 534.0750
2936.029, 539.1196
2937.957, 543.0222
2939.885, 542.0306
2941.814, 540.9858
2943.742, 542.3474
2945.671, 544.0908
2947.599, 545.5784
2949.528, 547.1483
2951.456, 551.9362
2953.385, 550.2989
2955.313, 537.1757
2957.242, 531.0418
2959.170, 536.1298
2961.099, 539.5228
2963.027, 538.5583
2964.956, 538.8354
2966.884, 540.5360
2968.813, 540.3984
2970.741, 538.7708
2972.669, 541.3290
2974.598, 547.1525
2976.526, 550.4717
2978.455, 551.2461
2980.383, 547.0754
2982.312, 542.0389
2984.240, 544.9055
2986.169, 541.2768
2988.097, 553.5474
2990.026, 560.5530
2991.954, 562.5761
2993.883, 544.6946
2995.811, 552.5159
2997.740, 550.0367
2999.668, 547.1351
3001.596, 558.5739
3003.525, 543.5875
3005.453, 554.7990
3007.382, 555.5528
3009.310, 561.0927
3011.239, 556.2686
3013.167, 554.6455
3015.096, 563.3901
3017.024, 566.3939
3018.953, 560.3767
3020.881, 566.2209
3022.810, 550.8725
3024.738, 554.1208
3026.667, 565.3930
3028.595, 559.8969
3030.523, 565.9305
3032.452, 567.5731
3034.380, 549.2593
3036.309, 565.6516
3038.237, 567.0345
3040.166, 553.0064
3042.094, 568.2094
3044.023, 556.3059
3045.951, 554.0777
3047.880, 559.1309
3049.808, 556.5935
3051.737, 566.0236
3053.665, 563.9245
3055.594, 560.7955
3057.522, 562.1616
3059.450, 550.7896
3061.379, 563.0495
3063.307, 559.1667
3065.236, 563.3083
3067.164, 569.2684
3069.093, 561.3024
3071.021, 568.0797
3072.950, 551.9935
3074.878, 555.0380
3076.807, 556.0226
3078.735, 569.2351
3080.664, 553.2604
3082.592, 555.7734
3084.521, 566.1583
3086.449, 565.5286
3088.377, 569.5042
3090.306, 559.8464
3092.234, 562.9961
3094.163, 562.6157
3096.091, 574.4341
3098.020, 576.6221
3099.948, 567.1956
3101.877, 557.8183
3103.805, 570.5147
3105.734, 562.2895
3107.662, 565.3512
3109.591, 556.7559
3111.519, 558.2255
3113.448, 559.5356
3115.376, 566.0052
3117.304, 556.8296
3119.233, 567.9484
3121.161, 567.3375
3123.090, 570.1819
3125.018, 572.6419
3126.947, 559.3619
3128.875, 558.9848
3130.804, 577.0709
3132.732, 566.9998
3134.661, 562.6119
3136.589, 562.2638
3138.518, 580.9822
3140.446, 581.9785
3142.375, 561.7918
3144.303, 579.6699
3146.231, 574.1296
3148.160, 575.5486
3150.088, 574.4286
3152.017, 574.0603
3153.945, 564.1317
3155.874, 566.8017
3157.802, 579.7153
3159.731, 575.1649
3161.659, 582.4812
3163.588, 576.2356
3165.516, 576.2542
3167.445, 571.4676
3169.373, 560.5968
3171.302, 560.5283
3173.230, 570.2709
3175.158, 570.4283
3177.087, 564.8269
3179.015, 569.6233
3180.944, 577.1880
3182.872, 573.7621
3184.801, 569.1174
3186.729, 572.4155
3188.658, 578.0863
3190.586, 586.8293
3192.515, 588.6942
3194.443, 574.3594
3196.372, 566.0775
3198.300, 566.9607
3200.229, 567.7365
3202.157, 568.0836
3204.085, 573.2774
3206.014, 580.9015
3207.942, 576.3384
3209.871, 567.5499
3211.799, 570.0914
3213.728, 575.5837
3215.656, 575.6697
3217.585, 575.3007
3219.513, 576.9576
3221.442, 579.0972
3223.370, 583.9517
3225.299, 582.0609
3227.227, 570.5452
3229.156, 570.5416
3231.084, 582.0856
3233.012, 582.1368
3234.941, 574.7791
3236.869, 577.6787
3238.798, 585.0546
3240.726, 592.0689
3242.655, 593.9711
3244.583, 578.7157
3246.512, 570.2899
3248.440, 581.3959
3250.369, 591.7547
3252.297, 596.9899
3254.226, 595.1070
3256.154, 585.8477
3258.083, 579.3237
3260.011, 575.9468
3261.939, 571.1763
3263.868, 569.9069
3265.796, 590.9607
3267.725, 611.8842
3269.653, 608.1639
3271.582, 599.6165
3273.510, 597.1116
3275.439, 591.7623
3277.367, 577.5175
3279.296, 576.5551
3281.224, 596.1589
3283.153, 598.2030
3285.081, 586.5027
3287.010, 585.4931
3288.938, 589.5527
3290.866, 583.5811
3292.795, 577.6654
3294.723, 581.3271
3296.652, 588.9183
3298.580, 602.9472
3300.509, 607.5317
3302.437, 596.4709
3304.366, 594.7401
3306.294, 608.6279
3308.223, 607.2719
3310.151, 594.3576
3312.080, 589.2488
3314.008, 589.3965
3315.937, 594.2800
3317.865, 596.7510
3319.793, 586.4655
3321.722, 580.3276
3323.650, 590.2787
3325.579, 596.2888
3327.507, 594.0347
3329.436, 604.1506
3331.364, 626.1224
3333.293, 622.5121
3335.221, 603.2554
3337.150, 599.4313
3339.078, 600.5751
3341.007, 593.2271
3342.935, 588.5915
3344.864, 596.5404
3346.792, 601.1605
3348.720, 597.0125
3350.649, 595.7237
3352.577, 598.4653
3354.506, 604.9725
3356.434, 611.7795
3358.363, 603.8572
3360.291, 591.7034
3362.220, 591.1949
3364.148, 594.1099
3366.077, 594.5273
3368.005, 598.2003
3369.934, 610.6114
3371.862, 611.7460
3373.791, 599.3088
3375.719, 597.3772
3377.647, 603.7018
3379.576, 601.3288
3381.504, 597.3748
3383.433, 604.0937
3385.361, 610.5448
3387.290, 608.9808
3389.218, 603.1086
3391.147, 588.9960
3393.075, 590.0110
3395.004, 610.2726
3396.932, 618.0921
3398.861, 615.8327
3400.789, 611.8238
3402.718, 609.0981
3404.646, 615.6819
3406.574, 619.7031
3408.503, 609.9264
3410.431, 604.6179
3412.360, 609.0079
3414.288, 613.1403
3416.217, 615.7692
3418.145, 605.7907
3420.074, 590.9806
3422.002, 600.1352
3423.931, 612.3687
3425.859, 602.8090
3427.788, 595.5395
3429.716, 603.8558
3431.645, 605.8305
3433.573, 594.0974
3435.501, 592.3522
3437.430, 600.3237
3439.358, 617.7620
3441.287, 633.6740
3443.215, 624.2773
3445.144, 613.2881
3447.072, 618.4284
3449.001, 622.9183
3450.929, 617.4428
3452.858, 621.1942
3454.786, 633.7549
3456.715, 629.2571
3458.643, 615.0344
3460.572, 611.9733
3462.500, 612.4318
3464.428, 608.0253
3466.357, 606.0081
3468.285, 614.7360
3470.214, 611.3820
3472.142, 592.8257
3474.071, 596.8417
3475.999, 617.7191
3477.928, 628.0717
3479.856, 627.6172
3481.785, 605.5568
3483.713, 592.1049
3485.642, 609.6538
3487.570, 617.5039
3489.499, 604.0269
3491.427, 603.2748
3493.355, 614.0518
3495.284, 622.4330
3497.212, 627.7177
3499.141, 627.8446
3501.069, 625.3066
3502.998, 619.2643
3504.926, 617.6979
3506.855, 628.0940
3508.783, 621.6146
3510.712, 603.2242
3512.640, 603.3154
3514.569, 613.2663
3516.497, 625.3065
3518.426, 629.9222
3520.354, 616.9442
3522.282, 603.3223
3524.211, 589.5002
3526.139, 599.1193
3528.068, 627.6038
3529.996, 636.2378
3531.925, 635.3745
3533.853, 642.7412
3535.782, 645.0237
3537.710, 626.7428
3539.639, 618.3290
3541.567, 624.5508
3543.496, 628.8270
3545.424, 630.2086
3547.353, 630.1124
3549.281, 627.2455
3551.209, 615.4993
3553.138, 609.8096
3555.066, 620.3857
3556.995, 625.9608
3558.923, 622.0122
3560.852, 629.0211
3562.780, 640.6555
3564.709, 627.5214
3566.637, 613.8678
3568.566, 630.3199
3570.494, 641.1111
3572.423, 633.3884
3574.351, 628.8082
3576.280, 629.7437
3578.208, 624.8971
3580.136, 618.7288
3582.065, 618.9029
3583.993, 623.3271
3585.922, 632.6400
3587.850, 639.4219
3589.779, 640.3462
3591.707, 642.6541
3593.636, 645.1821
3595.564, 641.4446
3597.493, 636.0355
3599.421, 637.3769
3601.350, 634.9107
3603.278, 620.2408
3605.207, 611.8711
3607.135, 611.2376
3609.063, 624.0377
3610.992, 640.0114
3612.920, 635.3845
3614.849, 623.0516
3616.777, 605.4482
3618.706, 601.8733
3620.634, 621.6514
3622.563, 626.1419
3624.491, 618.9689
3626.420, 623.2217
3628.348, 633.5823
3630.277, 649.4625
3632.205, 657.2413
3634.134, 645.1634
3636.062, 637.7430
3637.990, 635.2056
3639.919, 625.2436
3641.847, 615.1260
3643.776, 620.4558
3645.704, 630.5519
3647.633, 644.7693
3649.561, 650.2600
3651.490, 645.9613
3653.418, 636.5902
3655.347, 626.6670
3657.275, 629.4944
3659.204, 633.7926
3661.132, 630.9667
3663.061, 626.0641
3664.989, 619.7841
3666.917, 613.2171
3668.846, 608.1185
3670.774, 614.2300
3672.703, 622.1797
3674.631, 622.8403
3676.560, 623.2890
3678.488, 626.6535
3680.417, 620.4259
3682.345, 607.9852
3684.274, 622.7817
3686.202, 640.5001
3688.131, 626.6927
3690.059, 617.2906
3691.988, 628.2864
3693.916, 633.3317
3695.844, 632.0961
3697.773, 646.4145
3699.701, 660.7188
3701.630, 649.6451
3703.558, 637.9883
3705.487, 636.9841
3707.415, 635.2326
3709.344, 631.9777
3711.272, 629.9688
3713.201, 629.2177
3715.129, 628.6859
3717.058, 631.5524
3718.986, 644.3729
3720.915, 642.8415
3722.843, 627.5728
3724.771, 628.1450
3726.700, 636.5206
3728.628, 642.4796
3730.557, 645.9419
3732.485, 646.4955
3734.414, 645.9350
3736.342, 644.0217
3738.271, 633.6675
3740.199, 625.8505
3742.128, 641.4926
3744.056, 654.8081
3745.985, 653.5696
3747.913, 650.2302
3749.842, 645.5479
3751.770, 638.6793
3753.698, 633.5499
3755.627, 637.5532
3757.555, 639.0550
3759.484, 631.3668
3761.412, 630.9568
3763.341, 636.2459
3765.269, 631.7729
3767.198, 629.6849
3769.126, 648.9572
3771.055, 656.5886
3772.983, 637.9689
3774.912, 641.0264
3776.840, 656.7330
3778.769, 645.8081
3780.697, 630.1331
3782.625, 624.4821
3784.554, 625.4577
3786.482, 632.8790
3788.411, 637.5511
3790.339, 639.3240
3792.268, 636.6569
3794.196, 634.3891
3796.125, 634.4956
3798.053, 638.7031
3799.982, 646.7062
3801.910, 652.6862
3803.839, 652.2108
3805.767, 630.2156
3807.696, 614.6487
3809.624, 617.2642
3811.552, 627.3404
3813.481, 640.7620
3815.409, 637.1346
3817.338, 627.5551
3819.266, 617.0436
3821.195, 618.3229
3823.123, 638.0120
3825.052, 644.3568
3826.980, 642.4156
3828.909, 646.5468
3830.837, 652.2156
3832.766, 658.1060
3834.694, 658.7407
3836.623, 653.5305
3838.551, 651.6901
3840.479, 652.9567
3842.408, 659.4288
3844.336, 662.3074
3846.265, 658.3022
3848.193, 658.3925
3850.122, 660.8073
3852.050, 654.9496
3853.979, 645.6688
3855.907, 630.4548
3857.836, 628.8331
3859.764, 642.2551
3861.693, 648.7842
3863.621, 649.2824
3865.550, 642.4737
3867.478, 638.6164
3869.406, 642.8345
3871.335, 648.2756
3873.263, 654.5847
3875.192, 665.3721
3877.120, 668.8425
3879.049, 649.8339
3880.977, 645.5346
3882.906, 661.5971
3884.834, 654.4880
3886.763, 637.4990
3888.691, 629.6769
3890.620, 626.7532
3892.548, 628.5389
3894.477, 637.5842
3896.405, 649.6739
3898.333, 653.0218
3900.262, 651.3649
3902.190, 645.8043
3904.119, 642.1027
3906.047, 640.4031
3907.976, 651.6002
3909.904, 662.7638
3911.833, 650.9304
3913.761, 648.7151
3915.690, 663.9143
3917.618, 667.9885
3919.547, 664.7588
3921.475, 663.9882
3923.404, 660.3648
3925.332, 651.3027
3927.260, 647.3738
3929.189, 648.6910
3931.117, 650.9216
3933.046, 653.3439
3934.974, 651.0027
3936.903, 652.9028
3938.831, 664.0844
3940.760, 654.9316
3942.688, 638.1514
3944.617, 642.1392
3946.545, 645.5125
3948.474, 632.0317
3950.402, 635.5302
3952.331, 652.8300
3954.259, 655.6353
3956.188, 654.0746
3958.116, 658.6217
3960.044, 647.6072
3961.973, 633.0158
3963.901, 650.4518
3965.830, 667.0919
3967.758, 655.2191
3969.687, 648.1805
3971.615, 652.4166
3973.544, 650.4144
3975.472, 647.5830
3977.401, 656.7507
3979.329, 658.5803
3981.258, 656.0900
3983.186, 656.1473
3985.115, 653.9025
3987.043, 654.0860
3988.971, 653.8640
3990.900, 662.3399
3992.828, 667.7715
3994.757, 664.4240
3996.685, 660.6380
3998.614, 660.8696
4000.542, 659.3801
4002.471, 652.3317
4004.399, 650.8788
4006.328, 657.5111
4008.256, 666.2435
4010.185, 669.3883
4012.113, 657.8979
4014.042, 647.8535
4015.970, 647.1201
4017.898, 647.5502
4019.827, 656.8354
4021.755, 659.4224
4023.684, 654.9045
4025.612, 650.7970
4027.541, 658.8214
4029.469, 670.6807
4031.398, 661.7941
4033.326, 656.2589
4035.255, 663.3181
4037.183, 656.9742
4039.112, 649.4648
4041.040, 659.2308
4042.969, 671.0432
4044.897, 671.7521
4046.825, 664.4944
4048.754, 657.1028
4050.682, 655.8207
4052.611, 663.8646
4054.539, 669.6441
4056.468, 664.4885
4058.396, 654.1477
4060.325, 651.1069
4062.253, 656.8424
4064.182, 665.4549
4066.110, 661.7503
4068.039, 649.6414
4069.967, 650.2332
4071.896, 659.1339
4073.824, 670.9035
4075.752, 672.0010
4077.681, 660.5066
4079.609, 661.2659
4081.538, 666.0743
4083.466, 665.3425
4085.395, 662.4149
4087.323, 653.2634
4089.252, 651.8015
4091.180, 656.5952
4093.109, 653.5732
4095.037, 650.0970
4096.965, 651.3602
4098.894, 651.7589
4100.822, 653.3122
4102.751, 670.8728
4104.679, 677.3379
4106.608, 654.4595
4108.536, 658.8545
4110.465, 682.0236
4112.393, 671.7144
4114.322, 656.9725
4116.250, 653.5955
4118.179, 659.7156
4120.107, 671.2294
4122.036, 668.3776
4123.964, 661.3577
4125.893, 651.9524
4127.821, 652.6376
4129.750, 662.6340
4131.678, 668.2853
4133.606, 673.2285
4135.535, 680.2387
4137.463, 676.2710
4139.392, 664.5886
4141.320, 672.9108
4143.249, 682.4282
4145.177, 673.7421
4147.105, 674.9790
4149.034, 684.6309
4150.962, 675.2670
4152.891, 666.3750
4154.819, 671.9688
4156.748, 676.7772
4158.676, 678.6504
4160.605, 668.3078
4162.533, 662.1856
4164.462, 678.0204
4166.390, 680.7502
4168.319, 664.1229
4170.247, 669.3130
4172.176, 677.7521
4174.104, 665.0345
4176.033, 659.1846
4177.961, 662.9645
4179.890, 667.1871
4181.818, 669.2195
4183.747, 668.6202
4185.675, 663.7993
4187.604, 652.5241
4189.532, 655.4020
4191.460, 666.7346
4193.389, 682.3242
4195.317, 686.0190
4197.246, 678.5621
4199.174, 667.7706
4201.103, 662.5148
4203.031, 680.9982
4204.959, 686.2908
4206.888, 678.2663
4208.816, 675.4598
4210.745, 673.5629
4212.673, 673.8421
4214.602, 677.3312
4216.530, 682.6838
4218.459, 683.2073
4220.387, 679.5631
4222.316, 675.3379
4224.244, 674.9313
4226.173, 674.6860
4228.101, 671.1644
4230.030, 673.6536
4231.958, 688.5217
4233.887, 699.1112
4235.815, 703.0048
4237.744, 697.2198
4239.672, 688.3291
4241.601, 678.1947
4243.529, 680.2012
4245.458, 686.8791
4247.386, 680.9405
4249.314, 683.8075
4251.243, 700.4287
4253.171, 688.6885
4255.100, 669.7990
4257.028, 673.1273
4258.957, 677.5033
4260.885, 679.6486
4262.813, 691.7542
4264.742, 700.2130
4266.670, 687.2284
4268.599, 683.5718
4270.527, 689.5435
4272.456, 687.1996
4274.384, 686.8676
4276.313, 697.8000
4278.241, 700.7484
4280.170, 697.7820
4282.098, 698.4937
4284.027, 700.0442
4285.955, 700.9075
4287.884, 703.8157
4289.812, 706.6117
4291.741, 704.6860
4293.669, 703.7981
4295.598, 705.5511
4297.526, 705.4324
4299.455, 705.6185
4301.383, 714.0895
4303.312, 704.1813
4305.240, 678.2571
4307.168, 686.2762
4309.097, 701.2548
4311.025, 703.9216
4312.954, 702.5956
4314.882, 699.7785
4316.811, 701.0656
4318.739, 704.3111
4320.667, 709.0641
4322.596, 720.0552
4324.524, 723.0904
4326.453, 679.5266
4328.381, 659.4583
4330.310, 678.1533
4332.238, 677.0381
4334.167, 677.3635
4336.095, 705.5048
4338.024, 716.1360
4339.952, 711.0417
4341.881, 720.0203
4343.809, 724.1065
4345.738, 712.6453
4347.666, 708.0617
4349.595, 707.5974
4351.523, 704.1888
4353.452, 705.0766
4355.380, 711.4548
4357.309, 709.1529
4359.237, 706.1732
4361.166, 710.9700
4363.094, 705.4402
4365.022, 693.0898
4366.951, 689.1278
4368.879, 700.7853
4370.808, 731.5894
4372.736, 732.2864
4374.665, 721.9385
4376.593, 735.9969
4378.521, 735.0945
4380.450, 716.4099
4382.378, 712.9627
4384.307, 713.1500
4386.235, 705.7504
4388.164, 709.8759
4390.092, 720.0999
4392.021, 722.1581
4393.949, 721.6179
4395.878, 720.1057
4397.806, 714.3170
4399.735, 708.0306
4401.663, 704.5377
4403.592, 703.0426
4405.520, 703.9316
4407.449, 712.0424
4409.377, 718.6305
4411.306, 721.0942
4413.234, 700.1197
4415.163, 679.6760
4417.091, 692.7867
4419.020, 706.3024
4420.948, 714.1450
4422.876, 712.2339
4424.805, 709.5269
4426.733, 710.4515
4428.662, 714.2283
4430.590, 715.3203
4432.519, 703.8047
4434.447, 691.1418
4436.375, 681.2015
4438.304, 688.7715
4440.232, 697.9041
4442.161, 699.5283
4444.089, 692.3319
4446.018, 686.7790
4447.946, 708.2288
4449.875, 712.4271
4451.803, 694.5291
4453.732, 697.5374
4455.660, 707.2276
4457.589, 716.6412
4459.517, 716.3259
4461.446, 709.1595
4463.374, 698.4218
4465.303, 690.1453
4467.231, 686.3517
4469.160, 693.0775
4471.088, 701.4695
4473.017, 707.4145
4474.945, 707.1332
4476.874, 702.9536
4478.802, 696.4064
4480.730, 694.9801
4482.659, 698.4599
4484.587, 693.7449
4486.516, 693.4268
4488.444, 703.1621
4490.373, 713.1420
4492.301, 718.4604
4494.229, 712.3359
4496.158, 704.2131
4498.086, 698.1591
4500.015, 706.2935
4501.943, 712.9164
4503.872, 711.6628
4505.800, 706.4653
4507.729, 700.6378
4509.657, 695.8047
4511.586, 699.7444
4513.514, 707.7523
4515.443, 706.3449
4517.371, 703.2724
4519.300, 701.6351
4521.228, 718.0627
4523.157, 723.0276
4525.085, 688.4935
4527.014, 686.8212
4528.942, 702.2458
4530.871, 707.2452
4532.799, 707.4985
4534.728, 704.2193
4536.656, 695.1479
4538.584, 694.6028
4540.513, 707.8582
4542.441, 706.7689
4544.370, 706.7827
4546.298, 728.7280
4548.227, 722.1458
4550.155, 699.6739
4552.083, 699.9536
4554.012, 694.6901
4555.940, 680.2336
4557.869, 689.6190
4559.797, 701.0142
4561.726, 703.7843
4563.654, 705.4661
4565.583, 704.3450
4567.511, 696.3040
4569.440, 692.1901
4571.368, 692.8370
4573.297, 698.8172
4575.225, 702.9091
4577.154, 703.3112
4579.082, 701.5529
4581.011, 697.3136
4582.939, 689.4980
4584.868, 694.1721
4586.796, 698.8292
4588.725, 686.5994
4590.653, 683.0546
4592.582, 689.8026
4594.510, 709.6030
4596.438, 715.6849
4598.367, 703.4905
4600.295, 689.7973
4602.224, 690.0302
4604.152, 712.8406
4606.081, 709.7355
4608.009, 696.1777
4609.938, 684.2056
4611.866, 690.0320
4613.794, 704.1742
4615.723, 707.7811
4617.651, 707.9838
4619.580, 705.5806
4621.508, 690.8329
4623.437, 691.5423
4625.365, 714.8041
4627.294, 725.6107
4629.222, 718.7400
4631.151, 685.9974
4633.079, 689.5775
4635.008, 707.3578
4636.936, 707.1509
4638.865, 706.6508
4640.793, 706.1705
4642.722, 698.8864
4644.650, 702.6670
4646.579, 714.8973
4648.507, 704.4124
4650.436, 692.5684
4652.364, 688.6244
4654.292, 684.0721
4656.221, 681.3173
4658.149, 681.3953
4660.078, 696.3682
4662.006, 709.5255
4663.935, 694.3110
4665.863, 702.5080
4667.792, 721.3767
4669.720, 712.5329
4671.648, 692.5183
4673.577, 670.2078
4675.505, 675.8708
4677.434, 686.2123
4679.362, 693.1522
4681.291, 684.5400
4683.219, 683.1109
4685.148, 707.6761
4687.076, 707.7410
4689.005, 697.6036
4690.933, 688.4985
4692.862, 683.2306
4694.790, 681.5204
4696.719, 683.2501
4698.647, 689.0645
4700.576, 694.6223
4702.504, 684.6608
4704.433, 687.0037
4706.361, 701.5840
4708.290, 701.3745
4710.218, 695.7407
4712.146, 688.1109
4714.075, 680.1358
4716.003, 676.1187
4717.932, 678.8863
4719.860, 686.1080
4721.789, 688.2245
4723.717, 677.4365
4725.646, 683.4858
4727.574, 695.6071
4729.502, 699.7738
4731.431, 704.3631
4733.359, 708.7131
4735.288, 713.4457
4737.216, 702.4540
4739.145, 684.2673
4741.073, 681.4569
4743.002, 690.5385
4744.930, 704.1984
4746.859, 692.7710
4748.787, 680.6752
4750.716, 675.2693
4752.644, 685.9296
4754.573, 693.5679
4756.501, 690.7391
4758.430, 678.2477
4760.358, 666.4396
4762.287, 661.0172
4764.215, 653.0380
4766.144, 651.3372
4768.072, 662.8518
4770.000, 672.5240
4771.929, 679.3678
4773.857, 682.9317
4775.786, 687.0557
4777.714, 689.0568
4779.643, 684.1345
4781.571, 679.9975
4783.500, 679.9065
4785.428, 693.3576
4787.356, 689.5876
4789.285, 677.3146
4791.213, 689.4821
4793.142, 688.5955
4795.070, 678.5654
4796.999, 692.6589
4798.927, 701.0385
4800.856, 699.0452
4802.784, 696.1259
4804.713, 689.9941
4806.641, 683.5077
4808.570, 702.1892
4810.498, 702.2680
4812.427, 671.6760
4814.355, 665.0771
4816.284, 670.9796
4818.212, 682.8124
4820.141, 678.9868
4822.069, 679.2244
4823.998, 694.6759
4825.926, 692.9664
4827.854, 683.9659
4829.783, 673.0447
4831.711, 661.5202
4833.640, 656.9037
4835.568, 665.7612
4837.497, 660.8021
4839.425, 662.9230
4841.354, 688.8155
4843.282, 676.6725
4845.210, 664.8760
4847.139, 693.4601
4849.067, 684.0095
4850.996, 671.5846
4852.924, 692.9270
4854.853, 689.5552
4856.781, 679.1497
4858.710, 684.6074
4860.638, 677.5253
4862.567, 669.1534
4864.495, 675.6031
4866.424, 669.0795
4868.352, 664.0481
4870.281, 682.8616
4872.209, 678.6119
4874.138, 663.8581
4876.066, 656.4913
4877.995, 651.8736
4879.923, 650.4161
4881.852, 652.9560
4883.780, 662.9519
4885.708, 672.2862
4887.637, 668.7458
4889.565, 670.1296
4891.494, 670.7301
4893.422, 660.3691
4895.351, 657.7899
4897.279, 660.7979
4899.208, 664.0079
4901.136, 672.6984
4903.064, 678.4994
4904.993, 670.4059
4906.921, 654.2300
4908.850, 646.7183
4910.778, 675.7050
4912.707, 669.8093
4914.635, 655.1901
4916.564, 668.3223
4918.492, 671.2332
4920.421, 668.7042
4922.349, 669.4651
4924.278, 661.6818
4926.206, 654.3588
4928.135, 656.4780
4930.063, 670.8419
4931.992, 681.1445
4933.920, 672.4329
4935.849, 656.4613
4937.777, 645.3880
4939.706, 651.0179
4941.634, 653.1852
4943.563, 656.7840
4945.491, 665.8547
4947.419, 652.8488
4949.348, 647.0768
4951.276, 669.6159
4953.205, 663.9543
4955.133, 653.6571
4957.062, 652.9772
4958.990, 653.4396
4960.918, 662.6009
4962.847, 681.8027
4964.775, 687.6961
4966.704, 677.6296
4968.632, 652.8954
4970.561, 653.6524
4972.489, 656.0810
4974.418, 653.9587
4976.346, 661.4610
4978.275, 659.7010
4980.203, 647.5427
4982.132, 646.4372
4984.060, 652.4596
4985.989, 662.5131
4987.917, 674.8079
4989.846, 664.6630
4991.774, 645.1988
4993.703, 659.6658
4995.631, 669.2241
4997.560, 666.8768
4999.488, 648.5774
5001.417, 626.4128
5003.345, 615.1705
5005.273, 638.9946
5007.202, 634.7071
5009.130, 629.4349
5011.059, 663.4152
5012.987, 670.1954
5014.916, 659.4896
5016.844, 640.6882
5018.772, 662.9934
5020.701, 677.3942
5022.629, 651.9429
5024.558, 635.0609
5026.486, 629.8022
5028.415, 635.4081
5030.343, 632.0244
5032.272, 629.6837
5034.200, 631.2259
5036.129, 633.5676
5038.057, 645.1525
5039.986, 660.8411
5041.914, 657.5646
5043.843, 657.1607
5045.771, 658.3327
5047.700, 651.5404
5049.628, 639.4608
5051.557, 629.1512
5053.485, 628.7341
5055.414, 636.5509
5057.342, 641.2950
5059.271, 633.5976
5061.199, 658.1709
5063.127, 669.9147
5065.056, 642.7130
5066.984, 640.6786
5068.913, 648.8400
5070.841, 657.5396
5072.770, 642.3311
5074.698, 623.2913
5076.626, 612.4421
5078.555, 640.3344
5080.483, 636.2234
5082.412, 614.3427
5084.340, 626.9421
5086.269, 634.4306
5088.197, 631.9593
5090.126, 617.5767
5092.054, 620.1075
5093.983, 627.6601
5095.911, 629.7651
5097.840, 636.8315
5099.768, 645.8812
5101.697, 654.8694
5103.625, 659.3617
5105.554, 658.0450
5107.482, 649.0812
5109.411, 618.7363
5111.339, 616.1524
5113.268, 631.5580
5115.196, 633.3173
5117.125, 626.1794
5119.053, 621.6760
5120.981, 631.0909
5122.910, 633.7126
5124.838, 638.1899
5126.767, 650.1998
5128.695, 631.6819
5130.624, 628.5682
5132.552, 648.6466
5134.480, 632.2231
5136.409, 634.9564
5138.337, 650.1213
5140.266, 634.2857
5142.194, 623.5668
5144.123, 620.3096
5146.051, 624.2122
5147.980, 628.4640
5149.908, 628.0933
5151.837, 620.9265
5153.765, 615.0104
5155.694, 623.8704
5157.622, 641.8496
5159.551, 612.8298
5161.479, 607.8767
5163.408, 621.8037
5165.336, 611.4980
5167.265, 618.0330
5169.193, 631.9186
5171.122, 639.8685
5173.050, 634.4356
5174.979, 629.4966
5176.907, 632.0402
5178.835, 619.3118
5180.764, 623.2162
5182.692, 641.3100
5184.621, 640.1000
5186.549, 627.5939
5188.478, 618.0337
5190.406, 630.3316
5192.334, 630.3315
5194.263, 633.8112
5196.191, 653.3076
5198.120, 635.7422
5200.048, 620.8275
5201.977, 619.4898
5203.905, 623.9904
5205.834, 624.3112
5207.762, 622.9145
5209.691, 628.3485
5211.619, 618.6600
5213.548, 613.3546
5215.476, 626.5722
5217.405, 617.6723
5219.333, 613.3692
5221.262, 619.5947
5223.190, 622.8702
5225.119, 634.6442
5227.047, 639.8033
5228.976, 602.5506
5230.904, 602.7235
5232.833, 615.9171
5234.761, 622.8826
5236.689, 615.2258
5238.618, 605.5113
5240.546, 603.4142
5242.475, 639.9523
5244.403, 618.9652
5246.332, 577.7216
5248.260, 578.3087
5250.188, 588.8082
5252.117, 597.8103
5254.045, 600.8480
5255.974, 607.1261
5257.902, 607.4517
5259.831, 603.7624
5261.759, 605.2599
5263.688, 608.3168
5265.616, 607.4423
5267.545, 596.8292
5269.473, 611.3080
5271.402, 621.1692
5273.330, 617.2499
5275.259, 605.4312
5277.187, 602.3052
5279.116, 607.6243
5281.044, 622.5922
5282.973, 614.3636
5284.901, 603.5338
5286.830, 601.0506
5288.758, 600.3972
5290.687, 606.4344
5292.615, 611.6374
5294.543, 599.6153
5296.472, 579.5072
5298.400, 577.3593
5300.329, 611.8989
5302.257, 603.4673
5304.186, 593.5704
5306.114, 590.5221
5308.042, 576.4490
5309.971, 593.8268
5311.899, 613.2679
5313.828, 604.6384
5315.756, 581.9067
5317.685, 586.9831
5319.613, 615.3481
5321.542, 586.1061
5323.470, 586.4747
5325.399, 594.9778
5327.327, 576.2144
5329.256, 590.3791
5331.184, 609.7188
5333.113, 617.0538
5335.041, 591.4841
5336.970, 576.2404
5338.898, 574.3320
5340.827, 584.4235
5342.755, 588.1614
5344.684, 591.6285
5346.612, 597.5328
5348.541, 609.5464
5350.469, 601.6097
5352.397, 588.4974
5354.326, 591.4504
5356.254, 572.7804
5358.183, 570.7162
5360.111, 592.3778
5362.040, 595.7856
5363.968, 596.9881
5365.896, 597.0515
5367.825, 594.4483
5369.753, 592.4401
5371.682, 583.5612
5373.610, 573.1196
5375.539, 592.1877
5377.467, 584.0438
5379.396, 572.1712
5381.324, 585.6744
5383.253, 570.8252
5385.181, 566.6401
5387.110, 575.4660
5389.038, 571.4551
5390.967, 571.4921
5392.895, 577.5835
5394.824, 587.6996
5396.752, 582.3895
5398.681, 577.1820
5400.609, 576.5274
5402.538, 585.5435
5404.466, 563.9814
5406.395, 557.9611
5408.323, 583.8853
5410.251, 585.1740
5412.180, 581.2722
5414.108, 578.6204
5416.037, 580.0154
5417.965, 578.1486
5419.894, 577.2000
5421.822, 576.4200
5423.750, 563.7686
5425.679, 566.5386
5427.607, 570.0150
5429.536, 561.1844
5431.464, 578.3774
5433.393, 578.6702
5435.321, 565.5884
5437.250, 562.0619
5439.178, 584.1432
5441.107, 590.0715
5443.035, 566.7943
5444.964, 551.2678
5446.892, 558.5027
5448.821, 570.0682
5450.749, 565.7343
5452.678, 563.5884
5454.606, 571.6536
5456.534, 583.8607
5458.463, 585.2505
5460.391, 571.9639
5462.320, 555.4064
5464.248, 545.2736
5466.177, 561.4406
5468.105, 561.5142
5470.034, 561.1289
5471.962, 586.1337
5473.891, 558.4797
5475.819, 545.8709
5477.748, 559.6120
5479.676, 585.4251
5481.604, 566.6472
5483.533, 549.0375
5485.461, 552.9553
5487.390, 557.6860
5489.318, 571.8793
5491.247, 580.7017
5493.175, 571.5378
5495.104, 560.8799
5497.032, 556.8898
5498.960, 559.1317
5500.889, 564.1018
5502.817, 576.5319
5504.746, 578.3002
5506.674, 567.2426
5508.603, 551.6819
5510.531, 566.1945
5512.460, 566.6136
5514.388, 536.7675
5516.317, 549.9047
5518.245, 557.2769
5520.174, 552.9199
5522.102, 538.7274
5524.031, 555.8400
5525.959, 564.0082
5527.888, 559.5056
5529.816, 551.9694
5531.745, 554.3804
5533.673, 552.7646
5535.602, 545.4623
5537.530, 539.4457
5539.458, 546.0274
5541.387, 564.3010
5543.315, 582.8300
5545.244, 542.6451
5547.172, 550.2123
5549.101, 572.1083
5551.029, 573.8167
5552.958, 544.8032
5554.886, 528.4465
5556.814, 535.4997
5558.743, 562.5612
5560.671, 530.4449
5562.600, 521.6871
5564.528, 538.7731
5566.457, 557.0514
5568.385, 538.7602
5570.314, 529.5961
5572.242, 535.8935
5574.171, 539.8003
5576.099, 521.9437
5578.028, 513.7221
5579.956, 525.4254
5581.885, 552.2687
5583.813, 546.1317
5585.742, 528.7787
5587.670, 518.7451
5589.599, 530.5566
5591.527, 532.1998
5593.456, 532.4063
5595.384, 536.8260
5597.313, 526.5011
5599.241, 533.1459
5601.169, 547.3712
5603.098, 557.4505
5605.026, 544.6537
5606.955, 559.2176
5608.883, 563.2876
5610.812, 519.1223
5612.740, 524.4946
5614.668, 527.4908
5616.597, 516.3921
5618.525, 495.2071
5620.454, 515.5328
5622.382, 524.0730
5624.311, 523.2036
5626.239, 530.5507
5628.168, 551.2880
5630.096, 543.4042
5632.025, 518.7521
5633.953, 506.1024
5635.882, 520.7877
5637.810, 537.2758
5639.739, 538.6776
5641.667, 511.2135
5643.596, 522.1741
5645.524, 523.1924
5647.453, 516.2891
5649.381, 525.2855
5651.310, 530.7508
5653.238, 536.8022
5655.167, 536.0317
5657.095, 516.0782
5659.023, 514.6931
5660.952, 516.8394
5662.880, 520.7962
5664.809, 534.4120
5666.737, 531.6117
5668.666, 517.7586
5670.594, 504.9386
5672.522, 507.8399
5674.451, 516.9960
5676.379, 524.0336
5678.308, 522.3644
5680.236, 507.5703
5682.165, 503.4199
5684.093, 519.5458
5686.022, 533.5863
5687.950, 519.8557
5689.879, 525.1028
5691.807, 504.4086
5693.736, 484.8389
5695.664, 504.5544
5697.593, 527.0120
5699.521, 531.6127
5701.450, 522.6758
5703.378, 509.1865
5705.307, 508.4114
5707.235, 512.7379
5709.164, 509.8611
5711.092, 494.1476
5713.021, 491.0876
5714.949, 515.2337
5716.877, 528.4428
5718.806, 511.3373
5720.734, 507.2809
5722.663, 516.6804
5724.591, 515.0920
5726.520, 498.0396
5728.448, 496.6602
5730.376, 506.2763
5732.305, 507.2850
5734.233, 498.4759
5736.162, 502.4546
5738.090, 496.8743
5740.019, 501.2583
5741.947, 512.9256
5743.876, 510.6445
5745.804, 509.5408
5747.733, 501.5550
5749.661, 495.2984
5751.590, 505.1069
5753.518, 513.9013
5755.447, 518.3728
5757.375, 518.2721
5759.304, 513.6634
5761.232, 498.0869
5763.161, 504.9635
5765.089, 508.6027
5767.018, 496.3551
5768.946, 507.9883
5770.875, 507.1109
5772.803, 496.0082
5774.731, 491.9895
5776.660, 538.9004
5778.588, 510.8528
5780.517, 491.4606
5782.445, 495.1636
5784.374, 488.3737
5786.302, 480.7975
5788.230, 485.5991
5790.159, 493.1313
5792.087, 490.8145
5794.016, 494.2293
5795.944, 490.5727
5797.873, 484.1781
5799.801, 485.3940
5801.730, 523.2159
5803.658, 486.7831
5805.587, 473.3503
5807.515, 495.8012
5809.444, 485.3432
5811.372, 473.9958
5813.301, 471.5716
5815.229, 476.6545
5817.158, 485.1296
5819.086, 498.8725
5821.015, 491.7976
5822.943, 489.5202
5824.872, 503.9626
5826.800, 494.2948
5828.729, 500.9745
5830.657, 497.1453
5832.585, 483.0591
5834.514, 488.2948
5836.442, 476.1628
5838.371, 483.7916
5840.299, 493.1327
5842.228, 478.6051
5844.156, 489.6797
5846.084, 496.2363
5848.013, 491.5021
5849.941, 479.3145
5851.870, 471.0078
5853.798, 476.6829
5855.727, 477.0497
5857.655, 481.6758
5859.584, 507.9547
5861.512, 488.8866
5863.441, 486.5713
5865.369, 497.5357
5867.298, 511.5995
5869.226, 539.0867
5871.155, 488.6626
5873.083, 479.4485
5875.012, 510.5309
5876.940, 507.0011
5878.869, 461.9495
5880.797, 470.7263
5882.726, 487.4879
5884.654, 473.5025
5886.583, 469.0407
5888.511, 474.9895
5890.439, 474.0144
5892.368, 471.0882
5894.296, 483.5577
5896.225, 463.3188
5898.153, 464.7910
5900.082, 477.9376
5902.010, 484.6292
5903.938, 475.4892
5905.867, 449.9520
5907.795, 455.5256
5909.724, 480.1150
5911.652, 483.6199
5913.581, 480.3805
5915.509, 490.0411
5917.438, 482.8134
5919.366, 458.5218
5921.295, 472.8689
5923.223, 475.4552
5925.152, 479.4386
5927.080, 487.7438
5929.009, 497.0283
5930.937, 501.3082
5932.866, 472.4678
5934.794, 469.8000
5936.723, 494.0766
5938.651, 497.4145
5940.580, 481.0656
5942.508, 468.2207
5944.437, 464.3196
5946.365, 469.0874
5948.293, 481.0057
5950.222, 480.0683
5952.150, 471.0718
5954.079, 462.1954
5956.007, 458.6852
5957.936, 455.7266
5959.864, 456.9137
5961.792, 465.7112
5963.721, 472.2920
5965.649, 461.2015
5967.578, 452.0034
5969.506, 466.0406
5971.435, 479.3106
5973.363, 479.4845
5975.292, 482.7705
5977.220, 463.0838
5979.149, 444.6313
5981.077, 442.5832
5983.006, 457.9302
5984.934, 473.4171
5986.863, 455.2075
5988.791, 446.9404
5990.720, 452.2420
5992.648, 456.9030
5994.577, 486.8939
5996.505, 464.9934
5998.434, 448.7925
6000.362, 455.5232
6002.291, 463.4660
6004.219, 475.6568
6006.147, 480.8538
6008.076, 478.5972
6010.004, 468.5782
6011.933, 446.4559
6013.861, 446.6191
6015.790, 448.9563
6017.718, 449.3786
6019.646, 449.5780
6021.575, 454.2722
6023.503, 449.1989
6025.432, 438.9124
6027.360, 444.7330
6029.289, 464.7106
6031.217, 445.4942
6033.146, 452.2330
6035.074, 458.8918
6037.003, 463.9614
6038.931, 468.6879
6040.860, 453.0842
6042.788, 470.1287
6044.717, 476.8232
6046.645, 464.2218
6048.574, 445.3826
6050.502, 454.0345
6052.431, 468.0351
6054.359, 456.8398
6056.288, 447.4386
6058.216, 462.0314
6060.145, 471.6943
6062.073, 467.9432
6064.001, 470.1883
6065.930, 474.1251
6067.858, 472.5570
6069.787, 471.8932
6071.715, 460.7169
6073.644, 466.2201
6075.572, 460.9793
6077.500, 434.9557
6079.429, 455.1568
6081.357, 431.3805
6083.286, 425.9954
6085.214, 437.7098
6087.143, 447.1835
6089.071, 441.3442
6091.000, 434.4146
6092.928, 441.1417
6094.857, 440.8976
6096.785, 429.9929
6098.714, 436.7234
6100.642, 435.4408
6102.571, 433.6668
6104.499, 431.1518
6106.428, 431.7045
6108.356, 445.8847
6110.285, 438.6008
6112.213, 424.0402
6114.142, 430.3915
6116.070, 448.1560
6117.999, 447.2910
6119.927, 437.8775
6121.855, 434.4446
6123.784, 425.7847
6125.712, 422.3020
6127.641, 435.3426
6129.569, 432.6477
6131.498, 438.8643
6133.426, 434.3989
6135.354, 430.9038
6137.283, 438.0738
6139.211, 441.8608
6141.140, 425.8570
6143.068, 442.3073
6144.997, 443.3237
6146.925, 422.5427
6148.854, 438.9814
6150.782, 449.0570
6152.711, 434.9550
6154.639, 438.0134
6156.568, 447.5956
6158.496, 432.2631
6160.425, 431.9714
6162.353, 431.6395
6164.282, 433.6561
6166.210, 430.5588
6168.139, 424.9181
6170.067, 448.1112
6171.996, 445.5815
6173.924, 419.2688
6175.853, 408.8233
6177.781, 426.0466
6179.709, 449.0150
6181.638, 412.1320
6183.566, 415.8429
6185.495, 447.6322
6187.423, 456.4455
6189.352, 423.7235
6191.280, 408.5824
6193.208, 417.5104
6195.137, 411.4884
6197.065, 422.3298
6198.994, 439.2522
6200.922, 416.1864
6202.851, 426.3229
6204.779, 425.0612
6206.708, 407.7919
6208.636, 404.1454
6210.565, 424.7405
6212.493, 425.3630
6214.422, 421.7037
6216.350, 418.8167
6218.279, 410.2188
6220.207, 414.1095
6222.136, 446.6719
6224.064, 423.0081
6225.993, 409.9913
6227.921, 405.3341
6229.850, 420.3142
6231.778, 439.2642
6233.707, 408.4824
6235.635, 409.3282
6237.563, 411.0861
6239.492, 421.0966
6241.420, 420.9295
6243.349, 398.9889
6245.277, 402.1897
6247.206, 415.8562
6249.134, 404.9654
6251.063, 409.1023
6252.991, 425.8567
6254.919, 421.2249
6256.848, 414.9556
6258.776, 427.7101
6260.705, 426.8321
6262.633, 418.5536
6264.562, 409.7029
6266.490, 396.7782
6268.419, 416.2870
6270.347, 402.6632
6272.276, 413.6041
6274.204, 416.3354
6276.133, 397.2084
6278.061, 405.0669
6279.990, 399.2810
6281.918, 402.9191
6283.847, 410.8429
6285.775, 406.2545
6287.704, 391.5002
6289.632, 395.2224
6291.561, 405.5499
6293.489, 413.0298
6295.417, 417.7344
6297.346, 417.9508
6299.274, 414.3585
6301.203, 413.1267
6303.131, 402.7430
6305.060, 411.3665
6306.988, 393.4322
6308.917, 377.2950
6310.845, 394.2220
6312.773, 418.5048
6314.702, 395.6181
6316.630, 399.7936
6318.559, 406.3728
6320.487, 391.1449
6322.416, 369.1277
6324.344, 394.3538
6326.273, 405.9285
6328.201, 393.7244
6330.130, 397.2193
6332.058, 412.1908
6333.987, 420.4283
6335.915, 416.4554
6337.844, 410.7666
6339.772, 402.9366
6341.701, 397.7619
6343.629, 396.1650
6345.558, 393.9088
6347.486, 389.0123
6349.415, 402.3215
6351.343, 389.7372
6353.271, 389.0740
6355.200, 384.8307
6357.128, 382.2195
6359.057, 397.4410
6360.985, 393.4589
6362.914, 383.3735
6364.842, 370.3000
6366.771, 381.1388
6368.699, 400.6639
6370.627, 404.7487
6372.556, 394.7378
6374.484, 392.9063
6376.413, 400.7139
6378.341, 394.4634
6380.270, 394.5731
6382.198, 395.3016
6384.127, 368.1621
6386.055, 384.7878
6387.984, 377.5185
6389.912, 375.4353
6391.841, 392.9084
6393.769, 405.4967
6395.698, 394.5428
6397.626, 392.8811
6399.555, 401.3831
6401.483, 403.1025
6403.412, 385.8742
6405.340, 383.4439
6407.269, 393.5509
6409.197, 375.4082
6411.125, 385.9435
6413.054, 413.6190
6414.982, 398.1935
6416.911, 392.3597
6418.839, 394.3189
6420.768, 386.0425
6422.696, 398.2928
6424.625, 385.7385
6426.553, 381.8915
6428.481, 375.7794
6430.410, 376.1936
6432.338, 383.5124
6434.267, 384.7616
6436.195, 371.0999
6438.124, 380.1374
6440.052, 389.4076
6441.981, 396.9056
6443.909, 392.4263
6445.838, 375.0379
6447.766, 361.5276
6449.695, 408.8145
6451.623, 387.1612
6453.552, 379.5999
6455.480, 367.6401
6457.409, 369.7937
6459.337, 389.5435
6461.266, 391.4827
6463.194, 370.0434
6465.123, 382.3374
6467.051, 388.3033
6468.979, 373.1144
6470.908, 361.8831
6472.836, 366.8808
6474.765, 370.8777
6476.693, 367.3554
6478.622, 358.8616
6480.550, 366.1862
6482.479, 366.1832
6484.407, 357.1545
6486.335, 354.5046
6488.264, 368.0588
6490.192, 378.8142
6492.121, 364.4375
6494.049, 369.2748
6495.978, 363.7023
6497.906, 359.4982
6499.835, 361.6524
6501.763, 356.9474
6503.692, 363.9260
6505.620, 391.8392
6507.549, 383.0223
6509.477, 369.8336
6511.406, 372.5816
6513.334, 385.0656
6515.263, 389.8139
6517.191, 365.8018
6519.120, 357.1550
6521.048, 353.7807
6522.977, 373.5173
6524.905, 373.3457
6526.833, 358.8482
6528.762, 359.1076
6530.690, 371.3652
6532.619, 364.2718
6534.547, 363.2464
6536.476, 362.1438
6538.404, 358.3853
6540.333, 357.6750
6542.261, 355.2968
6544.189, 348.8842
6546.118, 373.3901
6548.046, 351.3824
6549.975, 352.4807
6551.903, 353.2145
6553.832, 349.6623
6555.760, 354.9656
##END=



