##NAMES=Hulsite
##RRUFFID=R130016
##IDEAL CHEMISTRY=Fe^2+^_2_Fe^3+^O_2_(BO_3_)
##LOCALITY=Brooks Mountain, Seward Peninsula, Nome Borough, Alaska, USA
##OWNER=RRUFF
##SOURCE=Robert Lavinsky
##DESCRIPTION=Blocky black crystals, associated with diopside, dolomite, pale yellow vesuvianite, and nordenskiöldine, R130017
##STATUS=The identification of this mineral has been confirmed by single-crystal X-ray diffraction
##URL=https://www.rruff.net/odr/rruff_sample/R130016
##DIFFRACTION SAMPLE DESCRIPTION=Single crystal, powder profile is calculated
##CELL PARAMETERS=a: 10.6866 b: 3.0951 c: 5.4323 alpha: 90 beta: 94.146 gamma: 90 volume: 179.21 crystal system: monoclinic
##FILETYPE=Raman RAW
##RAMAN WAVELENGTH=780

93.69629, 474.9273
95.62476, 472.0331
97.55322, 464.6560
99.48169, 455.8069
101.4102, 447.4655
103.3386, 439.4142
105.2671, 432.2707
107.1956, 423.8589
109.1240, 417.7291
111.0525, 414.6375
112.9810, 413.5535
114.9094, 413.2446
116.8379, 413.4351
118.7664, 413.8642
120.6948, 413.8957
122.6233, 414.4895
124.5518, 415.5689
126.4802, 417.3824
128.4087, 420.3194
130.3372, 424.3080
132.2656, 428.1784
134.1941, 431.7294
136.1226, 435.1449
138.0510, 438.5583
139.9795, 441.7435
141.9080, 444.8336
143.8364, 447.7934
145.7649, 449.1646
147.6934, 448.0787
149.6218, 446.4248
151.5503, 443.8606
153.4788, 441.2973
155.4072, 439.2158
157.3357, 437.6446
159.2642, 437.0537
161.1926, 437.0457
163.1211, 438.7235
165.0496, 442.8456
166.9780, 448.1133
168.9065, 453.8129
170.8350, 459.9612
172.7634, 466.6320
174.6919, 473.7572
176.6204, 481.6617
178.5488, 490.6042
180.4773, 499.9640
182.4058, 509.9267
184.3342, 519.8913
186.2627, 528.7919
188.1912, 536.4721
190.1196, 543.4435
192.0481, 549.5602
193.9766, 555.2931
195.9050, 560.9510
197.8335, 566.2191
199.7620, 571.1317
201.6904, 575.6886
203.6189, 577.5950
205.5474, 576.2992
207.4758, 574.4514
209.4043, 573.6380
211.3328, 571.4316
213.2612, 566.2515
215.1897, 558.4703
217.1182, 549.1696
219.0466, 538.1893
220.9751, 526.8233
222.9036, 514.8913
224.8320, 503.1498
226.7605, 491.7294
228.6890, 480.7447
230.6174, 470.2376
232.5459, 460.2675
234.4744, 451.4113
236.4028, 443.9657
238.3313, 436.9593
240.2598, 430.4681
242.1882, 423.9566
244.1167, 416.8475
246.0452, 409.4766
247.9736, 402.9392
249.9021, 397.2204
251.8306, 391.6264
253.7590, 385.8647
255.6875, 380.4051
257.6160, 375.5965
259.5444, 371.0184
261.4729, 366.1730
263.4014, 361.1397
265.3298, 356.2259
267.2583, 351.4169
269.1868, 346.9425
271.1152, 343.0933
273.0437, 339.3376
274.9722, 335.1400
276.9006, 331.0161
278.8291, 328.2077
280.7576, 326.5231
282.6860, 323.6745
284.6145, 318.5688
286.5430, 313.7537
288.4714, 309.8153
290.3999, 306.2617
292.3284, 302.7775
294.2568, 299.4318
296.1853, 296.3986
298.1138, 293.7221
300.0422, 290.8834
301.9707, 287.4997
303.8992, 284.3685
305.8276, 281.7252
307.7561, 279.3241
309.6846, 276.9654
311.6130, 274.6971
313.5415, 272.6530
315.4700, 270.8637
317.3984, 269.2122
319.3269, 268.0372
321.2554, 266.4974
323.1838, 263.8473
325.1123, 261.1984
327.0408, 259.7089
328.9692, 258.9340
330.8977, 257.4142
332.8262, 254.6238
334.7546, 252.4739
336.6831, 251.2461
338.6116, 250.2541
340.5400, 249.5395
342.4685, 248.7853
344.3970, 247.7776
346.3254, 246.5460
348.2539, 245.1267
350.1824, 243.2952
352.1108, 242.0540
354.0393, 241.8982
355.9678, 241.3335
357.8962, 239.3238
359.8247, 237.4140
361.7532, 236.9357
363.6816, 237.2384
365.6101, 236.7185
367.5386, 235.2163
369.4670, 233.8006
371.3955, 232.5122
373.3240, 231.2054
375.2524, 229.4352
377.1809, 228.2222
379.1094, 228.7358
381.0378, 229.7668
382.9663, 229.2253
384.8948, 227.0978
386.8232, 225.6086
388.7517, 224.9334
390.6802, 223.9485
392.6086, 222.1765
394.5371, 220.4753
396.4656, 219.1678
398.3940, 218.1482
400.3225, 217.4027
402.2510, 216.8721
404.1794, 216.3170
406.1079, 215.7456
408.0364, 214.9645
409.9648, 213.7429
411.8933, 212.8350
413.8218, 212.8147
415.7502, 212.8165
417.6787, 212.2889
419.6072, 211.4851
421.5356, 210.8445
423.4641, 210.3378
425.3926, 209.7222
427.3210, 208.9092
429.2495, 208.4567
431.1780, 208.7764
433.1064, 209.0781
435.0349, 209.3645
436.9634, 209.3208
438.8918, 208.4547
440.8203, 207.1233
442.7488, 206.0825
444.6772, 205.3215
446.6057, 204.7803
448.5342, 204.6219
450.4626, 204.1905
452.3911, 203.1429
454.3196, 202.1135
456.2480, 201.6450
458.1765, 201.0569
460.1050, 199.4001
462.0334, 197.1975
463.9619, 195.6226
465.8904, 194.7193
467.8188, 193.4069
469.7473, 191.1482
471.6758, 189.3121
473.6042, 188.0303
475.5327, 187.1749
477.4612, 187.2447
479.3896, 187.2255
481.3181, 185.8370
483.2466, 183.7877
485.1750, 182.6376
487.1035, 182.5109
489.0320, 182.0414
490.9604, 180.7825
492.8889, 179.8276
494.8174, 179.5385
496.7458, 179.0960
498.6743, 178.2000
500.6028, 177.0627
502.5313, 175.7141
504.4597, 174.3161
506.3882, 173.1519
508.3167, 172.2269
510.2451, 171.4090
512.1736, 170.7874
514.1021, 170.0540
516.0305, 169.2128
517.9590, 168.2241
519.8875, 166.9901
521.8159, 165.7110
523.7444, 164.1243
525.6729, 162.8654
527.6013, 163.1731
529.5298, 164.4358
531.4583, 164.0485
533.3867, 161.7237
535.3152, 159.8431
537.2437, 158.4793
539.1721, 157.3004
541.1006, 156.4016
543.0291, 155.3348
544.9575, 153.5712
546.8860, 151.9169
548.8145, 150.9683
550.7429, 150.3666
552.6714, 149.6436
554.5999, 148.7993
556.5283, 147.7604
558.4568, 146.5271
560.3853, 145.5539
562.3137, 144.9050
564.2422, 144.3990
566.1707, 144.0695
568.0991, 143.7356
570.0276, 143.4954
571.9561, 143.0448
573.8845, 141.9089
575.8130, 140.6187
577.7415, 140.0351
579.6699, 139.9462
581.5984, 139.5109
583.5269, 138.7619
585.4553, 138.2759
587.3838, 138.1994
589.3123, 137.8914
591.2407, 137.0927
593.1692, 136.2678
595.0977, 135.5759
597.0261, 134.8506
598.9546, 133.8547
600.8831, 132.9166
602.8115, 132.4599
604.7400, 132.2912
606.6685, 132.0489
608.5969, 131.7327
610.5254, 131.3203
612.4539, 130.7809
614.3823, 130.3976
616.3108, 130.3751
618.2393, 130.1472
620.1677, 129.3959
622.0962, 128.8088
624.0247, 128.9483
625.9531, 128.9294
627.8816, 127.7327
629.8101, 126.4438
631.7385, 126.5586
633.6670, 127.3228
635.5955, 127.1385
637.5239, 126.0719
639.4524, 125.2475
641.3809, 124.7465
643.3093, 124.2983
645.2378, 123.8664
647.1663, 123.5399
649.0947, 123.4439
651.0232, 123.2635
652.9517, 122.9127
654.8801, 122.4372
656.8086, 121.6969
658.7371, 121.0082
660.6655, 120.6804
662.5940, 120.5564
664.5225, 120.4756
666.4509, 120.3775
668.3794, 119.8703
670.3079, 118.9028
672.2363, 118.0920
674.1648, 117.4776
676.0933, 116.8698
678.0217, 116.2457
679.9502, 115.6533
681.8787, 115.0621
683.8071, 114.5879
685.7356, 114.4189
687.6641, 114.1780
689.5925, 113.5926
691.5210, 112.9094
693.4495, 112.2996
695.3779, 111.7782
697.3064, 111.4096
699.2349, 111.1522
701.1633, 110.8640
703.0918, 110.5421
705.0203, 110.0685
706.9487, 109.4307
708.8772, 108.9372
710.8057, 108.6621
712.7341, 108.2874
714.6626, 107.6506
716.5911, 107.1583
718.5195, 107.0085
720.4480, 106.9289
722.3765, 107.0345
724.3049, 106.9106
726.2334, 106.0167
728.1619, 105.0187
730.0903, 104.6497
732.0188, 104.6322
733.9473, 104.5861
735.8757, 104.4738
737.8042, 104.2012
739.7327, 103.7707
741.6611, 103.0874
743.5896, 102.1541
745.5181, 101.7082
747.4465, 101.9605
749.3750, 101.9435
751.3035, 101.4062
753.2319, 100.8301
755.1604, 100.2104
757.0889, 99.69059
759.0173, 99.30272
760.9458, 99.02868
762.8743, 99.02498
764.8027, 98.94112
766.7312, 98.35520
768.6597, 97.74389
770.5881, 97.74302
772.5166, 97.89793
774.4451, 97.53773
776.3735, 96.88720
778.3020, 96.40348
780.2305, 96.08253
782.1589, 95.94430
784.0874, 96.00090
786.0159, 95.76862
787.9443, 95.10633
789.8728, 94.68253
791.8013, 94.82561
793.7297, 94.56486
795.6582, 93.59734
797.5867, 92.85307
799.5151, 92.47033
801.4436, 92.28716
803.3721, 92.43832
805.3005, 92.44258
807.2290, 91.91053
809.1575, 91.44781
811.0859, 91.56361
813.0144, 91.68050
814.9429, 91.23569
816.8713, 90.75859
818.7998, 90.93176
820.7283, 91.26529
822.6567, 90.97029
824.5852, 90.33937
826.5137, 90.07777
828.4421, 90.04446
830.3706, 89.61417
832.2991, 88.84300
834.2275, 88.38020
836.1560, 88.23915
838.0845, 87.78831
840.0129, 86.99044
841.9414, 86.79868
843.8699, 87.36943
845.7983, 87.53739
847.7268, 87.07499
849.6553, 86.69582
851.5837, 86.56035
853.5122, 86.38757
855.4407, 86.02132
857.3691, 85.81738
859.2976, 86.02324
861.2261, 86.16473
863.1545, 86.26861
865.0830, 86.01469
867.0115, 84.89179
868.9399, 83.87856
870.8684, 83.55979
872.7969, 83.52102
874.7253, 83.62788
876.6538, 83.68474
878.5823, 83.38862
880.5107, 83.05152
882.4392, 83.25346
884.3677, 83.49683
886.2961, 82.81470
888.2246, 81.78122
890.1531, 81.52097
892.0815, 81.69884
894.0100, 81.60262
895.9385, 81.32876
897.8669, 81.17920
899.7954, 81.13394
901.7239, 81.12232
903.6523, 81.11877
905.5808, 80.92355
907.5093, 80.53098
909.4377, 80.05959
911.3662, 79.47864
913.2947, 79.21630
915.2231, 79.39303
917.1516, 79.42986
919.0801, 79.23532
921.0085, 79.10622
922.9370, 78.94982
924.8655, 79.06987
926.7939, 79.96137
928.7224, 80.10759
930.6509, 78.85684
932.5793, 78.07143
934.5078, 78.27177
936.4363, 78.29063
938.3647, 77.69762
940.2932, 77.39404
942.2217, 77.75395
944.1501, 78.10532
946.0786, 78.36662
948.0071, 78.27377
949.9355, 77.46872
951.8640, 76.85201
953.7925, 76.96104
955.7209, 77.03856
957.6494, 76.75053
959.5779, 76.31318
961.5063, 75.66950
963.4348, 75.17023
965.3633, 75.11002
967.2917, 75.10838
969.2202, 74.98497
971.1487, 74.81277
973.0771, 74.61773
975.0056, 74.40543
976.9341, 74.10917
978.8625, 73.87845
980.7910, 73.89619
982.7195, 73.94547
984.6479, 73.79032
986.5764, 73.64581
988.5049, 73.80806
990.4333, 73.96641
992.3618, 73.86265
994.2903, 73.54545
996.2188, 72.86110
998.1472, 72.20797
1000.076, 72.19648
1002.004, 72.30191
1003.933, 71.78224
1005.861, 71.15010
1007.790, 71.14341
1009.718, 71.28626
1011.646, 70.87641
1013.575, 70.33982
1015.503, 70.27043
1017.432, 70.37514
1019.360, 70.35829
1021.289, 70.19498
1023.217, 69.67281
1025.146, 69.14819
1027.074, 69.23995
1029.003, 69.51217
1030.931, 69.45498
1032.860, 69.14504
1034.788, 68.38737
1036.717, 67.69842
1038.645, 68.07103
1040.573, 68.65231
1042.502, 68.05405
1044.430, 67.23878
1046.359, 67.57005
1048.287, 68.27300
1050.216, 68.54613
1052.144, 68.46375
1054.073, 67.97161
1056.001, 67.32831
1057.930, 66.75877
1059.858, 66.30593
1061.787, 66.09546
1063.715, 65.94755
1065.644, 65.55248
1067.572, 65.20678
1069.500, 65.41456
1071.429, 65.64123
1073.357, 65.25907
1075.286, 64.70010
1077.214, 64.29987
1079.143, 64.03533
1081.071, 64.02574
1083.000, 63.98571
1084.928, 63.51255
1086.857, 63.09978
1088.785, 63.19820
1090.714, 63.43965
1092.642, 63.67112
1094.571, 63.78330
1096.499, 63.75222
1098.427, 63.50163
1100.356, 62.64362
1102.284, 62.02392
1104.213, 62.38871
1106.141, 62.72342
1108.070, 62.47831
1109.998, 62.15397
1111.927, 61.83522
1113.855, 61.69025
1115.784, 62.09210
1117.712, 62.17697
1119.641, 61.48319
1121.569, 60.76528
1123.498, 60.09023
1125.426, 59.70237
1127.354, 59.78258
1129.283, 59.89779
1131.211, 60.04488
1133.140, 59.98548
1135.068, 59.55677
1136.997, 59.25149
1138.925, 59.11237
1140.854, 59.25175
1142.782, 59.85354
1144.711, 59.96608
1146.639, 59.37452
1148.568, 58.98050
1150.496, 58.85527
1152.425, 58.98063
1154.353, 59.38323
1156.281, 59.50076
1158.210, 59.30958
1160.138, 59.44153
1162.067, 59.85527
1163.995, 59.57086
1165.924, 58.71908
1167.852, 58.34551
1169.781, 58.39027
1171.709, 58.69818
1173.638, 59.07503
1175.566, 58.76909
1177.495, 58.18101
1179.423, 58.20702
1181.352, 58.52960
1183.280, 58.77664
1185.208, 58.86295
1187.137, 58.48288
1189.065, 58.10837
1190.994, 58.30768
1192.922, 58.55958
1194.851, 58.50462
1196.779, 58.34008
1198.708, 58.10065
1200.636, 57.95072
1202.565, 58.00310
1204.493, 58.09504
1206.422, 58.13260
1208.350, 58.29544
1210.279, 58.73112
1212.207, 58.92180
1214.135, 58.65159
1216.064, 58.56997
1217.992, 58.82946
1219.921, 59.05598
1221.849, 59.22470
1223.778, 58.91966
1225.706, 58.12379
1227.635, 57.83208
1229.563, 58.03782
1231.492, 58.13299
1233.420, 58.09728
1235.349, 57.76402
1237.277, 57.35295
1239.206, 57.67826
1241.134, 58.29811
1243.063, 58.32312
1244.991, 58.10546
1246.919, 58.09239
1248.848, 58.15693
1250.776, 58.25578
1252.705, 58.25810
1254.633, 57.99261
1256.562, 57.71265
1258.490, 57.53088
1260.419, 57.40271
1262.347, 57.29836
1264.276, 57.27128
1266.204, 57.39515
1268.133, 57.45118
1270.061, 57.35592
1271.990, 57.43703
1273.918, 57.77042
1275.846, 57.85057
1277.775, 57.65894
1279.703, 57.49007
1281.632, 57.34702
1283.560, 57.20523
1285.489, 57.06260
1287.417, 56.78440
1289.346, 56.60600
1291.274, 57.17684
1293.203, 57.82497
1295.131, 57.73343
1297.060, 57.54705
1298.988, 57.81359
1300.917, 58.02630
1302.845, 57.91547
1304.773, 57.66877
1306.702, 57.20023
1308.630, 57.07146
1310.559, 57.52903
1312.487, 57.91726
1314.416, 58.16526
1316.344, 58.26002
1318.273, 58.19047
1320.201, 58.13953
1322.130, 58.11231
1324.058, 58.19001
1325.987, 58.32494
1327.915, 58.43403
1329.844, 58.45784
1331.772, 58.18291
1333.700, 57.91669
1335.629, 57.83616
1337.557, 58.07954
1339.486, 59.17931
1341.414, 59.81709
1343.343, 59.33234
1345.271, 58.99852
1347.200, 59.10753
1349.128, 59.38768
1351.057, 59.81419
1352.985, 59.89790
1354.914, 59.67295
1356.842, 60.06107
1358.771, 60.79858
1360.699, 60.63883
1362.627, 60.04053
1364.556, 59.76051
1366.484, 59.73805
1368.413, 60.04491
1370.341, 60.37018
1372.270, 60.56471
1374.198, 60.57825
1376.127, 60.10491
1378.055, 60.01070
1379.984, 60.72207
1381.912, 61.01979
1383.841, 60.76174
1385.769, 60.57884
1387.698, 60.47565
1389.626, 60.03617
1391.554, 59.52471
1393.483, 60.13678
1395.411, 60.92322
1397.340, 60.22265
1399.268, 59.34881
1401.197, 59.48244
1403.125, 59.71500
1405.054, 59.61011
1406.982, 59.43386
1408.911, 59.18515
1410.839, 59.10101
1412.768, 59.30717
1414.696, 59.25332
1416.625, 58.94709
1418.553, 58.91718
1420.481, 59.05235
1422.410, 58.99772
1424.338, 58.82388
1426.267, 58.48265
1428.195, 58.30299
1430.124, 58.65087
1432.052, 59.00924
1433.981, 59.34830
1435.909, 58.96703
1437.838, 57.51562
1439.766, 56.65895
1441.695, 56.59784
1443.623, 56.87414
1445.552, 57.28767
1447.480, 56.81734
1449.408, 55.92099
1451.337, 55.27248
1453.265, 54.98048
1455.194, 55.51620
1457.122, 55.84882
1459.051, 55.24523
1460.979, 54.91450
1462.908, 55.20669
1464.836, 55.15481
1466.765, 54.66876
1468.693, 54.36937
1470.622, 54.24606
1472.550, 54.14048
1474.479, 53.97926
1476.407, 53.61205
1478.335, 53.15869
1480.264, 52.47168
1482.192, 52.16607
1484.121, 52.90832
1486.049, 53.31260
1487.978, 53.11424
1489.906, 52.77220
1491.835, 52.32982
1493.763, 52.35571
1495.692, 52.62277
1497.620, 52.38152
1499.549, 51.93039
1501.477, 51.54151
1503.406, 51.25437
1505.334, 51.17402
1507.262, 51.05515
1509.191, 50.80351
1511.119, 50.55044
1513.048, 50.27346
1514.976, 50.34774
1516.905, 50.64313
1518.833, 50.20598
1520.762, 49.64307
1522.690, 50.23134
1524.619, 50.74785
1526.547, 50.28802
1528.476, 49.77623
1530.404, 49.49866
1532.333, 49.36649
1534.261, 49.37330
1536.189, 49.59566
1538.118, 49.92266
1540.046, 49.64540
1541.975, 49.15118
1543.903, 48.99827
1545.832, 49.06392
1547.760, 49.41252
1549.689, 49.59106
1551.617, 49.44134
1553.546, 49.24599
1555.474, 49.05325
1557.403, 49.39188
1559.331, 49.94743
1561.260, 49.33298
1563.188, 48.52028
1565.116, 48.92724
1567.045, 49.47115
1568.973, 49.46766
1570.902, 49.61570
1572.830, 50.12238
1574.759, 49.81694
1576.687, 48.79499
1578.616, 48.54751
1580.544, 48.74275
1582.473, 48.70115
1584.401, 48.57673
1586.330, 48.50012
1588.258, 48.40398
1590.187, 48.28323
1592.115, 48.06849
1594.043, 47.74427
1595.972, 47.56533
1597.900, 47.51622
1599.829, 47.56522
1601.757, 47.64708
1603.686, 47.83095
1605.614, 47.77882
1607.543, 47.14376
1609.471, 46.60775
1611.400, 46.23289
1613.328, 46.17545
1615.257, 46.39516
1617.185, 46.80531
1619.114, 47.11503
1621.042, 46.80493
1622.970, 46.45858
1624.899, 46.42429
1626.827, 46.23996
1628.756, 45.73251
1630.684, 45.50449
1632.613, 45.53542
1634.541, 45.74723
1636.470, 45.87772
1638.398, 45.26435
1640.327, 44.87632
1642.255, 45.35772
1644.184, 45.45308
1646.112, 44.85455
1648.041, 44.64754
1649.969, 44.77723
1651.897, 44.65372
1653.826, 44.46707
1655.754, 44.52791
1657.683, 44.53303
1659.611, 44.30002
1661.540, 44.20409
1663.468, 44.30151
1665.397, 44.28947
1667.325, 44.16438
1669.254, 43.87504
1671.182, 43.65429
1673.111, 43.85146
1675.039, 44.00412
1676.968, 43.86349
1678.896, 44.05289
1680.824, 44.56157
1682.753, 44.45702
1684.681, 44.05581
1686.610, 43.97953
1688.538, 44.09138
1690.467, 44.58296
1692.395, 44.59839
1694.324, 43.82440
1696.252, 43.21485
1698.181, 42.82048
1700.109, 42.85518
1702.038, 43.02788
1703.966, 43.14022
1705.895, 42.97008
1707.823, 41.91138
1709.751, 42.01011
1711.680, 43.53595
1713.608, 43.03344
1715.537, 41.56107
1717.465, 41.46243
1719.394, 41.85178
1721.322, 42.39390
1723.251, 42.62168
1725.179, 42.35579
1727.108, 42.12574
1729.036, 41.92097
1730.965, 41.57928
1732.893, 41.29289
1734.822, 41.33429
1736.750, 41.26508
1738.678, 40.90107
1740.607, 40.89247
1742.535, 41.20807
1744.464, 41.16019
1746.392, 40.82694
1748.321, 39.96779
1750.249, 39.57753
1752.178, 40.18082
1754.106, 40.31499
1756.035, 39.86236
1757.963, 39.67474
1759.892, 39.67025
1761.820, 39.83468
1763.749, 39.80943
1765.677, 39.18141
1767.605, 39.20903
1769.534, 39.94143
1771.462, 39.67163
1773.391, 39.01194
1775.319, 39.37324
1777.248, 39.69179
1779.176, 39.13848
1781.105, 38.72460
1783.033, 38.55318
1784.962, 38.55234
1786.890, 38.61625
1788.819, 38.51610
1790.747, 38.44195
1792.676, 38.55708
1794.604, 38.63537
1796.532, 38.65582
1798.461, 38.53179
1800.389, 38.27394
1802.318, 37.75245
1804.246, 37.40984
1806.175, 37.56708
1808.103, 37.82138
1810.032, 38.13584
1811.960, 37.77595
1813.889, 37.19387
1815.817, 37.30412
1817.746, 37.32452
1819.674, 36.77571
1821.603, 36.77972
1823.531, 37.36866
1825.459, 36.85918
1827.388, 36.03577
1829.316, 36.16203
1831.245, 36.19146
1833.173, 35.73091
1835.102, 35.69224
1837.030, 36.04990
1838.959, 36.24421
1840.887, 36.23607
1842.816, 35.84388
1844.744, 35.50573
1846.673, 35.31301
1848.601, 35.10458
1850.530, 34.93727
1852.458, 35.11139
1854.386, 35.25826
1856.315, 34.98004
1858.243, 35.00562
1860.172, 35.37577
1862.100, 35.01561
1864.029, 34.29132
1865.957, 33.64359
1867.886, 33.38240
1869.814, 33.91618
1871.743, 33.67001
1873.671, 32.84109
1875.600, 33.21012
1877.528, 33.80424
1879.457, 33.62473
1881.385, 33.40980
1883.313, 33.31753
1885.242, 33.42272
1887.170, 33.57453
1889.099, 33.39045
1891.027, 33.13639
1892.956, 32.89439
1894.884, 32.83201
1896.813, 32.93393
1898.741, 32.96035
1900.670, 32.84130
1902.598, 32.39854
1904.527, 32.14502
1906.455, 32.29748
1908.384, 32.24574
1910.312, 32.09223
1912.240, 32.26262
1914.169, 32.15229
1916.097, 31.29537
1918.026, 31.19094
1919.954, 31.83858
1921.883, 31.97419
1923.811, 31.85659
1925.740, 31.69547
1927.668, 31.51575
1929.597, 31.32031
1931.525, 30.97556
1933.454, 30.64617
1935.382, 30.69963
1937.311, 30.77279
1939.239, 30.74100
1941.167, 30.63615
1943.096, 30.56397
1945.024, 31.07650
1946.953, 31.33078
1948.881, 30.51001
1950.810, 29.97413
1952.738, 29.79623
1954.667, 29.50416
1956.595, 29.24333
1958.524, 29.28275
1960.452, 29.13346
1962.381, 28.71201
1964.309, 28.64254
1966.238, 28.70058
1968.166, 28.41740
1970.094, 28.32399
1972.023, 28.72204
1973.951, 28.80279
1975.880, 28.65283
1977.808, 28.45224
1979.737, 28.31524
1981.665, 28.37035
1983.594, 28.25521
1985.522, 28.02017
1987.451, 28.00641
1989.379, 27.96872
1991.308, 27.77625
1993.236, 27.37581
1995.165, 26.82293
1997.093, 26.52913
1999.021, 26.40146
2000.950, 26.39578
2002.878, 26.32169
2004.807, 26.16858
2006.735, 26.46381
2008.664, 26.74039
2010.592, 26.40059
2012.521, 26.22092
2014.449, 26.33213
2016.378, 26.05976
2018.306, 25.61530
2020.235, 25.11038
2022.163, 25.05783
2024.092, 25.53943
2026.020, 25.95409
2027.948, 26.06877
2029.877, 25.30941
2031.805, 24.71021
2033.734, 24.50700
2035.662, 24.55400
2037.591, 24.68777
2039.519, 24.78528
2041.448, 24.60697
2043.376, 24.09274
2045.305, 23.81420
2047.233, 23.74150
2049.162, 23.82750
2051.090, 23.96891
2053.019, 24.16295
2054.947, 23.97468
2056.875, 23.62569
2058.804, 23.45650
2060.732, 23.33583
2062.661, 23.21748
2064.589, 23.20054
2066.518, 23.21058
2068.446, 23.17229
2070.375, 22.99884
2072.303, 22.61058
2074.232, 22.74457
2076.160, 23.04297
2078.089, 23.03355
2080.017, 22.97919
2081.946, 22.95049
2083.874, 22.75925
2085.802, 22.39054
2087.731, 21.64525
2089.659, 21.42896
2091.588, 21.92563
2093.516, 22.32339
2095.445, 22.43925
2097.373, 21.96756
2099.302, 21.72660
2101.230, 21.81443
2103.159, 21.85726
2105.087, 21.82582
2107.016, 21.69834
2108.944, 21.42492
2110.873, 21.10607
2112.801, 21.29571
2114.729, 21.37784
2116.658, 20.88703
2118.586, 20.98487
2120.515, 21.39562
2122.443, 21.01267
2124.372, 20.73511
2126.300, 21.00043
2128.229, 20.75435
2130.157, 20.27408
2132.086, 20.09322
2134.014, 20.05829
2135.943, 20.12417
2137.871, 20.25855
2139.800, 20.30715
2141.728, 19.97055
2143.656, 19.84632
2145.585, 19.99245
2147.513, 19.99296
2149.442, 19.89444
2151.370, 19.67785
2153.299, 19.62432
2155.227, 19.65060
2157.156, 19.11748
2159.084, 18.94173
2161.013, 19.70269
2162.941, 19.51457
2164.870, 18.88739
2166.798, 18.96286
2168.727, 18.94595
2170.655, 18.63700
2172.583, 18.93378
2174.512, 19.30584
2176.440, 19.21165
2178.369, 19.05145
2180.297, 18.90443
2182.226, 18.86436
2184.154, 18.77283
2186.083, 18.53150
2188.011, 18.57826
2189.940, 18.75585
2191.868, 18.67632
2193.797, 18.59532
2195.725, 18.57191
2197.654, 18.48468
2199.582, 18.40992
2201.510, 18.51431
2203.439, 18.31617
2205.367, 17.96784
2207.296, 18.32378
2209.224, 18.55061
2211.153, 18.21213
2213.081, 17.82006
2215.010, 17.49515
2216.938, 17.34857
2218.867, 17.43582
2220.795, 17.70645
2222.724, 17.45948
2224.652, 17.22082
2226.581, 17.47129
2228.509, 17.40753
2230.438, 17.16183
2232.366, 17.09497
2234.294, 17.15714
2236.223, 17.34629
2238.151, 16.90667
2240.080, 16.42489
2242.008, 16.37535
2243.937, 16.42221
2245.865, 16.53539
2247.794, 16.87599
2249.722, 17.10194
2251.651, 17.10041
2253.579, 17.11655
2255.508, 16.94780
2257.436, 16.28346
2259.365, 15.95607
2261.293, 15.96703
2263.221, 15.98992
2265.150, 15.94860
2267.078, 15.82825
2269.007, 16.10771
2270.935, 16.29076
2272.864, 15.64747
2274.792, 15.23449
2276.721, 15.19574
2278.649, 15.77536
2280.578, 16.07995
2282.506, 15.85208
2284.435, 15.68326
2286.363, 15.53601
2288.292, 15.32587
2290.220, 15.20163
2292.148, 15.16290
2294.077, 15.23477
2296.005, 15.19428
2297.934, 14.98351
2299.862, 14.96182
2301.791, 14.89882
2303.719, 14.38782
2305.648, 14.96015
2307.576, 15.89303
2309.505, 15.78325
2311.433, 15.17838
2313.362, 14.32755
2315.290, 14.31018
2317.219, 14.55527
2319.147, 14.79260
2321.075, 14.99117
2323.004, 15.12165
2324.932, 15.19488
2326.861, 14.86938
2328.789, 14.35173
2330.718, 14.60549
2332.646, 14.77330
2334.575, 14.60073
2336.503, 14.16953
2338.432, 14.06376
2340.360, 14.77315
2342.289, 14.66796
2344.217, 14.19794
2346.146, 14.43207
2348.074, 14.35245
2350.002, 13.93651
2351.931, 13.74452
2353.859, 13.60725
2355.788, 13.46208
2357.716, 13.59487
2359.645, 13.82421
2361.573, 14.12317
2363.502, 13.86763
2365.430, 13.39200
2367.359, 13.37935
2369.287, 13.08701
2371.216, 12.59856
2373.144, 12.93551
2375.073, 13.20169
2377.001, 13.04888
2378.929, 13.02948
2380.858, 13.06707
2382.786, 13.15709
2384.715, 12.85820
2386.643, 12.57228
2388.572, 12.93803
2390.500, 13.04484
2392.429, 12.88296
2394.357, 12.77280
2396.286, 12.75767
2398.214, 12.82071
2400.143, 12.60089
2402.071, 12.35777
2404.000, 12.21602
2405.928, 12.18875
2407.856, 12.18040
2409.785, 12.06279
2411.713, 12.57547
2413.642, 13.13292
2415.570, 12.33219
2417.499, 12.04935
2419.427, 12.30175
2421.356, 12.32795
2423.284, 12.23984
2425.213, 12.09845
2427.141, 12.06111
2429.070, 12.03025
2430.998, 11.95801
2432.927, 12.16051
2434.855, 12.31078
2436.783, 12.04146
2438.712, 11.99219
2440.640, 12.09694
2442.569, 12.41076
2444.497, 11.96102
2446.426, 11.36456
2448.354, 12.51053
2450.283, 12.63294
2452.211, 11.69465
2454.140, 11.63669
2456.068, 11.46646
2457.997, 10.94159
2459.925, 11.09869
2461.854, 11.23783
2463.782, 11.01555
2465.710, 10.90846
2467.639, 11.05019
2469.567, 11.55274
2471.496, 11.29239
2473.424, 10.78405
2475.353, 10.56462
2477.281, 10.64218
2479.210, 10.68173
2481.138, 9.987798
2483.067, 10.14476
2484.995, 10.77521
2486.924, 10.50728
2488.852, 10.04258
2490.781, 9.728807
2492.709, 10.54813
2494.637, 10.65481
2496.566, 9.900992
2498.494, 9.675120
2500.423, 9.906901
2502.351, 10.41919
2504.280, 9.856539
2506.208, 9.557856
2508.137, 10.16001
2510.065, 10.37841
2511.994, 10.39691
2513.922, 10.31660
2515.851, 10.31603
2517.779, 10.19646
2519.708, 9.633086
2521.636, 9.730311
2523.564, 9.956906
2525.493, 9.701691
2527.421, 9.759601
2529.350, 9.901864
2531.278, 9.713504
2533.207, 10.23712
2535.135, 10.71311
2537.064, 9.671948
2538.992, 9.559188
2540.921, 10.01075
2542.849, 9.748923
2544.778, 9.523702
2546.706, 9.429250
2548.635, 9.397883
2550.563, 9.565428
2552.491, 9.778607
2554.420, 9.373598
2556.348, 9.406267
2558.277, 9.860868
2560.205, 10.07856
2562.134, 10.01048
2564.062, 9.793702
2565.991, 10.09199
2567.919, 9.746673
2569.848, 8.881176
2571.776, 8.999805
2573.705, 9.222545
2575.633, 9.287629
2577.562, 9.150694
2579.490, 8.819380
2581.418, 8.412876
2583.347, 8.694736
2585.275, 8.712811
2587.204, 8.300936
2589.132, 8.289020
2591.061, 8.446630
2592.989, 8.673008
2594.918, 8.668614
2596.846, 8.831038
2598.775, 9.156504
2600.703, 8.421956
2602.632, 8.173001
2604.560, 8.678592
2606.489, 8.381947
2608.417, 8.229957
2610.345, 8.364112
2612.274, 7.649866
2614.202, 7.546048
2616.131, 8.238944
2618.059, 8.563546
2619.988, 8.404932
2621.916, 7.912529
2623.845, 7.806596
2625.773, 7.843528
2627.702, 7.935630
2629.630, 8.092214
2631.559, 7.878263
2633.487, 7.523964
2635.416, 8.219974
2637.344, 8.130385
2639.272, 7.481504
2641.201, 7.916059
2643.129, 7.958478
2645.058, 7.609275
2646.986, 7.261962
2648.915, 7.768589
2650.843, 8.403955
2652.772, 7.394642
2654.700, 7.085829
2656.629, 7.343264
2658.557, 7.577827
2660.486, 7.800140
2662.414, 7.843992
2664.343, 7.432719
2666.271, 7.833048
2668.199, 8.124907
2670.128, 7.313825
2672.056, 7.141519
2673.985, 7.200252
2675.913, 7.080774
2677.842, 6.960132
2679.770, 7.034577
2681.699, 7.359943
2683.627, 7.191697
2685.556, 6.951381
2687.484, 6.827641
2689.413, 6.479032
2691.341, 6.295535
2693.270, 6.361384
2695.198, 6.377906
2697.126, 6.440362
2699.055, 6.556754
2700.983, 6.701111
2702.912, 6.681093
2704.840, 6.565858
2706.769, 6.638420
2708.697, 6.485460
2710.626, 6.336652
2712.554, 6.822850
2714.483, 6.598293
2716.411, 6.152838
2718.340, 6.180138
2720.268, 6.343459
2722.197, 6.418208
2724.125, 6.217432
2726.053, 5.923416
2727.982, 5.883708
2729.910, 6.257108
2731.839, 5.794852
2733.767, 5.671449
2735.696, 6.114960
2737.624, 5.856242
2739.553, 5.716902
2741.481, 5.891850
2743.410, 6.637395
2745.338, 6.410638
2747.267, 5.780452
2749.195, 5.971773
2751.124, 6.130223
2753.052, 6.054697
2754.980, 5.625549
2756.909, 5.724780
2758.837, 5.778877
2760.766, 5.509199
2762.694, 5.689528
2764.623, 5.900802
2766.551, 5.976331
2768.480, 5.898001
2770.408, 5.653589
2772.337, 5.373044
2774.265, 5.325992
2776.194, 5.342484
2778.122, 5.369723
2780.051, 5.373178
2781.979, 5.340588
2783.907, 5.363598
2785.836, 5.539477
2787.764, 5.120346
2789.693, 5.105834
2791.621, 5.735298
2793.550, 5.873105
2795.478, 5.232718
2797.407, 4.472467
2799.335, 5.408971
2801.264, 5.453225
2803.192, 5.092788
2805.121, 5.182184
2807.049, 5.528521
2808.978, 5.411191
2810.906, 4.622218
2812.834, 4.570792
2814.763, 4.762606
2816.691, 4.933267
2818.620, 4.845428
2820.548, 4.694274
2822.477, 4.609243
2824.405, 4.804003
2826.334, 4.777612
2828.262, 4.692895
2830.191, 4.693067
2832.119, 4.889027
2834.048, 4.992034
2835.976, 4.928971
2837.905, 4.816988
2839.833, 4.786157
2841.761, 4.738636
2843.690, 4.414354
2845.618, 4.447222
2847.547, 4.608592
2849.475, 4.685147
2851.404, 4.612790
2853.332, 4.224998
2855.261, 3.704438
2857.189, 4.296092
2859.118, 4.367530
2861.046, 4.108172
2862.975, 4.169667
2864.903, 4.141466
2866.832, 4.106603
2868.760, 4.129663
2870.688, 4.097627
2872.617, 4.232459
2874.545, 4.403974
2876.474, 3.975159
2878.402, 3.720672
2880.331, 3.626447
2882.259, 3.577869
2884.188, 3.928712
2886.116, 4.051814
2888.045, 3.887240
2889.973, 4.629272
2891.902, 4.268112
2893.830, 3.492725
2895.759, 4.234492
2897.687, 3.787702
2899.615, 3.487614
2901.544, 4.212339
2903.472, 3.849385
2905.401, 3.631094
2907.329, 3.848879
2909.258, 4.612888
2911.186, 3.900544
2913.115, 3.208370
2915.043, 3.795704
2916.972, 3.548734
2918.900, 3.140548
2920.829, 2.938945
2922.757, 3.389197
2924.686, 3.301240
2926.614, 3.090787
2928.542, 3.200893
2930.471, 3.325473
2932.399, 3.250142
2934.328, 3.055040
2936.256, 3.195364
2938.185, 3.391139
2940.113, 3.408966
2942.042, 3.090592
2943.970, 3.201316
2945.899, 3.303531
2947.827, 3.272274
2949.756, 3.166556
2951.684, 3.302881
2953.613, 3.368262
2955.541, 3.031789
2957.469, 2.775110
2959.398, 2.923854
2961.326, 3.327980
2963.255, 3.437235
2965.183, 3.024286
2967.112, 2.770968
2969.040, 3.194492
2970.969, 3.279637
2972.897, 2.974907
2974.826, 2.605015
2976.754, 2.812017
2978.683, 2.272677
2980.611, 2.200205
2982.540, 3.088908
2984.468, 2.882843
2986.396, 2.907060
2988.325, 2.931660
2990.253, 2.300300
2992.182, 2.709204
2994.110, 2.821613
2996.039, 2.401342
2997.967, 2.778539
2999.896, 2.537997
3001.824, 2.151635
3003.753, 2.180668
3005.681, 2.362885
3007.610, 2.426534
3009.538, 2.400317
3011.467, 2.421863
3013.395, 2.834579
3015.323, 2.938681
3017.252, 2.530180
3019.180, 2.964943
3021.109, 2.540615
3023.037, 1.954727
3024.966, 2.192469
3026.894, 2.297937
3028.823, 2.381862
3030.751, 2.455907
3032.680, 2.446537
3034.608, 2.835474
3036.537, 2.721618
3038.465, 1.930786
3040.394, 2.311398
3042.322, 2.544360
3044.250, 2.587401
3046.179, 2.558138
3048.107, 1.926741
3050.036, 1.724846
3051.964, 1.953591
3053.893, 2.161438
3055.821, 1.931558
3057.750, 1.890194
3059.678, 2.079968
3061.607, 1.814577
3063.535, 1.636410
3065.464, 1.650060
3067.392, 1.851770
3069.321, 1.946363
3071.249, 2.396216
3073.177, 2.762472
3075.106, 2.454908
3077.034, 2.124629
3078.963, 2.234255
3080.891, 2.466639
3082.820, 2.105987
3084.748, 2.272971
3086.677, 2.338983
3088.605, 2.125624
3090.534, 1.909894
3092.462, 2.674480
3094.391, 2.749820
3096.319, 1.633563
3098.248, 1.462489
3100.176, 1.727790
3102.104, 2.009681
3104.033, 2.069363
3105.961, 1.934286
3107.890, 2.079794
3109.818, 2.159904
3111.747, 1.790588
3113.675, 1.634175
3115.604, 1.947779
3117.532, 2.245546
3119.461, 1.788511
3121.389, 1.308645
3123.318, 1.209315
3125.246, 1.518687
3127.175, 2.242442
3129.103, 2.076379
3131.031, 2.118158
3132.960, 2.381476
3134.888, 1.952261
3136.817, 2.019790
3138.745, 1.999799
3140.674, 1.740379
3142.602, 1.648022
3144.531, 1.780168
3146.459, 1.638053
3148.388, 1.291389
3150.316, 1.798638
3152.245, 1.497847
3154.173, 1.191486
3156.102, 1.386777
3158.030, 2.247487
3159.958, 2.317143
3161.887, 2.112220
3163.815, 2.034291
3165.744, 2.269647
3167.672, 1.903668
3169.601, 1.775596
3171.529, 2.083928
3173.458, 1.282362
3175.386, 1.808867
3177.315, 2.181925
3179.243, 1.674163
3181.172, 1.838676
3183.100, 1.797741
3185.029, 1.536778
3186.957, 1.421873
3188.885, 2.770641
3190.814, 2.261035
3192.742, 1.607099
3194.671, 1.716369
3196.599, 1.657964
3198.528, 1.590380
3200.456, 1.370575
3202.385, 1.104307
3204.313, 1.320593
3206.242, 1.283182
3208.170, 1.465934
3210.099, 1.837735
3212.027, 1.794255
3213.956, 1.532400
3215.884, 1.148087
3217.813, 0.9706510
3219.741, 1.617440
3221.669, 1.851587
3223.598, 1.899849
3225.526, 1.758016
3227.455, 1.191503
3229.383, 1.264441
3231.312, 1.601354
3233.240, 1.907245
3235.169, 1.978245
3237.097, 1.914822
3239.026, 2.013964
3240.954, 1.933804
3242.883, 1.428123
3244.811, 1.427320
3246.740, 1.815400
3248.668, 2.017465
3250.596, 1.782360
3252.525, 1.562544
3254.453, 1.334989
3256.382, 1.314451
3258.310, 1.394902
3260.239, 1.050321
3262.167, 1.042126
3264.096, 0.7916785
3266.024, 0.4308306
3267.953, 0.5078991
3269.881, 1.104337
3271.810, 1.343679
3273.738, 1.336942
3275.667, 1.438279
3277.595, 1.662342
3279.523, 1.590898
3281.452, 1.294422
3283.380, 0.9930154
3285.309, 1.213059
3287.237, 1.363166
3289.166, 1.378513
3291.094, 1.213623
3293.023, 0.7748119
3294.951, 1.343736
3296.880, 1.507007
3298.808, 1.603494
3300.737, 2.319673
3302.665, 1.696427
3304.594, 1.554281
3306.522, 1.707615
3308.450, 1.781343
3310.379, 1.740941
3312.307, 1.440696
3314.236, 1.535795
3316.164, 1.941518
3318.093, 2.092491
3320.021, 1.830854
3321.950, 1.747097
3323.878, 1.718637
3325.807, 1.518374
3327.735, 1.230355
3329.664, 1.053640
3331.592, 1.263013
3333.521, 1.604573
3335.449, 1.238064
3337.377, 1.413470
3339.306, 1.430263
3341.234, 1.205480
3343.163, 0.9625309
3345.091, 1.638217
3347.020, 1.950571
3348.948, 1.614320
3350.877, 1.078613
3352.805, 1.341748
3354.734, 1.105600
3356.662, 1.330488
3358.591, 1.610570
3360.519, 1.409548
3362.448, 1.504085
3364.376, 1.225595
3366.304, 0.9262684
3368.233, 0.9974414
3370.161, 1.792405
3372.090, 1.492852
3374.018, 1.304319
3375.947, 1.440391
3377.875, 1.641602
3379.804, 0.9852296
3381.732, 1.546990
3383.661, 1.476452
3385.589, 0.9894786
3387.518, 1.369252
3389.446, 2.071404
3391.375, 1.699504
3393.303, 1.620820
3395.231, 1.932659
3397.160, 0.9073132
3399.088, 1.725638
3401.017, 1.662159
3402.945, 1.112076
3404.874, 1.043458
3406.802, 1.362713
3408.731, 1.320529
3410.659, 1.281246
3412.588, 1.313627
3414.516, 1.339345
3416.445, 1.629109
3418.373, 1.521807
3420.302, 1.329995
3422.230, 1.209125
3424.158, 1.064845
3426.087, 1.381244
3428.015, 1.487128
3429.944, 1.402080
3431.872, 1.298812
3433.801, 1.349496
3435.729, 1.059359
3437.658, 1.541468
3439.586, 1.723857
3441.515, 1.232096
3443.443, 1.839616
3445.372, 1.345645
3447.300, 0.8893171
3449.229, 1.088845
3451.157, 1.793969
3453.085, 1.807892
3455.014, 1.759172
3456.942, 1.563800
##END=



