##NAMES=Hydroxyapophyllite-(K)
##RRUFFID=R050169
##IDEAL CHEMISTRY=KCa_4_Si_8_O_20_(OH,F)·8H_2_O
##LOCALITY=Christmas mine, Christmas, Gila County, Arizona, USA
##OWNER=RRUFF
##SOURCE=Marcus Origlieri
##DESCRIPTION=Colorless prismatic crystals associated with kinoite, R050168
##STATUS=The identification of this mineral is confirmed by single-crystal X-ray diffraction and chemical analysis
##URL=https://www.rruff.net/odr/rruff_sample/R050169
##MEASURED CHEMISTRY=K_1.00_Ca_4.00_Si_8.00_O_20_((OH)_0.98_F_0.02_)·8H_2_O
##DIFFRACTION SAMPLE DESCRIPTION=Single crystal, powder profile is calculated
##CELL PARAMETERS=a: 8.9685 b: 8.9685 c: 15.842 alpha: 90 beta: 90 gamma: 90 volume: 1274.2 crystal system: tetragonal
##FILETYPE=Raman RAW
##RAMAN WAVELENGTH=785

137.7588, 659.9086
139.6873, 721.7883
141.6157, 764.3536
143.5442, 795.4383
145.4727, 821.3494
147.4011, 843.3403
149.3296, 865.1002
151.2581, 882.7657
153.1865, 913.6999
155.1150, 963.4642
157.0435, 1021.372
158.9719, 1094.949
160.9004, 1168.832
162.8289, 1219.326
164.7573, 1243.599
166.6858, 1253.704
168.6143, 1244.030
170.5427, 1229.697
172.4712, 1208.435
174.3997, 1188.704
176.3281, 1176.704
178.2566, 1172.856
180.1851, 1176.889
182.1135, 1189.624
184.0420, 1209.932
185.9705, 1234.369
187.8989, 1266.864
189.8274, 1321.077
191.7559, 1373.302
193.6843, 1403.429
195.6128, 1414.724
197.5413, 1425.015
199.4697, 1434.358
201.3982, 1429.862
203.3267, 1410.001
205.2551, 1380.231
207.1836, 1336.088
209.1121, 1290.404
211.0405, 1252.714
212.9690, 1223.800
214.8975, 1206.720
216.8259, 1202.551
218.7544, 1200.018
220.6829, 1201.962
222.6113, 1197.661
224.5398, 1178.541
226.4683, 1152.273
228.3967, 1129.143
230.3252, 1105.313
232.2537, 1067.997
234.1821, 1016.956
236.1106, 968.6700
238.0391, 926.0558
239.9675, 887.3735
241.8960, 855.1659
243.8245, 826.8161
245.7529, 796.2222
247.6814, 766.7499
249.6099, 748.1490
251.5383, 741.0905
253.4668, 741.2339
255.3953, 752.7297
257.3237, 765.7563
259.2522, 776.6931
261.1807, 788.1647
263.1091, 805.2026
265.0376, 824.5953
266.9661, 838.6819
268.8945, 845.6273
270.8230, 855.5047
272.7515, 869.0562
274.6799, 881.9698
276.6084, 895.1722
278.5369, 908.7170
280.4653, 920.1802
282.3938, 932.0364
284.3223, 947.6613
286.2507, 967.6680
288.1792, 992.4047
290.1077, 1021.839
292.0361, 1060.008
293.9646, 1107.892
295.8931, 1161.092
297.8215, 1226.612
299.7500, 1286.716
301.6785, 1324.165
303.6069, 1348.756
305.5354, 1385.568
307.4639, 1432.939
309.3923, 1480.533
311.3208, 1531.462
313.2493, 1565.293
315.1777, 1572.426
317.1062, 1569.777
319.0347, 1558.154
320.9631, 1537.807
322.8916, 1516.705
324.8201, 1494.715
326.7485, 1458.572
328.6770, 1408.237
330.6055, 1351.496
332.5339, 1286.838
334.4624, 1225.853
336.3909, 1170.968
338.3193, 1117.853
340.2478, 1062.894
342.1763, 1009.938
344.1047, 964.0367
346.0332, 925.7088
347.9617, 889.9306
349.8901, 853.6749
351.8186, 820.0451
353.7471, 789.3530
355.6756, 764.3545
357.6040, 748.1169
359.5325, 733.2181
361.4610, 711.5320
363.3894, 692.7972
365.3179, 689.4062
367.2464, 698.6613
369.1748, 703.2182
371.1033, 700.3383
373.0318, 700.9614
374.9602, 705.6584
376.8887, 712.9329
378.8172, 719.0015
380.7456, 731.5685
382.6741, 758.7087
384.6026, 793.2151
386.5310, 823.3013
388.4595, 850.7002
390.3880, 886.3067
392.3164, 930.3168
394.2449, 973.8239
396.1734, 1016.495
398.1018, 1055.258
400.0303, 1089.473
401.9588, 1119.934
403.8872, 1145.578
405.8157, 1168.878
407.7442, 1188.239
409.6726, 1208.151
411.6011, 1238.902
413.5296, 1280.942
415.4580, 1330.856
417.3865, 1388.521
419.3150, 1449.772
421.2434, 1520.191
423.1719, 1583.900
425.1004, 1654.426
427.0288, 1696.841
428.9573, 1685.254
430.8858, 1640.490
432.8142, 1586.204
434.7427, 1520.307
436.6712, 1429.361
438.5996, 1312.660
440.5281, 1212.912
442.4566, 1136.807
444.3850, 1070.591
446.3135, 1014.213
448.2420, 966.2071
450.1704, 925.5234
452.0989, 893.8819
454.0274, 870.0287
455.9558, 858.1520
457.8843, 864.2181
459.8128, 886.3527
461.7412, 916.7779
463.6697, 954.3345
465.5982, 1011.293
467.5266, 1088.847
469.4551, 1177.720
471.3836, 1272.017
473.3120, 1389.182
475.2405, 1557.778
477.1690, 1719.960
479.0974, 1858.072
481.0259, 1963.555
482.9544, 2020.117
484.8828, 2031.396
486.8113, 1999.368
488.7398, 1922.931
490.6682, 1838.188
492.5967, 1738.245
494.5252, 1641.156
496.4536, 1549.794
498.3821, 1468.251
500.3106, 1397.043
502.2390, 1337.507
504.1675, 1284.546
506.0960, 1247.805
508.0244, 1237.886
509.9529, 1246.242
511.8814, 1256.122
513.8098, 1271.350
515.7383, 1306.353
517.6667, 1360.168
519.5952, 1419.375
521.5237, 1482.189
523.4521, 1555.996
525.3806, 1650.828
527.3091, 1741.502
529.2375, 1827.203
531.1660, 1907.601
533.0945, 1987.913
535.0229, 2046.260
536.9514, 2056.695
538.8799, 2043.798
540.8083, 2039.588
542.7368, 2041.319
544.6653, 2030.982
546.5938, 2002.551
548.5222, 1981.197
550.4507, 1973.963
552.3792, 1978.987
554.3076, 1985.137
556.2361, 2015.802
558.1646, 2080.417
560.0930, 2176.073
562.0215, 2302.051
563.9500, 2443.500
565.8784, 2592.793
567.8069, 2761.009
569.7354, 2969.669
571.6638, 3190.191
573.5923, 3382.558
575.5208, 3553.025
577.4492, 3682.453
579.3777, 3761.914
581.3062, 3761.571
583.2346, 3683.185
585.1631, 3549.318
587.0916, 3346.052
589.0200, 3105.964
590.9485, 2847.723
592.8770, 2581.181
594.8054, 2311.783
596.7339, 2059.443
598.6624, 1843.791
600.5909, 1654.605
602.5193, 1472.331
604.4478, 1314.050
606.3763, 1188.120
608.3047, 1085.855
610.2332, 998.2925
612.1617, 925.6625
614.0901, 860.8773
616.0186, 801.7637
617.9471, 757.0646
619.8755, 732.8861
621.8040, 711.5494
623.7325, 684.7760
625.6609, 666.2844
627.5894, 659.4197
629.5179, 651.0916
631.4464, 639.3354
633.3748, 633.7881
635.3033, 640.5109
637.2318, 650.1927
639.1602, 649.0440
641.0887, 645.6376
643.0172, 649.0905
644.9456, 653.4003
646.8741, 661.4875
648.8026, 677.9821
650.7310, 695.4891
652.6595, 709.5410
654.5880, 720.7528
656.5164, 729.9762
658.4449, 741.8823
660.3734, 757.9098
662.3018, 760.7292
664.2303, 743.9905
666.1588, 724.1478
668.0872, 707.5086
670.0157, 692.9885
671.9442, 678.0132
673.8726, 650.4697
675.8011, 612.8998
677.7296, 581.8845
679.6580, 567.0114
681.5865, 552.8748
683.5150, 522.6880
685.4434, 490.7056
687.3719, 476.3484
689.3004, 472.9743
691.2288, 462.8849
693.1573, 444.7662
695.0858, 430.8228
697.0142, 425.1436
698.9427, 419.3033
700.8712, 409.9316
702.7996, 405.2068
704.7281, 405.9089
706.6566, 403.5100
708.5850, 399.3302
710.5135, 396.1556
712.4420, 392.1709
714.3704, 384.8096
716.2989, 375.7993
718.2274, 372.7027
720.1558, 374.1495
722.0843, 372.4967
724.0128, 364.7368
725.9412, 357.4543
727.8697, 359.2088
729.7982, 366.6512
731.7266, 370.0604
733.6551, 366.1740
735.5836, 360.3263
737.5120, 359.0766
739.4405, 360.3018
741.3690, 357.3208
743.2974, 351.7332
745.2259, 351.3029
747.1544, 356.4154
749.0828, 359.5015
751.0113, 357.9611
752.9398, 358.8637
754.8682, 366.3878
756.7967, 369.9803
758.7252, 365.3660
760.6536, 364.3036
762.5821, 368.2548
764.5106, 367.4424
766.4390, 365.7444
768.3675, 370.6278
770.2960, 374.5568
772.2244, 374.2247
774.1529, 376.2712
776.0814, 377.3616
778.0098, 375.7395
779.9383, 380.2873
781.8668, 391.4355
783.7952, 404.6741
785.7237, 412.5564
787.6522, 412.0027
789.5806, 412.3021
791.5091, 416.4750
793.4376, 415.4226
795.3660, 408.2640
797.2945, 399.7003
799.2230, 387.7437
801.1514, 377.1291
803.0799, 372.0911
805.0084, 365.7671
806.9368, 356.3163
808.8653, 353.2069
810.7938, 357.4188
812.7222, 354.2005
814.6507, 339.7000
816.5792, 327.8087
818.5076, 324.4181
820.4361, 325.6457
822.3646, 328.6848
824.2930, 331.4547
826.2215, 334.4665
828.1500, 336.7671
830.0784, 335.8133
832.0069, 333.0356
833.9354, 331.8748
835.8638, 334.1557
837.7923, 340.7515
839.7208, 345.5621
841.6492, 340.5102
843.5777, 335.3786
845.5062, 338.7103
847.4346, 340.4057
849.3631, 339.0440
851.2916, 339.9598
853.2200, 340.3955
855.1485, 338.2386
857.0770, 333.8461
859.0054, 330.1088
860.9339, 333.2020
862.8624, 338.4990
864.7908, 334.0333
866.7193, 325.0765
868.6478, 324.9006
870.5762, 328.7895
872.5047, 324.2226
874.4332, 315.4329
876.3616, 312.3811
878.2901, 311.9160
880.2186, 311.2791
882.1470, 312.1181
884.0755, 312.5976
886.0040, 310.9962
887.9324, 307.6174
889.8609, 305.6599
891.7894, 307.9461
893.7178, 310.9065
895.6463, 311.0401
897.5748, 310.5902
899.5032, 309.7429
901.4317, 307.3416
903.3602, 305.3294
905.2886, 304.1476
907.2171, 301.8735
909.1456, 299.0652
911.0740, 299.1779
913.0025, 301.3123
914.9310, 301.3537
916.8594, 299.7784
918.7879, 296.5879
920.7164, 291.1986
922.6448, 292.0060
924.5733, 300.5532
926.5018, 303.1404
928.4302, 297.8295
930.3587, 296.1598
932.2872, 299.3727
934.2156, 301.3638
936.1441, 301.8772
938.0726, 300.9749
940.0010, 298.3398
941.9295, 298.8257
943.8580, 303.0215
945.7864, 304.6726
947.7149, 303.3286
949.6434, 302.3702
951.5718, 302.2668
953.5003, 300.1721
955.4288, 294.5046
957.3572, 294.3246
959.2857, 301.3441
961.2142, 305.4643
963.1426, 306.5258
965.0711, 304.8362
966.9996, 299.1478
968.9280, 300.3646
970.8565, 310.4756
972.7850, 313.0433
974.7134, 306.0384
976.6419, 301.9073
978.5704, 301.9086
980.4988, 305.2939
982.4273, 312.0204
984.3558, 317.8079
986.2842, 321.8469
988.2127, 322.8997
990.1412, 321.3031
992.0696, 322.3277
993.9981, 326.3026
995.9266, 334.4956
997.8550, 346.6249
999.7835, 354.3542
1001.712, 357.7281
1003.640, 365.3615
1005.569, 375.7704
1007.497, 376.2835
1009.426, 371.0215
1011.354, 377.7052
1013.283, 391.4428
1015.211, 392.9983
1017.140, 386.6582
1019.068, 397.9509
1020.997, 423.8486
1022.925, 443.0632
1024.854, 460.5107
1026.782, 496.5824
1028.710, 549.2558
1030.639, 601.9507
1032.567, 659.8820
1034.496, 731.5093
1036.424, 818.0411
1038.353, 921.6655
1040.281, 1048.290
1042.210, 1207.282
1044.138, 1402.057
1046.067, 1634.985
1047.995, 1888.675
1049.924, 2178.036
1051.852, 2460.626
1053.781, 2705.506
1055.709, 2892.916
1057.637, 3013.309
1059.566, 3046.578
1061.494, 2928.736
1063.423, 2722.838
1065.351, 2473.625
1067.280, 2194.196
1069.208, 1873.485
1071.137, 1570.255
1073.065, 1336.519
1074.994, 1151.091
1076.922, 1003.026
1078.851, 887.7913
1080.779, 808.3463
1082.708, 746.8626
1084.636, 699.4741
1086.564, 660.3273
1088.493, 621.7905
1090.421, 582.4568
1092.350, 548.6927
1094.278, 518.4056
1096.207, 482.7534
1098.135, 450.4025
1100.064, 424.5919
1101.992, 405.4201
1103.921, 397.5316
1105.849, 392.4926
1107.778, 387.7991
1109.706, 380.6224
1111.635, 368.8350
1113.563, 358.8842
1115.492, 352.5445
1117.420, 345.9026
1119.349, 338.7313
1121.277, 332.8311
1123.205, 326.8073
1125.134, 318.1099
1127.062, 308.4718
1128.991, 304.1422
1130.919, 303.4309
1132.848, 299.5332
1134.776, 294.1881
1136.705, 292.2416
1138.633, 292.4583
1140.562, 290.8333
1142.490, 286.6232
1144.419, 281.0679
1146.347, 276.8439
1148.276, 275.0328
1150.204, 277.2861
1152.132, 284.7720
1154.061, 288.3828
1155.989, 286.8163
1157.918, 286.6912
1159.846, 286.8850
1161.775, 286.2742
1163.703, 285.1694
1165.632, 281.7415
1167.560, 276.9305
1169.489, 274.4405
1171.417, 274.4961
1173.346, 271.9367
1175.274, 266.0934
1177.203, 265.8016
1179.131, 273.1862
1181.059, 281.9158
1182.988, 286.3782
1184.916, 279.0597
1186.845, 267.3133
1188.773, 269.9984
1190.702, 279.6015
1192.630, 276.2899
1194.559, 267.6147
1196.487, 271.9471
1198.416, 280.9471
1200.344, 278.6379
1202.273, 271.5359
1204.201, 267.3452
1206.130, 265.5181
1208.058, 266.9292
1209.986, 270.6574
1211.915, 274.6464
1213.843, 272.8852
1215.772, 266.7191
1217.700, 265.1664
1219.629, 267.1180
1221.557, 266.6553
1223.486, 264.8195
1225.414, 263.0266
1227.343, 260.8958
1229.271, 260.9037
1231.200, 260.8001
1233.128, 255.6660
1235.057, 250.5420
1236.985, 254.7809
1238.913, 262.1243
1240.842, 263.9687
1242.770, 263.4623
1244.699, 262.3081
1246.627, 262.3120
1248.556, 266.3935
1250.484, 269.1641
1252.413, 265.9761
1254.341, 261.9500
1256.270, 259.1120
1258.198, 259.2136
1260.127, 264.2080
1262.055, 265.5865
1263.984, 260.8506
1265.912, 260.4935
1267.840, 267.2274
1269.769, 268.0066
1271.697, 261.4182
1273.626, 260.0032
1275.554, 264.0789
1277.483, 269.5112
1279.411, 272.6722
1281.340, 266.7480
1283.268, 259.2466
1285.197, 257.8936
1287.125, 258.0236
1289.054, 256.6214
1290.982, 257.6846
1292.911, 266.3204
1294.839, 269.1380
1296.767, 257.1059
1298.696, 252.8486
1300.624, 261.1275
1302.553, 262.7797
1304.481, 258.1104
1306.410, 261.3274
1308.338, 269.2661
1310.267, 267.1275
1312.195, 259.8167
1314.124, 255.6603
1316.052, 254.9574
1317.981, 259.9664
1319.909, 262.3160
1321.838, 254.7175
1323.766, 250.3011
1325.694, 256.6610
1327.623, 258.9259
1329.551, 251.5215
1331.480, 248.7653
1333.408, 253.3205
1335.337, 256.2662
1337.265, 257.1279
1339.194, 255.8100
1341.122, 253.0732
1343.051, 247.3297
1344.979, 243.1851
1346.908, 249.2805
1348.836, 257.1027
1350.765, 263.4202
1352.693, 263.5779
1354.621, 251.9766
1356.550, 248.2891
1358.478, 259.2722
1360.407, 261.3691
1362.335, 251.6434
1364.264, 246.8185
1366.192, 247.0459
1368.121, 252.6680
1370.049, 259.5726
1371.978, 258.2609
1373.906, 254.5885
1375.835, 255.6664
1377.763, 255.6450
1379.692, 248.6372
1381.620, 246.1944
1383.548, 252.8977
1385.477, 256.0530
1387.405, 253.8096
1389.334, 246.0741
1391.262, 235.0104
1393.191, 236.0708
1395.119, 243.3391
1397.048, 242.4001
1398.976, 240.1945
1400.905, 246.0728
1402.833, 252.0172
1404.762, 253.4353
1406.690, 252.9275
1408.619, 250.2787
1410.547, 249.4703
1412.475, 251.0211
1414.404, 248.6360
1416.332, 242.9720
1418.261, 237.8486
1420.189, 234.5156
1422.118, 235.2741
1424.046, 238.4836
1425.975, 244.1642
1427.903, 249.0555
1429.832, 253.0473
1431.760, 252.3598
1433.689, 243.7490
1435.617, 242.6763
1437.546, 249.3821
1439.474, 247.8642
1441.402, 241.2504
1443.331, 240.9447
1445.259, 241.4308
1447.188, 233.0596
1449.116, 227.5311
1451.045, 235.9450
1452.973, 241.9689
1454.902, 237.3307
1456.830, 238.7519
1458.759, 248.2912
1460.687, 251.4095
1462.616, 248.8581
1464.544, 241.9556
1466.473, 234.0171
1468.401, 226.8172
1470.329, 225.4653
1472.258, 238.8535
1474.186, 244.9489
1476.115, 230.8656
1478.043, 230.5352
1479.972, 248.6651
1481.900, 255.6931
1483.829, 253.2291
1485.757, 242.6059
1487.686, 232.5372
1489.614, 236.4864
1491.543, 242.9072
1493.471, 247.7644
1495.400, 248.2350
1497.328, 242.2298
1499.256, 240.6521
1501.185, 244.1496
1503.113, 245.1487
1505.042, 242.8265
1506.970, 228.9879
1508.899, 218.6456
1510.827, 231.4382
1512.756, 244.6666
1514.684, 251.5488
1516.613, 253.1234
1518.541, 249.4427
1520.470, 244.0295
1522.398, 237.3184
1524.327, 226.7194
1526.255, 219.2356
1528.183, 229.2033
1530.112, 240.8594
1532.040, 248.0027
1533.969, 245.6691
1535.897, 231.3305
1537.826, 225.3547
1539.754, 228.5700
1541.683, 233.6929
1543.611, 238.3209
1545.540, 237.4877
1547.468, 235.3318
1549.397, 234.7869
1551.325, 234.6182
1553.254, 234.8383
1555.182, 232.7957
1557.110, 228.9391
1559.039, 230.9596
1560.967, 235.6580
1562.896, 236.4829
1564.824, 235.4289
1566.753, 233.4964
1568.681, 231.5212
1570.610, 229.5012
1572.538, 228.6295
1574.467, 228.8316
1576.395, 228.3305
1578.324, 227.0230
1580.252, 223.8650
1582.181, 221.5561
1584.109, 223.1836
1586.037, 224.5602
1587.966, 224.1263
1589.894, 224.5001
1591.823, 225.5846
1593.751, 223.5079
1595.680, 221.4897
1597.608, 227.6927
1599.537, 232.4397
1601.465, 228.7718
1603.394, 222.5103
1605.322, 212.2520
1607.251, 209.7233
1609.179, 213.3445
1611.108, 207.9034
1613.036, 203.8780
1614.964, 218.7907
1616.893, 232.0948
1618.821, 233.5405
1620.750, 231.1162
1622.678, 225.4585
1624.607, 221.7154
1626.535, 219.0376
1628.464, 213.1656
1630.392, 209.1883
1632.321, 212.9030
1634.249, 214.6476
1636.178, 210.5656
1638.106, 208.0162
1640.035, 207.5110
1641.963, 208.0981
1643.891, 210.0010
1645.820, 215.0525
1647.748, 218.9848
1649.677, 219.6930
1651.605, 219.8700
1653.534, 219.9984
1655.462, 214.9068
1657.391, 208.4365
1659.319, 213.0700
1661.248, 219.1458
1663.176, 218.1803
1665.105, 219.4436
1667.033, 225.6930
1668.962, 220.1476
1670.890, 206.8239
1672.818, 209.9227
1674.747, 219.5682
1676.675, 227.5763
1678.604, 230.9375
1680.532, 227.8450
1682.461, 227.3652
1684.389, 229.7931
1686.318, 230.2065
1688.246, 229.9760
1690.175, 231.7285
1692.103, 232.8600
1694.032, 233.0645
1695.960, 228.1925
1697.889, 218.7696
1699.817, 213.5362
1701.745, 213.0143
1703.674, 222.5164
1705.602, 228.2201
1707.531, 217.3100
1709.459, 212.9467
1711.388, 216.4946
1713.316, 212.7461
1715.245, 205.4986
1717.173, 201.5000
1719.102, 199.8069
1721.030, 201.4456
1722.959, 201.4515
1724.887, 199.3539
1726.816, 197.4183
1728.744, 195.2525
1730.672, 193.1424
1732.601, 188.6066
1734.529, 174.3798
1736.458, 173.0551
1738.386, 187.2393
1740.315, 188.5325
1742.243, 183.4671
1744.172, 182.7454
1746.100, 183.1471
1748.029, 183.7782
1749.957, 182.4882
1751.886, 179.2899
1753.814, 180.6959
1755.743, 183.5982
1757.671, 182.6524
1759.599, 183.3389
1761.528, 189.7740
1763.456, 188.5318
1765.385, 180.5393
1767.313, 182.1180
1769.242, 184.7159
1771.170, 177.5161
1773.099, 171.2359
1775.027, 169.2243
1776.956, 167.7258
1778.884, 167.3909
1780.813, 174.9888
1782.741, 181.0407
1784.670, 177.2972
1786.598, 173.2270
1788.526, 170.8336
1790.455, 168.8438
1792.383, 167.3761
1794.312, 166.3182
1796.240, 167.2625
1798.169, 171.7697
1800.097, 172.9968
1802.026, 170.7437
1803.954, 173.7863
1805.883, 176.3394
1807.811, 166.8911
1809.740, 162.1508
1811.668, 167.2605
1813.597, 167.1998
1815.525, 163.2273
1817.453, 164.5856
1819.382, 165.2976
1821.310, 157.3703
1823.239, 156.3471
1825.167, 163.2017
1827.096, 167.3837
1829.024, 167.4907
1830.953, 157.1986
1832.881, 152.4560
1834.810, 160.3553
1836.738, 167.1871
1838.667, 171.4457
1840.595, 169.7232
1842.524, 165.9561
1844.452, 162.2891
1846.380, 161.3646
1848.309, 163.0440
1850.237, 163.1494
1852.166, 162.6004
1854.094, 163.2371
1856.023, 160.7866
1857.951, 152.4212
1859.880, 148.6732
1861.808, 148.5504
1863.737, 152.0671
1865.665, 154.1151
1867.594, 150.2352
1869.522, 146.4885
1871.451, 143.3678
1873.379, 148.9137
1875.307, 153.7798
1877.236, 144.9151
1879.164, 139.9376
1881.093, 145.2437
1883.021, 146.1077
1884.950, 144.3752
1886.878, 142.4750
1888.807, 142.5960
1890.735, 147.1576
1892.664, 149.5789
1894.592, 149.1021
1896.521, 147.1324
1898.449, 146.0779
1900.378, 146.4467
1902.306, 149.3066
1904.234, 153.0480
1906.163, 148.5306
1908.091, 141.6075
1910.020, 136.3782
1911.948, 132.5419
1913.877, 130.0641
1915.805, 129.2914
1917.734, 131.1018
1919.662, 140.9992
1921.591, 144.2762
1923.519, 138.2942
1925.448, 131.4157
1927.376, 128.2684
1929.305, 138.1208
1931.233, 142.5066
1933.161, 137.4648
1935.090, 132.7023
1937.018, 129.9730
1938.947, 133.7419
1940.875, 136.3179
1942.804, 135.2362
1944.732, 134.4478
1946.661, 134.3459
1948.589, 138.0665
1950.518, 137.0713
1952.446, 124.5740
1954.375, 123.7925
1956.303, 131.6143
1958.232, 133.3072
1960.160, 133.4643
1962.089, 136.1165
1964.017, 131.5843
1965.945, 123.9605
1967.874, 126.9649
1969.802, 130.1125
1971.731, 127.4909
1973.659, 125.5149
1975.588, 124.3195
1977.516, 125.4388
1979.445, 125.9708
1981.373, 125.2088
1983.302, 124.1284
1985.230, 122.7705
1987.159, 120.5212
1989.087, 118.3843
1991.016, 118.0107
1992.944, 118.8739
1994.872, 120.2748
1996.801, 119.5491
1998.729, 119.3012
2000.658, 120.9888
2002.586, 119.6760
2004.515, 116.9136
2006.443, 121.8821
2008.372, 126.5917
2010.300, 127.7255
2012.229, 124.8036
2014.157, 119.4678
2016.086, 113.6514
2018.014, 110.5234
2019.943, 111.8555
2021.871, 113.9436
2023.799, 115.6884
2025.728, 112.9960
2027.656, 112.2035
2029.585, 115.0685
2031.513, 112.6160
2033.442, 108.5619
2035.370, 112.4741
2037.299, 113.4018
2039.227, 108.2636
2041.156, 108.2796
2043.084, 111.1720
2045.013, 113.9295
2046.941, 114.1009
2048.869, 112.2064
2050.798, 114.6699
2052.726, 116.4976
2054.655, 107.0700
2056.583, 105.8380
2058.512, 113.7348
2060.440, 111.1404
2062.369, 106.9256
2064.297, 111.8708
2066.226, 112.2135
2068.154, 107.7381
2070.083, 104.3495
2072.011, 101.9277
2073.939, 99.53839
2075.868, 98.39278
2077.796, 99.14741
2079.725, 106.4243
2081.654, 109.6268
2083.582, 103.7165
2085.510, 103.8782
2087.439, 107.2558
2089.367, 112.4388
2091.296, 110.2192
2093.224, 100.0810
2095.153, 101.6068
2097.081, 104.8497
2099.010, 101.4660
2100.938, 100.1046
2102.867, 100.6815
2104.795, 101.5238
2106.724, 101.5683
2108.652, 99.96909
2110.581, 97.31931
2112.509, 95.83054
2114.438, 101.7861
2116.366, 102.4632
2118.294, 94.30225
2120.223, 95.10369
2122.151, 97.59522
2124.080, 95.35879
2126.008, 93.65607
2127.937, 93.04561
2129.865, 92.03463
2131.794, 93.14824
2133.722, 97.78088
2135.651, 95.69748
2137.579, 92.34846
2139.508, 101.0400
2141.436, 103.4103
2143.365, 96.70877
2145.293, 93.11506
2147.221, 92.37514
2149.150, 93.74841
2151.078, 96.02160
2153.007, 98.28690
2154.935, 97.16623
2156.864, 95.43600
2158.792, 93.35553
2160.721, 94.63005
2162.649, 95.82973
2164.578, 88.48489
2166.506, 86.15768
2168.435, 90.17948
2170.363, 91.98595
2172.292, 91.53473
2174.220, 89.39229
2176.148, 96.88570
2178.077, 104.0903
2180.005, 92.46851
2181.934, 84.43609
2183.862, 83.36002
2185.791, 91.63760
2187.719, 97.58707
2189.648, 91.91154
2191.576, 92.18140
2193.505, 93.89176
2195.433, 91.14410
2197.362, 86.96987
2199.290, 82.94924
2201.219, 87.66933
2203.147, 91.15646
2205.075, 85.50677
2207.004, 88.14191
2208.932, 93.70579
2210.861, 90.02032
2212.789, 86.69584
2214.718, 85.84239
2216.646, 83.67410
2218.575, 84.39936
2220.503, 91.31542
2222.432, 86.73882
2224.360, 81.22351
2226.289, 85.13152
2228.217, 85.12395
2230.146, 81.84160
2232.074, 83.43460
2234.002, 83.84219
2235.931, 80.15091
2237.859, 78.00080
2239.788, 77.90369
2241.716, 81.44141
2243.645, 83.31278
2245.573, 85.02261
2247.502, 84.13655
2249.430, 81.00412
2251.359, 78.01191
2253.287, 80.12104
2255.216, 82.26890
2257.144, 77.14724
2259.073, 75.30143
2261.001, 78.64018
2262.929, 83.59272
2264.858, 81.83073
2266.786, 76.54819
2268.715, 79.90894
2270.643, 82.02053
2272.572, 81.32218
2274.500, 81.91231
2276.429, 80.00906
2278.357, 76.47555
2280.286, 78.49456
2282.214, 82.87733
2284.143, 82.42254
2286.071, 81.95560
2288.000, 80.42188
2289.928, 77.71033
2291.856, 77.43213
2293.785, 78.07956
2295.713, 77.08215
2297.642, 76.21384
2299.570, 74.45722
2301.499, 73.28051
2303.427, 72.96574
2305.356, 73.54465
2307.284, 74.05502
2309.213, 75.86974
2311.141, 76.15594
2313.070, 72.24550
2314.998, 62.96677
2316.927, 63.69164
2318.855, 66.72784
2320.783, 67.15002
2322.712, 67.46948
2324.640, 67.65023
2326.569, 67.31509
2328.497, 64.29526
2330.426, 62.34608
2332.354, 63.06479
2334.283, 66.24458
2336.211, 71.57751
2338.140, 71.41700
2340.068, 69.38256
2341.997, 68.09897
2343.925, 68.25579
2345.854, 66.14986
2347.782, 63.66492
2349.710, 63.66085
2351.639, 64.73687
2353.567, 63.24856
2355.496, 57.88243
2357.424, 55.79380
2359.353, 62.81424
2361.281, 65.42709
2363.210, 63.82226
2365.138, 63.32734
2367.067, 62.35451
2368.995, 62.23711
2370.924, 61.03404
2372.852, 59.91892
2374.781, 57.91631
2376.709, 56.14997
2378.637, 55.02167
2380.566, 53.01548
2382.494, 55.12457
2384.423, 58.68301
2386.351, 53.99786
2388.280, 54.79419
2390.208, 57.69932
2392.137, 57.18565
2394.065, 56.95714
2395.994, 52.76075
2397.922, 50.85556
2399.851, 51.15342
2401.779, 53.59571
2403.708, 55.18044
2405.636, 53.61420
2407.564, 52.52103
2409.493, 54.91917
2411.421, 58.18097
2413.350, 52.60984
2415.278, 49.30782
2417.207, 52.19366
2419.135, 52.58638
2421.064, 51.52293
2422.992, 51.31530
2424.921, 53.59675
2426.849, 52.39226
2428.778, 50.69287
2430.706, 48.96654
2432.635, 45.92632
2434.563, 45.83268
2436.491, 49.21617
2438.420, 48.09445
2440.348, 46.60543
2442.277, 49.40564
2444.205, 47.75869
2446.134, 43.56904
2448.062, 40.10913
2449.991, 41.49779
2451.919, 45.74439
2453.848, 43.21771
2455.776, 41.55994
2457.705, 43.02581
2459.633, 43.56125
2461.562, 43.27845
2463.490, 44.82814
2465.418, 42.34874
2467.347, 40.98428
2469.275, 44.53008
2471.204, 46.27153
2473.132, 45.50854
2475.061, 46.32982
2476.989, 46.85027
2478.918, 44.32951
2480.846, 45.02570
2482.775, 46.74717
2484.703, 44.73236
2486.632, 39.76023
2488.560, 37.97310
2490.489, 38.98145
2492.417, 45.28581
2494.345, 44.71500
2496.274, 42.49943
2498.202, 44.74112
2500.131, 44.66578
2502.059, 42.19229
2503.988, 42.09249
2505.916, 44.30191
2507.845, 44.31358
2509.773, 44.13514
2511.702, 40.28193
2513.630, 36.64653
2515.559, 43.01986
2517.487, 45.33875
2519.416, 42.17888
2521.344, 38.06192
2523.272, 38.41335
2525.201, 40.05840
2527.129, 39.42971
2529.058, 38.40210
2530.986, 37.42899
2532.915, 39.11723
2534.843, 40.56456
2536.772, 39.90839
2538.700, 36.45849
2540.629, 37.39386
2542.557, 39.46135
2544.486, 39.66054
2546.414, 37.51701
2548.343, 34.18608
2550.271, 36.19515
2552.199, 36.61047
2554.128, 36.38067
2556.056, 38.63303
2557.985, 39.70099
2559.913, 38.87934
2561.842, 36.26068
2563.770, 34.23763
2565.699, 33.49157
2567.627, 35.89499
2569.556, 40.11603
2571.484, 42.51040
2573.413, 39.82426
2575.341, 37.60563
2577.270, 36.10750
2579.198, 36.20945
2581.126, 35.93050
2583.055, 35.42255
2584.983, 35.26094
2586.912, 34.80465
2588.840, 33.91314
2590.769, 32.48119
2592.697, 33.67476
2594.626, 34.37001
2596.554, 32.06554
2598.483, 34.89531
2600.411, 37.36337
2602.340, 35.98360
2604.268, 36.72937
2606.197, 36.69763
2608.125, 34.73785
2610.053, 39.26336
2611.982, 39.73164
2613.910, 33.31473
2615.839, 34.37855
2617.767, 35.32211
2619.696, 33.55576
2621.624, 31.82385
2623.553, 30.99987
2625.481, 31.22273
2627.410, 31.37486
2629.338, 31.70139
2631.267, 32.00920
2633.195, 29.67558
2635.124, 27.60187
2637.052, 27.64659
2638.980, 32.07697
2640.909, 31.90464
2642.837, 28.39952
2644.766, 27.93163
2646.694, 28.93526
2648.623, 28.90329
2650.551, 28.11802
2652.480, 28.70665
2654.408, 29.96139
2656.337, 32.90033
2658.265, 30.39898
2660.194, 28.98912
2662.122, 31.04916
2664.051, 34.13765
2665.979, 34.46657
2667.907, 31.19817
2669.836, 27.13002
2671.764, 26.94434
2673.693, 31.49840
2675.621, 32.05135
2677.550, 28.73150
2679.478, 26.75887
2681.407, 31.28912
2683.335, 34.35574
2685.264, 32.61192
2687.192, 26.79057
2689.121, 28.67670
2691.049, 30.44131
2692.978, 27.50516
2694.906, 27.31203
2696.834, 28.31512
2698.763, 30.58784
2700.691, 30.99706
2702.620, 31.03387
2704.548, 32.56113
2706.477, 32.81742
2708.405, 31.61080
2710.334, 30.68533
2712.262, 32.40596
2714.191, 30.93735
2716.119, 28.93780
2718.048, 25.52401
2719.976, 27.71294
2721.905, 30.34066
2723.833, 29.88160
2725.761, 29.30480
2727.690, 27.71445
2729.618, 25.12497
2731.547, 28.68298
2733.475, 31.47630
2735.404, 30.07642
2737.332, 29.10780
2739.261, 27.25017
2741.189, 27.56306
2743.118, 27.39431
2745.046, 27.58106
2746.975, 26.94184
2748.903, 23.82013
2750.832, 25.37572
2752.760, 27.20002
2754.688, 28.01194
2756.617, 25.63221
2758.545, 26.39169
2760.474, 30.94997
2762.402, 29.78340
2764.331, 27.54470
2766.259, 28.05061
2768.188, 26.25081
2770.116, 26.13202
2772.045, 25.90715
2773.973, 24.11604
2775.902, 26.00888
2777.830, 25.85824
2779.759, 22.35316
2781.687, 25.34110
2783.615, 27.08117
2785.544, 27.64050
2787.472, 23.48225
2789.401, 25.41575
2791.329, 24.90793
2793.258, 24.30005
2795.186, 27.09085
2797.115, 23.61883
2799.043, 26.35574
2800.972, 26.61419
2802.900, 28.00693
2804.829, 27.35252
2806.757, 27.13148
2808.686, 25.59418
2810.614, 27.39221
2812.542, 27.53895
2814.471, 26.27440
2816.399, 28.22306
2818.328, 27.58382
2820.256, 25.14520
2822.185, 28.26218
2824.113, 27.57547
2826.042, 24.40261
2827.970, 24.12738
2829.899, 22.48851
2831.827, 20.67028
2833.756, 22.48078
2835.684, 23.74244
2837.613, 26.34218
2839.541, 26.20635
2841.469, 25.37226
2843.398, 23.59476
2845.326, 27.30383
2847.255, 26.97335
2849.183, 23.96150
2851.112, 25.33193
2853.040, 26.27395
2854.969, 27.33937
2856.897, 25.36719
2858.826, 26.76010
2860.754, 29.07100
2862.683, 28.05529
2864.611, 26.62278
2866.540, 26.75835
2868.468, 27.42417
2870.396, 25.04186
2872.325, 24.94758
2874.253, 26.39586
2876.182, 23.80543
2878.110, 24.88068
2880.039, 22.73480
2881.967, 23.15500
2883.896, 28.40803
2885.824, 29.72984
2887.753, 28.07681
2889.681, 26.55114
2891.610, 25.80008
2893.538, 26.35957
2895.467, 26.30979
2897.395, 25.00317
2899.323, 25.91437
2901.252, 28.50466
2903.180, 27.28325
2905.109, 25.72324
2907.037, 25.48471
2908.966, 24.97869
2910.894, 27.29300
2912.823, 28.05359
2914.751, 26.84000
2916.680, 29.80035
2918.608, 31.50926
2920.537, 29.07827
2922.465, 27.40143
2924.394, 27.31883
2926.322, 25.62905
2928.250, 25.74453
2930.179, 26.38587
2932.107, 23.06224
2934.036, 25.12231
2935.964, 27.60544
2937.893, 26.98882
2939.821, 21.40545
2941.750, 23.24489
2943.678, 25.85125
2945.607, 21.65433
2947.535, 26.48903
2949.464, 28.73485
2951.392, 27.89056
2953.321, 30.78190
2955.249, 29.31804
2957.177, 25.95361
2959.106, 26.31200
2961.034, 29.94598
2962.963, 28.92467
2964.891, 26.06027
2966.820, 31.53356
2968.748, 30.56106
2970.677, 28.73722
2972.605, 30.73116
2974.534, 28.14186
2976.462, 25.70872
2978.391, 25.47517
2980.319, 30.97665
2982.248, 27.91724
2984.176, 29.96070
2986.104, 33.94433
2988.033, 28.68157
2989.961, 28.57285
2991.890, 27.85865
2993.818, 24.66503
2995.747, 23.92736
2997.675, 23.73141
2999.604, 24.06055
3001.532, 28.64555
3003.461, 29.92211
3005.389, 24.49300
3007.318, 19.81491
3009.246, 23.49776
3011.175, 23.09515
3013.103, 22.16594
3015.031, 24.19184
3016.960, 26.80371
3018.888, 24.78002
3020.817, 19.84812
3022.745, 15.16909
3024.674, 22.88311
3026.602, 23.14483
3028.531, 21.08427
3030.459, 24.70616
3032.388, 22.92018
3034.316, 22.77807
3036.245, 22.90542
3038.173, 17.46560
3040.102, 21.45959
3042.030, 22.11634
3043.958, 18.57706
3045.887, 20.42475
3047.815, 20.06418
3049.744, 19.75121
3051.672, 21.22511
3053.601, 26.31731
3055.529, 25.75733
3057.458, 23.18856
3059.386, 22.72903
3061.315, 23.58089
3063.243, 22.17462
3065.172, 20.27738
3067.100, 20.79899
3069.029, 21.19497
3070.957, 22.39606
3072.885, 22.83052
3074.814, 19.47065
3076.742, 18.50713
3078.671, 18.40207
3080.599, 18.12810
3082.528, 16.06677
3084.456, 19.73868
3086.385, 19.57765
3088.313, 15.76785
3090.242, 18.05927
3092.170, 19.68245
3094.099, 20.92211
3096.027, 21.34458
3097.956, 19.87264
3099.884, 17.70958
3101.813, 15.70835
3103.741, 14.47216
3105.669, 16.49680
3107.598, 15.86131
3109.526, 12.33419
3111.455, 8.689860
3113.383, 12.68271
3115.312, 19.22976
3117.240, 21.59270
3119.169, 17.34266
3121.097, 9.538913
3123.026, 11.23013
3124.954, 15.03226
3126.883, 14.37273
3128.811, 10.90690
3130.740, 14.18107
3132.668, 16.32550
3134.596, 13.78441
3136.525, 14.70706
3138.453, 9.431582
3140.382, 8.077316
3142.310, 13.43959
3144.239, 13.74488
3146.167, 14.76792
3148.096, 14.05273
3150.024, 12.40868
3151.953, 12.19594
3153.881, 12.36796
3155.810, 12.81112
3157.738, 12.56811
3159.667, 12.96637
3161.595, 9.892856
3163.523, 11.77604
3165.452, 16.43488
3167.380, 12.81580
3169.309, 13.52563
3171.237, 13.85690
3173.166, 14.30582
3175.094, 14.85292
3177.023, 13.80857
3178.951, 12.36539
3180.880, 9.395004
3182.808, 6.464067
3184.737, 9.824958
3186.665, 11.05875
3188.594, 10.66516
3190.522, 7.881114
3192.450, 7.766301
3194.379, 9.981838
3196.307, 10.67344
3198.236, 8.122766
3200.164, 7.391981
3202.093, 8.398586
3204.021, 6.574497
3205.950, 2.495779
3207.878, 7.030150
3209.807, 9.202263
3211.735, 10.61003
3213.664, 12.18720
3215.592, 8.671219
3217.521, 12.55244
3219.449, 12.10466
3221.377, 8.691330
3223.306, 7.329833
3225.234, 5.687686
3227.163, 5.789012
3229.091, 7.169581
3231.020, 10.78885
3232.948, 9.824008
3234.877, 5.725389
3236.805, 6.117892
3238.734, 12.09390
3240.662, 12.56855
3242.591, 8.768364
3244.519, 6.697187
3246.448, 8.854151
3248.376, 9.295426
3250.304, 11.96416
3252.233, 11.57464
3254.161, 9.112397
3256.090, 9.995718
3258.018, 12.44396
3259.947, 11.92892
3261.875, 9.745896
3263.804, 7.968369
3265.732, 7.666802
3267.661, 9.612517
3269.589, 11.70610
3271.518, 12.20520
3273.446, 9.983803
3275.375, 8.287999
3277.303, 5.556063
3279.231, 5.714517
3281.160, 9.167586
3283.088, 4.199295
3285.017, 7.694053
3286.945, 7.631721
3288.874, 2.296166
3290.802, 6.931234
3292.731, 7.613805
3294.659, 6.230284
3296.588, 5.556086
3298.516, 4.901074
3300.445, 4.270004
3302.373, 6.243412
3304.302, 7.112637
3306.230, 5.472663
3308.158, 4.223187
3310.087, 2.594674
3312.015, 6.160029
3313.944, 8.405643
3315.872, 3.328488
3317.801, 4.182484
3319.729, 3.578888
3321.658, 5.731100
3323.586, 8.501411
3325.515, 4.338191
3327.443, 3.671051
3329.372, 8.757263
3331.300, 10.77391
3333.229, 5.864146
3335.157, 7.837029
3337.085, 5.258795
3339.014, 3.945488
3340.942, 5.712995
3342.871, 8.495295
3344.799, 8.191902
3346.728, 3.646869
3348.656, 0.1429411
3350.585, 0.6642391
3352.513, 4.649441
3354.442, 3.572503
3356.370, 2.840059
3358.299, 3.240478
3360.227, 5.154033
3362.156, 3.912160
3364.084, 4.741020
3366.012, 5.338926
3367.941, 5.496986
3369.869, 6.461625
3371.798, 4.413084
3373.726, 3.746391
3375.655, 6.062335
3377.583, 8.723016
3379.512, 8.529802
3381.440, 3.309216
3383.369, 4.823832
3385.297, 4.805291
3387.226, 1.420154
3389.154, 4.037416
3391.083, 4.544836
3393.011, 3.527910
3394.939, 4.538208
3396.868, 7.009763
3398.796, 4.778162
3400.725, 6.728420
3402.653, 5.712318
3404.582, 3.782587
3406.510, 3.787192
3408.439, 3.448777
3410.367, 5.555399
3412.296, 5.667820
3414.224, 4.148553
3416.153, 3.509078
3418.081, 7.282520
3420.010, 8.907389
3421.938, 5.554334
3423.866, 1.740382
3425.795, 1.854911
3427.723, 4.414519
3429.652, 1.430146
3431.580, 4.132640
3433.509, 8.220711
3435.437, 6.545398
3437.366, -0.8888996
3439.294, 2.395630
3441.223, 7.565314
3443.151, 7.985918
3445.080, 3.980131
3447.008, 7.520735
3448.937, 7.553542
3450.865, 4.355718
3452.793, 1.917483
3454.722, 1.795761
3456.650, 0.3015792
3458.579, -0.7628874
3460.507, 3.222272
3462.436, 5.568691
3464.364, 5.006353
3466.293, 10.47895
3468.221, 7.643698
3470.150, 2.193896
3472.078, 3.641556
3474.007, 8.313453
3475.935, 3.226537
3477.864, 6.409406
3479.792, 1.294574
3481.720, -0.6312743
3483.649, 3.222139
3485.577, 6.314823
3487.506, 3.142470
3489.434, 4.978186
3491.363, 5.980546
3493.291, 7.614225
3495.220, 11.06928
3497.148, 5.026299
3499.077, 2.317724
3501.005, 5.773548
3502.934, 9.311979
3504.862, 9.149363
3506.791, 7.197866
3508.719, 12.60788
3510.647, 6.407113
3512.576, 2.921972
3514.504, 5.645191
3516.433, 7.158432
3518.361, 9.315206
3520.290, 5.498473
3522.218, 7.604926
3524.147, 10.72643
3526.075, 9.277477
3528.004, 8.935864
3529.932, 12.10617
3531.861, 12.08624
3533.789, 10.74128
3535.718, 10.12384
3537.646, 10.83099
3539.574, 15.17949
3541.503, 18.28271
3543.431, 23.73282
3545.360, 25.95925
3547.288, 23.18317
3549.217, 24.62812
3551.145, 35.57693
3553.074, 42.46693
3555.002, 50.20158
3556.931, 56.58070
3558.859, 56.77922
3560.788, 59.23708
3562.716, 60.00479
3564.645, 55.83189
3566.573, 47.70854
3568.501, 39.17014
3570.430, 33.01543
3572.358, 22.41314
3574.287, 18.17766
3576.215, 15.86682
3578.144, 13.42019
3580.072, 11.19157
3582.001, 10.16107
3583.929, 13.97104
3585.858, 9.638672
3587.786, 5.803292
3589.715, 6.622726
3591.643, 9.376225
3593.572, 5.761024
3595.500, 9.716848
3597.428, 6.937559
3599.357, 5.158856
3601.285, 5.479758
3603.214, 4.720505
3605.142, 4.410054
3607.071, 8.078897
3608.999, 4.919683
3610.928, 4.017511
3612.856, 5.412885
3614.785, 4.665249
3616.713, 5.662903
3618.642, 13.99551
3620.570, 7.931406
3622.499, 9.388070
3624.427, 14.38641
3626.355, 9.441436
3628.284, 4.119623
3630.212, 7.955547
3632.141, 5.815831
3634.069, -0.6989595
3635.998, -0.1018530
3637.926, 7.783105
3639.855, 3.442806
3641.783, 2.237008
3643.712, 7.397447
3645.640, 4.142467
3647.569, 1.565327
3649.497, 4.057784
3651.426, 0.1245872
3653.354, 3.652569
3655.282, 6.244538
3657.211, 5.804753
3659.139, 4.536663
3661.068, 3.696141
3662.996, 2.902364
3664.925, 2.940282
3666.853, 2.068826
3668.782, 2.456209
3670.710, 2.677280
3672.639, 3.416397
3674.567, 4.774206
3676.496, 1.974729
3678.424, 5.390450
3680.353, 1.826222
3682.281, 4.487992
3684.209, 7.109756
3686.138, 4.383842
3688.066, 1.191452
3689.995, 2.840338
3691.923, 0.4727202
3693.852, 1.546351
3695.780, 3.481795
3697.709, 3.707219
3699.637, 1.452796
3701.566, -2.864283
3703.494, 5.766522
3705.423, -4.8525229E-02
3707.351, -2.314425
3709.280, 0.1400627
3711.208, 3.858839
3713.136, 5.307769
3715.065, -2.797125
3716.993, -4.261032
3718.922, -1.928590
3720.850, 2.870313
3722.779, 3.505419
3724.707, 1.071172
3726.636, 1.902506
3728.564, 3.694187
3730.493, 3.444644
3732.421, 1.404605
3734.350, -1.728935
3736.278, -2.153626
3738.207, 0.3290267
3740.135, 1.927644
3742.063, -3.5793561E-02
3743.992, 3.188935
3745.920, 2.636540
3747.849, 2.049054
3749.777, 1.797771
3751.706, 0.7380668
3753.634, -0.9181058
3755.563, -2.018681
3757.491, 0.6395951
3759.420, -0.8565127
3761.348, -3.223005
3763.277, -1.081402
3765.205, 5.640927
3767.134, 10.06722
3769.062, 1.767264
3770.990, 3.907435
3772.919, -0.8224021
3774.847, 0.9347539
3776.776, 2.828610
3778.704, 1.019942
3780.633, -0.4460467
3782.561, 1.772948
3784.490, -2.635032
3786.418, 0.5656039
3788.347, 4.231701
3790.275, -1.201170
3792.204, -3.081542
3794.132, 1.523451
3796.061, 2.548382
3797.989, -1.022770
3799.917, 4.853986
3801.846, 4.719619
3803.774, 2.653496
3805.703, 2.198988
3807.631, 3.933110
3809.560, 4.233850
3811.488, 0.1210372
3813.417, 0.1254869
3815.345, -2.884707
3817.274, 8.102715
3819.202, 4.597119
3821.131, -8.8283367E-02
3823.059, 2.811580
3824.988, 5.041945
3826.916, -0.6724901
3828.844, 6.418467
3830.773, 2.500236
3832.701, -2.243760
3834.630, 4.070478
3836.558, 6.737534
3838.487, 2.591999
3840.415, -1.170866
3842.344, -0.7420096
3844.272, 3.906205
3846.201, -0.8581609
3848.129, -1.748475
3850.058, -3.629743
3851.986, -3.122046
3853.915, 3.756596
3855.843, 6.883499
3857.771, -1.464177
3859.700, -8.6455911E-02
3861.628, -1.006948
3863.557, 0.8504381
3865.485, -1.049606
3867.414, -1.227643
3869.342, -1.972075
3871.271, -2.408540
3873.199, -1.326289
3875.128, -2.086042
3877.056, 2.782447
3878.985, -1.502475
3880.913, 0.7581235
3882.842, 2.992639
3884.770, 1.534880
3886.698, -0.2888315
3888.627, 0.6924406
3890.555, 2.895111
3892.484, 2.073121
3894.412, 4.995033
3896.341, 0.5925082
3898.269, 3.675250
3900.198, -0.6058363
3902.126, -1.311141
3904.055, -1.292124
3905.983, -0.2503995
3907.912, 3.168411
3909.840, -2.641735
3911.769, -1.336621
3913.697, 0.7368875
3915.625, 0.1444539
3917.554, 0.1668660
3919.482, 4.216088
3921.411, 0.6877329
3923.339, -2.098014
3925.268, 2.939523
3927.196, 3.074603
3929.125, 3.128085
3931.053, 1.294678
3932.982, 1.448210
3934.910, -1.786072
3936.839, -3.660356
3938.767, -0.1545153
3940.696, 0.4527824
3942.624, -1.706799
3944.552, -1.063860
3946.481, -1.986976
3948.409, -4.052506
3950.338, -2.602563
3952.266, 10.03930
3954.195, 7.077088
3956.123, 1.422986
3958.052, 1.325094
3959.980, 0.6926805
3961.909, -0.3142014
3963.837, 0.3160052
3965.766, -1.328853
3967.694, 6.616848
3969.623, 0.7570170
3971.551, 1.729660
3973.479, 0.8162432
3975.408, 3.236084
3977.336, 6.635624
3979.265, 9.154506
3981.193, 7.441497
3983.122, 4.774311
3985.050, 5.816419
3986.979, 2.145341
3988.907, -1.925233
3990.836, 1.862307
3992.764, -2.656768
3994.693, 0.9153144
3996.621, 5.494911
3998.550, 4.232465
4000.478, 1.285629
4002.406, 0.1279269
4004.335, -2.261050
4006.263, -5.922898
4008.192, -3.172318
4010.120, -3.199164
4012.049, -0.4670923
4013.977, 0.5374369
4015.906, 3.086551
4017.834, 5.626889
4019.763, 6.683617
4021.691, 0.1950492
4023.620, -2.430948
4025.548, -0.5172045
4027.477, -0.4456645
4029.405, 2.010271
4031.333, 0.9488879
4033.262, -2.013077
4035.190, 0.4725147
4037.119, 2.515163
4039.047, 5.253523
4040.976, 1.482823
4042.904, 1.596921
4044.833, 1.1146200E-02
4046.761, 0.7831188
4048.690, 2.874237
4050.618, 1.710167
4052.547, 1.283495
4054.475, 3.096525
4056.404, 4.055934
4058.332, 6.170027
4060.260, 4.466211
4062.189, 4.483759
4064.117, 1.883471
4066.046, 1.295752
4067.974, -0.5650173
4069.903, 0.4396560
4071.831, 2.096283
4073.760, 4.751401
4075.688, 7.358069
4077.617, 3.637704
4079.545, -2.170392
4081.474, 3.554924
4083.402, -1.743968
4085.331, 1.786327
4087.259, 0.4299603
4089.188, -1.255821
4091.116, 1.891904
4093.044, 4.088995
4094.973, 3.076965
4096.901, 1.546059
4098.830, 1.494874
4100.758, -1.163687
4102.687, -0.7037838
4104.615, 3.414912
4106.544, -0.3355863
4108.472, -2.019336
4110.401, 0.8542774
4112.329, 5.195342
4114.258, 0.3915873
4116.186, 2.774279
4118.115, 1.804600
4120.043, 6.692850
4121.972, 2.688226
4123.900, 2.266609
4125.829, 8.489680
4127.757, 7.589766
4129.686, 3.899202
4131.614, 2.810988
4133.542, 2.120092
4135.471, 2.003291
4137.399, 2.673282
4139.328, 3.725206
4141.256, -1.974403
4143.185, -4.270803
4145.113, -0.5813615
4147.042, 3.001058
4148.970, 0.4589555
4150.898, 0.4927336
4152.827, 4.246513
4154.755, -1.934174
4156.684, 3.636155
4158.612, 2.661308
4160.541, 0.6100197
4162.469, -3.243105
4164.398, -2.569038
4166.326, 3.456716
4168.255, 2.324896
4170.183, -1.562381
4172.112, 1.437069
4174.040, 1.578256
4175.969, -3.742524
4177.897, 3.834611
4179.826, 2.311625
4181.754, -4.2877141E-02
4183.683, 3.990230
4185.611, 1.048466
4187.540, 6.942315
4189.468, 0.9666985
4191.396, 6.819825
4193.325, -1.470948
4195.253, 1.373595
4197.182, 2.786523
4199.110, 2.803546
4201.039, 6.910492
4202.967, 6.172400
4204.896, 7.114995
4206.824, 7.263412
4208.752, 1.766872
4210.681, 1.262175
4212.609, 2.289704
4214.538, 3.494684
4216.466, 4.156201
4218.395, -4.3987121E-02
4220.323, -4.219717
4222.252, -1.368353
4224.180, 5.953028
4226.109, 7.068391
4228.037, -3.705049
4229.966, 3.109998
4231.894, 3.451759
4233.823, 3.579939
4235.751, 0.4242375
4237.680, 2.780149
4239.608, 0.8570392
4241.537, 0.5933737
4243.465, 1.388957
4245.394, 4.377608
4247.322, 5.132932
4249.250, -1.797350
4251.179, 0.2673045
4253.107, 2.201321
4255.036, 3.784878
4256.964, 8.156338
4258.893, 5.878147
4260.821, 1.672154
4262.750, 1.893638
4264.678, 2.433812
4266.606, 0.3376602
4268.535, 2.470151
4270.463, 2.877834
4272.392, 9.0780027E-02
4274.320, 2.269226
4276.249, 5.724382
4278.177, 8.305226
4280.106, 0.5227578
4282.034, 2.053279
4283.963, 2.196240
4285.891, 2.197242
4287.820, 2.128971
4289.748, 3.018343
4291.677, 5.616133
4293.605, 0.7410565
4295.534, 0.8200639
4297.462, 2.428850
4299.391, -2.039675
4301.319, 3.107981
4303.248, 3.215379
4305.176, 6.379732
4307.104, 2.840704
4309.033, -0.5941912
4310.961, -0.4621438
4312.890, -0.1663511
4314.818, 6.823184
4316.747, 6.788929
4318.675, -0.9586847
4320.604, 4.282807
4322.532, 5.907331
##END=



