##NAMES=Hydroxykenomicrolite
##RRUFFID=R061058
##IDEAL CHEMISTRY=([box],Na,Sb^3+^)_2_Ta_2_O_6_(OH)
##LOCALITY=Mt. Vasin-Myl'k, Voron'ya Tundra, Russia
##OWNER=RRUFF
##SOURCE=Michael Scott
##DESCRIPTION=Grayish adamantine grains (orange under long wave ultraviolet light) intimately associated with simpsonite (bluish white in SW UV).
##STATUS=The identification of this mineral has been confirmed by single-crystal X-ray diffraction
##URL=https://www.rruff.net/odr/rruff_sample/R061058
##DIFFRACTION SAMPLE DESCRIPTION=Single crystal, powder profile is calculated
##CELL PARAMETERS=a: 10.52 b: 10.52 c: 10.52 alpha: 90 beta: 90 gamma: 90 volume: 1164.3 crystal system: cubic
##FILETYPE=Raman RAW
##RAMAN WAVELENGTH=785

80.99658, 20.21990
82.92505, 20.23422
84.85352, 19.77412
86.78198, 19.45846
88.71045, 19.42771
90.63892, 19.43363
92.56738, 19.21634
94.49585, 19.01441
96.42432, 19.23526
98.35278, 19.99580
100.2813, 20.78235
102.2097, 21.35149
104.1382, 22.17219
106.0667, 23.13101
107.9951, 24.64606
109.9236, 26.93647
111.8521, 29.81478
113.7805, 34.96097
115.7090, 42.11162
117.6375, 51.79856
119.5659, 60.53701
121.4944, 74.93139
123.4229, 98.02812
125.3513, 129.8388
127.2798, 179.2450
129.2083, 260.9947
131.1367, 340.7623
133.0652, 419.2797
134.9937, 489.1996
136.9221, 534.4446
138.8506, 564.5268
140.7791, 621.6644
142.7075, 706.2361
144.6360, 824.5671
146.5645, 1020.244
148.4929, 1204.870
150.4214, 1332.983
152.3499, 1413.102
154.2783, 1449.745
156.2068, 1428.898
158.1353, 1407.351
160.0637, 1377.330
161.9922, 1359.449
163.9207, 1365.182
165.8491, 1384.441
167.7776, 1408.173
169.7061, 1436.657
171.6345, 1462.770
173.5630, 1490.039
175.4915, 1509.567
177.4199, 1518.501
179.3484, 1520.679
181.2769, 1517.395
183.2053, 1509.714
185.1338, 1500.420
187.0623, 1489.385
188.9907, 1476.771
190.9192, 1460.849
192.8477, 1445.588
194.7761, 1431.917
196.7046, 1420.227
198.6331, 1412.828
200.5615, 1410.697
202.4900, 1399.701
204.4185, 1372.197
206.3469, 1347.599
208.2754, 1327.546
210.2039, 1311.477
212.1323, 1299.013
214.0608, 1290.112
215.9893, 1285.081
217.9177, 1284.129
219.8462, 1287.052
221.7747, 1296.208
223.7031, 1305.387
225.6316, 1311.008
227.5601, 1317.323
229.4885, 1330.465
231.4170, 1348.615
233.3455, 1356.661
235.2739, 1343.045
237.2024, 1340.666
239.1309, 1358.775
241.0593, 1376.613
242.9878, 1384.259
244.9163, 1386.700
246.8447, 1388.081
248.7732, 1388.255
250.7017, 1391.987
252.6301, 1402.042
254.5586, 1409.802
256.4871, 1411.804
258.4156, 1414.376
260.3440, 1417.940
262.2725, 1425.890
264.2010, 1445.447
266.1294, 1478.413
268.0579, 1507.286
269.9864, 1532.529
271.9148, 1553.578
273.8433, 1569.965
275.7718, 1582.392
277.7002, 1590.353
279.6287, 1595.305
281.5572, 1599.470
283.4856, 1602.898
285.4141, 1605.539
287.3426, 1610.845
289.2710, 1608.009
291.1995, 1593.951
293.1280, 1572.023
295.0564, 1542.037
296.9849, 1507.016
298.9134, 1469.503
300.8418, 1428.416
302.7703, 1398.960
304.6988, 1386.417
306.6272, 1370.204
308.5557, 1343.237
310.4842, 1316.439
312.4126, 1294.212
314.3411, 1276.718
316.2696, 1264.330
318.1980, 1257.031
320.1265, 1254.909
322.0550, 1258.130
323.9834, 1264.806
325.9119, 1275.005
327.8404, 1288.037
329.7688, 1300.842
331.6973, 1318.597
333.6258, 1351.918
335.5542, 1396.784
337.4827, 1424.698
339.4112, 1430.240
341.3396, 1443.782
343.2681, 1474.126
345.1966, 1497.813
347.1250, 1499.267
349.0535, 1497.409
350.9820, 1507.270
352.9104, 1522.916
354.8389, 1530.782
356.7674, 1530.296
358.6958, 1521.486
360.6243, 1501.025
362.5528, 1483.395
364.4812, 1477.657
366.4097, 1467.042
368.3382, 1434.743
370.2666, 1399.555
372.1951, 1386.862
374.1236, 1392.957
376.0520, 1390.036
377.9805, 1378.743
379.9090, 1354.971
381.8374, 1310.174
383.7659, 1272.670
385.6944, 1258.281
387.6228, 1249.371
389.5513, 1234.408
391.4798, 1218.146
393.4082, 1210.860
395.3367, 1212.335
397.2652, 1207.516
399.1936, 1195.847
401.1221, 1180.822
403.0506, 1161.131
404.9790, 1141.940
406.9075, 1122.008
408.8360, 1107.045
410.7644, 1104.566
412.6929, 1109.116
414.6214, 1108.650
416.5498, 1102.984
418.4783, 1096.091
420.4068, 1086.704
422.3352, 1083.044
424.2637, 1090.759
426.1922, 1096.736
428.1206, 1094.132
430.0491, 1089.187
431.9776, 1084.788
433.9060, 1081.990
435.8345, 1083.649
437.7630, 1089.739
439.6914, 1095.868
441.6199, 1102.167
443.5484, 1107.341
445.4768, 1109.246
447.4053, 1114.004
449.3338, 1126.751
451.2623, 1139.824
453.1907, 1147.016
455.1192, 1152.144
457.0477, 1161.583
458.9761, 1174.931
460.9046, 1188.914
462.8331, 1203.687
464.7615, 1216.952
466.6900, 1226.120
468.6185, 1240.579
470.5469, 1268.679
472.4754, 1296.595
474.4039, 1309.772
476.3323, 1326.912
478.2608, 1372.132
480.1893, 1437.010
482.1177, 1495.075
484.0462, 1547.423
485.9747, 1614.169
487.9031, 1703.708
489.8316, 1765.448
491.7601, 1785.701
493.6885, 1781.301
495.6170, 1750.513
497.5455, 1708.156
499.4739, 1660.211
501.4024, 1608.190
503.3309, 1550.774
505.2593, 1490.963
507.1878, 1439.365
509.1163, 1395.858
511.0447, 1362.487
512.9732, 1341.697
514.9017, 1321.194
516.8301, 1301.103
518.7586, 1276.021
520.6871, 1238.155
522.6155, 1202.192
524.5440, 1176.709
526.4725, 1159.468
528.4009, 1151.053
530.3294, 1147.980
532.2579, 1137.779
534.1863, 1121.117
536.1148, 1107.593
538.0433, 1097.642
539.9717, 1092.912
541.9002, 1095.809
543.8287, 1100.360
545.7571, 1107.275
547.6856, 1112.591
549.6141, 1112.557
551.5425, 1111.426
553.4710, 1110.678
555.3995, 1113.454
557.3279, 1130.830
559.2564, 1158.109
561.1849, 1170.518
563.1133, 1165.525
565.0418, 1168.900
566.9703, 1188.200
568.8987, 1204.907
570.8272, 1212.323
572.7557, 1221.082
574.6841, 1235.009
576.6126, 1250.518
578.5411, 1264.559
580.4695, 1279.454
582.3980, 1298.403
584.3265, 1320.208
586.2549, 1344.471
588.1834, 1369.563
590.1119, 1386.589
592.0403, 1394.801
593.9688, 1396.136
595.8973, 1386.363
597.8257, 1380.599
599.7542, 1384.933
601.6827, 1387.958
603.6111, 1387.602
605.5396, 1383.995
607.4681, 1372.094
609.3965, 1361.653
611.3250, 1369.108
613.2535, 1355.883
615.1819, 1370.999
617.1104, 1346.624
619.0389, 1335.482
620.9673, 1338.332
622.8958, 1327.371
624.8243, 1295.345
626.7527, 1268.203
628.6812, 1251.018
630.6097, 1235.298
632.5381, 1220.618
634.4666, 1206.355
636.3951, 1192.707
638.3235, 1178.979
640.2520, 1162.685
642.1805, 1148.064
644.1089, 1140.129
646.0374, 1136.555
647.9659, 1135.040
649.8943, 1134.667
651.8228, 1131.062
653.7513, 1124.169
655.6797, 1124.064
657.6082, 1134.329
659.5367, 1139.081
661.4651, 1135.420
663.3936, 1129.314
665.3221, 1118.270
667.2505, 1109.371
669.1790, 1108.427
671.1075, 1104.619
673.0359, 1091.912
674.9644, 1075.623
676.8929, 1057.107
678.8214, 1039.291
680.7498, 1028.478
682.6783, 1006.545
684.6068, 987.2904
686.5352, 966.8058
688.4637, 940.7443
690.3922, 919.3018
692.3206, 891.0743
694.2491, 868.5378
696.1776, 850.3483
698.1060, 822.7629
700.0345, 815.6415
701.9630, 797.3964
703.8914, 778.7488
705.8199, 757.8333
707.7484, 742.3618
709.6768, 737.6448
711.6053, 735.3735
713.5338, 734.4739
715.4622, 730.3318
717.3907, 715.3658
719.3192, 698.8893
721.2476, 691.7007
723.1761, 689.0533
725.1046, 682.0737
727.0330, 672.3602
728.9615, 666.4093
730.8900, 659.0193
732.8184, 651.1240
734.7469, 646.2495
736.6754, 637.7102
738.6038, 632.1459
740.5323, 628.6467
742.4608, 627.2719
744.3892, 628.2806
746.3177, 635.3041
748.2462, 635.7872
750.1746, 622.2021
752.1031, 611.5262
754.0316, 611.6141
755.9600, 613.0146
757.8885, 611.2656
759.8170, 608.6641
761.7454, 604.9846
763.6739, 602.9333
765.6024, 606.6162
767.5308, 611.4783
769.4593, 609.7722
771.3878, 606.8931
773.3162, 617.1560
775.2447, 610.2265
777.1732, 629.1122
779.1016, 608.9030
781.0301, 603.2579
782.9586, 612.2541
784.8870, 619.4220
786.8155, 624.9988
788.7440, 625.3900
790.6724, 619.1635
792.6009, 615.9430
794.5294, 616.2344
796.4578, 621.3858
798.3863, 635.2668
800.3148, 639.1897
802.2432, 624.9457
804.1717, 612.4681
806.1002, 606.6159
808.0286, 606.1213
809.9571, 614.1497
811.8856, 620.8679
813.8140, 621.1275
815.7425, 619.7635
817.6710, 618.4518
819.5994, 617.6162
821.5280, 618.3655
823.4564, 618.8209
825.3849, 615.2905
827.3134, 612.4412
829.2418, 617.9052
831.1703, 625.7294
833.0988, 626.4324
835.0272, 623.1193
836.9557, 621.5173
838.8842, 621.2318
840.8126, 620.4387
842.7411, 620.0054
844.6696, 625.4053
846.5980, 635.0854
848.5265, 635.8474
850.4550, 640.7879
852.3834, 643.6673
854.3119, 642.7405
856.2404, 646.0952
858.1688, 640.7610
860.0973, 639.2073
862.0258, 642.6530
863.9542, 642.8660
865.8827, 638.5485
867.8112, 636.2715
869.7396, 637.5013
871.6681, 637.1671
873.5966, 634.7707
875.5250, 627.9725
877.4535, 612.5941
879.3820, 606.0582
881.3104, 616.5689
883.2389, 624.9434
885.1674, 627.3255
887.0958, 624.7322
889.0243, 613.3051
890.9528, 604.2846
892.8812, 600.6674
894.8097, 600.5168
896.7382, 606.4562
898.6666, 611.0156
900.5951, 609.8776
902.5236, 608.7129
904.4520, 612.2133
906.3805, 613.3785
908.3090, 605.2554
910.2374, 597.7947
912.1659, 599.7947
914.0944, 601.1205
916.0228, 591.7062
917.9513, 582.7003
919.8798, 585.4363
921.8082, 588.9831
923.7367, 582.8809
925.6652, 574.7703
927.5936, 571.2195
929.5221, 569.7196
931.4506, 569.5930
933.3790, 568.2939
935.3075, 561.3121
937.2360, 553.3232
939.1644, 548.8318
941.0929, 547.3073
943.0214, 548.6411
944.9498, 551.9738
946.8783, 559.6584
948.8068, 565.5934
950.7352, 558.7260
952.6637, 546.9097
954.5922, 540.3029
956.5206, 537.1621
958.4491, 535.2352
960.3776, 534.8068
962.3060, 539.1196
964.2345, 543.1177
966.1630, 537.1157
968.0914, 526.5668
970.0199, 519.1478
971.9484, 514.0475
973.8768, 510.2451
975.8053, 507.5867
977.7338, 506.2771
979.6622, 505.6148
981.5907, 505.1924
983.5192, 504.0374
985.4476, 500.4309
987.3761, 494.9667
989.3046, 486.9378
991.2330, 479.0159
993.1615, 476.5930
995.0900, 473.1444
997.0184, 475.0545
998.9469, 472.8432
1000.875, 474.7180
1002.804, 477.6247
1004.732, 476.0464
1006.661, 472.4410
1008.589, 469.4306
1010.518, 468.1583
1012.446, 471.8328
1014.375, 477.1765
1016.303, 479.4893
1018.232, 480.1411
1020.160, 481.7616
1022.089, 482.2864
1024.017, 477.6330
1025.945, 471.5384
1027.874, 466.7983
1029.802, 465.1841
1031.731, 471.5450
1033.659, 479.2843
1035.588, 481.6305
1037.516, 481.3127
1039.445, 479.4680
1041.373, 477.9569
1043.302, 479.4030
1045.230, 480.7665
1047.159, 478.4361
1049.087, 476.4523
1051.016, 479.8680
1052.944, 482.2038
1054.872, 475.5852
1056.801, 471.1897
1058.729, 479.7886
1060.658, 487.4391
1062.586, 484.1359
1064.515, 480.3185
1066.443, 482.8975
1068.372, 483.9007
1070.300, 476.9459
1072.229, 472.6559
1074.157, 477.1789
1076.086, 482.0995
1078.014, 485.1691
1079.943, 484.9280
1081.871, 477.3023
1083.799, 477.2859
1085.728, 493.8585
1087.656, 503.4294
1089.585, 498.2465
1091.513, 491.7747
1093.442, 485.6058
1095.370, 484.7951
1097.299, 491.6542
1099.227, 495.7014
1101.156, 494.8482
1103.084, 495.7821
1105.013, 499.2285
1106.941, 504.4768
1108.870, 511.5898
1110.798, 517.9807
1112.726, 523.5248
1114.655, 523.2836
1116.583, 517.4894
1118.512, 516.3152
1120.440, 519.3209
1122.369, 525.1655
1124.297, 531.6235
1126.226, 525.1883
1128.154, 512.0991
1130.083, 512.1284
1132.011, 519.4713
1133.940, 522.3408
1135.868, 522.5503
1137.797, 522.2034
1139.725, 522.0406
1141.653, 523.6071
1143.582, 525.2183
1145.510, 525.0495
1147.439, 524.2986
1149.367, 521.9087
1151.296, 522.1984
1153.224, 530.1666
1155.153, 538.0556
1157.081, 543.4610
1159.010, 546.1084
1160.938, 544.7225
1162.867, 542.9435
1164.795, 540.2505
1166.724, 541.4439
1168.652, 548.5959
1170.580, 554.9753
1172.509, 560.0424
1174.437, 559.1846
1176.366, 551.5718
1178.294, 550.1666
1180.223, 555.6523
1182.151, 564.2767
1184.080, 573.8679
1186.008, 570.2505
1187.937, 557.8582
1189.865, 553.5255
1191.794, 555.3864
1193.722, 561.0263
1195.651, 566.9433
1197.579, 566.2879
1199.507, 563.6789
1201.436, 564.4366
1203.364, 566.2576
1205.293, 566.6873
1207.221, 567.9228
1209.150, 570.5604
1211.078, 575.6880
1213.007, 587.8984
1214.935, 595.4885
1216.864, 590.4868
1218.792, 589.2411
1220.721, 595.9633
1222.649, 601.6749
1224.578, 606.3773
1226.506, 606.1310
1228.434, 600.4265
1230.363, 595.7186
1232.291, 592.8682
1234.220, 600.6252
1236.148, 614.4338
1238.077, 615.5270
1240.005, 609.8986
1241.934, 610.1301
1243.862, 612.3985
1245.791, 610.5750
1247.719, 609.7193
1249.648, 616.3669
1251.576, 622.8392
1253.505, 622.3773
1255.433, 623.6000
1257.361, 633.7923
1259.290, 639.6157
1261.218, 633.7939
1263.147, 631.1970
1265.075, 634.3331
1267.004, 639.0861
1268.932, 646.7878
1270.861, 646.3138
1272.789, 638.3018
1274.718, 637.7254
1276.646, 643.0063
1278.575, 649.4266
1280.503, 655.8083
1282.432, 658.9965
1284.360, 661.8575
1286.288, 666.9135
1288.217, 673.6960
1290.145, 684.8528
1292.074, 691.4239
1294.002, 686.3299
1295.931, 683.4553
1297.859, 686.3787
1299.788, 693.8575
1301.716, 707.4202
1303.645, 717.6060
1305.573, 723.9689
1307.502, 726.3931
1309.430, 726.3115
1311.359, 734.3907
1313.287, 747.5215
1315.215, 760.5757
1317.144, 770.8740
1319.072, 770.6585
1321.001, 771.9090
1322.929, 784.5761
1324.858, 798.9243
1326.786, 811.5078
1328.715, 822.9451
1330.643, 833.4058
1332.572, 841.9161
1334.500, 847.8027
1336.429, 857.9110
1338.357, 872.6315
1340.286, 888.3571
1342.214, 903.2039
1344.142, 909.0488
1346.071, 909.3195
1347.999, 903.3025
1349.928, 903.6855
1351.856, 934.6280
1353.785, 957.9792
1355.713, 949.0505
1357.642, 942.2263
1359.570, 947.8029
1361.499, 951.7518
1363.427, 951.8668
1365.356, 947.6280
1367.284, 954.7061
1369.213, 947.8187
1371.141, 964.6196
1373.069, 976.0756
1374.998, 981.0833
1376.926, 973.8251
1378.855, 964.7020
1380.783, 960.1548
1382.712, 961.3367
1384.640, 973.7652
1386.569, 980.0195
1388.497, 975.7648
1390.426, 972.0207
1392.354, 970.0591
1394.283, 970.6166
1396.211, 973.0341
1398.140, 977.8267
1400.068, 978.9231
1401.996, 958.2828
1403.925, 936.6227
1405.853, 936.0300
1407.782, 940.1317
1409.710, 941.2322
1411.639, 943.7053
1413.567, 951.3399
1415.496, 946.3905
1417.424, 945.2282
1419.353, 924.0034
1421.281, 932.1215
1423.210, 924.9819
1425.138, 912.5184
1427.067, 913.8597
1428.995, 916.4011
1430.923, 909.1229
1432.852, 898.9261
1434.780, 883.0497
1436.709, 878.1483
1438.637, 873.7264
1440.566, 869.2662
1442.494, 873.6157
1444.423, 868.2251
1446.351, 870.9866
1448.280, 870.9514
1450.208, 868.3740
1452.137, 860.7578
1454.065, 855.4252
1455.994, 847.6739
1457.922, 836.5894
1459.850, 833.7917
1461.779, 817.7734
1463.707, 817.3221
1465.636, 819.7524
1467.564, 822.7386
1469.493, 811.2886
1471.421, 796.6185
1473.350, 795.7761
1475.278, 797.4023
1477.207, 795.6567
1479.135, 790.8258
1481.064, 780.4866
1482.992, 774.8635
1484.921, 775.4678
1486.849, 776.3854
1488.777, 776.2531
1490.706, 766.4118
1492.634, 753.6693
1494.563, 745.8870
1496.491, 743.3146
1498.420, 748.3046
1500.348, 753.4242
1502.277, 757.6334
1504.205, 755.8852
1506.134, 747.4794
1508.062, 740.3027
1509.991, 734.5143
1511.919, 730.4046
1513.848, 728.3611
1515.776, 730.6450
1517.704, 732.1216
1519.633, 730.7778
1521.561, 727.4589
1523.490, 721.8788
1525.418, 719.6712
1527.347, 720.4987
1529.275, 719.3672
1531.204, 717.4109
1533.132, 718.8053
1535.061, 717.0607
1536.989, 717.7279
1538.918, 718.3091
1540.846, 713.8009
1542.775, 717.1932
1544.703, 704.7891
1546.631, 697.6414
1548.560, 694.0627
1550.488, 687.0314
1552.417, 682.3042
1554.345, 689.3181
1556.274, 693.9656
1558.202, 691.6572
1560.131, 685.2164
1562.059, 685.2753
1563.988, 673.6962
1565.916, 676.6057
1567.845, 668.9869
1569.773, 660.6817
1571.702, 663.8378
1573.630, 669.2113
1575.559, 674.3505
1577.487, 676.1414
1579.416, 674.1290
1581.344, 668.6044
1583.272, 661.5364
1585.201, 660.4406
1587.129, 659.5198
1589.058, 647.5699
1590.986, 642.1277
1592.915, 657.1643
1594.843, 661.5186
1596.772, 652.4686
1598.700, 646.3499
1600.629, 643.9641
1602.557, 648.0074
1604.486, 650.8912
1606.414, 641.8943
1608.343, 635.3025
1610.271, 638.1981
1612.199, 639.9177
1614.128, 639.9470
1616.056, 639.7603
1617.985, 639.2269
1619.913, 637.6840
1621.842, 636.1163
1623.770, 638.2951
1625.699, 634.1151
1627.627, 630.7331
1629.556, 629.5951
1631.484, 621.0356
1633.413, 623.1268
1635.341, 620.3522
1637.270, 614.2869
1639.198, 608.5383
1641.126, 603.6535
1643.055, 603.0389
1644.983, 607.8867
1646.912, 610.3450
1648.840, 610.5938
1650.769, 609.6362
1652.697, 605.7776
1654.626, 594.4316
1656.554, 587.7211
1658.483, 591.3582
1660.411, 593.6656
1662.340, 593.9585
1664.268, 588.5996
1666.197, 582.2817
1668.125, 570.3011
1670.053, 583.3790
1671.982, 590.4192
1673.910, 591.7471
1675.839, 570.2513
1677.767, 578.2274
1679.696, 574.3923
1681.624, 570.0732
1683.553, 582.1969
1685.481, 564.0212
1687.410, 575.8840
1689.338, 575.7562
1691.267, 581.1161
1693.195, 574.5926
1695.124, 571.7392
1697.052, 580.7737
1698.980, 568.9615
1700.909, 568.8206
1702.837, 571.7903
1704.766, 565.6179
1706.694, 553.3221
1708.623, 550.4977
1710.551, 551.2283
1712.480, 550.9492
1714.408, 548.0789
1716.337, 548.1122
1718.265, 540.8624
1720.194, 544.6354
1722.122, 541.6303
1724.051, 537.5316
1725.979, 540.9074
1727.907, 541.3426
1729.836, 535.5742
1731.764, 528.3455
1733.693, 521.9238
1735.621, 527.3242
1737.550, 533.6733
1739.478, 524.3706
1741.407, 520.3995
1743.335, 529.4214
1745.264, 526.7588
1747.192, 527.8937
1749.121, 528.6690
1751.049, 526.4918
1752.978, 524.3869
1754.906, 519.8763
1756.834, 513.7706
1758.763, 515.6027
1760.691, 522.5163
1762.620, 521.7739
1764.548, 519.6985
1766.477, 523.8740
1768.405, 523.9228
1770.334, 516.9095
1772.262, 516.5782
1774.191, 520.3312
1776.119, 520.6899
1778.048, 519.1348
1779.976, 516.2333
1781.905, 512.7682
1783.833, 508.8240
1785.761, 505.4191
1787.690, 504.1157
1789.618, 510.3157
1791.547, 514.8914
1793.475, 511.2144
1795.404, 508.3680
1797.332, 506.9488
1799.261, 512.3248
1801.189, 517.4771
1803.118, 511.5909
1805.046, 508.4189
1806.975, 515.6367
1808.903, 516.3937
1810.832, 512.4063
1812.760, 514.6620
1814.688, 513.7320
1816.617, 512.6172
1818.545, 511.2612
1820.474, 508.4916
1822.402, 507.5046
1824.331, 499.3139
1826.259, 499.7928
1828.188, 503.3542
1830.116, 508.9677
1832.045, 510.7434
1833.973, 509.0467
1835.902, 506.0755
1837.830, 506.2881
1839.759, 507.5053
1841.687, 507.5543
1843.615, 511.7144
1845.544, 508.1146
1847.472, 508.0064
1849.401, 503.0943
1851.329, 498.5085
1853.258, 497.2642
1855.186, 496.8151
1857.115, 496.3019
1859.043, 496.7991
1860.972, 498.1910
1862.900, 500.5786
1864.829, 502.4332
1866.757, 503.9656
1868.686, 500.2367
1870.614, 493.5371
1872.542, 487.1965
1874.471, 487.5367
1876.399, 496.6667
1878.328, 496.9614
1880.256, 490.7366
1882.185, 489.1749
1884.113, 488.6676
1886.042, 486.1100
1887.970, 481.5811
1889.899, 476.3187
1891.827, 479.9775
1893.756, 473.6647
1895.684, 474.8213
1897.613, 468.0569
1899.541, 466.8232
1901.469, 466.7054
1903.398, 467.3545
1905.326, 469.7799
1907.255, 469.7139
1909.183, 465.4200
1911.112, 462.0864
1913.040, 457.9549
1914.969, 450.3352
1916.897, 445.2057
1918.826, 445.8345
1920.754, 448.1036
1922.683, 450.6095
1924.611, 445.7280
1926.540, 439.3055
1928.468, 431.1279
1930.396, 430.8716
1932.325, 440.1740
1934.253, 440.8065
1936.182, 434.5993
1938.110, 434.0534
1940.039, 415.6691
1941.967, 419.9701
1943.896, 411.7496
1945.824, 400.5656
1947.753, 403.3240
1949.681, 406.1220
1951.610, 402.3267
1953.538, 396.7580
1955.467, 390.7152
1957.395, 387.1656
1959.323, 386.6947
1961.252, 388.8746
1963.180, 383.7331
1965.109, 376.5107
1967.037, 382.9272
1968.966, 385.1519
1970.894, 374.6192
1972.823, 371.2872
1974.751, 371.8355
1976.680, 359.9808
1978.608, 356.4248
1980.537, 369.3748
1982.465, 367.1549
1984.394, 356.9211
1986.322, 354.8884
1988.250, 354.5272
1990.179, 355.8351
1992.107, 347.3593
1994.036, 334.5405
1995.964, 335.6455
1997.893, 335.5316
1999.821, 328.2685
2001.750, 329.0355
2003.678, 325.0634
2005.607, 325.9679
2007.535, 320.0608
2009.464, 320.9715
2011.392, 320.7914
2013.321, 319.3463
2015.249, 311.4903
2017.177, 304.9986
2019.106, 305.3230
2021.034, 307.3876
2022.963, 307.1931
2024.891, 302.2343
2026.820, 299.9506
2028.748, 300.8858
2030.677, 301.3894
2032.605, 300.8823
2034.534, 299.2432
2036.462, 298.8748
2038.391, 298.1552
2040.319, 293.3682
2042.248, 288.8282
2044.176, 289.1967
2046.104, 285.9180
2048.033, 277.0671
2049.961, 280.4609
2051.890, 285.5605
2053.818, 279.5265
2055.747, 273.7976
2057.675, 270.7393
2059.604, 275.7746
2061.532, 278.3818
2063.461, 267.7995
2065.389, 262.3734
2067.318, 261.7870
2069.246, 257.6280
2071.175, 257.3509
2073.103, 262.3841
2075.031, 267.7386
2076.960, 270.6339
2078.888, 259.2502
2080.817, 251.5333
2082.745, 255.3496
2084.674, 250.0823
2086.602, 243.7775
2088.531, 251.9473
2090.459, 254.3183
2092.388, 246.5616
2094.316, 243.7085
2096.245, 242.1898
2098.173, 241.0974
2100.102, 243.4844
2102.030, 241.0563
2103.958, 241.9812
2105.887, 238.8352
2107.815, 238.2523
2109.744, 237.4345
2111.672, 237.2564
2113.601, 238.7684
2115.529, 240.5077
2117.458, 240.1549
2119.386, 240.1829
2121.315, 239.3194
2123.243, 229.8805
2125.172, 225.3649
2127.100, 226.9969
2129.029, 227.3598
2130.957, 226.8027
2132.885, 225.6025
2134.814, 223.6291
2136.742, 220.6767
2138.671, 220.9550
2140.599, 219.8257
2142.528, 216.3577
2144.456, 215.5841
2146.385, 215.6626
2148.313, 214.4331
2150.242, 211.1287
2152.170, 212.0462
2154.099, 208.7409
2156.027, 211.9646
2157.956, 213.5615
2159.884, 213.5434
2161.813, 211.6279
2163.741, 210.0492
2165.669, 209.7391
2167.598, 209.3398
2169.526, 208.0857
2171.455, 207.6161
2173.383, 206.3253
2175.312, 202.0198
2177.240, 199.3249
2179.169, 208.6857
2181.097, 212.1573
2183.026, 205.4302
2184.954, 198.3581
2186.883, 194.8694
2188.811, 201.8847
2190.740, 201.9055
2192.668, 197.4270
2194.596, 199.2878
2196.525, 198.4801
2198.453, 192.2179
2200.382, 189.2407
2202.310, 188.1110
2204.239, 187.5387
2206.167, 189.2320
2208.096, 191.5279
2210.024, 191.2988
2211.953, 190.4954
2213.881, 187.7522
2215.810, 185.0042
2217.738, 183.9329
2219.667, 182.9159
2221.595, 182.8331
2223.523, 183.1313
2225.452, 184.5191
2227.380, 185.9868
2229.309, 187.8498
2231.237, 185.6272
2233.166, 181.9609
2235.094, 180.5822
2237.023, 180.0467
2238.951, 179.8938
2240.880, 179.0856
2242.808, 181.6470
2244.737, 181.5782
2246.665, 181.2716
2248.594, 184.0750
2250.522, 181.3858
2252.450, 183.1537
2254.379, 185.8739
2256.307, 184.3484
2258.236, 180.1920
2260.164, 174.5699
2262.093, 170.1931
2264.021, 165.7282
2265.950, 160.4954
2267.878, 160.7815
2269.807, 163.4971
2271.735, 166.7076
2273.664, 166.5066
2275.592, 163.6262
2277.521, 159.0939
2279.449, 156.8337
2281.377, 157.3857
2283.306, 157.2685
2285.234, 156.9097
2287.163, 155.9197
2289.091, 156.0144
2291.020, 156.9436
2292.948, 158.6982
2294.877, 159.5180
2296.805, 158.9091
2298.734, 155.4438
2300.662, 152.2517
2302.591, 150.1228
2304.519, 148.8946
2306.448, 149.2037
2308.376, 150.0610
2310.304, 152.0006
2312.233, 157.4070
2314.161, 159.5502
2316.090, 157.2206
2318.018, 152.6296
2319.947, 147.6319
2321.875, 145.5913
2323.804, 148.1855
2325.732, 149.5101
2327.661, 149.2420
2329.589, 150.1113
2331.518, 149.8947
2333.446, 149.4959
2335.375, 149.0420
2337.303, 148.2550
2339.231, 147.3342
2341.160, 146.1940
2343.088, 142.5910
2345.017, 143.3376
2346.945, 139.8119
2348.874, 137.8451
2350.802, 139.7778
2352.731, 143.7444
2354.659, 146.0198
2356.588, 141.7128
2358.516, 137.7778
2360.445, 135.4224
2362.373, 134.7516
2364.302, 132.6490
2366.230, 130.7641
2368.158, 133.3495
2370.087, 134.6591
2372.015, 136.4540
2373.944, 133.9376
2375.872, 132.5096
2377.801, 136.5856
2379.729, 131.7527
2381.658, 129.1124
2383.586, 135.7284
2385.515, 135.4417
2387.443, 132.9390
2389.372, 133.4016
2391.300, 133.0209
2393.229, 131.7045
2395.157, 131.5631
2397.085, 131.6224
2399.014, 132.4545
2400.942, 132.5914
2402.871, 129.8427
2404.799, 126.9496
2406.728, 128.0381
2408.656, 128.0073
2410.585, 127.6490
2412.513, 124.4449
2414.442, 121.7097
2416.370, 122.6661
2418.299, 125.8412
2420.227, 127.0532
2422.156, 122.8208
2424.084, 120.5742
2426.012, 120.2919
2427.941, 121.8608
2429.869, 122.4264
2431.798, 119.8290
2433.726, 121.0819
2435.655, 119.0247
2437.583, 120.6008
2439.512, 118.2831
2441.440, 117.5374
2443.369, 117.6208
2445.297, 116.1581
2447.226, 116.1750
2449.154, 118.2704
2451.083, 117.4551
2453.011, 118.4688
2454.939, 117.5636
2456.868, 114.0301
2458.796, 112.7443
2460.725, 113.4530
2462.653, 111.8773
2464.582, 116.4686
2466.510, 111.4793
2468.439, 112.6049
2470.367, 112.1947
2472.296, 109.7256
2474.224, 110.9196
2476.153, 110.5625
2478.081, 109.9031
2480.010, 109.9890
2481.938, 108.3592
2483.866, 108.6170
2485.795, 109.4433
2487.723, 107.7409
2489.652, 106.8616
2491.580, 105.3730
2493.509, 101.9574
2495.437, 101.2640
2497.366, 106.1990
2499.294, 106.2861
2501.223, 102.6554
2503.151, 104.1583
2505.080, 103.0098
2507.008, 103.0646
2508.937, 101.5964
2510.865, 102.8163
2512.793, 102.4820
2514.722, 99.50402
2516.650, 101.2553
2518.579, 101.8766
2520.507, 99.80061
2522.436, 99.71006
2524.364, 102.0354
2526.293, 102.8960
2528.221, 100.8664
2530.150, 101.0662
2532.078, 99.45235
2534.007, 96.25366
2535.935, 97.40889
2537.864, 94.50426
2539.792, 92.47219
2541.720, 95.09554
2543.649, 97.45670
2545.577, 95.98208
2547.506, 95.06203
2549.434, 95.79702
2551.363, 95.76431
2553.291, 94.88986
2555.220, 95.16052
2557.148, 95.18985
2559.077, 94.27033
2561.005, 92.61323
2562.934, 91.80624
2564.862, 91.18275
2566.791, 92.30482
2568.719, 94.04916
2570.647, 93.89918
2572.576, 89.87461
2574.504, 85.76804
2576.433, 86.32713
2578.361, 84.10885
2580.290, 84.02087
2582.218, 85.17313
2584.147, 84.95863
2586.075, 88.97466
2588.004, 90.22881
2589.932, 82.90514
2591.861, 80.57952
2593.789, 85.03622
2595.718, 87.42770
2597.646, 86.66460
2599.574, 87.34191
2601.503, 83.18323
2603.431, 84.51067
2605.360, 82.69720
2607.288, 81.15954
2609.217, 81.87688
2611.145, 83.42580
2613.074, 80.78899
2615.002, 81.64258
2616.931, 82.07594
2618.859, 80.61443
2620.788, 78.15430
2622.716, 75.65780
2624.645, 74.09902
2626.573, 73.20437
2628.501, 74.00133
2630.430, 76.55489
2632.358, 75.99362
2634.287, 74.99847
2636.215, 74.31069
2638.144, 74.38793
2640.072, 72.97185
2642.001, 74.74074
2643.929, 71.96000
2645.858, 71.86172
2647.786, 74.08369
2649.715, 73.92056
2651.643, 75.05399
2653.572, 76.67746
2655.500, 75.39377
2657.428, 74.35630
2659.357, 71.36327
2661.285, 70.40087
2663.214, 70.58025
2665.142, 68.84263
2667.071, 71.65378
2668.999, 73.37917
2670.928, 72.30219
2672.856, 74.02209
2674.785, 70.91515
2676.713, 73.23087
2678.642, 71.89757
2680.570, 68.29630
2682.499, 66.56427
2684.427, 68.50268
2686.355, 69.71968
2688.284, 68.85885
2690.212, 69.08214
2692.141, 67.84307
2694.069, 66.20121
2695.998, 64.84889
2697.926, 63.79769
2699.855, 66.82479
2701.783, 61.75909
2703.712, 65.15956
2705.640, 64.44437
2707.569, 61.18752
2709.497, 60.27746
2711.426, 61.89054
2713.354, 62.31156
2715.282, 60.29622
2717.211, 62.04421
2719.139, 61.42471
2721.068, 59.52513
2722.996, 60.12691
2724.925, 58.44766
2726.853, 59.03712
2728.782, 57.40122
2730.710, 60.25362
2732.639, 62.18318
2734.567, 63.03668
2736.496, 60.85076
2738.424, 59.31128
2740.353, 60.34997
2742.281, 55.17436
2744.209, 52.78093
2746.138, 54.93247
2748.066, 60.59411
2749.995, 60.12094
2751.923, 56.85186
2753.852, 56.11654
2755.780, 52.71695
2757.709, 50.65494
2759.637, 53.22309
2761.566, 52.89882
2763.494, 52.75114
2765.423, 54.04455
2767.351, 53.68942
2769.280, 51.65091
2771.208, 49.84092
2773.136, 53.66231
2775.065, 55.16953
2776.993, 53.93500
2778.922, 51.11826
2780.850, 50.66183
2782.779, 50.94473
2784.707, 51.10226
2786.636, 53.88113
2788.564, 52.42911
2790.493, 47.40745
2792.421, 44.55218
2794.350, 46.19017
2796.278, 49.54452
2798.207, 50.44020
2800.135, 47.27620
2802.063, 46.04350
2803.992, 48.18922
2805.920, 48.24805
2807.849, 48.22817
2809.777, 47.57969
2811.706, 45.04049
2813.634, 44.68259
2815.563, 46.49147
2817.491, 48.68143
2819.420, 47.47169
2821.348, 46.98445
2823.277, 45.96432
2825.205, 46.80203
2827.134, 46.26886
2829.062, 43.16410
2830.990, 42.64187
2832.919, 43.53572
2834.847, 43.65547
2836.776, 45.13671
2838.704, 43.81816
2840.633, 43.75856
2842.561, 44.72968
2844.490, 40.46292
2846.418, 41.97443
2848.347, 45.11117
2850.275, 40.98275
2852.204, 41.02265
2854.132, 42.08171
2856.061, 40.98539
2857.989, 40.85744
2859.917, 40.07596
2861.846, 39.38057
2863.774, 39.32350
2865.703, 38.76945
2867.631, 38.33041
2869.560, 38.18309
2871.488, 37.63459
2873.417, 38.67699
2875.345, 41.07917
2877.274, 42.63734
2879.202, 41.09441
2881.131, 40.17573
2883.059, 42.17838
2884.988, 41.70045
2886.916, 39.94883
2888.844, 39.33894
2890.773, 41.52438
2892.701, 39.75590
2894.630, 37.78230
2896.558, 39.36356
2898.487, 37.64456
2900.415, 35.30466
2902.344, 31.87186
2904.272, 36.22706
2906.201, 37.22456
2908.129, 35.08404
2910.058, 34.56422
2911.986, 33.16752
2913.915, 33.06214
2915.843, 34.64447
2917.771, 36.01598
2919.700, 33.20345
2921.628, 30.40093
2923.557, 30.28090
2925.485, 31.67916
2927.414, 33.74614
2929.342, 33.65475
2931.271, 34.42300
2933.199, 37.53268
2935.128, 33.97523
2937.056, 34.70421
2938.985, 33.46040
2940.913, 30.31103
2942.842, 29.61878
2944.770, 29.49578
2946.698, 27.91354
2948.627, 29.67995
2950.555, 31.55546
2952.484, 32.28447
2954.412, 31.49214
2956.341, 29.58542
2958.269, 29.87589
2960.198, 28.54286
2962.126, 29.94465
2964.055, 32.15475
2965.983, 29.49875
2967.912, 28.59347
2969.840, 31.83664
2971.769, 29.65192
2973.697, 29.80584
2975.625, 30.08515
2977.554, 30.02914
2979.482, 29.47583
2981.411, 29.28178
2983.339, 28.33589
2985.268, 27.36091
2987.196, 27.50349
2989.125, 27.86673
2991.053, 26.20471
2992.982, 24.98280
2994.910, 25.44838
2996.839, 26.48664
2998.767, 25.62127
3000.696, 24.75971
3002.624, 25.71027
3004.552, 25.79294
3006.481, 23.00121
3008.409, 24.46229
3010.338, 25.44411
3012.266, 24.01829
3014.195, 22.04615
3016.123, 24.88520
3018.052, 24.52047
3019.980, 22.62900
3021.909, 22.78485
3023.837, 22.29528
3025.766, 23.13278
3027.694, 23.86194
3029.623, 21.18214
3031.551, 20.87870
3033.479, 23.29227
3035.408, 20.51289
3037.336, 19.02082
3039.265, 22.34585
3041.193, 23.36433
3043.122, 21.54065
3045.051, 24.95288
3046.979, 24.66632
3048.907, 20.83487
3050.836, 18.58384
3052.764, 20.54356
3054.693, 21.60383
3056.621, 20.22034
3058.550, 20.56320
3060.478, 22.15242
3062.407, 21.63514
3064.335, 18.78622
3066.264, 18.71955
3068.192, 18.78470
3070.121, 18.47888
3072.049, 19.08679
3073.978, 19.23983
3075.906, 19.09482
3077.834, 19.79846
3079.763, 18.96948
3081.691, 18.51646
3083.620, 18.60154
3085.548, 18.41026
3087.477, 18.10238
3089.405, 18.79576
3091.334, 19.45677
3093.262, 19.80452
3095.191, 18.74267
3097.119, 16.80954
3099.048, 17.84336
3100.976, 18.09563
3102.905, 14.26866
3104.833, 14.56012
3106.761, 16.46882
3108.690, 18.27329
3110.618, 18.04155
3112.547, 18.88846
3114.475, 18.05455
3116.404, 18.37344
3118.332, 18.44403
3120.261, 17.36265
3122.189, 16.35485
3124.118, 16.55512
3126.046, 18.40877
3127.975, 21.04325
3129.903, 21.16615
3131.832, 18.91111
3133.760, 17.68065
3135.688, 14.62316
3137.617, 13.70714
3139.545, 13.04960
3141.474, 13.51259
3143.402, 13.61128
3145.331, 16.41932
3147.259, 18.88379
3149.188, 18.15745
3151.116, 19.20930
3153.045, 17.53034
3154.973, 13.26238
3156.902, 12.56672
3158.830, 15.75091
3160.759, 18.05881
3162.687, 17.18884
3164.615, 15.55349
3166.544, 13.38978
3168.472, 13.12309
3170.401, 13.97319
3172.329, 14.61969
3174.258, 12.99679
3176.186, 12.09161
3178.115, 12.41009
3180.043, 12.20313
3181.972, 13.66267
3183.900, 13.62895
3185.829, 13.40631
3187.757, 15.41413
3189.686, 15.17914
3191.614, 16.78059
3193.542, 15.93765
3195.471, 18.25319
3197.399, 18.15563
3199.328, 15.64551
3201.256, 13.51377
3203.185, 13.76198
3205.113, 13.63311
3207.042, 13.27938
3208.970, 13.95009
3210.899, 14.32910
3212.827, 14.85688
3214.756, 16.69647
3216.684, 16.78814
3218.613, 15.85940
3220.541, 18.01478
3222.469, 13.96434
3224.398, 12.33141
3226.326, 14.35038
3228.255, 17.12225
3230.183, 12.90943
3232.112, 12.18566
3234.040, 14.38485
3235.969, 16.57213
3237.897, 15.60266
3239.826, 15.27140
3241.754, 17.20865
3243.683, 20.79519
3245.611, 22.33987
3247.540, 20.46030
3249.468, 17.35242
3251.396, 16.05321
3253.325, 19.35678
3255.253, 18.13327
3257.182, 17.77370
3259.110, 17.74329
3261.039, 16.42855
3262.967, 18.35000
3264.896, 15.54255
3266.824, 15.73399
3268.753, 20.47591
3270.681, 19.29823
3272.610, 19.85837
3274.538, 19.19820
3276.467, 16.96822
3278.395, 14.66519
3280.323, 17.99669
3282.252, 18.84299
3284.180, 17.69738
3286.109, 16.18685
3288.037, 17.28947
3289.966, 18.04999
3291.894, 19.72116
3293.823, 20.56306
3295.751, 16.46122
3297.680, 16.21149
3299.608, 16.33994
3301.537, 15.99642
3303.465, 15.06683
3305.394, 16.15778
3307.322, 15.32557
3309.250, 16.80643
3311.179, 14.83287
3313.107, 15.40087
3315.036, 15.31581
3316.964, 16.57522
3318.893, 16.71780
3320.821, 14.63841
3322.750, 15.19448
3324.678, 14.34057
3326.607, 12.12676
3328.535, 11.17915
3330.464, 15.04335
3332.392, 13.65982
3334.321, 14.77992
3336.249, 15.82901
3338.177, 14.90297
3340.106, 13.72703
3342.034, 13.18890
3343.963, 12.80541
3345.891, 12.96884
3347.820, 13.61346
3349.748, 10.76861
3351.677, 11.15920
3353.605, 11.20635
3355.534, 9.348291
3357.462, 8.948721
3359.391, 9.223432
3361.319, 11.14341
3363.248, 9.330690
3365.176, 11.19455
3367.104, 9.672999
3369.033, 13.99786
3370.961, 12.63769
3372.890, 8.980238
3374.818, 9.759328
3376.747, 12.65845
3378.675, 11.58659
3380.604, 11.42673
3382.532, 11.53392
3384.461, 8.689854
3386.389, 7.987350
3388.318, 9.771190
3390.246, 11.20753
3392.175, 9.972665
3394.103, 11.11838
3396.031, 11.11455
3397.960, 11.09771
3399.888, 8.547333
3401.817, 8.257324
3403.745, 9.341582
3405.674, 7.411494
3407.602, 8.914896
3409.531, 9.675035
3411.459, 7.222500
3413.388, 6.253903
3415.316, 9.998551
3417.245, 8.909304
3419.173, 7.177212
3421.102, 8.365748
3423.030, 4.412694
3424.958, 5.877152
3426.887, 6.146282
3428.815, 4.347874
3430.744, 2.796748
3432.672, 6.844079
3434.601, 7.279868
3436.529, 7.467010
3438.458, 7.694221
3440.386, 7.188097
3442.315, 5.976277
3444.243, 9.257139
3446.172, 5.383038
3448.100, 1.725729
3450.029, 4.284748
3451.957, 4.706847
3453.885, 1.347987
3455.814, 3.948733
3457.742, 9.338995
3459.671, 11.55899
3461.599, 6.764049
3463.528, 6.869886
3465.456, 6.124477
3467.385, 5.840296
3469.313, 6.435085
3471.242, 5.070814
3473.170, 5.974413
3475.099, 8.336839
3477.027, 5.900062
3478.956, 7.625534
3480.884, 3.770593
3482.813, 8.176450
3484.741, 6.330659
3486.669, 6.078891
3488.598, 7.698968
3490.526, 6.876072
3492.455, 5.503753
3494.383, 4.488436
3496.312, 3.475038
3498.240, 2.608614
3500.169, 2.708533
3502.097, 6.067331
3504.026, 7.505517
3505.954, 5.779639
3507.883, 3.335263
3509.811, 2.853622
3511.740, 2.788322
3513.668, 3.129587
3515.596, 5.014034
3517.525, 4.940234
3519.453, 7.657094
3521.382, 7.193743
3523.310, 8.503859
3525.239, 5.029993
3527.167, 5.532404
3529.096, 6.806475
3531.024, 5.673405
3532.953, 6.703858
3534.881, 5.772090
3536.810, 3.269340
3538.738, 4.952842
3540.667, 7.379302
3542.595, 3.172058
3544.523, 4.561320
3546.452, 6.205423
3548.380, 4.579642
3550.309, 4.213618
3552.237, 6.657564
3554.166, 6.394196
3556.094, 4.229568
3558.023, 5.327759
3559.951, 5.983623
3561.880, 4.527144
3563.808, 2.917823
3565.737, 6.690466
3567.665, 6.724772
3569.594, 5.272417
3571.522, 4.835711
3573.450, 3.872589
3575.379, -0.2251622
3577.307, -0.4662738
3579.236, 5.902003
3581.164, 6.868632
3583.093, 4.532973
3585.021, 3.969372
3586.950, 5.457537
3588.878, 2.639719
3590.807, 4.232669
3592.735, 3.434365
3594.664, 1.721443
3596.592, 2.699827
3598.521, 5.357306
3600.449, 4.055451
3602.377, 3.080014
3604.306, 0.9853848
3606.234, -0.1341332
3608.163, 1.103267
3610.091, -1.680124
3612.020, 1.302643
3613.948, 1.852588
3615.877, 2.198697
3617.805, 2.955754
3619.734, 2.902286
3621.662, 2.049383
3623.591, 2.386932
3625.519, 2.038300
3627.448, 2.204673
3629.376, 0.7910338
3631.304, 0.9718782
3633.233, 1.585526
3635.161, 1.880108
3637.090, 3.146504
3639.018, 4.643507
3640.947, 4.815774
3642.875, 2.317548
3644.804, 0.6192541
3646.732, 2.552490
3648.661, 2.290403
3650.589, 1.562341
3652.518, 0.8474151
3654.446, 0.8823481
3656.375, 0.2747665
3658.303, 0.4917527
3660.231, 0.1156000
3662.160, 1.734813
3664.088, 2.814144
3666.017, 2.915915
3667.945, 3.340124
3669.874, 3.705946
3671.802, -0.2295351
3673.731, 1.000521
3675.659, 1.310764
3677.588, 1.437524
3679.516, 3.428310
3681.445, -1.159963
3683.373, -1.980982
3685.302, 0.1230584
3687.230, 1.159842
3689.158, 0.7580829
3691.087, 0.7543086
3693.015, 2.654830
3694.944, 2.494088
3696.872, 1.121259
3698.801, 0.1127650
3700.729, 0.4766450
3702.658, 0.9197783
3704.586, 1.457793
3706.515, 4.916788
3708.443, 1.181368
3710.372, 2.178749
3712.300, 5.297894
3714.229, 2.775030
3716.157, -3.8838651E-02
3718.085, 4.117369
3720.014, 1.007760
3721.942, 0.2634700
3723.871, 3.313896
3725.799, -1.303578
3727.728, -3.627081
3729.656, -0.5968592
3731.585, -0.5481570
3733.513, -0.9589130
3735.442, -1.748046
3737.370, -3.665560
3739.299, -1.928233
3741.227, -2.813923
3743.156, 2.072952
3745.084, -1.453947
3747.012, -2.305975
3748.941, 0.2480903
3750.869, -1.661189
3752.798, -2.679071
3754.726, -0.2332059
3756.655, 2.805760
3758.583, 2.780956
3760.512, 0.9911045
3762.440, -1.626979
3764.369, -1.544191
3766.297, -2.958287
3768.226, -3.268155
3770.154, -1.168657
3772.083, 0.9896215
3774.011, 1.034224
3775.939, 2.740206
3777.868, 0.6398188
3779.796, -1.614370
3781.725, -1.562722
3783.653, -0.2724428
3785.582, 0.5213125
3787.510, 0.5117881
3789.439, -0.4362803
3791.367, -0.1459700
3793.296, -0.6543759
3795.224, -0.9543408
3797.153, -1.329422
3799.081, -1.476094
3801.010, -1.929297
3802.938, -2.221381
3804.866, 2.066979
3806.795, -1.512908
3808.723, 0.7201021
3810.652, 0.9989984
3812.580, -1.905144
3814.509, -3.061849
3816.437, -0.7394298
3818.366, 3.126850
3820.294, -0.2318848
3822.223, -0.5309874
3824.151, -1.496840
3826.080, -1.826608
3828.008, -2.091768
3829.937, -2.350901
3831.865, 0.4216586
3833.793, -2.051051
3835.722, 1.805448
3837.650, -2.487573
3839.579, -2.765347
3841.507, -1.996561
3843.436, -2.110613
3845.364, -0.8355258
3847.293, 0.6834976
3849.221, -2.753875
3851.150, -24.47172
3853.078, -5.872904
3855.007, -12.03368
3856.935, 16.39317
3858.864, -2.593306
3860.792, -2.029193
3862.720, 2.717103
3864.649, -0.8216818
3866.577, 0.2668305
3868.506, 0.6654802
3870.434, -0.4561407
3872.363, 0.9743425
3874.291, 1.792416
3876.220, 1.370151
3878.148, 0.7070395
3880.077, -2.660011
3882.005, -2.541953
3883.934, -2.902004
3885.862, -3.400187
3887.791, -1.706933
3889.719, 1.298548
3891.647, 2.923110
3893.576, 1.693529
3895.504, -2.072321
3897.433, 1.152644
3899.361, -6.674012
3901.290, 3.608718
3903.218, 1.527300
3905.147, -2.122772
3907.075, 0.6401262
3909.004, 0.9501022
3910.932, -1.989618
3912.861, -0.3328021
3914.789, 1.478209
3916.718, -1.546310
3918.646, 1.022730
3920.574, 2.188361
3922.503, -1.063778
3924.431, -1.393136
3926.360, 3.118723
3928.288, 3.181150
3930.217, 2.640805
3932.145, -4.377090
3934.074, -0.1268607
3936.002, -3.819388
3937.931, -6.145966
3939.859, -2.337744
3941.788, -0.5152472
3943.716, -1.041644
3945.645, -0.6441938
3947.573, 0.8170723
3949.501, 1.095556
3951.430, -0.4767900
3953.358, -2.528558
3955.287, -1.620102
3957.215, -4.128378
3959.144, -1.538565
3961.072, 0.4230715
3963.001, -1.065567
3964.929, -1.039476
3966.858, -0.2519017
3968.786, -2.844501
3970.715, -1.284605
3972.643, -0.7004306
3974.572, 1.226634
3976.500, -1.820781
3978.428, -0.7200373
3980.357, 0.5611904
3982.285, -2.829439
3984.214, -3.286613
3986.142, -1.676304
3988.071, -2.092575
3989.999, -0.6899547
3991.928, -1.166925
3993.856, -1.742790
3995.785, -2.226447
3997.713, -2.353870
3999.642, -1.742718
4001.570, -2.420783
4003.499, -0.1788151
4005.427, 0.1371863
4007.355, -0.6106101
4009.284, -0.7654464
4011.212, -0.4143045
4013.141, 2.325585
4015.069, 1.806288
4016.998, 3.231161
4018.926, -0.4758784
4020.855, 0.4236094
4022.783, -1.027694
4024.712, -3.933843
4026.640, -4.240827
4028.569, -4.816524
4030.497, -2.799352
4032.426, 2.594112
4034.354, -0.5232403
4036.282, -0.5456768
4038.211, 0.2601804
4040.139, -4.407865
4042.068, -2.524643
4043.996, -1.844076
4045.925, -1.697802
4047.853, -2.301132
4049.782, -4.261213
4051.710, -4.109420
4053.639, -4.843995
4055.567, -5.333439
4057.496, -4.845065
4059.424, -4.986634
4061.353, -3.908679
4063.281, -2.051628
4065.209, -2.322331
4067.138, -3.223192
4069.066, -1.372250
4070.995, -1.5777420E-02
4072.923, 9.7837664E-02
4074.852, 1.178435
4076.780, 0.7656190
4078.709, 0.3411247
4080.637, -0.6734324
4082.566, -4.808951
4084.494, -7.153833
4086.423, -1.564910
4088.351, -0.4755977
4090.280, -4.456531
4092.208, -4.063865
4094.136, -3.118441
4096.065, 0.1856748
4097.994, -2.295419
4099.922, -2.634485
4101.851, -2.388834
4103.779, -1.693177
4105.708, -0.2088534
4107.636, -3.339601
4109.564, -7.791790
4111.493, -2.910793
4113.421, -1.417557
4115.350, -6.093017
4117.278, -2.464010
4119.207, 0.5626692
4121.135, -2.607621
4123.063, -1.648738
4124.992, -2.045946
4126.920, 0.6593635
4128.849, -1.647491
4130.777, -1.471037
4132.706, -1.2107090E-02
4134.634, -1.921004
4136.563, -2.133003
4138.491, 1.063372
4140.420, 1.492175
4142.348, -1.368089
4144.277, -1.603557
4146.205, 2.216799
4148.134, -1.576313
4150.062, 0.2831370
4151.991, -6.068218
4153.919, -4.244652
4155.848, -0.9365479
4157.776, 1.084956
4159.705, 5.4965150E-02
4161.633, -0.4052808
4163.562, -1.633932
4165.490, -2.857996
4167.418, -0.9438296
4169.347, -0.7115764
4171.275, -1.238896
4173.204, -0.6154363
4175.132, -4.055230
4177.061, -1.713148
4178.989, -1.4445760E-02
4180.917, -1.868207
4182.846, 1.098196
4184.774, -0.3312300
4186.703, -2.214315
4188.631, -3.146303
4190.560, -2.020418
4192.488, -3.103220
4194.417, -1.416014
4196.345, 2.3748079E-02
4198.274, -0.9578527
4200.202, -3.204683
4202.131, -2.709762
4204.059, -1.907640
4205.988, -4.596729
4207.916, -0.7947990
4209.845, 1.731048
4211.773, -2.265405
4213.702, -0.1845186
4215.630, -0.6180655
4217.559, 0.4026009
4219.487, 1.524376
4221.416, -2.482580
4223.344, -2.065570
4225.272, -2.144832
4227.201, -0.2190161
4229.129, -1.194299
4231.058, -1.312780
4232.986, -0.3203539
4234.915, -4.246439
4236.843, -4.637532
4238.771, -4.803575
4240.700, 1.986860
4242.628, 1.968628
4244.557, -0.7765316
4246.485, -2.856982
4248.414, -4.857851
4250.342, -5.585619
4252.271, -5.546120
4254.199, -5.508065
4256.128, -4.963931
4258.056, -3.378838
4259.985, -2.581210
4261.913, -2.440715
4263.842, -0.5006872
4265.770, -1.350343
4267.699, -1.692363
4269.627, 1.184263
4271.556, -1.360968
4273.484, -5.394445
4275.413, -1.872758
4277.341, -1.863750
4279.270, -8.219228
4281.198, -2.796788
4283.126, -5.629058
4285.055, -4.725233
4286.983, -1.515783
4288.912, -2.134338
4290.840, -0.6089275
4292.769, -1.6234886E-02
4294.697, 0.6921299
4296.625, -1.288441
4298.554, -0.9198911
4300.482, -5.399279
4302.411, -5.819325
4304.339, -7.084994
4306.268, -5.371764
4308.196, -3.904890
4310.125, -0.9310526
4312.053, -3.969459
4313.982, -3.630465
4315.910, -1.686855
4317.839, -1.458027
4319.767, -0.9321731
4321.696, -1.920266
4323.624, -0.7839721
4325.553, -2.359293
4327.481, -3.178262
4329.410, -3.730360
4331.338, -3.415182
4333.267, -1.562365
4335.195, -3.317547
4337.124, -3.850504
4339.052, -5.738591
4340.980, -5.941335
4342.909, -2.443367
4344.837, -4.623689
4346.766, -4.463569
4348.694, -1.565019
4350.623, -1.899111
4352.551, -2.589057
4354.479, -3.355119
4356.408, -2.878404
4358.336, 1.306444
4360.265, -1.391404
4362.193, 1.608693
4364.122, 3.703855
4366.050, 0.3288101
4367.979, 2.414858
4369.907, 5.186881
4371.836, 5.242950
4373.764, 7.992394
4375.693, 4.731772
4377.621, 6.835238
##END=



