##NAMES=Ilmenite
##RRUFFID=R130214
##IDEAL CHEMISTRY=Fe^2+^Ti^4+^O_3_
##LOCALITY=Mont St-Hilaire, Quebec, Canada
##OWNER=RRUFF
##SOURCE=Don Doell
##DESCRIPTION=Black lustrous tabular crystals
##STATUS=The identification of this mineral has been confirmed only by single crystal X-ray diffraction
##URL=https://www.rruff.net/odr/rruff_sample/R130214
##DIFFRACTION SAMPLE DESCRIPTION=Single crystal, powder profile is calculated
##CELL PARAMETERS=a: 5.127 b: 5.127 c: 14.105 alpha: 90 beta: 90 gamma: 120 volume: 321.13 crystal system: hexagonal
##FILETYPE=Raman Processed
##RAMAN WAVELENGTH=780

85.98242, 510.7988
87.91089, 566.6940
89.83936, 624.5213
91.76782, 678.6046
93.69629, 698.8590
95.62476, 675.5334
97.55322, 652.9728
99.48169, 633.0652
101.4102, 616.7611
103.3386, 603.1144
105.2671, 591.1293
107.1956, 578.0515
109.1240, 567.6500
111.0525, 560.4584
112.9810, 555.5254
114.9094, 551.2977
116.8379, 547.3591
118.7664, 545.5912
120.6948, 547.3702
122.6233, 549.3376
124.5518, 550.0714
126.4802, 550.6818
128.4087, 552.6129
130.3372, 555.7745
132.2656, 558.5118
134.1941, 559.8851
136.1226, 561.6787
138.0510, 564.2705
139.9795, 567.4646
141.9080, 570.9504
143.8364, 574.7367
145.7649, 579.2872
147.6934, 584.6534
149.6218, 590.7844
151.5503, 597.7821
153.4788, 605.4788
155.4072, 614.4407
157.3357, 624.3115
159.2642, 631.8596
161.1926, 637.4744
163.1211, 639.9014
165.0496, 637.4679
166.9780, 633.2517
168.9065, 627.5306
170.8350, 621.5110
172.7634, 619.7845
174.6919, 623.2637
176.6204, 629.9921
178.5488, 639.3364
180.4773, 652.7897
182.4058, 672.2070
184.3342, 695.6823
186.2627, 720.8191
188.1912, 748.6628
190.1196, 774.2978
192.0481, 798.0670
193.9766, 819.2363
195.9050, 835.6528
197.8335, 850.5417
199.7620, 865.8644
201.6904, 881.6196
203.6189, 901.3975
205.5474, 924.5156
207.4758, 952.5921
209.4043, 988.4612
211.3328, 1027.199
213.2612, 1067.509
215.1897, 1108.221
217.1182, 1147.049
219.0466, 1186.681
220.9751, 1209.773
222.9036, 1216.015
224.8320, 1199.881
226.7605, 1156.251
228.6890, 1093.810
230.6174, 1019.145
232.5459, 932.4086
234.4744, 854.3082
236.4028, 785.0099
238.3313, 726.1716
240.2598, 680.7336
242.1882, 643.6242
244.1167, 612.8297
246.0452, 588.3235
247.9736, 570.3994
249.9021, 559.0853
251.8306, 549.0546
253.7590, 539.6341
255.6875, 530.7971
257.6160, 522.2905
259.5444, 514.4755
261.4729, 507.9615
263.4014, 502.6152
265.3298, 497.8218
267.2583, 493.7601
269.1868, 489.6054
271.1152, 484.7147
273.0437, 480.2457
274.9722, 476.5428
276.9006, 473.7539
278.8291, 472.3288
280.7576, 472.1251
282.6860, 471.7108
284.6145, 469.9826
286.5430, 469.8574
288.4714, 472.8248
290.3999, 476.5864
292.3284, 479.4096
294.2568, 481.9474
296.1853, 485.5720
298.1138, 490.4300
300.0422, 494.9662
301.9707, 498.4061
303.8992, 502.2762
305.8276, 506.9891
307.7561, 512.1522
309.6846, 517.2511
311.6130, 522.6027
313.5415, 529.0820
315.4700, 536.9820
317.3984, 544.9659
319.3269, 552.3826
321.2554, 560.6059
323.1838, 571.1663
325.1123, 581.6025
327.0408, 589.9255
328.9692, 596.5393
330.8977, 602.7191
332.8262, 609.1642
334.7546, 613.2314
336.6831, 613.8101
338.6116, 613.8181
340.5400, 613.3723
342.4685, 613.3279
344.3970, 613.6574
346.3254, 614.8644
348.2539, 618.7018
350.1824, 625.5250
352.1108, 634.1706
354.0393, 644.6261
355.9678, 656.8063
357.8962, 672.8163
359.8247, 688.1261
361.7532, 702.5762
363.6816, 713.4499
365.6101, 714.4710
367.5386, 705.1810
369.4670, 685.1706
371.3955, 651.1269
373.3240, 615.8802
375.2524, 579.9327
377.1809, 547.8124
379.1094, 522.0840
381.0378, 501.3021
382.9663, 483.4515
384.8948, 468.6382
386.8232, 456.9507
388.7517, 448.4772
390.6802, 442.3314
392.6086, 439.4511
394.5371, 436.9831
396.4656, 433.3712
398.3940, 429.7972
400.3225, 427.4138
402.2510, 426.0967
404.1794, 425.3261
406.1079, 425.0853
408.0364, 425.2274
409.9648, 425.9937
411.8933, 426.4565
413.8218, 425.6869
415.7502, 425.2053
417.6787, 426.2691
419.6072, 428.0141
421.5356, 428.9938
423.4641, 429.2785
425.3926, 429.1509
427.3210, 428.5273
429.2495, 428.0699
431.1780, 428.0844
433.1064, 428.0754
435.0349, 427.7743
436.9634, 427.5184
438.8918, 427.9694
440.8203, 428.5602
442.7488, 427.8392
444.6772, 425.9450
446.6057, 424.6199
448.5342, 424.3528
450.4626, 423.7744
452.3911, 422.5450
454.3196, 421.0941
456.2480, 419.3253
458.1765, 417.6333
460.1050, 416.7414
462.0334, 416.1284
463.9619, 414.5740
465.8904, 412.0319
467.8188, 409.8082
469.7473, 408.1141
471.6758, 406.5708
473.6042, 405.1710
475.5327, 403.8177
477.4612, 402.3778
479.3896, 401.0260
481.3181, 400.0200
483.2466, 399.1907
485.1750, 398.1430
487.1035, 396.8333
489.0320, 395.8301
490.9604, 395.3773
492.8889, 394.8782
494.8174, 393.9414
496.7458, 393.4691
498.6743, 394.2472
500.6028, 395.1336
502.5313, 395.1190
504.4597, 394.7356
506.3882, 395.0222
508.3167, 395.9819
510.2451, 396.3809
512.1736, 395.7740
514.1021, 395.7244
516.0305, 396.4291
517.9590, 397.2817
519.8875, 398.1212
521.8159, 399.0139
523.7444, 400.0383
525.6729, 401.1113
527.6013, 401.9431
529.5298, 402.7607
531.4583, 404.5364
533.3867, 407.4464
535.3152, 410.2332
537.2437, 412.8794
539.1721, 415.5201
541.1006, 418.3989
543.0291, 420.7782
544.9575, 421.6451
546.8860, 422.6144
548.8145, 424.7053
550.7429, 427.4734
552.6714, 430.3323
554.5999, 433.2918
556.5283, 436.4162
558.4568, 439.7039
560.3853, 443.2354
562.3137, 447.1174
564.2422, 450.8132
566.1707, 453.8766
568.0991, 457.3242
570.0276, 461.2706
571.9561, 465.9745
573.8845, 472.3475
575.8130, 479.0850
577.7415, 483.9037
579.6699, 487.5046
581.5984, 492.4193
583.5269, 498.5922
585.4553, 505.5092
587.3838, 513.2629
589.3123, 520.9863
591.2407, 528.3748
593.1692, 535.9486
595.0977, 543.7417
597.0261, 551.8884
598.9546, 559.9947
600.8831, 568.9254
602.8115, 579.2208
604.7400, 591.2299
606.6685, 605.8004
608.5969, 622.5338
610.5254, 639.1061
612.4539, 655.0350
614.3823, 673.8527
616.3108, 696.5508
618.2393, 721.0754
620.1677, 746.0620
622.0962, 774.3083
624.0247, 806.5388
625.9531, 842.4926
627.8816, 880.3715
629.8101, 923.3948
631.7385, 975.7031
633.6670, 1035.255
635.5955, 1097.884
637.5239, 1163.745
639.4524, 1236.605
641.3809, 1317.459
643.3093, 1401.552
645.2378, 1489.379
647.1663, 1579.418
649.0947, 1671.548
651.0232, 1766.085
652.9517, 1863.891
654.8801, 1962.785
656.8086, 2062.639
658.7371, 2161.651
660.6655, 2260.073
662.5940, 2355.653
664.5225, 2446.521
666.4509, 2531.392
668.3794, 2605.080
670.3079, 2668.926
672.2363, 2709.048
674.1648, 2726.333
676.0933, 2718.638
678.0217, 2684.255
679.9502, 2628.867
681.8787, 2550.429
683.8071, 2457.825
685.7356, 2349.649
687.6641, 2235.284
689.5925, 2116.309
691.5210, 1997.886
693.4495, 1882.774
695.3779, 1772.633
697.3064, 1670.627
699.2349, 1576.250
701.1633, 1487.690
703.0918, 1405.196
705.0203, 1330.127
706.9487, 1262.607
708.8772, 1201.385
710.8057, 1146.750
712.7341, 1096.281
714.6626, 1049.480
716.5911, 1006.684
718.5195, 968.7892
720.4480, 933.7656
722.3765, 901.1161
724.3049, 870.7995
726.2334, 843.4052
728.1619, 817.7130
730.0903, 792.1696
732.0188, 767.5789
733.9473, 745.4655
735.8757, 725.5422
737.8042, 707.0273
739.7327, 689.8245
741.6611, 673.3943
743.5896, 657.7053
745.5181, 642.4705
747.4465, 627.4941
749.3750, 613.7963
751.3035, 601.8939
753.2319, 590.4496
755.1604, 579.4103
757.0889, 568.5296
759.0173, 557.2733
760.9458, 546.8502
762.8743, 538.2323
764.8027, 530.1791
766.7312, 521.6042
768.6597, 513.4163
770.5881, 506.6532
772.5166, 500.7677
774.4451, 495.2896
776.3735, 489.9414
778.3020, 483.8636
780.2305, 477.3172
782.1589, 471.8037
784.0874, 467.3508
786.0159, 463.6456
787.9443, 461.2046
789.8728, 457.5904
791.8013, 451.2944
793.7297, 446.9673
795.6582, 445.8712
797.5867, 444.2655
799.5151, 441.3351
801.4436, 438.5252
803.3721, 436.0435
805.3005, 434.0391
807.2290, 433.0400
809.1575, 431.7383
811.0859, 429.1401
813.0144, 426.1977
814.9429, 423.4330
816.8713, 420.8486
818.7998, 418.5670
820.7283, 416.4074
822.6567, 413.8770
824.5852, 411.3871
826.5137, 410.1181
828.4421, 409.6444
830.3706, 408.2991
832.2991, 406.1305
834.2275, 403.4748
836.1560, 400.3056
838.0845, 398.7050
840.0129, 398.8423
841.9414, 397.3390
843.8699, 393.7656
845.7983, 390.9952
847.7268, 389.5475
849.6553, 387.8830
851.5837, 385.5512
853.5122, 383.5596
855.4407, 382.4363
857.3691, 380.9422
859.2976, 378.4744
861.2261, 375.9470
863.1545, 373.5009
865.0830, 371.2933
867.0115, 369.8165
868.9399, 368.0272
870.8684, 364.8399
872.7969, 361.7162
874.7253, 360.0190
876.6538, 358.6010
878.5823, 356.4423
880.5107, 353.9034
882.4392, 351.1403
884.3677, 348.5051
886.2961, 346.8051
888.2246, 345.4424
890.1531, 343.1044
892.0815, 340.3275
894.0100, 338.4277
895.9385, 337.0287
897.8669, 334.9212
899.7954, 332.2663
901.7239, 329.7648
903.6523, 327.5056
905.5808, 326.2993
907.5093, 326.1617
909.4377, 325.1937
911.3662, 323.2409
913.2947, 321.2730
915.2231, 319.2142
917.1516, 317.6743
919.0801, 316.7728
921.0085, 316.1414
922.9370, 316.5439
924.8655, 315.6422
926.7939, 312.2113
928.7224, 309.9366
930.6509, 309.4546
932.5793, 309.2896
934.5078, 309.8034
936.4363, 309.3458
938.3647, 306.8700
940.2932, 305.0915
942.2217, 305.0835
944.1501, 304.9308
946.0786, 303.8766
948.0071, 302.9449
949.9355, 302.6553
951.8640, 302.2554
953.7925, 301.4035
955.7209, 300.4575
957.6494, 299.7934
959.5779, 298.7148
961.5063, 296.2208
963.4348, 294.2452
965.3633, 294.1353
967.2917, 294.4460
969.2202, 294.9053
971.1487, 294.8354
973.0771, 293.6183
975.0056, 291.9452
976.9341, 289.6608
978.8625, 287.8607
980.7910, 287.5940
982.7195, 287.9180
984.6479, 288.5171
986.5764, 288.8023
988.5049, 288.0789
990.4333, 286.9537
992.3618, 285.9416
994.2903, 284.9239
996.2188, 283.6272
998.1472, 282.4296
1000.076, 281.9520
1002.004, 281.6254
1003.933, 280.7412
1005.861, 279.6706
1007.790, 278.7149
1009.718, 277.9763
1011.646, 277.6336
1013.575, 277.5197
1015.503, 277.7824
1017.432, 277.8007
1019.360, 276.4297
1021.289, 274.6088
1023.217, 273.6465
1025.146, 273.0056
1027.074, 271.7939
1029.003, 270.6181
1030.931, 270.4786
1032.860, 270.7217
1034.788, 270.5489
1036.717, 270.1291
1038.645, 269.0909
1040.573, 268.4479
1042.502, 270.8044
1044.430, 273.1681
1046.359, 271.0374
1048.287, 267.3304
1050.216, 265.3845
1052.144, 264.3635
1054.073, 263.3224
1056.001, 262.5449
1057.930, 262.6442
1059.858, 262.9527
1061.787, 262.8098
1063.715, 262.2895
1065.644, 261.0013
1067.572, 259.8282
1069.500, 260.1566
1071.429, 260.6263
1073.357, 259.3015
1075.286, 257.9998
1077.214, 259.1803
1079.143, 260.4948
1081.071, 259.6806
1083.000, 258.1756
1084.928, 256.9592
1086.857, 255.9199
1088.785, 255.0202
1090.714, 254.1811
1092.642, 253.2725
1094.571, 252.4718
1096.499, 251.8974
1098.427, 251.4509
1100.356, 251.0052
1102.284, 250.7457
1104.213, 251.1118
1106.141, 251.1990
1108.070, 250.0634
1109.998, 249.2823
1111.927, 250.3665
1113.855, 250.6736
1115.784, 248.3815
1117.712, 246.5135
1119.641, 246.2263
1121.569, 246.1740
1123.498, 246.2981
1125.426, 245.9760
1127.354, 244.6016
1129.283, 243.7771
1131.211, 244.1728
1133.140, 244.2640
1135.068, 243.5581
1136.997, 243.1765
1138.925, 243.4190
1140.854, 243.5165
1142.782, 243.3140
1144.711, 243.2575
1146.639, 243.4409
1148.568, 243.5810
1150.496, 243.7207
1152.425, 243.1985
1154.353, 241.9057
1156.281, 241.1237
1158.210, 240.9032
1160.138, 241.4071
1162.067, 242.5773
1163.995, 243.8761
1165.924, 245.1265
1167.852, 245.1170
1169.781, 244.0770
1171.709, 242.8505
1173.638, 241.6131
1175.566, 240.8378
1177.495, 240.4529
1179.423, 240.4580
1181.352, 240.5886
1183.280, 240.4478
1185.208, 240.1200
1187.137, 239.5774
1189.065, 239.0233
1190.994, 238.5449
1192.922, 238.2725
1194.851, 238.4889
1196.779, 238.6747
1198.708, 238.4442
1200.636, 238.2657
1202.565, 238.3843
1204.493, 238.5952
1206.422, 238.7642
1208.350, 239.1486
1210.279, 239.8997
1212.207, 240.5501
1214.135, 241.0111
1216.064, 241.1023
1217.992, 240.6989
1219.921, 240.7511
1221.849, 241.4456
1223.778, 241.6777
1225.706, 241.3817
1227.635, 241.5361
1229.563, 242.1318
1231.492, 242.3072
1233.420, 242.2608
1235.349, 243.4714
1237.277, 245.2988
1239.206, 245.7831
1241.134, 245.5374
1243.063, 245.5612
1244.991, 245.8581
1246.919, 246.6871
1248.848, 247.4913
1250.776, 247.3624
1252.705, 247.4384
1254.633, 248.8985
1256.562, 250.3339
1258.490, 250.9798
1260.419, 251.4507
1262.347, 251.7504
1264.276, 252.2996
1266.204, 253.4619
1268.133, 254.2524
1270.061, 254.4000
1271.990, 254.7730
1273.918, 255.4361
1275.846, 256.2208
1277.775, 257.1219
1279.703, 258.5636
1281.632, 260.3748
1283.560, 261.2969
1285.489, 261.5961
1287.417, 261.8910
1289.346, 262.3647
1291.274, 263.3924
1293.203, 264.7112
1295.131, 266.3907
1297.060, 267.7119
1298.988, 267.7570
1300.917, 267.9247
1302.845, 269.0332
1304.773, 270.3045
1306.702, 271.6828
1308.630, 272.5334
1310.559, 272.4782
1312.487, 272.8452
1314.416, 273.8733
1316.344, 275.1316
1318.273, 276.6573
1320.201, 276.8952
1322.130, 276.1557
1324.058, 277.0670
1325.987, 279.0670
1327.915, 280.8410
1329.844, 282.2739
1331.772, 282.9147
1333.700, 283.4430
1335.629, 284.9296
1337.557, 286.0128
1339.486, 285.4371
1341.414, 285.0009
1343.343, 285.3527
1345.271, 285.7280
1347.200, 285.9491
1349.128, 286.2885
1351.057, 286.7989
1352.985, 287.0126
1354.914, 286.8957
1356.842, 286.4001
1358.771, 285.7036
1360.699, 285.6514
1362.627, 285.7671
1364.556, 284.8458
1366.484, 283.8627
1368.413, 284.1689
1370.341, 284.6124
1372.270, 284.6808
1374.198, 284.0806
1376.127, 281.8884
1378.055, 280.5629
1379.984, 281.0731
1381.912, 280.9038
1383.841, 279.7567
1385.769, 278.8902
1387.698, 278.3531
1389.626, 278.2924
1391.554, 278.4304
1393.483, 277.9873
1395.411, 277.0503
1397.340, 275.5213
1399.268, 273.9200
1401.197, 272.3090
1403.125, 271.4161
1405.054, 272.0698
1406.982, 272.5892
1408.911, 272.6457
1410.839, 272.0835
1412.768, 270.5458
1414.696, 269.8120
1416.625, 269.8585
1418.553, 269.7714
1420.481, 269.5276
1422.410, 269.0536
1424.338, 268.4047
1426.267, 267.5682
1428.195, 266.7625
1430.124, 266.2950
1432.052, 265.6630
1433.981, 264.7270
1435.909, 263.3106
1437.838, 261.1765
1439.766, 260.0670
1441.695, 260.1957
1443.623, 260.4243
1445.552, 260.5088
1447.480, 259.1089
1449.408, 257.1006
1451.337, 256.2326
1453.265, 255.6523
1455.194, 254.2716
1457.122, 253.2532
1459.051, 253.6054
1460.979, 253.4175
1462.908, 252.2843
1464.836, 250.7407
1466.765, 248.8744
1468.693, 246.7934
1470.622, 244.7135
1472.550, 243.7169
1474.479, 243.0635
1476.407, 241.3444
1478.335, 239.4534
1480.264, 238.0552
1482.192, 237.0056
1484.121, 236.7141
1486.049, 235.7243
1487.978, 233.6149
1489.906, 231.6676
1491.835, 229.9628
1493.763, 228.9715
1495.692, 228.3099
1497.620, 226.4297
1499.549, 224.5308
1501.477, 224.6582
1503.406, 224.4464
1505.334, 221.7796
1507.262, 219.5230
1509.191, 218.9053
1511.119, 217.9702
1513.048, 216.5619
1514.976, 215.1710
1516.905, 213.8239
1518.833, 212.6381
1520.762, 211.5806
1522.690, 210.6560
1524.619, 209.7094
1526.547, 208.4765
1528.476, 207.5734
1530.404, 207.2985
1532.333, 207.0609
1534.261, 206.8029
1536.189, 206.2757
1538.118, 205.5092
1540.046, 204.4756
1541.975, 203.4499
1543.903, 202.8596
1545.832, 202.5277
1547.760, 202.3680
1549.689, 202.4113
1551.617, 202.8435
1553.546, 202.1948
1555.474, 200.3083
1557.403, 199.1293
1559.331, 198.5348
1561.260, 197.7919
1563.188, 197.1877
1565.116, 197.4823
1567.045, 197.4656
1568.973, 196.0124
1570.902, 194.8965
1572.830, 194.3654
1574.759, 194.7410
1576.687, 195.7669
1578.616, 195.3562
1580.544, 194.0495
1582.473, 192.7512
1584.401, 191.6832
1586.330, 190.9999
1588.258, 190.7234
1590.187, 191.3682
1592.115, 191.1335
1594.043, 189.8496
1595.972, 189.0573
1597.900, 188.6062
1599.829, 187.7713
1601.757, 186.9791
1603.686, 186.7201
1605.614, 186.6518
1607.543, 187.1648
1609.471, 186.5186
1611.400, 183.8558
1613.328, 183.0936
1615.257, 183.7850
1617.185, 183.2195
1619.114, 182.0853
1621.042, 181.0934
1622.970, 180.3499
1624.899, 179.9542
1626.827, 179.6588
1628.756, 179.4110
1630.684, 179.2936
1632.613, 179.2238
1634.541, 178.4220
1636.470, 177.5536
1638.398, 177.9266
1640.327, 178.1579
1642.255, 177.5229
1644.184, 176.7818
1646.112, 176.0708
1648.041, 175.8516
1649.969, 175.9251
1651.897, 175.1849
1653.826, 174.1217
1655.754, 173.1965
1657.683, 172.6158
1659.611, 172.6073
1661.540, 172.4291
1663.468, 171.9727
1665.397, 170.9826
1667.325, 169.7760
1669.254, 169.4444
1671.182, 169.3396
1673.111, 168.5405
1675.039, 168.1675
1676.968, 168.9220
1678.896, 168.6761
1680.824, 167.3851
1682.753, 167.4149
1684.681, 167.9450
1686.610, 166.9119
1688.538, 165.9552
1690.467, 166.6195
1692.395, 167.1266
1694.324, 167.1645
1696.252, 166.6196
1698.181, 165.6275
1700.109, 164.7822
1702.038, 164.1864
1703.966, 164.1258
1705.895, 163.9953
1707.823, 163.3782
1709.751, 162.9986
1711.680, 162.9394
1713.608, 162.7213
1715.537, 162.3368
1717.465, 161.5302
1719.394, 160.8949
1721.322, 160.8077
1723.251, 161.0153
1725.179, 161.6016
1727.108, 161.3018
1729.036, 160.2901
1730.965, 159.0228
1732.893, 158.1649
1734.822, 158.8279
1736.750, 158.9226
1738.678, 157.6701
1740.607, 156.9894
1742.535, 156.9452
1744.464, 156.2330
1746.392, 155.5782
1748.321, 156.4696
1750.249, 156.9444
1752.178, 156.1693
1754.106, 155.4914
1756.035, 154.9968
1757.963, 153.4023
1759.892, 151.7513
1761.820, 152.2578
1763.749, 152.8233
1765.677, 152.3491
1767.605, 151.6176
1769.534, 150.7472
1771.462, 150.0256
1773.391, 149.5938
1775.319, 150.0747
1777.248, 150.2802
1779.176, 149.1659
1781.105, 148.2584
1783.033, 147.7153
1784.962, 147.3755
1786.890, 147.1176
1788.819, 146.6926
1790.747, 146.2857
1792.676, 145.8681
1794.604, 145.9348
1796.532, 146.5851
1798.461, 146.2896
1800.389, 145.3640
1802.318, 144.2665
1804.246, 143.2870
1806.175, 142.5379
1808.103, 142.1796
1810.032, 142.2449
1811.960, 141.8968
1813.889, 141.2926
1815.817, 140.5736
1817.746, 139.9786
1819.674, 139.5955
1821.603, 139.4986
1823.531, 139.6218
1825.459, 138.9932
1827.388, 138.0230
1829.316, 137.2051
1831.245, 136.5388
1833.173, 136.0622
1835.102, 135.5059
1837.030, 134.9418
1838.959, 135.0572
1840.887, 135.1461
1842.816, 134.0674
1844.744, 133.5238
1846.673, 133.9103
1848.601, 133.8369
1850.530, 133.2283
1852.458, 131.7264
1854.386, 130.5968
1856.315, 131.2027
1858.243, 131.4930
1860.172, 131.2141
1862.100, 130.2614
1864.029, 129.0736
1865.957, 128.2595
1867.886, 127.6972
1869.814, 127.3796
1871.743, 127.1245
1873.671, 126.9006
1875.600, 126.7190
1877.528, 126.3604
1879.457, 125.6183
1881.385, 124.5056
1883.313, 122.8369
1885.242, 122.7354
1887.170, 123.5383
1889.099, 123.7869
1891.027, 123.6997
1892.956, 123.3722
1894.884, 122.6858
1896.813, 121.6925
1898.741, 121.1116
1900.670, 120.8886
1902.598, 121.1166
1904.527, 121.1685
1906.455, 120.8343
1908.384, 120.3350
1910.312, 119.7390
1912.240, 119.0701
1914.169, 118.6786
1916.097, 118.8673
1918.026, 118.5245
1919.954, 117.6383
1921.883, 117.0219
1923.811, 116.5945
1925.740, 116.3751
1927.668, 115.9335
1929.597, 115.1968
1931.525, 115.3271
1933.454, 115.8179
1935.382, 115.8899
1937.311, 115.5126
1939.239, 114.6350
1941.167, 114.0258
1943.096, 113.6495
1945.024, 113.0929
1946.953, 112.6255
1948.881, 112.4226
1950.810, 112.5547
1952.738, 112.8558
1954.667, 111.9212
1956.595, 110.8031
1958.524, 110.7509
1960.452, 110.5357
1962.381, 109.9338
1964.309, 109.7613
1966.238, 109.8101
1968.166, 109.9386
1970.094, 109.6382
1972.023, 108.5616
1973.951, 107.7569
1975.880, 107.3122
1977.808, 107.6395
1979.737, 107.8370
1981.665, 107.3717
1983.594, 106.8788
1985.522, 106.3393
1987.451, 105.2543
1989.379, 104.4756
1991.308, 104.7217
1993.236, 104.5722
1995.165, 103.9856
1997.093, 104.1392
1999.021, 104.2268
2000.950, 103.5062
2002.878, 103.1007
2004.807, 103.1989
2006.735, 103.3181
2008.664, 103.1753
2010.592, 102.3861
2012.521, 101.3492
2014.449, 100.2256
2016.378, 100.9397
2018.306, 101.9164
2020.235, 100.5625
2022.163, 99.68308
2024.092, 99.79494
2026.020, 99.15871
2027.948, 98.34105
2029.877, 98.35495
2031.805, 98.41438
2033.734, 98.32963
2035.662, 97.48592
2037.591, 96.51602
2039.519, 96.50045
2041.448, 96.62920
2043.376, 96.70104
2045.305, 96.45668
2047.233, 95.85221
2049.162, 94.50201
2051.090, 93.59068
2053.019, 93.45992
2054.947, 93.82585
2056.875, 94.40514
2058.804, 94.99364
2060.732, 95.09102
2062.661, 94.47741
2064.589, 93.54529
2066.518, 92.76963
2068.446, 93.07609
2070.375, 93.10531
2072.303, 92.41872
2074.232, 91.37334
2076.160, 90.51243
2078.089, 90.77187
2080.017, 90.74488
2081.946, 90.03231
2083.874, 89.80093
2085.802, 89.81566
2087.731, 89.92390
2089.659, 89.58610
2091.588, 88.72330
2093.516, 88.86462
2095.445, 88.95966
2097.373, 87.79881
2099.302, 87.07104
2101.230, 86.99963
2103.159, 86.84180
2105.087, 86.79519
2107.016, 87.15624
2108.944, 86.83704
2110.873, 85.97872
2112.801, 85.98962
2114.729, 85.79301
2116.658, 84.59249
2118.586, 84.22195
2120.515, 84.39817
2122.443, 83.89430
2124.372, 83.37610
2126.300, 83.11158
2128.229, 82.96470
2130.157, 82.95824
2132.086, 83.41165
2134.014, 83.26434
2135.943, 82.20988
2137.871, 82.22289
2139.800, 82.23213
2141.728, 80.47643
2143.656, 79.56412
2145.585, 79.78252
2147.513, 79.73891
2149.442, 79.80161
2151.370, 80.52737
2153.299, 80.17435
2155.227, 79.04799
2157.156, 79.09896
2159.084, 78.83270
2161.013, 77.43818
2162.941, 76.69524
2164.870, 76.40536
2166.798, 76.06248
2168.727, 75.93685
2170.655, 76.09294
2172.583, 75.58750
2174.512, 75.23423
2176.440, 76.06006
2178.369, 76.15861
2180.297, 75.45679
2182.226, 75.19656
2184.154, 74.80156
2186.083, 73.92404
2188.011, 73.99625
2189.940, 74.41153
2191.868, 73.52589
2193.797, 73.05417
2195.725, 73.30994
2197.654, 72.19727
2199.582, 71.09272
2201.510, 71.65589
2203.439, 72.55839
2205.367, 73.19704
2207.296, 71.39356
2209.224, 69.90123
2211.153, 69.81518
2213.081, 73.65884
2215.010, 77.79106
2216.938, 76.44572
2218.867, 73.97756
2220.795, 71.41124
2222.724, 70.36762
2224.652, 69.64137
2226.581, 68.16486
2228.509, 67.72823
2230.438, 68.03960
2232.366, 68.41869
2234.294, 68.58272
2236.223, 68.43233
2238.151, 67.98347
2240.080, 67.40596
2242.008, 66.81468
2243.937, 66.37267
2245.865, 65.98144
2247.794, 65.02230
2249.722, 64.66157
2251.651, 65.28045
2253.579, 65.10247
2255.508, 64.76493
2257.436, 64.97531
2259.365, 65.16179
2261.293, 65.12873
2263.221, 64.06092
2265.150, 63.95958
2267.078, 65.37634
2269.007, 64.89233
2270.935, 63.79594
2272.864, 63.53810
2274.792, 63.48815
2276.721, 63.34725
2278.649, 62.09931
2280.578, 61.57209
2282.506, 62.27464
2284.435, 62.07827
2286.363, 61.55000
2288.292, 61.20977
2290.220, 60.98383
2292.148, 60.87499
2294.077, 60.94463
2296.005, 61.02546
2297.934, 61.06483
2299.862, 60.10191
2301.791, 59.20595
2303.719, 59.29929
2305.648, 59.41433
2307.576, 59.45669
2309.505, 59.48061
2311.433, 58.83067
2313.362, 57.59631
2315.290, 58.10779
2317.219, 58.54360
2319.147, 57.88310
2321.075, 58.40453
2323.004, 59.18147
2324.932, 58.94917
2326.861, 59.11426
2328.789, 59.35264
2330.718, 57.28820
2332.646, 55.92737
2334.575, 56.05242
2336.503, 55.03783
2338.432, 54.32294
2340.360, 55.00230
2342.289, 55.75315
2344.217, 56.19637
2346.146, 55.73519
2348.074, 55.19185
2350.002, 54.76413
2351.931, 54.77506
2353.859, 54.67129
2355.788, 54.27840
2357.716, 54.38890
2359.645, 54.55535
2361.573, 54.38458
2363.502, 53.98357
2365.430, 53.64428
2367.359, 53.97617
2369.287, 54.02961
2371.216, 53.75391
2373.144, 53.68823
2375.073, 53.35629
2377.001, 52.54598
2378.929, 52.23456
2380.858, 51.91011
2382.786, 51.13889
2384.715, 50.47953
2386.643, 50.10296
2388.572, 50.20309
2390.500, 50.53875
2392.429, 50.93279
2394.357, 51.14227
2396.286, 50.66029
2398.214, 49.46898
2400.143, 49.19724
2402.071, 49.01902
2404.000, 48.54487
2405.928, 48.43217
2407.856, 48.29084
2409.785, 47.65905
2411.713, 48.05584
2413.642, 48.76260
2415.570, 48.14898
2417.499, 47.83356
2419.427, 47.83742
2421.356, 47.38166
2423.284, 47.28224
2425.213, 47.59122
2427.141, 47.34880
2429.070, 46.80981
2430.998, 46.10044
2432.927, 45.91606
2434.855, 46.09205
2436.783, 46.81902
2438.712, 46.18160
2440.640, 45.10805
2442.569, 44.84942
2444.497, 44.78926
2446.426, 44.98027
2448.354, 44.95331
2450.283, 48.32759
2452.211, 53.72305
2454.140, 52.52837
2456.068, 49.20091
2457.997, 45.26648
2459.925, 43.76841
2461.854, 43.35491
2463.782, 43.46305
2465.710, 43.37044
2467.639, 43.09881
2469.567, 42.65775
2471.496, 42.54528
2473.424, 42.42973
2475.353, 41.93280
2477.281, 41.55421
2479.210, 41.45289
2481.138, 42.14912
2483.067, 41.32003
2484.995, 39.73341
2486.924, 39.86325
2488.852, 40.48624
2490.781, 41.10763
2492.709, 40.72966
2494.637, 40.66610
2496.566, 40.96859
2498.494, 40.01292
2500.423, 39.54302
2502.351, 39.95078
2504.280, 39.31870
2506.208, 38.71722
2508.137, 38.65549
2510.065, 39.08302
2511.994, 39.18979
2513.922, 38.26310
2515.851, 37.96006
2517.779, 37.99573
2519.708, 38.30229
2521.636, 37.79247
2523.564, 37.19492
2525.493, 37.35480
2527.421, 36.85565
2529.350, 36.34161
2531.278, 36.80363
2533.207, 36.57639
2535.135, 36.16112
2537.064, 36.62553
2538.992, 36.79937
2540.921, 36.80145
2542.849, 37.27740
2544.778, 37.02223
2546.706, 36.32818
2548.635, 36.31198
2550.563, 36.63100
2552.491, 36.95155
2554.420, 36.39070
2556.348, 35.85964
2558.277, 35.47441
2560.205, 34.97298
2562.134, 34.54033
2564.062, 34.30637
2565.991, 34.71266
2567.919, 34.78744
2569.848, 34.38200
2571.776, 33.55445
2573.705, 33.47669
2575.633, 34.06476
2577.562, 33.70242
2579.490, 33.43714
2581.418, 33.41685
2583.347, 32.58386
2585.275, 32.07877
2587.204, 32.14489
2589.132, 32.12121
2591.061, 32.18552
2592.989, 32.34724
2594.918, 32.36203
2596.846, 31.76182
2598.775, 30.63486
2600.703, 31.09894
2602.632, 31.14737
2604.560, 30.50008
2606.489, 31.99173
2608.417, 32.43814
2610.345, 31.25624
2612.274, 30.95679
2614.202, 30.42876
2616.131, 29.55419
2618.059, 29.31972
2619.988, 29.79312
2621.916, 30.53845
2623.845, 29.42572
2625.773, 28.96018
2627.702, 29.39523
2629.630, 29.27847
2631.559, 29.26417
2633.487, 29.40166
2635.416, 29.52409
2637.344, 28.96084
2639.272, 28.11630
2641.201, 28.37702
2643.129, 28.64933
2645.058, 28.74174
2646.986, 28.75632
2648.915, 28.47559
2650.843, 27.88310
2652.772, 26.75747
2654.700, 26.50008
2656.629, 26.70718
2658.557, 26.51950
2660.486, 26.56257
2662.414, 26.68707
2664.343, 26.64821
2666.271, 26.51325
2668.199, 26.23340
2670.128, 25.74466
2672.056, 25.45067
2673.985, 25.39833
2675.913, 25.58512
2677.842, 25.10210
2679.770, 24.99887
2681.699, 25.78118
2683.627, 25.18705
2685.556, 24.79066
2687.484, 25.18926
2689.413, 24.64325
2691.341, 24.48152
2693.270, 24.92779
2695.198, 24.49707
2697.126, 24.16677
2699.055, 24.08748
2700.983, 23.70179
2702.912, 23.63363
2704.840, 23.79142
2706.769, 23.61269
2708.697, 23.40694
2710.626, 23.76666
2712.554, 26.15236
2714.483, 26.55690
2716.411, 25.49421
2718.340, 23.59672
2720.268, 22.73147
2722.197, 22.60662
2724.125, 23.05608
2726.053, 22.72483
2727.982, 21.90851
2729.910, 20.82666
2731.839, 21.24823
2733.767, 21.80195
2735.696, 22.01102
2737.624, 22.10904
2739.553, 21.86548
2741.481, 21.35513
2743.410, 20.78389
2745.338, 20.80789
2747.267, 21.17489
2749.195, 21.44321
2751.124, 21.05703
2753.052, 20.66983
2754.980, 20.91040
2756.909, 20.69666
2758.837, 20.38067
2760.766, 20.22579
2762.694, 20.84156
2764.623, 20.90968
2766.551, 20.23292
2768.480, 19.80010
2770.408, 19.12244
2772.337, 18.47217
2774.265, 18.72258
2776.194, 19.08774
2778.122, 19.20810
2780.051, 18.59251
2781.979, 18.66485
2783.907, 18.84705
2785.836, 18.65062
2787.764, 18.64195
2789.693, 18.39340
2791.621, 17.83787
2793.550, 17.72473
2795.478, 17.95908
2797.407, 18.20282
2799.335, 17.61856
2801.264, 17.79841
2803.192, 18.01878
2805.121, 17.29330
2807.049, 17.84331
2808.978, 17.91462
2810.906, 16.72045
2812.834, 16.74650
2814.763, 16.80025
2816.691, 16.60175
2818.620, 16.70173
2820.548, 16.95009
2822.477, 17.18181
2824.405, 17.24397
2826.334, 16.77495
2828.262, 16.14797
2830.191, 15.65597
2832.119, 15.94422
2834.048, 15.73305
2835.976, 14.94859
2837.905, 15.59273
2839.833, 15.47574
2841.761, 14.83638
2843.690, 14.71279
2845.618, 14.66934
2847.547, 14.74796
2849.475, 15.03831
2851.404, 14.94861
2853.332, 14.78827
2855.261, 14.69157
2857.189, 14.80506
2859.118, 14.51744
2861.046, 13.98223
2862.975, 13.51963
2864.903, 13.70240
2866.832, 14.04698
2868.760, 14.18738
2870.688, 13.58895
2872.617, 13.27291
2874.545, 13.44390
2876.474, 13.94034
2878.402, 13.91923
2880.331, 13.49544
2882.259, 12.87188
2884.188, 12.77787
2886.116, 13.07611
2888.045, 13.50624
2889.973, 13.26687
2891.902, 12.99575
2893.830, 12.81978
2895.759, 12.73691
2897.687, 12.57339
2899.615, 12.52716
2901.544, 12.71764
2903.472, 12.78082
2905.401, 12.45427
2907.329, 12.09532
2909.258, 12.67506
2911.186, 12.43825
2913.115, 12.21497
2915.043, 12.75082
2916.972, 12.28153
2918.900, 11.58421
2920.829, 11.02941
2922.757, 10.85062
2924.686, 11.09523
2926.614, 11.21308
2928.542, 10.83763
2930.471, 11.51545
2932.399, 11.64662
2934.328, 11.03671
2936.256, 10.83669
2938.185, 10.91671
2940.113, 11.31767
2942.042, 12.04233
2943.970, 10.64681
2945.899, 11.10037
2947.827, 12.94082
2949.756, 10.98226
2951.684, 10.57993
2953.613, 10.54005
2955.541, 9.080071
2957.469, 9.880308
2959.398, 10.14920
2961.326, 9.515551
2963.255, 9.144996
2965.183, 9.368517
2967.112, 9.757589
2969.040, 9.962239
2970.969, 10.05337
2972.897, 9.568324
2974.826, 8.937986
2976.754, 9.202868
2978.683, 8.866998
2980.611, 8.554049
2982.540, 8.677224
2984.468, 9.025592
2986.396, 8.936238
2988.325, 8.703797
2990.253, 8.875417
2992.182, 9.522196
2994.110, 9.221379
2996.039, 8.078495
2997.967, 8.239230
2999.896, 8.890800
3001.824, 9.203734
3003.753, 8.624531
3005.681, 8.150409
3007.610, 8.188759
3009.538, 8.509480
3011.467, 8.495250
3013.395, 8.616946
3015.323, 9.022083
3017.252, 9.575603
3019.180, 9.058043
3021.109, 8.043819
3023.037, 7.409403
3024.966, 7.923481
3026.894, 7.599585
3028.823, 7.414737
3030.751, 7.563525
3032.680, 7.770410
3034.608, 8.366872
3036.537, 8.405591
3038.465, 7.572489
3040.394, 6.756024
3042.322, 7.012479
3044.250, 7.559472
3046.179, 7.565115
3048.107, 6.970043
3050.036, 7.143477
3051.964, 7.654935
3053.893, 7.120681
3055.821, 6.835108
3057.750, 6.498193
3059.678, 6.262340
3061.607, 7.333969
3063.535, 7.068968
3065.464, 6.480017
3067.392, 6.484040
3069.321, 7.366242
3071.249, 7.125196
3073.177, 6.485883
3075.106, 6.604273
3077.034, 7.583984
3078.963, 7.230181
3080.891, 6.335452
3082.820, 7.154217
3084.748, 6.885976
3086.677, 6.716456
3088.605, 6.977271
3090.534, 6.988519
3092.462, 6.766314
3094.391, 6.691693
3096.319, 6.802812
3098.248, 6.275495
3100.176, 5.783149
3102.104, 5.420687
3104.033, 5.262619
3105.961, 5.923712
3107.890, 6.076773
3109.818, 5.840564
3111.747, 5.598182
3113.675, 4.903298
3115.604, 5.633811
3117.532, 6.433812
3119.461, 4.661661
3121.389, 4.862268
3123.318, 6.308293
3125.246, 7.335661
3127.175, 5.335367
3129.103, 5.086163
3131.031, 5.109415
3132.960, 5.027327
3134.888, 5.474563
3136.817, 4.489399
3138.745, 4.390102
3140.674, 5.240134
3142.602, 4.299783
3144.531, 4.096570
3146.459, 4.549893
3148.388, 5.208441
3150.316, 5.291094
3152.245, 5.344342
3154.173, 5.210620
3156.102, 4.849987
3158.030, 4.413878
3159.958, 4.446492
3161.887, 4.417634
3163.815, 4.184291
3165.744, 4.360071
3167.672, 4.481055
3169.601, 5.097941
3171.529, 6.063967
3173.458, 5.384771
3175.386, 5.566644
3177.315, 5.154500
3179.243, 3.720666
3181.172, 4.078470
3183.100, 4.378904
3185.029, 4.271815
3186.957, 3.949208
3188.885, 4.474028
3190.814, 3.279836
3192.742, 3.172099
3194.671, 4.848706
3196.599, 4.971666
3198.528, 4.786875
3200.456, 4.033484
3202.385, 3.149279
3204.313, 3.924411
3206.242, 4.702600
3208.170, 4.270277
3210.099, 3.052438
3212.027, 2.957123
3213.956, 3.811437
3215.884, 4.342914
3217.813, 4.234279
3219.741, 3.681057
3221.669, 4.073144
3223.598, 4.128691
3225.526, 3.657253
3227.455, 2.875311
3229.383, 3.313106
3231.312, 3.687247
3233.240, 3.735324
3235.169, 3.565238
3237.097, 2.809543
3239.026, 2.859185
3240.954, 3.434783
3242.883, 3.982924
3244.811, 3.776095
3246.740, 3.854512
3248.668, 4.045835
3250.596, 4.161166
3252.525, 4.383202
3254.453, 4.565198
3256.382, 4.482653
3258.310, 4.245082
3260.239, 4.346329
3262.167, 4.777298
3264.096, 4.074815
3266.024, 3.201656
3267.953, 4.376875
3269.881, 4.216068
3271.810, 3.750489
3273.738, 3.675321
3275.667, 4.253994
3277.595, 4.322245
3279.523, 4.475505
3281.452, 4.382205
3283.380, 3.884836
3285.309, 3.455672
3287.237, 5.403806
3289.166, 5.685905
3291.094, 4.014258
3293.023, 3.781751
3294.951, 4.093446
3296.880, 4.745581
3298.808, 4.684847
3300.737, 3.224355
3302.665, 4.327919
3304.594, 3.846223
3306.522, 5.104516
3308.450, 8.277732
3310.379, 3.584637
3312.307, 2.915526
3314.236, 3.792739
3316.164, 4.156146
3318.093, 3.134390
3320.021, 3.526032
3321.950, 3.349317
3323.878, 3.395452
3325.807, 4.421755
3327.735, 3.732760
3329.664, 3.594382
3331.592, 3.089636
3333.521, 2.378103
3335.449, 3.170235
3337.377, 4.077562
3339.306, 4.263651
3341.234, 4.268103
3343.163, 4.632140
3345.091, 3.516057
3347.020, 3.561151
3348.948, 4.008804
3350.877, 4.185179
3352.805, 4.019433
3354.734, 3.844113
3356.662, 3.669189
3358.591, 3.410724
3360.519, 3.123866
3362.448, 3.222349
3364.376, 5.404099
3366.304, 5.664540
3368.233, 3.861965
3370.161, 3.142817
3372.090, 3.312087
3374.018, 3.641268
3375.947, 3.297257
3377.875, 2.303925
3379.804, 3.114513
3381.732, 3.348435
3383.661, 3.510022
3385.589, 3.830852
3387.518, 4.204122
3389.446, 2.978311
3391.375, 2.665793
3393.303, 2.792878
3395.231, 3.010381
3397.160, 3.651647
3399.088, 2.338559
3401.017, 2.054271
3402.945, 2.620534
3404.874, 3.057178
3406.802, 2.963521
3408.731, 2.935844
3410.659, 3.021349
3412.588, 3.173955
3414.516, 3.276545
3416.445, 2.888855
3418.373, 2.025451
3420.302, 2.392466
3422.230, 3.260295
3424.158, 1.890113
3426.087, 8.935522
3428.015, 7.097552
3429.944, 2.995206
3431.872, 2.509213
3433.801, 4.391928
3435.729, 2.897755
3437.658, 3.085395
3439.586, 2.973010
3441.515, 1.576966
3443.443, 3.038168
3445.372, 2.551194
3447.300, 3.149537
3449.229, 3.532586
3451.157, 2.544315
3453.085, 3.602874
3455.014, 2.393642
3456.942, 1.088712
##END=



