##NAMES=Ilvaite
##RRUFFID=R050040
##IDEAL CHEMISTRY=CaFe^3+^Fe^2+^_2_O(Si_2_O_7_)(OH)
##LOCALITY=Capo Calamita, Isle of Elba, Italy
##OWNER=RRUFF
##SOURCE=University of Arizona Mineral Museum
##DESCRIPTION=Brown fragment
##STATUS=The identification of this mineral has been confirmed by X-ray diffraction and chemical analysis
##URL=https://www.rruff.net/odr/rruff_sample/R050040
##MEASURED CHEMISTRY=Ca_1.00_(Fe^2+^_1.89_Mn_0.10_Mg_0.01_)Fe^3+^_1.00_OSi_2.00_O_7_(OH) ; trace amounts of Al  OH estimated by charge balance
##DIFFRACTION SAMPLE DESCRIPTION=Powder
##CELL PARAMETERS=a: 12.998 b: 8.786 c: 5.8409 alpha: 90 beta: 90.407 gamma: 90 volume: 667.04 crystal system: monoclinic
##FILETYPE=Raman RAW
##RAMAN WAVELENGTH=780

7.826855e+001, 3.061491e+002
8.019702e+001, 2.631962e+002
8.212549e+001, 2.470988e+002
8.405396e+001, 2.681487e+002
8.598242e+001, 3.097505e+002
8.791089e+001, 3.500914e+002
8.983936e+001, 3.892289e+002
9.176782e+001, 4.231596e+002
9.369629e+001, 4.315255e+002
9.562476e+001, 4.127039e+002
9.755322e+001, 3.950602e+002
9.948169e+001, 3.794148e+002
1.014102e+002, 3.656693e+002
1.033386e+002, 3.531852e+002
1.052671e+002, 3.430174e+002
1.071956e+002, 3.347280e+002
1.091240e+002, 3.277813e+002
1.110525e+002, 3.215622e+002
1.129810e+002, 3.162287e+002
1.149094e+002, 3.121374e+002
1.168379e+002, 3.090328e+002
1.187664e+002, 3.057806e+002
1.206948e+002, 3.017607e+002
1.226233e+002, 2.977837e+002
1.245518e+002, 2.939096e+002
1.264802e+002, 2.901010e+002
1.284087e+002, 2.861578e+002
1.303372e+002, 2.820355e+002
1.322656e+002, 2.785871e+002
1.341941e+002, 2.760070e+002
1.361226e+002, 2.739062e+002
1.380510e+002, 2.724589e+002
1.399795e+002, 2.712892e+002
1.419080e+002, 2.700381e+002
1.438364e+002, 2.687102e+002
1.457649e+002, 2.674001e+002
1.476934e+002, 2.663749e+002
1.496218e+002, 2.649983e+002
1.515503e+002, 2.628704e+002
1.534788e+002, 2.605831e+002
1.554072e+002, 2.586595e+002
1.573357e+002, 2.570310e+002
1.592642e+002, 2.551204e+002
1.611926e+002, 2.526430e+002
1.631211e+002, 2.502701e+002
1.650496e+002, 2.481303e+002
1.669780e+002, 2.460397e+002
1.689065e+002, 2.436660e+002
1.708350e+002, 2.412293e+002
1.727634e+002, 2.395982e+002
1.746919e+002, 2.393500e+002
1.766204e+002, 2.388904e+002
1.785488e+002, 2.380435e+002
1.804773e+002, 2.371885e+002
1.824058e+002, 2.366059e+002
1.843342e+002, 2.361036e+002
1.862627e+002, 2.353849e+002
1.881912e+002, 2.344656e+002
1.901196e+002, 2.331888e+002
1.920481e+002, 2.314158e+002
1.939766e+002, 2.295581e+002
1.959050e+002, 2.275907e+002
1.978335e+002, 2.257554e+002
1.997620e+002, 2.243666e+002
2.016904e+002, 2.234369e+002
2.036189e+002, 2.224075e+002
2.055474e+002, 2.212951e+002
2.074758e+002, 2.200675e+002
2.094043e+002, 2.186103e+002
2.113328e+002, 2.171561e+002
2.132612e+002, 2.158820e+002
2.151897e+002, 2.147335e+002
2.171182e+002, 2.135527e+002
2.190466e+002, 2.123846e+002
2.209751e+002, 2.108458e+002
2.229036e+002, 2.086557e+002
2.248320e+002, 2.064377e+002
2.267605e+002, 2.044391e+002
2.286890e+002, 2.025711e+002
2.306174e+002, 2.007106e+002
2.325459e+002, 1.988638e+002
2.344744e+002, 1.971478e+002
2.364028e+002, 1.956522e+002
2.383313e+002, 1.940769e+002
2.402598e+002, 1.922587e+002
2.421882e+002, 1.904115e+002
2.441167e+002, 1.885117e+002
2.460452e+002, 1.867060e+002
2.479736e+002, 1.854656e+002
2.499021e+002, 1.847802e+002
2.518306e+002, 1.843176e+002
2.537590e+002, 1.841836e+002
2.556875e+002, 1.839649e+002
2.576160e+002, 1.833996e+002
2.595444e+002, 1.827494e+002
2.614729e+002, 1.823503e+002
2.634014e+002, 1.821570e+002
2.653298e+002, 1.820017e+002
2.672583e+002, 1.820126e+002
2.691868e+002, 1.815897e+002
2.711152e+002, 1.803081e+002
2.730437e+002, 1.789242e+002
2.749722e+002, 1.776954e+002
2.769006e+002, 1.766443e+002
2.788291e+002, 1.759420e+002
2.807576e+002, 1.755290e+002
2.826860e+002, 1.746732e+002
2.846145e+002, 1.729346e+002
2.865430e+002, 1.713902e+002
2.884714e+002, 1.703672e+002
2.903999e+002, 1.694935e+002
2.923284e+002, 1.685541e+002
2.942568e+002, 1.675630e+002
2.961853e+002, 1.664888e+002
2.981138e+002, 1.652983e+002
3.000422e+002, 1.643847e+002
3.019707e+002, 1.640494e+002
3.038992e+002, 1.636461e+002
3.058276e+002, 1.630129e+002
3.077561e+002, 1.622907e+002
3.096846e+002, 1.614945e+002
3.116130e+002, 1.607224e+002
3.135415e+002, 1.602326e+002
3.154700e+002, 1.601051e+002
3.173984e+002, 1.599812e+002
3.193269e+002, 1.599504e+002
3.212554e+002, 1.597574e+002
3.231838e+002, 1.593072e+002
3.251123e+002, 1.586793e+002
3.270408e+002, 1.578522e+002
3.289692e+002, 1.569147e+002
3.308977e+002, 1.561855e+002
3.328262e+002, 1.558953e+002
3.347546e+002, 1.552018e+002
3.366831e+002, 1.537264e+002
3.386116e+002, 1.524118e+002
3.405400e+002, 1.515687e+002
3.424685e+002, 1.509440e+002
3.443970e+002, 1.504594e+002
3.463254e+002, 1.500180e+002
3.482539e+002, 1.492505e+002
3.501824e+002, 1.479656e+002
3.521108e+002, 1.469678e+002
3.540393e+002, 1.464368e+002
3.559678e+002, 1.458231e+002
3.578962e+002, 1.448663e+002
3.598247e+002, 1.438712e+002
3.617532e+002, 1.430350e+002
3.636816e+002, 1.423179e+002
3.656101e+002, 1.416351e+002
3.675386e+002, 1.409960e+002
3.694670e+002, 1.403824e+002
3.713955e+002, 1.398270e+002
3.733240e+002, 1.392279e+002
3.752524e+002, 1.385185e+002
3.771809e+002, 1.378152e+002
3.791094e+002, 1.371209e+002
3.810378e+002, 1.365012e+002
3.829663e+002, 1.361018e+002
3.848948e+002, 1.359189e+002
3.868232e+002, 1.356358e+002
3.887517e+002, 1.352206e+002
3.906802e+002, 1.348534e+002
3.926086e+002, 1.346431e+002
3.945371e+002, 1.343609e+002
3.964656e+002, 1.338277e+002
3.983940e+002, 1.332547e+002
4.003225e+002, 1.328011e+002
4.022510e+002, 1.324866e+002
4.041794e+002, 1.324877e+002
4.061079e+002, 1.328219e+002
4.080364e+002, 1.328262e+002
4.099648e+002, 1.322958e+002
4.118933e+002, 1.317304e+002
4.138218e+002, 1.311559e+002
4.157502e+002, 1.307557e+002
4.176787e+002, 1.307867e+002
4.196072e+002, 1.309930e+002
4.215356e+002, 1.310265e+002
4.234641e+002, 1.308524e+002
4.253926e+002, 1.301258e+002
4.273210e+002, 1.286944e+002
4.292495e+002, 1.275123e+002
4.311780e+002, 1.268029e+002
4.331064e+002, 1.263906e+002
4.350349e+002, 1.265431e+002
4.369634e+002, 1.266729e+002
4.388918e+002, 1.261101e+002
4.408203e+002, 1.252035e+002
4.427488e+002, 1.247824e+002
4.446772e+002, 1.247975e+002
4.466057e+002, 1.246387e+002
4.485342e+002, 1.241983e+002
4.504626e+002, 1.236965e+002
4.523911e+002, 1.230473e+002
4.543196e+002, 1.225114e+002
4.562480e+002, 1.223020e+002
4.581765e+002, 1.221593e+002
4.601050e+002, 1.217874e+002
4.620334e+002, 1.213022e+002
4.639619e+002, 1.209734e+002
4.658904e+002, 1.208128e+002
4.678188e+002, 1.205091e+002
4.697473e+002, 1.199232e+002
4.716758e+002, 1.193943e+002
4.736042e+002, 1.188574e+002
4.755327e+002, 1.184991e+002
4.774612e+002, 1.186022e+002
4.793896e+002, 1.187315e+002
4.813181e+002, 1.185004e+002
4.832466e+002, 1.179926e+002
4.851750e+002, 1.172433e+002
4.871035e+002, 1.161950e+002
4.890320e+002, 1.156932e+002
4.909604e+002, 1.163260e+002
4.928889e+002, 1.166073e+002
4.948174e+002, 1.164782e+002
4.967458e+002, 1.160210e+002
4.986743e+002, 1.149009e+002
5.006028e+002, 1.138347e+002
5.025313e+002, 1.134997e+002
5.044597e+002, 1.135062e+002
5.063882e+002, 1.131530e+002
5.083167e+002, 1.124464e+002
5.102451e+002, 1.118758e+002
5.121736e+002, 1.115351e+002
5.141021e+002, 1.110935e+002
5.160305e+002, 1.104726e+002
5.179590e+002, 1.098963e+002
5.198875e+002, 1.094934e+002
5.218159e+002, 1.090552e+002
5.237444e+002, 1.083897e+002
5.256729e+002, 1.076801e+002
5.276013e+002, 1.071075e+002
5.295298e+002, 1.066687e+002
5.314583e+002, 1.064314e+002
5.333867e+002, 1.064883e+002
5.353152e+002, 1.059196e+002
5.372437e+002, 1.044698e+002
5.391721e+002, 1.034484e+002
5.411006e+002, 1.032913e+002
5.430291e+002, 1.031956e+002
5.449575e+002, 1.028706e+002
5.468860e+002, 1.024029e+002
5.488145e+002, 1.017572e+002
5.507429e+002, 1.010502e+002
5.526714e+002, 1.004676e+002
5.545999e+002, 9.998502e+001
5.565283e+002, 9.941914e+001
5.584568e+002, 9.876711e+001
5.603853e+002, 9.838037e+001
5.623137e+002, 9.835072e+001
5.642422e+002, 9.829862e+001
5.661707e+002, 9.812977e+001
5.680991e+002, 9.792320e+001
5.700276e+002, 9.771861e+001
5.719561e+002, 9.747797e+001
5.738845e+002, 9.718184e+001
5.758130e+002, 9.682809e+001
5.777415e+002, 9.634319e+001
5.796699e+002, 9.579919e+001
5.815984e+002, 9.552280e+001
5.835269e+002, 9.548315e+001
5.854553e+002, 9.518099e+001
5.873838e+002, 9.447145e+001
5.893123e+002, 9.402139e+001
5.912407e+002, 9.426276e+001
5.931692e+002, 9.427020e+001
5.950977e+002, 9.369466e+001
5.970261e+002, 9.298798e+001
5.989546e+002, 9.229005e+001
6.008831e+002, 9.167567e+001
6.028115e+002, 9.134734e+001
6.047400e+002, 9.110658e+001
6.066685e+002, 9.052323e+001
6.085969e+002, 8.966553e+001
6.105254e+002, 8.886655e+001
6.124539e+002, 8.813281e+001
6.143823e+002, 8.756082e+001
6.163108e+002, 8.730202e+001
6.182393e+002, 8.691331e+001
6.201677e+002, 8.627152e+001
6.220962e+002, 8.560454e+001
6.240247e+002, 8.495449e+001
6.259531e+002, 8.434331e+001
6.278816e+002, 8.367452e+001
6.298101e+002, 8.314840e+001
6.317385e+002, 8.317459e+001
6.336670e+002, 8.341554e+001
6.355955e+002, 8.312369e+001
6.375239e+002, 8.234112e+001
6.394524e+002, 8.172808e+001
6.413809e+002, 8.132191e+001
6.433093e+002, 8.101457e+001
6.452378e+002, 8.091326e+001
6.471663e+002, 8.071876e+001
6.490947e+002, 8.040145e+001
6.510232e+002, 8.000162e+001
6.529517e+002, 7.944399e+001
6.548801e+002, 7.891673e+001
6.568086e+002, 7.851024e+001
6.587371e+002, 7.820108e+001
6.606655e+002, 7.801343e+001
6.625940e+002, 7.787685e+001
6.645225e+002, 7.773206e+001
6.664509e+002, 7.754198e+001
6.683794e+002, 7.705380e+001
6.703079e+002, 7.622580e+001
6.722363e+002, 7.552356e+001
6.741648e+002, 7.489468e+001
6.760933e+002, 7.461529e+001
6.780217e+002, 7.481489e+001
6.799502e+002, 7.503725e+001
6.818787e+002, 7.525945e+001
6.838071e+002, 7.530202e+001
6.857356e+002, 7.492801e+001
6.876641e+002, 7.457279e+001
6.895925e+002, 7.459329e+001
6.915210e+002, 7.462685e+001
6.934495e+002, 7.424512e+001
6.953779e+002, 7.371591e+001
6.973064e+002, 7.360462e+001
6.992349e+002, 7.373982e+001
7.011633e+002, 7.332869e+001
7.030918e+002, 7.239743e+001
7.050203e+002, 7.207516e+001
7.069487e+002, 7.243431e+001
7.088772e+002, 7.195889e+001
7.108057e+002, 7.026834e+001
7.127341e+002, 6.902982e+001
7.146626e+002, 6.869080e+001
7.165911e+002, 6.859004e+001
7.185195e+002, 6.878320e+001
7.204480e+002, 6.877357e+001
7.223765e+002, 6.821405e+001
7.243049e+002, 6.759042e+001
7.262334e+002, 6.713881e+001
7.281619e+002, 6.684647e+001
7.300903e+002, 6.678731e+001
7.320188e+002, 6.682603e+001
7.339473e+002, 6.683290e+001
7.358757e+002, 6.671751e+001
7.378042e+002, 6.607088e+001
7.397327e+002, 6.504909e+001
7.416611e+002, 6.454752e+001
7.435896e+002, 6.460287e+001
7.455181e+002, 6.462790e+001
7.474465e+002, 6.458467e+001
7.493750e+002, 6.438987e+001
7.513035e+002, 6.390374e+001
7.532319e+002, 6.354557e+001
7.551604e+002, 6.351131e+001
7.570889e+002, 6.340524e+001
7.590173e+002, 6.301884e+001
7.609458e+002, 6.269677e+001
7.628743e+002, 6.266699e+001
7.648027e+002, 6.267147e+001
7.667312e+002, 6.255414e+001
7.686597e+002, 6.236298e+001
7.705881e+002, 6.213395e+001
7.725166e+002, 6.186814e+001
7.744451e+002, 6.149351e+001
7.763735e+002, 6.111512e+001
7.783020e+002, 6.105274e+001
7.802305e+002, 6.120987e+001
7.821589e+002, 6.100465e+001
7.840874e+002, 6.040530e+001
7.860159e+002, 6.014695e+001
7.879443e+002, 6.036413e+001
7.898728e+002, 6.046843e+001
7.918013e+002, 6.045512e+001
7.937297e+002, 6.032841e+001
7.956582e+002, 5.986992e+001
7.975867e+002, 5.976839e+001
7.995151e+002, 6.045673e+001
8.014436e+002, 6.081287e+001
8.033721e+002, 6.019816e+001
8.053005e+002, 5.981435e+001
8.072290e+002, 6.055207e+001
8.091575e+002, 6.105248e+001
8.110859e+002, 6.017796e+001
8.130144e+002, 5.918863e+001
8.149429e+002, 5.910080e+001
8.168713e+002, 5.920763e+001
8.187998e+002, 5.872064e+001
8.207283e+002, 5.808968e+001
8.226567e+002, 5.806812e+001
8.245852e+002, 5.834542e+001
8.265137e+002, 5.817862e+001
8.284421e+002, 5.770172e+001
8.303706e+002, 5.745896e+001
8.322991e+002, 5.742162e+001
8.342275e+002, 5.730151e+001
8.361560e+002, 5.709610e+001
8.380845e+002, 5.692680e+001
8.400129e+002, 5.679601e+001
8.419414e+002, 5.671331e+001
8.438699e+002, 5.668745e+001
8.457983e+002, 5.664319e+001
8.477268e+002, 5.656878e+001
8.496553e+002, 5.648468e+001
8.515837e+002, 5.638725e+001
8.535122e+002, 5.629298e+001
8.554407e+002, 5.617298e+001
8.573691e+002, 5.613404e+001
8.592976e+002, 5.628159e+001
8.612261e+002, 5.638700e+001
8.631545e+002, 5.643907e+001
8.650830e+002, 5.634251e+001
8.670115e+002, 5.585249e+001
8.689399e+002, 5.547611e+001
8.708684e+002, 5.568068e+001
8.727969e+002, 5.588810e+001
8.747253e+002, 5.564098e+001
8.766538e+002, 5.522611e+001
8.785823e+002, 5.483717e+001
8.805107e+002, 5.450616e+001
8.824392e+002, 5.423041e+001
8.843677e+002, 5.407160e+001
8.862961e+002, 5.423236e+001
8.882246e+002, 5.451035e+001
8.901531e+002, 5.453924e+001
8.920815e+002, 5.438927e+001
8.940100e+002, 5.415696e+001
8.959385e+002, 5.388428e+001
8.978669e+002, 5.370006e+001
8.997954e+002, 5.358558e+001
9.017239e+002, 5.344819e+001
9.036523e+002, 5.328960e+001
9.055808e+002, 5.318213e+001
9.075093e+002, 5.312701e+001
9.094377e+002, 5.291046e+001
9.113662e+002, 5.250066e+001
9.132947e+002, 5.217580e+001
9.152231e+002, 5.196279e+001
9.171516e+002, 5.176984e+001
9.190801e+002, 5.161481e+001
9.210085e+002, 5.142433e+001
9.229370e+002, 5.109005e+001
9.248655e+002, 5.093900e+001
9.267939e+002, 5.118921e+001
9.287224e+002, 5.117704e+001
9.306509e+002, 5.066739e+001
9.325793e+002, 5.031299e+001
9.345078e+002, 5.023626e+001
9.364363e+002, 5.023957e+001
9.383647e+002, 5.041003e+001
9.402932e+002, 5.035516e+001
9.422217e+002, 4.980140e+001
9.441501e+002, 4.941742e+001
9.460786e+002, 4.952186e+001
9.480071e+002, 4.957398e+001
9.499355e+002, 4.930816e+001
9.518640e+002, 4.909926e+001
9.537925e+002, 4.916695e+001
9.557209e+002, 4.921008e+001
9.576494e+002, 4.911503e+001
9.595779e+002, 4.891278e+001
9.615063e+002, 4.843412e+001
9.634348e+002, 4.814383e+001
9.653633e+002, 4.853288e+001
9.672917e+002, 4.885692e+001
9.692202e+002, 4.861580e+001
9.711487e+002, 4.830199e+001
9.730771e+002, 4.827840e+001
9.750056e+002, 4.820565e+001
9.769341e+002, 4.771947e+001
9.788625e+002, 4.724794e+001
9.807910e+002, 4.715639e+001
9.827195e+002, 4.717461e+001
9.846479e+002, 4.715098e+001
9.865764e+002, 4.704731e+001
9.885049e+002, 4.680190e+001
9.904333e+002, 4.648891e+001
9.923618e+002, 4.617838e+001
9.942903e+002, 4.584053e+001
9.962188e+002, 4.534703e+001
9.981472e+002, 4.491356e+001
1.000076e+003, 4.480735e+001
1.002004e+003, 4.487183e+001
1.003933e+003, 4.505265e+001
1.005861e+003, 4.517286e+001
1.007790e+003, 4.497281e+001
1.009718e+003, 4.462331e+001
1.011646e+003, 4.422077e+001
1.013575e+003, 4.390721e+001
1.015503e+003, 4.396502e+001
1.017432e+003, 4.413458e+001
1.019360e+003, 4.408243e+001
1.021289e+003, 4.392132e+001
1.023217e+003, 4.379751e+001
1.025146e+003, 4.366760e+001
1.027074e+003, 4.351730e+001
1.029003e+003, 4.328832e+001
1.030931e+003, 4.271701e+001
1.032860e+003, 4.218090e+001
1.034788e+003, 4.234592e+001
1.036717e+003, 4.271408e+001
1.038645e+003, 4.261504e+001
1.040573e+003, 4.232031e+001
1.042502e+003, 4.214731e+001
1.044430e+003, 4.202202e+001
1.046359e+003, 4.188326e+001
1.048287e+003, 4.170643e+001
1.050216e+003, 4.138057e+001
1.052144e+003, 4.107873e+001
1.054073e+003, 4.106134e+001
1.056001e+003, 4.115345e+001
1.057930e+003, 4.117844e+001
1.059858e+003, 4.115960e+001
1.061787e+003, 4.112449e+001
1.063715e+003, 4.105688e+001
1.065644e+003, 4.085439e+001
1.067572e+003, 4.068950e+001
1.069500e+003, 4.094436e+001
1.071429e+003, 4.112346e+001
1.073357e+003, 4.046323e+001
1.075286e+003, 3.974637e+001
1.077214e+003, 3.990540e+001
1.079143e+003, 4.019075e+001
1.081071e+003, 3.982705e+001
1.083000e+003, 3.938292e+001
1.084928e+003, 3.944261e+001
1.086857e+003, 3.951965e+001
1.088785e+003, 3.910615e+001
1.090714e+003, 3.870363e+001
1.092642e+003, 3.878559e+001
1.094571e+003, 3.887692e+001
1.096499e+003, 3.853072e+001
1.098427e+003, 3.825042e+001
1.100356e+003, 3.845102e+001
1.102284e+003, 3.866369e+001
1.104213e+003, 3.867321e+001
1.106141e+003, 3.855524e+001
1.108070e+003, 3.823543e+001
1.109998e+003, 3.796377e+001
1.111927e+003, 3.790814e+001
1.113855e+003, 3.783223e+001
1.115784e+003, 3.753489e+001
1.117712e+003, 3.739079e+001
1.119641e+003, 3.768005e+001
1.121569e+003, 3.785294e+001
1.123498e+003, 3.766033e+001
1.125426e+003, 3.752389e+001
1.127354e+003, 3.760992e+001
1.129283e+003, 3.761753e+001
1.131211e+003, 3.744313e+001
1.133140e+003, 3.728000e+001
1.135068e+003, 3.714250e+001
1.136997e+003, 3.709029e+001
1.138925e+003, 3.721916e+001
1.140854e+003, 3.710111e+001
1.142782e+003, 3.655745e+001
1.144711e+003, 3.632274e+001
1.146639e+003, 3.652154e+001
1.148568e+003, 3.677077e+001
1.150496e+003, 3.707629e+001
1.152425e+003, 3.710883e+001
1.154353e+003, 3.682973e+001
1.156281e+003, 3.659550e+001
1.158210e+003, 3.642125e+001
1.160138e+003, 3.636895e+001
1.162067e+003, 3.642751e+001
1.163995e+003, 3.644605e+001
1.165924e+003, 3.641517e+001
1.167852e+003, 3.624536e+001
1.169781e+003, 3.600325e+001
1.171709e+003, 3.604320e+001
1.173638e+003, 3.623823e+001
1.175566e+003, 3.623280e+001
1.177495e+003, 3.605097e+001
1.179423e+003, 3.558732e+001
1.181352e+003, 3.511486e+001
1.183280e+003, 3.512382e+001
1.185208e+003, 3.533925e+001
1.187137e+003, 3.551988e+001
1.189065e+003, 3.561075e+001
1.190994e+003, 3.552273e+001
1.192922e+003, 3.536396e+001
1.194851e+003, 3.511790e+001
1.196779e+003, 3.498074e+001
1.198708e+003, 3.515836e+001
1.200636e+003, 3.532637e+001
1.202565e+003, 3.534961e+001
1.204493e+003, 3.526698e+001
1.206422e+003, 3.499974e+001
1.208350e+003, 3.489484e+001
1.210279e+003, 3.512227e+001
1.212207e+003, 3.530350e+001
1.214135e+003, 3.535992e+001
1.216064e+003, 3.526843e+001
1.217992e+003, 3.499340e+001
1.219921e+003, 3.483290e+001
1.221849e+003, 3.483786e+001
1.223778e+003, 3.477271e+001
1.225706e+003, 3.462127e+001
1.227635e+003, 3.449655e+001
1.229563e+003, 3.440272e+001
1.231492e+003, 3.428739e+001
1.233420e+003, 3.418049e+001
1.235349e+003, 3.433175e+001
1.237277e+003, 3.459262e+001
1.239206e+003, 3.449199e+001
1.241134e+003, 3.419883e+001
1.243063e+003, 3.399254e+001
1.244991e+003, 3.386384e+001
1.246919e+003, 3.381553e+001
1.248848e+003, 3.381908e+001
1.250776e+003, 3.388078e+001
1.252705e+003, 3.393341e+001
1.254633e+003, 3.396516e+001
1.256562e+003, 3.391275e+001
1.258490e+003, 3.360899e+001
1.260419e+003, 3.343781e+001
1.262347e+003, 3.365435e+001
1.264276e+003, 3.380668e+001
1.266204e+003, 3.380753e+001
1.268133e+003, 3.372242e+001
1.270061e+003, 3.354462e+001
1.271990e+003, 3.329884e+001
1.273918e+003, 3.294866e+001
1.275846e+003, 3.282718e+001
1.277775e+003, 3.294634e+001
1.279703e+003, 3.309138e+001
1.281632e+003, 3.324448e+001
1.283560e+003, 3.327662e+001
1.285489e+003, 3.327029e+001
1.287417e+003, 3.360153e+001
1.289346e+003, 3.397570e+001
1.291274e+003, 3.383125e+001
1.293203e+003, 3.346371e+001
1.295131e+003, 3.300121e+001
1.297060e+003, 3.273185e+001
1.298988e+003, 3.303734e+001
1.300917e+003, 3.331435e+001
1.302845e+003, 3.325448e+001
1.304773e+003, 3.304982e+001
1.306702e+003, 3.266234e+001
1.308630e+003, 3.246810e+001
1.310559e+003, 3.265026e+001
1.312487e+003, 3.264474e+001
1.314416e+003, 3.230339e+001
1.316344e+003, 3.224588e+001
1.318273e+003, 3.252472e+001
1.320201e+003, 3.262151e+001
1.322130e+003, 3.255822e+001
1.324058e+003, 3.251168e+001
1.325987e+003, 3.246244e+001
1.327915e+003, 3.230607e+001
1.329844e+003, 3.215718e+001
1.331772e+003, 3.226848e+001
1.333700e+003, 3.240864e+001
1.335629e+003, 3.237894e+001
1.337557e+003, 3.224069e+001
1.339486e+003, 3.200358e+001
1.341414e+003, 3.170378e+001
1.343343e+003, 3.126119e+001
1.345271e+003, 3.103764e+001
1.347200e+003, 3.115801e+001
1.349128e+003, 3.125239e+001
1.351057e+003, 3.126548e+001
1.352985e+003, 3.136555e+001
1.354914e+003, 3.154806e+001
1.356842e+003, 3.162094e+001
1.358771e+003, 3.160087e+001
1.360699e+003, 3.162277e+001
1.362627e+003, 3.160092e+001
1.364556e+003, 3.132983e+001
1.366484e+003, 3.095875e+001
1.368413e+003, 3.053687e+001
1.370341e+003, 3.027279e+001
1.372270e+003, 3.042306e+001
1.374198e+003, 3.060220e+001
1.376127e+003, 3.068817e+001
1.378055e+003, 3.068881e+001
1.379984e+003, 3.056758e+001
1.381912e+003, 3.048213e+001
1.383841e+003, 3.045967e+001
1.385769e+003, 3.028642e+001
1.387698e+003, 2.998480e+001
1.389626e+003, 2.997500e+001
1.391554e+003, 3.013495e+001
1.393483e+003, 3.005565e+001
1.395411e+003, 2.986194e+001
1.397340e+003, 2.972891e+001
1.399268e+003, 2.960018e+001
1.401197e+003, 2.943563e+001
1.403125e+003, 2.924166e+001
1.405054e+003, 2.889940e+001
1.406982e+003, 2.880108e+001
1.408911e+003, 2.926022e+001
1.410839e+003, 2.941350e+001
1.412768e+003, 2.902541e+001
1.414696e+003, 2.887581e+001
1.416625e+003, 2.895770e+001
1.418553e+003, 2.892728e+001
1.420481e+003, 2.881249e+001
1.422410e+003, 2.869393e+001
1.424338e+003, 2.857780e+001
1.426267e+003, 2.846899e+001
1.428195e+003, 2.837674e+001
1.430124e+003, 2.833019e+001
1.432052e+003, 2.825651e+001
1.433981e+003, 2.810376e+001
1.435909e+003, 2.802112e+001
1.437838e+003, 2.807963e+001
1.439766e+003, 2.788959e+001
1.441695e+003, 2.739903e+001
1.443623e+003, 2.743835e+001
1.445552e+003, 2.785290e+001
1.447480e+003, 2.775326e+001
1.449408e+003, 2.737522e+001
1.451337e+003, 2.705496e+001
1.453265e+003, 2.687415e+001
1.455194e+003, 2.707898e+001
1.457122e+003, 2.718153e+001
1.459051e+003, 2.685846e+001
1.460979e+003, 2.659335e+001
1.462908e+003, 2.650597e+001
1.464836e+003, 2.631634e+001
1.466765e+003, 2.600854e+001
1.468693e+003, 2.614665e+001
1.470622e+003, 2.660251e+001
1.472550e+003, 2.672283e+001
1.474479e+003, 2.661995e+001
1.476407e+003, 2.642619e+001
1.478335e+003, 2.620893e+001
1.480264e+003, 2.600291e+001
1.482192e+003, 2.583769e+001
1.484121e+003, 2.571639e+001
1.486049e+003, 2.566887e+001
1.487978e+003, 2.573512e+001
1.489906e+003, 2.570031e+001
1.491835e+003, 2.555981e+001
1.493763e+003, 2.551039e+001
1.495692e+003, 2.549594e+001
1.497620e+003, 2.529697e+001
1.499549e+003, 2.505164e+001
1.501477e+003, 2.485615e+001
1.503406e+003, 2.479937e+001
1.505334e+003, 2.511447e+001
1.507262e+003, 2.524719e+001
1.509191e+003, 2.487591e+001
1.511119e+003, 2.469607e+001
1.513048e+003, 2.478722e+001
1.514976e+003, 2.485348e+001
1.516905e+003, 2.486253e+001
1.518833e+003, 2.447249e+001
1.520762e+003, 2.403817e+001
1.522690e+003, 2.418115e+001
1.524619e+003, 2.452172e+001
1.526547e+003, 2.498390e+001
1.528476e+003, 2.511860e+001
1.530404e+003, 2.464239e+001
1.532333e+003, 2.436843e+001
1.534261e+003, 2.444940e+001
1.536189e+003, 2.447898e+001
1.538118e+003, 2.444505e+001
1.540046e+003, 2.430207e+001
1.541975e+003, 2.410241e+001
1.543903e+003, 2.388135e+001
1.545832e+003, 2.372083e+001
1.547760e+003, 2.366952e+001
1.549689e+003, 2.371867e+001
1.551617e+003, 2.389907e+001
1.553546e+003, 2.397361e+001
1.555474e+003, 2.391144e+001
1.557403e+003, 2.383285e+001
1.559331e+003, 2.371923e+001
1.561260e+003, 2.339196e+001
1.563188e+003, 2.308827e+001
1.565116e+003, 2.318635e+001
1.567045e+003, 2.333869e+001
1.568973e+003, 2.336648e+001
1.570902e+003, 2.335285e+001
1.572830e+003, 2.331942e+001
1.574759e+003, 2.314995e+001
1.576687e+003, 2.285207e+001
1.578616e+003, 2.246046e+001
1.580544e+003, 2.213797e+001
1.582473e+003, 2.231735e+001
1.584401e+003, 2.255045e+001
1.586330e+003, 2.243656e+001
1.588258e+003, 2.225471e+001
1.590187e+003, 2.209344e+001
1.592115e+003, 2.190697e+001
1.594043e+003, 2.168669e+001
1.595972e+003, 2.161103e+001
1.597900e+003, 2.161296e+001
1.599829e+003, 2.145727e+001
1.601757e+003, 2.122683e+001
1.603686e+003, 2.099257e+001
1.605614e+003, 2.075631e+001
1.607543e+003, 2.045421e+001
1.609471e+003, 2.030560e+001
1.611400e+003, 2.040769e+001
1.613328e+003, 2.038267e+001
1.615257e+003, 2.023721e+001
1.617185e+003, 1.994314e+001
1.619114e+003, 1.962689e+001
1.621042e+003, 1.941414e+001
1.622970e+003, 1.934325e+001
1.624899e+003, 1.950071e+001
1.626827e+003, 1.960111e+001
1.628756e+003, 1.957531e+001
1.630684e+003, 1.950043e+001
1.632613e+003, 1.938307e+001
1.634541e+003, 1.924750e+001
1.636470e+003, 1.907381e+001
1.638398e+003, 1.874731e+001
1.640327e+003, 1.852396e+001
1.642255e+003, 1.858221e+001
1.644184e+003, 1.855605e+001
1.646112e+003, 1.836152e+001
1.648041e+003, 1.816920e+001
1.649969e+003, 1.801107e+001
1.651897e+003, 1.805401e+001
1.653826e+003, 1.810243e+001
1.655754e+003, 1.780062e+001
1.657683e+003, 1.755200e+001
1.659611e+003, 1.754070e+001
1.661540e+003, 1.761246e+001
1.663468e+003, 1.774031e+001
1.665397e+003, 1.756174e+001
1.667325e+003, 1.718793e+001
1.669254e+003, 1.695386e+001
1.671182e+003, 1.688825e+001
1.673111e+003, 1.720134e+001
1.675039e+003, 1.734464e+001
1.676968e+003, 1.704539e+001
1.678896e+003, 1.685361e+001
1.680824e+003, 1.681424e+001
1.682753e+003, 1.693896e+001
1.684681e+003, 1.708391e+001
1.686610e+003, 1.686722e+001
1.688538e+003, 1.671124e+001
1.690467e+003, 1.716998e+001
1.692395e+003, 1.726073e+001
1.694324e+003, 1.662849e+001
1.696252e+003, 1.641480e+001
1.698181e+003, 1.654467e+001
1.700109e+003, 1.637250e+001
1.702038e+003, 1.616272e+001
1.703966e+003, 1.631187e+001
1.705895e+003, 1.640597e+001
1.707823e+003, 1.619064e+001
1.709751e+003, 1.602732e+001
1.711680e+003, 1.594409e+001
1.713608e+003, 1.595161e+001
1.715537e+003, 1.601780e+001
1.717465e+003, 1.612321e+001
1.719394e+003, 1.615530e+001
1.721322e+003, 1.603080e+001
1.723251e+003, 1.582984e+001
1.725179e+003, 1.552702e+001
1.727108e+003, 1.549541e+001
1.729036e+003, 1.566481e+001
1.730965e+003, 1.581868e+001
1.732893e+003, 1.581902e+001
1.734822e+003, 1.536946e+001
1.736750e+003, 1.514976e+001
1.738678e+003, 1.542306e+001
1.740607e+003, 1.551209e+001
1.742535e+003, 1.538493e+001
1.744464e+003, 1.534853e+001
1.746392e+003, 1.531280e+001
1.748321e+003, 1.506349e+001
1.750249e+003, 1.493672e+001
1.752178e+003, 1.509949e+001
1.754106e+003, 1.513923e+001
1.756035e+003, 1.501802e+001
1.757963e+003, 1.493840e+001
1.759892e+003, 1.487817e+001
1.761820e+003, 1.475725e+001
1.763749e+003, 1.470238e+001
1.765677e+003, 1.486907e+001
1.767605e+003, 1.476252e+001
1.769534e+003, 1.436596e+001
1.771462e+003, 1.435471e+001
1.773391e+003, 1.455292e+001
1.775319e+003, 1.466746e+001
1.777248e+003, 1.466335e+001
1.779176e+003, 1.441387e+001
1.781105e+003, 1.429895e+001
1.783033e+003, 1.435417e+001
1.784962e+003, 1.431355e+001
1.786890e+003, 1.425119e+001
1.788819e+003, 1.441938e+001
1.790747e+003, 1.447647e+001
1.792676e+003, 1.405933e+001
1.794604e+003, 1.383711e+001
1.796532e+003, 1.389800e+001
1.798461e+003, 1.369513e+001
1.800389e+003, 1.345154e+001
1.802318e+003, 1.373648e+001
1.804246e+003, 1.397296e+001
1.806175e+003, 1.374176e+001
1.808103e+003, 1.369782e+001
1.810032e+003, 1.392690e+001
1.811960e+003, 1.379074e+001
1.813889e+003, 1.351336e+001
1.815817e+003, 1.348859e+001
1.817746e+003, 1.351657e+001
1.819674e+003, 1.349663e+001
1.821603e+003, 1.361959e+001
1.823531e+003, 1.387271e+001
1.825459e+003, 1.367927e+001
1.827388e+003, 1.333772e+001
1.829316e+003, 1.325497e+001
1.831245e+003, 1.327805e+001
1.833173e+003, 1.338181e+001
1.835102e+003, 1.343500e+001
1.837030e+003, 1.342192e+001
1.838959e+003, 1.331103e+001
1.840887e+003, 1.316136e+001
1.842816e+003, 1.299726e+001
1.844744e+003, 1.291038e+001
1.846673e+003, 1.292483e+001
1.848601e+003, 1.288512e+001
1.850530e+003, 1.280638e+001
1.852458e+003, 1.275114e+001
1.854386e+003, 1.272836e+001
1.856315e+003, 1.280019e+001
1.858243e+003, 1.272487e+001
1.860172e+003, 1.249424e+001
1.862100e+003, 1.258298e+001
1.864029e+003, 1.279148e+001
1.865957e+003, 1.277512e+001
1.867886e+003, 1.269414e+001
1.869814e+003, 1.260640e+001
1.871743e+003, 1.252684e+001
1.873671e+003, 1.245660e+001
1.875600e+003, 1.238816e+001
1.877528e+003, 1.234318e+001
1.879457e+003, 1.237569e+001
1.881385e+003, 1.237073e+001
1.883313e+003, 1.230284e+001
1.885242e+003, 1.216252e+001
1.887170e+003, 1.202302e+001
1.889099e+003, 1.209340e+001
1.891027e+003, 1.216698e+001
1.892956e+003, 1.210637e+001
1.894884e+003, 1.208750e+001
1.896813e+003, 1.210915e+001
1.898741e+003, 1.190442e+001
1.900670e+003, 1.168118e+001
1.902598e+003, 1.162808e+001
1.904527e+003, 1.171453e+001
1.906455e+003, 1.200083e+001
1.908384e+003, 1.183448e+001
1.910312e+003, 1.146168e+001
1.912240e+003, 1.160425e+001
1.914169e+003, 1.172681e+001
1.916097e+003, 1.154836e+001
1.918026e+003, 1.145089e+001
1.919954e+003, 1.144836e+001
1.921883e+003, 1.123297e+001
1.923811e+003, 1.103270e+001
1.925740e+003, 1.109044e+001
1.927668e+003, 1.117002e+001
1.929597e+003, 1.122478e+001
1.931525e+003, 1.138978e+001
1.933454e+003, 1.155856e+001
1.935382e+003, 1.152572e+001
1.937311e+003, 1.141741e+001
1.939239e+003, 1.127097e+001
1.941167e+003, 1.115442e+001
1.943096e+003, 1.108732e+001
1.945024e+003, 1.116661e+001
1.946953e+003, 1.119168e+001
1.948881e+003, 1.095687e+001
1.950810e+003, 1.084080e+001
1.952738e+003, 1.085682e+001
1.954667e+003, 1.088065e+001
1.956595e+003, 1.082978e+001
1.958524e+003, 1.048063e+001
1.960452e+003, 1.038180e+001
1.962381e+003, 1.062259e+001
1.964309e+003, 1.076647e+001
1.966238e+003, 1.077667e+001
1.968166e+003, 1.054575e+001
1.970094e+003, 1.036878e+001
1.972023e+003, 1.038187e+001
1.973951e+003, 1.031210e+001
1.975880e+003, 1.021060e+001
1.977808e+003, 1.019969e+001
1.979737e+003, 1.025905e+001
1.981665e+003, 1.047816e+001
1.983594e+003, 1.036920e+001
1.985522e+003, 1.005157e+001
1.987451e+003, 1.028888e+001
1.989379e+003, 1.041806e+001
1.991308e+003, 9.898233e+000
1.993236e+003, 9.697200e+000
1.995165e+003, 9.859262e+000
1.997093e+003, 9.903421e+000
1.999021e+003, 9.888020e+000
2.000950e+003, 9.848537e+000
2.002878e+003, 9.811716e+000
2.004807e+003, 9.794252e+000
2.006735e+003, 1.008603e+001
2.008664e+003, 1.027262e+001
2.010592e+003, 9.770130e+000
2.012521e+003, 9.487218e+000
2.014449e+003, 9.594356e+000
2.016378e+003, 9.608470e+000
2.018306e+003, 9.553811e+000
2.020235e+003, 9.419230e+000
2.022163e+003, 9.388732e+000
2.024092e+003, 9.492735e+000
2.026020e+003, 9.514691e+000
2.027948e+003, 9.475810e+000
2.029877e+003, 9.391696e+000
2.031805e+003, 9.326234e+000
2.033734e+003, 9.293280e+000
2.035662e+003, 9.192248e+000
2.037591e+003, 9.098269e+000
2.039519e+003, 9.149043e+000
2.041448e+003, 9.234692e+000
2.043376e+003, 9.329923e+000
2.045305e+003, 9.116343e+000
2.047233e+003, 9.037569e+000
2.049162e+003, 1.026756e+001
2.051090e+003, 1.076246e+001
2.053019e+003, 9.845157e+000
2.054947e+003, 9.237336e+000
2.056875e+003, 8.938295e+000
2.058804e+003, 8.954051e+000
2.060732e+003, 8.935007e+000
2.062661e+003, 8.748354e+000
2.064589e+003, 8.690599e+000
2.066518e+003, 8.700961e+000
2.068446e+003, 8.700468e+000
2.070375e+003, 8.680213e+000
2.072303e+003, 8.631164e+000
2.074232e+003, 8.656139e+000
2.076160e+003, 8.665734e+000
2.078089e+003, 8.499477e+000
2.080017e+003, 8.427465e+000
2.081946e+003, 8.532444e+000
2.083874e+003, 8.340165e+000
2.085802e+003, 8.177540e+000
2.087731e+003, 8.533712e+000
2.089659e+003, 8.641034e+000
2.091588e+003, 8.342097e+000
2.093516e+003, 8.170671e+000
2.095445e+003, 8.122060e+000
2.097373e+003, 8.238293e+000
2.099302e+003, 8.268729e+000
2.101230e+003, 8.188513e+000
2.103159e+003, 8.150904e+000
2.105087e+003, 8.137514e+000
2.107016e+003, 8.131522e+000
2.108944e+003, 8.171749e+000
2.110873e+003, 8.226922e+000
2.112801e+003, 8.175947e+000
2.114729e+003, 8.012586e+000
2.116658e+003, 7.671351e+000
2.118586e+003, 7.656128e+000
2.120515e+003, 7.870728e+000
2.122443e+003, 7.996762e+000
2.124372e+003, 7.994306e+000
2.126300e+003, 7.831067e+000
2.128229e+003, 7.720436e+000
2.130157e+003, 7.646421e+000
2.132086e+003, 7.533677e+000
2.134014e+003, 7.510638e+000
2.135943e+003, 7.616409e+000
2.137871e+003, 7.502897e+000
2.139800e+003, 7.369675e+000
2.141728e+003, 7.507734e+000
2.143656e+003, 7.570191e+000
2.145585e+003, 7.516340e+000
2.147513e+003, 7.571125e+000
2.149442e+003, 7.598202e+000
2.151370e+003, 7.462883e+000
2.153299e+003, 7.379691e+000
2.155227e+003, 7.366976e+000
2.157156e+003, 7.470303e+000
2.159084e+003, 7.561969e+000
2.161013e+003, 7.599079e+000
2.162941e+003, 7.419268e+000
2.164870e+003, 7.189676e+000
2.166798e+003, 7.262937e+000
2.168727e+003, 7.345276e+000
2.170655e+003, 7.359537e+000
2.172583e+003, 7.385129e+000
2.174512e+003, 7.355583e+000
2.176440e+003, 7.181633e+000
2.178369e+003, 7.051920e+000
2.180297e+003, 6.985061e+000
2.182226e+003, 6.930586e+000
2.184154e+003, 6.842255e+000
2.186083e+003, 6.676591e+000
2.188011e+003, 6.820810e+000
2.189940e+003, 7.091866e+000
2.191868e+003, 7.083023e+000
2.193797e+003, 6.975336e+000
2.195725e+003, 6.829897e+000
2.197654e+003, 6.872056e+000
2.199582e+003, 6.927877e+000
2.201510e+003, 6.779256e+000
2.203439e+003, 6.675838e+000
2.205367e+003, 6.633962e+000
2.207296e+003, 6.618505e+000
2.209224e+003, 6.640326e+000
2.211153e+003, 6.731305e+000
2.213081e+003, 6.621038e+000
2.215010e+003, 6.437704e+000
2.216938e+003, 6.373795e+000
2.218867e+003, 6.369507e+000
2.220795e+003, 6.398397e+000
2.222724e+003, 6.234457e+000
2.224652e+003, 6.175424e+000
2.226581e+003, 6.546144e+000
2.228509e+003, 6.696327e+000
2.230438e+003, 6.645094e+000
2.232366e+003, 6.438790e+000
2.234294e+003, 6.312255e+000
2.236223e+003, 6.341244e+000
2.238151e+003, 6.373926e+000
2.240080e+003, 6.377510e+000
2.242008e+003, 6.320764e+000
2.243937e+003, 6.286592e+000
2.245865e+003, 6.250285e+000
2.247794e+003, 6.026771e+000
2.249722e+003, 5.940165e+000
2.251651e+003, 6.096771e+000
2.253579e+003, 6.171330e+000
2.255508e+003, 6.173872e+000
2.257436e+003, 6.117320e+000
2.259365e+003, 6.027430e+000
2.261293e+003, 5.936113e+000
2.263221e+003, 5.950666e+000
2.265150e+003, 5.952209e+000
2.267078e+003, 5.905114e+000
2.269007e+003, 6.055861e+000
2.270935e+003, 6.175664e+000
2.272864e+003, 5.946709e+000
2.274792e+003, 5.775823e+000
2.276721e+003, 5.718062e+000
2.278649e+003, 5.826155e+000
2.280578e+003, 5.929098e+000
2.282506e+003, 5.972788e+000
2.284435e+003, 6.027299e+000
2.286363e+003, 6.014676e+000
2.288292e+003, 5.769287e+000
2.290220e+003, 5.718821e+000
2.292148e+003, 5.803542e+000
2.294077e+003, 5.866436e+000
2.296005e+003, 5.722838e+000
2.297934e+003, 5.331663e+000
2.299862e+003, 5.577792e+000
2.301791e+003, 5.847477e+000
2.303719e+003, 5.597463e+000
2.305648e+003, 5.500116e+000
2.307576e+003, 5.509930e+000
2.309505e+003, 5.478771e+000
2.311433e+003, 5.489332e+000
2.313362e+003, 5.537238e+000
2.315290e+003, 5.356908e+000
2.317219e+003, 5.238058e+000
2.319147e+003, 5.338511e+000
2.321075e+003, 5.454053e+000
2.323004e+003, 5.511124e+000
2.324932e+003, 5.420110e+000
2.326861e+003, 5.359492e+000
2.328789e+003, 5.322895e+000
2.330718e+003, 5.161608e+000
2.332646e+003, 5.044232e+000
2.334575e+003, 5.024408e+000
2.336503e+003, 5.131436e+000
2.338432e+003, 5.204228e+000
2.340360e+003, 5.119139e+000
2.342289e+003, 5.149917e+000
2.344217e+003, 5.219076e+000
2.346146e+003, 5.101747e+000
2.348074e+003, 5.177257e+000
2.350002e+003, 5.376992e+000
2.351931e+003, 5.169355e+000
2.353859e+003, 4.903653e+000
2.355788e+003, 4.714602e+000
2.357716e+003, 4.892795e+000
2.359645e+003, 5.091177e+000
2.361573e+003, 4.941764e+000
2.363502e+003, 5.022912e+000
2.365430e+003, 5.173089e+000
2.367359e+003, 5.067179e+000
2.369287e+003, 4.911407e+000
2.371216e+003, 4.783155e+000
2.373144e+003, 4.911453e+000
2.375073e+003, 5.011138e+000
2.377001e+003, 4.970369e+000
2.378929e+003, 5.041873e+000
2.380858e+003, 5.040345e+000
2.382786e+003, 4.786675e+000
2.384715e+003, 4.659079e+000
2.386643e+003, 4.612560e+000
2.388572e+003, 4.546077e+000
2.390500e+003, 4.601100e+000
2.392429e+003, 4.733574e+000
2.394357e+003, 4.778626e+000
2.396286e+003, 4.726793e+000
2.398214e+003, 4.588661e+000
2.400143e+003, 4.535527e+000
2.402071e+003, 4.560479e+000
2.404000e+003, 4.656470e+000
2.405928e+003, 4.548281e+000
2.407856e+003, 4.473250e+000
2.409785e+003, 4.663600e+000
2.411713e+003, 4.789908e+000
2.413642e+003, 4.807698e+000
2.415570e+003, 4.646543e+000
2.417499e+003, 4.484642e+000
2.419427e+003, 4.359664e+000
2.421356e+003, 4.277143e+000
2.423284e+003, 4.338125e+000
2.425213e+003, 4.508746e+000
2.427141e+003, 4.370605e+000
2.429070e+003, 4.352506e+000
2.430998e+003, 4.652007e+000
2.432927e+003, 4.573504e+000
2.434855e+003, 4.371384e+000
2.436783e+003, 4.219419e+000
2.438712e+003, 4.315106e+000
2.440640e+003, 4.417440e+000
2.442569e+003, 4.121126e+000
2.444497e+003, 4.016929e+000
2.446426e+003, 4.067603e+000
2.448354e+003, 4.078181e+000
2.450283e+003, 4.085718e+000
2.452211e+003, 4.107938e+000
2.454140e+003, 4.252022e+000
2.456068e+003, 4.235348e+000
2.457997e+003, 4.001110e+000
2.459925e+003, 4.065041e+000
2.461854e+003, 4.151967e+000
2.463782e+003, 4.129923e+000
2.465710e+003, 4.162595e+000
2.467639e+003, 4.172511e+000
2.469567e+003, 4.110260e+000
2.471496e+003, 3.929502e+000
2.473424e+003, 3.820266e+000
2.475353e+003, 3.991411e+000
2.477281e+003, 4.010098e+000
2.479210e+003, 3.942983e+000
2.481138e+003, 3.958758e+000
2.483067e+003, 3.908560e+000
2.484995e+003, 3.815579e+000
2.486924e+003, 3.765088e+000
2.488852e+003, 3.754987e+000
2.490781e+003, 3.793396e+000
2.492709e+003, 3.964614e+000
2.494637e+003, 3.968570e+000
2.496566e+003, 3.795755e+000
2.498494e+003, 3.732439e+000
2.500423e+003, 3.719886e+000
2.502351e+003, 3.732435e+000
2.504280e+003, 3.841445e+000
2.506208e+003, 3.783619e+000
2.508137e+003, 3.429851e+000
2.510065e+003, 3.587361e+000
2.511994e+003, 3.785502e+000
2.513922e+003, 3.694885e+000
2.515851e+003, 3.585122e+000
2.517779e+003, 3.516909e+000
2.519708e+003, 3.562270e+000
2.521636e+003, 3.561126e+000
2.523564e+003, 3.554365e+000
2.525493e+003, 3.609327e+000
2.527421e+003, 3.474425e+000
2.529350e+003, 3.340737e+000
2.531278e+003, 3.472991e+000
2.533207e+003, 3.530854e+000
2.535135e+003, 3.504035e+000
2.537064e+003, 3.412469e+000
2.538992e+003, 3.386348e+000
2.540921e+003, 3.447003e+000
2.542849e+003, 3.669478e+000
2.544778e+003, 3.646671e+000
2.546706e+003, 3.474626e+000
2.548635e+003, 3.607250e+000
2.550563e+003, 3.472819e+000
2.552491e+003, 3.157872e+000
2.554420e+003, 3.168900e+000
2.556348e+003, 3.281810e+000
2.558277e+003, 3.409535e+000
2.560205e+003, 3.434657e+000
2.562134e+003, 3.405091e+000
2.564062e+003, 3.331143e+000
2.565991e+003, 3.144812e+000
2.567919e+003, 3.155744e+000
2.569848e+003, 3.339322e+000
2.571776e+003, 3.348843e+000
2.573705e+003, 3.310761e+000
2.575633e+003, 3.264331e+000
2.577562e+003, 3.206492e+000
2.579490e+003, 3.151291e+000
2.581418e+003, 3.107742e+000
2.583347e+003, 3.109680e+000
2.585275e+003, 3.130486e+000
2.587204e+003, 3.154766e+000
2.589132e+003, 3.134693e+000
2.591061e+003, 3.043972e+000
2.592989e+003, 2.912843e+000
2.594918e+003, 3.189449e+000
2.596846e+003, 3.183683e+000
2.598775e+003, 2.788240e+000
2.600703e+003, 2.789182e+000
2.602632e+003, 3.006791e+000
2.604560e+003, 3.310880e+000
2.606489e+003, 3.122161e+000
2.608417e+003, 2.956466e+000
2.610345e+003, 2.955771e+000
2.612274e+003, 3.037534e+000
2.614202e+003, 3.064672e+000
2.616131e+003, 3.004489e+000
2.618059e+003, 2.854919e+000
2.619988e+003, 2.882434e+000
2.621916e+003, 3.056220e+000
2.623845e+003, 2.894108e+000
2.625773e+003, 2.806725e+000
2.627702e+003, 2.867901e+000
2.629630e+003, 3.016330e+000
2.631559e+003, 2.930426e+000
2.633487e+003, 2.704070e+000
2.635416e+003, 2.875541e+000
2.637344e+003, 2.915496e+000
2.639272e+003, 2.795566e+000
2.641201e+003, 2.710288e+000
2.643129e+003, 2.655693e+000
2.645058e+003, 2.615130e+000
2.646986e+003, 2.529314e+000
2.648915e+003, 2.572834e+000
2.650843e+003, 2.660547e+000
2.652772e+003, 2.561825e+000
2.654700e+003, 2.600641e+000
2.656629e+003, 2.660192e+000
2.658557e+003, 2.475351e+000
2.660486e+003, 2.438891e+000
2.662414e+003, 2.532726e+000
2.664343e+003, 2.704726e+000
2.666271e+003, 2.717068e+000
2.668199e+003, 2.693472e+000
2.670128e+003, 2.781947e+000
2.672056e+003, 2.601104e+000
2.673985e+003, 2.432972e+000
2.675913e+003, 2.500211e+000
2.677842e+003, 2.412656e+000
2.679770e+003, 2.414868e+000
2.681699e+003, 2.631085e+000
2.683627e+003, 2.532653e+000
2.685556e+003, 2.405912e+000
2.687484e+003, 2.397347e+000
2.689413e+003, 2.509974e+000
2.691341e+003, 2.621936e+000
2.693270e+003, 2.675134e+000
2.695198e+003, 2.597903e+000
2.697126e+003, 2.486401e+000
2.699055e+003, 2.395610e+000
2.700983e+003, 2.425182e+000
2.702912e+003, 2.418355e+000
2.704840e+003, 2.375164e+000
2.706769e+003, 2.378373e+000
2.708697e+003, 2.377898e+000
2.710626e+003, 2.330636e+000
2.712554e+003, 2.123751e+000
2.714483e+003, 2.163030e+000
2.716411e+003, 2.266598e+000
2.718340e+003, 2.164037e+000
2.720268e+003, 2.146630e+000
2.722197e+003, 2.187375e+000
2.724125e+003, 2.263642e+000
2.726053e+003, 2.313910e+000
2.727982e+003, 2.249682e+000
2.729910e+003, 2.034615e+000
2.731839e+003, 2.130444e+000
2.733767e+003, 2.221339e+000
2.735696e+003, 2.195087e+000
2.737624e+003, 2.008086e+000
2.739553e+003, 2.038788e+000
2.741481e+003, 2.223119e+000
2.743410e+003, 2.123668e+000
2.745338e+003, 2.047783e+000
2.747267e+003, 2.007270e+000
2.749195e+003, 1.946061e+000
2.751124e+003, 1.917252e+000
2.753052e+003, 1.974638e+000
2.754980e+003, 2.171683e+000
2.756909e+003, 2.020501e+000
2.758837e+003, 1.884313e+000
2.760766e+003, 1.951818e+000
2.762694e+003, 1.936720e+000
2.764623e+003, 1.878458e+000
2.766551e+003, 1.814379e+000
2.768480e+003, 1.834834e+000
2.770408e+003, 1.766300e+000
2.772337e+003, 1.681934e+000
2.774265e+003, 1.843321e+000
2.776194e+003, 1.973091e+000
2.778122e+003, 2.030487e+000
2.780051e+003, 1.989529e+000
2.781979e+003, 2.024116e+000
2.783907e+003, 2.008719e+000
2.785836e+003, 1.827873e+000
2.787764e+003, 1.832052e+000
2.789693e+003, 1.851341e+000
2.791621e+003, 1.830336e+000
2.793550e+003, 1.918711e+000
2.795478e+003, 1.888037e+000
2.797407e+003, 1.788647e+000
2.799335e+003, 1.865078e+000
2.801264e+003, 1.884077e+000
2.803192e+003, 1.806128e+000
2.805121e+003, 1.617740e+000
2.807049e+003, 1.533226e+000
2.808978e+003, 1.632239e+000
2.810906e+003, 1.886541e+000
2.812834e+003, 1.755647e+000
2.814763e+003, 1.780794e+000
2.816691e+003, 1.989903e+000
2.818620e+003, 1.795003e+000
2.820548e+003, 1.652552e+000
2.822477e+003, 1.626076e+000
2.824405e+003, 1.740398e+000
2.826334e+003, 1.622083e+000
2.828262e+003, 1.537844e+000
2.830191e+003, 1.700484e+000
2.832119e+003, 1.714307e+000
2.834048e+003, 1.601057e+000
2.835976e+003, 1.437565e+000
2.837905e+003, 1.545283e+000
2.839833e+003, 1.479872e+000
2.841761e+003, 1.358984e+000
2.843690e+003, 1.559008e+000
2.845618e+003, 1.441231e+000
2.847547e+003, 1.333362e+000
2.849475e+003, 1.557086e+000
2.851404e+003, 1.567407e+000
2.853332e+003, 1.546155e+000
2.855261e+003, 1.551181e+000
2.857189e+003, 1.497691e+000
2.859118e+003, 1.578114e+000
2.861046e+003, 1.676786e+000
2.862975e+003, 1.587848e+000
2.864903e+003, 1.566323e+000
2.866832e+003, 1.521143e+000
2.868760e+003, 1.398375e+000
2.870688e+003, 1.305391e+000
2.872617e+003, 1.256429e+000
2.874545e+003, 1.277300e+000
2.876474e+003, 1.480365e+000
2.878402e+003, 1.571137e+000
2.880331e+003, 1.528359e+000
2.882259e+003, 1.362566e+000
2.884188e+003, 1.317504e+000
2.886116e+003, 1.243362e+000
2.888045e+003, 1.134387e+000
2.889973e+003, 1.303183e+000
2.891902e+003, 1.457344e+000
2.893830e+003, 1.499568e+000
2.895759e+003, 1.344414e+000
2.897687e+003, 1.257189e+000
2.899615e+003, 1.207049e+000
2.901544e+003, 1.167151e+000
2.903472e+003, 1.218851e+000
2.905401e+003, 1.225136e+000
2.907329e+003, 1.209132e+000
2.909258e+003, 1.304833e+000
2.911186e+003, 1.313075e+000
2.913115e+003, 1.268016e+000
2.915043e+003, 1.215847e+000
2.916972e+003, 1.246129e+000
2.918900e+003, 1.286625e+000
2.920829e+003, 1.312450e+000
2.922757e+003, 1.331102e+000
2.924686e+003, 1.278686e+000
2.926614e+003, 1.225049e+000
2.928542e+003, 1.225716e+000
2.930471e+003, 1.141014e+000
2.932399e+003, 1.079945e+000
2.934328e+003, 1.097630e+000
2.936256e+003, 1.308412e+000
2.938185e+003, 1.166237e+000
2.940113e+003, 9.894925e-001
2.942042e+003, 1.117875e+000
2.943970e+003, 1.321485e+000
2.945899e+003, 1.232885e+000
2.947827e+003, 9.720865e-001
2.949756e+003, 1.198469e+000
2.951684e+003, 1.290162e+000
2.953613e+003, 1.251256e+000
2.955541e+003, 1.146154e+000
2.957469e+003, 1.244488e+000
2.959398e+003, 1.248875e+000
2.961326e+003, 1.146937e+000
2.963255e+003, 1.134188e+000
2.965183e+003, 1.162117e+000
2.967112e+003, 1.163684e+000
2.969040e+003, 1.094411e+000
2.970969e+003, 1.048607e+000
2.972897e+003, 1.005812e+000
2.974826e+003, 1.001986e+000
2.976754e+003, 1.116022e+000
2.978683e+003, 1.271060e+000
2.980611e+003, 1.235577e+000
2.982540e+003, 9.759414e-001
2.984468e+003, 1.197312e+000
2.986396e+003, 1.170086e+000
2.988325e+003, 1.029357e+000
2.990253e+003, 1.144600e+000
2.992182e+003, 1.017022e+000
2.994110e+003, 8.921795e-001
2.996039e+003, 8.744844e-001
2.997967e+003, 9.418885e-001
2.999896e+003, 9.112476e-001
3.001824e+003, 8.369727e-001
3.003753e+003, 7.920036e-001
3.005681e+003, 8.893830e-001
3.007610e+003, 9.229525e-001
3.009538e+003, 8.974852e-001
3.011467e+003, 9.286939e-001
3.013395e+003, 9.663304e-001
3.015323e+003, 1.008019e+000
3.017252e+003, 1.032040e+000
3.019180e+003, 8.643163e-001
3.021109e+003, 9.121295e-001
3.023037e+003, 9.243066e-001
3.024966e+003, 5.765705e-001
3.026894e+003, 5.202883e-001
3.028823e+003, 6.480197e-001
3.030751e+003, 8.378428e-001
3.032680e+003, 9.438123e-001
3.034608e+003, 8.066899e-001
3.036537e+003, 7.014441e-001
3.038465e+003, 7.631817e-001
3.040394e+003, 9.185002e-001
3.042322e+003, 8.588775e-001
3.044250e+003, 7.838849e-001
3.046179e+003, 8.842651e-001
3.048107e+003, 8.502930e-001
3.050036e+003, 6.809827e-001
3.051964e+003, 5.477855e-001
3.053893e+003, 7.477999e-001
3.055821e+003, 7.583296e-001
3.057750e+003, 6.770360e-001
3.059678e+003, 5.959118e-001
3.061607e+003, 5.888306e-001
3.063535e+003, 7.802935e-001
3.065464e+003, 8.584474e-001
3.067392e+003, 7.491750e-001
3.069321e+003, 2.179349e+000
3.071249e+003, 1.752127e+000
3.073177e+003, 6.225436e-001
3.075106e+003, 7.484897e-001
3.077034e+003, 6.103144e-001
3.078963e+003, 5.783800e-001
3.080891e+003, 6.835951e-001
3.082820e+003, 8.122326e-001
3.084748e+003, 8.189619e-001
3.086677e+003, 7.569329e-001
3.088605e+003, 6.691319e-001
3.090534e+003, 5.867534e-001
3.092462e+003, 5.669915e-001
3.094391e+003, 6.631985e-001
3.096319e+003, 8.231347e-001
3.098248e+003, 6.514215e-001
3.100176e+003, 6.389912e-001
3.102104e+003, 7.333108e-001
3.104033e+003, 8.067330e-001
3.105961e+003, 5.664343e-001
3.107890e+003, 5.857144e-001
3.109818e+003, 6.904072e-001
3.111747e+003, 6.059973e-001
3.113675e+003, 5.111020e-001
3.115604e+003, 6.425852e-001
3.117532e+003, 7.674885e-001
3.119461e+003, 4.623050e-001
3.121389e+003, 5.905867e-001
3.123318e+003, 6.348953e-001
3.125246e+003, 5.351008e-001
3.127175e+003, 4.321238e-001
3.129103e+003, 5.169462e-001
3.131031e+003, 5.906059e-001
3.132960e+003, 5.966390e-001
3.134888e+003, 5.817585e-001
3.136817e+003, 5.604678e-001
3.138745e+003, 5.982059e-001
3.140674e+003, 6.609784e-001
3.142602e+003, 5.948362e-001
3.144531e+003, 3.715786e-001
3.146459e+003, 3.108386e-001
3.148388e+003, 4.574272e-001
3.150316e+003, 4.565277e-001
3.152245e+003, 5.762284e-001
3.154173e+003, 6.701194e-001
3.156102e+003, 6.475557e-001
3.158030e+003, 4.754569e-001
3.159958e+003, 4.360930e-001
3.161887e+003, 4.399797e-001
3.163815e+003, 4.239016e-001
3.165744e+003, 4.085758e-001
3.167672e+003, 2.931689e-001
3.169601e+003, 3.481098e-001
3.171529e+003, 6.063703e-001
3.173458e+003, 6.040933e-001
3.175386e+003, 4.819237e-001
3.177315e+003, 3.845842e-001
3.179243e+003, 3.713857e-001
3.181172e+003, 3.624882e-001
3.183100e+003, 4.511862e-001
3.185029e+003, 5.466648e-001
3.186957e+003, 5.734503e-001
3.188885e+003, 4.590405e-001
3.190814e+003, 5.417302e-001
3.192742e+003, 6.202822e-001
3.194671e+003, 5.771692e-001
3.196599e+003, 4.608906e-001
3.198528e+003, 5.250311e-001
3.200456e+003, 5.689285e-001
3.202385e+003, 4.971848e-001
3.204313e+003, 3.592550e-001
3.206242e+003, 2.793736e-001
3.208170e+003, 3.318970e-001
3.210099e+003, 4.131806e-001
3.212027e+003, 2.053758e-001
3.213956e+003, 2.179587e-001
3.215884e+003, 3.450893e-001
3.217813e+003, 4.540146e-001
3.219741e+003, 3.868465e-001
3.221669e+003, 5.157050e-001
3.223598e+003, 5.423925e-001
3.225526e+003, 4.542626e-001
3.227455e+003, 3.562334e-001
3.229383e+003, 5.260783e-001
3.231312e+003, 4.577281e-001
3.233240e+003, 3.276469e-001
3.235169e+003, 4.868470e-001
3.237097e+003, 4.764525e-001
3.239026e+003, 3.210520e-001
3.240954e+003, 2.229783e-001
3.242883e+003, 3.170340e-001
3.244811e+003, 2.853989e-001
3.246740e+003, 4.475804e-001
3.248668e+003, 5.720201e-001
3.250596e+003, 5.162396e-001
3.252525e+003, 4.551614e-001
3.254453e+003, 4.450974e-001
3.256382e+003, 4.694575e-001
3.258310e+003, 4.951231e-001
3.260239e+003, 4.686248e-001
3.262167e+003, 5.454308e-001
3.264096e+003, 3.943590e-001
3.266024e+003, 1.755797e-001
3.267953e+003, 3.139553e-001
3.269881e+003, 4.630508e-001
3.271810e+003, 2.471189e-001
3.273738e+003, 4.455425e-001
3.275667e+003, 1.680544e+000
3.277595e+003, 7.487430e-001
3.279523e+003, 3.703916e-001
3.281452e+003, 4.112602e-001
3.283380e+003, 4.149572e-001
3.285309e+003, 3.741412e-001
3.287237e+003, 4.425693e-001
3.289166e+003, 4.423040e-001
3.291094e+003, 3.592915e-001
3.293023e+003, 3.461321e-001
3.294951e+003, 2.135933e-001
3.296880e+003, 2.616141e-001
3.298808e+003, 3.990142e-001
3.300737e+003, 4.270188e-001
3.302665e+003, 4.539161e-001
3.304594e+003, 2.429102e-001
3.306522e+003, 1.391195e-001
3.308450e+003, 3.040330e-001
3.310379e+003, 4.406529e-001
3.312307e+003, 3.053156e-001
3.314236e+003, 2.177865e-001
3.316164e+003, 2.418025e-001
3.318093e+003, 2.528881e-001
3.320021e+003, 2.841071e-001
3.321950e+003, 3.680496e-001
3.323878e+003, 4.380678e-001
3.325807e+003, 4.426471e-001
3.327735e+003, 4.702522e-001
3.329664e+003, 5.207710e-001
3.331592e+003, 3.519305e-001
3.333521e+003, 6.967071e-002
3.335449e+003, 1.617405e-001
3.337377e+003, 2.851200e-001
3.339306e+003, 3.616922e-001
3.341234e+003, 3.327580e-001
3.343163e+003, 2.088537e-001
3.345091e+003, 4.749835e-001
3.347020e+003, 5.720041e-001
3.348948e+003, 4.712212e-001
3.350877e+003, 3.008993e-001
3.352805e+003, 2.618617e-001
3.354734e+003, 3.804315e-001
3.356662e+003, 3.907018e-001
3.358591e+003, 3.252843e-001
3.360519e+003, 2.850349e-001
3.362448e+003, 2.153303e-001
3.364376e+003, 2.507153e-001
3.366304e+003, 3.645251e-001
3.368233e+003, 3.900519e-001
3.370161e+003, 5.941916e-002
3.372090e+003, 2.382075e-001
3.374018e+003, 2.918460e-001
3.375947e+003, 2.202726e-001
3.377875e+003, 1.769443e-001
3.379804e+003, 2.507618e-001
3.381732e+003, 3.277434e-001
3.383661e+003, 3.494300e-001
3.385589e+003, 2.593090e-001
3.387518e+003, 1.856909e-002
3.389446e+003, 1.144904e-001
3.391375e+003, 2.299781e-001
3.393303e+003, 3.083488e-001
3.395231e+003, 3.198442e-001
3.397160e+003, 2.059379e-001
3.399088e+003, 5.076588e-002
3.401017e+003, 2.196826e-001
3.402945e+003, 3.839563e-001
3.404874e+003, 2.773486e-001
3.406802e+003, 1.864000e-001
3.408731e+003, 4.496763e-001
3.410659e+003, 4.651727e-001
3.412588e+003, 3.215855e-001
3.414516e+003, 3.792959e-001
3.416445e+003, 5.959824e-001
3.418373e+003, 5.864581e-001
3.420302e+003, 3.778016e-001
3.422230e+003, 2.149906e-001
3.424158e+003, 4.261689e-001
3.426087e+003, 4.276221e-001
3.428015e+003, 3.359399e-001
3.429944e+003, 2.859114e-001
3.431872e+003, 3.007932e-001
3.433801e+003, 2.736225e-001
3.435729e+003, 2.484939e-001
3.437658e+003, 3.248020e-001
3.439586e+003, 3.871544e-001
3.441515e+003, 3.658668e-001
3.443443e+003, 3.515417e-001
3.445372e+003, 2.341335e-001
3.447300e+003, 1.857058e-001
3.449229e+003, 1.809047e-001
3.451157e+003, 1.642595e-001
3.453085e+003, 1.914913e-001
3.455014e+003, 2.106386e-001
3.456942e+003, 2.064333e-001
##END=



