##NAMES=Inderite
##RRUFFID=R050195
##IDEAL CHEMISTRY=Mg[B_3_O_3_(OH)_5_](H_2_O)_4_·H_2_O
##LOCALITY=Boron, Kern County, California, USA
##OWNER=RRUFF
##SOURCE=Dave Bunk Minerals
##DESCRIPTION=Colorless prismatic crystal
##STATUS=The identification of this mineral has been confirmed by X-ray diffraction and chemical analysis
##URL=https://www.rruff.net/odr/rruff_sample/R050195
##MEASURED CHEMISTRY=Mg_1.00_B_3.00_O_3_(OH)_5_·5H_2_O ; Mg measured, only
##DIFFRACTION SAMPLE DESCRIPTION=Powder
##CELL PARAMETERS=a: 6.8128 b: 13.0971 c: 12.0189 alpha: 90 beta: 104.545 gamma: 90 volume: 1038.05 crystal system: monoclinic
##FILETYPE=Raman RAW
##RAMAN WAVELENGTH=780

82.24973, 346.0295
84.17820, 374.0677
86.10667, 399.2531
88.03513, 423.1105
89.96360, 453.9302
91.89207, 493.7223
93.82053, 538.2886
95.74900, 558.4333
97.67747, 565.1792
99.60593, 566.2588
101.5344, 564.1412
103.4629, 562.7164
105.3913, 566.9532
107.3198, 563.2081
109.2483, 547.7455
111.1767, 526.8589
113.1052, 502.4063
115.0337, 475.9340
116.9621, 454.4388
118.8906, 436.6407
120.8191, 426.1590
122.7475, 422.9726
124.6760, 426.5876
126.6045, 440.3700
128.5329, 460.7735
130.4614, 475.7913
132.3899, 482.6927
134.3183, 486.5858
136.2468, 486.4379
138.1753, 484.7016
140.1037, 482.0020
142.0322, 479.0190
143.9607, 478.3189
145.8891, 482.5836
147.8176, 484.7044
149.7461, 483.0965
151.6745, 480.7289
153.6030, 479.3918
155.5315, 478.2776
157.4599, 475.0617
159.3884, 465.9724
161.3169, 464.3564
163.2453, 474.6304
165.1738, 486.2132
167.1023, 497.3404
169.0307, 505.2021
170.9592, 505.3316
172.8877, 496.8891
174.8161, 482.4954
176.7446, 459.8663
178.6731, 436.0567
180.6015, 411.1872
182.5300, 388.7542
184.4585, 372.3312
186.3869, 362.0602
188.3154, 354.7572
190.2439, 351.1575
192.1723, 347.2764
194.1008, 343.0993
196.0293, 337.0699
197.9577, 327.4547
199.8862, 315.0984
201.8147, 302.9791
203.7431, 291.0253
205.6716, 279.8222
207.6001, 268.8637
209.5285, 259.8200
211.4570, 253.4111
213.3855, 249.1626
215.3139, 246.8478
217.2424, 246.3338
219.1709, 245.8516
221.0993, 244.8940
223.0278, 244.9644
224.9563, 247.0171
226.8847, 249.6808
228.8132, 252.1570
230.7417, 254.3353
232.6701, 256.1186
234.5986, 257.5050
236.5271, 258.7182
238.4555, 259.4464
240.3840, 260.4039
242.3125, 262.0440
244.2409, 263.9366
246.1694, 265.3857
248.0979, 266.6332
250.0263, 268.7590
251.9548, 272.9611
253.8833, 275.5492
255.8117, 275.5452
257.7402, 274.3429
259.6687, 272.0794
261.5971, 269.4740
263.5256, 267.7534
265.4541, 266.9901
267.3825, 266.8940
269.3110, 267.9903
271.2394, 268.9380
273.1679, 268.5166
275.0964, 268.7192
277.0248, 271.6231
278.9533, 276.5320
280.8818, 280.8732
282.8102, 284.0240
284.7387, 287.7761
286.6672, 292.2914
288.5956, 297.2542
290.5241, 302.8921
292.4526, 308.6815
294.3810, 314.1157
296.3095, 319.2878
298.2380, 324.6704
300.1664, 330.7962
302.0949, 335.8531
304.0234, 340.8483
305.9518, 343.2108
307.8803, 339.5883
309.8088, 333.7232
311.7372, 330.0780
313.6657, 328.7834
315.5942, 327.6694
317.5226, 327.1138
319.4511, 324.8032
321.3796, 319.2624
323.3080, 313.8444
325.2365, 310.2714
327.1650, 307.5178
329.0934, 304.1905
331.0219, 300.3745
332.9504, 297.5002
334.8788, 295.6723
336.8073, 293.9951
338.7358, 291.4632
340.6642, 290.4437
342.5927, 292.6199
344.5212, 296.4666
346.4496, 300.4443
348.3781, 304.3332
350.3066, 306.3408
352.2350, 306.1473
354.1635, 305.9202
356.0920, 306.2352
358.0204, 306.5325
359.9489, 306.6127
361.8774, 306.6719
363.8058, 306.4460
365.7343, 306.3826
367.6628, 307.9567
369.5912, 311.2003
371.5197, 315.2729
373.4482, 320.1625
375.3766, 325.8385
377.3051, 333.0724
379.2336, 340.1774
381.1620, 345.5533
383.0905, 349.8111
385.0190, 354.4463
386.9474, 359.4570
388.8759, 363.5367
390.8044, 366.2026
392.7328, 368.4960
394.6613, 370.4869
396.5898, 372.1439
398.5182, 373.0193
400.4467, 374.2846
402.3752, 376.6544
404.3036, 380.1925
406.2321, 385.8926
408.1606, 394.9579
410.0891, 403.2505
412.0175, 408.2668
413.9460, 415.6414
415.8745, 428.8322
417.8029, 443.2020
419.7314, 456.5751
421.6599, 468.5034
423.5883, 477.5250
425.5168, 484.0845
427.4453, 483.5444
429.3737, 473.0496
431.3022, 461.4196
433.2307, 448.8101
435.1591, 436.8703
437.0876, 425.8560
439.0161, 416.4728
440.9445, 410.3434
442.8730, 406.5846
444.8015, 401.4360
446.7299, 394.7397
448.6584, 386.6411
450.5869, 376.6284
452.5153, 366.3674
454.4438, 355.4379
456.3723, 345.8763
458.3007, 338.9884
460.2292, 333.9178
462.1577, 329.5981
464.0861, 325.9915
466.0146, 323.3062
467.9431, 321.3676
469.8715, 322.2649
471.8000, 326.5281
473.7285, 332.7656
475.6569, 340.3993
477.5854, 350.0135
479.5139, 361.8906
481.4423, 376.0911
483.3708, 392.0399
485.2993, 410.0552
487.2277, 433.0529
489.1562, 460.7867
491.0847, 486.7795
493.0131, 512.7845
494.9416, 528.6946
496.8701, 531.8006
498.7985, 522.7566
500.7270, 498.0269
502.6555, 464.8581
504.5839, 425.8581
506.5124, 384.2703
508.4409, 347.5811
510.3693, 315.9072
512.2978, 290.1284
514.2263, 270.6836
516.1547, 255.2432
518.0832, 244.6662
520.0117, 236.3172
521.9401, 230.3287
523.8686, 225.6881
525.7971, 221.7450
527.7255, 218.8020
529.6540, 217.5039
531.5825, 217.4027
533.5109, 217.1276
535.4394, 216.5365
537.3679, 216.6672
539.2963, 217.6639
541.2248, 219.3429
543.1533, 222.4079
545.0817, 225.1162
547.0102, 226.0500
548.9387, 227.2189
550.8671, 230.7565
552.7956, 235.2538
554.7241, 238.6676
556.6525, 241.0838
558.5810, 243.5648
560.5095, 245.8962
562.4379, 249.9253
564.3664, 255.8691
566.2949, 262.7528
568.2233, 271.4077
570.1518, 278.9385
572.0803, 283.2806
574.0087, 287.3544
575.9372, 293.0266
577.8657, 299.4208
579.7941, 306.0430
581.7226, 312.4406
583.6511, 316.7741
585.5795, 319.0582
587.5080, 320.3502
589.4365, 320.3651
591.3649, 319.7115
593.2934, 318.8006
595.2219, 316.7519
597.1503, 311.7654
599.0788, 307.6585
601.0073, 306.0927
602.9357, 306.3051
604.8642, 308.2311
606.7927, 311.4341
608.7211, 314.1779
610.6496, 316.8529
612.5781, 322.5712
614.5065, 331.3305
616.4350, 340.7736
618.3635, 350.5330
620.2919, 361.3535
622.2204, 373.6993
624.1489, 386.7464
626.0773, 401.3898
628.0058, 415.1637
629.9343, 426.5580
631.8627, 436.6189
633.7912, 446.9163
635.7197, 455.9421
637.6481, 461.5873
639.5765, 463.9300
641.5050, 462.4584
643.4335, 457.1330
645.3619, 448.5382
647.2904, 436.1732
649.2189, 421.7324
651.1473, 404.6214
653.0758, 387.2178
655.0043, 368.8363
656.9327, 351.4918
658.8612, 336.8116
660.7897, 322.8570
662.7181, 307.8001
664.6466, 293.4027
666.5751, 281.3095
668.5035, 271.1568
670.4320, 261.9496
672.3605, 253.6244
674.2889, 246.9114
676.2174, 242.5391
678.1459, 237.3113
680.0743, 230.0801
682.0028, 224.8091
683.9313, 222.5828
685.8597, 220.2391
687.7882, 216.9572
689.7167, 213.7586
691.6451, 210.6866
693.5736, 207.9991
695.5021, 205.5867
697.4305, 204.2784
699.3590, 205.1463
701.2875, 207.4237
703.2159, 210.2151
705.1444, 213.5032
707.0729, 215.4109
709.0013, 215.7398
710.9298, 217.4498
712.8583, 220.8897
714.7867, 222.7224
716.7152, 221.8437
718.6437, 222.0018
720.5721, 224.1195
722.5006, 227.5123
724.4291, 232.2868
726.3575, 237.6818
728.2860, 243.1976
730.2145, 249.5999
732.1429, 257.4369
734.0714, 266.4172
735.9999, 276.3693
737.9283, 287.1029
739.8568, 299.1336
741.7853, 311.6271
743.7137, 321.5308
745.6422, 328.4373
747.5707, 328.8663
749.4991, 322.5478
751.4276, 312.5388
753.3561, 298.4438
755.2845, 283.8349
757.2130, 268.7151
759.1415, 254.5092
761.0699, 241.3547
762.9984, 229.4151
764.9269, 218.5496
766.8553, 209.3172
768.7838, 201.8137
770.7123, 196.1499
772.6407, 193.2442
774.5692, 191.4270
776.4977, 189.2008
778.4261, 186.6207
780.3546, 183.3370
782.2831, 180.0694
784.2115, 178.6687
786.1400, 178.6250
788.0685, 177.2306
789.9969, 174.4257
791.9254, 173.2237
793.8539, 174.2040
795.7823, 174.0720
797.7108, 172.0448
799.6393, 171.1575
801.5677, 171.7473
803.4962, 172.2450
805.4247, 172.6862
807.3531, 172.8174
809.2816, 172.3778
811.2101, 171.7509
813.1385, 170.8993
815.0670, 170.2948
816.9955, 170.3997
818.9240, 170.6304
820.8524, 170.6846
822.7809, 170.5569
824.7094, 170.2137
826.6378, 169.6657
828.5663, 168.7128
830.4948, 167.6744
832.4232, 167.5130
834.3517, 168.0586
836.2802, 168.3913
838.2086, 168.4989
840.1371, 168.1815
842.0656, 167.4717
843.9940, 168.1029
845.9225, 170.0419
847.8510, 171.0484
849.7794, 170.9631
851.7079, 172.2782
853.6364, 175.4101
855.5648, 178.2079
857.4933, 180.3236
859.4218, 182.5075
861.3502, 185.1345
863.2787, 187.0512
865.2072, 187.3543
867.1356, 188.1396
869.0641, 190.2616
870.9926, 192.3494
872.9210, 194.3107
874.8495, 195.5391
876.7780, 195.5239
878.7064, 195.3595
880.6349, 195.6428
882.5634, 195.7437
884.4918, 195.4502
886.4203, 194.5272
888.3488, 192.7308
890.2772, 190.3234
892.2057, 187.1232
894.1342, 183.7997
896.0626, 181.7251
897.9911, 179.8637
899.9196, 175.8094
901.8480, 171.2948
903.7765, 170.5997
905.7050, 171.9087
907.6334, 169.4249
909.5619, 164.2763
911.4904, 161.8501
913.4188, 161.8845
915.3473, 161.5108
917.2758, 160.6813
919.2042, 160.3302
921.1327, 160.5667
923.0612, 160.3124
924.9896, 159.4391
926.9181, 158.6089
928.8466, 157.4494
930.7750, 157.5271
932.7035, 159.2814
934.6320, 160.8450
936.5604, 162.0645
938.4889, 163.3819
940.4174, 164.8376
942.3458, 166.4502
944.2743, 168.4446
946.2028, 169.2663
948.1312, 168.2453
950.0597, 168.2785
951.9882, 170.4894
953.9166, 171.2762
955.8451, 169.4622
957.7736, 167.5627
959.7020, 166.2497
961.6305, 164.7102
963.5590, 162.6283
965.4874, 160.5181
967.4159, 158.2429
969.3444, 156.5724
971.2728, 155.9357
973.2013, 155.5108
975.1298, 155.0261
977.0582, 154.8680
978.9867, 155.5913
980.9152, 155.9387
982.8436, 154.6653
984.7721, 154.1322
986.7006, 156.0693
988.6290, 157.8168
990.5575, 157.8302
992.4860, 157.9155
994.4144, 158.6305
996.3429, 160.1563
998.2714, 163.4258
1000.200, 166.1874
1002.128, 166.8546
1004.057, 167.1550
1005.985, 168.3922
1007.914, 169.1169
1009.842, 167.8314
1011.771, 166.6897
1013.699, 167.4568
1015.628, 168.1427
1017.556, 167.6959
1019.484, 166.5764
1021.413, 164.6777
1023.341, 162.6783
1025.270, 161.1423
1027.198, 159.5438
1029.127, 157.2870
1031.055, 155.1432
1032.984, 153.6823
1034.912, 152.4214
1036.841, 151.1006
1038.769, 149.8897
1040.698, 148.5224
1042.626, 147.8111
1044.555, 148.6331
1046.483, 149.6939
1048.411, 150.3341
1050.340, 150.8506
1052.268, 151.2440
1054.197, 151.8036
1056.125, 153.0364
1058.054, 153.9163
1059.982, 153.7140
1061.911, 153.3039
1063.839, 153.3836
1065.768, 153.1005
1067.696, 151.8842
1069.625, 150.2736
1071.553, 147.8980
1073.482, 146.1815
1075.410, 146.3853
1077.339, 146.5451
1079.267, 145.7348
1081.195, 144.8122
1083.124, 144.0503
1085.052, 143.2571
1086.981, 142.4038
1088.909, 141.4799
1090.838, 140.0762
1092.766, 139.2811
1094.695, 139.7757
1096.623, 140.3439
1098.552, 141.0368
1100.480, 141.1116
1102.409, 139.8215
1104.337, 138.8839
1106.266, 138.4959
1108.194, 138.7903
1110.122, 140.3832
1112.051, 141.5267
1113.979, 141.5968
1115.908, 142.0351
1117.836, 143.3420
1119.765, 144.2405
1121.693, 143.8407
1123.622, 144.7352
1125.550, 147.9269
1127.479, 150.2623
1129.407, 151.2596
1131.336, 152.8018
1133.264, 155.1030
1135.193, 156.9147
1137.121, 158.1702
1139.049, 159.5788
1140.978, 161.2158
1142.906, 162.1687
1144.835, 162.4148
1146.763, 162.4588
1148.692, 162.3077
1150.620, 162.0972
1152.549, 161.8603
1154.477, 161.8732
1156.406, 162.0006
1158.334, 161.6134
1160.263, 161.0345
1162.191, 160.9355
1164.120, 161.1452
1166.048, 161.6207
1167.976, 162.3000
1169.905, 163.1358
1171.833, 163.7910
1173.762, 163.9009
1175.690, 163.4514
1177.619, 162.3037
1179.547, 160.8996
1181.476, 159.1043
1183.404, 157.8933
1185.333, 158.8211
1187.261, 159.0892
1189.190, 156.3205
1191.118, 154.1468
1193.047, 155.1237
1194.975, 154.9742
1196.903, 151.2486
1198.832, 148.4978
1200.760, 148.2819
1202.689, 147.3651
1204.617, 144.8668
1206.546, 142.9924
1208.474, 142.1479
1210.403, 141.2068
1212.331, 140.0936
1214.260, 138.7999
1216.188, 137.2863
1218.117, 135.9308
1220.045, 134.7532
1221.974, 133.5596
1223.902, 132.4317
1225.830, 131.9207
1227.759, 131.7457
1229.687, 131.2315
1231.616, 130.6385
1233.544, 130.0206
1235.473, 129.4891
1237.401, 129.6002
1239.330, 129.8279
1241.258, 129.5977
1243.187, 129.2898
1245.115, 129.1185
1247.044, 128.9852
1248.972, 128.8567
1250.901, 128.8471
1252.829, 128.8356
1254.757, 129.1901
1256.686, 130.3542
1258.614, 131.1974
1260.543, 131.3210
1262.471, 130.8690
1264.400, 129.9600
1266.328, 130.0863
1268.257, 131.1395
1270.185, 131.1101
1272.114, 130.1968
1274.042, 129.7729
1275.971, 129.7745
1277.899, 129.9681
1279.828, 130.2494
1281.756, 130.5807
1283.684, 130.7276
1285.613, 130.2780
1287.541, 129.6429
1289.470, 129.2041
1291.398, 128.6721
1293.327, 127.6645
1295.255, 127.0070
1297.184, 127.1568
1299.112, 127.2977
1301.041, 127.2056
1302.969, 127.5129
1304.898, 128.5571
1306.826, 128.5800
1308.755, 127.2013
1310.683, 127.2197
1312.611, 128.6998
1314.540, 129.1855
1316.468, 128.8761
1318.397, 128.9152
1320.325, 129.3421
1322.254, 130.1235
1324.182, 130.9396
1326.111, 131.6472
1328.039, 132.4331
1329.968, 133.3279
1331.896, 134.3212
1333.825, 135.4557
1335.753, 136.2992
1337.682, 136.6930
1339.610, 137.4726
1341.538, 138.8954
1343.467, 139.8452
1345.395, 140.1138
1347.324, 141.0063
1349.252, 142.4464
1351.181, 143.6178
1353.109, 144.4235
1355.038, 143.2916
1356.966, 141.1710
1358.895, 140.8286
1360.823, 140.9419
1362.752, 139.8216
1364.680, 138.4682
1366.609, 137.0981
1368.537, 135.7692
1370.465, 134.8653
1372.394, 134.1978
1374.322, 133.3904
1376.251, 133.2444
1378.179, 134.0759
1380.108, 134.5620
1382.036, 134.5523
1383.965, 133.9956
1385.893, 133.1538
1387.822, 132.8766
1389.750, 133.2865
1391.678, 134.4425
1393.607, 135.4835
1395.535, 136.2610
1397.464, 136.9290
1399.392, 137.0002
1401.321, 137.0318
1403.249, 137.3219
1405.178, 137.2298
1407.106, 136.8316
1409.035, 137.0029
1410.963, 137.5872
1412.892, 138.0021
1414.820, 138.1151
1416.749, 138.0990
1418.677, 138.3583
1420.605, 138.4068
1422.534, 138.0550
1424.462, 137.9493
1426.391, 138.0855
1428.319, 138.3676
1430.248, 138.2613
1432.176, 136.8636
1434.105, 137.0124
1436.033, 139.5207
1437.962, 140.0150
1439.890, 138.6248
1441.819, 138.3917
1443.747, 139.2706
1445.676, 140.4049
1447.604, 140.8019
1449.532, 139.9803
1451.461, 139.2906
1453.389, 138.9474
1455.318, 138.8015
1457.246, 138.9782
1459.175, 138.5547
1461.103, 137.2231
1463.032, 136.9156
1464.960, 137.6825
1466.889, 137.2999
1468.817, 136.2680
1470.746, 135.9616
1472.674, 135.7605
1474.603, 135.3615
1476.531, 134.9419
1478.459, 133.7708
1480.388, 132.8111
1482.316, 132.9405
1484.245, 133.0933
1486.173, 132.6537
1488.102, 131.5655
1490.030, 130.4448
1491.959, 130.3971
1493.887, 130.4349
1495.816, 128.9343
1497.744, 127.6813
1499.673, 128.8245
1501.601, 129.7083
1503.530, 128.7082
1505.458, 128.3062
1507.386, 128.9063
1509.315, 128.7265
1511.243, 127.7324
1513.172, 127.4369
1515.100, 127.4610
1517.029, 126.3245
1518.957, 125.2170
1520.886, 125.5103
1522.814, 125.9972
1524.743, 125.9927
1526.671, 125.4212
1528.600, 123.9640
1530.528, 123.6232
1532.457, 124.5484
1534.385, 124.5729
1536.313, 123.9509
1538.242, 123.2306
1540.170, 122.5852
1542.099, 122.9632
1544.027, 123.4220
1545.956, 123.3151
1547.884, 122.7894
1549.813, 121.9653
1551.741, 121.5982
1553.670, 121.4111
1555.598, 120.8191
1557.527, 120.2529
1559.455, 120.0230
1561.384, 119.7832
1563.312, 119.6877
1565.240, 119.9375
1567.169, 120.0489
1569.097, 119.6809
1571.026, 119.2793
1572.954, 119.1385
1574.883, 119.1114
1576.811, 119.1157
1578.740, 118.9596
1580.668, 118.5368
1582.597, 118.4668
1584.525, 119.4408
1586.454, 119.8605
1588.382, 119.3285
1590.311, 119.1486
1592.239, 118.8399
1594.167, 118.5113
1596.096, 118.8915
1598.024, 118.9338
1599.953, 118.7646
1601.881, 119.5225
1603.810, 119.9799
1605.738, 119.6586
1607.667, 119.3804
1609.595, 118.6842
1611.524, 118.5083
1613.452, 119.0317
1615.381, 118.5411
1617.309, 117.6851
1619.238, 118.0728
1621.166, 118.5426
1623.094, 117.6865
1625.023, 117.3065
1626.951, 118.0922
1628.880, 118.1884
1630.808, 118.0575
1632.737, 118.6001
1634.665, 118.5058
1636.594, 117.4202
1638.522, 117.3688
1640.451, 118.1795
1642.379, 118.3540
1644.308, 118.1186
1646.236, 117.6422
1648.165, 117.3172
1650.093, 116.9850
1652.021, 116.4609
1653.950, 116.1424
1655.878, 116.2481
1657.807, 117.2867
1659.735, 118.1368
1661.664, 118.0479
1663.592, 116.8323
1665.521, 115.2299
1667.449, 114.4514
1669.378, 114.2611
1671.306, 114.3470
1673.235, 114.0250
1675.163, 113.0477
1677.092, 113.1181
1679.020, 114.2870
1680.948, 114.6616
1682.877, 114.5644
1684.805, 114.3528
1686.734, 113.7924
1688.662, 113.1576
1690.591, 113.0416
1692.519, 113.2779
1694.448, 113.4294
1696.376, 113.4092
1698.305, 112.8744
1700.233, 112.3091
1702.162, 111.8237
1704.090, 111.0607
1706.019, 110.9260
1707.947, 111.1134
1709.875, 110.4946
1711.804, 109.2609
1713.732, 108.5041
1715.661, 109.4579
1717.589, 109.6941
1719.518, 107.7463
1721.446, 106.8479
1723.375, 107.9408
1725.303, 107.4138
1727.232, 105.9883
1729.160, 105.3770
1731.089, 105.0702
1733.017, 104.6199
1734.946, 103.7707
1736.874, 103.4196
1738.802, 103.9488
1740.731, 103.6385
1742.659, 102.3762
1744.588, 101.8330
1746.516, 101.6549
1748.445, 101.4383
1750.373, 101.9705
1752.302, 101.9497
1754.230, 100.9335
1756.159, 99.96947
1758.087, 99.47417
1760.016, 99.29338
1761.944, 98.82593
1763.873, 98.18649
1765.801, 97.89912
1767.729, 98.20299
1769.658, 98.47328
1771.586, 98.23793
1773.515, 97.66787
1775.443, 97.36931
1777.372, 97.04170
1779.300, 96.53849
1781.229, 96.46452
1783.157, 96.97537
1785.086, 97.20035
1787.014, 96.07993
1788.943, 94.62492
1790.871, 94.41258
1792.800, 95.17608
1794.728, 94.59994
1796.656, 93.70694
1798.585, 93.49861
1800.513, 93.31351
1802.442, 93.24978
1804.370, 92.82232
1806.299, 92.67318
1808.227, 92.92484
1810.156, 92.27049
1812.084, 91.37458
1814.013, 91.05287
1815.941, 90.89679
1817.870, 90.74601
1819.798, 90.96902
1821.727, 90.87009
1823.655, 89.88623
1825.583, 89.15614
1827.512, 88.65698
1829.440, 88.47919
1831.369, 88.60291
1833.297, 88.71445
1835.226, 89.06681
1837.154, 88.69176
1839.083, 88.21812
1841.011, 88.35516
1842.940, 87.40778
1844.868, 85.51173
1846.797, 85.58777
1848.725, 86.76069
1850.654, 86.59686
1852.582, 86.00319
1854.510, 86.02720
1856.439, 85.96266
1858.367, 85.59329
1860.296, 85.26707
1862.224, 85.23766
1864.153, 84.77861
1866.081, 83.84747
1868.010, 83.17151
1869.938, 83.19607
1871.867, 83.50422
1873.795, 83.36531
1875.724, 83.15876
1877.652, 83.01253
1879.581, 83.10145
1881.509, 83.03938
1883.438, 82.85814
1885.366, 82.74684
1887.294, 82.60100
1889.223, 82.75842
1891.151, 83.30050
1893.080, 82.68610
1895.008, 80.95033
1896.937, 80.77313
1898.865, 81.07907
1900.794, 80.40772
1902.722, 80.00994
1904.651, 80.37759
1906.579, 80.49966
1908.508, 80.00163
1910.436, 79.63109
1912.365, 79.96330
1914.293, 80.31131
1916.221, 80.10839
1918.150, 79.92448
1920.078, 80.24754
1922.007, 80.67479
1923.935, 80.18080
1925.864, 79.36288
1927.792, 79.20886
1929.721, 79.64476
1931.649, 79.56476
1933.578, 78.65190
1935.506, 78.17726
1937.435, 78.27948
1939.363, 78.79166
1941.292, 79.37815
1943.220, 79.03691
1945.148, 78.50935
1947.077, 78.42174
1949.005, 78.28755
1950.934, 77.65169
1952.862, 77.20546
1954.791, 77.33230
1956.719, 77.61868
1958.648, 77.95952
1960.576, 77.86549
1962.505, 77.57594
1964.433, 77.94109
1966.362, 78.15321
1968.290, 77.87716
1970.219, 77.49655
1972.147, 76.56561
1974.075, 76.05683
1976.004, 76.18676
1977.932, 75.78571
1979.861, 74.92249
1981.789, 74.94518
1983.718, 75.21149
1985.646, 75.03413
1987.575, 74.67408
1989.503, 74.13447
1991.432, 73.46678
1993.360, 73.45773
1995.289, 74.19539
1997.217, 73.49596
1999.146, 71.94215
2001.074, 71.94164
2003.002, 72.36559
2004.931, 72.25463
2006.859, 71.88887
2008.788, 71.56837
2010.716, 71.65605
2012.645, 71.38115
2014.573, 70.36403
2016.502, 70.12737
2018.430, 70.21608
2020.359, 70.09126
2022.287, 70.08160
2024.216, 68.91136
2026.144, 68.35270
2028.073, 69.67632
2030.001, 69.48595
2031.929, 67.86258
2033.858, 67.60006
2035.786, 67.75079
2037.715, 67.42979
2039.643, 67.19086
2041.572, 66.77409
2043.500, 66.14805
2045.429, 65.82637
2047.357, 66.24001
2049.286, 66.29855
2051.214, 65.97549
2053.143, 65.23816
2055.071, 64.71958
2057.000, 65.38720
2058.928, 65.60515
2060.856, 64.66171
2062.785, 63.48877
2064.713, 62.90726
2066.642, 63.50351
2068.570, 63.85380
2070.499, 63.56939
2072.427, 62.75346
2074.356, 61.98199
2076.284, 62.13948
2078.213, 61.64084
2080.141, 60.83660
2082.070, 61.22610
2083.998, 61.76693
2085.927, 61.90272
2087.855, 61.58862
2089.783, 61.43924
2091.712, 61.39101
2093.640, 61.02332
2095.569, 61.03651
2097.497, 60.92512
2099.426, 60.76159
2101.354, 60.95115
2103.283, 60.96466
2105.211, 60.35857
2107.140, 59.82018
2109.068, 59.59649
2110.997, 59.78939
2112.925, 59.71105
2114.854, 58.69017
2116.782, 58.78115
2118.710, 59.59655
2120.639, 59.69966
2122.567, 59.17755
2124.496, 58.15493
2126.424, 58.49951
2128.353, 59.04399
2130.281, 58.54660
2132.210, 58.33541
2134.138, 57.91810
2136.067, 57.61081
2137.995, 57.36395
2139.924, 56.53054
2141.852, 56.60005
2143.781, 57.20391
2145.709, 56.73663
2147.637, 56.21578
2149.566, 56.92141
2151.494, 57.08204
2153.423, 56.13100
2155.351, 55.63853
2157.280, 55.47109
2159.208, 55.37261
2161.137, 55.35058
2163.065, 55.33931
2164.994, 55.25297
2166.922, 54.90513
2168.851, 54.50837
2170.779, 54.55724
2172.708, 54.60115
2174.636, 54.34528
2176.564, 54.11530
2178.493, 53.86586
2180.421, 53.49508
2182.350, 53.40441
2184.278, 53.44281
2186.207, 52.93534
2188.135, 52.29359
2190.064, 52.47636
2191.992, 52.59547
2193.921, 52.46542
2195.849, 51.86144
2197.778, 51.28536
2199.706, 51.59995
2201.635, 51.74103
2203.563, 51.51566
2205.491, 51.53149
2207.420, 51.36930
2209.348, 50.67135
2211.277, 50.69786
2213.205, 51.31904
2215.134, 50.85516
2217.062, 50.50139
2218.991, 50.84513
2220.919, 50.76567
2222.848, 50.23406
2224.776, 49.26228
2226.705, 48.93208
2228.633, 49.19243
2230.562, 49.85784
2232.490, 49.95955
2234.418, 48.73168
2236.347, 48.83182
2238.275, 49.66516
2240.204, 49.57518
2242.132, 49.26330
2244.061, 49.03928
2245.989, 48.50198
2247.918, 48.08263
2249.846, 48.50786
2251.775, 48.59194
2253.703, 48.19021
2255.632, 47.28946
2257.560, 47.12563
2259.489, 47.99227
2261.417, 48.41125
2263.345, 48.36346
2265.274, 47.47081
2267.202, 47.52224
2269.131, 48.13563
2271.059, 47.57806
2272.988, 47.06068
2274.916, 46.99464
2276.845, 47.07123
2278.773, 47.19165
2280.702, 47.17461
2282.630, 46.89895
2284.559, 46.60162
2286.487, 46.91916
2288.416, 47.00274
2290.344, 46.76224
2292.272, 46.51933
2294.201, 46.13615
2296.129, 45.56868
2298.058, 45.40622
2299.986, 45.51011
2301.915, 44.93553
2303.843, 44.53907
2305.772, 44.60619
2307.700, 45.22555
2309.629, 45.50523
2311.557, 44.65556
2313.486, 44.38543
2315.414, 44.49495
2317.343, 44.03959
2319.271, 43.73482
2321.199, 43.76088
2323.128, 43.77102
2325.056, 43.70153
2326.985, 43.55838
2328.913, 43.35879
2330.842, 43.19984
2332.770, 43.30309
2334.699, 43.07985
2336.627, 42.53559
2338.556, 41.82560
2340.484, 41.26991
2342.413, 41.02178
2344.341, 41.22768
2346.270, 41.51472
2348.198, 41.61724
2350.126, 41.24570
2352.055, 40.68301
2353.983, 40.10320
2355.912, 40.17498
2357.840, 40.95628
2359.769, 40.87273
2361.697, 40.43043
2363.626, 39.82664
2365.554, 39.88419
2367.483, 40.16378
2369.411, 40.48027
2371.340, 39.87284
2373.268, 38.90263
2375.197, 39.34684
2377.125, 39.73087
2379.053, 39.50064
2380.982, 38.88316
2382.910, 38.53923
2384.839, 38.63359
2386.767, 38.69017
2388.696, 38.58349
2390.624, 38.08013
2392.553, 37.51167
2394.481, 37.00862
2396.410, 37.30809
2398.338, 37.35441
2400.267, 36.81258
2402.195, 36.05908
2404.124, 35.86930
2406.052, 36.23423
2407.980, 35.56303
2409.909, 35.04491
2411.837, 35.49820
2413.766, 35.78964
2415.694, 35.73290
2417.623, 35.21196
2419.551, 34.65920
2421.480, 34.18639
2423.408, 33.89046
2425.337, 33.95472
2427.265, 34.29780
2429.194, 34.34796
2431.122, 34.19711
2433.051, 33.67179
2434.979, 34.17715
2436.907, 34.33148
2438.836, 33.06665
2440.764, 32.72360
2442.693, 32.91842
2444.621, 33.44564
2446.550, 33.34327
2448.478, 32.76310
2450.407, 31.89015
2452.335, 32.17455
2454.264, 33.48006
2456.192, 32.95109
2458.121, 31.89797
2460.049, 31.12358
2461.978, 31.44173
2463.906, 31.63862
2465.834, 31.54598
2467.763, 30.89970
2469.691, 30.30819
2471.620, 30.93083
2473.548, 30.62868
2475.477, 29.92216
2477.405, 30.03296
2479.334, 30.14509
2481.262, 30.08137
2483.191, 29.90969
2485.119, 30.12221
2487.048, 30.65904
2488.976, 30.14584
2490.905, 29.91579
2492.833, 30.25875
2494.761, 29.36712
2496.690, 28.58880
2498.618, 28.72582
2500.547, 28.92953
2502.475, 29.12762
2504.404, 29.32768
2506.332, 28.89540
2508.261, 28.35209
2510.189, 28.00103
2512.118, 27.75763
2514.046, 27.94984
2515.975, 28.27331
2517.903, 28.44460
2519.832, 28.58795
2521.760, 28.30982
2523.688, 27.93292
2525.617, 27.60765
2527.545, 27.53610
2529.474, 27.32180
2531.402, 26.93579
2533.331, 26.68933
2535.259, 27.07763
2537.188, 27.57695
2539.116, 26.63833
2541.045, 26.21499
2542.973, 26.31442
2544.902, 26.10318
2546.830, 26.17916
2548.759, 26.40763
2550.687, 26.83565
2552.615, 26.96297
2554.544, 26.49470
2556.472, 26.61946
2558.401, 26.64797
2560.329, 26.16181
2562.258, 26.02416
2564.186, 25.96679
2566.115, 25.62798
2568.043, 25.29270
2569.972, 25.37922
2571.900, 25.46541
2573.829, 25.23670
2575.757, 24.98134
2577.686, 24.41809
2579.614, 24.68950
2581.542, 25.26923
2583.471, 24.67231
2585.399, 24.47931
2587.328, 24.52666
2589.256, 23.99173
2591.185, 23.61761
2593.113, 23.79806
2595.042, 24.20011
2596.970, 24.15152
2598.899, 24.01686
2600.827, 23.59587
2602.756, 22.87342
2604.684, 22.56931
2606.613, 23.17317
2608.541, 23.44528
2610.469, 23.77888
2612.398, 23.49380
2614.326, 23.05553
2616.255, 22.69350
2618.183, 22.37343
2620.112, 22.71363
2622.040, 22.70404
2623.969, 22.14647
2625.897, 22.19565
2627.826, 22.39032
2629.754, 22.08480
2631.683, 21.72681
2633.611, 21.83507
2635.540, 22.20029
2637.468, 21.96006
2639.396, 21.59459
2641.325, 21.78177
2643.253, 22.29265
2645.182, 22.53830
2647.110, 21.23594
2649.039, 21.20410
2650.967, 21.97578
2652.896, 21.72033
2654.824, 21.51375
2656.753, 22.01119
2658.681, 21.79718
2660.610, 21.58528
2662.538, 21.23880
2664.467, 20.38414
2666.395, 20.43656
2668.323, 20.37653
2670.252, 19.43771
2672.180, 20.57578
2674.109, 21.44041
2676.037, 20.42612
2677.966, 19.74992
2679.894, 19.88078
2681.823, 20.39312
2683.751, 20.20041
2685.680, 20.20584
2687.608, 20.55497
2689.537, 20.35989
2691.465, 20.04871
2693.394, 19.89650
2695.322, 19.58926
2697.250, 19.57448
2699.179, 19.72547
2701.107, 19.68248
2703.036, 19.80094
2704.964, 20.22817
2706.893, 20.61363
2708.821, 20.21267
2710.750, 19.35981
2712.678, 19.53724
2714.607, 19.98625
2716.535, 19.69909
2718.464, 19.61889
2720.392, 19.60639
2722.321, 19.47335
2724.249, 18.67184
2726.177, 18.60663
2728.106, 19.37428
2730.034, 20.53177
2731.963, 20.00954
2733.891, 19.39298
2735.820, 19.73114
2737.748, 19.64241
2739.677, 19.21193
2741.605, 18.86944
2743.534, 19.61078
2745.462, 19.51126
2747.391, 19.39461
2749.319, 19.84659
2751.248, 19.74244
2753.176, 19.57123
2755.104, 19.43928
2757.033, 19.63287
2758.961, 19.61081
2760.890, 18.89602
2762.818, 18.93895
2764.747, 19.25064
2766.675, 19.27779
2768.604, 19.23787
2770.532, 19.09873
2772.461, 18.75111
2774.389, 18.36578
2776.318, 18.20577
2778.246, 18.58362
2780.175, 19.01421
2782.103, 19.05869
2784.031, 19.11299
2785.960, 18.99405
2787.888, 18.69919
2789.817, 18.74961
2791.745, 18.90306
2793.674, 18.85364
2795.602, 18.88198
2797.531, 19.15360
2799.459, 18.12445
2801.388, 17.75234
2803.316, 18.20732
2805.245, 17.99009
2807.173, 17.74813
2809.102, 17.79073
2811.030, 18.17722
2812.958, 18.04739
2814.887, 17.33318
2816.815, 17.22347
2818.744, 17.48523
2820.672, 17.84940
2822.601, 17.77814
2824.529, 18.21126
2826.458, 18.07939
2828.386, 17.37565
2830.315, 17.95759
2832.243, 18.67217
2834.172, 18.77067
2836.100, 17.92806
2838.029, 17.68466
2839.957, 17.36301
2841.885, 17.20362
2843.814, 17.57294
2845.742, 17.98231
2847.671, 18.26429
2849.599, 18.23750
2851.528, 17.87077
2853.456, 17.27745
2855.385, 17.53422
2857.313, 17.92992
2859.242, 18.28775
2861.170, 17.91316
2863.098, 17.70334
2865.027, 17.94838
2866.955, 18.49947
2868.884, 18.76101
2870.812, 18.38829
2872.741, 18.06420
2874.669, 18.66725
2876.598, 19.56778
2878.526, 20.00418
2880.455, 19.15468
2882.383, 19.25158
2884.312, 19.44948
2886.240, 18.17250
2888.168, 18.90891
2890.097, 19.44030
2892.025, 19.21956
2893.954, 19.24593
2895.882, 20.02544
2897.811, 20.93180
2899.739, 20.73409
2901.668, 20.54543
2903.596, 20.73453
2905.525, 21.58291
2907.453, 21.52452
2909.382, 21.49843
2911.310, 21.67015
2913.239, 22.38124
2915.167, 22.58310
2917.095, 22.62732
2919.024, 23.41825
2920.952, 22.81248
2922.881, 22.55655
2924.809, 23.07918
2926.738, 22.94691
2928.666, 23.06462
2930.595, 22.83438
2932.523, 22.54753
2934.452, 22.66979
2936.380, 23.26707
2938.309, 24.11366
2940.237, 24.08005
2942.166, 23.77279
2944.094, 23.63702
2946.022, 23.91520
2947.951, 23.73527
2949.879, 23.32618
2951.808, 23.44711
2953.736, 23.60788
2955.665, 23.45784
2957.593, 23.14332
2959.522, 23.37187
2961.450, 22.97655
2963.379, 22.50330
2965.307, 22.30053
2967.236, 22.31074
2969.164, 22.85486
2971.093, 23.13430
2973.021, 22.39647
2974.949, 22.38880
2976.878, 22.25248
2978.806, 22.18405
2980.735, 22.01125
2982.663, 21.76522
2984.592, 21.26298
2986.520, 21.89251
2988.449, 21.79726
2990.377, 21.95965
2992.306, 22.69752
2994.234, 21.98934
2996.163, 21.69720
2998.091, 22.02363
3000.020, 22.47766
3001.948, 22.01965
3003.876, 21.51077
3005.805, 21.28943
3007.733, 21.56050
3009.662, 22.54254
3011.590, 22.68697
3013.519, 21.73421
3015.447, 21.62245
3017.376, 21.80525
3019.304, 22.24875
3021.233, 22.73668
3023.161, 23.13519
3025.090, 23.28240
3027.018, 23.04706
3028.947, 22.62503
3030.875, 22.42362
3032.803, 22.52784
3034.732, 23.08051
3036.660, 23.51745
3038.589, 23.07016
3040.517, 22.49865
3042.446, 23.43559
3044.374, 23.39234
3046.303, 23.83359
3048.231, 24.78249
3050.160, 24.64063
3052.088, 24.18806
3054.017, 23.60426
3055.945, 23.32515
3057.874, 24.28628
3059.802, 24.92603
3061.730, 25.20337
3063.659, 24.75887
3065.587, 24.99954
3067.516, 25.21361
3069.444, 24.94992
3071.373, 25.91536
3073.301, 26.28140
3075.230, 25.87744
3077.158, 25.36331
3079.087, 25.29307
3081.015, 25.41161
3082.944, 25.80303
3084.872, 25.94277
3086.801, 24.56810
3088.729, 24.75508
3090.657, 25.86656
3092.586, 26.12221
3094.514, 25.51361
3096.443, 24.93328
3098.371, 24.97870
3100.300, 24.67559
3102.228, 26.06155
3104.157, 26.54202
3106.085, 24.83065
3108.014, 25.75642
3109.942, 25.60939
3111.871, 24.41150
3113.799, 24.23016
3115.728, 25.53078
3117.656, 25.04453
3119.584, 23.76529
3121.513, 24.86250
3123.441, 24.37300
3125.370, 23.75103
3127.298, 23.56656
3129.227, 24.03985
3131.155, 23.80961
3133.084, 23.72177
3135.012, 23.84151
3136.941, 23.82123
3138.869, 23.34738
3140.798, 22.86383
3142.726, 22.76093
3144.655, 23.51166
3146.583, 23.01096
3148.511, 22.68090
3150.440, 23.91487
3152.368, 22.78532
3154.297, 22.71968
3156.225, 23.12784
3158.154, 22.45921
3160.082, 22.15260
3162.011, 21.92076
3163.939, 22.09500
3165.868, 21.92015
3167.796, 21.74560
3169.725, 21.43952
3171.653, 21.42689
3173.582, 21.74762
3175.510, 21.07555
3177.438, 20.63608
3179.367, 20.40359
3181.295, 21.00419
3183.224, 21.36112
3185.152, 21.47676
3187.081, 21.39177
3189.009, 20.80850
3190.938, 21.07835
3192.866, 20.73144
3194.795, 19.77910
3196.723, 19.47923
3198.652, 20.03646
3200.580, 19.80373
3202.509, 19.40637
3204.437, 19.43576
3206.365, 21.59319
3208.294, 21.34198
3210.222, 19.30890
3212.151, 19.14422
3214.079, 19.54518
3216.008, 19.59956
3217.936, 19.32222
3219.865, 19.78104
3221.793, 19.53651
3223.722, 20.07471
3225.650, 20.81162
3227.579, 19.82243
3229.507, 19.89554
3231.436, 20.00077
3233.364, 19.85603
3235.292, 19.68159
3237.221, 20.18671
3239.149, 20.28192
3241.078, 20.48931
3243.006, 21.58194
3244.935, 21.14850
3246.863, 20.51958
3248.792, 20.35943
3250.720, 20.40607
3252.649, 21.10343
3254.577, 20.52950
3256.506, 19.95602
3258.434, 20.13933
3260.363, 21.59169
3262.291, 21.39702
3264.219, 21.47003
3266.148, 22.41127
3268.076, 21.65396
3270.005, 20.84842
3271.933, 20.70812
3273.862, 21.17747
3275.790, 22.19263
3277.719, 20.94697
3279.647, 20.43394
3281.576, 20.81600
3283.504, 20.80117
3285.433, 21.43902
3287.361, 21.44568
3289.290, 21.00147
3291.218, 20.73514
3293.146, 20.45648
3295.075, 20.84118
3297.003, 21.50352
3298.932, 22.08851
3300.860, 21.03950
3302.789, 20.14929
3304.717, 20.02964
3306.646, 20.33806
3308.574, 19.91657
3310.503, 19.87546
3312.431, 19.57717
3314.360, 19.07428
3316.288, 19.02408
3318.217, 17.85007
3320.145, 18.75222
3322.073, 19.53602
3324.002, 18.45368
3325.930, 18.05600
3327.859, 18.16398
3329.787, 18.23584
3331.716, 17.84892
3333.644, 16.39705
3335.573, 18.13533
3337.501, 18.38340
3339.430, 17.18793
3341.358, 16.51690
3343.287, 17.65723
3345.215, 17.56561
3347.144, 17.67146
3349.072, 18.35040
3351.000, 16.66112
3352.929, 17.30043
3354.857, 17.73958
3356.786, 17.25191
3358.714, 16.54559
3360.643, 17.22835
3362.571, 16.80902
3364.500, 16.49072
3366.428, 16.95960
3368.357, 16.45824
3370.285, 15.76435
3372.214, 16.00030
3374.142, 16.72340
3376.071, 16.60351
3377.999, 17.01687
3379.927, 16.96529
3381.856, 16.31080
3383.784, 15.55437
3385.713, 16.11230
3387.641, 15.01656
3389.570, 15.10568
3391.498, 15.97570
3393.427, 15.58607
3395.355, 15.03033
3397.284, 15.25045
3399.212, 15.69261
3401.141, 15.97621
3403.069, 16.34061
3404.998, 15.33170
3406.926, 15.29035
3408.854, 15.85821
3410.783, 15.88806
3412.711, 15.24684
3414.640, 15.16459
3416.568, 15.59181
3418.497, 16.03527
3420.425, 15.94629
3422.354, 15.90284
3424.282, 16.40733
3426.211, 16.73229
3428.139, 16.49091
3430.068, 16.14802
3431.996, 16.91178
3433.925, 15.84338
3435.853, 14.95217
3437.781, 16.30720
3439.710, 16.22054
3441.638, 16.06687
3443.567, 16.03192
3445.495, 15.93929
3447.424, 15.58989
3449.352, 15.63185
3451.281, 15.95068
3453.209, 15.28967
3455.138, 13.83022
3457.066, 13.00058
3458.995, 14.61339
3460.923, 14.12573
3462.852, 13.53152
3464.780, 13.99597
3466.708, 13.41608
3468.637, 12.51140
3470.565, 11.86782
3472.494, 11.77360
3474.422, 12.19396
3476.351, 12.65246
3478.279, 12.56685
3480.208, 12.97838
3482.136, 12.53209
3484.065, 10.81184
3485.993, 11.91385
3487.922, 11.27073
3489.850, 9.999949
3491.779, 9.509806
3493.707, 10.04843
3495.635, 9.189494
3497.564, 8.521418
3499.492, 9.107473
3501.421, 9.135563
3503.349, 7.437810
3505.278, 8.146333
3507.206, 7.192895
3509.135, 7.210429
3511.063, 7.662714
3512.992, 7.120749
3514.920, 5.638093
3516.849, 6.659925
3518.777, 7.077991
3520.706, 6.251663
3522.634, 5.182195
3524.563, 6.619440
3526.491, 5.770192
3528.419, 5.177657
3530.348, 5.070037
3532.276, 4.838913
3534.205, 4.203035
3536.133, 4.070199
3538.062, 4.007281
3539.990, 4.167002
3541.919, 4.510159
3543.847, 4.447680
3545.776, 4.130365
3547.704, 4.734823
3549.633, 4.981925
3551.561, 4.327463
3553.490, 3.568183
3555.418, 4.347078
3557.346, 4.636247
3559.275, 4.255944
3561.203, 3.634747
3563.132, 3.246418
3565.060, 3.095620
3566.989, 3.238692
3568.917, 3.398508
3570.846, 3.532698
3572.774, 3.637912
3574.703, 3.427727
3576.631, 3.597482
3578.560, 3.672818
3580.488, 3.414205
3582.417, 3.102128
3584.345, 3.422898
3586.273, 3.255407
3588.202, 3.177645
3590.130, 3.654853
3592.059, 3.934361
3593.987, 3.120635
3595.916, 3.301355
3597.844, 2.912195
3599.773, 3.113282
3601.701, 3.355497
3603.630, 3.025896
3605.558, 2.595562
3607.487, 3.446599
3609.415, 3.948239
3611.344, 4.225177
3613.272, 4.492864
3615.200, 4.673140
3617.129, 4.468165
3619.057, 4.530381
3620.986, 4.888550
3622.914, 5.133813
3624.843, 4.978265
3626.771, 4.487037
3628.700, 4.574879
3630.628, 3.621883
3632.557, 3.108506
3634.485, 2.813756
3636.414, 2.131568
3638.342, 3.417158
3640.271, 2.634925
3642.199, 1.946113
3644.127, 1.508798
3646.056, 1.426257
3647.984, 2.137845
3649.913, 2.302999
3651.841, 1.805066
3653.770, 1.249498
3655.698, 1.341160
3657.627, 1.860926
3659.555, 1.523836
3661.484, 1.836223
3663.412, 1.639833
3665.341, 1.624513
3667.269, 1.486983
3669.198, 1.021327
3671.126, 1.324091
3673.054, 1.522190
3674.983, 1.131213
3676.911, 1.317494
3678.840, 1.522254
3680.768, 0.8380349
3682.697, -0.1512115
3684.625, 1.368095
3686.554, 1.612710
3688.482, 1.033040
3690.411, 0.8425943
3692.339, 1.269289
3694.268, 0.9294257
3696.196, 0.3317971
3698.125, 0.4794973
3700.053, 0.8270994
3701.981, 0.8815957
3703.910, 0.7562522
3705.838, 1.202338
3707.767, 0.5707942
3709.695, 0.2464538
3711.624, 0.8073591
3713.552, 1.249888
3715.481, 0.8383089
3717.409, 0.3796889
3719.338, 0.8247519
3721.266, 1.012072
3723.195, 1.397843
3725.123, 1.101676
3727.052, 0.2863264
3728.980, 0.9168876
3730.908, 0.9188508
3732.837, 1.567008
3734.765, 0.7835013
3736.694, 0.3461260
3738.622, 0.8844515
3740.551, 0.9887807
3742.479, 0.9157402
3744.408, 0.6510280
3746.336, 0.2138116
3748.265, -8.3964422E-02
3750.193, 0.1673944
3752.122, 0.7962169
3754.050, 0.6419382
3755.979, 0.3530157
3757.907, -4.3062799E-02
3759.835, -2.2590240E-03
3761.764, 0.7215495
3763.692, 1.083107
3765.621, -5.7948209E-02
3767.549, 0.5774591
3769.478, 0.7346873
3771.406, 0.6436751
3773.335, 0.5518852
3775.263, 1.053354
3777.192, 1.755436
3779.120, 0.6168747
3781.049, 0.6489336
3782.977, 1.125616
3784.906, 1.168506
3786.834, 1.054698
3788.762, 0.8222931
3790.691, 0.2842097
3792.619, 0.2364840
3794.548, 0.5967303
3796.476, 0.4458281
3798.405, 0.6673169
3800.333, 0.5144624
3802.262, 3.9954990E-02
3804.190, 0.4843543
3806.119, 0.8223737
3808.047, 1.288205
3809.976, 0.8254102
3811.904, -9.0704747E-02
3813.833, -6.5278232E-02
3815.761, 0.7626075
3817.689, 0.7435499
3819.618, 0.1157185
3821.546, -0.1036358
3823.475, -0.1592472
3825.403, 0.4518694
3827.332, 0.9807283
3829.260, 0.6644873
3831.189, -7.9077050E-02
3833.117, 0.6530613
3835.046, 1.315398
3836.974, 0.4651240
3838.903, 3.0210361E-02
3840.831, 0.1827933
3842.760, 0.4152029
3844.688, 0.4808663
3846.616, -0.3169586
3848.545, 0.2130466
3850.473, 0.2989466
3852.402, 0.7004009
3854.330, 1.054220
3856.259, 0.9055614
3858.187, 0.5346409
3860.116, 0.8546975
3862.044, -0.7575335
3863.973, -1.7764401E-02
3865.901, -0.1952709
3867.830, 0.3301041
3869.758, 0.7708310
3871.687, 0.5304315
3873.615, 1.050420
3875.543, -0.3473167
3877.472, 0.7298752
3879.400, 0.3913614
3881.329, 0.9509920
3883.257, 0.7101310
3885.186, -0.4299756
3887.114, -0.6856483
3889.043, -2.9687880E-02
3890.971, -0.9706176
3892.900, -0.2418055
3894.828, -0.1987554
3896.757, 0.4784528
3898.685, 0.6058316
3900.614, -0.1314458
3902.542, -0.2777872
3904.470, 0.6924069
3906.399, 7.7207528E-02
3908.327, 0.3220333
3910.256, 0.7851545
3912.184, 0.5212069
3914.113, 0.7914654
3916.041, 1.247212
3917.970, 0.6658347
3919.898, 0.8079700
3921.827, 2.5653301E-02
3923.755, 0.9296521
3925.684, 8.2367197E-02
3927.612, 0.3314277
3929.541, 0.5644939
3931.469, 0.3760225
3933.397, 0.6521088
3935.326, 0.2942124
3937.254, 0.3616162
3939.183, 0.8363129
3941.111, 0.1930956
3943.040, -0.3277552
3944.968, 0.1350602
3946.897, 0.6396093
3948.825, 0.8306907
3950.754, 1.254583
3952.682, 5.1596731E-02
3954.611, 0.9496208
3956.539, 0.4744373
3958.468, 0.2465713
3960.396, 0.3253045
3962.324, 0.4190890
3964.253, 0.1326173
3966.181, -7.3552147E-02
3968.110, 0.9682103
3970.038, 1.084281
3971.967, 0.2429556
3973.895, 0.6151089
3975.824, 0.9303275
3977.752, 0.7960213
3979.681, 0.3373170
3981.609, -0.2693738
3983.538, -0.4604452
3985.466, 0.4821257
3987.395, 0.7556807
3989.323, 0.2326840
3991.251, 0.7307492
3993.180, 0.7413538
3995.108, 0.7301820
3997.037, 0.3432787
3998.965, 0.7058133
4000.894, 0.8364820
4002.822, 0.5607160
4004.751, 0.2175837
4006.679, -0.6799577
4008.608, 0.3076039
4010.536, -0.2007817
4012.465, 0.1327081
4014.393, 0.3353388
4016.322, -9.7241951E-03
4018.250, -0.8998855
4020.178, -0.6327902
4022.107, 0.3015817
4024.035, -0.3168064
4025.964, -0.7624408
4027.892, 0.2328842
4029.821, 0.5343256
4031.749, 1.250429
4033.678, 0.5114520
4035.606, 0.5385094
4037.535, 9.6688673E-02
4039.463, -0.2211753
4041.392, 0.2670899
4043.320, -0.2595190
4045.249, -0.1879115
4047.177, 0.9829629
4049.105, -7.0632033E-02
4051.034, 0.2621742
4052.962, 6.6935249E-02
4054.891, -0.1602644
4056.819, -5.0382670E-02
4058.748, 0.1633139
4060.676, 0.5028815
4062.605, 0.8830479
4064.533, 0.4128497
4066.462, 0.5161479
4068.390, 0.4650746
4070.319, 8.8186219E-02
4072.247, -0.7742670
4074.176, -0.3869932
4076.104, 0.4275716
4078.032, 0.5307037
4079.961, -9.1429129E-02
4081.889, -0.3767383
4083.818, 0.5946707
4085.746, -8.4003083E-02
4087.675, 0.3303025
4089.603, 0.4061631
4091.532, 0.3273473
4093.460, -3.4477230E-02
4095.389, 0.6889914
4097.317, 0.5100082
4099.246, 0.6316234
4101.174, 0.7633258
4103.103, -0.1207710
4105.031, 0.9278943
4106.959, 1.313631
4108.888, 0.5489992
4110.816, -0.3285215
4112.745, 0.2656859
4114.673, -7.2328717E-02
4116.602, 0.5754727
4118.530, -4.5060679E-02
4120.458, 5.5985961E-02
4122.387, 0.7350981
4124.315, 0.1979860
4126.244, -0.2744143
4128.172, 5.6039158E-02
4130.101, -0.9371030
4132.029, 0.5554554
4133.958, 1.418586
4135.886, -0.2888798
4137.815, -4.1483570E-02
4139.743, 0.3467394
4141.672, 0.4291971
4143.600, 0.3378071
4145.529, -0.1709488
4147.457, 1.8284830E-03
4149.386, 0.8018665
4151.314, -0.1622007
4153.243, -0.8011808
4155.171, 0.3034343
4157.100, 0.2741513
4159.028, 0.4653060
4160.957, -0.4092994
4162.885, 0.2715619
4164.813, 8.1683792E-02
4166.742, 1.5967291E-02
4168.670, 0.5187980
4170.599, 0.8166884
4172.527, 0.5602107
4174.456, -0.1775235
4176.384, -0.8912443
4178.313, -0.4174327
4180.241, -0.1567194
4182.169, -2.2845410E-02
4184.098, 9.0422660E-02
4186.026, 0.4394577
4187.955, -0.5366507
4189.883, 1.055168
4191.812, 0.7624270
4193.740, 0.5444608
4195.669, 0.4289225
4197.597, 0.1840419
4199.526, -2.8470989E-02
4201.454, -0.4419073
4203.383, -0.1133973
4205.311, 0.7905515
4207.240, 0.5565226
4209.168, -0.5989367
4211.097, -0.5016959
4213.025, 0.4440603
4214.954, 5.6666788E-03
4216.882, -0.1952612
4218.811, 0.1814229
4220.739, 0.6875283
4222.667, 0.7597955
4224.596, 0.2264341
4226.524, -0.5870410
4228.453, -0.8358505
4230.381, -0.4624659
4232.310, -0.2826629
4234.238, -0.4792088
4236.167, -0.6607441
4238.095, 1.032631
4240.023, 0.3148145
4241.952, 0.8076838
4243.880, 0.1852056
4245.809, -0.7793208
4247.737, 0.1612337
4249.666, 0.2401065
4251.594, -0.7802788
4253.523, -0.9383830
4255.451, -0.1847353
4257.380, -0.1566644
4259.308, 8.3460860E-02
4261.237, 0.6481750
4263.165, 0.2019124
4265.094, -0.4330589
4267.022, -0.4648843
4268.951, -0.9277834
4270.879, 3.6049191E-02
4272.808, -0.2236930
4274.736, 0.7635594
4276.665, 0.7534881
4278.593, -0.1563059
4280.521, -0.2742812
4282.450, -0.3145871
4284.378, -3.4553951E-03
4286.307, 0.5453255
4288.235, -0.2124969
4290.164, 0.2115972
4292.092, 0.5023028
4294.021, 0.2305346
4295.949, 0.2866697
4297.877, 0.3819304
4299.806, 0.1713889
4301.734, 2.7703920E-10
4303.663, 3.2074910E-02
4305.591, -8.9919187E-02
4307.520, -0.4623731
4309.448, -0.3119631
4311.377, 0.7082614
4313.305, 0.9739518
4315.234, -7.4746408E-02
4317.162, -0.9489032
4319.091, -0.1058979
4321.019, 0.1979085
4322.948, 0.8972613
4324.876, 0.8055646
4326.805, 0.1710894
4328.733, -0.3275020
4330.662, 0.5467600
4332.590, 0.7690490
4334.519, 0.5101979
4336.447, 0.4334261
4338.375, 0.3196099
4340.304, 0.3381625
4342.232, 0.4725255
4344.161, 0.7954497
4346.089, -8.6099118E-02
4348.018, -0.4031506
4349.946, 0.3155367
4351.875, 0.1635084
4353.803, -0.2447369
4355.731, 2.3666389E-02
4357.660, 0.4025486
4359.588, -0.5755273
4361.517, -7.7958121E-03
4363.445, -2.6724920E-02
4365.374, -0.1216073
4367.302, 0.2990199
4369.231, 0.6949717
4371.159, -0.8128135
4373.088, 0.3578915
4375.016, -7.4222811E-02
4376.945, -0.3812595
4378.873, -0.5332943
4380.802, -0.8190770
##END=



