##NAMES=Inesite
##RRUFFID=R090030
##IDEAL CHEMISTRY=Ca_2_Mn^2+^_7_Si_10_O_28_(OH)_2_·5H_2_O
##LOCALITY=Hale Creek Mine, Mad River Ridge, Hale Creek, Trinity County, California, USA
##OWNER=RRUFF
##SOURCE=James Shigley
##DESCRIPTION=Clusters of pink slender chisel-shaped laths
##STATUS=The identification of this mineral has been confirmed by X-ray diffraction
##URL=https://www.rruff.net/odr/rruff_sample/R090030
##DIFFRACTION SAMPLE DESCRIPTION=Powder
##CELL PARAMETERS=a: 8.861 b: 9.2396 c: 11.952 alpha: 88.14 beta: 131.95 gamma: 96.7 volume: 721.3 crystal system: triclinic
##FILETYPE=Raman Processed
##RAMAN WAVELENGTH=780

133.3967, 185.7613
135.3252, 179.9000
137.2536, 173.4220
139.1821, 166.6108
141.1106, 161.5757
143.0390, 159.1585
144.9675, 157.7781
146.8960, 158.3821
148.8244, 158.9130
150.7529, 157.8335
152.6814, 155.2681
154.6098, 151.2783
156.5383, 145.1207
158.4668, 138.7305
160.3952, 131.1928
162.3237, 124.5314
164.2522, 119.8901
166.1806, 117.1051
168.1091, 116.2464
170.0376, 118.2499
171.9660, 120.3654
173.8945, 123.2897
175.8230, 125.4241
177.7514, 125.7790
179.6799, 124.9478
181.6084, 123.5417
183.5368, 121.3182
185.4653, 119.4883
187.3938, 117.6906
189.3223, 116.8006
191.2507, 117.3070
193.1792, 118.7733
195.1077, 120.8801
197.0361, 123.6293
198.9646, 126.8512
200.8931, 130.3053
202.8215, 134.6832
204.7500, 140.4793
206.6785, 146.9128
208.6069, 153.5880
210.5354, 160.4466
212.4639, 167.8027
214.3923, 176.1449
216.3208, 182.3052
218.2493, 185.7314
220.1777, 187.2642
222.1062, 186.9192
224.0347, 185.3352
225.9631, 182.7504
227.8916, 179.1912
229.8201, 176.7476
231.7485, 175.3571
233.6770, 175.3218
235.6055, 177.6316
237.5339, 180.4545
239.4624, 183.4424
241.3909, 186.0994
243.3193, 186.9043
245.2478, 185.8939
247.1763, 184.3330
249.1047, 182.1196
251.0332, 179.9383
252.9617, 177.7798
254.8901, 175.8928
256.8186, 174.4905
258.7471, 173.6210
260.6755, 173.2927
262.6040, 173.2826
264.5325, 174.8119
266.4609, 177.9912
268.3894, 182.8692
270.3179, 189.7849
272.2463, 198.3110
274.1748, 208.4502
276.1033, 219.8686
278.0317, 229.9804
279.9602, 239.4952
281.8887, 245.4819
283.8171, 245.8491
285.7456, 244.4645
287.6741, 242.4275
289.6025, 240.9634
291.5310, 242.5976
293.4595, 247.7809
295.3879, 250.6994
297.3164, 252.6770
299.2449, 249.5437
301.1733, 238.5107
303.1018, 223.9636
305.0303, 207.1028
306.9587, 189.6835
308.8872, 175.1090
310.8157, 163.1862
312.7441, 155.2966
314.6726, 152.1755
316.6011, 151.4411
318.5295, 153.2318
320.4580, 156.6508
322.3865, 161.1551
324.3149, 166.6501
326.2434, 173.1290
328.1719, 181.2047
330.1003, 188.1762
332.0288, 194.8323
333.9573, 198.8825
335.8857, 198.7242
337.8142, 196.5680
339.7427, 193.3549
341.6711, 189.5837
343.5996, 186.3103
345.5281, 183.4731
347.4565, 181.8644
349.3850, 182.4984
351.3135, 181.6716
353.2419, 177.9717
355.1704, 172.5443
357.0989, 165.6874
359.0273, 157.8059
360.9558, 149.1232
362.8843, 139.5959
364.8127, 132.0922
366.7412, 126.9896
368.6697, 122.6707
370.5981, 119.0939
372.5266, 115.6705
374.4551, 112.0146
376.3835, 108.4026
378.3120, 105.2690
380.2405, 102.6053
382.1689, 100.0108
384.0974, 97.44711
386.0259, 95.16088
387.9543, 93.23125
389.8828, 91.58821
391.8113, 90.28675
393.7397, 89.20304
395.6682, 88.09956
397.5967, 87.12619
399.5251, 86.69483
401.4536, 86.80807
403.3821, 87.26198
405.3105, 88.16241
407.2390, 89.10567
409.1675, 90.45525
411.0959, 91.32266
413.0244, 90.55811
414.9529, 89.40830
416.8813, 89.73807
418.8098, 91.19396
420.7383, 92.57010
422.6667, 94.02809
424.5952, 94.42384
426.5237, 93.45218
428.4521, 91.74152
430.3806, 88.90397
432.3091, 85.91747
434.2375, 83.26950
436.1660, 81.10101
438.0945, 79.63372
440.0229, 78.85594
441.9514, 78.46465
443.8799, 78.73381
445.8083, 78.84431
447.7368, 78.96627
449.6653, 78.69082
451.5938, 77.71920
453.5222, 76.42250
455.4507, 74.79741
457.3792, 73.19311
459.3076, 72.44821
461.2361, 72.65898
463.1646, 72.66056
465.0930, 72.18081
467.0215, 72.26463
468.9500, 73.37739
470.8784, 74.39634
472.8069, 74.73315
474.7354, 74.89564
476.6638, 75.13598
478.5923, 75.53277
480.5208, 76.08961
482.4492, 76.79496
484.3777, 78.44031
486.3062, 81.29358
488.2346, 83.54519
490.1631, 85.07242
492.0916, 85.63196
494.0200, 85.33837
495.9485, 83.72786
497.8770, 79.89551
499.8054, 74.91317
501.7339, 70.10390
503.6624, 65.56530
505.5908, 61.83985
507.5193, 58.92674
509.4478, 56.59981
511.3762, 54.96373
513.3047, 53.52859
515.2332, 52.11184
517.1616, 50.89324
519.0901, 49.95069
521.0186, 49.26973
522.9470, 48.83647
524.8755, 48.62566
526.8040, 48.78144
528.7324, 49.21093
530.6609, 49.04244
532.5894, 48.02991
534.5178, 47.37466
536.4463, 47.55368
538.3748, 47.74172
540.3032, 47.67603
542.2317, 47.65865
544.1602, 47.90160
546.0886, 48.26528
548.0171, 48.54602
549.9456, 48.79661
551.8740, 49.27146
553.8025, 49.97083
555.7310, 50.30407
557.6594, 50.07331
559.5879, 49.85662
561.5164, 49.76283
563.4448, 49.60079
565.3733, 49.14958
567.3018, 48.82674
569.2302, 48.81566
571.1587, 49.12578
573.0872, 49.77328
575.0156, 50.71242
576.9441, 51.82300
578.8726, 53.10038
580.8010, 54.68598
582.7295, 56.65473
584.6580, 58.77113
586.5864, 60.87363
588.5149, 63.42558
590.4434, 66.64714
592.3718, 70.15389
594.3003, 73.87398
596.2288, 77.66805
598.1572, 81.56102
600.0857, 85.37330
602.0142, 88.79110
603.9426, 91.83749
605.8711, 94.67040
607.7996, 97.21667
609.7280, 99.96925
611.6565, 102.7455
613.5850, 106.4384
615.5134, 111.0309
617.4419, 116.9612
619.3704, 124.6784
621.2988, 133.4545
623.2273, 143.2165
625.1558, 153.4841
627.0842, 163.3090
629.0127, 173.5698
630.9412, 185.6787
632.8696, 199.7783
634.7981, 215.9515
636.7266, 234.1901
638.6550, 257.8492
640.5835, 287.5782
642.5120, 320.8565
644.4404, 359.0401
646.3689, 396.3619
648.2974, 437.3653
650.2258, 468.7918
652.1543, 488.3334
654.0828, 492.6031
656.0112, 474.9820
657.9397, 443.0635
659.8682, 402.6854
661.7966, 358.1569
663.7251, 319.1674
665.6536, 285.9361
667.5820, 259.1527
669.5105, 239.0662
671.4390, 223.6288
673.3674, 213.1786
675.2959, 206.1363
677.2244, 202.9388
679.1528, 201.9100
681.0813, 203.8777
683.0098, 206.3297
684.9382, 208.8251
686.8667, 210.4445
688.7952, 211.2778
690.7236, 210.0480
692.6521, 205.1260
694.5806, 197.2042
696.5090, 187.2809
698.4375, 175.6248
700.3660, 164.8946
702.2944, 155.0530
704.2229, 146.5670
706.1514, 139.4305
708.0798, 133.7968
710.0083, 130.1654
711.9368, 127.1030
713.8652, 124.7635
715.7937, 122.2234
717.7222, 119.1821
719.6506, 115.7430
721.5791, 111.9993
723.5076, 107.8450
725.4360, 103.2539
727.3645, 98.17142
729.2930, 92.14292
731.2214, 85.69427
733.1499, 80.25838
735.0784, 75.73127
737.0068, 71.15981
738.9353, 66.48973
740.8638, 62.74031
742.7922, 59.95973
744.7207, 57.67364
746.6492, 55.89782
748.5776, 54.31207
750.5061, 52.81899
752.4346, 51.59647
754.3630, 50.65993
756.2915, 50.08333
758.2200, 50.03814
760.1484, 50.16482
762.0769, 50.40062
764.0054, 50.57099
765.9338, 50.58720
767.8623, 50.40798
769.7908, 50.04275
771.7192, 49.39326
773.6477, 48.12181
775.5762, 46.42047
777.5046, 44.91597
779.4331, 43.58527
781.3616, 42.26915
783.2900, 40.96191
785.2185, 39.73754
787.1470, 38.57677
789.0754, 37.77148
791.0039, 37.49348
792.9324, 37.15524
794.8608, 36.65195
796.7893, 36.11795
798.7178, 35.33828
800.6462, 34.89990
802.5747, 35.28815
804.5032, 35.59972
806.4316, 35.30854
808.3601, 34.93824
810.2886, 34.87408
812.2170, 34.85630
814.1455, 34.58674
816.0740, 34.26519
818.0024, 34.11501
819.9309, 34.06887
821.8594, 34.02308
823.7878, 34.01194
825.7163, 34.17553
827.6448, 34.45356
829.5732, 34.44292
831.5017, 34.13924
833.4302, 33.98954
835.3586, 34.02923
837.2871, 34.06110
839.2156, 34.10194
841.1440, 34.01033
843.0725, 33.72357
845.0010, 33.55351
846.9294, 33.58926
848.8579, 33.55153
850.7864, 33.36329
852.7148, 33.14191
854.6433, 32.90590
856.5718, 32.70523
858.5002, 32.59076
860.4287, 32.44106
862.3572, 32.09034
864.2856, 31.85633
866.2141, 31.91129
868.1426, 32.11874
870.0710, 32.56174
871.9995, 32.89172
873.9280, 32.70201
875.8564, 32.44815
877.7849, 32.46675
879.7134, 32.76888
881.6418, 33.52353
883.5703, 34.50011
885.4988, 35.33068
887.4272, 36.10722
889.3557, 36.87564
891.2842, 37.68905
893.2126, 38.74320
895.1411, 40.08094
897.0696, 41.94577
898.9980, 44.26485
900.9265, 46.60810
902.8550, 49.01691
904.7834, 51.85107
906.7119, 55.11126
908.6404, 58.72392
910.5688, 62.70234
912.4973, 66.45304
914.4258, 69.81352
916.3542, 73.84992
918.2827, 78.74339
920.2112, 84.03285
922.1396, 89.91589
924.0681, 95.54871
925.9966, 101.3259
927.9250, 106.0004
929.8535, 110.6103
931.7820, 112.0541
933.7104, 109.6437
935.6389, 104.5220
937.5674, 95.33829
939.4958, 86.13528
941.4243, 77.39536
943.3528, 69.63781
945.2813, 62.88371
947.2097, 57.38249
949.1382, 53.34588
951.0667, 50.62123
952.9951, 49.31903
954.9236, 48.61546
956.8521, 48.35048
958.7805, 48.40474
960.7090, 48.80232
962.6375, 49.28236
964.5659, 49.43938
966.4944, 50.03485
968.4229, 51.64911
970.3513, 53.67569
972.2798, 55.76843
974.2083, 58.13052
976.1367, 61.06282
978.0652, 64.15322
979.9937, 67.17555
981.9221, 69.94057
983.8506, 72.16203
985.7791, 74.41507
987.7075, 77.00771
989.6360, 79.97141
991.5645, 83.03990
993.4929, 86.93565
995.4214, 92.01568
997.3499, 98.75014
999.2783, 108.1745
1001.207, 119.2053
1003.135, 130.6104
1005.064, 142.8247
1006.992, 157.1647
1008.921, 171.7052
1010.849, 184.7716
1012.778, 195.6888
1014.706, 203.8365
1016.635, 208.8025
1018.563, 208.9535
1020.491, 206.2926
1022.420, 203.2976
1024.348, 199.9977
1026.277, 197.3810
1028.205, 193.7524
1030.134, 186.4449
1032.062, 176.6411
1033.991, 164.6374
1035.919, 152.4094
1037.848, 141.9033
1039.776, 133.6788
1041.705, 128.8090
1043.633, 126.5080
1045.562, 126.3994
1047.490, 127.7967
1049.418, 130.1378
1051.347, 133.0002
1053.275, 135.7667
1055.204, 138.5022
1057.132, 141.2752
1059.061, 144.3624
1060.989, 148.7144
1062.918, 152.7548
1064.846, 155.9949
1066.775, 156.7569
1068.703, 152.9091
1070.632, 145.6720
1072.560, 134.8499
1074.489, 122.9415
1076.417, 111.7218
1078.345, 101.5727
1080.274, 93.17733
1082.202, 85.69334
1084.131, 78.50964
1086.059, 71.77052
1087.988, 65.50567
1089.916, 59.75892
1091.845, 54.58096
1093.773, 49.98572
1095.702, 46.01900
1097.630, 42.54728
1099.559, 39.51619
1101.487, 37.01403
1103.416, 35.20710
1105.344, 33.65877
1107.272, 32.17635
1109.201, 30.92599
1111.129, 30.03060
1113.058, 29.23487
1114.986, 28.56805
1116.915, 27.86021
1118.843, 26.88409
1120.772, 26.06466
1122.700, 25.58327
1124.629, 25.18901
1126.557, 24.92355
1128.486, 24.50019
1130.414, 23.72584
1132.343, 23.19740
1134.271, 23.12119
1136.199, 22.90404
1138.128, 22.38054
1140.056, 22.05092
1141.985, 22.04570
1143.913, 21.86060
1145.842, 21.42453
1147.770, 21.13325
1149.699, 20.98311
1151.627, 20.85818
1153.556, 20.79939
1155.484, 20.61256
1157.413, 20.28572
1159.341, 20.05321
1161.270, 19.91401
1163.198, 19.96776
1165.126, 20.14098
1167.055, 19.90820
1168.983, 19.45464
1170.912, 19.50215
1172.840, 19.78730
1174.769, 19.69793
1176.697, 19.40409
1178.626, 19.09934
1180.554, 18.92832
1182.483, 19.19664
1184.411, 19.51089
1186.340, 19.47521
1188.268, 19.36632
1190.197, 19.24324
1192.125, 19.16409
1194.053, 19.36787
1195.982, 19.54893
1197.910, 19.48245
1199.839, 19.38291
1201.767, 19.31433
1203.696, 19.23109
1205.624, 19.12250
1207.553, 19.10819
1209.481, 19.24897
1211.410, 19.33661
1213.338, 19.30203
1215.267, 19.26710
1217.195, 19.28576
1219.124, 19.26748
1221.052, 19.17720
1222.980, 19.16637
1224.909, 19.22474
1226.837, 19.26770
1228.766, 19.32525
1230.694, 19.31793
1232.623, 19.23893
1234.551, 19.41080
1236.480, 19.68884
1238.408, 19.43378
1240.337, 19.01225
1242.265, 18.98167
1244.194, 19.12552
1246.122, 19.46334
1248.051, 19.71069
1249.979, 19.44260
1251.907, 19.11407
1253.836, 19.02452
1255.764, 19.05058
1257.693, 19.15358
1259.621, 19.18997
1261.550, 19.02486
1263.478, 19.01565
1265.407, 19.44056
1267.335, 19.61419
1269.264, 19.31704
1271.192, 19.18864
1273.121, 19.26684
1275.049, 19.32835
1276.978, 19.37733
1278.906, 19.30751
1280.834, 19.15061
1282.763, 19.22258
1284.691, 19.45574
1286.620, 19.48562
1288.548, 19.34105
1290.477, 19.25121
1292.405, 19.27582
1294.334, 19.36233
1296.262, 19.45612
1298.191, 19.59404
1300.119, 19.66048
1302.048, 19.57034
1303.976, 19.52763
1305.905, 19.61761
1307.833, 19.62095
1309.761, 19.42471
1311.690, 19.28875
1313.618, 19.38502
1315.547, 19.47254
1317.475, 19.36843
1319.404, 19.37519
1321.332, 19.59342
1323.261, 19.71292
1325.189, 19.68775
1327.118, 19.67112
1329.046, 19.70877
1330.975, 19.71523
1332.903, 19.68350
1334.832, 19.67869
1336.760, 19.69515
1338.688, 19.74371
1340.617, 19.75464
1342.545, 19.62615
1344.474, 19.60314
1346.402, 19.72801
1348.331, 19.94925
1350.259, 20.27365
1352.188, 20.35948
1354.116, 20.22099
1356.045, 20.17161
1357.973, 20.26675
1359.902, 20.52161
1361.830, 20.70819
1363.759, 20.49727
1365.687, 20.25152
1367.615, 20.36586
1369.544, 20.55536
1371.472, 20.59990
1373.401, 20.63606
1375.329, 20.77719
1377.258, 20.74758
1379.186, 20.49259
1381.115, 20.34383
1383.043, 20.21210
1384.972, 20.13226
1386.900, 20.19834
1388.829, 20.39227
1390.757, 20.52963
1392.686, 20.29827
1394.614, 20.07903
1396.542, 20.27458
1398.471, 20.47054
1400.399, 20.43317
1402.328, 20.48410
1404.256, 20.71294
1406.185, 20.77351
1408.113, 20.70056
1410.042, 20.77167
1411.970, 20.84606
1413.899, 20.82166
1415.827, 20.86155
1417.756, 20.87930
1419.684, 20.73777
1421.613, 20.53720
1423.541, 20.45777
1425.469, 20.43361
1427.398, 20.40915
1429.326, 20.54217
1431.255, 20.67925
1433.183, 20.75597
1435.112, 20.60613
1437.040, 20.21633
1438.969, 20.12854
1440.897, 20.30183
1442.826, 20.32545
1444.754, 20.22369
1446.683, 20.07006
1448.611, 19.94132
1450.540, 20.05009
1452.468, 20.16166
1454.396, 19.88680
1456.325, 19.58742
1458.253, 19.63251
1460.182, 19.67175
1462.110, 19.51478
1464.039, 19.37224
1465.967, 19.26918
1467.896, 19.30721
1469.824, 19.41680
1471.753, 19.54758
1473.681, 19.73080
1475.610, 19.69600
1477.538, 19.51303
1479.467, 19.39649
1481.395, 19.39129
1483.323, 19.44654
1485.252, 19.53266
1487.180, 19.66105
1489.109, 19.64749
1491.037, 19.53290
1492.966, 19.43562
1494.894, 19.35498
1496.823, 19.36882
1498.751, 19.42627
1500.680, 19.47580
1502.608, 19.41867
1504.537, 19.28367
1506.465, 19.18075
1508.394, 18.96079
1510.322, 18.90581
1512.250, 19.17224
1514.179, 19.36474
1516.107, 19.43257
1518.036, 19.34981
1519.964, 19.24557
1521.893, 19.18259
1523.821, 19.18623
1525.750, 19.55425
1527.678, 19.82376
1529.607, 19.69079
1531.535, 19.40923
1533.464, 19.17035
1535.392, 19.54336
1537.321, 20.09134
1539.249, 20.00121
1541.177, 19.72368
1543.106, 19.41295
1545.034, 19.26094
1546.963, 19.64411
1548.891, 19.86564
1550.820, 19.64141
1552.748, 19.53716
1554.677, 19.61820
1556.605, 19.65975
1558.534, 19.61703
1560.462, 19.55026
1562.391, 19.54189
1564.319, 19.59349
1566.248, 19.61739
1568.176, 19.54788
1570.104, 19.39491
1572.033, 19.23646
1573.961, 19.22538
1575.890, 19.24534
1577.818, 19.21891
1579.747, 19.27395
1581.675, 19.43896
1583.604, 19.51039
1585.532, 19.43509
1587.461, 19.45163
1589.389, 19.57521
1591.318, 19.55750
1593.246, 19.47597
1595.175, 19.31765
1597.103, 19.11513
1599.031, 19.21858
1600.960, 19.42333
1602.888, 19.42785
1604.817, 19.38358
1606.745, 19.42398
1608.674, 19.45643
1610.602, 19.55045
1612.531, 19.54925
1614.459, 19.28241
1616.388, 19.26621
1618.316, 19.42946
1620.245, 19.43016
1622.173, 19.47079
1624.102, 19.52557
1626.030, 19.52637
1627.958, 19.57257
1629.887, 19.52609
1631.815, 19.43397
1633.744, 19.33002
1635.672, 19.23562
1637.601, 19.24067
1639.529, 19.19664
1641.458, 19.33452
1643.386, 19.33497
1645.315, 18.99721
1647.243, 18.76802
1649.172, 18.64462
1651.100, 18.68406
1653.029, 18.80286
1654.957, 18.63556
1656.885, 18.42097
1658.814, 18.55605
1660.742, 18.51130
1662.671, 18.33220
1664.599, 18.40083
1666.528, 18.33977
1668.456, 18.25052
1670.385, 18.22993
1672.313, 17.96898
1674.242, 17.77148
1676.170, 17.88773
1678.099, 17.97211
1680.027, 17.83127
1681.956, 17.64024
1683.884, 17.52494
1685.813, 17.71634
1687.741, 17.93142
1689.669, 17.74909
1691.598, 17.54735
1693.526, 17.53562
1695.455, 17.35746
1697.383, 17.08008
1699.312, 17.16164
1701.240, 17.27774
1703.169, 17.21748
1705.097, 17.18286
1707.026, 17.03593
1708.954, 17.03689
1710.883, 17.16558
1712.811, 16.98412
1714.740, 16.84865
1716.668, 16.80662
1718.596, 16.65869
1720.525, 16.68761
1722.453, 16.76667
1724.382, 16.71524
1726.310, 16.71308
1728.239, 16.79524
1730.167, 16.77329
1732.096, 16.85559
1734.024, 16.97131
1735.953, 16.90117
1737.881, 16.78448
1739.810, 16.73586
1741.738, 16.65665
1743.667, 16.57609
1745.595, 16.60464
1747.523, 16.57873
1749.452, 16.49134
1751.380, 16.31063
1753.309, 16.26147
1755.237, 16.46345
1757.166, 16.47790
1759.094, 16.28227
1761.023, 16.11670
1762.951, 16.13982
1764.880, 16.21757
1766.808, 16.19464
1768.737, 16.32089
1770.665, 16.53706
1772.594, 16.62458
1774.522, 16.48078
1776.450, 16.27656
1778.379, 16.12883
1780.307, 16.02744
1782.236, 16.06314
1784.164, 16.16480
1786.093, 16.17605
1788.021, 15.87845
1789.950, 15.54548
1791.878, 15.71267
1793.807, 15.96294
1795.735, 15.99340
1797.664, 15.93047
1799.592, 15.84327
1801.521, 15.62870
1803.449, 15.43724
1805.377, 15.46634
1807.306, 15.64784
1809.234, 15.84540
1811.163, 15.69419
1813.091, 15.37910
1815.020, 15.32718
1816.948, 15.44851
1818.877, 15.49663
1820.805, 15.26315
1822.734, 15.12013
1824.662, 15.20068
1826.591, 15.18528
1828.519, 15.34246
1830.448, 15.48117
1832.376, 15.35667
1834.304, 15.25416
1836.233, 15.16480
1838.161, 15.24344
1840.090, 15.38888
1842.018, 15.39130
1843.947, 15.47933
1845.875, 15.46533
1847.804, 15.24428
1849.732, 15.10259
1851.661, 15.13930
1853.589, 15.21873
1855.518, 15.08541
1857.446, 14.84137
1859.375, 14.65427
1861.303, 14.71991
1863.231, 14.99640
1865.160, 15.03603
1867.088, 14.85023
1869.017, 14.73687
1870.945, 14.76660
1872.874, 14.71279
1874.802, 14.65732
1876.731, 14.77599
1878.659, 14.89137
1880.588, 14.94078
1882.516, 14.88143
1884.445, 14.68724
1886.373, 14.61959
1888.302, 14.71725
1890.230, 14.74817
1892.158, 14.67898
1894.087, 14.71544
1896.015, 14.97482
1897.944, 15.13595
1899.872, 14.93041
1901.801, 14.63194
1903.729, 14.61421
1905.658, 14.75131
1907.586, 14.87987
1909.515, 14.92616
1911.443, 14.76748
1913.372, 14.72965
1915.300, 14.82639
1917.229, 14.75853
1919.157, 14.71360
1921.085, 14.80225
1923.014, 14.87365
1924.942, 14.80770
1926.871, 14.59894
1928.799, 14.41564
1930.728, 14.36816
1932.656, 14.48004
1934.585, 14.50456
1936.513, 14.47166
1938.442, 14.61320
1940.370, 14.75076
1942.299, 14.79593
1944.227, 14.67286
1946.156, 14.47939
1948.084, 14.28325
1950.012, 14.23979
1951.941, 14.37690
1953.869, 14.47076
1955.798, 14.57643
1957.726, 14.51256
1959.655, 14.28019
1961.583, 14.11116
1963.512, 14.13584
1965.440, 14.23451
1967.369, 14.18006
1969.297, 14.07967
1971.226, 14.25676
1973.154, 14.50353
1975.083, 14.42517
1977.011, 14.28939
1978.939, 14.23665
1980.868, 14.10094
1982.796, 14.00084
1984.725, 14.06988
1986.653, 14.23200
1988.582, 14.29580
1990.510, 14.22202
1992.439, 14.13502
1994.367, 14.14736
1996.296, 14.20066
1998.224, 14.05337
2000.153, 13.86679
2002.081, 13.90769
2004.010, 13.94254
2005.938, 13.97279
2007.866, 13.98175
2009.795, 13.96893
2011.723, 13.95221
2013.652, 13.90603
2015.580, 13.94790
2017.509, 14.07609
2019.437, 14.10821
2021.366, 14.03449
2023.294, 14.05295
2025.223, 14.18752
2027.151, 14.20655
2029.080, 13.93872
2031.008, 13.79761
2032.937, 13.93597
2034.865, 14.12807
2036.793, 14.06802
2038.722, 13.75752
2040.650, 13.64881
2042.579, 13.79255
2044.507, 13.98775
2046.436, 14.07832
2048.364, 14.01820
2050.293, 13.77451
2052.221, 13.77483
2054.150, 13.95755
2056.078, 14.02482
2058.007, 14.08386
2059.935, 13.85573
2061.864, 13.49155
2063.792, 13.57057
2065.720, 13.82281
2067.649, 13.98181
2069.577, 14.02682
2071.506, 13.88564
2073.434, 13.88221
2075.363, 14.00071
2077.291, 13.90189
2079.220, 13.78786
2081.148, 13.84174
2083.077, 13.84545
2085.005, 13.63815
2086.934, 13.74822
2088.862, 14.01377
2090.791, 13.97450
2092.719, 13.74951
2094.647, 13.54708
2096.576, 13.60498
2098.504, 13.69845
2100.433, 13.79688
2102.361, 13.90685
2104.290, 13.82396
2106.218, 13.74903
2108.147, 13.75552
2110.075, 13.75756
2112.004, 13.63352
2113.932, 13.60464
2115.861, 13.57575
2117.789, 13.65854
2119.718, 13.83259
2121.646, 13.80546
2123.574, 13.62883
2125.503, 13.62795
2127.431, 13.79793
2129.360, 13.82589
2131.288, 13.89954
2133.217, 13.98662
2135.145, 13.80454
2137.074, 13.66949
2139.002, 13.67000
2140.931, 13.74411
2142.859, 13.90229
2144.788, 13.89715
2146.716, 13.74901
2148.645, 13.59736
2150.573, 13.48012
2152.501, 13.66001
2154.430, 13.89545
2156.358, 13.83597
2158.287, 13.71686
2160.215, 13.66406
2162.144, 13.70879
2164.072, 13.80878
2166.001, 13.67190
2167.929, 13.65542
2169.858, 13.81983
2171.786, 13.80612
2173.715, 13.74118
2175.643, 13.61935
2177.572, 13.48737
2179.500, 13.47845
2181.428, 13.44892
2183.357, 13.63576
2185.285, 13.89134
2187.214, 13.65645
2189.142, 13.39962
2191.071, 13.19192
2192.999, 13.73399
2194.928, 14.04088
2196.856, 14.12521
2198.785, 13.32044
2200.713, 13.66377
2202.642, 13.54699
2204.570, 13.41135
2206.499, 13.91627
2208.427, 13.24081
2210.355, 13.73557
2212.284, 13.76321
2214.212, 14.00463
2216.141, 13.78311
2218.069, 13.70458
2219.998, 14.08914
2221.926, 14.21728
2223.855, 13.94247
2225.783, 14.19748
2227.712, 13.50586
2229.640, 13.64492
2231.569, 14.14239
2233.497, 13.89086
2235.426, 13.77722
2237.354, 13.64597
2239.282, 13.62768
2241.211, 13.68086
2243.139, 13.67046
2245.068, 13.71872
2246.996, 13.89138
2248.925, 14.02522
2250.853, 14.01084
2252.782, 13.89828
2254.710, 13.94730
2256.639, 14.09376
2258.567, 14.05214
2260.496, 14.09900
2262.424, 14.15587
2264.353, 14.00815
2266.281, 13.88896
2268.209, 13.94419
2270.138, 13.91414
2272.066, 14.03934
2273.995, 14.22736
2275.923, 13.99248
2277.852, 13.62139
2279.780, 13.69049
2281.709, 13.80036
2283.637, 13.73499
2285.566, 13.73961
2287.494, 13.77567
2289.423, 13.82009
2291.351, 14.04580
2293.280, 14.20965
2295.208, 14.12428
2297.136, 13.90189
2299.065, 13.91479
2300.993, 13.95059
2302.922, 13.71274
2304.850, 13.76236
2306.779, 13.89328
2308.707, 13.94819
2310.636, 14.05172
2312.564, 13.98489
2314.493, 13.75889
2316.421, 13.70995
2318.350, 13.76071
2320.278, 13.86699
2322.207, 14.12134
2324.135, 14.37031
2326.063, 14.37130
2327.992, 14.28718
2329.920, 14.31219
2331.849, 14.22681
2333.777, 14.22229
2335.706, 14.29464
2337.634, 14.16080
2339.563, 14.23429
2341.491, 14.42381
2343.420, 14.35645
2345.348, 14.21559
2347.277, 14.20800
2349.205, 14.16141
2351.134, 14.16515
2353.062, 14.19402
2354.990, 13.95853
2356.919, 13.93730
2358.847, 14.22139
2360.776, 14.26224
2362.704, 14.21165
2364.633, 14.08959
2366.561, 14.15408
2368.490, 14.20963
2370.418, 14.03481
2372.347, 14.11426
2374.275, 14.24195
2376.204, 14.29525
2378.132, 14.24736
2380.061, 14.15599
2381.989, 14.49707
2383.917, 14.55565
2385.846, 14.36276
2387.774, 14.21579
2389.703, 14.11108
2391.631, 14.01928
2393.560, 14.14007
2395.488, 14.31737
2397.417, 14.43734
2399.345, 14.40872
2401.274, 14.39815
2403.202, 14.51029
2405.131, 14.35910
2407.059, 14.11667
2408.988, 14.15088
2410.916, 14.18681
2412.844, 14.30603
2414.773, 14.41372
2416.701, 14.37223
2418.630, 14.06036
2420.558, 14.19617
2422.487, 14.48372
2424.415, 14.77127
2426.344, 14.70243
2428.272, 14.37097
2430.201, 14.34757
2432.129, 14.51911
2434.058, 14.63581
2435.986, 14.59353
2437.915, 14.65224
2439.843, 14.71696
2441.771, 14.70998
2443.700, 14.75402
2445.628, 14.81730
2447.557, 14.75947
2449.485, 14.65881
2451.414, 14.65180
2453.342, 14.60855
2455.271, 14.47769
2457.199, 14.74662
2459.128, 14.93553
2461.056, 14.82551
2462.985, 14.75658
2464.913, 14.96810
2466.842, 15.09410
2468.770, 14.67226
2470.698, 14.35574
2472.627, 14.40388
2474.555, 14.71533
2476.484, 14.90131
2478.412, 14.75470
2480.341, 14.92937
2482.269, 15.12793
2484.198, 15.03063
2486.126, 15.07830
2488.055, 15.21148
2489.983, 15.01201
2491.912, 14.94704
2493.840, 14.87448
2495.769, 14.74441
2497.697, 14.72629
2499.625, 14.86156
2501.554, 14.82528
2503.482, 14.88406
2505.411, 14.93353
2507.339, 14.90631
2509.268, 15.04145
2511.196, 15.13356
2513.125, 15.04127
2515.053, 14.94533
2516.982, 14.79044
2518.910, 14.90520
2520.839, 14.97616
2522.767, 14.89484
2524.696, 15.17093
2526.624, 15.40666
2528.552, 15.17375
2530.481, 15.24174
2532.409, 15.28200
2534.338, 14.96686
2536.266, 14.75820
2538.195, 14.80756
2540.123, 15.21342
2542.052, 15.31891
2543.980, 15.21833
2545.909, 15.19310
2547.837, 15.20576
2549.766, 15.25641
2551.694, 15.42803
2553.623, 15.21390
2555.551, 14.91669
2557.479, 15.24720
2559.408, 15.45769
2561.336, 15.47184
2563.265, 15.36180
2565.193, 15.32653
2567.122, 15.53575
2569.050, 15.42214
2570.979, 15.39747
2572.907, 15.40197
2574.836, 15.12085
2576.764, 15.19072
2578.693, 15.54904
2580.621, 15.35079
2582.550, 15.11621
2584.478, 14.98835
2586.406, 15.25525
2588.335, 15.33878
2590.263, 15.15792
2592.192, 15.18045
2594.120, 15.17723
2596.049, 15.16782
2597.977, 14.91556
2599.906, 15.01880
2601.834, 15.35564
2603.763, 15.36697
2605.691, 15.38161
2607.620, 15.47091
2609.548, 15.24761
2611.477, 15.03643
2613.405, 14.90610
2615.333, 14.99998
2617.262, 15.11228
2619.190, 15.09272
2621.119, 15.17607
2623.047, 15.22701
2624.976, 15.23550
2626.904, 15.25783
2628.833, 15.28131
2630.761, 15.29676
2632.690, 14.99850
2634.618, 14.93025
2636.547, 15.08510
2638.475, 15.20876
2640.404, 15.16596
2642.332, 14.94164
2644.260, 14.83809
2646.189, 14.90480
2648.117, 15.06503
2650.046, 14.94229
2651.974, 14.91888
2653.903, 14.90396
2655.831, 14.90878
2657.760, 14.71404
2659.688, 14.62749
2661.617, 14.80827
2663.545, 14.79654
2665.474, 14.67282
2667.402, 14.51065
2669.331, 14.39473
2671.259, 14.29630
2673.188, 14.55042
2675.116, 14.54396
2677.044, 14.30792
2678.973, 14.35380
2680.901, 14.44628
2682.830, 14.55429
2684.758, 14.70863
2686.687, 14.66088
2688.615, 14.37814
2690.544, 13.97734
2692.472, 13.91380
2694.401, 14.42848
2696.329, 14.70798
2698.258, 14.76492
2700.186, 13.93277
2702.115, 14.24871
2704.043, 14.10455
2705.971, 13.94153
2707.900, 14.41905
2709.828, 13.71622
2711.757, 14.18358
2713.685, 14.18383
2715.614, 14.39786
2717.542, 14.14896
2719.471, 14.04303
2721.399, 14.40022
2723.328, 14.50097
2725.256, 14.19877
2727.185, 14.42639
2729.113, 13.70738
2731.042, 13.81905
2732.970, 14.28914
2734.898, 14.01022
2736.827, 13.74314
2738.755, 13.59096
2740.684, 13.64428
2742.612, 13.59993
2744.541, 13.28894
2746.469, 13.64681
2748.398, 13.69015
2750.326, 13.19418
2752.255, 13.19519
2754.183, 13.26248
2756.112, 13.29624
2758.040, 13.40573
2759.969, 13.55566
2761.897, 13.55331
2763.825, 13.20777
2765.754, 13.04905
2767.682, 13.09873
2769.611, 13.36696
2771.539, 13.30775
2773.468, 13.22546
2775.396, 13.37032
2777.325, 13.33135
2779.253, 13.14812
2781.182, 12.91259
2783.110, 13.04371
2785.039, 12.95938
2786.967, 12.76012
2788.896, 12.92149
2790.824, 12.80552
2792.752, 12.66339
2794.681, 13.05268
2796.609, 12.73634
2798.538, 12.39725
2800.466, 12.53917
2802.395, 12.73707
2804.323, 12.76460
2806.252, 12.54932
2808.180, 12.44823
2810.109, 12.28906
2812.037, 12.15206
2813.966, 12.47716
2815.894, 12.49270
2817.823, 12.32082
2819.751, 12.35888
2821.679, 12.21751
2823.608, 12.08619
2825.536, 12.20959
2827.465, 11.91418
2829.393, 11.88208
2831.322, 12.20405
2833.250, 12.17712
2835.179, 11.89447
2837.107, 11.57201
2839.036, 11.67644
2840.964, 11.52730
2842.893, 11.35802
2844.821, 11.43274
2846.750, 11.63731
2848.678, 11.79810
2850.606, 11.77970
2852.535, 11.10199
2854.463, 11.12195
2856.392, 11.56618
2858.320, 11.31975
2860.249, 11.14495
2862.177, 11.06346
2864.106, 10.90596
2866.034, 10.90784
2867.963, 11.03079
2869.891, 11.17795
2871.820, 11.15922
2873.748, 11.01210
2875.677, 10.91326
2877.605, 11.19924
2879.533, 11.47294
2881.462, 11.00191
2883.390, 10.74447
2885.319, 10.57320
2887.247, 10.64332
2889.176, 10.83600
2891.104, 10.30133
2893.033, 10.26280
2894.961, 10.43483
2896.890, 10.29071
2898.818, 10.54989
2900.747, 10.66507
2902.675, 10.39496
2904.604, 10.31225
2906.532, 10.13161
2908.460, 9.869730
2910.389, 9.647416
2912.317, 9.598650
2914.246, 9.730963
2916.174, 10.03071
2918.103, 9.816530
2920.031, 9.599380
2921.960, 9.543454
2923.888, 9.822146
2925.817, 9.738283
2927.745, 9.541079
2929.674, 9.467822
2931.602, 9.535599
2933.531, 9.538798
2935.459, 9.383062
2937.387, 9.155457
2939.316, 9.155017
2941.244, 9.172475
2943.173, 8.949733
2945.101, 9.165689
2947.030, 9.087558
2948.958, 8.619827
2950.887, 8.884935
2952.815, 8.835107
2954.744, 8.528586
2956.672, 8.198804
2958.601, 8.358098
2960.529, 8.424727
2962.458, 8.258231
2964.386, 8.007343
2966.314, 8.179103
2968.243, 8.569795
2970.171, 8.571309
2972.100, 8.371964
2974.028, 8.212385
2975.957, 8.141729
2977.885, 8.292109
2979.814, 8.049341
2981.742, 7.779802
2983.671, 7.895194
2985.599, 7.812356
2987.528, 7.723044
2989.456, 7.715890
2991.385, 7.874060
2993.313, 7.756772
2995.241, 7.629575
2997.170, 7.697726
2999.098, 7.666620
3001.027, 7.425133
3002.955, 7.274105
3004.884, 7.620547
3006.812, 7.473208
3008.741, 7.288937
3010.669, 7.289748
3012.598, 7.235403
3014.526, 7.083572
3016.455, 6.951039
3018.383, 7.067419
3020.312, 7.251879
3022.240, 7.167325
3024.168, 6.958975
3026.097, 7.384712
3028.025, 7.323838
3029.954, 7.007289
3031.882, 6.714619
3033.811, 6.901658
3035.739, 6.861177
3037.668, 6.653627
3039.596, 6.580122
3041.525, 6.538464
3043.453, 6.584402
3045.382, 6.651648
3047.310, 6.466990
3049.239, 6.286438
3051.167, 6.248623
3053.095, 6.355822
3055.024, 6.577627
3056.952, 6.325150
3058.881, 5.988231
3060.809, 6.138452
3062.738, 6.223241
3064.666, 6.176371
3066.595, 6.116861
3068.523, 6.037740
3070.452, 5.900201
3072.380, 5.888947
3074.309, 5.941393
3076.237, 5.908774
3078.166, 5.775401
3080.094, 5.608218
3082.022, 5.543324
3083.951, 5.435367
3085.879, 5.437677
3087.808, 5.546640
3089.736, 5.665580
3091.665, 5.646801
3093.593, 5.636742
3095.522, 5.638982
3097.450, 5.556574
3099.379, 5.329072
3101.307, 5.388830
3103.236, 5.770549
3105.164, 5.254403
3107.093, 5.312931
3109.021, 5.516113
3110.949, 5.401803
3112.878, 5.108861
3114.806, 5.112032
3116.735, 5.172773
3118.663, 5.077988
3120.592, 5.036548
3122.520, 4.912375
3124.449, 4.850332
3126.377, 5.177231
3128.306, 5.120905
3130.234, 5.075856
3132.163, 5.126940
3134.091, 5.070661
3136.020, 5.085320
3137.948, 4.930052
3139.876, 4.691311
3141.805, 4.691359
3143.733, 4.693675
3145.662, 4.660003
3147.590, 4.637995
3149.519, 4.836211
3151.447, 4.831436
3153.376, 4.666759
3155.304, 4.525411
3157.233, 4.776060
3159.161, 4.606160
3161.090, 4.521948
3163.018, 4.678262
3164.947, 4.454923
3166.875, 4.531363
3168.803, 4.472860
3170.732, 4.035884
3172.660, 3.961587
3174.589, 4.026300
3176.517, 4.070722
3178.446, 4.031878
3180.374, 4.127967
3182.303, 4.267356
3184.231, 4.358869
3186.160, 4.241397
3188.088, 4.138245
3190.017, 3.978557
3191.945, 3.939809
3193.874, 4.078619
3195.802, 3.842030
3197.730, 3.737083
3199.659, 3.712398
3201.587, 3.743159
3203.516, 3.918645
3205.444, 3.940559
3207.373, 3.854568
3209.301, 3.762473
3211.230, 3.935079
3213.158, 3.728341
3215.087, 3.705193
3217.015, 4.119468
3218.944, 4.100443
3220.872, 4.005240
3222.801, 3.971277
3224.729, 4.005916
3226.657, 3.901598
3228.586, 3.523999
3230.514, 3.644361
3232.443, 4.205268
3234.371, 3.781008
3236.300, 3.472495
3238.228, 3.437867
3240.157, 3.653385
3242.085, 3.533398
3244.014, 3.411535
3245.942, 3.537702
3247.871, 3.676545
3249.799, 3.252700
3251.728, 3.416368
3253.656, 3.455563
3255.584, 3.307205
3257.513, 3.232274
3259.441, 3.287807
3261.370, 3.326037
3263.298, 3.375548
3265.227, 3.621557
3267.155, 3.192077
3269.084, 2.865743
3271.012, 2.811981
3272.941, 3.005670
3274.869, 2.964464
3276.798, 3.035804
3278.726, 3.073909
3280.655, 3.014032
3282.583, 3.176918
3284.511, 3.338866
3286.440, 3.165417
3288.368, 2.955858
3290.297, 3.252286
3292.225, 2.892586
3294.154, 2.866712
3296.082, 3.014806
3298.011, 2.848849
3299.939, 2.928648
3301.868, 2.959282
3303.796, 3.076885
3305.725, 3.349333
3307.653, 3.284370
3309.582, 3.107860
3311.510, 2.999144
3313.438, 2.972867
3315.367, 3.060895
3317.295, 2.744485
3319.224, 2.592514
3321.152, 2.639484
3323.081, 2.693063
3325.009, 2.727768
3326.938, 2.559614
3328.866, 2.459533
3330.795, 2.555947
3332.723, 2.697498
3334.652, 2.400471
3336.580, 2.350652
3338.509, 2.491779
3340.437, 2.389942
3342.365, 2.522536
3344.294, 2.501568
3346.222, 2.453892
3348.151, 2.503555
3350.079, 2.475386
3352.008, 2.240271
3353.936, 2.492969
3355.865, 2.940872
3357.793, 2.558131
3359.722, 2.273395
3361.650, 2.209887
3363.579, 2.232991
3365.507, 2.282894
3367.436, 2.398357
3369.364, 2.305526
3371.292, 2.367076
3373.221, 2.506413
3375.149, 2.273299
3377.078, 2.281817
3379.006, 2.128947
3380.935, 1.939815
3382.863, 1.974109
3384.792, 2.315155
3386.720, 2.342212
3388.649, 2.275683
3390.577, 2.251722
3392.506, 2.401991
3394.434, 1.929334
3396.363, 2.139191
3398.291, 2.492294
3400.219, 2.478550
3402.148, 2.021523
3404.076, 2.001171
3406.005, 2.138717
3407.933, 2.293418
3409.862, 2.438165
3411.790, 2.498315
3413.719, 2.123906
3415.647, 2.011117
3417.576, 2.174932
3419.504, 2.183245
3421.433, 2.414491
3423.361, 2.276469
3425.290, 2.005479
3427.218, 1.910423
3429.146, 2.178647
3431.075, 2.495530
3433.003, 2.342610
3434.932, 2.087680
3436.860, 2.058809
3438.789, 2.073887
3440.717, 1.681702
3442.646, 1.707395
3444.574, 1.931090
3446.503, 1.873627
3448.431, 1.801804
3450.360, 1.828740
3452.288, 1.822421
3454.217, 1.696706
3456.145, 1.449581
3458.073, 1.765150
3460.002, 1.912912
3461.930, 1.868543
3463.859, 1.784873
3465.787, 1.377423
3467.716, 1.894414
3469.644, 2.176230
3471.573, 2.235487
3473.501, 1.405648
3475.430, 1.723894
3477.358, 1.582047
3479.287, 1.421320
3481.215, 1.901166
3483.144, 1.200636
3485.072, 1.670325
3487.000, 1.672887
3488.929, 1.889232
3490.857, 1.642640
3492.786, 1.372728
3494.714, 1.462588
3496.643, 1.391176
3498.571, 1.742165
3500.500, 1.937733
3502.428, 1.728610
3504.357, 1.461681
3506.285, 1.563539
3508.214, 1.346387
3510.142, 1.182327
3512.071, 1.301031
3513.999, 1.593124
3515.927, 1.431916
3517.856, 0.8100923
3519.784, 1.354149
3521.713, 1.663022
3523.641, 1.749345
3525.570, 0.9465636
3527.498, 1.291875
3529.427, 1.177085
3531.355, 1.043425
3533.284, 1.550330
3535.212, 0.8768634
3537.141, 1.373611
3539.069, 1.403227
3540.998, 1.646639
3542.926, 0.8025693
3544.854, 0.8778671
3546.783, 1.052460
3548.711, 1.079179
3550.640, 1.132366
3552.568, 1.270049
3554.497, 1.154162
3556.425, 1.025971
3558.354, 1.108361
3560.282, 1.104215
3562.211, 1.041423
3564.139, 1.309675
3566.068, 0.8437785
3567.996, 0.7953404
3569.925, 0.9373738
3571.853, 0.9803426
3573.781, 0.8947141
3575.710, 1.197004
3577.638, 0.9538910
3579.567, 0.8719493
3581.495, 0.7637694
3583.424, 0.6162363
3585.352, 1.122278
3587.281, 1.205449
3589.209, 1.161725
3591.138, 1.223234
3593.066, 1.219471
3594.995, 0.9479396
3596.923, 1.090585
3598.852, 1.426115
3600.780, 1.378241
3602.708, 1.391594
3604.637, 1.546154
3606.565, 0.9651842
3608.494, 1.108343
3610.422, 1.507327
3612.351, 1.574371
3614.279, 1.387987
3616.208, 1.283024
3618.136, 1.232413
3620.065, 1.501914
3621.993, 1.658640
3623.922, 1.830377
3625.850, 2.056009
3627.779, 2.095085
3629.707, 2.109253
3631.635, 2.062521
3633.564, 2.211096
3635.492, 2.273755
3637.421, 2.083525
3639.349, 2.056129
3641.278, 2.156728
3643.206, 1.847515
3645.135, 1.813076
3647.063, 1.716359
3648.992, 1.156832
3650.920, 1.547758
3652.849, 1.120781
3654.777, 1.221160
3656.706, 1.531733
3658.634, 1.470168
3660.563, 0.9973330
3662.491, 1.191653
3664.419, 1.287191
3666.348, 0.9495224
3668.276, 0.9271916
3670.205, 1.016189
3672.133, 0.5270525
3674.062, 0.8828137
3675.990, 0.6942103
3677.919, 0.7178871
3679.847, 0.8507217
3681.776, 0.8932712
3683.704, 0.8530784
3685.633, 0.7926233
3687.561, 0.5991192
3689.490, 0.6463423
3691.418, 0.6812065
3693.346, 0.6334818
3695.275, 0.6599685
3697.203, 0.6634230
3699.132, 1.096992
3701.060, 0.7433383
3702.989, 0.4538174
3704.917, 0.5118900
3706.846, 0.5980240
3708.774, 0.8642879
3710.703, 0.6552897
3712.631, 0.4784723
3714.560, 0.6147375
3716.488, 0.8296441
3718.417, 0.8095943
3720.345, 0.5415007
3722.273, 0.2574641
3724.202, 0.5088875
3726.130, 0.6187777
3728.059, 0.7134729
3729.987, 0.7304030
3731.916, 7.6226480E-02
3733.844, 0.4800074
3735.773, 0.5860556
3737.701, 0.5362750
3739.630, 0.4155927
3741.558, 0.5615329
3743.487, 1.044847
3745.415, 0.6314768
3747.344, 0.4413508
3749.272, 0.5612131
3751.200, 0.5926505
3753.129, 0.4204969
3755.057, 0.3120806
3756.986, 0.5673143
3758.914, 0.2979992
3760.843, 0.4493305
3762.771, 0.5687502
3764.700, 0.5518757
3766.628, 0.5096812
3768.557, 0.5110446
3770.485, 0.4824669
3772.414, 0.4845851
3774.342, 0.4673654
3776.271, 0.6193660
3778.199, 0.6661088
3780.127, 0.5569460
3782.056, 0.5252650
3783.984, 0.3600115
3785.913, 0.5019985
3787.841, 0.4149321
3789.770, 0.6091156
3791.698, 0.5179011
3793.627, 0.2574716
3795.555, 0.8118543
3797.484, 0.4366736
3799.412, 0.7433589
3801.341, 0.5590051
3803.269, 0.5650705
3805.198, 0.6003121
3807.126, 0.4051536
3809.054, 0.2963935
3810.983, 0.4966262
3812.911, 0.5751969
3814.840, 0.4226301
3816.768, 0.6064202
3818.697, 0.4645747
3820.625, 0.1748059
3822.554, 0.6636667
3824.482, 0.5118356
3826.411, 0.4716578
3828.339, 0.2655500
3830.268, 0.5197542
3832.196, 0.6682841
3834.125, 0.4415123
3836.053, 0.2671823
3837.981, 0.3987128
3839.910, 0.4296411
3841.838, 0.3305011
3843.767, 0.3629875
3845.695, 0.4892336
3847.624, 0.5530369
3849.552, 0.5599759
3851.481, 0.6794899
3853.409, 0.4427907
3855.338, 0.3612972
3857.266, 0.3840722
3859.195, 0.4047321
3861.123, 0.5730738
3863.052, 0.7359948
3864.980, 0.5193504
3866.908, 0.1220422
3868.837, 0.3089693
3870.765, 0.5054529
3872.694, 0.6405824
3874.622, 0.5970839
3876.551, 0.6726086
3878.479, 0.7935711
3880.408, 0.4302586
3882.336, 0.4431832
3884.265, 0.4794292
3886.193, 0.8572047
3888.122, 0.6711081
3890.050, 0.5418593
3891.979, 0.5740429
3893.907, 0.4414530
3895.835, 0.3396188
3897.764, 0.6591121
3899.692, 0.5776860
3901.621, 0.4305806
3903.549, 0.2843504
3905.478, 0.3068944
3907.406, 0.3348407
3909.335, 0.2613581
3911.263, 0.3317537
3913.192, 0.3677534
3915.120, 0.5665593
3917.049, 0.2720628
3918.977, 0.2715152
3920.906, 0.5170459
3922.834, 0.6813681
3924.762, 0.6631058
3926.691, 0.5459314
3928.619, 0.3080948
3930.548, 0.8367466
3932.476, 0.8605846
3934.405, 0.6045602
3936.333, 0.5962497
3938.262, 0.6451371
3940.190, 0.6165525
3942.119, 0.6021436
3944.047, 0.5582643
3945.976, 0.6973764
3947.904, 0.9488699
3949.833, 0.6335580
3951.761, 0.4207002
3953.689, 0.4051409
3955.618, 0.5764638
3957.546, 0.5805037
3959.475, 0.3014035
3961.403, 0.5698043
3963.332, 0.2911141
3965.260, 0.3440268
3967.189, 0.4876008
3969.117, 0.4680771
3971.046, 0.2699137
3972.974, 0.1939278
3974.903, 0.2967784
3976.831, 0.3505020
3978.760, 0.3789937
3980.688, 0.4111148
3982.616, 0.4172811
3984.545, 0.1236590
3986.473, 0.1221349
3988.402, 0.1902316
3990.330, 0.3105882
3992.259, 0.2329168
3994.187, 0.2530128
3996.116, 0.6344762
3998.044, 0.4497105
3999.973, -4.3372810E-02
4001.901, 9.3656667E-02
4003.830, 6.4175323E-02
4005.758, 0.3042747
4007.687, 0.2694853
4009.615, 8.7291948E-02
4011.543, -5.6827720E-02
4013.472, -2.5069090E-02
4015.400, 0.3809743
4017.329, 0.3062104
4019.257, 0.3418085
4021.186, 0.3523077
4023.114, 9.7800540E-03
4025.043, 5.0912309E-02
4026.971, 0.2255676
4028.900, 0.2193232
4030.828, 0.1186783
4032.757, 8.8978194E-02
4034.685, 0.1299210
4036.614, 0.1409571
4038.542, -6.5137550E-02
4040.470, -1.3586960E-02
4042.399, 0.4712229
4044.327, 0.4294464
4046.256, 0.1823082
4048.184, 0.1862998
4050.113, 0.3131120
4052.041, 0.2781893
4053.970, 0.1463028
4055.898, 0.3763066
4057.827, 0.3076404
4059.755, -3.3130638E-02
4061.684, 0.3805134
4063.612, 0.3244268
4065.541, 0.1379272
4067.469, 0.1944620
4069.397, 0.1993390
4071.326, 0.1367153
4073.254, 0.3269510
4075.183, 0.1765911
4077.111, 0.3519968
4079.040, 6.9762833E-02
4080.968, -4.1859739E-02
4082.897, 4.3636549E-02
4084.825, -0.1469466
4086.754, -5.0116401E-02
4088.682, 0.1006482
4090.611, 4.1015889E-02
4092.539, 5.1165581E-02
4094.468, 8.5031226E-02
4096.396, 3.9837491E-02
4098.324, 0.2015573
4100.253, 0.1745235
4102.181, 0.2551078
4104.110, 0.1544583
4106.038, 0.2765613
4107.967, 7.8607157E-02
4109.895, 0.1979742
4111.824, 0.3844158
4113.752, 0.1299653
4115.681, 0.1336129
4117.609, 0.1782429
4119.538, 0.2271805
4121.466, -5.8195788E-02
4123.395, 3.1188841E-04
4125.323, 0.1731362
4127.251, 0.1939406
4129.180, 0.3210704
4131.108, 0.5637426
4133.037, 0.6590763
4134.965, 0.3941809
4136.894, 2.4333000E-02
4138.822, 2.5666490E-02
4140.750, 0.2127448
4142.679, 0.1820122
4144.607, 3.1645041E-02
4146.536, 0.4014002
4148.464, 0.1663065
4150.393, 0.4322130
4152.321, 0.1812295
4154.250, 0.2058260
4156.178, 0.2834458
4158.107, 4.6912588E-02
4160.035, -0.1010954
4161.964, 8.0504157E-02
4163.892, 0.2882446
4165.821, 0.3419367
4167.749, -7.2565921E-02
4169.678, 0.1153645
4171.606, 3.9277270E-02
4173.535, 0.2161378
4175.463, 0.3099372
4177.392, 0.2746189
4179.320, 0.1614642
4181.249, -0.2141884
4183.177, -3.2342158E-02
4185.105, 0.4272418
4187.034, 0.3421253
4188.962, 4.8801851E-02
4190.891, 4.1958209E-02
4192.819, -4.5693990E-02
4194.748, -0.2164076
4196.676, -0.1082137
4198.604, -3.1075260E-02
4200.533, 0.1988329
4202.461, 7.4574858E-02
4204.390, 0.1605862
4206.318, 3.8057059E-02
4208.247, 0.1069171
4210.175, 0.3048672
4212.104, 0.4341873
4214.032, 0.5671573
4215.961, 0.4485895
4217.889, 0.1654130
4219.818, 0.4002489
4221.746, 0.5720309
4223.675, 0.2239218
4225.603, -0.3833747
4227.532, 8.3783418E-02
4229.460, 5.1548410E-02
4231.389, 8.2668170E-02
4233.317, 0.4363751
4235.246, 0.3229933
4237.174, 0.4279112
4239.103, -1.5019000E-02
4241.031, 0.2346939
4242.959, 0.1340090
4244.888, -0.1048385
4246.816, 0.1212982
4248.745, 5.5106651E-02
4250.673, -9.8364137E-02
4252.602, 0.2272043
4254.530, 0.2183015
4256.458, 9.2831351E-02
4258.387, 0.1309262
4260.315, 0.2099297
4262.244, 0.4037530
4264.172, 0.2342640
4266.101, -3.9533671E-04
4268.029, 0.2852144
4269.958, 0.3001012
4271.886, 0.2957045
4273.815, 0.1385274
4275.743, 0.2048723
4277.672, 0.2124204
4279.600, 0.2796674
4281.529, 0.1676855
4283.457, 0.1019471
4285.386, 0.1366499
4287.314, -1.0411590E-02
4289.243, 0.2319686
4291.171, 0.3805062
4293.100, 0.1011162
4295.028, 8.3465070E-02
4296.957, 5.1276211E-02
4298.885, 0.3480848
4300.813, 0.1864702
4302.742, 0.3724879
4304.670, 0.5607365
4306.599, 0.3288661
4308.527, -0.4968308
4310.456, 0.2948253
4312.384, -2.0476211E-02
4314.313, 0.6516381
4316.241, 0.2295949
4318.169, 0.1992853
4320.098, 0.2404213
4322.026, 0.1194456
4323.955, 0.4140929
4325.883, 0.2700254
4327.812, 5.6582130E-02
4329.740, 7.5286567E-02
4331.669, -8.2061782E-02
4333.597, 0.1691150
4335.526, 6.6742867E-02
4337.454, 2.6452551E-02
4339.383, 0.2417154
4341.311, 0.2672032
4343.240, -0.1368203
4345.168, 0.2619787
4347.097, 0.2495887
4349.025, -0.1168633
4350.954, 1.8427530E-03
4352.882, 0.4471778
4354.811, 6.7764923E-02
4356.739, 4.3338831E-03
4358.667, -7.8152813E-02
4360.596, 0.3065311
4362.524, 0.1685728
4364.453, 4.3669000E-02
4366.381, 0.1947676
4368.310, -0.1534082
4370.238, 8.3586790E-02
4372.167, 0.1256480
4374.095, 0.1917490
4376.023, 0.3596281
4377.952, 0.2292988
4379.880, 0.2557583
4381.809, 0.2065026
##END=



