##NAMES=Inesite
##RRUFFID=R070456
##IDEAL CHEMISTRY=Ca_2_Mn^2+^_7_Si_10_O_28_(OH)_2_·5H_2_O
##LOCALITY=Fengjiashan mine (Daye Copper mine), Daye County, Huangshi Prefecture, Hubei Province, China
##OWNER=RRUFF
##SOURCE=Michael Scott
##DESCRIPTION=Fan-shaped cluster of pink laths associated with quartz and brown platy hubeite
##STATUS=The identification of this mineral is confirmed by single-crystal X-ray diffraction and chemical analysis
##URL=https://www.rruff.net/odr/rruff_sample/R070456
##MEASURED CHEMISTRY=Ca_2.00_(Mn^2+^_6.03_Fe^2+^_0.93_Mg_0.04_)Si_10.00_O_28_(OH)_2_·5H_2_O ; (OH) estimated by charge balance  H_2_O by difference
##DIFFRACTION SAMPLE DESCRIPTION=Single crystal, powder profile is calculated
##CELL PARAMETERS=a: 8.868 b: 9.264 c: 11.972 alpha: 88.208 beta: 131.919 gamma: 96.604 volume: 725.6 crystal system: triclinic
##FILETYPE=Raman RAW
##RAMAN WAVELENGTH=532

103.1106, 56.45776
105.0391, 62.81329
106.9675, 77.26355
108.8960, 96.26299
110.8245, 110.8940
112.7529, 114.7210
114.6814, 121.5046
116.6099, 136.6361
118.5383, 165.1959
120.4668, 197.5267
122.3953, 235.2479
124.3237, 276.9847
126.2522, 319.1377
128.1807, 361.3431
130.1091, 404.0710
132.0376, 448.3279
133.9661, 495.6716
135.8945, 540.7209
137.8230, 580.7094
139.7515, 616.2722
141.6799, 653.6750
143.6084, 696.5286
145.5369, 737.4309
147.4653, 754.9578
149.3938, 740.6066
151.3223, 726.3835
153.2507, 712.0829
155.1792, 697.9778
157.1077, 689.0697
159.0361, 687.6706
160.9646, 688.7799
162.8931, 689.2408
164.8215, 691.6020
166.7500, 690.7369
168.6785, 683.3929
170.6069, 671.2997
172.5354, 663.8239
174.4639, 664.3152
176.3923, 667.8396
178.3208, 671.3201
180.2493, 678.5884
182.1777, 682.6811
184.1062, 679.5862
186.0347, 669.9273
187.9631, 663.7144
189.8916, 662.1567
191.8201, 664.2626
193.7485, 669.4229
195.6770, 678.7175
197.6055, 688.2326
199.5339, 696.5365
201.4624, 702.5352
203.3909, 710.3539
205.3193, 719.0062
207.2478, 730.4380
209.1763, 746.0392
211.1047, 769.3704
213.0332, 789.7161
214.9617, 803.6276
216.8901, 809.8699
218.8186, 816.5296
220.7471, 825.5009
222.6755, 833.6875
224.6040, 838.6426
226.5325, 839.3038
228.4609, 838.0910
230.3894, 833.1432
232.3179, 824.9510
234.2463, 821.0415
236.1748, 826.5917
238.1033, 834.9077
240.0317, 840.3597
241.9602, 838.6869
243.8887, 838.9326
245.8171, 843.8040
247.7456, 852.1866
249.6741, 859.8024
251.6025, 865.5316
253.5310, 870.7886
255.4595, 876.2351
257.3879, 881.3069
259.3164, 887.6253
261.2449, 896.0323
263.1733, 906.3243
265.1018, 916.8637
267.0303, 926.4710
268.9587, 936.9931
270.8872, 950.0860
272.8157, 966.0623
274.7441, 981.9764
276.6726, 996.4844
278.6011, 1010.273
280.5295, 1025.528
282.4580, 1044.039
284.3865, 1062.074
286.3149, 1078.151
288.2434, 1091.979
290.1719, 1104.973
292.1003, 1120.134
294.0288, 1134.957
295.9573, 1142.787
297.8857, 1143.058
299.8142, 1137.071
301.7427, 1125.209
303.6711, 1104.446
305.5996, 1088.107
307.5281, 1078.093
309.4565, 1069.424
311.3850, 1060.440
313.3135, 1050.478
315.2419, 1044.122
317.1704, 1043.798
319.0989, 1049.583
321.0273, 1048.327
322.9558, 1032.859
324.8843, 1015.526
326.8127, 1003.259
328.7412, 997.3961
330.6697, 994.1599
332.5981, 995.1420
334.5266, 998.4800
336.4551, 998.2914
338.3835, 992.4479
340.3120, 985.3342
342.2405, 979.3539
344.1689, 973.9576
346.0974, 973.2474
348.0259, 979.5173
349.9543, 988.7340
351.8828, 995.4949
353.8113, 999.8290
355.7397, 1000.314
357.6682, 996.9127
359.5967, 988.5966
361.5251, 979.0843
363.4536, 964.1296
365.3821, 952.9392
367.3105, 948.1650
369.2390, 954.1516
371.1675, 953.9555
373.0959, 944.1526
375.0244, 930.3820
376.9529, 921.5219
378.8813, 919.9706
380.8098, 918.2441
382.7383, 913.5386
384.6667, 904.6376
386.5952, 897.4787
388.5237, 891.6284
390.4521, 885.8857
392.3806, 881.8320
394.3091, 880.8779
396.2375, 878.5518
398.1660, 872.4502
400.0945, 863.9058
402.0229, 860.0908
403.9514, 862.5402
405.8799, 867.7339
407.8083, 874.1898
409.7368, 881.8493
411.6653, 891.3122
413.5938, 904.1190
415.5222, 917.9277
417.4507, 928.8590
419.3792, 935.9573
421.3076, 942.0094
423.2361, 945.5473
425.1646, 945.7288
427.0930, 947.4442
429.0215, 957.3720
430.9500, 968.1842
432.8784, 969.4692
434.8069, 959.9744
436.7354, 950.9308
438.6638, 952.9440
440.5923, 958.9406
442.5208, 956.9460
444.4492, 938.9568
446.3777, 918.3903
448.3062, 903.7693
450.2346, 896.2079
452.1631, 891.1638
454.0916, 884.0677
456.0200, 872.7578
457.9485, 857.4898
459.8770, 837.2663
461.8054, 821.0859
463.7339, 815.1425
465.6624, 815.8450
467.5908, 816.8406
469.5193, 816.5912
471.4478, 813.8511
473.3762, 807.0695
475.3047, 798.0004
477.2332, 791.7389
479.1616, 788.5602
481.0901, 787.8897
483.0186, 790.2130
484.9470, 796.5649
486.8755, 800.1078
488.8040, 801.4766
490.7324, 802.9828
492.6609, 804.5261
494.5894, 804.5962
496.5178, 804.6960
498.4463, 804.0719
500.3748, 801.9166
502.3032, 798.0157
504.2317, 794.8406
506.1602, 793.8814
508.0886, 797.5412
510.0171, 804.5762
511.9456, 810.0441
513.8740, 805.0643
515.8025, 800.8145
517.7310, 804.7857
519.6594, 819.6491
521.5879, 829.2858
523.5164, 826.6749
525.4448, 818.9822
527.3733, 812.8572
529.3018, 811.0815
531.2302, 809.0673
533.1587, 806.0365
535.0872, 801.3738
537.0156, 794.3512
538.9441, 784.6592
540.8726, 778.1440
542.8010, 776.7694
544.7295, 779.5992
546.6580, 780.2108
548.5864, 780.5550
550.5149, 781.8158
552.4434, 782.8770
554.3718, 780.5158
556.3003, 777.4135
558.2288, 781.4320
560.1572, 788.4099
562.0857, 794.6542
564.0142, 793.2608
565.9426, 791.6324
567.8711, 791.3878
569.7996, 792.3581
571.7280, 792.9699
573.6565, 793.7659
575.5850, 795.1189
577.5134, 796.4272
579.4419, 798.9775
581.3704, 806.1615
583.2988, 818.0503
585.2273, 830.2239
587.1558, 841.1685
589.0842, 849.5302
591.0127, 854.0863
592.9412, 856.2632
594.8696, 862.3109
596.7981, 876.4535
598.7266, 896.2761
600.6550, 914.3065
602.5835, 923.5389
604.5120, 933.8911
606.4404, 953.8016
608.3689, 990.6428
610.2974, 1024.593
612.2258, 1050.134
614.1543, 1076.274
616.0828, 1114.166
618.0112, 1159.715
619.9397, 1207.235
621.8682, 1256.137
623.7966, 1314.072
625.7251, 1381.912
627.6536, 1446.607
629.5820, 1525.301
631.5105, 1626.962
633.4390, 1751.016
635.3674, 1877.497
637.2959, 1997.768
639.2244, 2136.323
641.1528, 2310.371
643.0813, 2510.573
645.0098, 2698.192
646.9382, 2878.541
648.8667, 3042.993
650.7952, 3204.234
652.7236, 3338.378
654.6521, 3419.487
656.5806, 3435.905
658.5090, 3417.438
660.4375, 3370.419
662.3660, 3293.181
664.2944, 3189.730
666.2229, 3045.427
668.1514, 2898.436
670.0798, 2755.479
672.0083, 2621.909
673.9368, 2506.486
675.8652, 2408.461
677.7937, 2319.775
679.7222, 2246.495
681.6506, 2184.285
683.5791, 2128.554
685.5076, 2086.441
687.4360, 2049.655
689.3645, 2007.030
691.2930, 1956.080
693.2214, 1898.706
695.1499, 1832.902
697.0784, 1762.240
699.0068, 1692.435
700.9353, 1625.169
702.8638, 1562.661
704.7922, 1504.651
706.7207, 1448.672
708.6492, 1395.729
710.5776, 1342.482
712.5061, 1297.654
714.4346, 1268.624
716.3630, 1249.451
718.2915, 1224.409
720.2200, 1190.218
722.1484, 1154.750
724.0769, 1119.370
726.0054, 1085.875
727.9338, 1058.340
729.8623, 1044.576
731.7908, 1028.471
733.7192, 998.6832
735.6477, 958.8032
737.5762, 932.4464
739.5046, 930.3041
741.4331, 930.2556
743.3616, 921.2773
745.2900, 902.4773
747.2185, 889.4985
749.1470, 885.6116
751.0754, 883.6750
753.0039, 880.4922
754.9324, 876.3663
756.8608, 874.1379
758.7893, 875.5849
760.7178, 877.6378
762.6462, 879.3151
764.5747, 881.1201
766.5032, 879.5234
768.4316, 872.4470
770.3601, 864.0929
772.2886, 856.1718
774.2170, 849.3562
776.1455, 844.4070
778.0740, 842.1815
780.0024, 839.8184
781.9309, 837.9426
783.8594, 838.2471
785.7878, 834.6169
787.7163, 822.2018
789.6448, 809.7750
791.5732, 803.8350
793.5017, 802.5494
795.4302, 801.0383
797.3586, 798.6964
799.2871, 797.4916
801.2156, 797.0428
803.1440, 797.6378
805.0725, 795.9915
807.0010, 788.3999
808.9294, 781.9092
810.8579, 782.7851
812.7864, 790.7312
814.7148, 797.7185
816.6433, 803.0794
818.5718, 806.2878
820.5002, 805.9328
822.4287, 801.1656
824.3572, 799.0935
826.2856, 803.7205
828.2141, 808.3219
830.1426, 806.2173
832.0710, 795.1152
833.9995, 790.9404
835.9280, 802.6407
837.8564, 816.5311
839.7849, 819.3398
841.7134, 809.5286
843.6418, 805.2193
845.5703, 814.4555
847.4988, 824.0804
849.4272, 824.8846
851.3557, 817.9894
853.2842, 815.1818
855.2126, 819.0590
857.1411, 824.3738
859.0696, 830.5124
860.9980, 839.0102
862.9265, 843.1410
864.8550, 836.5298
866.7834, 828.2637
868.7119, 825.0677
870.6404, 825.0581
872.5688, 828.1648
874.4973, 837.2163
876.4258, 850.4863
878.3542, 859.7431
880.2827, 859.8728
882.2112, 861.7763
884.1396, 871.5616
886.0681, 884.9789
887.9966, 892.2010
889.9250, 895.9430
891.8535, 904.9054
893.7820, 920.4261
895.7104, 932.3899
897.6389, 936.4236
899.5674, 938.3794
901.4958, 943.1443
903.4243, 949.9639
905.3528, 962.1777
907.2813, 982.8907
909.2097, 1009.673
911.1382, 1036.848
913.0667, 1060.756
914.9951, 1083.286
916.9236, 1108.915
918.8521, 1146.611
920.7805, 1188.753
922.7090, 1232.773
924.6375, 1272.628
926.5659, 1310.868
928.4944, 1350.079
930.4229, 1382.438
932.3513, 1406.825
934.2798, 1420.643
936.2083, 1422.083
938.1367, 1411.112
940.0652, 1390.286
941.9937, 1359.286
943.9221, 1321.796
945.8506, 1279.254
947.7791, 1231.246
949.7075, 1192.091
951.6360, 1165.466
953.5645, 1145.349
955.4929, 1126.014
957.4214, 1105.847
959.3499, 1087.268
961.2783, 1079.726
963.2068, 1079.468
965.1353, 1080.684
967.0637, 1076.661
968.9922, 1080.480
970.9207, 1094.957
972.8491, 1109.746
974.7776, 1119.944
976.7061, 1129.725
978.6345, 1146.708
980.5630, 1166.308
982.4915, 1186.325
984.4199, 1209.639
986.3484, 1237.742
988.2769, 1266.236
990.2053, 1290.336
992.1338, 1321.652
994.0623, 1364.608
995.9907, 1414.594
997.9192, 1455.887
999.8477, 1485.515
1001.776, 1533.086
1003.705, 1598.236
1005.633, 1671.567
1007.562, 1747.154
1009.490, 1836.663
1011.418, 1927.266
1013.347, 2000.295
1015.275, 2070.095
1017.204, 2154.740
1019.132, 2261.040
1021.061, 2348.936
1022.989, 2419.124
1024.918, 2492.872
1026.846, 2574.220
1028.775, 2655.043
1030.703, 2709.632
1032.632, 2742.853
1034.560, 2745.179
1036.489, 2716.007
1038.417, 2663.424
1040.345, 2608.465
1042.274, 2552.048
1044.202, 2503.177
1046.131, 2457.203
1048.059, 2411.907
1049.988, 2365.996
1051.916, 2323.175
1053.845, 2278.554
1055.773, 2235.255
1057.702, 2189.488
1059.630, 2135.934
1061.559, 2074.203
1063.487, 2012.444
1065.416, 1952.550
1067.344, 1892.388
1069.272, 1827.128
1071.201, 1754.840
1073.129, 1687.779
1075.058, 1631.110
1076.986, 1575.082
1078.915, 1517.229
1080.843, 1455.901
1082.772, 1401.654
1084.700, 1360.841
1086.629, 1327.162
1088.557, 1291.593
1090.486, 1253.338
1092.414, 1217.976
1094.343, 1185.194
1096.271, 1158.631
1098.199, 1148.196
1100.128, 1148.862
1102.056, 1142.224
1103.985, 1122.299
1105.913, 1103.562
1107.842, 1092.365
1109.770, 1084.988
1111.699, 1076.770
1113.627, 1065.679
1115.556, 1057.086
1117.484, 1057.269
1119.413, 1057.181
1121.341, 1047.698
1123.270, 1030.758
1125.198, 1020.396
1127.126, 1021.156
1129.055, 1021.731
1130.983, 1014.331
1132.912, 1007.009
1134.840, 1006.437
1136.769, 1015.143
1138.697, 1018.800
1140.626, 1012.826
1142.554, 1003.023
1144.483, 996.1243
1146.411, 993.3338
1148.340, 992.2679
1150.268, 992.9719
1152.197, 994.2565
1154.125, 995.9560
1156.053, 995.6455
1157.982, 993.4969
1159.910, 988.8295
1161.839, 988.1942
1163.767, 994.8178
1165.696, 1001.592
1167.624, 1005.316
1169.553, 1006.929
1171.481, 1006.309
1173.410, 998.0621
1175.338, 989.9128
1177.267, 988.8244
1179.195, 995.9301
1181.124, 1003.277
1183.052, 1014.754
1184.980, 1020.140
1186.909, 1013.733
1188.837, 1003.106
1190.766, 998.3370
1192.694, 999.9586
1194.623, 1001.058
1196.551, 998.4882
1198.480, 996.6216
1200.408, 999.4331
1202.337, 1006.497
1204.265, 1012.888
1206.194, 1018.573
1208.122, 1022.509
1210.051, 1024.411
1211.979, 1024.029
1213.907, 1022.346
1215.836, 1018.176
1217.764, 1015.400
1219.693, 1012.237
1221.621, 1012.090
1223.550, 1019.765
1225.478, 1035.702
1227.407, 1044.309
1229.335, 1038.710
1231.264, 1034.803
1233.192, 1040.099
1235.121, 1049.748
1237.049, 1056.338
1238.978, 1059.388
1240.906, 1060.602
1242.834, 1059.784
1244.763, 1058.484
1246.691, 1055.928
1248.620, 1051.876
1250.548, 1052.279
1252.477, 1063.266
1254.405, 1070.813
1256.334, 1067.921
1258.262, 1060.806
1260.191, 1060.707
1262.119, 1074.679
1264.048, 1081.818
1265.976, 1074.387
1267.905, 1067.689
1269.833, 1073.211
1271.761, 1086.729
1273.690, 1091.744
1275.618, 1085.423
1277.547, 1079.206
1279.475, 1073.554
1281.404, 1070.073
1283.332, 1073.688
1285.261, 1086.326
1287.189, 1095.188
1289.118, 1096.476
1291.046, 1094.966
1292.975, 1091.336
1294.903, 1087.172
1296.832, 1087.789
1298.760, 1096.996
1300.688, 1104.512
1302.617, 1109.545
1304.545, 1111.886
1306.474, 1109.956
1308.402, 1106.224
1310.331, 1106.964
1312.259, 1114.622
1314.188, 1121.702
1316.116, 1126.211
1318.045, 1128.859
1319.973, 1131.766
1321.902, 1135.273
1323.830, 1136.884
1325.759, 1133.139
1327.687, 1132.812
1329.615, 1145.223
1331.544, 1161.487
1333.472, 1166.405
1335.401, 1156.095
1337.329, 1147.982
1339.258, 1149.093
1341.186, 1152.215
1343.115, 1151.339
1345.043, 1148.530
1346.972, 1151.896
1348.900, 1162.342
1350.829, 1170.554
1352.757, 1176.328
1354.686, 1178.994
1356.614, 1175.795
1358.542, 1166.044
1360.471, 1160.921
1362.399, 1167.999
1364.328, 1175.258
1366.256, 1176.109
1368.185, 1173.405
1370.113, 1177.950
1372.042, 1193.655
1373.970, 1202.001
1375.899, 1191.790
1377.827, 1181.965
1379.756, 1184.397
1381.684, 1194.719
1383.613, 1200.606
1385.541, 1198.145
1387.469, 1194.666
1389.398, 1191.394
1391.326, 1190.227
1393.255, 1193.613
1395.183, 1199.525
1397.112, 1201.355
1399.040, 1195.912
1400.969, 1193.020
1402.897, 1198.844
1404.826, 1208.148
1406.754, 1216.828
1408.683, 1221.584
1410.611, 1223.013
1412.540, 1229.710
1414.468, 1233.364
1416.396, 1224.644
1418.325, 1214.131
1420.253, 1211.678
1422.182, 1216.995
1424.110, 1221.395
1426.039, 1224.790
1427.967, 1229.170
1429.896, 1237.630
1431.824, 1245.239
1433.753, 1246.740
1435.681, 1243.718
1437.610, 1243.919
1439.538, 1244.555
1441.467, 1244.737
1443.395, 1249.705
1445.323, 1256.053
1447.252, 1254.718
1449.180, 1244.615
1451.109, 1241.914
1453.037, 1255.889
1454.966, 1269.492
1456.894, 1278.418
1458.823, 1280.984
1460.751, 1272.677
1462.680, 1254.422
1464.608, 1241.634
1466.537, 1236.933
1468.465, 1239.415
1470.394, 1253.968
1472.322, 1268.503
1474.250, 1270.524
1476.179, 1260.339
1478.107, 1261.335
1480.036, 1285.945
1481.964, 1303.838
1483.893, 1300.267
1485.821, 1289.243
1487.750, 1284.958
1489.678, 1289.060
1491.607, 1292.802
1493.535, 1290.535
1495.464, 1290.802
1497.392, 1300.380
1499.321, 1310.617
1501.249, 1313.823
1503.177, 1310.175
1505.106, 1306.600
1507.034, 1302.460
1508.963, 1302.009
1510.891, 1304.073
1512.820, 1309.788
1514.748, 1323.154
1516.677, 1341.032
1518.605, 1347.859
1520.534, 1337.695
1522.462, 1330.548
1524.391, 1332.536
1526.319, 1339.331
1528.248, 1347.432
1530.176, 1354.270
1532.104, 1357.359
1534.033, 1357.820
1535.961, 1355.495
1537.890, 1343.703
1539.818, 1337.538
1541.747, 1350.727
1543.675, 1371.755
1545.604, 1380.386
1547.532, 1375.630
1549.461, 1373.301
1551.389, 1375.689
1553.318, 1378.185
1555.246, 1380.186
1557.175, 1383.013
1559.103, 1384.887
1561.031, 1384.836
1562.960, 1385.760
1564.888, 1390.521
1566.817, 1396.494
1568.745, 1401.956
1570.674, 1405.171
1572.602, 1403.662
1574.531, 1399.313
1576.459, 1401.273
1578.388, 1412.745
1580.316, 1419.892
1582.245, 1416.314
1584.173, 1411.615
1586.102, 1409.307
1588.030, 1409.697
1589.958, 1416.093
1591.887, 1430.300
1593.815, 1436.903
1595.744, 1426.844
1597.672, 1418.502
1599.601, 1420.459
1601.529, 1428.280
1603.458, 1438.038
1605.386, 1449.772
1607.315, 1455.469
1609.243, 1450.091
1611.172, 1449.347
1613.100, 1458.972
1615.029, 1471.819
1616.957, 1485.730
1618.885, 1498.728
1620.814, 1502.626
1622.742, 1493.262
1624.671, 1488.406
1626.599, 1494.934
1628.528, 1501.168
1630.456, 1502.407
1632.385, 1501.494
1634.313, 1501.978
1636.242, 1503.776
1638.170, 1507.855
1640.099, 1517.021
1642.027, 1523.347
1643.956, 1520.412
1645.884, 1518.846
1647.813, 1531.188
1649.741, 1551.710
1651.669, 1555.239
1653.598, 1534.163
1655.526, 1520.278
1657.455, 1521.427
1659.383, 1524.290
1661.312, 1526.139
1663.240, 1526.530
1665.169, 1523.689
1667.097, 1517.082
1669.026, 1514.838
1670.954, 1521.122
1672.883, 1522.824
1674.811, 1510.082
1676.740, 1500.625
1678.668, 1508.874
1680.596, 1526.559
1682.525, 1533.920
1684.453, 1528.492
1686.382, 1526.710
1688.310, 1535.466
1690.239, 1538.911
1692.167, 1525.543
1694.096, 1512.437
1696.024, 1513.915
1697.953, 1527.700
1699.881, 1543.865
1701.810, 1565.873
1703.738, 1578.042
1705.667, 1573.912
1707.595, 1565.246
1709.523, 1551.051
1711.452, 1537.505
1713.380, 1532.011
1715.309, 1534.353
1717.237, 1537.418
1719.166, 1541.926
1721.094, 1545.948
1723.023, 1548.088
1724.951, 1551.628
1726.880, 1563.933
1728.808, 1575.122
1730.737, 1566.489
1732.665, 1538.434
1734.594, 1524.280
1736.522, 1526.500
1738.450, 1539.318
1740.379, 1579.605
1742.307, 1608.060
1744.236, 1593.199
1746.164, 1560.586
1748.093, 1554.760
1750.021, 1575.071
1751.950, 1585.298
1753.878, 1578.035
1755.807, 1575.117
1757.735, 1586.447
1759.664, 1598.460
1761.592, 1602.851
1763.521, 1603.220
1765.449, 1605.882
1767.377, 1610.612
1769.306, 1611.196
1771.234, 1603.290
1773.163, 1603.723
1775.091, 1630.803
1777.020, 1650.573
1778.948, 1628.141
1780.877, 1592.669
1782.805, 1591.838
1784.734, 1622.338
1786.662, 1640.568
1788.591, 1639.811
1790.519, 1637.703
1792.448, 1636.887
1794.376, 1638.276
1796.304, 1644.134
1798.233, 1651.528
1800.161, 1657.950
1802.090, 1662.847
1804.018, 1658.932
1805.947, 1640.749
1807.875, 1629.989
1809.804, 1636.613
1811.732, 1643.893
1813.661, 1642.789
1815.589, 1640.210
1817.518, 1644.344
1819.446, 1654.707
1821.375, 1667.670
1823.303, 1690.036
1825.231, 1697.355
1827.160, 1668.844
1829.088, 1651.007
1831.017, 1667.988
1832.945, 1692.341
1834.874, 1697.069
1836.802, 1688.738
1838.731, 1691.633
1840.659, 1711.531
1842.588, 1723.383
1844.516, 1725.653
1846.445, 1722.674
1848.373, 1706.852
1850.302, 1695.568
1852.230, 1703.789
1854.158, 1721.189
1856.087, 1729.369
1858.015, 1728.002
1859.944, 1727.507
1861.872, 1727.470
1863.801, 1729.825
1865.729, 1738.354
1867.658, 1744.082
1869.586, 1739.261
1871.515, 1733.215
1873.443, 1733.639
1875.372, 1740.045
1877.300, 1754.535
1879.229, 1778.438
1881.157, 1787.084
1883.085, 1770.444
1885.014, 1756.569
1886.942, 1756.202
1888.871, 1760.020
1890.799, 1759.932
1892.728, 1761.588
1894.656, 1777.620
1896.585, 1805.311
1898.513, 1820.030
1900.442, 1816.668
1902.370, 1814.388
1904.299, 1815.655
1906.227, 1818.018
1908.156, 1824.725
1910.084, 1828.351
1912.012, 1818.522
1913.941, 1802.328
1915.869, 1796.788
1917.798, 1802.861
1919.726, 1812.035
1921.655, 1833.083
1923.583, 1841.450
1925.512, 1821.050
1927.440, 1807.170
1929.369, 1819.051
1931.297, 1837.211
1933.226, 1844.444
1935.154, 1843.277
1937.083, 1840.704
1939.011, 1836.396
1940.939, 1835.223
1942.868, 1838.617
1944.796, 1841.481
1946.725, 1840.182
1948.653, 1842.749
1950.582, 1856.586
1952.510, 1873.502
1954.439, 1885.582
1956.367, 1894.033
1958.296, 1902.343
1960.224, 1910.074
1962.153, 1916.063
1964.081, 1919.632
1966.010, 1922.597
1967.938, 1933.407
1969.866, 1934.268
1971.795, 1902.832
1973.723, 1873.276
1975.652, 1884.914
1977.580, 1921.413
1979.509, 1938.480
1981.437, 1933.031
1983.366, 1932.937
1985.294, 1940.182
1987.223, 1946.964
1989.151, 1955.113
1991.080, 1958.268
1993.008, 1945.425
1994.937, 1935.948
1996.865, 1948.584
1998.793, 1970.523
2000.722, 1978.918
2002.650, 1976.378
2004.579, 1979.584
2006.507, 1990.504
2008.436, 1999.316
2010.364, 2006.448
2012.293, 2007.747
2014.221, 1992.645
2016.150, 1982.161
2018.078, 1994.846
2020.007, 2013.401
2021.935, 2014.225
2023.864, 2002.908
2025.792, 2002.951
2027.720, 2017.674
2029.649, 2026.736
2031.577, 2026.012
2033.506, 2028.344
2035.434, 2039.634
2037.363, 2047.292
2039.291, 2039.500
2041.220, 2034.606
2043.148, 2055.867
2045.077, 2082.561
2047.005, 2071.807
2048.934, 2036.296
2050.862, 2039.197
2052.791, 2087.486
2054.719, 2110.860
2056.647, 2084.554
2058.576, 2071.519
2060.504, 2101.171
2062.433, 2126.876
2064.361, 2125.631
2066.290, 2115.222
2068.218, 2109.690
2070.147, 2107.527
2072.075, 2105.054
2074.004, 2102.735
2075.932, 2104.428
2077.861, 2109.881
2079.789, 2120.468
2081.718, 2138.113
2083.646, 2155.279
2085.574, 2174.988
2087.503, 2184.990
2089.431, 2167.981
2091.360, 2150.322
2093.288, 2160.394
2095.217, 2180.715
2097.145, 2179.536
2099.074, 2161.002
2101.002, 2152.500
2102.931, 2156.037
2104.859, 2162.262
2106.788, 2174.390
2108.716, 2183.519
2110.645, 2185.649
2112.573, 2188.051
2114.501, 2195.057
2116.430, 2200.016
2118.358, 2194.125
2120.287, 2186.832
2122.215, 2193.986
2124.144, 2209.693
2126.072, 2214.397
2128.001, 2208.883
2129.929, 2210.342
2131.858, 2223.717
2133.786, 2225.738
2135.715, 2197.650
2137.643, 2184.802
2139.572, 2212.497
2141.500, 2239.385
2143.428, 2243.283
2145.357, 2239.677
2147.285, 2239.161
2149.214, 2242.084
2151.142, 2253.544
2153.071, 2270.372
2154.999, 2267.010
2156.928, 2242.727
2158.856, 2238.037
2160.785, 2262.017
2162.713, 2277.906
2164.642, 2274.122
2166.570, 2270.694
2168.499, 2273.701
2170.427, 2279.126
2172.355, 2286.770
2174.284, 2294.040
2176.212, 2297.369
2178.141, 2299.479
2180.069, 2306.648
2181.998, 2317.509
2183.926, 2321.278
2185.855, 2317.226
2187.783, 2320.154
2189.712, 2331.973
2191.640, 2342.671
2193.569, 2350.040
2195.497, 2357.292
2197.426, 2369.968
2199.354, 2376.631
2201.282, 2365.652
2203.211, 2354.530
2205.139, 2361.154
2207.068, 2372.641
2208.996, 2370.049
2210.925, 2358.385
2212.853, 2351.464
2214.782, 2349.463
2216.710, 2352.793
2218.639, 2361.271
2220.567, 2377.438
2222.496, 2404.574
2224.424, 2424.625
2226.353, 2431.929
2228.281, 2432.915
2230.209, 2415.647
2232.138, 2410.127
2234.066, 2449.627
2235.995, 2489.021
2237.923, 2485.278
2239.852, 2461.271
2241.780, 2447.521
2243.709, 2442.321
2245.637, 2438.549
2247.566, 2436.844
2249.494, 2442.944
2251.423, 2457.053
2253.351, 2475.403
2255.280, 2501.428
2257.208, 2516.153
2259.136, 2508.604
2261.065, 2501.194
2262.993, 2495.486
2264.922, 2495.586
2266.850, 2511.208
2268.779, 2524.453
2270.707, 2520.247
2272.636, 2509.991
2274.564, 2503.447
2276.493, 2501.412
2278.421, 2509.318
2280.350, 2522.930
2282.278, 2520.983
2284.207, 2502.905
2286.135, 2510.976
2288.063, 2560.135
2289.992, 2593.099
2291.920, 2607.129
2293.849, 2607.286
2295.777, 2578.228
2297.706, 2562.189
2299.634, 2575.910
2301.563, 2593.349
2303.491, 2607.565
2305.420, 2615.908
2307.348, 2611.194
2309.277, 2605.508
2311.205, 2616.221
2313.134, 2632.004
2315.062, 2630.356
2316.990, 2617.350
2318.919, 2615.326
2320.847, 2624.142
2322.776, 2627.030
2324.704, 2623.420
2326.633, 2627.525
2328.561, 2641.869
2330.490, 2651.350
2332.418, 2650.265
2334.347, 2652.095
2336.275, 2665.175
2338.204, 2673.064
2340.132, 2666.547
2342.061, 2660.516
2343.989, 2661.238
2345.917, 2665.675
2347.846, 2672.858
2349.774, 2682.205
2351.703, 2695.984
2353.631, 2709.346
2355.560, 2713.935
2357.488, 2712.892
2359.417, 2711.020
2361.345, 2709.866
2363.274, 2727.618
2365.202, 2767.960
2367.131, 2777.959
2369.059, 2751.053
2370.988, 2741.399
2372.916, 2757.461
2374.844, 2767.533
2376.773, 2765.284
2378.701, 2761.735
2380.630, 2754.410
2382.558, 2754.430
2384.487, 2766.958
2386.415, 2783.710
2388.344, 2803.381
2390.272, 2822.485
2392.201, 2842.563
2394.129, 2857.188
2396.058, 2856.942
2397.986, 2851.833
2399.915, 2854.450
2401.843, 2859.913
2403.771, 2859.298
2405.700, 2854.425
2407.628, 2847.705
2409.557, 2840.778
2411.485, 2850.656
2413.414, 2877.743
2415.342, 2896.223
2417.271, 2904.680
2419.199, 2911.923
2421.128, 2917.406
2423.056, 2927.684
2424.985, 2946.376
2426.913, 2962.903
2428.842, 2983.412
2430.770, 2989.009
2432.698, 2964.826
2434.627, 2943.318
2436.555, 2931.769
2438.484, 2927.420
2440.412, 2927.950
2442.341, 2937.584
2444.269, 2965.800
2446.198, 2996.665
2448.126, 3021.048
2450.055, 3036.971
2451.983, 3038.853
2453.912, 3032.935
2455.840, 3023.441
2457.769, 3015.995
2459.697, 3027.854
2461.625, 3051.090
2463.554, 3060.554
2465.482, 3059.441
2467.411, 3068.364
2469.339, 3087.532
2471.268, 3090.846
2473.196, 3074.047
2475.125, 3079.987
2477.053, 3113.011
2478.982, 3122.801
2480.910, 3099.486
2482.839, 3083.419
2484.767, 3080.934
2486.696, 3086.529
2488.624, 3103.012
2490.552, 3123.041
2492.481, 3152.459
2494.409, 3174.107
2496.338, 3184.751
2498.266, 3185.270
2500.195, 3164.467
2502.123, 3151.182
2504.052, 3166.267
2505.980, 3182.825
2507.909, 3184.318
2509.837, 3182.331
2511.766, 3180.751
2513.694, 3184.482
2515.623, 3200.889
2517.551, 3222.403
2519.479, 3246.292
2521.408, 3267.332
2523.336, 3277.731
2525.265, 3281.125
2527.193, 3279.701
2529.122, 3277.440
2531.050, 3284.032
2532.979, 3297.149
2534.907, 3310.035
2536.836, 3323.062
2538.764, 3342.696
2540.693, 3366.841
2542.621, 3383.893
2544.550, 3394.457
2546.478, 3379.757
2548.406, 3338.279
2550.335, 3318.308
2552.263, 3321.906
2554.192, 3322.678
2556.120, 3317.458
2558.049, 3322.063
2559.977, 3341.677
2561.906, 3357.366
2563.834, 3362.561
2565.763, 3377.343
2567.691, 3406.974
2569.620, 3428.916
2571.548, 3438.994
2573.477, 3442.194
2575.405, 3430.907
2577.333, 3432.347
2579.262, 3471.793
2581.190, 3493.283
2583.119, 3469.577
2585.047, 3457.712
2586.976, 3477.874
2588.904, 3500.185
2590.833, 3517.446
2592.761, 3526.939
2594.690, 3520.748
2596.618, 3516.167
2598.547, 3521.057
2600.475, 3529.806
2602.404, 3537.103
2604.332, 3550.262
2606.260, 3582.653
2608.189, 3609.204
2610.117, 3608.122
2612.046, 3600.494
2613.974, 3600.002
2615.903, 3603.241
2617.831, 3605.844
2619.760, 3614.639
2621.688, 3641.131
2623.617, 3670.732
2625.545, 3692.223
2627.474, 3705.774
2629.402, 3705.274
2631.331, 3701.150
2633.259, 3705.792
2635.188, 3714.555
2637.116, 3724.139
2639.044, 3732.813
2640.973, 3738.942
2642.901, 3743.792
2644.830, 3747.760
2646.758, 3753.623
2648.687, 3764.517
2650.615, 3780.992
2652.544, 3810.359
2654.472, 3840.062
2656.401, 3836.449
2658.329, 3820.083
2660.258, 3844.067
2662.186, 3888.538
2664.115, 3905.122
2666.043, 3902.350
2667.971, 3907.264
2669.900, 3912.268
2671.828, 3882.538
2673.757, 3840.983
2675.685, 3859.337
2677.614, 3918.043
2679.542, 3948.220
2681.471, 3957.816
2683.399, 3983.325
2685.328, 4016.280
2687.256, 4032.088
2689.185, 4032.858
2691.113, 4017.088
2693.042, 3993.720
2694.970, 4006.716
2696.898, 4047.178
2698.827, 4074.561
2700.755, 4090.627
2702.684, 4104.217
2704.612, 4113.976
2706.541, 4109.792
2708.469, 4097.808
2710.398, 4116.224
2712.326, 4156.224
2714.255, 4172.780
2716.183, 4173.418
2718.112, 4189.480
2720.040, 4215.414
2721.969, 4224.094
2723.897, 4218.888
2725.825, 4214.740
2727.754, 4213.385
2729.682, 4225.164
2731.611, 4246.553
2733.539, 4263.802
2735.468, 4279.011
2737.396, 4306.359
2739.325, 4337.628
2741.253, 4330.853
2743.182, 4302.109
2745.110, 4298.973
2747.039, 4316.438
2748.967, 4348.567
2750.896, 4385.015
2752.824, 4381.407
2754.752, 4360.158
2756.681, 4399.868
2758.609, 4466.804
2760.538, 4479.934
2762.466, 4463.557
2764.395, 4474.710
2766.323, 4497.756
2768.252, 4495.068
2770.180, 4480.234
2772.109, 4473.839
2774.037, 4479.934
2775.966, 4518.963
2777.894, 4563.528
2779.823, 4558.461
2781.751, 4535.313
2783.679, 4542.555
2785.608, 4564.690
2787.536, 4584.631
2789.465, 4604.688
2791.393, 4631.920
2793.322, 4656.440
2795.250, 4661.659
2797.179, 4661.977
2799.107, 4671.133
2801.036, 4683.955
2802.964, 4697.741
2804.893, 4711.796
2806.821, 4723.218
2808.750, 4738.415
2810.678, 4772.420
2812.606, 4798.886
2814.535, 4783.375
2816.463, 4776.807
2818.392, 4821.155
2820.320, 4869.984
2822.249, 4907.233
2824.177, 4925.486
2826.106, 4907.073
2828.034, 4897.527
2829.963, 4930.145
2831.891, 4958.514
2833.820, 4953.570
2835.748, 4961.827
2837.677, 5003.754
2839.605, 5036.105
2841.533, 5042.403
2843.462, 5043.766
2845.390, 5035.299
2847.319, 5044.920
2849.247, 5087.741
2851.176, 5111.124
2853.104, 5101.591
2855.033, 5102.584
2856.961, 5123.250
2858.890, 5152.347
2860.818, 5192.154
2862.747, 5220.610
2864.675, 5234.890
2866.604, 5246.628
2868.532, 5256.174
2870.460, 5262.656
2872.389, 5264.891
2874.317, 5299.555
2876.246, 5359.910
2878.174, 5354.222
2880.103, 5297.393
2882.031, 5299.082
2883.960, 5347.003
2885.888, 5386.588
2887.817, 5416.870
2889.745, 5426.834
2891.674, 5428.981
2893.602, 5448.654
2895.531, 5479.109
2897.459, 5517.604
2899.387, 5551.743
2901.316, 5557.933
2903.244, 5557.851
2905.173, 5577.314
2907.101, 5597.426
2909.030, 5596.504
2910.958, 5596.204
2912.887, 5603.953
2914.815, 5629.398
2916.744, 5700.952
2918.672, 5754.270
2920.601, 5734.675
2922.529, 5731.044
2924.458, 5786.749
2926.386, 5819.672
2928.314, 5794.734
2930.243, 5785.479
2932.171, 5829.915
2934.100, 5851.087
2936.028, 5833.158
2937.957, 5852.236
2939.885, 5922.600
2941.814, 5950.908
2943.742, 5915.927
2945.671, 5918.978
2947.599, 5960.055
2949.528, 6019.235
2951.456, 6087.225
2953.385, 6100.843
2955.313, 6077.924
2957.241, 6094.389
2959.170, 6132.799
2961.098, 6144.346
2963.027, 6145.873
2964.955, 6170.959
2966.884, 6197.088
2968.812, 6180.516
2970.741, 6167.447
2972.669, 6217.648
2974.598, 6269.121
2976.526, 6271.434
2978.455, 6274.083
2980.383, 6300.758
2982.312, 6341.742
2984.240, 6409.571
2986.168, 6451.468
2988.097, 6433.380
2990.025, 6434.159
2991.954, 6484.916
2993.882, 6514.871
2995.811, 6515.024
2997.739, 6528.852
2999.668, 6560.666
3001.596, 6591.910
3003.525, 6621.301
3005.453, 6660.738
3007.382, 6703.926
3009.310, 6709.060
3011.239, 6693.588
3013.167, 6707.575
3015.095, 6735.875
3017.024, 6740.840
3018.952, 6749.187
3020.881, 6802.720
3022.809, 6859.022
3024.738, 6871.019
3026.666, 6883.260
3028.595, 6939.960
3030.523, 6974.597
3032.452, 6931.952
3034.380, 6911.646
3036.309, 6965.646
3038.237, 7005.863
3040.166, 7017.954
3042.094, 7041.027
3044.022, 7083.311
3045.951, 7119.733
3047.879, 7147.000
3049.808, 7177.208
3051.736, 7211.218
3053.665, 7264.427
3055.593, 7328.253
3057.522, 7387.265
3059.450, 7427.583
3061.379, 7397.369
3063.307, 7355.406
3065.236, 7366.563
3067.164, 7401.874
3069.093, 7449.449
3071.021, 7491.563
3072.949, 7514.459
3074.878, 7540.432
3076.806, 7592.291
3078.735, 7622.029
3080.663, 7604.047
3082.592, 7622.582
3084.520, 7692.464
3086.449, 7731.370
3088.377, 7725.010
3090.306, 7751.620
3092.234, 7805.999
3094.163, 7843.969
3096.091, 7868.409
3098.020, 7886.998
3099.948, 7906.332
3101.876, 7939.637
3103.805, 7979.917
3105.733, 8026.812
3107.662, 8067.327
3109.590, 8080.303
3111.519, 8102.410
3113.447, 8156.771
3115.376, 8196.953
3117.304, 8202.566
3119.233, 8219.007
3121.161, 8259.536
3123.090, 8291.549
3125.018, 8314.601
3126.947, 8342.647
3128.875, 8374.769
3130.803, 8400.362
3132.732, 8424.372
3134.660, 8464.021
3136.589, 8511.110
3138.517, 8556.818
3140.446, 8602.468
3142.374, 8653.339
3144.303, 8697.645
3146.231, 8724.924
3148.160, 8751.707
3150.088, 8787.121
3152.017, 8809.836
3153.945, 8807.980
3155.874, 8851.489
3157.802, 8949.970
3159.730, 9034.031
3161.659, 9100.054
3163.587, 9119.572
3165.516, 9109.332
3167.444, 9108.175
3169.373, 9113.813
3171.301, 9116.479
3173.230, 9133.992
3175.158, 9188.879
3177.087, 9248.848
3179.015, 9291.930
3180.944, 9347.535
3182.872, 9434.547
3184.801, 9488.138
3186.729, 9493.767
3188.657, 9509.816
3190.586, 9540.067
3192.514, 9576.544
3194.443, 9613.271
3196.371, 9616.526
3198.300, 9610.588
3200.228, 9636.956
3202.157, 9678.314
3204.085, 9709.861
3206.014, 9760.696
3207.942, 9866.507
3209.871, 9959.922
3211.799, 10024.44
3213.728, 10054.87
3215.656, 10042.02
3217.584, 10049.96
3219.513, 10083.15
3221.441, 10134.80
3223.370, 10200.19
3225.298, 10261.70
3227.227, 10320.89
3229.155, 10388.85
3231.084, 10444.04
3233.012, 10457.88
3234.941, 10469.22
3236.869, 10503.92
3238.798, 10533.69
3240.726, 10552.78
3242.655, 10575.30
3244.583, 10601.97
3246.511, 10663.29
3248.440, 10753.99
3250.368, 10808.57
3252.297, 10843.41
3254.225, 10910.83
3256.154, 10976.76
3258.082, 10998.28
3260.011, 11003.94
3261.939, 10994.93
3263.868, 11015.43
3265.796, 11101.52
3267.725, 11178.95
3269.653, 11237.58
3271.582, 11306.01
3273.510, 11383.93
3275.438, 11439.20
3277.367, 11479.71
3279.295, 11547.48
3281.224, 11604.61
3283.152, 11580.34
3285.081, 11560.38
3287.009, 11615.90
3288.938, 11672.67
3290.866, 11693.50
3292.795, 11746.80
3294.723, 11848.01
3296.652, 11918.40
3298.580, 11954.20
3300.509, 11962.94
3302.437, 11971.01
3304.365, 12090.60
3306.294, 12212.01
3308.222, 12189.02
3310.151, 12161.91
3312.079, 12230.22
3314.008, 12292.35
3315.936, 12315.92
3317.865, 12366.96
3319.793, 12462.10
3321.722, 12554.36
3323.650, 12635.52
3325.579, 12632.91
3327.507, 12606.78
3329.436, 12660.43
3331.364, 12748.92
3333.292, 12840.93
3335.221, 12932.80
3337.149, 13019.53
3339.078, 13108.67
3341.006, 13204.56
3342.935, 13244.20
3344.863, 13227.80
3346.792, 13251.44
3348.720, 13308.95
3350.649, 13395.67
3352.577, 13487.65
3354.506, 13559.92
3356.434, 13628.90
3358.363, 13700.97
3360.291, 13769.83
3362.219, 13819.64
3364.148, 13904.15
3366.076, 14021.11
3368.005, 14106.31
3369.933, 14181.13
3371.862, 14338.35
3373.790, 14499.76
3375.719, 14567.19
3377.647, 14611.16
3379.576, 14650.70
3381.504, 14726.64
3383.433, 14852.87
3385.361, 14984.21
3387.290, 15115.00
3389.218, 15197.04
3391.146, 15252.98
3393.075, 15369.37
3395.003, 15492.35
3396.932, 15549.62
3398.860, 15621.60
3400.789, 15767.32
3402.717, 15866.01
3404.646, 15845.67
3406.574, 15933.40
3408.503, 16115.98
3410.431, 16187.57
3412.360, 16202.09
3414.288, 16273.62
3416.217, 16368.01
3418.145, 16479.55
3420.073, 16554.51
3422.002, 16543.09
3423.930, 16545.81
3425.859, 16571.95
3427.787, 16574.29
3429.716, 16557.69
3431.644, 16565.64
3433.573, 16584.03
3435.501, 16608.14
3437.430, 16608.91
3439.358, 16546.41
3441.287, 16497.59
3443.215, 16485.50
3445.144, 16441.20
3447.072, 16358.52
3449.000, 16369.38
3450.929, 16420.16
3452.857, 16377.01
3454.786, 16315.78
3456.714, 16309.52
3458.643, 16314.24
3460.571, 16326.81
3462.500, 16298.82
3464.428, 16220.08
3466.357, 16182.94
3468.285, 16186.94
3470.214, 16234.43
3472.142, 16282.52
3474.071, 16257.37
3475.999, 16242.54
3477.927, 16285.40
3479.856, 16339.66
3481.784, 16397.60
3483.713, 16434.70
3485.641, 16453.57
3487.570, 16509.13
3489.498, 16562.77
3491.427, 16529.53
3493.355, 16522.20
3495.284, 16646.16
3497.212, 16754.72
3499.141, 16822.62
3501.069, 16879.88
3502.998, 16927.06
3504.926, 16958.53
3506.854, 16985.88
3508.783, 17027.27
3510.711, 17079.61
3512.640, 17149.49
3514.568, 17211.24
3516.497, 17257.79
3518.425, 17297.45
3520.354, 17329.93
3522.282, 17340.53
3524.211, 17361.09
3526.139, 17467.24
3528.068, 17571.55
3529.996, 17626.77
3531.925, 17672.33
3533.853, 17708.85
3535.781, 17786.48
3537.710, 17896.08
3539.638, 17987.67
3541.567, 18071.13
3543.495, 18179.01
3545.424, 18256.14
3547.352, 18251.16
3549.281, 18266.91
3551.209, 18322.48
3553.138, 18322.62
3555.066, 18281.37
3556.995, 18260.81
3558.923, 18251.52
3560.852, 18231.68
3562.780, 18231.62
3564.708, 18286.90
3566.637, 18285.06
3568.565, 18219.10
3570.494, 18235.75
3572.422, 18297.86
3574.351, 18270.83
3576.279, 18259.45
3578.208, 18381.95
3580.136, 18472.51
3582.065, 18480.72
3583.993, 18553.04
3585.922, 18692.56
3587.850, 18788.60
3589.779, 18866.56
3591.707, 18954.70
3593.635, 19058.90
3595.564, 19188.55
3597.492, 19317.76
3599.421, 19445.37
3601.349, 19556.43
3603.278, 19661.21
3605.206, 19780.45
3607.135, 19920.62
3609.063, 20082.09
3610.992, 20279.93
3612.920, 20534.59
3614.849, 20692.69
3616.777, 20760.50
3618.706, 21021.88
3620.634, 21363.14
3622.563, 21619.46
3624.491, 21875.02
3626.419, 22169.73
3628.348, 22468.30
3630.276, 22761.43
3632.205, 23129.15
3634.133, 23518.22
3636.062, 23822.26
3637.990, 24038.82
3639.919, 24176.04
3641.847, 24187.89
3643.776, 24027.77
3645.704, 23800.12
3647.633, 23499.41
3649.561, 23065.17
3651.490, 22621.81
3653.418, 22343.85
3655.346, 22056.81
3657.275, 21685.44
3659.203, 21349.24
3661.132, 21050.50
3663.060, 20779.09
3664.989, 20562.39
3666.917, 20499.83
3668.846, 20422.19
3670.774, 20227.88
3672.703, 20115.20
3674.631, 20103.29
3676.560, 20100.54
3678.488, 20112.83
3680.417, 20162.50
3682.345, 20209.21
3684.273, 20208.05
3686.202, 20260.30
3688.130, 20377.70
3690.059, 20506.77
3691.987, 20611.85
3693.916, 20605.61
3695.844, 20572.20
3697.773, 20549.09
3699.701, 20586.55
3701.630, 20710.13
3703.558, 20724.82
3705.487, 20696.31
3707.415, 20798.41
3709.344, 20932.53
3711.272, 21047.04
3713.200, 21112.36
3715.129, 21109.23
3717.057, 21152.28
3718.986, 21233.20
3720.914, 21355.13
3722.843, 21438.94
3724.771, 21408.19
3726.700, 21408.02
3728.628, 21481.54
3730.557, 21533.73
3732.485, 21567.53
3734.414, 21568.27
3736.342, 21594.45
3738.271, 21689.90
3740.199, 21788.53
3742.127, 21874.96
3744.056, 21917.13
3745.984, 21943.11
3747.913, 22038.12
3749.841, 22119.48
3751.770, 22146.88
3753.698, 22148.52
3755.627, 22133.36
3757.555, 22096.58
3759.484, 22092.12
3761.412, 22258.54
3763.341, 22398.90
3765.269, 22400.47
3767.198, 22440.21
3769.126, 22540.23
3771.054, 22569.47
3772.983, 22592.41
3774.911, 22730.99
3776.840, 22839.77
3778.768, 22855.15
3780.697, 22898.43
3782.625, 22972.26
3784.554, 23019.72
3786.482, 23064.61
3788.411, 23121.86
3790.339, 23229.41
3792.268, 23412.16
3794.196, 23469.46
3796.125, 23431.11
3798.053, 23419.65
3799.981, 23446.38
3801.910, 23558.87
3803.838, 23624.88
3805.767, 23623.68
3807.695, 23647.80
3809.624, 23689.44
3811.552, 23709.78
3813.481, 23760.59
3815.409, 23904.98
3817.338, 23961.01
3819.266, 23923.97
3821.195, 24009.66
3823.123, 24130.25
3825.052, 24164.19
3826.980, 24218.08
3828.908, 24332.82
3830.837, 24410.82
3832.765, 24452.44
3834.694, 24461.39
3836.622, 24483.81
3838.551, 24561.70
3840.479, 24663.52
3842.408, 24783.59
3844.336, 24781.63
3846.265, 24752.46
3848.193, 24899.13
3850.122, 25027.07
3852.050, 24991.86
3853.979, 25094.11
3855.907, 25279.87
3857.835, 25265.72
3859.764, 25223.87
3861.692, 25322.40
3863.621, 25401.21
3865.549, 25407.02
3867.478, 25461.23
3869.406, 25549.82
3871.335, 25651.71
3873.263, 25747.60
3875.192, 25819.48
3877.120, 25917.73
3879.049, 26037.27
3880.977, 26046.57
3882.906, 26060.59
3884.834, 26212.49
3886.762, 26351.41
3888.691, 26455.34
3890.619, 26522.14
3892.548, 26539.62
3894.476, 26472.98
3896.405, 26461.56
3898.333, 26569.33
3900.262, 26664.28
3902.190, 26748.79
3904.119, 26767.95
3906.047, 26786.31
3907.976, 26903.47
3909.904, 26972.97
3911.833, 26971.99
3913.761, 27117.34
3915.689, 27303.11
3917.618, 27322.71
3919.546, 27385.91
3921.475, 27593.88
3923.403, 27602.87
3925.332, 27514.55
3927.260, 27507.55
3929.189, 27546.23
3931.117, 27606.34
3933.046, 27686.11
3934.974, 27790.05
3936.903, 27906.79
3938.831, 28002.75
3940.760, 28076.12
3942.688, 28197.27
3944.616, 28348.91
3946.545, 28308.47
3948.473, 28239.77
3950.402, 28359.59
3952.330, 28442.39
3954.259, 28446.13
3956.187, 28522.90
3958.116, 28634.81
3960.044, 28720.32
3961.973, 28791.29
3963.901, 28846.05
3965.830, 28899.74
3967.758, 28963.95
3969.687, 29074.51
3971.615, 29177.58
3973.543, 29250.59
3975.472, 29291.44
3977.400, 29317.12
3979.329, 29400.38
3981.257, 29502.59
3983.186, 29610.87
3985.114, 29718.18
3987.043, 29803.08
3988.971, 29825.40
3990.900, 29830.70
3992.828, 29864.22
3994.757, 29917.97
3996.685, 29999.22
3998.614, 30093.34
4000.542, 30207.25
4002.470, 30339.71
4004.399, 30462.10
4006.327, 30508.49
4008.256, 30551.28
4010.184, 30669.99
4012.113, 30797.70
4014.041, 30843.46
4015.970, 30783.41
4017.898, 30797.17
4019.827, 30916.58
4021.755, 30978.38
4023.684, 31016.60
4025.612, 31127.19
4027.541, 31222.09
4029.469, 31281.98
4031.397, 31350.89
4033.326, 31412.25
4035.254, 31490.09
4037.183, 31562.25
4039.111, 31601.68
4041.040, 31654.56
4042.968, 31762.98
4044.897, 31898.75
4046.825, 31943.73
4048.754, 31997.73
4050.682, 32038.81
4052.611, 32021.41
4054.539, 32142.94
4056.468, 32279.75
4058.396, 32315.10
4060.324, 32350.20
4062.253, 32345.27
4064.181, 32329.14
4066.110, 32406.71
4068.038, 32499.06
4069.967, 32555.29
4071.895, 32648.41
4073.824, 32724.62
4075.752, 32729.89
4077.681, 32847.00
4079.609, 32973.93
4081.538, 33012.43
4083.466, 33065.96
4085.395, 33113.01
4087.323, 33167.01
4089.251, 33258.96
4091.180, 33281.84
4093.108, 33327.14
4095.037, 33583.46
4096.965, 33650.58
4098.894, 33597.65
4100.822, 33627.61
4102.751, 33653.01
4104.679, 33709.39
4106.607, 33834.37
4108.536, 33967.54
4110.465, 34108.34
4112.393, 34204.08
4114.321, 34182.39
4116.250, 34184.76
4118.179, 34221.28
4120.107, 34302.29
4122.035, 34383.13
4123.964, 34445.35
4125.893, 34529.28
4127.821, 34621.41
4129.749, 34666.64
4131.678, 34695.27
4133.606, 34679.88
4135.535, 34716.58
4137.463, 34857.73
4139.392, 35000.66
4141.320, 35098.66
4143.249, 35135.77
4145.177, 35179.52
4147.105, 35229.26
4149.034, 35312.38
4150.962, 35399.50
4152.891, 35502.38
4154.819, 35563.92
4156.748, 35536.98
4158.676, 35558.93
4160.604, 35614.38
4162.533, 35604.54
4164.462, 35603.91
4166.390, 35657.53
4168.318, 35637.14
4170.247, 35615.25
4172.176, 35759.67
4174.104, 35870.21
4176.032, 35889.13
4177.961, 36036.98
4179.890, 36216.53
4181.818, 36232.71
4183.746, 36253.72
4185.675, 36321.13
4187.604, 36487.78
4189.532, 36643.30
4191.460, 36590.11
4193.389, 36496.86
4195.317, 36409.93
4197.246, 36527.88
4199.174, 36741.38
4201.103, 36905.03
4203.031, 36972.12
4204.959, 36932.17
4206.888, 37021.18
4208.816, 37148.91
4210.745, 37208.83
4212.673, 37209.34
4214.602, 37163.59
4216.530, 37278.62
4218.459, 37429.78
4220.387, 37453.30
4222.315, 37522.00
4224.244, 37676.98
4226.173, 37671.09
4228.101, 37663.16
4230.029, 37845.74
4231.958, 37944.04
4233.887, 37920.38
4235.815, 38006.37
4237.743, 38105.29
4239.672, 38133.07
4241.601, 38195.20
4243.529, 38294.84
4245.457, 38394.29
4247.386, 38481.90
4249.314, 38557.88
4251.243, 38505.48
4253.171, 38384.39
4255.100, 38474.92
4257.028, 38605.07
4258.957, 38703.09
4260.885, 38748.45
4262.813, 38768.39
4264.742, 38853.52
4266.670, 38907.91
4268.599, 38891.92
4270.527, 38867.38
4272.456, 38871.51
4274.384, 39003.12
4276.313, 39088.91
4278.241, 39076.77
4280.170, 39130.61
4282.098, 39211.34
4284.026, 39258.18
4285.955, 39374.08
4287.884, 39563.12
4289.812, 39670.09
4291.740, 39666.14
4293.669, 39455.01
4295.598, 39516.72
4297.526, 39782.21
4299.454, 39714.12
4301.383, 39661.43
4303.312, 39798.40
4305.240, 39919.73
4307.168, 39979.14
4309.097, 39834.45
4311.025, 39778.88
4312.954, 39893.78
4314.882, 39923.08
4316.811, 39902.41
4318.739, 39847.74
4320.667, 39913.54
4322.596, 40087.13
4324.524, 40077.39
4326.453, 40055.59
4328.381, 40156.18
4330.310, 40209.23
4332.238, 40229.03
4334.167, 40316.06
4336.095, 40423.17
4338.023, 40534.00
4339.952, 40527.24
4341.881, 40504.11
4343.809, 40666.54
4345.737, 40777.82
4347.666, 40790.48
4349.595, 40753.77
4351.523, 40723.40
4353.451, 40749.98
4355.380, 40798.37
4357.309, 40861.03
4359.237, 40936.13
4361.165, 40987.21
4363.094, 40985.70
4365.022, 40952.82
4366.951, 40944.64
4368.879, 41137.25
4370.808, 41187.12
4372.736, 41032.34
4374.665, 41091.93
4376.593, 41181.11
4378.521, 41135.55
4380.450, 41177.86
4382.378, 41297.00
4384.307, 41448.17
4386.235, 41535.78
4388.164, 41533.75
4390.092, 41522.42
4392.021, 41557.18
4393.949, 41716.38
4395.878, 41870.73
4397.806, 41971.45
4399.734, 41884.07
4401.663, 41796.52
4403.592, 41815.45
4405.520, 41949.39
4407.448, 42096.86
4409.377, 42053.43
4411.306, 42009.15
4413.234, 42010.94
4415.162, 42088.72
4417.091, 42171.50
4419.020, 42196.52
4420.948, 42206.77
4422.876, 42220.58
4424.805, 42299.02
4426.733, 42362.35
4428.662, 42385.68
4430.590, 42240.89
4432.519, 42136.74
4434.447, 42320.89
4436.375, 42342.23
4438.304, 42232.04
4440.232, 42213.74
4442.161, 42281.65
4444.089, 42429.58
4446.018, 42565.75
4447.946, 42660.79
4449.875, 42677.13
4451.803, 42643.48
4453.731, 42603.36
4455.660, 42771.03
4457.589, 42891.93
4459.517, 42842.38
4461.445, 42841.74
4463.374, 42871.78
4465.303, 42932.22
4467.231, 42916.59
4469.159, 42848.75
4471.088, 42865.02
4473.017, 42909.83
4474.945, 42964.13
4476.873, 42916.72
4478.802, 42850.67
4480.730, 42825.74
4482.659, 42943.24
4484.587, 43167.46
4486.516, 43384.99
4488.444, 43478.52
4490.373, 43356.58
4492.301, 43458.18
4494.229, 43587.58
4496.158, 43569.30
4498.086, 43646.69
4500.015, 43773.92
4501.943, 43732.23
4503.872, 43686.95
4505.800, 43675.94
4507.729, 43627.39
4509.657, 43664.76
4511.586, 43985.16
4513.514, 44036.70
4515.442, 43938.60
4517.371, 43973.20
4519.300, 43944.33
4521.228, 43836.43
4523.156, 43873.98
4525.085, 43872.53
4527.014, 43731.73
4528.942, 43840.66
4530.870, 44051.74
4532.799, 44204.45
4534.728, 44205.23
4536.656, 44109.14
4538.584, 44088.16
4540.513, 44215.26
4542.441, 44538.48
4544.370, 44540.04
4546.298, 44456.50
4548.227, 44454.83
4550.155, 44432.05
4552.083, 44438.46
4554.012, 44682.41
4555.940, 44698.53
4557.869, 44497.61
4559.797, 44531.30
4561.726, 44628.27
4563.654, 44706.77
4565.583, 44701.79
4567.511, 44668.15
4569.439, 44658.76
4571.368, 44718.80
4573.297, 44793.12
4575.225, 44731.79
4577.153, 44643.46
4579.082, 44572.65
4581.011, 44675.82
4582.939, 44780.63
4584.867, 44780.18
4586.796, 44857.32
4588.725, 44953.77
4590.653, 45021.11
4592.581, 44968.69
4594.510, 44893.54
4596.438, 45065.14
4598.367, 45206.64
4600.295, 45245.55
4602.224, 45118.13
4604.152, 45025.40
4606.081, 45090.14
4608.009, 45160.33
4609.938, 45204.96
4611.866, 45188.13
4613.794, 45171.23
4615.723, 45145.88
4617.651, 45060.96
4619.580, 45046.19
4621.508, 45101.43
4623.437, 45109.68
4625.365, 45143.23
4627.294, 45235.18
4629.222, 45119.56
4631.150, 45077.78
4633.079, 45300.55
4635.008, 45352.51
4636.936, 45366.40
4638.864, 45620.91
4640.793, 45650.04
4642.722, 45521.32
4644.650, 45516.00
4646.578, 45579.04
4648.507, 45676.34
4650.436, 45629.64
4652.364, 45592.15
4654.292, 45622.97
4656.221, 45575.79
4658.149, 45536.80
4660.078, 45599.32
4662.006, 45585.14
4663.935, 45547.78
4665.863, 45544.07
4667.792, 45671.18
4669.720, 45833.51
4671.648, 45778.22
4673.577, 45709.25
4675.505, 45680.20
4677.434, 45763.68
4679.362, 45748.52
4681.291, 45576.77
4683.219, 45587.35
4685.147, 45685.52
4687.076, 45803.53
4689.005, 45942.84
4690.933, 46021.88
4692.861, 45908.39
4694.790, 45929.91
4696.719, 45995.01
4698.647, 45906.01
4700.575, 45871.32
4702.504, 45899.93
4704.433, 45910.97
4706.361, 45908.39
4708.289, 45894.92
4710.218, 45937.80
4712.146, 46011.25
4714.075, 46095.02
4716.003, 45985.50
4717.932, 45924.49
4719.860, 46108.21
4721.789, 46052.70
4723.717, 45993.19
4725.646, 46160.65
4727.574, 46137.75
4729.502, 46070.74
4731.431, 46246.34
4733.359, 46264.92
4735.288, 46173.76
4737.216, 46161.75
4739.145, 46159.50
4741.073, 46153.00
4743.002, 46112.05
4744.930, 46046.88
4746.858, 45975.18
4748.787, 45991.84
4750.716, 45987.04
4752.644, 45917.58
4754.572, 45938.44
4756.501, 45976.96
4758.430, 46001.92
4760.358, 46033.85
4762.286, 46070.24
4764.215, 46104.44
4766.144, 46124.91
4768.072, 46136.86
4770.000, 46156.16
4771.929, 46128.48
4773.857, 46062.87
4775.786, 45922.72
4777.714, 45977.45
4779.643, 46127.30
4781.571, 46161.39
4783.500, 46142.05
4785.428, 46125.46
4787.356, 46277.41
4789.285, 46245.06
4791.213, 46065.52
4793.142, 46142.94
4795.070, 46166.25
4796.999, 46098.11
4798.927, 46076.66
4800.855, 46092.96
4802.784, 46139.05
4804.713, 46218.68
4806.641, 46158.02
4808.569, 45931.63
4810.498, 45805.68
4812.427, 45874.46
4814.355, 46216.10
4816.283, 46141.71
4818.212, 45986.08
4820.141, 45927.86
4822.069, 46037.00
4823.997, 46087.99
4825.926, 45858.13
4827.854, 45862.36
4829.783, 45952.73
4831.711, 46018.83
4833.640, 45928.34
4835.568, 45811.06
4837.497, 45805.46
4839.425, 45835.45
4841.354, 45871.23
4843.282, 45888.15
4845.210, 45881.09
4847.139, 45829.08
4849.067, 45653.52
4850.996, 45699.25
4852.924, 45795.76
4854.853, 45647.86
4856.781, 45622.16
4858.710, 45677.85
4860.638, 45694.35
4862.566, 45708.28
4864.495, 45672.40
4866.424, 45399.75
4868.352, 45507.90
4870.280, 45782.14
4872.209, 45663.77
4874.138, 45617.91
4876.066, 45623.32
4877.994, 45514.18
4879.923, 45412.19
4881.852, 45362.88
4883.780, 45440.38
4885.708, 45503.99
4887.637, 45517.82
4889.565, 45421.68
4891.494, 45395.05
4893.422, 45430.22
4895.351, 45479.59
4897.279, 45363.74
4899.208, 45208.18
4901.136, 45371.95
4903.064, 45432.70
4904.993, 45396.23
4906.921, 45421.89
4908.850, 45373.14
4910.778, 45290.33
4912.707, 45302.37
4914.635, 45253.52
4916.563, 45173.14
4918.492, 45185.89
4920.421, 45168.15
4922.349, 45111.46
4924.277, 45019.17
4926.206, 44968.28
4928.135, 44970.05
4930.063, 45035.97
4931.991, 45037.50
4933.920, 44991.50
4935.849, 44944.10
4937.777, 45041.95
4939.705, 45118.82
4941.634, 44820.34
4943.563, 44873.21
4945.491, 45013.93
4947.419, 44784.79
4949.348, 44905.05
4951.276, 45124.73
4953.205, 45092.36
4955.133, 45082.03
4957.062, 44998.92
4958.990, 44663.37
4960.918, 44645.66
4962.847, 44692.82
4964.775, 44577.20
4966.704, 44491.53
4968.632, 44485.49
4970.561, 44625.36
4972.489, 44524.25
4974.418, 44441.44
4976.346, 44517.38
4978.274, 44530.04
4980.203, 44474.45
4982.132, 44361.22
4984.060, 44355.29
4985.988, 44324.05
4987.917, 44222.68
4989.846, 44276.95
4991.774, 44312.93
4993.702, 44283.80
4995.631, 44240.09
4997.560, 44217.77
4999.488, 44196.47
5001.416, 44015.48
5003.345, 43903.40
5005.273, 43868.08
5007.202, 43755.88
5009.130, 43761.45
5011.059, 43819.16
5012.987, 43721.32
5014.916, 43687.57
5016.844, 43686.06
5018.772, 43626.04
5020.701, 43708.04
5022.629, 43793.09
5024.558, 43687.92
5026.486, 43687.79
5028.415, 43636.44
5030.343, 43355.80
5032.271, 43307.86
5034.200, 43354.45
5036.129, 43409.49
5038.057, 43478.20
5039.985, 43369.13
5041.914, 43033.48
5043.843, 42932.38
5045.771, 42963.96
5047.699, 43045.41
5049.628, 42943.92
5051.557, 42899.09
5053.485, 42913.31
5055.413, 42887.81
5057.342, 42762.32
5059.271, 42646.36
5061.199, 42790.21
5063.127, 42692.09
5065.056, 42539.97
5066.984, 42599.89
5068.913, 42629.45
5070.841, 42589.82
5072.770, 42432.96
5074.698, 42468.73
5076.626, 42498.64
5078.555, 42434.82
5080.483, 42269.04
5082.412, 42152.81
5084.340, 42142.36
5086.269, 42340.73
5088.197, 42389.53
5090.126, 42281.91
5092.054, 42211.99
5093.982, 42088.45
5095.911, 42010.59
5097.840, 42178.47
5099.768, 42067.36
5101.696, 41926.44
5103.625, 42084.68
5105.554, 41943.53
5107.482, 41841.40
5109.410, 41939.85
5111.339, 41979.52
5113.268, 41922.01
5115.196, 41787.30
5117.124, 41663.18
5119.053, 41631.27
5120.981, 41653.59
5122.910, 41591.97
5124.838, 41546.15
5126.767, 41560.91
5128.695, 41683.17
5130.624, 41757.78
5132.552, 41766.48
5134.480, 41703.94
5136.409, 41580.77
5138.337, 41448.89
5140.266, 41341.48
5142.194, 41316.85
5144.123, 41334.34
5146.051, 41320.16
5147.979, 41054.47
5149.908, 40998.13
5151.837, 41022.59
5153.765, 40860.37
5155.693, 40779.86
5157.622, 40774.48
5159.551, 40815.29
5161.479, 40767.45
5163.407, 40729.80
5165.336, 40740.70
5167.265, 40853.20
5169.193, 40769.57
5171.121, 40546.02
5173.050, 40445.28
5174.979, 40332.11
5176.907, 40283.29
5178.835, 40392.45
5180.764, 40485.63
5182.692, 40489.66
5184.621, 40372.79
5186.549, 40207.75
5188.478, 40070.75
5190.406, 39974.15
5192.334, 39848.09
5194.263, 39749.43
5196.191, 39703.61
5198.120, 39748.91
5200.048, 39749.61
5201.977, 39717.95
5203.905, 39663.43
5205.834, 39711.32
5207.762, 39703.95
5209.690, 39594.53
5211.619, 39375.55
5213.548, 39280.90
5215.476, 39262.13
5217.404, 39199.36
5219.333, 39073.34
5221.262, 38979.65
5223.190, 38982.91
5225.118, 38862.17
5227.047, 38785.35
5228.976, 38781.91
5230.904, 38711.31
5232.832, 38805.22
5234.761, 38889.98
5236.689, 38582.27
5238.618, 38539.34
5240.546, 38570.89
5242.475, 38535.54
5244.403, 38412.70
5246.332, 38315.14
5248.260, 38284.39
5250.188, 38371.06
5252.117, 38353.44
5254.045, 38264.41
5255.974, 38168.24
5257.902, 38086.21
5259.831, 38005.86
5261.759, 37936.80
5263.688, 37986.61
5265.616, 37882.68
5267.545, 37738.45
5269.473, 37975.59
5271.401, 37859.89
5273.330, 37672.57
5275.259, 37696.33
5277.187, 37575.86
5279.115, 37454.39
5281.044, 37403.11
5282.973, 37536.48
5284.901, 37422.79
5286.829, 37209.87
5288.758, 37132.94
5290.687, 37172.35
5292.615, 37197.70
5294.543, 37158.98
5296.472, 37131.29
5298.400, 37066.66
5300.329, 36979.95
5302.257, 36914.65
5304.186, 36805.85
5306.114, 36761.64
5308.042, 36840.37
5309.971, 36606.96
5311.899, 36482.14
5313.828, 36518.96
5315.756, 36601.14
5317.685, 36547.99
5319.613, 36420.93
5321.542, 36291.59
5323.470, 36275.58
5325.398, 36190.81
5327.327, 36031.19
5329.256, 35921.67
5331.184, 35810.11
5333.112, 35749.82
5335.041, 35786.13
5336.970, 35804.94
5338.898, 35763.80
5340.826, 35665.49
5342.755, 35528.51
5344.684, 35444.61
5346.612, 35420.77
5348.540, 35464.65
5350.469, 35379.43
5352.397, 35180.57
5354.326, 34973.88
5356.254, 35038.57
5358.183, 35035.36
5360.111, 35003.05
5362.040, 35006.41
5363.968, 35095.41
5365.896, 35086.10
5367.825, 34955.89
5369.753, 34796.13
5371.682, 34688.43
5373.610, 34557.55
5375.539, 34349.15
5377.467, 34384.96
5379.396, 34320.21
5381.324, 34166.95
5383.253, 34137.79
5385.181, 34123.57
5387.109, 34098.20
5389.038, 34054.20
5390.967, 33981.41
5392.895, 33942.92
5394.823, 33895.29
5396.752, 33725.24
5398.681, 33657.68
5400.609, 33650.02
5402.537, 33650.39
5404.466, 33551.79
5406.395, 33487.58
5408.323, 33443.82
5410.251, 33372.54
5412.180, 33337.02
5414.108, 33299.21
5416.037, 33223.85
5417.965, 33047.49
5419.894, 32827.59
5421.822, 32706.82
5423.750, 32759.08
5425.679, 32573.65
5427.607, 32566.45
5429.536, 32696.93
5431.464, 32709.77
5433.393, 32569.53
5435.321, 32413.88
5437.250, 32314.45
5439.178, 32248.39
5441.106, 32257.38
5443.035, 32213.10
5444.964, 31987.97
5446.892, 31935.04
5448.820, 31971.00
5450.749, 32014.46
5452.678, 31986.31
5454.606, 31851.08
5456.534, 31775.45
5458.463, 31826.34
5460.392, 31684.43
5462.320, 31591.40
5464.248, 31530.68
5466.177, 31432.33
5468.105, 31450.55
5470.034, 31328.50
5471.962, 31124.52
5473.891, 31151.26
5475.819, 31236.86
5477.748, 31197.09
5479.676, 30978.88
5481.604, 30833.93
5483.533, 30800.91
5485.461, 30805.80
5487.390, 30766.49
5489.318, 30667.13
5491.247, 30592.46
5493.175, 30554.74
5495.104, 30537.94
5497.032, 30451.29
5498.961, 30396.79
5500.889, 30389.36
5502.817, 30280.62
5504.746, 30197.91
5506.675, 30170.93
5508.603, 30193.35
5510.531, 29856.40
5512.460, 29738.78
5514.389, 29810.48
5516.317, 29878.86
5518.245, 29738.60
5520.174, 29644.09
5522.103, 29618.05
5524.031, 29534.76
5525.959, 29445.16
5527.888, 29411.91
5529.816, 29430.65
5531.745, 29374.05
5533.673, 29282.21
5535.602, 29211.34
5537.530, 29187.29
5539.458, 29107.39
5541.387, 28996.41
5543.315, 28932.89
5545.244, 28970.22
5547.172, 28783.20
5549.101, 28622.26
5551.029, 28573.38
5552.958, 28660.91
5554.886, 28641.86
5556.814, 28515.14
5558.743, 28353.57
5560.672, 28340.22
5562.600, 28190.71
5564.528, 28065.61
5566.457, 28040.57
5568.386, 28107.32
5570.314, 27998.47
5572.242, 27923.68
5574.171, 27976.19
5576.100, 27807.21
5578.028, 27825.35
5579.956, 27788.83
5581.885, 27508.50
5583.813, 27468.65
5585.742, 27475.49
5587.670, 27427.68
5589.599, 27257.51
5591.527, 27256.59
5593.456, 27199.83
5595.384, 27081.45
5597.313, 26970.96
5599.241, 27010.73
5601.169, 27023.04
5603.098, 26943.61
5605.026, 26760.29
5606.955, 26796.91
5608.883, 26685.86
5610.812, 26491.08
5612.740, 26603.74
5614.669, 26535.40
5616.597, 26465.62
5618.525, 26420.63
5620.454, 26249.34
5622.383, 26120.81
5624.311, 26039.09
5626.239, 25997.77
5628.168, 25982.56
5630.097, 26059.50
5632.025, 25936.06
5633.953, 25651.47
5635.882, 25713.16
5637.811, 25658.21
5639.739, 25576.69
5641.667, 25529.23
5643.596, 25448.21
5645.524, 25452.20
5647.453, 25482.03
5649.381, 25471.79
5651.310, 25301.17
5653.238, 25236.00
5655.167, 25130.55
5657.095, 24961.81
5659.023, 24981.77
5660.952, 24872.22
5662.880, 24858.75
5664.809, 24937.54
5666.737, 24615.71
5668.666, 24694.05
5670.594, 24732.97
5672.522, 24577.63
5674.451, 24652.35
5676.380, 24642.51
5678.308, 24525.61
5680.236, 24362.33
5682.165, 24317.36
5684.094, 24298.81
5686.022, 24253.38
5687.950, 24156.97
5689.879, 23957.78
5691.808, 24003.90
5693.736, 24012.59
5695.664, 23897.30
5697.593, 23744.61
5699.521, 23709.56
5701.450, 23683.00
5703.378, 23631.52
5705.307, 23576.36
5707.235, 23493.31
5709.164, 23443.70
5711.092, 23405.50
5713.021, 23319.51
5714.949, 23224.30
5716.877, 23149.65
5718.806, 23111.40
5720.734, 23126.27
5722.663, 22866.94
5724.591, 22774.59
5726.520, 22823.79
5728.448, 22874.54
5730.377, 22874.47
5732.305, 22692.58
5734.233, 22534.69
5736.162, 22545.81
5738.091, 22439.22
5740.019, 22360.09
5741.947, 22318.53
5743.876, 22301.07
5745.805, 22305.71
5747.733, 22171.65
5749.661, 22087.13
5751.590, 22117.64
5753.519, 22185.53
5755.447, 22057.02
5757.375, 21974.41
5759.304, 21942.31
5761.232, 21784.03
5763.161, 21803.32
5765.089, 21727.50
5767.018, 21605.64
5768.946, 21591.27
5770.875, 21519.50
5772.803, 21480.34
5774.731, 21430.31
5776.660, 21335.02
5778.588, 21326.80
5780.517, 21251.24
5782.445, 21167.60
5784.374, 21115.36
5786.302, 21062.87
5788.230, 21016.97
5790.159, 20953.71
5792.088, 20885.96
5794.016, 20850.65
5795.944, 20713.13
5797.873, 20732.32
5799.802, 20757.28
5801.730, 20587.77
5803.658, 20554.71
5805.587, 20393.33
5807.516, 20319.66
5809.444, 20426.13
5811.372, 20299.14
5813.301, 20284.50
5815.229, 20220.24
5817.158, 20088.73
5819.086, 20021.14
5821.015, 20137.94
5822.943, 20115.40
5824.872, 20022.59
5826.800, 20027.62
5828.729, 19913.53
5830.657, 19815.05
5832.585, 19737.42
5834.514, 19655.37
5836.442, 19518.26
5838.371, 19612.86
5840.299, 19531.44
5842.228, 19336.70
5844.156, 19366.86
5846.085, 19249.27
5848.013, 19219.35
5849.941, 19242.85
5851.870, 19236.69
5853.799, 19181.51
5855.727, 19082.23
5857.655, 18992.33
5859.584, 18939.13
5861.513, 18925.85
5863.441, 18927.02
5865.369, 18914.02
5867.298, 18874.76
5869.227, 18809.86
5871.155, 18761.05
5873.083, 18638.77
5875.012, 18506.97
5876.940, 18400.11
5878.869, 18285.12
5880.797, 18283.35
5882.726, 18219.08
5884.654, 18120.41
5886.583, 18077.09
5888.511, 18039.12
5890.439, 18045.98
5892.368, 18011.10
5894.296, 17926.40
5896.225, 17885.28
5898.153, 17859.82
5900.082, 17850.28
5902.010, 17814.35
5903.938, 17723.52
5905.867, 17646.78
5907.796, 17642.95
5909.724, 17585.85
5911.652, 17501.65
5913.581, 17547.78
5915.510, 17503.91
5917.438, 17445.07
5919.366, 17359.29
5921.295, 17236.45
5923.224, 17129.98
5925.152, 17121.69
5927.080, 17103.49
5929.009, 17014.13
5930.938, 16854.13
5932.866, 16847.45
5934.794, 16868.30
5936.723, 16873.62
5938.651, 16849.43
5940.580, 16778.20
5942.508, 16728.56
5944.437, 16595.56
5946.365, 16492.08
5948.293, 16522.75
5950.222, 16565.12
5952.150, 16465.73
5954.079, 16340.86
5956.007, 16251.48
5957.936, 16206.55
5959.864, 16214.27
5961.793, 16065.43
5963.721, 15968.21
5965.649, 16001.19
5967.578, 16028.79
5969.507, 16056.33
5971.435, 16005.63
5973.363, 15902.62
5975.292, 15802.22
5977.221, 15770.24
5979.149, 15709.00
5981.077, 15666.15
5983.006, 15637.75
5984.935, 15590.29
5986.863, 15466.56
5988.791, 15393.64
5990.720, 15330.00
5992.648, 15268.28
5994.577, 15238.76
5996.505, 15313.98
5998.434, 15319.46
6000.362, 15315.21
6002.291, 15242.98
6004.219, 14946.13
6006.147, 14906.11
6008.076, 14900.01
6010.004, 14847.81
6011.933, 14794.05
6013.861, 14868.34
6015.790, 14793.81
6017.718, 14707.02
6019.646, 14620.27
6021.575, 14566.62
6023.504, 14673.08
6025.432, 14528.24
6027.360, 14499.94
6029.289, 14472.11
6031.218, 14335.29
6033.146, 14323.95
6035.074, 14329.41
6037.003, 14252.98
6038.932, 14184.41
6040.860, 14173.83
6042.788, 14048.43
6044.717, 14017.35
6046.646, 13970.16
6048.574, 13960.92
6050.502, 14006.14
6052.431, 13844.90
6054.359, 13666.15
6056.288, 13641.45
6058.216, 13693.30
6060.145, 13717.35
6062.073, 13766.23
6064.001, 13603.71
6065.930, 13421.49
6067.858, 13330.05
6069.787, 13330.14
6071.715, 13304.01
6073.644, 13213.83
6075.572, 13167.32
6077.501, 13165.15
6079.429, 13173.96
6081.357, 13180.50
6083.286, 13094.62
6085.215, 12980.13
6087.143, 12924.45
6089.071, 12919.76
6091.000, 12817.66
6092.929, 12746.72
6094.857, 12738.48
6096.785, 12737.91
6098.714, 12708.42
6100.643, 12658.25
6102.571, 12558.68
6104.499, 12476.74
6106.428, 12449.04
6108.356, 12446.21
6110.285, 12401.77
6112.213, 12326.28
6114.142, 12308.48
6116.070, 12277.99
6117.999, 12250.22
6119.927, 12267.34
6121.855, 12120.82
6123.784, 12122.17
6125.712, 12107.56
6127.641, 12069.12
6129.569, 12057.42
6131.498, 11999.13
6133.426, 12011.90
6135.354, 11878.99
6137.283, 11775.72
6139.212, 11789.97
6141.140, 11703.97
6143.068, 11642.33
6144.997, 11662.25
6146.926, 11629.28
6148.854, 11531.68
6150.782, 11477.10
6152.711, 11417.30
6154.640, 11475.14
6156.568, 11390.16
6158.496, 11246.02
6160.425, 11222.28
6162.354, 11207.14
6164.282, 11141.84
6166.210, 11154.18
6168.139, 11157.23
6170.067, 11082.50
6171.996, 10988.32
6173.924, 10977.87
6175.853, 10898.46
6177.781, 10841.07
6179.709, 10836.11
6181.638, 10832.61
6183.566, 10743.29
6185.495, 10747.10
6187.423, 10745.41
6189.352, 10743.83
6191.280, 10721.65
6193.209, 10552.39
6195.137, 10530.12
6197.065, 10469.40
6198.994, 10433.09
6200.923, 10421.74
6202.851, 10376.35
6204.779, 10339.03
6206.708, 10268.06
6208.637, 10207.03
6210.565, 10163.80
6212.493, 10137.41
6214.422, 10138.02
6216.351, 10045.70
6218.279, 10078.99
6220.207, 10022.37
6222.136, 9914.381
6224.064, 9901.876
6225.993, 9957.972
6227.921, 9866.957
6229.850, 9755.360
6231.778, 9687.680
6233.707, 9712.842
6235.635, 9853.279
6237.563, 9757.515
6239.492, 9636.879
6241.420, 9569.703
6243.349, 9542.987
6245.277, 9521.564
6247.206, 9484.208
6249.134, 9522.432
6251.063, 9438.930
6252.991, 9471.041
6254.920, 9501.640
6256.848, 9371.398
6258.776, 9223.077
6260.705, 9226.647
6262.634, 9204.659
6264.562, 9166.459
6266.490, 9145.742
6268.419, 9140.786
6270.348, 9104.664
6272.276, 9095.974
6274.204, 9029.623
6276.133, 8955.455
6278.062, 8885.347
6279.990, 8811.516
6281.918, 8847.473
6283.847, 8830.025
6285.775, 8826.748
6287.704, 8799.435
6289.632, 8763.131
6291.561, 8776.033
6293.489, 8777.477
6295.417, 8734.655
6297.346, 8689.406
6299.274, 8613.794
6301.203, 8524.772
6303.131, 8477.658
6305.060, 8481.035
6306.988, 8448.805
6308.917, 8435.213
6310.845, 8389.286
6312.773, 8321.823
6314.702, 8296.502
6316.631, 8321.949
6318.559, 8244.811
6320.487, 8187.346
6322.416, 8199.792
6324.345, 8190.920
6326.273, 8086.350
6328.201, 8054.627
6330.130, 8064.915
6332.059, 8052.886
6333.987, 8010.115
6335.915, 7964.501
6337.844, 7928.838
6339.772, 7865.056
6341.701, 7832.507
6343.629, 7844.175
6345.558, 7833.685
6347.486, 7808.601
6349.415, 7784.130
6351.343, 7721.933
6353.271, 7590.381
6355.200, 7571.499
6357.128, 7513.899
6359.057, 7475.668
6360.985, 7480.555
6362.914, 7441.919
6364.842, 7525.810
6366.771, 7500.417
6368.699, 7443.308
6370.628, 7371.924
6372.556, 7356.300
6374.484, 7405.531
6376.413, 7271.293
6378.342, 7251.603
6380.270, 7235.186
6382.198, 7201.835
6384.127, 7179.725
6386.056, 7149.676
6387.984, 7058.064
6389.912, 7095.670
6391.841, 7114.563
6393.770, 7076.750
6395.698, 7026.460
6397.626, 6993.421
6399.555, 6973.322
6401.483, 6942.528
6403.412, 6917.507
6405.340, 6790.176
6407.269, 6729.250
6409.197, 6760.958
6411.125, 6788.732
6413.054, 6724.565
6414.982, 6746.701
6416.911, 6702.355
6418.839, 6711.348
6420.768, 6669.349
6422.696, 6579.233
6424.625, 6540.381
6426.553, 6593.387
6428.481, 6547.403
6430.410, 6540.405
6432.339, 6499.378
6434.267, 6471.328
6436.195, 6448.568
6438.124, 6396.146
6440.053, 6419.958
6441.981, 6327.858
6443.909, 6287.324
6445.838, 6255.850
6447.767, 6266.934
6449.695, 6287.775
6451.623, 6241.166
6453.552, 6243.244
6455.480, 6155.825
6457.409, 6231.349
6459.337, 6182.404
6461.266, 6108.703
6463.194, 6092.219
6465.123, 6043.205
6467.051, 6031.825
6468.979, 6028.869
6470.908, 6009.858
6472.836, 5928.681
6474.765, 5898.506
6476.693, 5954.933
6478.622, 5994.549
6480.550, 5865.382
6482.479, 5779.786
6484.407, 5803.917
6486.336, 5813.986
6488.264, 5729.806
6490.192, 5677.177
6492.121, 5752.365
6494.050, 5687.973
6495.978, 5683.563
6497.906, 5631.423
6499.835, 5589.489
6501.764, 5587.390
6503.692, 5589.135
6505.620, 5548.664
6507.549, 5473.536
6509.478, 5493.363
6511.406, 5479.097
6513.334, 5443.000
6515.263, 5409.181
6517.191, 5386.382
6519.120, 5364.567
6521.048, 5333.725
6522.977, 5357.291
6524.905, 5325.240
6526.833, 5283.946
6528.762, 5288.520
6530.690, 5248.545
6532.619, 5205.011
6534.547, 5241.372
6536.476, 5200.884
6538.404, 5200.420
6540.333, 5197.002
6542.261, 5190.581
6544.189, 5149.696
6546.118, 5112.182
6548.047, 5083.381
6549.975, 5014.015
6551.903, 5002.490
6553.832, 4971.362
6555.761, 4945.803
6557.689, 4906.384
6559.617, 4877.398
6561.546, 4830.902
6563.475, 4771.354
6565.403, 4768.083
6567.331, 4752.088
6569.260, 4692.669
6571.188, 4642.847
6573.117, 4620.838
6575.045, 4589.578
6576.974, 4554.534
6578.902, 4483.212
6580.831, 4496.026
6582.759, 4491.326
6584.688, 4438.476
##END=



