##NAMES=Iquiqueite
##RRUFFID=R060822
##IDEAL CHEMISTRY=K_3_Na_4_Mg(CrO_4_)B_24_O_39_(OH)·12H_2_O
##LOCALITY=Salar de Miraje, Pampa de Tamanigal, Atacama, Chile
##OWNER=RRUFF
##SOURCE=Michael Scott
##DESCRIPTION=Transparent pale yellow crystals imbedded in nitratine
##STATUS=The identification of this mineral has been confirmed only by single crystal X-ray diffraction
##URL=https://www.rruff.net/odr/rruff_sample/R060822
##DIFFRACTION SAMPLE DESCRIPTION=Single crystal, powder profile is calculated
##CELL PARAMETERS=a: 11.586 b: 11.586 c: 30.077 alpha: 90 beta: 90 gamma: 120 volume: 3496 crystal system: hexagonal
##FILETYPE=Raman RAW
##RAMAN WAVELENGTH=780

159.0178, 239.5629
160.9463, 238.2114
162.8748, 238.7886
164.8032, 240.5876
166.7317, 243.0627
168.6602, 246.5745
170.5886, 252.0571
172.5171, 259.8493
174.4456, 269.0475
176.3740, 279.9990
178.3025, 291.7987
180.2310, 305.3672
182.1594, 318.7992
184.0879, 330.5835
186.0164, 341.1974
187.9448, 345.5051
189.8733, 343.3900
191.8018, 336.1123
193.7302, 322.2921
195.6587, 304.5969
197.5872, 284.0879
199.5156, 261.1493
201.4441, 239.3940
203.3726, 218.2893
205.3010, 199.8319
207.2295, 185.0683
209.1580, 172.4069
211.0864, 161.0548
213.0149, 151.0468
214.9434, 142.5072
216.8718, 135.4599
218.8003, 129.3995
220.7288, 124.5074
222.6572, 120.1922
224.5857, 116.1915
226.5142, 112.6004
228.4426, 109.4843
230.3711, 106.8805
232.2996, 104.8571
234.2280, 103.5064
236.1565, 102.3716
238.0850, 101.1100
240.0134, 100.2380
241.9419, 100.3744
243.8704, 100.9831
245.7988, 100.9857
247.7273, 100.4313
249.6558, 99.35108
251.5842, 97.49239
253.5127, 95.53953
255.4412, 93.63380
257.3696, 91.77346
259.2981, 89.84708
261.2266, 87.98814
263.1550, 86.66121
265.0835, 85.99055
267.0120, 85.38673
268.9404, 84.57413
270.8689, 83.98394
272.7974, 83.82525
274.7258, 83.98629
276.6543, 84.23268
278.5828, 84.58008
280.5112, 85.30878
282.4397, 86.97610
284.3682, 87.95158
286.2966, 87.44100
288.2251, 86.88316
290.1536, 87.03709
292.0820, 87.65884
294.0105, 88.48448
295.9390, 89.53038
297.8674, 90.40919
299.7959, 91.04752
301.7244, 91.62040
303.6528, 92.09386
305.5813, 92.49965
307.5098, 92.95085
309.4382, 93.33974
311.3667, 93.44595
313.2952, 93.17870
315.2236, 93.07056
317.1521, 93.52506
319.0806, 93.38056
321.0090, 92.27341
322.9375, 90.59525
324.8660, 88.48158
326.7944, 86.06278
328.7229, 83.69233
330.6514, 81.36726
332.5799, 79.26834
334.5083, 77.31142
336.4368, 75.70244
338.3653, 74.66535
340.2937, 73.82780
342.2222, 72.90788
344.1507, 72.01660
346.0791, 71.45082
348.0076, 71.27113
349.9361, 70.88866
351.8645, 70.12653
353.7930, 69.75600
355.7215, 70.32593
357.6499, 70.95317
359.5784, 70.99120
361.5069, 70.82980
363.4353, 71.26405
365.3638, 72.33543
367.2923, 73.35380
369.2207, 74.32874
371.1492, 75.04794
373.0777, 75.12096
375.0061, 75.39470
376.9346, 76.39359
378.8631, 77.70763
380.7915, 78.77076
382.7200, 79.63339
384.6485, 80.74234
386.5769, 82.16604
388.5054, 83.46386
390.4339, 84.46693
392.3623, 85.40181
394.2908, 86.07537
396.2193, 87.00317
398.1477, 88.76211
400.0762, 91.02749
402.0047, 93.12246
403.9331, 95.05961
405.8616, 97.01452
407.7901, 99.16792
409.7185, 101.0045
411.6470, 102.7715
413.5755, 103.7671
415.5039, 103.7772
417.4324, 102.6384
419.3609, 99.87605
421.2893, 95.77198
423.2178, 91.32139
425.1463, 86.30993
427.0747, 82.05370
429.0032, 79.03542
430.9317, 76.30470
432.8601, 73.44700
434.7886, 70.96668
436.7171, 69.36459
438.6455, 68.38405
440.5740, 67.55673
442.5025, 66.85135
444.4309, 66.60233
446.3594, 67.11472
448.2879, 67.65633
450.2163, 68.22563
452.1448, 68.72137
454.0733, 69.08397
456.0017, 69.39954
457.9302, 69.68830
459.8587, 69.99635
461.7871, 70.42106
463.7156, 70.96732
465.6441, 71.71959
467.5725, 72.84256
469.5010, 73.64375
471.4295, 73.79206
473.3579, 74.14178
475.2864, 75.30013
477.2149, 76.52597
479.1433, 77.51313
481.0718, 78.02164
483.0003, 77.50093
484.9287, 75.95860
486.8572, 74.24950
488.7857, 72.30162
490.7141, 70.26244
492.6426, 68.03608
494.5711, 66.06129
496.4995, 64.53061
498.4280, 63.31849
500.3565, 62.48002
502.2849, 61.87841
504.2134, 61.26885
506.1419, 60.63055
508.0703, 59.95211
509.9988, 59.23408
511.9273, 58.70131
513.8557, 58.39393
515.7842, 58.25607
517.7126, 58.44263
519.6411, 58.53972
521.5696, 58.34956
523.4980, 58.13594
525.4265, 58.05056
527.3550, 58.03100
529.2834, 58.10935
531.2119, 58.31334
533.1404, 58.44080
535.0688, 58.42298
536.9973, 58.44117
538.9258, 58.63086
540.8542, 58.74932
542.7827, 58.72166
544.7112, 58.61447
546.6396, 58.41729
548.5681, 58.21156
550.4966, 58.07967
552.4250, 58.00402
554.3535, 57.97357
556.2820, 57.98647
558.2104, 58.02673
560.1389, 58.20582
562.0674, 58.12630
563.9958, 57.55548
565.9243, 57.02304
567.8528, 56.68161
569.7813, 56.36343
571.7097, 55.95288
573.6382, 55.59610
575.5667, 55.42976
577.4951, 55.40218
579.4236, 55.34314
581.3521, 55.22639
583.2806, 55.33293
585.2090, 55.92089
587.1375, 56.26217
589.0660, 56.18044
590.9944, 56.16520
592.9229, 56.22265
594.8514, 56.44713
596.7798, 57.04433
598.7083, 57.77903
600.6368, 58.43031
602.5652, 58.97062
604.4937, 59.33177
606.4222, 59.57621
608.3506, 60.30296
610.2791, 61.75437
612.2076, 62.63046
614.1360, 62.64068
616.0645, 62.93248
617.9930, 63.95918
619.9214, 64.90591
621.8499, 65.22906
623.7784, 65.51560
625.7068, 66.16993
627.6353, 67.00747
629.5638, 67.99851
631.4922, 68.91316
633.4207, 69.10130
635.3492, 68.61144
637.2776, 68.05745
639.2061, 67.44032
641.1346, 66.61490
643.0630, 65.59176
644.9915, 64.25022
646.9200, 62.24125
648.8484, 60.57309
650.7769, 59.69151
652.7054, 59.12828
654.6339, 58.75911
656.5623, 58.52151
658.4908, 58.36139
660.4193, 58.28648
662.3477, 58.31461
664.2762, 58.40191
666.2047, 58.38757
668.1331, 58.28839
670.0616, 58.31803
671.9901, 58.50670
673.9185, 58.73829
675.8470, 58.98523
677.7755, 59.30435
679.7039, 59.79324
681.6324, 60.21585
683.5609, 60.40760
685.4893, 60.63267
687.4178, 60.97673
689.3463, 61.47893
691.2747, 62.14280
693.2032, 63.13041
695.1317, 64.75732
697.0601, 66.76057
698.9886, 68.42939
700.9171, 69.74272
702.8455, 70.69180
704.7740, 71.17667
706.7025, 71.70679
708.6309, 72.00938
710.5594, 72.89307
712.4879, 74.49374
714.4163, 76.51023
716.3448, 79.07913
718.2733, 81.81323
720.2017, 84.85151
722.1302, 87.62033
724.0587, 90.66073
725.9871, 92.27831
727.9156, 90.55620
729.8441, 86.20180
731.7725, 79.72319
733.7010, 71.83080
735.6295, 65.85644
737.5579, 61.88427
739.4864, 58.85809
741.4149, 56.87700
743.3433, 55.27507
745.2718, 54.03061
747.2003, 53.37049
749.1287, 53.53013
751.0572, 53.61101
752.9857, 53.29125
754.9141, 53.06700
756.8426, 53.24436
758.7711, 53.38865
760.6995, 53.27105
762.6280, 53.04951
764.5565, 52.75471
766.4849, 52.53314
768.4134, 52.67219
770.3419, 52.90567
772.2703, 52.54430
774.1988, 51.87431
776.1273, 52.01628
778.0557, 52.79518
779.9842, 53.01552
781.9127, 52.73347
783.8411, 52.67184
785.7696, 52.87154
787.6981, 53.04718
789.6265, 53.17127
791.5550, 53.23079
793.4835, 53.12564
795.4119, 53.25128
797.3404, 53.88696
799.2689, 54.42538
801.1973, 54.73959
803.1258, 54.95701
805.0543, 55.08352
806.9827, 55.15895
808.9112, 55.15549
810.8397, 55.14351
812.7681, 55.25251
814.6966, 55.37297
816.6251, 55.31690
818.5535, 55.20818
820.4820, 55.24633
822.4105, 55.35588
824.3389, 55.40093
826.2674, 55.39196
828.1959, 55.30429
830.1243, 55.14908
832.0528, 55.26931
833.9813, 55.76120
835.9097, 55.72858
837.8382, 54.84884
839.7667, 54.40881
841.6951, 54.72966
843.6236, 54.89520
845.5521, 54.87595
847.4805, 54.74557
849.4090, 54.35773
851.3375, 54.18096
853.2659, 54.53808
855.1944, 54.68120
857.1229, 54.12342
859.0513, 53.72443
860.9798, 53.97975
862.9083, 54.35816
864.8367, 54.70165
866.7652, 54.85424
868.6937, 54.65422
870.6221, 54.30732
872.5506, 53.82771
874.4791, 53.42841
876.4075, 53.40055
878.3360, 53.58755
880.2645, 53.78739
882.1929, 53.99364
884.1214, 54.27262
886.0499, 54.50416
887.9783, 54.29082
889.9068, 53.76004
891.8353, 53.49699
893.7637, 53.42356
895.6922, 52.87610
897.6207, 51.91232
899.5491, 51.19705
901.4776, 50.74280
903.4061, 50.35291
905.3345, 50.02567
907.2630, 50.17652
909.1915, 50.85915
911.1199, 51.32853
913.0484, 51.46403
914.9769, 51.82860
916.9053, 52.53601
918.8338, 53.26798
920.7623, 54.01310
922.6907, 54.65270
924.6192, 55.13419
926.5477, 55.59306
928.4761, 55.98196
930.4046, 56.47079
932.3331, 57.41994
934.2615, 57.91367
936.1900, 57.35926
938.1185, 56.94360
940.0469, 57.21121
941.9754, 57.39232
943.9039, 57.16352
945.8323, 56.84412
947.7608, 56.60295
949.6893, 56.25270
951.6177, 55.55577
953.5462, 54.91451
955.4747, 54.58683
957.4031, 54.36555
959.3316, 54.18566
961.2601, 53.97467
963.1885, 53.81576
965.1170, 53.44598
967.0455, 52.48930
968.9739, 51.43038
970.9024, 50.65725
972.8309, 49.99239
974.7593, 49.29011
976.6878, 48.59957
978.6163, 47.92310
980.5447, 47.33018
982.4732, 46.93733
984.4017, 46.63798
986.3301, 46.31242
988.2586, 45.99618
990.1871, 45.70428
992.1155, 45.48184
994.0440, 45.45412
995.9725, 45.49415
997.9009, 45.39558
999.8294, 45.22755
1001.758, 45.04858
1003.686, 44.92236
1005.615, 44.92031
1007.543, 45.08519
1009.472, 45.63821
1011.400, 46.33751
1013.329, 46.57049
1015.257, 46.64610
1017.186, 47.12381
1019.114, 47.99835
1021.043, 49.34785
1022.971, 51.02948
1024.899, 52.83568
1026.828, 54.68681
1028.756, 56.02745
1030.685, 57.46844
1032.613, 59.77835
1034.542, 63.56477
1036.470, 69.99512
1038.399, 78.95377
1040.327, 91.62340
1042.256, 105.8009
1044.184, 118.0366
1046.113, 127.7027
1048.041, 132.4638
1049.969, 134.3693
1051.898, 135.4243
1053.826, 137.7820
1055.755, 144.0526
1057.683, 155.3178
1059.612, 174.5374
1061.540, 199.2675
1063.469, 228.9675
1065.397, 258.4292
1067.326, 286.2032
1069.254, 302.5430
1071.183, 289.1519
1073.111, 256.5756
1075.040, 212.5828
1076.968, 166.8970
1078.897, 132.0307
1080.825, 105.4477
1082.754, 84.66679
1084.682, 68.94579
1086.610, 58.20691
1088.539, 51.07071
1090.467, 46.86795
1092.396, 44.47575
1094.324, 43.25453
1096.253, 42.66302
1098.181, 42.37255
1100.110, 42.21464
1102.038, 41.96456
1103.967, 41.85748
1105.895, 42.29069
1107.824, 42.68722
1109.752, 42.60501
1111.681, 42.39763
1113.609, 42.28465
1115.537, 42.09377
1117.466, 41.66509
1119.394, 41.24683
1121.323, 40.87452
1123.251, 40.65694
1125.180, 40.82487
1127.108, 40.90254
1129.037, 40.65413
1130.965, 40.30342
1132.894, 39.79216
1134.822, 39.53073
1136.751, 39.77001
1138.679, 39.88723
1140.608, 39.77300
1142.536, 39.49151
1144.464, 38.87935
1146.393, 38.52119
1148.321, 38.64810
1150.250, 38.81176
1152.178, 38.94090
1154.107, 38.82933
1156.035, 38.38832
1157.964, 38.20338
1159.892, 38.39626
1161.821, 38.37551
1163.749, 38.06985
1165.678, 37.97592
1167.606, 38.11243
1169.535, 38.19065
1171.463, 38.21282
1173.391, 38.25385
1175.320, 38.31618
1177.248, 38.38534
1179.177, 38.44611
1181.105, 38.56916
1183.034, 38.69210
1184.962, 38.51330
1186.891, 38.22908
1188.819, 38.27001
1190.748, 38.40372
1192.676, 38.30070
1194.605, 38.07274
1196.533, 37.84172
1198.462, 37.67307
1200.390, 37.55344
1202.318, 37.48487
1204.247, 37.54314
1206.175, 37.63550
1208.104, 37.67218
1210.032, 37.63584
1211.961, 37.50431
1213.889, 37.49527
1215.818, 37.76369
1217.746, 38.01550
1219.675, 38.12663
1221.603, 37.96631
1223.532, 37.46492
1225.460, 37.36302
1227.389, 37.81488
1229.317, 38.13131
1231.245, 38.24270
1233.174, 38.13543
1235.102, 37.83104
1237.031, 37.86872
1238.959, 38.17463
1240.888, 38.13521
1242.816, 37.85337
1244.745, 37.57067
1246.673, 37.33599
1248.602, 37.40635
1250.530, 37.52256
1252.459, 37.10522
1254.387, 36.70687
1256.316, 37.06578
1258.244, 37.44830
1260.172, 37.25746
1262.101, 37.10469
1264.029, 37.41127
1265.958, 37.51384
1267.886, 37.00079
1269.815, 36.76106
1271.743, 37.07611
1273.672, 37.30739
1275.600, 37.43082
1277.529, 37.43176
1279.457, 37.22524
1281.386, 37.10998
1283.314, 37.15830
1285.243, 37.46093
1287.171, 37.91216
1289.099, 38.06698
1291.028, 38.00180
1292.956, 37.88078
1294.885, 37.93004
1296.813, 38.56944
1298.742, 39.06435
1300.670, 38.68330
1302.599, 38.33928
1304.527, 38.68445
1306.456, 39.01637
1308.384, 38.88190
1310.313, 38.68543
1312.241, 38.67383
1314.170, 38.74514
1316.098, 38.83593
1318.026, 38.75530
1319.955, 38.49238
1321.883, 38.55059
1323.812, 38.89261
1325.740, 38.98707
1327.669, 38.89445
1329.597, 38.85107
1331.526, 38.87842
1333.454, 39.04418
1335.383, 39.17937
1337.311, 39.08740
1339.240, 39.00447
1341.168, 39.06115
1343.097, 39.11113
1345.025, 38.97789
1346.953, 38.93752
1348.882, 39.21350
1350.810, 39.53651
1352.739, 39.78233
1354.667, 40.03023
1356.596, 40.28691
1358.524, 40.95890
1360.453, 42.01283
1362.381, 42.83792
1364.310, 43.45462
1366.238, 43.94514
1368.167, 44.32617
1370.095, 44.73798
1372.024, 45.29265
1373.952, 45.74495
1375.880, 46.60143
1377.809, 48.38027
1379.737, 50.76829
1381.666, 53.87433
1383.594, 56.70699
1385.523, 59.50655
1387.451, 61.39917
1389.380, 61.83929
1391.308, 60.77901
1393.237, 58.39558
1395.165, 55.35085
1397.094, 52.28422
1399.022, 49.90433
1400.951, 47.98108
1402.879, 46.37193
1404.807, 45.07349
1406.736, 44.04807
1408.664, 43.16087
1410.593, 42.27863
1412.521, 41.53531
1414.450, 41.08687
1416.378, 40.81918
1418.307, 40.63597
1420.235, 40.38795
1422.164, 40.23928
1424.092, 40.36728
1426.021, 40.51410
1427.949, 40.44746
1429.878, 40.39798
1431.806, 40.53072
1433.734, 40.44957
1435.663, 39.90480
1437.591, 39.55698
1439.520, 39.63549
1441.448, 39.68905
1443.377, 39.72264
1445.305, 39.74023
1447.234, 39.59295
1449.162, 39.53825
1451.091, 39.69236
1453.019, 39.59460
1454.948, 39.20790
1456.876, 39.12091
1458.805, 39.13611
1460.733, 38.73982
1462.661, 38.33319
1464.590, 38.07722
1466.518, 37.93475
1468.447, 37.95391
1470.375, 37.67363
1472.304, 37.10299
1474.232, 36.84674
1476.161, 36.80375
1478.089, 36.49755
1480.018, 36.09814
1481.946, 35.89771
1483.875, 35.77724
1485.803, 35.70317
1487.732, 35.59994
1489.660, 35.42138
1491.589, 35.28995
1493.517, 35.14098
1495.445, 34.83364
1497.374, 34.50433
1499.302, 34.34388
1501.231, 34.20937
1503.159, 34.05674
1505.088, 34.00310
1507.016, 34.06069
1508.945, 34.17327
1510.873, 34.33363
1512.802, 34.17027
1514.730, 33.63837
1516.659, 33.38989
1518.587, 33.32576
1520.516, 33.36084
1522.444, 33.49993
1524.372, 33.23323
1526.301, 32.95621
1528.229, 33.41821
1530.158, 33.58991
1532.086, 33.67934
1534.015, 33.69091
1535.943, 33.39146
1537.872, 33.49364
1539.800, 33.43486
1541.729, 33.36948
1543.657, 33.52819
1545.586, 33.27397
1547.514, 33.42912
1549.443, 33.42086
1551.371, 33.48739
1553.299, 33.39198
1555.228, 33.34657
1557.156, 33.46317
1559.085, 33.49007
1561.013, 33.37601
1562.942, 33.44729
1564.870, 33.18742
1566.799, 33.21813
1568.727, 33.37424
1570.656, 33.26831
1572.584, 33.32217
1574.513, 33.53821
1576.441, 33.63039
1578.370, 33.68471
1580.298, 33.69355
1582.226, 33.59238
1584.155, 33.63818
1586.083, 33.70203
1588.012, 33.70156
1589.940, 33.80981
1591.869, 33.95798
1593.797, 33.96275
1595.726, 33.83498
1597.654, 33.71373
1599.583, 33.74168
1601.511, 34.09617
1603.440, 34.50613
1605.368, 34.74464
1607.297, 34.93011
1609.225, 35.17186
1611.153, 34.98402
1613.082, 34.09064
1615.010, 33.62362
1616.939, 33.68828
1618.867, 33.62083
1620.796, 33.44755
1622.724, 33.29811
1624.653, 33.22140
1626.581, 32.84823
1628.510, 32.58200
1630.438, 32.78024
1632.367, 32.77000
1634.295, 32.41015
1636.224, 32.23016
1638.152, 32.19014
1640.080, 31.94162
1642.009, 31.83941
1643.937, 32.17580
1645.866, 32.25170
1647.794, 32.07906
1649.723, 32.10474
1651.651, 32.25781
1653.580, 32.09090
1655.508, 31.84391
1657.437, 32.14251
1659.365, 32.54950
1661.294, 32.43169
1663.222, 32.24483
1665.151, 32.37196
1667.079, 32.53205
1669.007, 32.68749
1670.936, 32.86837
1672.864, 32.90144
1674.793, 32.55552
1676.721, 31.94015
1678.650, 31.08788
1680.578, 30.56259
1682.507, 30.57725
1684.435, 30.42155
1686.364, 30.13030
1688.292, 30.08958
1690.221, 30.21078
1692.149, 30.19013
1694.078, 29.98330
1696.006, 29.78363
1697.934, 29.75219
1699.863, 29.71738
1701.791, 29.55790
1703.720, 29.50624
1705.648, 29.45468
1707.577, 29.45111
1709.505, 29.60756
1711.434, 29.38484
1713.362, 28.90076
1715.291, 28.72893
1717.219, 28.72099
1719.148, 28.65296
1721.076, 28.59341
1723.005, 28.77739
1724.933, 28.78815
1726.861, 28.72201
1728.790, 28.61562
1730.718, 28.34449
1732.647, 28.31629
1734.575, 28.47411
1736.504, 28.52919
1738.432, 28.29812
1740.361, 28.22143
1742.289, 28.45821
1744.218, 28.38699
1746.146, 28.19731
1748.075, 28.16004
1750.003, 28.04434
1751.932, 27.93800
1753.860, 27.91120
1755.788, 27.97595
1757.717, 27.83218
1759.645, 27.65976
1761.574, 27.66540
1763.502, 27.58829
1765.431, 27.52468
1767.359, 27.88540
1769.288, 28.03997
1771.216, 27.61690
1773.145, 27.14514
1775.073, 26.79872
1777.002, 26.86741
1778.930, 26.91201
1780.859, 26.81012
1782.787, 26.88138
1784.715, 27.01978
1786.644, 26.81062
1788.572, 26.51124
1790.501, 26.76811
1792.429, 27.03516
1794.358, 26.86240
1796.286, 26.58777
1798.215, 26.41268
1800.143, 26.41654
1802.072, 26.43180
1804.000, 26.24387
1805.929, 26.14923
1807.857, 26.34857
1809.786, 26.52068
1811.714, 26.41819
1813.642, 26.32699
1815.571, 26.46306
1817.499, 26.35209
1819.428, 26.18712
1821.356, 26.10644
1823.285, 25.96727
1825.213, 25.89104
1827.142, 25.75360
1829.070, 25.56692
1830.999, 25.42383
1832.927, 25.25654
1834.856, 25.22853
1836.784, 25.33779
1838.713, 25.49107
1840.641, 25.43171
1842.569, 25.31503
1844.498, 25.32580
1846.426, 25.34937
1848.355, 25.19357
1850.283, 24.89524
1852.212, 24.79973
1854.140, 24.90365
1856.069, 24.91076
1857.997, 24.72421
1859.926, 24.50427
1861.854, 24.41024
1863.783, 24.55670
1865.711, 24.77543
1867.640, 24.82996
1869.568, 24.78560
1871.496, 24.62402
1873.425, 24.38261
1875.353, 24.16091
1877.282, 24.19362
1879.210, 24.45207
1881.139, 24.50747
1883.067, 24.23704
1884.996, 23.96610
1886.924, 23.93631
1888.853, 23.72380
1890.781, 23.54954
1892.710, 23.61924
1894.638, 23.64328
1896.567, 23.51551
1898.495, 23.20299
1900.423, 23.32604
1902.352, 23.68668
1904.280, 23.45169
1906.209, 23.10386
1908.137, 23.04142
1910.066, 23.14097
1911.994, 23.21270
1913.923, 23.07226
1915.851, 22.90913
1917.780, 23.02583
1919.708, 22.95908
1921.637, 22.78767
1923.565, 22.81292
1925.494, 22.77329
1927.422, 22.67991
1929.350, 22.77444
1931.279, 22.91764
1933.207, 22.83418
1935.136, 22.73237
1937.064, 22.53222
1938.993, 22.29197
1940.921, 22.44523
1942.850, 22.71942
1944.778, 22.76986
1946.707, 22.60188
1948.635, 22.42446
1950.564, 22.13833
1952.492, 21.94658
1954.421, 21.94610
1956.349, 21.88300
1958.277, 21.86593
1960.206, 21.78012
1962.134, 21.61963
1964.063, 21.66357
1965.991, 21.74168
1967.920, 21.70499
1969.848, 21.56735
1971.777, 21.43714
1973.705, 21.53560
1975.634, 21.62143
1977.562, 21.64119
1979.491, 21.50997
1981.419, 21.29604
1983.348, 21.19857
1985.276, 21.34035
1987.204, 21.66130
1989.133, 21.46698
1991.061, 21.05115
1992.990, 20.99680
1994.918, 21.10313
1996.847, 21.03653
1998.775, 20.59918
2000.704, 20.36612
2002.632, 20.49243
2004.561, 20.66307
2006.489, 20.91232
2008.418, 20.81119
2010.346, 20.42380
2012.275, 20.57102
2014.203, 20.64684
2016.131, 20.36771
2018.060, 20.36488
2019.988, 20.38461
2021.917, 20.22985
2023.845, 20.08123
2025.774, 19.92790
2027.702, 19.86050
2029.631, 19.82344
2031.559, 19.91958
2033.488, 19.99895
2035.416, 19.74550
2037.345, 19.70027
2039.273, 19.84297
2041.202, 19.76641
2043.130, 19.61106
2045.058, 19.53242
2046.987, 19.40922
2048.915, 19.33268
2050.844, 19.25613
2052.772, 19.14097
2054.701, 19.15124
2056.629, 19.19160
2058.558, 19.28965
2060.486, 19.13787
2062.415, 18.97113
2064.343, 19.04193
2066.272, 19.09632
2068.200, 18.97705
2070.129, 18.65243
2072.057, 18.66533
2073.986, 19.03492
2075.914, 18.94238
2077.843, 18.62883
2079.771, 18.47468
2081.699, 18.37568
2083.628, 18.44470
2085.556, 18.49941
2087.485, 18.39356
2089.413, 18.42032
2091.342, 18.38993
2093.270, 18.22643
2095.199, 18.34050
2097.127, 18.58003
2099.056, 18.60237
2100.984, 18.35062
2102.913, 18.01416
2104.841, 17.92983
2106.770, 17.89612
2108.698, 17.81493
2110.626, 17.84342
2112.555, 17.88105
2114.483, 17.73849
2116.412, 17.77390
2118.340, 17.89011
2120.269, 17.81669
2122.197, 17.53872
2124.126, 17.29638
2126.054, 17.27421
2127.983, 17.34593
2129.911, 17.27694
2131.840, 17.24387
2133.768, 16.98696
2135.697, 16.84769
2137.625, 17.08192
2139.553, 17.18332
2141.482, 17.16448
2143.410, 16.78537
2145.339, 16.55844
2147.267, 16.59173
2149.196, 16.69379
2151.124, 16.87214
2153.053, 16.88578
2154.981, 16.61598
2156.910, 16.33423
2158.838, 16.48570
2160.767, 16.62267
2162.695, 16.42717
2164.624, 16.35686
2166.552, 16.38037
2168.480, 16.40197
2170.409, 16.43479
2172.337, 16.46668
2174.266, 16.02129
2176.194, 15.73084
2178.123, 16.11843
2180.051, 16.15175
2181.980, 15.77295
2183.908, 15.69820
2185.837, 15.67358
2187.765, 15.61189
2189.694, 15.66971
2191.622, 15.69394
2193.551, 15.65831
2195.479, 15.52512
2197.407, 15.41789
2199.336, 15.48489
2201.264, 15.57118
2203.193, 15.35811
2205.121, 15.21093
2207.050, 15.41614
2208.978, 15.12643
2210.907, 14.80914
2212.835, 15.11111
2214.764, 15.22949
2216.692, 15.05723
2218.621, 14.67886
2220.549, 14.54271
2222.478, 14.75259
2224.406, 14.77519
2226.334, 14.82384
2228.263, 14.90650
2230.191, 14.93597
2232.120, 15.00834
2234.048, 14.77923
2235.977, 14.54289
2237.905, 14.68949
2239.834, 14.72743
2241.762, 14.69839
2243.691, 14.74092
2245.619, 14.61124
2247.548, 14.17052
2249.476, 14.31633
2251.405, 14.62705
2253.333, 14.43756
2255.261, 14.32648
2257.190, 14.34634
2259.118, 14.63447
2261.047, 14.62261
2262.975, 14.26448
2264.904, 14.16713
2266.832, 14.03915
2268.761, 13.87979
2270.689, 13.75949
2272.618, 13.64823
2274.546, 13.52850
2276.475, 13.46231
2278.403, 13.52443
2280.332, 13.64920
2282.260, 13.66806
2284.188, 13.35099
2286.117, 13.24384
2288.045, 13.33272
2289.974, 13.45205
2291.902, 13.45647
2293.831, 13.19551
2295.759, 13.07344
2297.688, 13.11644
2299.616, 13.19216
2301.545, 13.15750
2303.473, 13.13844
2305.402, 13.29486
2307.330, 13.23171
2309.259, 13.01652
2311.187, 12.89339
2313.115, 12.84962
2315.044, 12.97188
2316.972, 12.85755
2318.901, 12.70112
2320.829, 12.75780
2322.758, 12.72984
2324.686, 12.65473
2326.615, 12.70647
2328.543, 12.71180
2330.472, 12.64128
2332.400, 12.71238
2334.329, 12.78715
2336.257, 12.51995
2338.186, 12.42343
2340.114, 12.53724
2342.042, 12.46036
2343.971, 12.33700
2345.899, 12.27037
2347.828, 12.18536
2349.756, 12.16124
2351.685, 12.21444
2353.613, 12.25554
2355.542, 12.16303
2357.470, 11.62497
2359.399, 11.49788
2361.327, 11.76649
2363.256, 11.88125
2365.184, 11.91501
2367.113, 11.82078
2369.041, 11.61465
2370.969, 11.57898
2372.898, 11.70325
2374.826, 11.73222
2376.755, 11.66347
2378.683, 11.23787
2380.612, 11.16300
2382.540, 11.42280
2384.469, 11.42475
2386.397, 11.30968
2388.326, 11.20941
2390.254, 11.35505
2392.183, 11.44857
2394.111, 11.37975
2396.040, 11.20833
2397.968, 11.07330
2399.896, 11.05845
2401.825, 10.98785
2403.753, 10.86437
2405.682, 10.68685
2407.610, 10.69140
2409.539, 10.97571
2411.467, 11.00861
2413.396, 10.92435
2415.324, 10.92676
2417.253, 10.84799
2419.181, 10.68706
2421.110, 10.37976
2423.038, 10.60532
2424.967, 10.93201
2426.895, 10.37534
2428.823, 10.17565
2430.752, 10.34251
2432.680, 10.25525
2434.609, 10.25072
2436.537, 10.39838
2438.466, 10.37991
2440.394, 10.28329
2442.323, 10.23081
2444.251, 10.23748
2446.180, 10.18487
2448.108, 10.12864
2450.037, 9.974605
2451.965, 9.766783
2453.894, 9.675406
2455.822, 9.633938
2457.750, 9.640429
2459.679, 9.912701
2461.607, 9.940600
2463.536, 9.702908
2465.464, 9.703273
2467.393, 9.771708
2469.321, 9.799865
2471.250, 9.608721
2473.178, 9.562244
2475.107, 9.782535
2477.035, 9.689496
2478.964, 9.437036
2480.892, 9.145662
2482.821, 9.099871
2484.749, 9.195678
2486.677, 9.349619
2488.606, 9.396686
2490.534, 9.349672
2492.463, 9.162984
2494.391, 8.952378
2496.320, 8.806380
2498.248, 8.887864
2500.177, 8.971878
2502.105, 9.001536
2504.034, 8.872092
2505.962, 8.802317
2507.891, 8.880550
2509.819, 8.984370
2511.748, 9.026542
2513.676, 8.980534
2515.604, 8.915174
2517.533, 8.814554
2519.461, 8.643148
2521.390, 8.746943
2523.318, 8.848570
2525.247, 8.587800
2527.175, 8.476580
2529.104, 8.480381
2531.032, 8.585256
2532.961, 8.580100
2534.889, 8.444310
2536.818, 8.120044
2538.746, 8.173875
2540.675, 8.367042
2542.603, 8.112437
2544.531, 8.018438
2546.460, 8.083463
2548.388, 8.086094
2550.317, 8.169368
2552.245, 8.306724
2554.174, 8.368870
2556.102, 8.289488
2558.031, 8.105875
2559.959, 8.159077
2561.888, 8.074741
2563.816, 7.820657
2565.745, 7.871224
2567.673, 7.967764
2569.602, 8.000295
2571.530, 7.816184
2573.458, 7.596200
2575.387, 7.504667
2577.315, 8.747768
2579.244, 9.067481
2581.172, 7.857333
2583.101, 7.564224
2585.029, 7.551021
2586.958, 7.475700
2588.886, 7.392690
2590.815, 7.504442
2592.743, 7.860252
2594.672, 7.609277
2596.600, 7.293713
2598.529, 7.217721
2600.457, 7.173535
2602.385, 7.200334
2604.314, 7.349797
2606.242, 7.261109
2608.171, 7.132294
2610.099, 7.097217
2612.028, 7.233443
2613.956, 7.280242
2615.885, 7.090722
2617.813, 6.959518
2619.742, 6.957788
2621.670, 7.228745
2623.599, 6.824674
2625.527, 6.509140
2627.456, 6.786205
2629.384, 6.869812
2631.313, 6.809056
2633.241, 6.614999
2635.169, 6.738761
2637.098, 6.834342
2639.026, 6.736744
2640.955, 6.615683
2642.883, 6.578515
2644.812, 6.668032
2646.740, 6.697533
2648.669, 6.655975
2650.597, 6.521011
2652.526, 6.321402
2654.454, 6.211336
2656.383, 6.274776
2658.311, 6.365971
2660.240, 6.361356
2662.168, 6.305723
2664.096, 6.529883
2666.025, 6.590401
2667.953, 6.444304
2669.882, 6.223766
2671.810, 6.148699
2673.739, 6.249835
2675.667, 6.232431
2677.596, 6.062126
2679.524, 5.841134
2681.453, 5.659073
2683.381, 5.730947
2685.310, 5.933838
2687.238, 6.121895
2689.167, 6.013143
2691.095, 5.806073
2693.023, 6.032491
2694.952, 6.096904
2696.880, 6.073902
2698.809, 6.110735
2700.737, 5.732413
2702.666, 5.432880
2704.594, 5.838965
2706.523, 5.706719
2708.451, 5.486414
2710.380, 5.526960
2712.308, 5.594882
2714.237, 5.610744
2716.165, 5.614034
2718.094, 5.396163
2720.022, 5.362307
2721.950, 5.699422
2723.879, 5.629291
2725.807, 5.579506
2727.736, 5.595301
2729.664, 5.257674
2731.593, 5.260686
2733.521, 5.460921
2735.450, 5.260340
2737.378, 5.245727
2739.307, 5.309804
2741.235, 5.178521
2743.164, 5.186930
2745.092, 5.194963
2747.021, 5.023462
2748.949, 5.117891
2750.877, 5.157327
2752.806, 4.954717
2754.734, 4.838692
2756.663, 4.865222
2758.591, 5.049887
2760.520, 5.049139
2762.448, 5.083715
2764.377, 5.268153
2766.305, 5.296408
2768.234, 5.072462
2770.162, 4.694116
2772.091, 4.445752
2774.019, 4.373795
2775.948, 4.451899
2777.876, 4.731240
2779.804, 4.815514
2781.733, 4.659316
2783.661, 4.294945
2785.590, 4.178367
2787.518, 4.230792
2789.447, 4.345932
2791.375, 4.407881
2793.304, 4.448856
2795.232, 4.397994
2797.161, 4.230609
2799.089, 4.160529
2801.018, 4.170026
2802.946, 4.382029
2804.875, 4.705080
2806.803, 4.824656
2808.731, 4.386058
2810.660, 4.170603
2812.588, 4.147239
2814.517, 4.225279
2816.445, 4.293450
2818.374, 4.286174
2820.302, 4.231273
2822.231, 4.116490
2824.159, 4.095769
2826.088, 4.111251
2828.016, 4.041567
2829.945, 4.370459
2831.873, 4.506641
2833.802, 4.076573
2835.730, 4.170993
2837.658, 4.248418
2839.587, 4.055636
2841.515, 4.144345
2843.444, 4.364275
2845.372, 4.452415
2847.301, 4.039773
2849.229, 4.097711
2851.158, 4.259226
2853.086, 4.051675
2855.015, 4.261754
2856.943, 4.419162
2858.872, 4.431785
2860.800, 4.283303
2862.729, 4.224491
2864.657, 4.194278
2866.585, 4.064192
2868.514, 4.212738
2870.442, 4.312603
2872.371, 4.148762
2874.299, 4.329943
2876.228, 4.373711
2878.156, 4.020230
2880.085, 4.371620
2882.013, 4.291316
2883.942, 3.779472
2885.870, 3.918442
2887.799, 3.958444
2889.727, 3.988494
2891.656, 4.056315
2893.584, 3.940011
2895.512, 3.770350
2897.441, 3.602709
2899.369, 3.915327
2901.298, 3.755455
2903.226, 3.521125
2905.155, 3.845432
2907.083, 3.827011
2909.012, 3.866243
2910.940, 3.975427
2912.869, 3.663793
2914.797, 3.653473
2916.726, 3.787934
2918.654, 3.759450
2920.583, 3.983403
2922.511, 3.974725
2924.439, 3.539855
2926.368, 3.671473
2928.296, 3.669156
2930.225, 3.504774
2932.153, 3.835397
2934.082, 3.848867
2936.010, 3.734705
2937.939, 3.905832
2939.867, 3.805376
2941.796, 3.686255
2943.724, 3.600410
2945.653, 3.705071
2947.581, 3.557004
2949.510, 3.307994
2951.438, 3.315521
2953.366, 3.439252
2955.295, 3.504122
2957.223, 3.538592
2959.152, 3.482104
2961.080, 3.325517
2963.009, 3.175740
2964.937, 3.044528
2966.866, 3.135300
2968.794, 3.172397
2970.723, 3.083480
2972.651, 2.836670
2974.580, 2.887634
2976.508, 3.109748
2978.437, 3.110273
2980.365, 2.849407
2982.293, 2.667926
2984.222, 2.718443
2986.150, 2.855462
2988.079, 2.801966
2990.007, 2.711463
2991.936, 2.692470
2993.864, 2.595436
2995.793, 2.576758
2997.721, 2.574766
2999.650, 2.500731
3001.578, 2.568088
3003.507, 2.670326
3005.435, 2.650639
3007.364, 2.611236
3009.292, 2.436900
3011.220, 2.279683
3013.149, 2.001911
3015.077, 1.996425
3017.006, 2.300944
3018.934, 2.757375
3020.863, 2.498372
3022.791, 2.309701
3024.720, 2.206509
3026.648, 2.254047
3028.577, 2.278596
3030.505, 2.145865
3032.434, 2.102290
3034.362, 2.099124
3036.291, 2.160169
3038.219, 2.227009
3040.147, 2.252366
3042.076, 2.123634
3044.004, 2.280231
3045.933, 2.517938
3047.861, 2.427210
3049.790, 2.220075
3051.718, 2.114621
3053.647, 2.102479
3055.575, 2.278872
3057.504, 2.111120
3059.432, 1.932515
3061.361, 1.966805
3063.289, 2.021442
3065.218, 2.378698
3067.146, 2.642306
3069.074, 2.491815
3071.003, 2.416419
3072.931, 2.275677
3074.860, 2.075463
3076.788, 1.835928
3078.717, 1.882437
3080.645, 1.967872
3082.574, 1.913672
3084.502, 1.930655
3086.431, 1.907707
3088.359, 1.933601
3090.288, 2.251109
3092.216, 1.955237
3094.145, 1.741422
3096.073, 1.738396
3098.001, 1.892137
3099.930, 1.961193
3101.858, 2.002784
3103.787, 1.814779
3105.715, 1.467707
3107.644, 1.618018
3109.572, 1.862909
3111.501, 1.889309
3113.429, 1.651280
3115.358, 1.573132
3117.286, 1.600762
3119.215, 1.633136
3121.143, 2.090718
3123.072, 1.970325
3125.000, 1.621397
3126.928, 1.703226
3128.857, 1.811762
3130.785, 1.850845
3132.714, 1.750411
3134.642, 1.644183
3136.571, 1.560967
3138.499, 1.352745
3140.428, 1.233385
3142.356, 1.765471
3144.285, 1.826620
3146.213, 1.692067
3148.142, 1.658224
3150.070, 1.727996
3151.999, 1.377982
3153.927, 1.331778
3155.855, 1.733635
3157.784, 1.773653
3159.712, 1.568443
3161.641, 1.435933
3163.569, 1.503058
3165.498, 1.614392
3167.426, 1.667064
3169.355, 1.613515
3171.283, 1.499357
3173.212, 1.587090
3175.140, 1.392741
3177.069, 1.143710
3178.997, 1.195080
3180.926, 1.509461
3182.854, 1.670670
3184.782, 1.627688
3186.711, 1.385899
3188.639, 1.538409
3190.568, 1.978239
3192.496, 2.050931
3194.425, 1.203976
3196.353, 1.329548
3198.282, 1.335887
3200.210, 1.128974
3202.139, 0.9114599
3204.067, 1.386259
3205.996, 1.498571
3207.924, 1.364293
3209.853, 1.441355
3211.781, 1.272898
3213.709, 1.415273
3215.638, 1.551927
3217.566, 0.9423274
3219.495, 1.192324
3221.423, 1.478185
3223.352, 1.601581
3225.280, 1.476040
3227.209, 1.196650
3229.137, 1.493472
3231.066, 1.657413
3232.994, 1.339770
3234.923, 1.662408
3236.851, 1.376710
3238.780, 1.056019
3240.708, 1.197665
3242.636, 1.335367
3244.565, 1.418274
3246.493, 1.463615
3248.422, 1.478124
3250.350, 1.515525
3252.279, 1.113285
3254.207, 1.063539
3256.136, 1.337229
3258.064, 1.083879
3259.993, 1.292370
3261.921, 1.323182
3263.850, 1.144700
3265.778, 1.133037
3267.707, 1.051220
3269.635, 0.9007087
3271.563, 0.8767782
3273.492, 1.242200
3275.420, 1.011932
3277.349, 1.087244
3279.277, 1.249752
3281.206, 1.101334
3283.134, 1.246614
3285.063, 1.443420
3286.991, 1.309050
3288.920, 0.7535870
3290.848, 1.022794
3292.777, 0.9785515
3294.705, 0.9557062
3296.634, 1.054053
3298.562, 0.8851211
3300.490, 0.8997848
3302.419, 0.8194484
3304.347, 0.7910494
3306.276, 1.031677
3308.204, 0.6973344
3310.133, 0.7855753
3312.061, 0.9931881
3313.990, 0.8440589
3315.918, 1.240307
3317.847, 1.288057
3319.775, 1.158661
3321.704, 1.087574
3323.632, 1.391814
3325.561, 1.360493
3327.489, 1.055443
3329.417, 0.7409050
3331.346, 0.8540083
3333.274, 0.6884947
3335.203, 1.030750
3337.131, 1.303784
3339.060, 1.049626
3340.988, 0.7498543
3342.917, 0.9460377
3344.845, 1.106560
3346.774, 1.019602
3348.702, 0.7911059
3350.631, 0.9620113
3352.559, 1.087433
3354.488, 1.069484
3356.416, 0.9926262
3358.344, 0.8951158
3360.273, 0.9476308
3362.201, 1.062941
3364.130, 1.142965
3366.058, 0.9350730
3367.987, 0.6666849
3369.915, 0.5562108
3371.844, 0.6201200
3373.772, 0.6977386
3375.701, 0.9994865
3377.629, 0.6924703
3379.558, 0.6974891
3381.486, 1.248568
3383.415, 1.130871
3385.343, 1.143169
3387.271, 0.9749272
3389.200, 0.8165229
3391.128, 0.8707920
3393.057, 0.8725197
3394.985, 1.146798
3396.914, 1.137132
3398.842, 0.8301763
3400.771, 0.9692639
3402.699, 0.7137030
3404.628, 0.8223388
3406.556, 0.9973539
3408.485, 0.8931270
3410.413, 0.9934638
3412.342, 1.021776
3414.270, 0.7701439
3416.198, 0.6153648
3418.127, 1.110569
3420.055, 0.8759620
3421.984, 0.9196799
3423.912, 1.084477
3425.841, 1.088384
3427.769, 0.7535447
3429.698, 0.7248166
3431.626, 0.6056651
3433.555, 0.4623441
3435.483, 0.5074403
3437.412, 1.206043
3439.340, 0.9772112
3441.269, 0.6513811
3443.197, 0.5009319
3445.125, 0.3672839
3447.054, 0.4838785
3448.982, 0.5644320
3450.911, 0.5795655
3452.839, 0.6414367
3454.768, 0.9302538
3456.696, 0.3312973
3458.625, 0.5816812
3460.553, 0.7424490
3462.482, 0.3937984
3464.410, 0.4423454
3466.339, 0.6906766
3468.267, 0.9839494
3470.196, 1.145815
3472.124, 1.054018
3474.052, 0.6293594
3475.981, 0.3550315
3477.909, 0.6973581
3479.838, 1.001304
3481.766, 0.7803716
3483.695, 0.7119873
3485.623, 0.5757998
3487.552, 0.6647889
3489.480, 0.6816306
3491.409, 0.4376349
3493.337, 0.7840897
3495.266, 0.6621362
3497.194, 0.5300150
3499.123, 0.5576422
3501.051, 0.6807221
3502.979, 0.7661074
3504.908, 0.2637299
3506.836, 0.6702530
3508.765, 0.9580282
3510.693, 3.0488370E-02
3512.622, 0.5180967
3514.550, 0.6104858
3516.479, 0.5358177
3518.407, 0.4129057
3520.336, 0.2973308
3522.264, 0.6127729
3524.193, 0.7098323
3526.121, 0.6938934
3528.050, 0.6611515
3529.978, 0.6910045
3531.906, 0.9521837
3533.835, 1.027628
3535.763, 0.8237961
3537.692, 0.7431902
3539.620, 0.9119470
3541.549, 0.8419115
3543.477, 0.6423342
3545.406, 0.4625895
3547.334, 0.4195171
3549.263, 0.5632626
3551.191, 0.8502251
3553.120, 0.7115605
3555.048, 0.1365009
3556.977, 0.2742871
3558.905, 0.9150944
3560.833, 0.9194552
3562.762, 0.5816241
3564.690, 0.6041003
3566.619, 0.6203982
3568.547, 0.4598964
3570.476, 0.2428450
3572.404, 0.4537513
3574.333, 0.4481682
3576.261, 0.5063002
3578.190, 0.5085322
3580.118, 0.3499004
3582.047, 0.1956856
3583.975, 0.4131887
3585.904, 0.6031363
3587.832, 0.7080702
3589.760, 0.7824594
3591.689, 0.8780262
3593.617, 0.7855443
3595.546, 0.4849998
3597.474, 0.5443898
3599.403, 0.8300493
3601.331, 0.9876814
3603.260, 0.9846035
3605.188, 0.6610091
3607.117, 0.9673567
3609.045, 0.8228623
3610.974, 0.3435658
3612.902, 0.9344319
3614.831, 0.8105648
3616.759, 0.7553165
3618.688, 0.9073802
3620.616, 0.9607004
3622.544, 0.8224507
3624.473, 1.158197
3626.401, 1.190126
3628.330, 0.6858396
3630.258, 0.5194039
3632.187, 0.8041634
3634.115, 0.9671645
3636.044, 0.8440934
3637.972, 0.5495632
3639.901, 0.9049167
3641.829, 0.9604229
3643.758, 0.4408283
3645.686, 0.7567587
3647.615, 0.3290514
3649.543, 0.5867903
3651.471, 0.6627583
3653.400, 0.4813080
3655.328, 0.4428823
3657.257, 0.7040669
3659.185, 0.2558016
3661.114, 0.3887033
3663.042, 0.4193835
3664.971, 0.3490985
3666.899, 0.6160256
3668.828, 0.3120458
3670.756, 8.4458828E-02
3672.685, 0.2167220
3674.613, 0.2257960
3676.542, 0.1611284
3678.470, 0.4293807
3680.398, 0.3828577
3682.327, 0.7076969
3684.255, 0.7310008
3686.184, 0.7676994
3688.112, 0.6466781
3690.041, -3.9499048E-02
3691.969, 0.2948699
3693.898, 0.3903526
3695.826, 0.2675365
3697.755, 0.3866337
3699.683, 0.6438089
3701.612, 0.5716261
3703.540, 0.2718046
3705.469, 0.2632145
3707.397, 0.1541402
3709.325, 0.1665587
3711.254, 0.2544755
3713.182, 0.1951440
3715.111, 0.5130383
3717.039, 0.2587329
3718.968, 8.5353553E-02
3720.896, -0.1769224
3722.825, -0.3461106
3724.753, -8.2818948E-02
3726.682, 0.4896782
3728.610, 0.1734864
3730.539, 0.2517821
3732.467, 0.2459864
3734.396, 0.1215881
3736.324, 9.6459799E-02
3738.252, 4.2151731E-02
3740.181, 0.3681419
3742.109, 0.6443670
3744.038, 0.2262908
3745.966, 0.1485580
3747.895, 0.6495426
3749.823, 0.7006534
3751.752, 0.5280771
3753.680, 0.3842335
3755.609, 0.1132727
3757.537, -3.2121800E-02
3759.466, 0.1330065
3761.394, 0.4834720
3763.323, 0.5361230
3765.251, 0.5693483
3767.179, 0.5185488
3769.108, 0.4400603
3771.036, 0.2843944
3772.965, 0.1864846
3774.893, 0.3037521
3776.822, -0.3741706
3778.750, -6.4717337E-02
3780.679, 3.7253749E-02
3782.607, 4.6425000E-02
3784.536, 0.1416019
3786.464, 0.1798179
3788.393, -7.4037433E-02
3790.321, 0.4539256
3792.250, 0.2885418
3794.178, 5.8246698E-02
3796.106, 0.3290563
3798.035, 0.5863751
3799.963, 0.2572715
3801.892, 0.2488051
3803.820, 0.1984609
3805.749, 4.5653399E-02
3807.677, 0.5141361
3809.606, 0.6394321
3811.534, 0.2735158
3813.463, 0.1636882
3815.391, -8.0056660E-02
3817.320, 0.1831210
3819.248, 0.1118108
3821.177, 0.5014198
3823.105, 0.4771671
3825.033, -8.7812142E-03
3826.962, -6.2427059E-02
3828.890, -3.8597379E-02
3830.819, 0.3958182
3832.747, 0.2085083
3834.676, 3.2906160E-02
3836.604, 0.2157406
3838.533, 0.4060735
3840.461, 0.2785455
3842.390, 0.3085149
3844.318, 0.3004900
3846.247, 0.6341802
3848.175, 0.3009204
3850.104, 2.0048141E-03
3852.032, 4.2283159E-02
3853.960, 7.3632173E-02
3855.889, -4.1736491E-02
3857.817, 0.1240352
3859.746, 0.1416813
3861.674, 1.0303690E-02
3863.603, -0.1464255
3865.531, 7.5320758E-02
3867.460, 0.4262084
3869.388, 0.1047054
3871.317, -0.2193139
3873.245, 0.3857329
3875.174, 8.6301230E-02
3877.102, 4.8806619E-02
3879.031, 0.2040454
3880.959, 0.1019525
3882.887, -0.1667476
3884.816, -0.1040814
3886.744, -0.1560918
3888.673, 0.5638090
3890.601, 0.2689762
3892.530, 4.0259089E-02
3894.458, 6.2013671E-02
3896.387, 9.8652221E-02
3898.315, 0.1983566
3900.244, 0.2695964
3902.172, -0.2116237
3904.101, -9.8728249E-04
3906.029, 0.3347951
3907.958, 0.2904516
3909.886, 9.0793990E-02
3911.814, 1.0413040E-02
3913.743, -7.9489067E-02
3915.671, -0.4580093
3917.600, 0.1237477
3919.528, 0.4049029
3921.457, 0.2262927
3923.385, 0.3064824
3925.314, 0.3278840
3927.242, 0.2849598
3929.171, 0.4467848
3931.099, -0.3793234
3933.028, -1.0108350E-02
3934.956, 0.4748502
3936.885, 0.3979188
3938.813, 0.4559397
3940.741, 3.0472580E-02
3942.670, -0.1104515
3944.598, 0.6263262
3946.527, 0.3212249
3948.455, 0.1984336
3950.384, 0.4542893
3952.312, 5.6792621E-02
3954.241, -3.3450730E-02
3956.169, 0.2058766
3958.098, 0.3501557
3960.026, 0.1589227
3961.955, -0.1688581
3963.883, 1.0117810E-02
3965.812, 8.7201633E-02
3967.740, 0.2851475
3969.668, 7.7788033E-02
3971.597, 7.3396638E-02
3973.525, 0.1437941
3975.454, -2.7569290E-03
3977.382, -0.1029274
3979.311, 0.1916860
3981.239, 0.4962291
3983.168, 0.1263508
3985.096, -2.2272641E-02
3987.025, 0.2891827
3988.953, 0.3842104
3990.882, 0.1797137
3992.810, 0.1555742
3994.739, 0.2923222
3996.667, 0.4289339
3998.595, 0.6572248
4000.524, 0.1480784
4002.452, 0.1169586
4004.381, 0.4499896
4006.309, 0.1092081
4008.238, 0.1003352
4010.166, 0.1235449
4012.095, 0.1244642
4014.023, 0.1707723
4015.952, 2.0863259E-02
4017.880, 0.1321900
4019.809, -0.1030605
4021.737, 0.2158767
4023.666, -8.0111558E-03
4025.594, 0.2262401
4027.522, -0.1252392
4029.451, 0.2140220
4031.379, 0.7076814
4033.308, 1.4294500E-02
4035.236, -0.1530034
4037.165, 0.2950183
4039.093, 0.5037614
4041.022, 0.2390623
4042.950, 5.2186441E-02
4044.879, 0.4103877
4046.807, 0.3570684
4048.736, 0.2379810
4050.664, 0.4556758
4052.593, 0.4756955
4054.521, -7.1875863E-02
4056.449, -0.4603493
4058.378, -0.1513379
4060.306, -2.0264629E-02
4062.235, 0.1758437
4064.163, -1.8397890E-02
4066.092, 0.1140064
4068.020, 0.2693721
4069.949, -2.7558541E-02
4071.877, -0.2523066
4073.806, 0.1604407
4075.734, 0.1308047
4077.663, 3.4061480E-02
4079.591, 0.2879995
4081.520, 4.7914891E-05
4083.448, 0.3582181
4085.376, 0.4853050
4087.305, 0.1932815
4089.233, -0.1472234
4091.162, -7.2141603E-02
4093.090, 0.1400430
4095.019, -0.3318425
4096.947, -0.4853727
4098.876, -7.2613597E-02
4100.804, -3.5777591E-02
4102.733, 0.1045566
4104.661, 8.2489170E-02
4106.590, -2.1160159E-02
4108.518, 8.4571065E-03
4110.447, 4.9024262E-02
4112.375, 0.1850949
4114.304, 0.3167181
4116.232, 7.8418948E-02
4118.161, -0.1328499
4120.089, 0.3204725
4122.018, -0.1768339
4123.946, 0.1204117
4125.875, 4.7780368E-02
4127.803, -0.1865180
4129.731, 0.1701976
4131.660, 0.1850023
4133.588, 2.8462989E-02
4135.517, 0.1520282
4137.445, 0.2773262
4139.374, 0.2167938
4141.302, 0.1798947
4143.230, 0.2210516
4145.159, 9.9235430E-02
4147.087, 0.1395487
4149.016, 0.2097710
4150.944, 3.6306690E-02
4152.873, 0.1560341
4154.801, 5.5727638E-02
4156.730, -4.6976522E-02
4158.658, -0.1904493
4160.587, -5.3015471E-02
4162.515, 0.3070126
4164.444, 8.3524562E-02
4166.372, 0.2927974
4168.301, 0.1240580
4170.229, 5.4830290E-02
4172.158, 0.3081554
4174.086, -8.8548027E-02
4176.015, 0.4010090
4177.943, 0.3950933
4179.872, 0.4148575
4181.800, -4.2131491E-02
4183.729, -0.5214192
4185.657, -0.3293037
4187.585, 0.1043164
4189.514, 0.2077858
4191.442, 0.1209588
4193.371, -0.1208050
4195.299, 0.1000969
4197.228, 5.9647240E-02
4199.156, 0.2575860
4201.084, 6.0043991E-02
4203.013, 0.3042842
4204.941, -7.8152403E-02
4206.870, -0.1034826
4208.798, 1.5988721E-02
4210.727, -8.8457368E-02
4212.655, 0.1742423
4214.584, 0.2087422
4216.512, 8.3545737E-02
4218.441, 0.2280708
4220.369, -0.4030557
4222.298, 7.6245189E-02
4224.226, 0.6719959
4226.155, 0.2352643
4228.083, -3.0679140E-02
4230.012, -0.1744006
4231.940, -8.0762647E-02
4233.869, -5.4977439E-02
4235.797, 0.4607130
4237.726, 0.2543693
4239.654, -0.1051945
4241.583, 0.2868523
4243.511, 0.3640161
4245.439, -0.1171541
4247.368, -0.3019879
4249.296, -4.3220218E-02
4251.225, 8.3171517E-02
4253.153, -0.2192260
4255.082, -2.5547450E-02
4257.010, 4.3590639E-02
4258.938, 9.3273912E-03
4260.867, -0.1239392
4262.795, -0.1470670
4264.724, 0.1867433
4266.652, 0.4771967
4268.581, 1.5730210E-02
4270.509, -1.2435380E-02
4272.438, 0.2233228
4274.366, 0.1691768
4276.295, -2.6965789E-02
4278.223, 3.1330779E-02
4280.152, 4.0927939E-02
4282.080, 8.2563438E-02
4284.009, 0.3300404
4285.937, 0.1700789
4287.866, -0.1754630
4289.794, 0.1225608
4291.723, 0.1069588
4293.651, 0.2979881
4295.580, 7.9893684E-03
4297.508, 0.1479248
4299.437, 0.2116990
4301.365, 0.1004037
4303.293, -0.4388342
4305.222, 0.3216360
4307.150, -0.2105380
4309.079, 5.3506251E-02
4311.007, 0.5075047
4312.936, 1.6540769E-02
4314.864, -0.1081790
4316.792, -0.1807121
4318.721, 5.2219499E-02
4320.649, 8.3921649E-02
4322.578, -1.5324030E-02
4324.506, -0.1579381
4326.435, -0.3417593
4328.363, -0.2315143
4330.292, 7.6641299E-02
4332.220, 0.1889860
4334.149, 0.1189163
4336.077, 0.4315820
4338.006, 0.3983693
4339.934, 0.5218523
4341.863, -0.1765027
4343.791, 7.0979968E-03
4345.720, 0.4294681
4347.648, -0.3344771
##END=



