##NAMES=Jagoite
##RRUFFID=R090028
##IDEAL CHEMISTRY=Pb_18_Fe^3+^_4_[Si_4_(Si,Fe^3+^)_6_][Pb_4_Si_16_(Si,Fe)_4_]O_82_Cl_6_
##LOCALITY=Langban, Filipstad, Varmland, Sweden
##OWNER=RRUFF
##SOURCE=William W. Pinch
##DESCRIPTION=Yellowish green translucent fine-grained micaceous aggregates of plates on matrix.
##STATUS=The identification of this mineral has been confirmed by single-crystal X-ray diffraction
##URL=https://www.rruff.net/odr/rruff_sample/R090028
##DIFFRACTION SAMPLE DESCRIPTION=Single crystal, powder profile is calculated
##CELL PARAMETERS=a: 8.544 b: 8.544 c: 33.387 alpha: 90 beta: 90 gamma: 120 volume: 2110.6 crystal system: hexagonal
##FILETYPE=Raman RAW
##RAMAN WAVELENGTH=780

83.25658, 2103.013
85.18504, 2328.574
87.11351, 2588.616
89.04198, 2890.247
90.97044, 3215.063
92.89891, 3540.883
94.82738, 3644.922
96.75584, 3666.673
98.68431, 3692.926
100.6128, 3687.901
102.5412, 3663.753
104.4697, 3604.690
106.3982, 3497.565
108.3266, 3365.767
110.2551, 3230.622
112.1836, 3089.855
114.1120, 2964.054
116.0405, 2846.138
117.9690, 2749.359
119.8974, 2678.248
121.8259, 2624.780
123.7544, 2580.046
125.6828, 2542.375
127.6113, 2512.010
129.5398, 2492.832
131.4682, 2474.113
133.3967, 2451.262
135.3252, 2428.544
137.2536, 2410.188
139.1821, 2395.722
141.1106, 2384.687
143.0390, 2378.489
144.9675, 2373.399
146.8960, 2369.050
148.8244, 2365.235
150.7529, 2362.290
152.6814, 2359.833
154.6098, 2356.103
156.5383, 2349.309
158.4668, 2344.181
160.3952, 2341.430
162.3237, 2340.329
164.2522, 2340.258
166.1806, 2341.412
168.1091, 2344.815
170.0376, 2351.628
171.9660, 2358.275
173.8945, 2364.351
175.8230, 2370.463
177.7514, 2379.376
179.6799, 2387.348
181.6084, 2388.281
183.5368, 2380.727
185.4653, 2370.841
187.3938, 2360.758
189.3223, 2345.376
191.2507, 2320.197
193.1792, 2290.729
195.1077, 2261.304
197.0361, 2231.977
198.9646, 2202.890
200.8931, 2172.458
202.8215, 2146.027
204.7500, 2126.229
206.6785, 2109.359
208.6069, 2093.261
210.5354, 2078.094
212.4639, 2064.695
214.3923, 2053.343
216.3208, 2042.749
218.2493, 2032.996
220.1777, 2023.691
222.1062, 2015.022
224.0347, 2006.310
225.9631, 1996.067
227.8916, 1984.284
229.8201, 1975.455
231.7485, 1970.425
233.6770, 1965.419
235.6055, 1960.303
237.5339, 1953.620
239.4624, 1943.495
241.3909, 1931.290
243.3193, 1920.280
245.2478, 1910.266
247.1763, 1903.713
249.1047, 1903.681
251.0332, 1902.904
252.9617, 1897.616
254.8901, 1891.430
256.8186, 1888.907
258.7471, 1888.980
260.6755, 1886.947
262.6040, 1881.548
264.5325, 1878.550
266.4609, 1882.138
268.3894, 1884.714
270.3179, 1881.415
272.2463, 1875.878
274.1748, 1874.266
276.1033, 1875.966
278.0317, 1875.214
279.9602, 1868.858
281.8887, 1864.789
283.8171, 1866.372
285.7456, 1868.706
287.6741, 1868.426
289.6025, 1866.832
291.5310, 1866.441
293.4595, 1867.533
295.3879, 1866.317
297.3164, 1859.975
299.2449, 1854.862
301.1733, 1853.411
303.1018, 1852.063
305.0303, 1847.732
306.9587, 1841.693
308.8872, 1836.594
310.8157, 1832.958
312.7441, 1828.108
314.6726, 1820.891
316.6011, 1814.389
318.5295, 1810.014
320.4580, 1806.026
322.3865, 1801.271
324.3149, 1795.976
326.2434, 1790.627
328.1719, 1785.316
330.1003, 1779.374
332.0288, 1772.688
333.9573, 1765.475
335.8857, 1757.539
337.8142, 1749.421
339.7427, 1740.923
341.6711, 1732.503
343.5996, 1726.068
345.5281, 1718.974
347.4565, 1711.786
349.3850, 1707.351
351.3135, 1699.657
353.2419, 1695.230
355.1704, 1692.799
357.0989, 1692.987
359.0273, 1693.912
360.9558, 1691.313
362.8843, 1685.028
364.8127, 1681.712
366.7412, 1682.626
368.6697, 1682.411
370.5981, 1678.233
372.5266, 1674.265
374.4551, 1673.401
376.3835, 1673.339
378.3120, 1669.950
380.2405, 1663.824
382.1689, 1660.698
384.0974, 1661.035
386.0259, 1661.619
387.9543, 1662.148
389.8828, 1662.007
391.8113, 1661.783
393.7397, 1660.331
395.6682, 1655.088
397.5967, 1648.085
399.5251, 1645.016
401.4536, 1645.834
403.3821, 1645.892
405.3105, 1643.817
407.2390, 1642.461
409.1675, 1643.019
411.0959, 1643.626
413.0244, 1644.056
414.9529, 1643.311
416.8813, 1639.259
418.8098, 1632.922
420.7383, 1628.691
422.6667, 1627.780
424.5952, 1625.500
426.5237, 1620.086
428.4521, 1615.106
430.3806, 1611.113
432.3091, 1608.287
434.2375, 1608.620
436.1660, 1609.314
438.0945, 1605.080
440.0229, 1595.796
441.9514, 1589.054
443.8799, 1586.951
445.8083, 1584.338
447.7368, 1580.775
449.6653, 1577.053
451.5938, 1574.093
453.5222, 1570.480
455.4507, 1564.314
457.3792, 1556.951
459.3076, 1552.127
461.2361, 1550.422
463.1646, 1546.997
465.0930, 1541.450
467.0215, 1535.232
468.9500, 1528.460
470.8784, 1520.938
472.8069, 1511.678
474.7354, 1502.586
476.6638, 1494.862
478.5923, 1488.221
480.5208, 1482.972
482.4492, 1479.238
484.3777, 1471.993
486.3062, 1460.019
488.2346, 1451.322
490.1631, 1448.353
492.0916, 1445.912
494.0200, 1441.460
495.9485, 1437.242
497.8770, 1434.718
499.8054, 1433.114
501.7339, 1431.394
503.6624, 1429.644
505.5908, 1427.917
507.5193, 1426.226
509.4478, 1424.585
511.3762, 1423.103
513.3047, 1421.442
515.2332, 1418.441
517.1616, 1416.552
519.0901, 1418.531
521.0186, 1420.549
522.9470, 1418.078
524.8755, 1412.814
526.8040, 1408.999
528.7324, 1406.403
530.6609, 1403.230
532.5894, 1399.319
534.5178, 1394.887
536.4463, 1388.954
538.3748, 1384.147
540.3032, 1381.544
542.2317, 1379.479
544.1602, 1377.630
546.0886, 1375.298
548.0171, 1370.974
549.9456, 1365.696
551.8740, 1361.990
553.8025, 1359.885
555.7310, 1356.873
557.6594, 1352.423
559.5879, 1347.988
561.5164, 1343.662
563.4448, 1339.516
565.3733, 1334.980
567.3018, 1331.317
569.2302, 1330.642
571.1587, 1330.047
573.0872, 1326.066
575.0156, 1320.103
576.9441, 1315.605
578.8726, 1312.571
580.8010, 1310.253
582.7295, 1309.392
584.6580, 1307.852
586.5864, 1304.896
588.5149, 1302.275
590.4434, 1300.646
592.3718, 1299.082
594.3003, 1296.751
596.2288, 1294.687
598.1572, 1293.725
600.0857, 1293.583
602.0142, 1294.005
603.9426, 1295.023
605.8711, 1296.443
607.7996, 1298.631
609.7280, 1298.651
611.6565, 1295.958
613.5850, 1293.168
615.5134, 1290.694
617.4419, 1288.190
619.3704, 1285.807
621.2988, 1282.990
623.2273, 1278.034
625.1558, 1273.872
627.0842, 1274.621
629.0127, 1277.528
630.9412, 1276.998
632.8696, 1273.456
634.7981, 1269.770
636.7266, 1265.960
638.6550, 1262.775
640.5835, 1260.522
642.5120, 1257.427
644.4404, 1252.723
646.3689, 1248.376
648.2974, 1245.343
650.2258, 1242.325
652.1543, 1238.120
654.0828, 1234.335
656.0112, 1233.189
657.9397, 1228.449
659.8682, 1227.918
661.7966, 1221.287
663.7251, 1216.578
665.6536, 1213.609
667.5820, 1211.075
669.5105, 1209.026
671.4390, 1206.545
673.3674, 1203.708
675.2959, 1200.312
677.2244, 1194.753
679.1528, 1191.282
681.0813, 1193.001
683.0098, 1194.262
684.9382, 1191.406
686.8667, 1187.773
688.7952, 1186.292
690.7236, 1185.425
692.6521, 1183.573
694.5806, 1180.770
696.5090, 1176.761
698.4375, 1171.740
700.3660, 1167.869
702.2944, 1165.449
704.2229, 1163.180
706.1514, 1161.200
708.0798, 1159.229
710.0083, 1157.954
711.9368, 1155.300
713.8652, 1149.695
715.7937, 1144.771
717.7222, 1142.172
719.6506, 1140.194
721.5791, 1138.083
723.5076, 1135.839
725.4360, 1133.511
727.3645, 1131.129
729.2930, 1128.449
731.2214, 1125.770
733.1499, 1124.301
735.0784, 1123.826
737.0068, 1121.953
738.9353, 1118.520
740.8638, 1115.349
742.7922, 1112.349
744.7207, 1109.907
746.6492, 1108.242
748.5776, 1106.207
750.5061, 1103.103
752.4346, 1100.835
754.3630, 1101.049
756.2915, 1100.513
758.2200, 1097.187
760.1484, 1093.843
762.0769, 1092.165
764.0054, 1090.911
765.9338, 1089.282
767.8623, 1087.199
769.7908, 1084.095
771.7192, 1080.534
773.6477, 1077.813
775.5762, 1075.852
777.5046, 1074.458
779.4331, 1073.584
781.3616, 1072.682
783.2900, 1071.744
785.2185, 1071.268
787.1470, 1071.483
789.0754, 1070.342
791.0039, 1066.836
792.9324, 1064.272
794.8608, 1064.264
796.7893, 1063.383
798.7178, 1059.947
800.6462, 1057.343
802.5747, 1056.887
804.5032, 1057.108
806.4316, 1057.668
808.3601, 1058.269
810.2886, 1058.790
812.2170, 1058.936
814.1455, 1058.303
816.0740, 1057.572
818.0024, 1057.690
819.9309, 1057.883
821.8594, 1056.105
823.7878, 1053.693
825.7163, 1055.298
827.6448, 1059.985
829.5732, 1061.279
831.5017, 1059.159
833.4302, 1058.252
835.3586, 1058.593
837.2871, 1060.189
839.2156, 1063.837
841.1440, 1065.625
843.0725, 1064.721
845.0010, 1064.837
846.9294, 1066.813
848.8579, 1067.944
850.7864, 1067.281
852.7148, 1067.414
854.6433, 1069.823
856.5718, 1071.182
858.5002, 1069.549
860.4287, 1068.211
862.3572, 1068.730
864.2856, 1069.663
866.2141, 1070.784
868.1426, 1071.562
870.0710, 1071.502
871.9995, 1070.852
873.9280, 1069.385
875.8564, 1068.061
877.7849, 1068.306
879.7134, 1067.229
881.6418, 1068.102
883.5703, 1066.640
885.4988, 1066.397
887.4272, 1066.639
889.3557, 1065.728
891.2842, 1063.912
893.2126, 1061.781
895.1411, 1059.412
897.0696, 1057.010
898.9980, 1054.683
900.9265, 1053.134
902.8550, 1052.429
904.7834, 1052.167
906.7119, 1052.253
908.6404, 1052.820
910.5688, 1053.966
912.4973, 1054.623
914.4258, 1054.483
916.3542, 1055.295
918.2827, 1057.430
920.2112, 1060.013
922.1396, 1063.884
924.0681, 1065.764
925.9966, 1063.439
927.9250, 1062.891
929.8535, 1066.035
931.7820, 1068.160
933.7104, 1068.349
935.6389, 1067.895
937.5674, 1067.372
939.4958, 1065.893
941.4243, 1062.180
943.3528, 1059.864
945.2813, 1060.547
947.2097, 1060.862
949.1382, 1059.581
951.0667, 1058.569
952.9951, 1059.195
954.9236, 1058.614
956.8521, 1054.295
958.7805, 1050.386
960.7090, 1050.180
962.6375, 1049.476
964.5659, 1045.791
966.4944, 1041.036
968.4229, 1035.079
970.3513, 1030.186
972.2798, 1028.722
974.2083, 1027.433
976.1367, 1024.543
978.0652, 1021.390
979.9937, 1017.969
981.9221, 1014.297
983.8506, 1010.747
985.7791, 1007.254
987.7075, 1004.346
989.6360, 1000.995
991.5645, 995.3875
993.4929, 989.3060
995.4214, 984.9249
997.3499, 980.9988
999.2783, 976.5515
1001.207, 971.2822
1003.135, 963.7948
1005.064, 957.0233
1006.992, 954.9225
1008.921, 954.2393
1010.849, 951.3243
1012.778, 947.3301
1014.706, 942.4951
1016.635, 938.3976
1018.563, 938.3545
1020.491, 939.5430
1022.420, 938.4226
1024.348, 936.1122
1026.277, 933.4254
1028.205, 931.0133
1030.134, 929.7304
1032.062, 929.3771
1033.991, 930.2266
1035.919, 930.1986
1037.848, 926.0452
1039.776, 926.1379
1041.705, 921.1634
1043.633, 922.3145
1045.562, 920.3629
1047.490, 917.5711
1049.418, 916.7116
1051.347, 916.0472
1053.275, 913.7993
1055.204, 911.4859
1057.132, 910.6742
1059.061, 909.4754
1060.989, 906.2312
1062.918, 902.6059
1064.846, 899.7032
1066.775, 896.9767
1068.703, 894.2766
1070.632, 891.8864
1072.560, 889.8464
1074.489, 887.6271
1076.417, 884.7441
1078.345, 881.9332
1080.274, 879.6754
1082.202, 878.1630
1084.131, 877.8831
1086.059, 877.8333
1087.988, 877.5468
1089.916, 875.9456
1091.845, 871.5187
1093.773, 867.2302
1095.702, 865.1112
1097.630, 863.5339
1099.559, 862.2777
1101.487, 860.4294
1103.416, 856.3422
1105.344, 853.5187
1107.272, 854.6487
1109.201, 855.0912
1111.129, 852.0764
1113.058, 849.9114
1114.986, 851.8461
1116.915, 852.0009
1118.843, 846.6039
1120.772, 842.3171
1122.700, 841.0707
1124.629, 840.1562
1126.557, 839.9081
1128.486, 839.3737
1130.414, 837.1707
1132.343, 836.7793
1134.271, 840.2043
1136.199, 841.0840
1138.128, 838.3555
1140.056, 834.3782
1141.985, 828.3154
1143.913, 824.3102
1145.842, 823.1237
1147.770, 823.6354
1149.699, 826.1327
1151.627, 827.6585
1153.556, 827.9661
1155.484, 826.2989
1157.413, 826.5580
1159.341, 825.0311
1161.270, 823.5338
1163.198, 821.7820
1165.126, 817.5036
1167.055, 814.9103
1168.983, 813.6306
1170.912, 812.8791
1172.840, 812.7675
1174.769, 812.3196
1176.697, 811.3654
1178.626, 811.5091
1180.554, 810.3129
1182.483, 810.6102
1184.411, 808.2764
1186.340, 806.1384
1188.268, 804.8996
1190.197, 806.0739
1192.125, 806.8710
1194.053, 803.8637
1195.982, 801.2001
1197.910, 802.7833
1199.839, 803.5349
1201.767, 799.7767
1203.696, 796.3389
1205.624, 795.3851
1207.553, 795.0756
1209.481, 795.0934
1211.410, 794.1775
1213.338, 791.9469
1215.267, 790.1074
1217.195, 789.1329
1219.124, 789.1080
1221.052, 789.7811
1222.980, 788.9694
1224.909, 786.6536
1226.837, 784.8317
1228.766, 783.6043
1230.694, 783.0523
1232.623, 783.0023
1234.551, 782.9926
1236.480, 782.7256
1238.408, 781.0114
1240.337, 778.2482
1242.265, 775.8270
1244.194, 774.6064
1246.122, 774.1185
1248.051, 773.3879
1249.979, 773.2319
1251.907, 772.3831
1253.836, 771.9936
1255.764, 770.8438
1257.693, 769.8303
1259.621, 768.8751
1261.550, 768.1842
1263.478, 767.9396
1265.407, 768.1395
1267.335, 767.9757
1269.264, 767.4342
1271.192, 765.8205
1273.121, 765.5944
1275.049, 764.7133
1276.978, 763.8839
1278.906, 763.4036
1280.834, 761.9392
1282.763, 761.1155
1284.691, 760.8381
1286.620, 759.4234
1288.548, 757.7586
1290.477, 758.5363
1292.405, 757.3266
1294.334, 758.5127
1296.262, 756.8927
1298.191, 757.6763
1300.119, 758.0422
1302.048, 756.0373
1303.976, 754.3250
1305.905, 753.5403
1307.833, 752.6673
1309.761, 751.5980
1311.690, 751.5820
1313.618, 753.1845
1315.547, 753.2293
1317.475, 750.8315
1319.404, 748.4480
1321.332, 747.3092
1323.261, 747.2570
1325.189, 746.8043
1327.118, 745.6285
1329.046, 744.9717
1330.975, 745.9449
1332.903, 746.7007
1334.832, 745.2731
1336.760, 743.4496
1338.688, 741.8187
1340.617, 740.6490
1342.545, 739.3458
1344.474, 737.8780
1346.402, 737.3116
1348.331, 735.4459
1350.259, 734.3992
1352.188, 734.0046
1354.116, 734.0643
1356.045, 733.3298
1357.973, 732.4037
1359.902, 731.9744
1361.830, 731.2120
1363.759, 730.3215
1365.687, 729.6686
1367.615, 728.4050
1369.544, 727.0871
1371.472, 726.4717
1373.401, 726.2179
1375.329, 726.1691
1377.258, 725.4478
1379.186, 724.3879
1381.115, 722.3181
1383.043, 718.2426
1384.972, 716.0853
1386.900, 716.4945
1388.829, 717.1934
1390.757, 717.5455
1392.686, 717.2226
1394.614, 716.0940
1396.542, 714.5045
1398.471, 713.1123
1400.399, 711.3823
1402.328, 710.0546
1404.256, 709.4005
1406.185, 708.6890
1408.113, 708.4503
1410.042, 708.1901
1411.970, 707.0002
1413.899, 706.4167
1415.827, 706.8337
1417.756, 705.6824
1419.684, 705.3862
1421.613, 703.1945
1423.541, 703.7838
1425.469, 702.9506
1427.398, 701.4127
1429.326, 701.8829
1431.255, 701.3301
1433.183, 697.9939
1435.112, 697.1680
1437.040, 696.0022
1438.969, 694.5938
1440.897, 694.5287
1442.826, 692.9911
1444.754, 692.8552
1446.683, 691.9769
1448.611, 691.0809
1450.540, 690.2736
1452.468, 689.4430
1454.396, 689.7737
1456.325, 689.9168
1458.253, 688.4515
1460.182, 686.4406
1462.110, 684.1020
1464.039, 682.3652
1465.967, 681.6583
1467.896, 680.4799
1469.824, 678.8265
1471.753, 677.2338
1473.681, 675.1086
1475.610, 675.2632
1477.538, 673.8198
1479.467, 674.9744
1481.395, 672.5496
1483.323, 671.8160
1485.252, 671.4153
1487.180, 670.1414
1489.109, 668.5782
1491.037, 667.5140
1492.966, 667.2102
1494.894, 667.1190
1496.823, 666.2886
1498.751, 664.7994
1500.680, 664.1502
1502.608, 663.0621
1504.537, 661.3779
1506.465, 661.1406
1508.394, 658.6719
1510.322, 657.5193
1512.250, 657.0644
1514.179, 655.9320
1516.107, 654.1588
1518.036, 653.1096
1519.964, 653.4863
1521.893, 653.7496
1523.821, 652.3930
1525.750, 650.1863
1527.678, 649.0153
1529.607, 647.5701
1531.535, 646.0352
1533.464, 645.3704
1535.392, 644.6423
1537.321, 644.1815
1539.249, 644.6207
1541.177, 645.0179
1543.106, 644.6609
1545.034, 643.4708
1546.963, 639.8475
1548.891, 636.9688
1550.820, 637.5164
1552.748, 636.7383
1554.677, 634.1241
1556.605, 632.4872
1558.534, 631.0624
1560.462, 629.2578
1562.391, 628.0042
1564.319, 627.3258
1566.248, 627.3033
1568.176, 628.2941
1570.104, 627.6511
1572.033, 624.7756
1573.961, 622.6599
1575.890, 621.1020
1577.818, 621.1413
1579.747, 622.5225
1581.675, 623.4812
1583.604, 622.6935
1585.532, 619.7086
1587.461, 617.5555
1589.389, 617.1763
1591.318, 616.8912
1593.246, 616.1852
1595.175, 615.0367
1597.103, 612.4953
1599.031, 611.7777
1600.960, 609.9217
1602.888, 607.1920
1604.817, 606.3715
1606.745, 604.6437
1608.674, 603.2836
1610.602, 602.3113
1612.531, 600.5876
1614.459, 599.4591
1616.388, 597.1659
1618.316, 595.7451
1620.245, 595.8311
1622.173, 595.7246
1624.102, 595.7719
1626.030, 594.8822
1627.958, 592.8356
1629.887, 590.8845
1631.815, 589.0683
1633.744, 587.6369
1635.672, 586.5541
1637.601, 585.1317
1639.529, 584.0694
1641.458, 582.0658
1643.386, 581.6533
1645.315, 580.4007
1647.243, 578.5820
1649.172, 576.1044
1651.100, 575.0535
1653.029, 575.4665
1654.957, 576.3746
1656.885, 576.7904
1658.814, 575.3142
1660.742, 573.9515
1662.671, 572.6307
1664.599, 570.6083
1666.528, 569.1324
1668.456, 567.5586
1670.385, 565.7751
1672.313, 564.9434
1674.242, 563.5595
1676.170, 563.0289
1678.099, 561.6784
1680.027, 561.4248
1681.956, 561.0233
1683.884, 560.0116
1685.813, 558.4999
1687.741, 556.7679
1689.669, 553.8156
1691.598, 551.7337
1693.526, 552.5752
1695.455, 552.8603
1697.383, 550.9385
1699.312, 547.7155
1701.240, 545.2660
1703.169, 546.9025
1705.097, 547.6310
1707.026, 543.6642
1708.954, 540.7845
1710.883, 541.1307
1712.811, 541.5661
1714.740, 541.4644
1716.668, 539.2808
1718.596, 535.8929
1720.525, 535.2872
1722.453, 534.5305
1724.382, 532.3766
1726.310, 532.0052
1728.239, 531.9615
1730.167, 529.4290
1732.096, 527.3205
1734.024, 526.5199
1735.953, 524.8591
1737.881, 523.3936
1739.810, 522.5249
1741.738, 521.8689
1743.667, 522.1765
1745.595, 521.3323
1747.523, 517.4583
1749.452, 514.9800
1751.380, 516.4584
1753.309, 516.4214
1755.237, 513.3654
1757.166, 510.2042
1759.094, 508.2963
1761.023, 508.6839
1762.951, 509.3325
1764.880, 508.1324
1766.808, 506.5339
1768.737, 505.3329
1770.665, 504.3008
1772.594, 503.5851
1774.522, 502.3268
1776.450, 501.1601
1778.379, 500.0563
1780.307, 498.5353
1782.236, 497.8561
1784.164, 496.6255
1786.093, 496.0856
1788.021, 495.2334
1789.950, 492.3404
1791.878, 489.6217
1793.807, 488.6974
1795.735, 487.9372
1797.664, 486.6267
1799.592, 485.2652
1801.521, 485.0351
1803.449, 484.9745
1805.377, 483.9303
1807.306, 481.9973
1809.234, 480.3920
1811.163, 480.3955
1813.091, 479.7345
1815.020, 477.9218
1816.948, 477.0911
1818.877, 476.4398
1820.805, 474.8530
1822.734, 473.3835
1824.662, 472.4289
1826.591, 471.5962
1828.519, 469.4123
1830.448, 468.5146
1832.376, 466.2751
1834.304, 465.9366
1836.233, 464.6656
1838.161, 463.7104
1840.090, 461.4860
1842.018, 458.9509
1843.947, 458.8071
1845.875, 456.4058
1847.804, 456.2860
1849.732, 453.5994
1851.661, 452.8523
1853.589, 452.3767
1855.518, 451.8076
1857.446, 449.4416
1859.375, 446.3598
1861.303, 445.7221
1863.231, 446.7218
1865.160, 447.5783
1867.088, 447.1827
1869.017, 446.6665
1870.945, 444.0516
1872.874, 440.5846
1874.802, 438.2919
1876.731, 437.0939
1878.659, 437.0290
1880.588, 435.1270
1882.516, 433.6852
1884.445, 433.6436
1886.373, 432.1355
1888.302, 430.6687
1890.230, 429.8144
1892.158, 429.4759
1894.087, 428.8872
1896.015, 427.2617
1897.944, 425.0550
1899.872, 423.5562
1901.801, 423.2022
1903.729, 422.8065
1905.658, 423.0843
1907.586, 421.2485
1909.515, 417.7272
1911.443, 416.4723
1913.372, 415.5372
1915.300, 412.5037
1917.229, 412.4916
1919.157, 414.5338
1921.085, 413.0641
1923.014, 410.7550
1924.942, 409.1397
1926.871, 408.1920
1928.799, 407.3410
1930.728, 406.4976
1932.656, 405.4772
1934.585, 404.3031
1936.513, 403.2354
1938.442, 401.7130
1940.370, 400.0589
1942.299, 398.6622
1944.227, 397.0789
1946.156, 396.8143
1948.084, 397.7408
1950.012, 397.2107
1951.941, 395.7335
1953.869, 394.3399
1955.798, 392.5520
1957.726, 391.3922
1959.655, 391.0191
1961.583, 389.6025
1963.512, 388.5130
1965.440, 387.8734
1967.369, 386.4726
1969.297, 385.7887
1971.226, 383.9154
1973.154, 383.8588
1975.083, 382.6608
1977.011, 381.0483
1978.939, 378.5468
1980.868, 376.5231
1982.796, 376.5424
1984.725, 375.4669
1986.653, 373.8158
1988.582, 373.9464
1990.510, 374.4043
1992.439, 373.4981
1994.367, 371.1616
1996.296, 368.9197
1998.224, 368.1454
2000.153, 367.2071
2002.081, 366.4200
2004.010, 365.9839
2005.938, 363.8484
2007.866, 361.7310
2009.795, 361.2236
2011.723, 360.6235
2013.652, 358.0308
2015.580, 355.8091
2017.509, 355.9381
2019.437, 356.1678
2021.366, 355.4093
2023.294, 353.2442
2025.223, 351.2459
2027.151, 351.8703
2029.080, 352.5602
2031.008, 350.3879
2032.937, 348.9711
2034.865, 349.2661
2036.793, 348.5132
2038.722, 347.2581
2040.650, 346.1988
2042.579, 345.4677
2044.507, 343.4246
2046.436, 342.1102
2048.364, 342.8500
2050.293, 342.5253
2052.221, 340.2631
2054.150, 338.7593
2056.078, 339.0744
2058.007, 337.6792
2059.935, 335.3271
2061.864, 333.8458
2063.792, 332.2072
2065.720, 332.4277
2067.649, 332.0392
2069.577, 330.7270
2071.506, 329.8338
2073.434, 328.3573
2075.363, 326.8761
2077.291, 326.7057
2079.220, 327.0943
2081.148, 326.4631
2083.077, 326.0170
2085.005, 325.6195
2086.934, 323.6920
2088.862, 323.1231
2090.791, 320.6956
2092.719, 320.6151
2094.647, 318.9053
2096.576, 317.1163
2098.504, 316.7945
2100.433, 315.5784
2102.361, 315.5301
2104.290, 315.7285
2106.218, 313.3807
2108.147, 311.5507
2110.075, 311.2716
2112.004, 311.6853
2113.932, 311.2717
2115.861, 309.2416
2117.789, 306.8681
2119.718, 306.5457
2121.646, 307.5161
2123.574, 306.5129
2125.503, 304.1814
2127.431, 302.1714
2129.360, 301.6156
2131.288, 301.7721
2133.217, 301.1909
2135.145, 300.4511
2137.074, 299.6213
2139.002, 299.1488
2140.931, 298.1693
2142.859, 296.0075
2144.788, 294.5789
2146.716, 294.5384
2148.645, 294.7170
2150.573, 294.5551
2152.501, 293.1432
2154.430, 291.7868
2156.358, 290.4955
2158.287, 288.7728
2160.215, 288.4112
2162.144, 289.4904
2164.072, 289.7296
2166.001, 287.1225
2167.929, 285.8450
2169.858, 285.1413
2171.786, 283.3158
2173.715, 282.6965
2175.643, 282.5175
2177.572, 281.5550
2179.500, 279.8980
2181.428, 278.9803
2183.357, 278.7404
2185.285, 278.3169
2187.214, 277.2452
2189.142, 275.4341
2191.071, 275.5173
2192.999, 274.8382
2194.928, 273.3596
2196.856, 273.0842
2198.785, 272.3696
2200.713, 270.9870
2202.642, 269.6006
2204.570, 268.6407
2206.499, 267.7607
2208.427, 267.6928
2210.355, 266.6197
2212.284, 266.6032
2214.212, 266.4668
2216.141, 265.1097
2218.069, 264.1637
2219.998, 262.9458
2221.926, 262.1050
2223.855, 261.6848
2225.783, 261.6641
2227.712, 260.5121
2229.640, 259.7769
2231.569, 259.9556
2233.497, 259.5543
2235.426, 258.3334
2237.354, 256.9554
2239.282, 256.6263
2241.211, 257.2027
2243.139, 256.2958
2245.068, 254.6722
2246.996, 255.4094
2248.925, 253.7969
2250.853, 250.7642
2252.782, 250.1839
2254.710, 249.5669
2256.639, 249.5951
2258.567, 249.3642
2260.496, 247.5395
2262.424, 245.9318
2264.353, 245.8815
2266.281, 245.9491
2268.209, 245.4329
2270.138, 245.1693
2272.066, 244.5690
2273.995, 243.2129
2275.923, 243.0381
2277.852, 242.3532
2279.780, 241.3613
2281.709, 240.9402
2283.637, 240.8126
2285.566, 239.4117
2287.494, 238.1951
2289.423, 238.1564
2291.351, 237.9554
2293.280, 237.7365
2295.208, 236.8419
2297.136, 235.4597
2299.065, 234.7696
2300.993, 233.9660
2302.922, 233.1085
2304.850, 232.4562
2306.779, 231.6098
2308.707, 230.9992
2310.636, 229.5206
2312.564, 227.7063
2314.493, 227.9854
2316.421, 227.9626
2318.350, 226.1326
2320.278, 224.7413
2322.207, 224.7866
2324.135, 224.2667
2326.063, 226.2402
2327.992, 225.0155
2329.920, 225.5125
2331.849, 223.7561
2333.777, 223.3585
2335.706, 222.5291
2337.634, 221.8853
2339.563, 219.5650
2341.491, 219.1231
2343.420, 218.2644
2345.348, 217.3638
2347.277, 217.5136
2349.205, 217.1362
2351.134, 217.4678
2353.062, 216.9149
2354.990, 216.3075
2356.919, 216.2249
2358.847, 214.8809
2360.776, 213.0974
2362.704, 212.5000
2364.633, 212.2838
2366.561, 212.1625
2368.490, 211.6340
2370.418, 210.1946
2372.347, 209.3465
2374.275, 209.3976
2376.204, 208.9069
2378.132, 209.3372
2380.061, 209.8080
2381.989, 208.9002
2383.917, 207.8361
2385.846, 207.4374
2387.774, 206.3793
2389.703, 206.6605
2391.631, 205.0496
2393.560, 204.6866
2395.488, 204.9124
2397.417, 203.6375
2399.345, 202.7946
2401.274, 202.7549
2403.202, 200.8676
2405.131, 200.7922
2407.059, 201.6093
2408.988, 200.4060
2410.916, 199.1616
2412.844, 198.2499
2414.773, 197.0086
2416.701, 196.3712
2418.630, 196.5188
2420.558, 195.7285
2422.487, 195.1848
2424.415, 194.5219
2426.344, 194.0943
2428.272, 193.9059
2430.201, 192.4240
2432.129, 191.6138
2434.058, 191.5557
2435.986, 191.1451
2437.915, 190.9348
2439.843, 190.3609
2441.771, 189.3223
2443.700, 188.6194
2445.628, 187.6810
2447.557, 187.2288
2449.485, 185.8110
2451.414, 186.4105
2453.342, 186.1422
2455.271, 185.6861
2457.199, 184.6496
2459.128, 184.4198
2461.056, 183.7408
2462.985, 183.2266
2464.913, 182.8777
2466.842, 181.7859
2468.770, 181.7227
2470.698, 180.8622
2472.627, 179.6855
2474.555, 179.5419
2476.484, 179.4492
2478.412, 178.4159
2480.341, 177.5529
2482.269, 177.1696
2484.198, 176.7140
2486.126, 176.1988
2488.055, 175.6533
2489.983, 174.4413
2491.912, 173.8864
2493.840, 173.8762
2495.769, 174.4178
2497.697, 174.2361
2499.625, 172.8798
2501.554, 172.6683
2503.482, 172.0207
2505.411, 171.1058
2507.339, 171.3363
2509.268, 170.6936
2511.196, 169.3151
2513.125, 168.3428
2515.053, 168.6458
2516.982, 168.7719
2518.910, 168.1297
2520.839, 167.3226
2522.767, 166.5734
2524.696, 166.0021
2526.624, 165.6284
2528.552, 165.4157
2530.481, 165.0137
2532.409, 164.4808
2534.338, 163.7643
2536.266, 164.0106
2538.195, 164.0041
2540.123, 162.2760
2542.052, 161.8646
2543.980, 162.2713
2545.909, 162.4334
2547.837, 161.2172
2549.766, 159.9813
2551.694, 159.1347
2553.623, 159.4912
2555.551, 160.0096
2557.479, 159.5276
2559.408, 158.8712
2561.336, 158.6691
2563.265, 157.9396
2565.193, 157.6282
2567.122, 157.5744
2569.050, 156.7454
2570.979, 155.7342
2572.907, 154.9179
2574.836, 154.7517
2576.764, 154.2722
2578.693, 153.4293
2580.621, 152.4225
2582.550, 151.7599
2584.478, 151.4574
2586.406, 151.0262
2588.335, 150.5269
2590.263, 150.2166
2592.192, 149.6110
2594.120, 149.5137
2596.049, 148.6696
2597.977, 148.3269
2599.906, 148.3081
2601.834, 148.1103
2603.763, 147.0594
2605.691, 146.1752
2607.620, 145.6598
2609.548, 145.5077
2611.477, 145.3494
2613.405, 145.0051
2615.333, 144.8397
2617.262, 144.5530
2619.190, 144.3662
2621.119, 143.6859
2623.047, 143.0173
2624.976, 142.6731
2626.904, 140.8929
2628.833, 139.6495
2630.761, 139.7309
2632.690, 139.6761
2634.618, 139.3273
2636.547, 138.9660
2638.475, 138.3853
2640.404, 137.8375
2642.332, 137.3640
2644.260, 136.7484
2646.189, 137.1108
2648.117, 137.1323
2650.046, 135.8384
2651.974, 134.7196
2653.903, 134.0184
2655.831, 134.3916
2657.760, 134.4000
2659.688, 133.5763
2661.617, 133.6181
2663.545, 132.0138
2665.474, 132.4123
2667.402, 131.8198
2669.331, 130.2591
2671.259, 128.8933
2673.188, 129.9748
2675.116, 130.2500
2677.044, 129.9183
2678.973, 129.8340
2680.901, 129.1568
2682.830, 128.4958
2684.758, 128.6687
2686.687, 128.4930
2688.615, 127.9380
2690.544, 127.5205
2692.472, 126.3824
2694.401, 126.0818
2696.329, 124.7305
2698.258, 123.8936
2700.186, 123.7341
2702.115, 124.1252
2704.043, 123.8226
2705.971, 123.4672
2707.900, 123.3218
2709.828, 122.1538
2711.757, 121.0943
2713.685, 120.7633
2715.614, 119.8785
2717.542, 118.8064
2719.471, 117.9856
2721.399, 117.9295
2723.328, 118.5731
2725.256, 119.0594
2727.185, 117.0767
2729.113, 116.2404
2731.042, 116.2499
2732.970, 117.0919
2734.898, 116.7634
2736.827, 115.8700
2738.755, 114.9809
2740.684, 114.8553
2742.612, 114.5185
2744.541, 113.3398
2746.469, 113.7305
2748.398, 114.1097
2750.326, 113.4556
2752.255, 112.8828
2754.183, 111.6632
2756.112, 110.4264
2758.040, 111.3816
2759.969, 111.3454
2761.897, 110.7385
2763.825, 110.1514
2765.754, 109.7860
2767.682, 109.2584
2769.611, 108.1324
2771.539, 108.7524
2773.468, 108.8737
2775.396, 107.2348
2777.325, 105.9300
2779.253, 105.7862
2781.182, 106.9782
2783.110, 106.3896
2785.039, 105.6647
2786.967, 105.1367
2788.896, 104.3705
2790.824, 104.0345
2792.752, 103.4585
2794.681, 103.2722
2796.609, 102.1284
2798.538, 102.7888
2800.466, 102.8129
2802.395, 102.0304
2804.323, 101.5570
2806.252, 101.7605
2808.180, 101.1694
2810.109, 100.5769
2812.037, 100.1205
2813.966, 99.69233
2815.894, 98.72541
2817.823, 97.71034
2819.751, 97.35447
2821.679, 97.55312
2823.608, 96.33214
2825.536, 96.34354
2827.465, 95.72250
2829.393, 96.50242
2831.322, 95.34814
2833.250, 95.33453
2835.179, 95.14967
2837.107, 94.36851
2839.036, 94.55179
2840.964, 93.36484
2842.893, 94.26865
2844.821, 93.33963
2846.750, 92.72233
2848.678, 92.16528
2850.606, 91.44160
2852.535, 90.82320
2854.463, 90.67089
2856.392, 90.60587
2858.320, 89.76511
2860.249, 88.82879
2862.177, 88.42988
2864.106, 88.65279
2866.034, 88.34361
2867.963, 87.95338
2869.891, 87.65553
2871.820, 86.87767
2873.748, 86.81022
2875.677, 87.02496
2877.605, 86.12239
2879.533, 86.40832
2881.462, 86.20527
2883.390, 84.88914
2885.319, 85.05006
2887.247, 84.73219
2889.176, 83.91010
2891.104, 82.81318
2893.033, 82.68885
2894.961, 83.09498
2896.890, 82.77688
2898.818, 82.75661
2900.747, 82.15223
2902.675, 81.70785
2904.604, 80.69718
2906.532, 80.59872
2908.460, 80.18198
2910.389, 79.90263
2912.317, 78.81658
2914.246, 78.06120
2916.174, 78.77657
2918.103, 77.46021
2920.031, 77.25183
2921.960, 77.93339
2923.888, 76.25004
2925.817, 76.13650
2927.745, 76.59604
2929.674, 76.85667
2931.602, 76.38496
2933.531, 75.73280
2935.459, 75.09702
2937.387, 74.73061
2939.316, 73.88493
2941.244, 74.15259
2943.173, 73.44485
2945.101, 73.53669
2947.030, 73.35323
2948.958, 72.63527
2950.887, 71.99300
2952.815, 71.71667
2954.744, 71.46981
2956.672, 70.97899
2958.601, 70.20333
2960.529, 70.45875
2962.458, 71.50044
2964.386, 71.11129
2966.314, 71.13959
2968.243, 70.62269
2970.171, 70.11382
2972.100, 69.02393
2974.028, 67.82664
2975.957, 67.23882
2977.885, 66.30750
2979.814, 65.90949
2981.742, 65.77350
2983.671, 66.15536
2985.599, 65.55624
2987.528, 65.37428
2989.456, 65.59160
2991.385, 65.01464
2993.313, 64.87782
2995.241, 64.69679
2997.170, 63.81871
2999.098, 64.38638
3001.027, 64.15742
3002.955, 63.22345
3004.884, 62.89882
3006.812, 61.68435
3008.741, 60.82592
3010.669, 61.01441
3012.598, 62.40136
3014.526, 62.59418
3016.455, 61.94696
3018.383, 60.58439
3020.312, 61.17034
3022.240, 61.07792
3024.168, 60.12092
3026.097, 60.22478
3028.025, 60.33982
3029.954, 60.13566
3031.882, 59.56356
3033.811, 58.38467
3035.739, 57.74746
3037.668, 57.34162
3039.596, 55.79193
3041.525, 56.88218
3043.453, 57.64025
3045.382, 57.30150
3047.310, 57.32866
3049.239, 56.79535
3051.167, 56.14381
3053.095, 55.94037
3055.024, 55.86440
3056.952, 54.85437
3058.881, 53.69990
3060.809, 53.72794
3062.738, 53.10182
3064.666, 52.85141
3066.595, 52.87355
3068.523, 52.64751
3070.452, 52.76701
3072.380, 52.82158
3074.309, 52.44445
3076.237, 52.55382
3078.166, 52.48583
3080.094, 52.23717
3082.022, 52.37502
3083.951, 51.73989
3085.879, 51.36175
3087.808, 50.87848
3089.736, 49.47395
3091.665, 49.14794
3093.593, 49.03686
3095.522, 48.99607
3097.450, 49.01562
3099.379, 48.45895
3101.307, 48.43456
3103.236, 48.87703
3105.164, 48.01189
3107.093, 47.87589
3109.021, 47.65813
3110.949, 46.73132
3112.878, 46.25185
3114.806, 46.12471
3116.735, 45.96012
3118.663, 45.37909
3120.592, 46.06250
3122.520, 45.60368
3124.449, 44.66233
3126.377, 44.72630
3128.306, 45.01714
3130.234, 43.96454
3132.163, 44.21041
3134.091, 43.21720
3136.020, 43.71375
3137.948, 43.66552
3139.876, 43.14141
3141.805, 43.30690
3143.733, 42.57075
3145.662, 42.26816
3147.590, 42.01260
3149.519, 41.98407
3151.447, 41.39009
3153.376, 41.05536
3155.304, 40.84506
3157.233, 41.19041
3159.161, 41.17313
3161.090, 41.02606
3163.018, 40.93095
3164.947, 40.03777
3166.875, 40.37458
3168.803, 40.65092
3170.732, 39.58841
3172.660, 39.15415
3174.589, 38.94446
3176.517, 38.53785
3178.446, 38.04173
3180.374, 37.80883
3182.303, 37.58717
3184.231, 37.27891
3186.160, 36.76484
3188.088, 36.18988
3190.017, 36.17578
3191.945, 36.07241
3193.874, 35.38688
3195.802, 35.55271
3197.730, 34.84380
3199.659, 34.33057
3201.587, 34.86823
3203.516, 33.43003
3205.444, 33.46452
3207.373, 33.82707
3209.301, 33.29298
3211.230, 32.98885
3213.158, 32.78681
3215.087, 32.65188
3217.015, 32.51038
3218.944, 32.50380
3220.872, 31.77579
3222.801, 32.41245
3224.729, 32.67853
3226.657, 32.33036
3228.586, 31.83487
3230.514, 31.77830
3232.443, 32.17979
3234.371, 30.16154
3236.300, 29.63213
3238.228, 29.98418
3240.157, 30.25783
3242.085, 29.46683
3244.014, 29.50508
3245.942, 29.50098
3247.871, 29.24594
3249.799, 29.42236
3251.728, 29.21719
3253.656, 29.10264
3255.584, 28.68984
3257.513, 27.06197
3259.441, 28.20741
3261.370, 27.62049
3263.298, 26.51602
3265.227, 27.07641
3267.155, 27.97081
3269.084, 27.85472
3271.012, 27.35047
3272.941, 26.80393
3274.869, 26.96355
3276.798, 26.71020
3278.726, 26.17936
3280.655, 25.86786
3282.583, 26.45737
3284.511, 26.75823
3286.440, 26.19808
3288.368, 25.50327
3290.297, 25.80323
3292.225, 25.20673
3294.154, 25.21339
3296.082, 25.70375
3298.011, 25.83621
3299.939, 26.06155
3301.868, 25.73309
3303.796, 25.45966
3305.725, 25.69579
3307.653, 25.55976
3309.582, 26.03707
3311.510, 26.16371
3313.438, 25.84991
3315.367, 25.76287
3317.295, 24.96890
3319.224, 24.45720
3321.152, 24.24625
3323.081, 24.09161
3325.009, 23.92942
3326.938, 23.43426
3328.866, 23.89368
3330.795, 23.34329
3332.723, 24.09518
3334.652, 22.85873
3336.580, 22.38814
3338.509, 22.44468
3340.437, 22.21124
3342.365, 21.90545
3344.294, 22.76462
3346.222, 21.54857
3348.151, 20.54940
3350.079, 20.75940
3352.008, 22.25598
3353.936, 21.24032
3355.865, 21.39960
3357.793, 22.01620
3359.722, 20.87205
3361.650, 20.98812
3363.579, 21.38401
3365.507, 20.98411
3367.436, 21.07817
3369.364, 20.55302
3371.292, 20.72793
3373.221, 21.19516
3375.149, 20.38989
3377.078, 19.76305
3379.006, 20.20428
3380.935, 20.64170
3382.863, 20.38453
3384.792, 21.33613
3386.720, 20.19510
3388.649, 19.05651
3390.577, 19.12514
3392.506, 18.33095
3394.434, 19.70420
3396.363, 18.44772
3398.291, 18.77456
3400.219, 20.43402
3402.148, 20.55877
3404.076, 19.32279
3406.005, 19.08640
3407.933, 18.88288
3409.862, 17.64573
3411.790, 18.46531
3413.719, 18.85777
3415.647, 18.34993
3417.576, 17.82638
3419.504, 18.40405
3421.433, 18.67318
3423.361, 18.23907
3425.290, 17.88746
3427.218, 18.07464
3429.146, 17.80159
3431.075, 17.50690
3433.003, 17.68143
3434.932, 17.42787
3436.860, 17.34475
3438.789, 17.43002
3440.717, 17.23306
3442.646, 17.57992
3444.574, 17.82833
3446.503, 17.59191
3448.431, 18.06949
3450.360, 18.31161
3452.288, 17.65242
3454.217, 17.90401
3456.145, 17.80436
3458.073, 17.49750
3460.002, 17.65534
3461.930, 17.29024
3463.859, 16.83186
3465.787, 16.48224
3467.716, 15.81600
3469.644, 15.64393
3471.573, 15.90874
3473.501, 16.18246
3475.430, 15.94426
3477.358, 15.71678
3479.287, 15.62747
3481.215, 15.17820
3483.144, 14.76799
3485.072, 15.52083
3487.000, 13.95323
3488.929, 13.96150
3490.857, 15.07806
3492.786, 15.53595
3494.714, 13.69045
3496.643, 14.21552
3498.571, 14.38233
3500.500, 14.24531
3502.428, 14.30982
3504.357, 14.74664
3506.285, 14.58766
3508.214, 14.49791
3510.142, 13.92804
3512.071, 13.35863
3513.999, 14.54110
3515.927, 14.87999
3517.856, 14.06968
3519.784, 13.40110
3521.713, 13.33592
3523.641, 13.46893
3525.570, 13.94503
3527.498, 14.14296
3529.427, 13.88729
3531.355, 13.48933
3533.284, 13.33127
3535.212, 13.03304
3537.141, 12.63054
3539.069, 12.58163
3540.998, 13.66277
3542.926, 12.28635
3544.854, 12.73419
3546.783, 12.44034
3548.711, 11.86992
3550.640, 11.69530
3552.568, 12.19107
3554.497, 11.96493
3556.425, 12.06352
3558.354, 12.26988
3560.282, 12.01862
3562.211, 12.15936
3564.139, 12.03238
3566.068, 11.79080
3567.996, 12.41258
3569.925, 12.60523
3571.853, 12.00112
3573.781, 11.15120
3575.710, 11.46266
3577.638, 11.64380
3579.567, 11.85346
3581.495, 11.84362
3583.424, 11.81556
3585.352, 12.74714
3587.281, 12.54628
3589.209, 12.58857
3591.138, 11.57462
3593.066, 12.28119
3594.995, 11.63829
3596.923, 11.51209
3598.852, 10.87440
3600.780, 10.49947
3602.708, 10.89058
3604.637, 11.30317
3606.565, 9.872809
3608.494, 10.71719
3610.422, 10.12891
3612.351, 10.17095
3614.279, 10.59071
3616.208, 9.901700
3618.136, 9.277027
3620.065, 9.178875
3621.993, 9.342954
3623.922, 9.387955
3625.850, 9.449430
3627.779, 10.16525
3629.707, 9.534482
3631.635, 9.229617
3633.564, 9.635103
3635.492, 10.10489
3637.421, 9.938342
3639.349, 9.889080
3641.278, 9.535581
3643.206, 9.347287
3645.135, 9.349710
3647.063, 9.241634
3648.992, 9.440523
3650.920, 9.492950
3652.849, 9.705811
3654.777, 10.26651
3656.706, 10.31722
3658.634, 9.754066
3660.563, 9.145997
3662.491, 8.934852
3664.419, 9.187711
3666.348, 9.218641
3668.276, 8.971608
3670.205, 8.718042
3672.133, 8.752660
3674.062, 8.631454
3675.990, 8.639479
3677.919, 8.600916
3679.847, 8.959860
3681.776, 8.909422
3683.704, 8.430575
3685.633, 8.150340
3687.561, 7.758454
3689.490, 8.269764
3691.418, 8.748875
3693.346, 8.469666
3695.275, 8.646350
3697.203, 8.438733
3699.132, 8.167781
3701.060, 7.902709
3702.989, 7.284160
3704.917, 7.050375
3706.846, 7.306025
3708.774, 7.792287
3710.703, 7.550976
3712.631, 7.585965
3714.560, 7.670794
3716.488, 7.732240
3718.417, 7.822186
3720.345, 7.762630
3722.273, 6.817636
3724.202, 6.983236
3726.130, 6.867883
3728.059, 7.084033
3729.987, 7.184563
3731.916, 7.502267
3733.844, 7.352944
3735.773, 7.366674
3737.701, 7.127489
3739.630, 7.009212
3741.558, 6.910532
3743.487, 6.511154
3745.415, 6.375887
3747.344, 7.102859
3749.272, 6.784305
3751.200, 6.584084
3753.129, 6.618538
3755.057, 6.326718
3756.986, 5.656424
3758.914, 6.453700
3760.843, 5.565610
3762.771, 5.862701
3764.700, 5.834463
3766.628, 5.631496
3768.557, 6.273829
3770.485, 6.111176
3772.414, 5.910601
3774.342, 5.671772
3776.271, 6.021483
3778.199, 6.482502
3780.127, 6.361929
3782.056, 5.731232
3783.984, 6.538827
3785.913, 5.856622
3787.841, 6.666010
3789.770, 6.521887
3791.698, 5.890698
3793.627, 6.078164
3795.555, 6.901345
3797.484, 6.632853
3799.412, 6.645601
3801.341, 5.860475
3803.269, 5.884523
3805.198, 6.339423
3807.126, 6.219266
3809.054, 5.658606
3810.983, 6.143153
3812.911, 4.675689
3814.840, 4.981626
3816.768, 4.448771
3818.697, 4.209515
3820.625, 4.765695
3822.554, 4.335672
3824.482, 3.732616
3826.411, 4.419835
3828.339, 4.225001
3830.268, 4.292445
3832.196, 4.464640
3834.125, 4.438910
3836.053, 4.403413
3837.981, 4.184556
3839.910, 3.957887
3841.838, 4.264873
3843.767, 4.109437
3845.695, 4.875425
3847.624, 4.443859
3849.552, 4.405062
3851.481, 5.073491
3853.409, 4.630881
3855.338, 4.614134
3857.266, 4.670999
3859.195, 4.916404
3861.123, 5.182277
3863.052, 5.094694
3864.980, 4.698783
3866.908, 4.890363
3868.837, 4.428946
3870.765, 5.064998
3872.694, 4.424755
3874.622, 4.623101
3876.551, 5.133292
3878.479, 4.384281
3880.408, 3.147036
3882.336, 4.449282
3884.265, 4.813927
3886.193, 3.483875
3888.122, 4.058761
3890.050, 4.563491
3891.979, 4.197700
3893.907, 3.919559
3895.835, 3.889537
3897.764, 3.491644
3899.692, 3.651976
3901.621, 3.157577
3903.549, 3.446970
3905.478, 3.864261
3907.406, 3.888565
3909.335, 3.535105
3911.263, 3.222934
3913.192, 3.517684
3915.120, 3.982016
3917.049, 4.077579
3918.977, 3.951082
3920.906, 3.639980
3922.834, 3.564922
3924.762, 3.763964
3926.691, 3.793279
3928.619, 3.926850
3930.548, 3.768959
3932.476, 3.887710
3934.405, 3.057935
3936.333, 3.871449
3938.262, 3.750804
3940.190, 3.506507
3942.119, 4.527933
3944.047, 3.494119
3945.976, 2.579652
3947.904, 3.489506
3949.833, 3.432403
3951.761, 3.922303
3953.689, 4.095613
3955.618, 3.423872
3957.546, 2.899442
3959.475, 3.193756
3961.403, 3.070514
3963.332, 2.821976
3965.260, 2.756832
3967.189, 2.702346
3969.117, 2.497661
3971.046, 2.470874
3972.974, 2.205011
3974.903, 2.200112
3976.831, 2.113516
3978.760, 2.533195
3980.688, 2.562408
3982.616, 2.453018
3984.545, 1.959117
3986.473, 1.801226
3988.402, 1.417903
3990.330, 1.473253
3992.259, 1.347601
3994.187, 1.066391
3996.116, 1.572727
3998.044, 2.312844
3999.973, 1.266735
4001.901, 0.7588171
4003.830, 1.368767
4005.758, 1.330751
4007.687, 1.251086
4009.615, 0.9620702
4011.543, 1.020074
4013.472, 1.466380
4015.400, 0.9543893
4017.329, 0.9873986
4019.257, 1.693102
4021.186, 1.854114
4023.114, 1.560394
4025.043, 1.172858
4026.971, 1.028332
4028.900, 0.8729599
4030.828, 1.413268
4032.757, 0.8639700
4034.685, 0.9588482
4036.614, 1.237160
4038.542, 0.2565895
4040.470, 0.9671207
4042.399, 1.066036
4044.327, 1.202843
4046.256, 1.173737
4048.184, 1.303898
4050.113, 1.436336
4052.041, 1.222312
4053.970, 1.771763
4055.898, 1.257398
4057.827, 1.420955
4059.755, 0.8303524
4061.684, 0.8519564
4063.612, 1.088590
4065.541, 0.9446129
4067.469, 1.102076
4069.397, 1.308673
4071.326, 0.9086103
4073.254, 0.6264235
4075.183, 0.6927507
4077.111, 0.7224172
4079.040, 0.3721522
4080.968, 0.5919108
4082.897, 1.280280
4084.825, 1.375024
4086.754, 0.8090183
4088.682, 0.3968450
4090.611, 0.7766169
4092.539, 1.181315
4094.468, 0.4553129
4096.396, 0.6884783
4098.324, 0.6541643
4100.253, 0.2441419
4102.181, 0.1841975
4104.110, 0.6261783
4106.038, 0.7285783
4107.967, 0.7071895
4109.895, 1.008179
4111.824, 0.9399271
4113.752, 1.009568
4115.681, 0.1479455
4117.609, 1.009354
4119.538, 0.5714611
4121.466, 0.4851148
4123.395, 1.020013
4125.323, 0.4830703
4127.251, 0.7654018
4129.180, 0.5294010
4131.108, 0.5875703
4133.037, 0.7349132
4134.965, 0.5734684
4136.894, 0.5889909
4138.822, 0.7731998
4140.750, 0.6197168
4142.679, 0.6086078
4144.607, 0.9337162
4146.536, 1.014669
4148.464, 0.6447470
4150.393, 0.4704646
4152.321, 0.4126090
4154.250, 0.6001651
4156.178, 0.6216134
4158.107, 0.8103057
4160.035, 1.006777
4161.964, 0.7428786
4163.892, 0.7097175
4165.821, 1.028112
4167.749, 0.1201077
4169.678, 0.6795628
4171.606, 0.2695100
4173.535, 0.1173143
4175.463, -1.4993810E-02
4177.392, 0.2459682
4179.320, 0.2820746
4181.249, 0.3495871
4183.177, 0.5225173
4185.105, 0.3597062
4187.034, 0.3641948
4188.962, 0.6041987
4190.891, 0.1006208
4192.819, 0.2668781
4194.748, 0.3537031
4196.676, 0.2681293
4198.604, 0.4093714
4200.533, 0.6284023
4202.461, 0.3765060
4204.390, 0.2072920
4206.318, 0.2642206
4208.247, -5.1131401E-02
4210.175, 0.3250340
4212.104, 0.2520460
4214.032, 0.5391117
4215.961, 0.7621954
4217.889, 0.3871575
4219.818, 0.1369081
4221.746, -0.4539719
4223.675, 0.3315199
4225.603, 0.4758054
4227.532, -0.4339462
4229.460, 0.5590166
4231.389, 0.5867623
4233.317, 0.4534084
4235.246, 0.5796786
4237.174, 0.6548420
4239.103, 0.5915388
4241.031, 0.5747859
4242.959, 0.4507310
4244.888, 0.2970946
4246.816, 0.2139475
4248.745, 0.1490043
4250.673, -5.5036739E-02
4252.602, 8.8453248E-02
4254.530, 8.1330642E-02
4256.458, 8.4529072E-02
4258.387, 0.5092160
4260.315, 0.8924357
4262.244, 0.6970940
4264.172, 0.3383706
4266.101, 0.2003956
4268.029, 0.1339421
4269.958, 7.1708955E-02
4271.886, 0.5500146
4273.815, 0.2534458
4275.743, 0.3263049
4277.672, 0.6054710
4279.600, 6.3802794E-02
4281.529, -0.1178805
4283.457, 0.2811475
4285.386, 0.4484481
4287.314, 0.6270348
4289.243, 0.5799562
4291.171, 0.3407147
4293.100, -0.4742016
4295.028, 4.3933809E-02
4296.957, -0.1640518
4298.885, 0.2469399
4300.813, 0.1100163
4302.742, 4.2566229E-02
4304.670, 0.6842222
4306.599, 0.1577559
4308.527, 0.6273926
4310.456, 0.5413250
4312.384, -0.1424030
4314.313, 0.1162509
4316.241, 5.3256191E-02
4318.169, 0.2201030
4320.098, 0.6698585
4322.026, 0.8173802
4323.955, 0.6175921
4325.883, 0.4888298
4327.812, 0.3828763
4329.740, 9.1105834E-02
4331.669, 0.1470676
4333.597, 0.3760138
4335.526, 9.2989869E-02
4337.454, 0.2213040
4339.383, 0.5794211
4341.311, 0.7237713
4343.240, 9.6540540E-02
4345.168, 0.7248839
4347.097, 0.4027012
4349.025, 0.1924211
4350.954, 0.3298188
4352.882, 0.2076002
4354.811, 0.5225279
4356.739, 0.3028776
4358.667, 0.2812257
4360.596, 0.2913666
4362.524, 0.1211672
4364.453, 0.5782444
4366.381, 0.2876404
4368.310, 0.5642595
4370.238, 0.8032025
4372.167, 0.4611804
4374.095, 0.3349354
4376.023, -0.1199389
4377.952, 0.5195404
4379.880, 0.7913088
4381.809, 0.2687400
##END=



