##NAMES=Jasmundite
##RRUFFID=R060805
##IDEAL CHEMISTRY=Ca_11_O_2_(SiO_4_)_4_S
##LOCALITY=Bellerberg, Eifel Mts., Germany
##OWNER=RRUFF
##SOURCE=Michael Scott
##DESCRIPTION=Brownish-green irregular grains
##STATUS=The identification of this mineral is confirmed by single-crystal X-ray diffraction and chemical analysis
##URL=https://www.rruff.net/odr/rruff_sample/R060805
##MEASURED CHEMISTRY=(Ca_10.64_Mg_0.18_Fe_0.09_Al_0.06_[box]_0.03_)O_2_((Si_0.99_Ti_0.01_)O_4_)_4_(S_0.78_P_0.12_O_0.10_) ; = gray host
##DIFFRACTION SAMPLE DESCRIPTION=Single crystal, powder profile is calculated
##CELL PARAMETERS=a: 10.46 b: 10.46 c: 8.798 alpha: 90 beta: 90 gamma: 90 volume: 962.7 crystal system: tetragonal
##FILETYPE=Raman RAW
##RAMAN WAVELENGTH=785

188.991, 2917.021
190.919, 2890.789
192.848, 2868.310
194.776, 2855.859
196.705, 2852.239
198.633, 2861.030
200.562, 2875.433
202.490, 2891.862
204.419, 2907.844
206.347, 2904.079
208.276, 2869.619
210.204, 2849.676
212.133, 2869.304
214.061, 2892.879
215.990, 2904.750
217.918, 2906.034
219.846, 2895.268
221.775, 2873.118
223.703, 2860.956
225.632, 2865.047
227.560, 2873.953
229.489, 2890.069
231.417, 2903.975
233.346, 2902.519
235.274, 2892.037
237.203, 2894.088
239.131, 2909.372
241.060, 2931.827
242.988, 2970.859
244.917, 3002.681
246.845, 3016.609
248.773, 3022.133
250.702, 3030.868
252.630, 3040.826
254.559, 3040.746
256.487, 3025.010
258.416, 3022.616
260.344, 3055.038
262.273, 3083.853
264.201, 3091.183
266.130, 3088.406
268.058, 3091.250
269.987, 3098.051
271.915, 3099.516
273.844, 3090.150
275.772, 3092.916
277.701, 3121.131
279.629, 3152.020
281.557, 3171.648
283.486, 3190.622
285.414, 3229.503
287.343, 3282.547
289.271, 3323.131
291.200, 3347.886
293.128, 3363.676
295.057, 3373.731
296.985, 3373.612
298.914, 3351.357
300.842, 3323.951
302.771, 3319.712
304.699, 3330.819
306.628, 3324.328
308.556, 3291.898
310.484, 3264.961
312.413, 3250.355
314.341, 3240.620
316.270, 3234.726
318.198, 3231.459
320.127, 3225.318
322.055, 3221.041
323.984, 3236.987
325.912, 3279.178
327.841, 3310.607
329.769, 3312.408
331.698, 3320.032
333.626, 3337.369
335.555, 3367.760
337.483, 3417.450
339.411, 3481.737
341.340, 3551.083
343.268, 3625.509
345.197, 3705.602
347.125, 3794.920
349.054, 3885.010
350.982, 3977.778
352.911, 4067.885
354.839, 4157.477
356.768, 4239.294
358.696, 4300.977
360.625, 4345.649
362.553, 4391.296
364.482, 4440.572
366.410, 4485.157
368.338, 4529.858
370.267, 4561.919
372.195, 4574.623
374.124, 4575.616
376.052, 4568.061
377.981, 4555.074
379.909, 4538.155
381.838, 4516.566
383.766, 4514.577
385.695, 4542.600
387.623, 4577.140
389.552, 4618.943
391.480, 4662.691
393.409, 4709.144
395.337, 4754.118
397.265, 4793.713
399.194, 4828.201
401.122, 4858.052
403.051, 4883.381
404.979, 4901.930
406.908, 4907.662
408.836, 4914.416
410.765, 4923.484
412.693, 4934.255
414.622, 4943.710
416.550, 4957.136
418.478, 4978.542
420.407, 5008.687
422.336, 5051.771
424.264, 5112.544
426.192, 5168.364
428.121, 5235.783
430.049, 5271.030
431.978, 5259.929
433.906, 5223.488
435.835, 5163.216
437.763, 5090.306
439.692, 5014.275
441.620, 4936.586
443.549, 4863.382
445.477, 4797.313
447.405, 4724.452
449.334, 4622.826
451.263, 4549.414
453.191, 4529.560
455.119, 4513.728
457.048, 4476.086
458.976, 4435.600
460.905, 4406.470
462.833, 4387.413
464.762, 4379.550
466.690, 4385.156
468.619, 4376.293
470.547, 4345.599
472.476, 4312.840
474.404, 4279.137
476.333, 4242.776
478.261, 4198.542
480.190, 4156.945
482.118, 4128.633
484.046, 4104.331
485.975, 4070.502
487.903, 4029.208
489.832, 3998.289
491.760, 3985.729
493.689, 3951.318
495.617, 3874.361
497.546, 3818.935
499.474, 3809.416
501.403, 3797.992
503.331, 3758.261
505.260, 3716.626
507.188, 3694.354
509.116, 3682.082
511.045, 3663.429
512.973, 3639.559
514.902, 3624.145
516.830, 3616.872
518.759, 3618.784
520.687, 3627.878
522.616, 3649.836
524.544, 3689.682
526.473, 3735.854
528.401, 3782.807
530.330, 3835.483
532.258, 3906.213
534.187, 3978.656
536.115, 4035.077
538.044, 4072.584
539.972, 4069.908
541.901, 4018.551
543.829, 3968.775
545.757, 3911.271
547.686, 3882.695
549.614, 3894.888
551.543, 3921.625
553.471, 3961.125
555.400, 4001.756
557.328, 4041.628
559.257, 4074.678
561.185, 4092.520
563.114, 4099.588
565.042, 4103.509
566.971, 4104.689
568.899, 4121.131
570.828, 4159.736
572.756, 4177.750
574.684, 4168.695
576.613, 4154.618
578.541, 4139.492
580.470, 4121.661
582.398, 4097.261
584.327, 4074.171
586.255, 4063.111
588.184, 4050.430
590.112, 4016.798
592.041, 3970.968
593.969, 3936.083
595.898, 3911.137
597.826, 3877.687
599.755, 3833.277
601.683, 3803.304
603.611, 3795.431
605.540, 3774.270
607.468, 3728.047
609.397, 3680.040
611.325, 3637.584
613.254, 3598.232
615.182, 3562.953
617.111, 3527.831
619.039, 3486.337
620.968, 3444.492
622.896, 3410.966
624.825, 3385.611
626.753, 3372.488
628.682, 3371.502
630.610, 3352.097
632.538, 3311.169
634.467, 3285.783
636.395, 3286.339
638.324, 3273.964
640.252, 3232.079
642.181, 3192.344
644.109, 3167.605
646.038, 3147.120
647.966, 3130.382
649.895, 3111.377
651.823, 3084.292
653.752, 3052.870
655.680, 3017.591
657.609, 2983.530
659.537, 2967.521
661.465, 2967.505
663.394, 2966.399
665.322, 2963.981
667.251, 2943.762
669.179, 2900.932
671.108, 2867.917
673.036, 2851.596
674.965, 2841.911
676.893, 2842.127
678.822, 2838.136
680.750, 2821.195
682.679, 2804.312
684.607, 2789.518
686.536, 2782.019
688.464, 2789.809
690.392, 2804.493
692.321, 2820.229
694.249, 2832.013
696.178, 2825.830
698.106, 2805.167
700.035, 2782.535
701.963, 2759.340
703.892, 2751.876
705.820, 2761.937
707.749, 2762.601
709.677, 2748.432
711.606, 2734.891
713.534, 2720.798
715.463, 2717.293
717.391, 2740.974
719.319, 2754.760
721.248, 2733.865
723.176, 2719.881
725.105, 2744.416
727.033, 2770.943
728.962, 2772.629
730.890, 2761.110
732.819, 2744.281
734.747, 2726.392
736.676, 2713.362
738.604, 2705.296
740.532, 2706.778
742.461, 2712.798
744.390, 2699.632
746.318, 2669.453
748.246, 2654.134
750.175, 2656.568
752.103, 2653.966
754.032, 2644.559
755.960, 2626.956
757.889, 2593.610
759.817, 2570.843
761.746, 2567.148
763.674, 2568.306
765.603, 2580.998
767.531, 2583.810
769.459, 2554.887
771.388, 2534.004
773.317, 2552.783
775.245, 2572.999
777.173, 2566.382
779.102, 2550.021
781.030, 2530.665
782.959, 2519.400
784.887, 2541.730
786.816, 2574.256
788.744, 2568.424
790.673, 2547.334
792.601, 2571.046
794.530, 2624.896
796.458, 2650.165
798.386, 2649.626
800.315, 2662.512
802.244, 2690.657
804.172, 2699.461
806.100, 2681.856
808.029, 2681.847
809.957, 2712.424
811.886, 2726.334
813.814, 2710.610
815.743, 2697.608
817.671, 2686.616
819.600, 2683.617
821.528, 2688.375
823.457, 2703.508
825.385, 2732.448
827.314, 2768.191
829.242, 2802.501
831.170, 2852.207
833.099, 2920.088
835.028, 3011.396
836.956, 3117.362
838.884, 3261.980
840.813, 3442.280
842.741, 3689.840
844.670, 4016.815
846.598, 4438.157
848.527, 4977.838
850.455, 5612.864
852.384, 6392.104
854.312, 7190.102
856.241, 7921.890
858.169, 8471.957
860.097, 8608.334
862.026, 8379.500
863.955, 7842.963
865.883, 7066.948
867.811, 6270.619
869.740, 5476.794
871.668, 4843.782
873.597, 4368.343
875.525, 4002.845
877.454, 3748.785
879.382, 3560.352
881.311, 3440.523
883.239, 3358.021
885.168, 3317.185
887.096, 3288.910
889.024, 3274.204
890.953, 3268.636
892.881, 3278.849
894.810, 3274.706
896.738, 3248.579
898.667, 3233.659
900.595, 3236.872
902.524, 3234.491
904.452, 3219.558
906.381, 3215.982
908.309, 3229.291
910.238, 3246.128
912.166, 3263.597
914.095, 3286.448
916.023, 3319.995
917.951, 3343.829
919.880, 3347.298
921.808, 3357.091
923.737, 3383.304
925.665, 3409.273
927.594, 3432.149
929.522, 3449.030
931.451, 3458.953
933.379, 3463.619
935.308, 3463.959
937.236, 3458.875
939.165, 3445.739
941.093, 3431.997
943.022, 3416.223
944.950, 3409.491
946.878, 3417.482
948.807, 3433.276
950.735, 3456.402
952.664, 3481.405
954.592, 3511.596
956.521, 3532.205
958.449, 3528.502
960.378, 3525.773
962.306, 3532.955
964.235, 3548.977
966.163, 3582.053
968.092, 3611.775
970.020, 3629.420
971.949, 3640.348
973.877, 3636.790
975.805, 3642.028
977.734, 3675.446
979.662, 3709.557
981.591, 3730.260
983.519, 3748.021
985.448, 3764.406
987.376, 3784.425
989.305, 3807.014
991.233, 3839.151
993.162, 3898.432
995.090, 3948.409
997.019, 3960.637
998.947, 3972.747
1000.876, 4004.282
1002.804, 4039.255
1004.733, 4071.726
1006.661, 4102.425
1008.589, 4134.387
1010.518, 4160.562
1012.446, 4170.843
1014.375, 4185.335
1016.303, 4218.594
1018.232, 4249.941
1020.160, 4256.186
1022.089, 4281.455
1024.017, 4368.417
1025.946, 4437.053
1027.874, 4434.474
1029.803, 4445.982
1031.731, 4516.655
1033.660, 4578.288
1035.588, 4599.452
1037.516, 4627.722
1039.445, 4690.281
1041.373, 4737.203
1043.302, 4730.505
1045.230, 4755.159
1047.159, 4848.914
1049.087, 4934.703
1051.016, 4999.497
1052.944, 5051.075
1054.873, 5083.479
1056.801, 5120.925
1058.730, 5169.618
1060.658, 5217.040
1062.587, 5255.208
1064.515, 5315.704
1066.443, 5410.037
1068.372, 5498.030
1070.300, 5575.583
1072.229, 5644.528
1074.157, 5703.652
1076.086, 5757.541
1078.014, 5802.598
1079.943, 5884.938
1081.871, 6009.693
1083.800, 6122.551
1085.728, 6220.647
1087.657, 6308.010
1089.585, 6385.541
1091.514, 6453.775
1093.442, 6521.328
1095.370, 6663.572
1097.299, 6866.812
1099.227, 7041.892
1101.156, 7211.294
1103.084, 7464.765
1105.013, 7783.767
1106.941, 8163.466
1108.870, 8536.444
1110.798, 8778.350
1112.727, 8904.304
1114.655, 8899.025
1116.584, 8832.217
1118.512, 8745.441
1120.441, 8700.013
1122.369, 8781.412
1124.297, 8911.946
1126.226, 9036.267
1128.154, 9162.759
1130.083, 9287.185
1132.011, 9433.606
1133.940, 9635.806
1135.868, 9835.138
1137.797, 9993.867
1139.725, 10159.770
1141.654, 10344.320
1143.582, 10552.630
1145.511, 10804.840
1147.439, 11037.530
1149.368, 11234.430
1151.296, 11413.320
1153.224, 11564.230
1155.153, 11733.040
1157.081, 11933.560
1159.010, 12119.400
1160.938, 12286.040
1162.867, 12461.790
1164.795, 12648.950
1166.724, 12817.420
1168.652, 12968.890
1170.581, 13121.260
1172.509, 13274.090
1174.438, 13427.310
1176.366, 13576.750
1178.295, 13704.340
1180.223, 13825.600
1182.151, 13974.310
1184.080, 14130.770
1186.008, 14257.010
1187.937, 14394.000
1189.865, 14584.960
1191.794, 14795.210
1193.722, 15002.930
1195.651, 15223.540
1197.579, 15467.960
1199.508, 15719.820
1201.436, 15968.940
1203.365, 16241.880
1205.293, 16555.770
1207.222, 16850.391
1209.150, 17102.539
1211.078, 17411.920
1213.007, 17792.779
1214.935, 18209.381
1216.864, 18658.801
1218.792, 19101.830
1220.721, 19542.770
1222.649, 20029.490
1224.578, 20562.391
1226.506, 21136.279
1228.435, 21765.221
1230.363, 22468.369
1232.292, 23257.891
1234.220, 24131.561
1236.149, 25122.590
1238.077, 26252.359
1240.005, 27525.070
1241.934, 29010.869
1243.862, 30535.150
1245.791, 32080.510
1247.719, 33561.059
1249.648, 34988.262
1251.576, 36215.531
1253.505, 37219.320
1255.433, 37967.711
1257.362, 38454.699
1259.290, 38575.551
1261.219, 38341.250
1263.147, 37875.828
1265.076, 37204.219
1267.004, 36396.301
1268.932, 35465.738
1270.861, 34396.469
1272.789, 33266.941
1274.718, 32150.400
1276.646, 31067.051
1278.575, 30020.131
1280.503, 29037.730
1282.432, 28134.410
1284.360, 27309.289
1286.289, 26552.811
1288.217, 25898.699
1290.146, 25351.301
1292.074, 24912.641
1294.003, 24582.859
1295.931, 24313.721
1297.859, 24108.359
1299.788, 24030.721
1301.716, 24065.350
1303.645, 24162.551
1305.573, 24327.131
1307.502, 24560.340
1309.430, 24879.289
1311.359, 25315.490
1313.287, 25824.920
1315.216, 26353.150
1317.144, 26987.430
1319.073, 27778.100
1321.001, 28657.359
1322.930, 29620.830
1324.858, 30654.711
1326.786, 31758.699
1328.715, 32938.820
1330.643, 34204.949
1332.572, 35641.410
1334.500, 37226.301
1336.429, 38915.379
1338.357, 40683.031
1340.286, 42490.641
1342.214, 44350.391
1344.143, 46341.031
1346.071, 48279.930
1348.000, 50076.770
1349.928, 51801.328
1351.857, 53539.160
1353.785, 55076.199
1355.714, 56423.410
1357.642, 57489.770
1359.570, 58272.238
1361.499, 58617.020
1363.427, 58570.691
1365.356, 58316.859
1367.284, 57805.469
1369.213, 56892.219
1371.141, 55771.219
1373.070, 54568.371
1374.998, 53240.891
1376.927, 51677.559
1378.855, 50200.941
1380.784, 48883.531
1382.712, 47669.680
1384.641, 46548.512
1386.569, 45539.309
1388.497, 44647.398
1390.426, 43943.410
1392.354, 43393.641
1394.283, 42895.648
1396.211, 42534.609
1398.140, 42420.051
1400.068, 42452.941
1401.997, 42611.699
1403.925, 42833.711
1405.854, 43087.238
1407.782, 43468.148
1409.711, 44002.910
1411.639, 44569.719
1413.568, 45162.379
1415.496, 45781.500
1417.424, 46396.859
1419.353, 46931.820
1421.281, 47433.320
1423.210, 47989.422
1425.138, 48462.738
1427.067, 48778.320
1428.995, 49015.609
1430.924, 49178.520
1432.852, 49370.000
1434.781, 49603.879
1436.709, 49805.180
1438.638, 49981.680
1440.566, 50180.449
1442.495, 50372.859
1444.423, 50499.930
1446.351, 50608.500
1448.280, 50736.039
1450.208, 50860.922
1452.137, 50985.219
1454.065, 51086.559
1455.994, 51164.250
1457.922, 51200.109
1459.851, 51194.738
1461.779, 51146.410
1463.708, 51071.500
1465.636, 50995.949
1467.565, 50918.629
1469.493, 50855.578
1471.422, 50757.109
1473.350, 50592.410
1475.278, 50417.352
1477.207, 50246.270
1479.135, 50025.988
1481.064, 49753.359
1482.992, 49386.949
1484.921, 48985.941
1486.849, 48677.660
1488.778, 48392.012
1490.706, 48101.059
1492.635, 47732.750
1494.563, 47218.320
1496.492, 46675.039
1498.420, 46109.180
1500.349, 45542.891
1502.277, 44984.852
1504.205, 44484.789
1506.134, 44014.801
1508.062, 43529.910
1509.991, 43042.711
1511.919, 42536.840
1513.848, 42072.809
1515.776, 41692.898
1517.705, 41298.148
1519.633, 40879.801
1521.562, 40512.238
1523.490, 40175.578
1525.419, 39795.719
1527.347, 39397.961
1529.276, 38967.750
1531.204, 38609.051
1533.132, 38461.699
1535.061, 38223.711
1536.989, 37784.191
1538.918, 37439.422
1540.846, 37196.738
1542.775, 37146.000
1544.703, 37163.590
1546.632, 37051.738
1548.560, 36866.930
1550.489, 36595.379
1552.417, 36371.781
1554.346, 36260.359
1556.274, 36129.621
1558.203, 35973.469
1560.131, 35909.828
1562.060, 35874.281
1563.988, 35692.980
1565.917, 35474.871
1567.845, 35295.441
1569.773, 35130.961
1571.702, 34991.301
1573.630, 34795.949
1575.559, 34536.398
1577.487, 34345.750
1579.416, 34203.270
1581.344, 34056.629
1583.273, 33916.699
1585.201, 33797.520
1587.130, 33659.770
1589.058, 33482.320
1590.987, 33324.320
1592.915, 33195.289
1594.844, 33047.531
1596.772, 32888.930
1598.700, 32732.180
1600.629, 32574.400
1602.557, 32419.910
1604.486, 32236.930
1606.414, 32003.420
1608.343, 31808.631
1610.271, 31661.010
1612.200, 31600.750
1614.128, 31539.289
1616.057, 31259.641
1617.985, 30990.080
1619.914, 30885.100
1621.842, 30772.551
1623.771, 30619.109
1625.699, 30420.689
1627.627, 30185.439
1629.556, 29930.770
1631.484, 29696.480
1633.413, 29560.859
1635.341, 29419.051
1637.270, 29224.539
1639.198, 29058.789
1641.127, 28926.471
1643.055, 28686.680
1644.984, 28400.891
1646.912, 28210.471
1648.841, 28067.289
1650.769, 27981.010
1652.698, 27817.900
1654.626, 27537.779
1656.554, 27363.721
1658.483, 27272.449
1660.411, 27066.949
1662.340, 26828.961
1664.268, 26656.600
1666.197, 26497.820
1668.125, 26337.789
1670.054, 26152.680
1671.982, 25944.539
1673.911, 25778.801
1675.839, 25613.020
1677.768, 25344.551
1679.696, 25081.859
1681.625, 24918.461
1683.553, 24729.570
1685.481, 24495.971
1687.410, 24288.279
1689.338, 24093.461
1691.267, 23862.150
1693.195, 23635.180
1695.124, 23464.461
1697.052, 23266.471
1698.981, 23007.221
1700.909, 22793.100
1702.838, 22615.869
1704.766, 22430.029
1706.695, 22244.990
1708.623, 22062.510
1710.552, 21894.789
1712.480, 21741.109
1714.408, 21621.221
1716.337, 21527.090
1718.265, 21384.770
1720.194, 21266.910
1722.122, 21287.561
1724.051, 21268.160
1725.979, 21110.730
1727.908, 21027.650
1729.836, 21014.699
1731.765, 20974.100
1733.693, 20931.400
1735.622, 20923.570
1737.550, 20896.311
1739.479, 20826.939
1741.407, 20743.680
1743.335, 20648.930
1745.264, 20523.070
1747.192, 20405.359
1749.121, 20358.359
1751.049, 20280.119
1752.978, 20126.180
1754.906, 20028.199
1756.835, 19972.631
1758.763, 19856.250
1760.692, 19723.660
1762.620, 19623.740
1764.549, 19505.711
1766.477, 19355.131
1768.406, 19209.961
1770.334, 19069.420
1772.262, 18905.869
1774.191, 18748.801
1776.119, 18624.641
1778.048, 18498.311
1779.976, 18361.580
1781.905, 18223.990
1783.833, 18090.900
1785.762, 17984.689
1787.690, 17869.641
1789.619, 17724.600
1791.547, 17572.051
1793.476, 17419.770
1795.404, 17296.051
1797.333, 17208.789
1799.261, 17211.141
1801.189, 17172.770
1803.118, 17042.211
1805.046, 16917.801
1806.975, 16816.930
1808.903, 16792.859
1810.832, 16771.801
1812.760, 16651.141
1814.689, 16574.289
1816.617, 16572.230
1818.546, 16527.689
1820.474, 16475.779
1822.403, 16531.490
1824.331, 16587.150
1826.260, 16543.990
1828.188, 16569.461
1830.116, 16657.721
1832.045, 16659.039
1833.973, 16627.609
1835.902, 16609.381
1837.830, 16625.961
1839.759, 16689.000
1841.687, 16760.900
1843.616, 16822.971
1845.544, 16801.109
1847.473, 16806.070
1849.401, 16961.850
1851.330, 17024.311
1853.258, 16982.820
1855.187, 16973.971
1857.115, 16977.020
1859.043, 16970.711
1860.972, 16955.141
1862.900, 16927.961
1864.829, 16896.381
1866.757, 16861.199
1868.686, 16828.039
1870.614, 16786.789
1872.543, 16738.711
1874.471, 16650.859
1876.400, 16528.350
1878.328, 16413.830
1880.257, 16287.690
1882.185, 16120.790
1884.114, 15987.220
1886.042, 15906.000
1887.970, 15831.580
1889.899, 15747.370
1891.827, 15612.460
1893.756, 15492.300
1895.684, 15414.040
1897.613, 15294.050
1899.541, 15153.250
1901.470, 15089.640
1903.398, 14992.290
1905.327, 14799.550
1907.255, 14611.260
1909.184, 14452.960
1911.112, 14422.560
1913.041, 14387.180
1914.969, 14229.070
1916.897, 14116.880
1918.826, 14068.140
1920.754, 13958.100
1922.683, 13826.110
1924.611, 13703.700
1926.540, 13605.010
1928.468, 13538.770
1930.397, 13490.750
1932.325, 13448.170
1934.254, 13393.300
1936.182, 13339.960
1938.111, 13293.300
1940.039, 13218.900
1941.968, 13136.540
1943.896, 13082.400
1945.824, 13039.220
1947.753, 12997.020
1949.681, 13033.160
1951.610, 13095.950
1953.538, 12994.480
1955.467, 12915.140
1957.395, 12976.330
1959.324, 13009.330
1961.252, 13016.300
1963.181, 13019.290
1965.109, 13040.410
1967.038, 13101.140
1968.966, 13171.790
1970.895, 13248.930
1972.823, 13323.620
1974.751, 13402.680
1976.680, 13486.620
1978.608, 13570.870
1980.537, 13663.320
1982.465, 13788.170
1984.394, 13894.750
1986.322, 13948.710
1988.251, 14007.170
1990.179, 14068.590
1992.108, 14082.470
1994.036, 14073.610
1995.965, 14052.550
1997.893, 14052.830
1999.822, 14068.510
2001.750, 13962.040
2003.678, 13822.350
2005.607, 13705.580
2007.535, 13579.100
2009.464, 13439.010
2011.392, 13298.740
2013.321, 13139.140
2015.249, 12943.050
2017.178, 12741.570
2019.106, 12532.340
2021.035, 12287.080
2022.963, 12048.630
2024.892, 11848.550
2026.820, 11643.660
2028.749, 11426.360
2030.677, 11255.440
2032.605, 11102.010
2034.534, 10933.930
2036.462, 10747.670
2038.391, 10564.020
2040.319, 10467.480
2042.248, 10385.620
2044.176, 10273.150
2046.105, 10092.580
2048.033, 9882.914
2049.962, 9743.484
2051.890, 9613.915
2053.819, 9463.772
2055.747, 9340.967
2057.676, 9243.389
2059.604, 9135.824
2061.532, 8989.807
2063.461, 8811.214
2065.389, 8617.236
2067.318, 8446.092
2069.246, 8331.175
2071.175, 8235.980
2073.103, 8159.957
2075.032, 8054.164
2076.960, 7928.526
2078.889, 7807.655
2080.817, 7715.597
2082.746, 7636.951
2084.674, 7576.372
2086.603, 7491.068
2088.531, 7341.805
2090.459, 7213.273
2092.388, 7132.344
2094.316, 7129.857
2096.245, 7113.968
2098.173, 7061.045
2100.102, 6980.435
2102.030, 6901.245
2103.959, 6857.870
2105.887, 6835.270
2107.816, 6795.360
2109.744, 6706.946
2111.673, 6627.593
2113.601, 6553.884
2115.530, 6497.690
2117.458, 6460.661
2119.386, 6383.447
2121.315, 6295.058
2123.243, 6210.058
2125.172, 6132.683
2127.100, 6051.440
2129.029, 5932.149
2130.957, 5849.805
2132.886, 5805.260
2134.814, 5695.807
2136.743, 5593.917
2138.671, 5569.077
2140.600, 5491.945
2142.528, 5368.629
2144.457, 5290.480
2146.385, 5218.409
2148.313, 5123.858
2150.242, 5055.826
2152.170, 5004.649
2154.099, 4921.746
2156.027, 4846.987
2157.956, 4792.359
2159.884, 4729.002
2161.813, 4651.612
2163.741, 4562.606
2165.670, 4502.884
2167.598, 4445.902
2169.527, 4372.599
2171.455, 4326.888
2173.384, 4299.659
2175.312, 4248.872
2177.240, 4184.969
2179.169, 4127.793
2181.097, 4089.844
2183.026, 4060.596
2184.954, 4039.522
2186.883, 4012.851
2188.811, 3974.647
2190.740, 3935.964
2192.668, 3895.310
2194.597, 3875.670
2196.525, 3872.051
2198.454, 3854.284
2200.382, 3812.839
2202.311, 3764.635
2204.239, 3711.455
2206.167, 3672.930
2208.096, 3655.502
2210.024, 3642.661
2211.953, 3612.789
2213.881, 3586.436
2215.810, 3586.867
2217.738, 3573.252
2219.667, 3545.140
2221.595, 3503.039
2223.524, 3461.660
2225.452, 3449.789
2227.381, 3430.801
2229.309, 3404.785
2231.238, 3364.210
2233.166, 3347.938
2235.094, 3360.752
2237.023, 3354.285
2238.951, 3336.026
2240.880, 3312.306
2242.808, 3294.936
2244.737, 3283.805
2246.665, 3293.885
2248.594, 3282.698
2250.522, 3241.671
2252.451, 3220.322
2254.379, 3215.349
2256.308, 3219.266
2258.236, 3216.319
2260.165, 3202.514
2262.093, 3189.507
2264.021, 3171.789
2265.950, 3148.393
2267.878, 3148.686
2269.807, 3146.983
2271.735, 3130.409
2273.664, 3122.406
2275.592, 3120.108
2277.521, 3129.334
2279.449, 3127.366
2281.378, 3112.438
2283.306, 3084.585
2285.235, 3070.310
2287.163, 3069.281
2289.092, 3042.853
2291.020, 3018.176
2292.948, 3013.402
2294.877, 3006.976
2296.805, 2999.528
2298.734, 3003.315
2300.662, 2985.452
2302.591, 2954.175
2304.519, 2916.707
2306.448, 2898.932
2308.376, 2896.688
2310.305, 2866.661
2312.233, 2845.009
2314.162, 2845.466
2316.090, 2835.817
2318.019, 2821.061
2319.947, 2804.194
2321.875, 2791.798
2323.804, 2781.604
2325.732, 2764.672
2327.661, 2752.185
2329.589, 2749.051
2331.518, 2772.592
2333.446, 2767.189
2335.375, 2716.063
2337.303, 2690.677
2339.232, 2674.590
2341.160, 2657.834
2343.089, 2645.057
2345.017, 2633.591
2346.946, 2624.591
2348.874, 2595.390
2350.802, 2559.455
2352.731, 2564.208
2354.659, 2568.491
2356.588, 2561.003
2358.516, 2542.821
2360.445, 2525.140
2362.373, 2511.639
2364.302, 2504.455
2366.230, 2495.178
2368.159, 2468.020
2370.087, 2466.638
2372.016, 2471.657
2373.944, 2440.477
2375.873, 2431.680
2377.801, 2432.500
2379.729, 2386.318
2381.658, 2385.220
2383.586, 2419.773
2385.515, 2403.640
2387.443, 2377.744
2389.372, 2349.836
2391.300, 2359.867
2393.229, 2364.632
2395.157, 2339.793
2397.086, 2340.413
2399.014, 2340.619
2400.943, 2313.881
2402.871, 2293.641
2404.800, 2284.923
2406.728, 2269.509
2408.656, 2259.582
2410.585, 2250.006
2412.513, 2225.217
2414.442, 2217.982
2416.370, 2219.104
2418.299, 2227.311
2420.227, 2216.275
2422.156, 2185.540
2424.084, 2167.840
2426.013, 2160.748
2427.941, 2171.789
2429.870, 2164.218
2431.798, 2144.174
2433.727, 2126.016
2435.655, 2124.894
2437.583, 2125.019
2439.512, 2114.604
2441.440, 2096.132
2443.369, 2085.714
2445.297, 2087.156
2447.226, 2082.034
2449.154, 2075.638
2451.083, 2056.761
2453.011, 2037.857
2454.940, 2033.648
2456.868, 2044.761
2458.797, 2032.229
2460.725, 2014.738
2462.654, 2025.171
2464.582, 2017.041
2466.510, 2002.621
2468.439, 2003.208
2470.367, 1997.560
2472.296, 1981.875
2474.224, 1969.813
2476.153, 1960.355
2478.081, 1964.071
2480.010, 1962.937
2481.938, 1955.737
2483.867, 1941.910
2485.795, 1940.889
2487.724, 1947.628
2489.652, 1947.309
2491.581, 1934.559
2493.509, 1921.290
2495.438, 1912.696
2497.366, 1912.861
2499.294, 1910.901
2501.223, 1906.927
2503.151, 1894.919
2505.080, 1893.285
2507.008, 1887.495
2508.937, 1881.533
2510.865, 1881.362
2512.794, 1870.521
2514.722, 1870.258
2516.651, 1865.772
2518.579, 1860.308
2520.508, 1855.108
2522.436, 1858.808
2524.365, 1856.335
2526.293, 1831.730
2528.221, 1806.881
2530.150, 1820.157
2532.078, 1824.873
2534.007, 1802.534
2535.935, 1784.009
2537.864, 1785.706
2539.792, 1782.614
2541.721, 1763.141
2543.649, 1765.755
2545.578, 1764.571
2547.506, 1736.808
2549.435, 1749.574
2551.363, 1744.846
2553.292, 1723.778
2555.220, 1727.199
2557.148, 1730.050
2559.077, 1726.587
2561.005, 1723.955
2562.934, 1704.304
2564.862, 1687.911
2566.791, 1680.209
2568.719, 1675.751
2570.648, 1679.989
2572.576, 1688.991
2574.505, 1671.481
2576.433, 1677.801
2578.362, 1678.334
2580.290, 1673.398
2582.219, 1646.594
2584.147, 1648.027
2586.075, 1638.145
2588.004, 1627.796
2589.932, 1633.202
2591.861, 1609.578
2593.789, 1613.190
2595.718, 1599.765
2597.646, 1606.783
2599.575, 1612.044
2601.503, 1600.857
2603.432, 1582.044
2605.360, 1574.648
2607.289, 1573.013
2609.217, 1572.789
2611.146, 1563.889
2613.074, 1551.100
2615.002, 1534.563
2616.931, 1525.487
2618.859, 1521.976
2620.788, 1519.745
2622.716, 1529.586
2624.645, 1521.135
2626.573, 1515.921
2628.502, 1511.735
2630.430, 1509.463
2632.359, 1497.689
2634.287, 1494.022
2636.216, 1486.690
2638.144, 1486.658
2640.073, 1478.389
2642.001, 1459.270
2643.929, 1462.763
2645.858, 1465.405
2647.786, 1467.617
2649.715, 1450.066
2651.643, 1448.524
2653.572, 1448.488
2655.500, 1439.638
2657.429, 1435.421
2659.357, 1430.792
2661.286, 1428.022
2663.214, 1422.073
2665.143, 1417.261
2667.071, 1416.748
2669.000, 1422.607
2670.928, 1422.800
2672.856, 1407.152
2674.785, 1378.964
2676.713, 1386.108
2678.642, 1403.186
2680.570, 1389.883
2682.499, 1366.563
2684.427, 1368.186
2686.356, 1377.900
2688.284, 1365.615
2690.213, 1360.274
2692.141, 1359.685
2694.070, 1348.084
2695.998, 1335.061
2697.927, 1327.986
2699.855, 1329.524
2701.783, 1328.977
2703.712, 1322.556
2705.640, 1307.949
2707.569, 1299.053
2709.497, 1300.806
2711.426, 1305.810
2713.354, 1297.328
2715.283, 1292.161
2717.211, 1295.917
2719.140, 1295.688
2721.068, 1292.816
2722.997, 1282.179
2724.925, 1272.390
2726.854, 1264.243
2728.782, 1256.753
2730.710, 1237.516
2732.639, 1234.444
2734.567, 1241.721
2736.496, 1246.672
2738.424, 1254.232
2740.353, 1250.659
2742.281, 1239.213
2744.210, 1233.330
2746.138, 1231.034
2748.067, 1234.191
2749.995, 1205.682
2751.924, 1195.757
2753.852, 1214.445
2755.781, 1205.856
2757.709, 1197.570
2759.637, 1188.177
2761.566, 1180.281
2763.494, 1175.179
2765.423, 1169.042
2767.351, 1152.834
2769.280, 1161.055
2771.208, 1170.546
2773.137, 1164.627
2775.065, 1153.809
2776.994, 1149.430
2778.922, 1149.974
2780.851, 1134.538
2782.779, 1132.114
2784.708, 1133.798
2786.636, 1121.446
2788.564, 1120.024
2790.493, 1120.221
2792.421, 1112.351
2794.350, 1111.710
2796.278, 1109.761
2798.207, 1104.660
2800.135, 1108.937
2802.064, 1104.399
2803.992, 1092.339
2805.921, 1078.533
2807.849, 1075.883
2809.778, 1073.830
2811.706, 1064.082
2813.635, 1068.199
2815.563, 1071.721
2817.491, 1069.927
2819.420, 1062.191
2821.348, 1055.668
2823.277, 1049.003
2825.205, 1041.257
2827.134, 1043.087
2829.062, 1040.119
2830.991, 1030.291
2832.919, 1023.957
2834.848, 1015.368
2836.776, 1008.946
2838.705, 1010.687
2840.633, 1008.220
2842.562, 1012.112
2844.490, 1027.554
2846.418, 1028.857
2848.347, 1013.303
2850.275, 989.047
2852.204, 980.854
2854.132, 980.550
2856.061, 978.329
2857.989, 974.299
2859.918, 963.030
2861.846, 961.108
2863.775, 955.439
2865.703, 949.618
2867.632, 949.009
2869.560, 938.794
2871.489, 937.591
2873.417, 942.736
2875.345, 941.720
2877.274, 922.458
2879.202, 920.689
2881.131, 917.560
2883.059, 912.665
2884.988, 920.586
2886.916, 915.766
2888.845, 910.219
2890.773, 911.102
2892.702, 905.730
2894.630, 903.051
2896.559, 907.086
2898.487, 895.477
2900.416, 892.562
2902.344, 885.125
2904.272, 863.468
2906.201, 878.846
2908.129, 875.768
2910.058, 859.833
2911.986, 873.707
2913.915, 879.404
2915.843, 870.279
2917.772, 861.770
2919.700, 861.601
2921.629, 857.190
2923.557, 853.499
2925.486, 856.209
2927.414, 853.450
2929.343, 844.384
2931.271, 835.065
2933.199, 825.432
2935.128, 823.382
2937.056, 820.255
2938.985, 829.598
2940.913, 818.150
2942.842, 810.178
2944.770, 822.809
2946.699, 815.911
2948.627, 814.263
2950.556, 818.065
2952.484, 800.482
2954.413, 790.674
2956.341, 795.351
2958.270, 803.737
2960.198, 811.783
2962.126, 810.964
2964.055, 792.954
2965.983, 781.998
2967.912, 771.913
2969.840, 782.141
2971.769, 795.134
2973.697, 805.571
2975.626, 793.989
2977.554, 774.224
2979.483, 776.669
2981.411, 776.635
2983.340, 769.709
2985.268, 768.519
2987.197, 784.676
2989.125, 788.273
2991.053, 788.198
2992.982, 787.985
2994.910, 773.044
2996.839, 785.279
2998.767, 797.059
3000.696, 776.255
3002.624, 774.115
3004.553, 774.436
3006.481, 768.583
3008.410, 760.724
3010.338, 771.576
3012.267, 775.225
3014.195, 767.493
3016.124, 782.054
3018.052, 777.700
3019.980, 761.275
3021.909, 758.670
3023.837, 768.681
3025.766, 757.677
3027.694, 749.081
3029.623, 753.560
3031.551, 760.258
3033.480, 753.427
3035.408, 755.555
3037.337, 755.352
3039.265, 752.071
3041.194, 752.166
3043.122, 751.154
3045.051, 755.008
3046.979, 748.102
3048.908, 741.470
3050.836, 735.811
3052.765, 729.565
3054.693, 729.673
3056.622, 734.486
3058.550, 735.996
3060.479, 729.040
3062.407, 724.435
3064.335, 719.801
3066.264, 718.171
3068.192, 723.159
3070.121, 723.024
3072.049, 721.852
3073.978, 711.012
3075.906, 726.713
3077.835, 729.014
3079.763, 717.191
3081.692, 729.768
3083.620, 726.661
3085.549, 726.142
3087.477, 734.526
3089.406, 734.610
3091.334, 730.682
3093.262, 726.339
3095.191, 732.911
3097.119, 726.480
3099.048, 729.085
3100.976, 738.133
3102.905, 733.731
3104.833, 717.746
3106.762, 713.137
3108.690, 712.105
3110.619, 711.552
3112.547, 719.659
3114.476, 716.239
3116.404, 708.280
3118.333, 708.838
3120.261, 727.495
3122.189, 735.232
3124.118, 731.938
3126.046, 724.866
3127.975, 730.261
3129.903, 735.281
3131.832, 739.629
3133.760, 746.296
3135.689, 740.887
3137.617, 735.195
3139.546, 733.187
3141.474, 728.893
3143.403, 726.217
3145.331, 734.432
3147.260, 736.069
3149.188, 719.184
3151.116, 739.159
3153.045, 727.680
3154.973, 718.457
3156.902, 733.717
3158.830, 713.406
3160.759, 709.850
3162.687, 712.621
3164.616, 709.691
3166.544, 706.051
3168.473, 709.591
3170.401, 706.721
3172.330, 691.607
3174.258, 684.359
3176.187, 687.690
3178.115, 684.000
3180.043, 670.703
3181.972, 671.898
3183.900, 674.709
3185.829, 677.158
3187.757, 684.328
3189.686, 686.253
3191.614, 681.316
3193.543, 682.121
3195.471, 687.920
3197.400, 689.415
3199.328, 688.624
3201.257, 681.914
3203.185, 680.578
3205.114, 704.074
3207.042, 701.136
3208.970, 700.752
3210.899, 711.036
3212.827, 723.383
3214.756, 701.342
3216.684, 720.425
3218.613, 744.120
3220.541, 748.551
3222.470, 776.414
3224.398, 788.296
3226.327, 801.375
3228.255, 825.032
3230.184, 845.656
3232.112, 864.885
3234.041, 895.395
3235.969, 932.917
3237.897, 966.879
3239.826, 1002.573
3241.754, 1021.675
3243.683, 1048.949
3245.611, 1101.979
3247.540, 1109.194
3249.468, 1120.707
3251.397, 1143.013
3253.325, 1171.827
3255.254, 1198.286
3257.182, 1187.907
3259.111, 1180.117
3261.039, 1188.390
3262.968, 1207.443
3264.896, 1201.011
3266.824, 1198.536
3268.753, 1202.221
3270.681, 1203.298
3272.610, 1168.816
3274.538, 1159.517
3276.467, 1150.577
3278.395, 1126.943
3280.324, 1095.433
3282.252, 1092.870
3284.181, 1064.768
3286.109, 1029.569
3288.038, 1024.171
3289.966, 1025.733
3291.895, 1012.465
3293.823, 1013.464
3295.751, 1037.124
3297.680, 1052.711
3299.608, 1089.362
3301.537, 1126.295
3303.465, 1132.726
3305.394, 1092.258
3307.322, 1075.290
3309.251, 1079.677
3311.179, 1063.625
3313.108, 1014.374
3315.036, 963.585
3316.965, 989.656
3318.893, 985.964
3320.822, 968.875
3322.750, 984.429
3324.678, 937.520
3326.607, 946.703
3328.535, 938.759
3330.464, 891.359
3332.392, 864.641
3334.321, 878.621
3336.249, 884.727
3338.178, 872.980
3340.106, 852.299
3342.035, 844.455
3343.963, 840.846
3345.892, 824.059
3347.820, 803.174
3349.749, 803.773
3351.677, 822.988
3353.605, 819.692
3355.534, 810.506
3357.462, 809.082
3359.391, 809.008
3361.319, 790.401
3363.248, 790.807
3365.176, 796.639
3367.105, 790.171
3369.033, 784.295
3370.962, 779.775
3372.890, 760.567
3374.819, 740.718
3376.747, 744.090
3378.676, 736.066
3380.604, 728.574
3382.532, 715.248
3384.461, 708.992
3386.389, 728.377
3388.318, 713.499
3390.246, 700.000
3392.175, 697.451
3394.103, 696.949
3396.032, 674.883
3397.960, 663.708
3399.889, 651.142
3401.817, 630.776
3403.746, 610.846
3405.674, 617.409
3407.603, 601.088
3409.531, 591.970
3411.459, 581.938
3413.388, 564.875
3415.316, 576.839
3417.245, 549.887
3419.173, 535.919
3421.102, 530.290
3423.030, 517.038
3424.959, 513.340
3426.887, 512.884
3428.816, 502.194
3430.744, 496.456
##END=



