##NAMES=Jeanbandyite
##RRUFFID=R070724
##IDEAL CHEMISTRY=Fe^3+^Sn(OH)_5_O
##LOCALITY=Siglo Veinte Mine (Siglo XX Mine; Llallagua Mine; Catavi), Llallagua, Bustillos Province, Potosí Department, Bolivia
##OWNER=RRUFF
##SOURCE=Michael Scott
##DESCRIPTION=Orange-brown spheroids associated with quartz
##STATUS=The identification of this mineral is not yet confirmed
##URL=https://www.rruff.net/odr/rruff_sample/R070724
##FILETYPE=Raman Processed
##RAMAN WAVELENGTH=780

102.8706, 29018.01
104.7991, 28615.08
106.7275, 28335.11
108.6560, 28146.87
110.5845, 28017.82
112.5129, 27905.75
114.4414, 27828.15
116.3699, 27733.07
118.2983, 27656.37
120.2268, 27677.58
122.1553, 27798.69
124.0837, 27900.10
126.0122, 27946.33
127.9407, 28005.23
129.8691, 28121.57
131.7976, 28256.64
133.7261, 28358.89
135.6545, 28428.84
137.5830, 28456.34
139.5115, 28414.98
141.4399, 28384.63
143.3684, 28395.93
145.2969, 28437.67
147.2253, 28486.06
149.1538, 28539.03
151.0823, 28659.68
153.0107, 28872.76
154.9392, 29105.42
156.8677, 29326.40
158.7961, 29549.83
160.7246, 29806.85
162.6531, 30096.85
164.5815, 30338.06
166.5100, 30515.04
168.4385, 30680.60
170.3669, 30865.89
172.2954, 31042.92
174.2239, 31184.82
176.1523, 31290.36
178.0808, 31379.58
180.0093, 31449.68
181.9377, 31508.95
183.8662, 31578.04
185.7947, 31617.37
187.7231, 31592.49
189.6516, 31508.95
191.5801, 31399.82
193.5085, 31256.46
195.4370, 31141.49
197.3655, 31097.50
199.2939, 31060.03
201.2224, 30998.89
203.1509, 30927.90
205.0793, 30880.05
207.0078, 30855.91
208.9362, 30830.34
210.8647, 30785.55
212.7932, 30759.59
214.7216, 30777.98
216.6501, 30814.78
218.5786, 30826.77
220.5070, 30820.13
222.4355, 30844.59
224.3640, 30917.07
226.2924, 30993.34
228.2209, 31054.74
230.1494, 31121.33
232.0779, 31193.45
234.0063, 31284.72
235.9348, 31442.46
237.8633, 31681.85
239.7917, 31903.05
241.7202, 32082.42
243.6487, 32239.08
245.5771, 32395.54
247.5056, 32524.88
249.4341, 32583.73
251.3625, 32577.80
253.2910, 32543.19
255.2195, 32495.70
257.1479, 32393.55
259.0764, 32206.17
261.0049, 31981.10
262.9333, 31770.71
264.8618, 31490.83
266.7903, 31260.54
268.7187, 30877.66
270.6472, 30499.34
272.5757, 30131.45
274.5041, 29785.76
276.4326, 29455.93
278.3611, 29160.99
280.2895, 28918.88
282.2180, 28727.58
284.1465, 28586.78
286.0749, 28493.00
288.0034, 28463.12
289.9319, 28507.69
291.8603, 28605.37
293.7888, 28716.91
295.7173, 28883.88
297.6457, 29175.34
299.5742, 29596.59
301.5027, 30100.02
303.4311, 30626.30
305.3596, 31311.03
307.2881, 32207.15
309.2165, 33248.16
311.1450, 34448.14
313.0735, 35741.09
315.0019, 37008.82
316.9304, 38303.63
318.8589, 39332.52
320.7873, 40100.27
322.7158, 40593.32
324.6443, 40768.76
326.5727, 40682.86
328.5012, 40356.38
330.4297, 39827.05
332.3581, 39210.92
334.2866, 38488.29
336.2151, 37743.32
338.1435, 36945.95
340.0720, 36181.91
342.0005, 35485.21
343.9289, 34839.79
345.8574, 34226.20
347.7859, 33645.74
349.7143, 33103.79
351.6428, 32594.98
353.5713, 32131.74
355.4997, 31730.49
357.4282, 31349.54
359.3567, 30957.82
361.2851, 30591.88
363.2136, 30285.86
365.1421, 30035.64
367.0705, 29807.74
368.9990, 29624.28
370.9275, 29419.64
372.8559, 29155.43
374.7844, 28924.68
376.7129, 28747.88
378.6413, 28627.46
380.5698, 28590.54
382.4983, 28607.77
384.4267, 28554.29
386.3552, 28382.26
388.2837, 28272.81
390.2121, 28260.85
392.1406, 28248.41
394.0691, 28202.41
395.9975, 28153.51
397.9260, 28136.66
399.8545, 28125.45
401.7829, 28051.06
403.7114, 28000.72
405.6399, 27954.32
407.5683, 27832.79
409.4968, 27818.06
411.4253, 27708.52
413.3537, 27579.59
415.2822, 27452.50
417.2107, 27345.98
419.1391, 27297.63
421.0676, 27305.06
422.9961, 27279.47
424.9245, 27201.30
426.8530, 27151.91
428.7815, 27145.43
430.7099, 27153.07
432.6384, 27182.02
434.5669, 27200.56
436.4953, 27181.45
438.4238, 27137.77
440.3523, 27099.22
442.2807, 27067.86
444.2092, 27059.69
446.1377, 27084.81
448.0661, 27099.51
449.9946, 27084.88
451.9231, 27068.36
453.8515, 27075.62
455.7800, 27077.41
457.7085, 27046.05
459.6369, 26981.86
461.5654, 26880.13
463.4939, 26738.87
465.4223, 26592.95
467.3508, 26445.92
469.2793, 26291.32
471.2077, 26131.81
473.1362, 25960.18
475.0647, 25767.87
476.9931, 25558.72
478.9216, 25333.53
480.8501, 25097.11
482.7785, 24878.32
484.7070, 24676.06
486.6355, 24474.09
488.5639, 24262.79
490.4924, 24073.76
492.4209, 23936.26
494.3493, 23803.08
496.2778, 23639.50
498.2063, 23478.51
500.1347, 23372.69
502.0632, 23307.91
503.9917, 23214.17
505.9201, 23091.82
507.8486, 22955.56
509.7771, 22797.92
511.7055, 22659.93
513.6340, 22563.97
515.5624, 22481.10
517.4909, 22399.63
519.4194, 22324.43
521.3478, 22257.79
523.2763, 22202.61
525.2048, 22170.59
527.1332, 22159.32
529.0617, 22148.06
530.9902, 22135.93
532.9186, 22117.11
534.8471, 22089.81
536.7756, 22056.21
538.7040, 21993.12
540.6325, 21949.43
542.5610, 21991.23
544.4894, 22065.52
546.4179, 22063.24
548.3464, 22008.31
550.2748, 21993.69
552.2033, 22026.61
554.1318, 22060.72
556.0602, 22095.18
557.9887, 22117.35
559.9172, 22105.15
561.8456, 22104.55
563.7741, 22153.58
565.7026, 22208.44
567.6310, 22221.51
569.5595, 22206.40
571.4880, 22190.19
573.4164, 22173.62
575.3449, 22166.59
577.2734, 22174.91
579.2018, 22163.88
581.1303, 22130.15
583.0588, 22073.15
584.9872, 21993.77
586.9157, 21890.24
588.8442, 21743.30
590.7726, 21587.19
592.7011, 21459.28
594.6296, 21344.66
596.5580, 21217.06
598.4865, 21079.93
600.4150, 20955.08
602.3434, 20847.71
604.2719, 20731.51
606.2004, 20583.42
608.1288, 20460.37
610.0573, 20392.33
611.9858, 20315.17
613.9142, 20179.29
615.8427, 20051.41
617.7712, 19992.83
619.6996, 19965.82
621.6281, 19945.55
623.5566, 19913.82
625.4850, 19790.64
627.4135, 19561.32
629.3420, 19396.73
631.2704, 19349.60
633.1989, 19269.52
635.1274, 19097.86
637.0558, 18980.91
638.9843, 19013.65
640.9128, 19024.06
642.8412, 18900.48
644.7697, 18747.47
646.6982, 18643.92
648.6266, 18569.97
650.5551, 18500.59
652.4836, 18435.53
654.4120, 18377.85
656.3405, 18288.70
658.2690, 18255.96
660.1974, 18117.90
662.1259, 18007.15
664.0544, 17931.08
665.9828, 17873.41
667.9113, 17839.90
669.8398, 17809.16
671.7682, 17771.23
673.6967, 17731.36
675.6252, 17701.66
677.5536, 17665.13
679.4821, 17589.92
681.4106, 17492.32
683.3391, 17430.25
685.2675, 17341.32
687.1960, 17257.65
689.1245, 17193.95
691.0529, 17096.98
692.9814, 17058.23
694.9099, 16999.58
696.8383, 16904.01
698.7668, 16800.78
700.6953, 16696.70
702.6237, 16593.66
704.5522, 16489.87
706.4807, 16390.70
708.4091, 16300.88
710.3376, 16217.02
712.2661, 16135.69
714.1945, 16056.54
716.1230, 15975.50
718.0515, 15894.42
719.9799, 15836.95
721.9084, 15773.43
723.8369, 15716.67
725.7653, 15680.13
727.6938, 15625.35
729.6223, 15603.85
731.5507, 15583.71
733.4792, 15552.29
735.4077, 15527.08
737.3361, 15535.93
739.2646, 15526.87
741.1931, 15445.91
743.1215, 15365.43
745.0500, 15365.36
746.9785, 15394.39
748.9069, 15377.67
750.8354, 15329.02
752.7639, 15279.40
754.6923, 15231.41
756.6208, 15198.19
758.5493, 15179.15
760.4777, 15189.62
762.4062, 15234.89
764.3347, 15246.27
766.2631, 15209.83
768.1916, 15151.31
770.1201, 15052.03
772.0485, 14986.48
773.9770, 15003.09
775.9055, 15022.66
777.8339, 15031.75
779.7624, 15018.67
781.6909, 14947.26
783.6193, 14880.77
785.5478, 14888.55
787.4763, 14927.02
789.4047, 14939.01
791.3332, 14934.76
793.2617, 14940.58
795.1901, 14946.86
797.1186, 14921.62
799.0471, 14869.06
800.9755, 14812.86
802.9040, 14754.90
804.8325, 14741.98
806.7609, 14792.79
808.6894, 14801.05
810.6179, 14729.50
812.5463, 14676.65
814.4748, 14682.38
816.4033, 14671.22
818.3317, 14605.82
820.2602, 14556.52
822.1887, 14559.85
824.1171, 14567.96
826.0456, 14560.04
827.9741, 14544.37
829.9025, 14532.27
831.8310, 14511.10
833.7595, 14451.77
835.6879, 14386.88
837.6164, 14360.80
839.5449, 14360.11
841.4733, 14371.68
843.4018, 14387.56
845.3303, 14386.85
847.2587, 14369.65
849.1872, 14333.43
851.1157, 14325.38
853.0441, 14308.28
854.9726, 14279.96
856.9011, 14262.14
858.8295, 14243.93
860.7580, 14210.38
862.6865, 14178.15
864.6149, 14148.22
866.5434, 14114.38
868.4719, 14092.64
870.4003, 14089.75
872.3288, 14088.26
874.2573, 14090.76
876.1857, 14088.81
878.1142, 14078.98
880.0427, 14063.85
881.9711, 14034.70
883.8996, 14013.20
885.8281, 14034.90
887.7565, 14047.06
889.6850, 13976.99
891.6135, 13906.54
893.5419, 13934.79
895.4704, 13980.90
897.3989, 13944.73
899.3273, 13868.32
901.2558, 13801.22
903.1843, 13752.41
905.1127, 13757.85
907.0412, 13795.64
908.9697, 13797.45
910.8981, 13771.61
912.8266, 13740.41
914.7551, 13704.52
916.6835, 13696.92
918.6120, 13718.00
920.5405, 13718.33
922.4689, 13695.12
924.3974, 13673.64
926.3259, 13652.73
928.2543, 13638.48
930.1828, 13632.66
932.1113, 13622.51
934.0397, 13611.71
935.9682, 13576.89
937.8967, 13504.38
939.8251, 13468.95
941.7536, 13492.02
943.6821, 13506.72
945.6105, 13496.68
947.5390, 13488.10
949.4675, 13488.66
951.3959, 13487.41
953.3244, 13484.33
955.2529, 13473.82
957.1813, 13453.47
959.1098, 13424.17
961.0383, 13370.26
962.9667, 13335.04
964.8952, 13348.40
966.8237, 13368.82
968.7521, 13380.26
970.6806, 13388.31
972.6091, 13399.39
974.5375, 13406.16
976.4660, 13394.51
978.3945, 13385.13
980.3229, 13397.32
982.2514, 13409.14
984.1799, 13400.96
986.1083, 13395.72
988.0368, 13415.50
989.9653, 13435.79
991.8937, 13438.01
993.8222, 13438.78
995.7507, 13437.01
997.6791, 13441.98
999.6076, 13489.71
1001.536, 13480.47
1003.465, 13527.79
1005.393, 13492.67
1007.321, 13489.09
1009.250, 13490.29
1011.178, 13444.38
1013.107, 13387.38
1015.035, 13375.82
1016.964, 13383.69
1018.892, 13375.93
1020.821, 13356.58
1022.749, 13329.53
1024.678, 13303.01
1026.606, 13295.63
1028.535, 13290.34
1030.463, 13243.94
1032.391, 13191.88
1034.320, 13210.70
1036.248, 13170.35
1038.177, 13215.10
1040.105, 13156.03
1042.034, 13158.40
1043.962, 13184.21
1045.891, 13177.15
1047.819, 13150.53
1049.748, 13115.52
1051.676, 13085.94
1053.605, 13089.33
1055.533, 13100.50
1057.462, 13086.17
1059.390, 13049.33
1061.318, 12979.16
1063.247, 12912.50
1065.175, 12915.13
1067.104, 12949.86
1069.032, 12967.34
1070.961, 12965.65
1072.889, 12929.80
1074.818, 12885.05
1076.746, 12867.40
1078.675, 12865.47
1080.603, 12863.08
1082.532, 12865.39
1084.460, 12894.45
1086.389, 12887.31
1088.317, 12917.78
1090.245, 12897.54
1092.174, 12903.71
1094.102, 12917.52
1096.031, 12908.88
1097.959, 12901.66
1099.888, 12926.23
1101.816, 12953.69
1103.745, 12969.63
1105.673, 12974.57
1107.602, 12949.18
1109.530, 12917.88
1111.459, 12908.56
1113.387, 12907.73
1115.316, 12900.15
1117.244, 12887.99
1119.172, 12873.55
1121.101, 12870.15
1123.029, 12891.67
1124.958, 12914.09
1126.886, 12927.96
1128.815, 12929.42
1130.743, 12898.67
1132.672, 12880.76
1134.600, 12903.89
1136.529, 12935.61
1138.457, 12966.56
1140.386, 13004.79
1142.314, 13057.25
1144.243, 13093.27
1146.171, 13096.26
1148.099, 13098.91
1150.028, 13119.51
1151.956, 13128.53
1153.885, 13108.70
1155.813, 13084.44
1157.742, 13062.70
1159.670, 13065.12
1161.599, 13098.68
1163.527, 13100.30
1165.456, 13060.32
1167.384, 13013.00
1169.313, 12959.80
1171.241, 12951.79
1173.170, 12996.90
1175.098, 13017.78
1177.026, 13006.88
1178.955, 12993.71
1180.883, 12982.84
1182.812, 12993.91
1184.740, 12984.05
1186.669, 12984.27
1188.597, 12989.04
1190.526, 12980.26
1192.454, 12996.40
1194.383, 12994.06
1196.311, 12973.62
1198.240, 12952.86
1200.168, 12945.97
1202.097, 12985.30
1204.025, 13028.53
1205.953, 13010.36
1207.882, 12978.26
1209.810, 12983.94
1211.739, 13004.98
1213.667, 13016.24
1215.596, 13021.04
1217.524, 13036.75
1219.453, 13047.88
1221.381, 13031.45
1223.310, 13014.43
1225.238, 13009.28
1227.167, 13015.31
1229.095, 13003.82
1231.024, 12998.34
1232.952, 13008.01
1234.880, 12987.92
1236.809, 13015.60
1238.737, 13032.74
1240.666, 13027.48
1242.594, 13031.13
1244.523, 13054.85
1246.451, 13064.59
1248.380, 13052.92
1250.308, 13037.16
1252.237, 13026.20
1254.165, 13012.43
1256.094, 12995.48
1258.022, 13008.46
1259.951, 13004.92
1261.879, 13035.96
1263.807, 13024.96
1265.736, 13044.55
1267.664, 13063.39
1269.593, 13065.88
1271.521, 13050.48
1273.450, 12978.74
1275.378, 12940.13
1277.307, 13018.00
1279.235, 13077.83
1281.164, 13047.33
1283.092, 13024.33
1285.021, 13041.54
1286.949, 13062.37
1288.878, 13094.14
1290.806, 13082.46
1292.734, 13095.34
1294.663, 13088.19
1296.591, 13064.15
1298.520, 13058.67
1300.448, 13022.49
1302.377, 12952.29
1304.305, 12948.82
1306.234, 12918.10
1308.162, 12880.21
1310.091, 12879.54
1312.019, 12886.71
1313.948, 12865.42
1315.876, 12840.93
1317.805, 12833.50
1319.733, 12823.18
1321.661, 12798.15
1323.590, 12770.64
1325.518, 12756.31
1327.447, 12716.99
1329.375, 12629.83
1331.304, 12571.89
1333.232, 12564.09
1335.161, 12564.06
1337.089, 12557.36
1339.018, 12498.09
1340.946, 12400.33
1342.875, 12341.97
1344.803, 12306.51
1346.732, 12257.61
1348.660, 12215.95
1350.589, 12216.86
1352.517, 12215.37
1354.445, 12167.76
1356.374, 12105.05
1358.302, 12039.73
1360.231, 11995.01
1362.159, 11975.55
1364.088, 11951.38
1366.016, 11926.20
1367.945, 11887.33
1369.873, 11863.02
1371.802, 11837.61
1373.730, 11803.65
1375.659, 11788.25
1377.587, 11759.41
1379.516, 11726.53
1381.444, 11697.82
1383.372, 11680.02
1385.301, 11653.79
1387.229, 11589.55
1389.158, 11536.03
1391.086, 11531.54
1393.015, 11526.00
1394.943, 11505.10
1396.872, 11483.57
1398.800, 11463.16
1400.729, 11435.75
1402.657, 11398.40
1404.586, 11373.00
1406.514, 11359.25
1408.443, 11341.63
1410.371, 11321.11
1412.299, 11295.38
1414.228, 11266.70
1416.156, 11244.91
1418.085, 11223.67
1420.013, 11200.10
1421.942, 11187.38
1423.870, 11181.68
1425.799, 11168.76
1427.727, 11163.69
1429.656, 11156.36
1431.584, 11136.87
1433.513, 11119.72
1435.441, 11101.57
1437.370, 11076.89
1439.298, 11058.60
1441.226, 11047.45
1443.155, 11029.09
1445.083, 11018.55
1447.012, 11015.01
1448.940, 10989.10
1450.869, 10958.74
1452.797, 10952.42
1454.726, 10943.33
1456.654, 10911.60
1458.583, 10888.88
1460.511, 10879.75
1462.440, 10853.91
1464.368, 10834.51
1466.297, 10815.18
1468.225, 10788.15
1470.153, 10767.94
1472.082, 10741.34
1474.010, 10709.10
1475.939, 10679.31
1477.867, 10658.51
1479.796, 10645.73
1481.724, 10636.58
1483.653, 10632.97
1485.581, 10616.70
1487.510, 10603.31
1489.438, 10588.36
1491.367, 10567.50
1493.295, 10551.61
1495.224, 10531.87
1497.152, 10516.11
1499.080, 10493.47
1501.009, 10487.90
1502.937, 10450.88
1504.866, 10426.46
1506.794, 10411.53
1508.723, 10416.93
1510.651, 10433.87
1512.580, 10426.43
1514.508, 10398.99
1516.437, 10369.73
1518.365, 10358.12
1520.294, 10360.39
1522.222, 10358.82
1524.151, 10375.68
1526.079, 10375.38
1528.007, 10330.87
1529.936, 10319.85
1531.864, 10343.74
1533.793, 10352.93
1535.721, 10349.58
1537.650, 10327.12
1539.578, 10297.01
1541.507, 10254.09
1543.435, 10221.84
1545.364, 10240.06
1547.292, 10244.96
1549.221, 10203.17
1551.149, 10183.07
1553.078, 10195.75
1555.006, 10212.51
1556.934, 10227.16
1558.863, 10228.84
1560.791, 10220.29
1562.720, 10216.35
1564.648, 10226.59
1566.577, 10233.23
1568.505, 10216.34
1570.434, 10186.22
1572.362, 10181.25
1574.291, 10197.41
1576.219, 10202.63
1578.148, 10207.88
1580.076, 10228.24
1582.005, 10234.51
1583.933, 10233.39
1585.861, 10251.80
1587.790, 10290.44
1589.718, 10324.56
1591.647, 10343.33
1593.575, 10363.46
1595.504, 10387.74
1597.432, 10386.24
1599.361, 10369.11
1601.289, 10377.04
1603.218, 10378.89
1605.146, 10345.91
1607.075, 10328.10
1609.003, 10340.60
1610.932, 10333.55
1612.860, 10297.58
1614.788, 10239.60
1616.717, 10176.93
1618.645, 10133.37
1620.574, 10093.49
1622.502, 10051.60
1624.431, 10008.06
1626.359, 9942.708
1628.288, 9900.921
1630.216, 9906.382
1632.145, 9869.105
1634.073, 9791.767
1636.002, 9724.072
1637.930, 9670.992
1639.859, 9626.425
1641.787, 9591.252
1643.715, 9559.891
1645.644, 9512.719
1647.572, 9458.347
1649.501, 9418.206
1651.429, 9394.890
1653.358, 9377.941
1655.286, 9369.135
1657.215, 9363.549
1659.143, 9333.584
1661.072, 9334.615
1663.000, 9305.929
1664.929, 9324.284
1666.857, 9321.064
1668.786, 9320.042
1670.714, 9317.834
1672.642, 9305.144
1674.571, 9303.570
1676.499, 9321.513
1678.428, 9334.323
1680.356, 9369.622
1682.285, 9421.531
1684.213, 9431.076
1686.142, 9423.538
1688.070, 9415.909
1689.999, 9416.009
1691.927, 9436.643
1693.856, 9449.502
1695.784, 9450.410
1697.713, 9436.479
1699.641, 9421.743
1701.569, 9426.759
1703.498, 9433.721
1705.426, 9407.889
1707.355, 9403.813
1709.283, 9371.320
1711.212, 9363.730
1713.140, 9319.855
1715.069, 9284.325
1716.997, 9254.661
1718.926, 9224.164
1720.854, 9197.084
1722.783, 9145.659
1724.711, 9083.061
1726.640, 9038.212
1728.568, 8998.992
1730.496, 8954.988
1732.425, 8917.004
1734.353, 8875.829
1736.282, 8830.760
1738.210, 8796.071
1740.139, 8756.304
1742.067, 8717.743
1743.996, 8683.354
1745.924, 8651.608
1747.853, 8621.978
1749.781, 8600.149
1751.710, 8573.884
1753.638, 8543.263
1755.567, 8538.125
1757.495, 8540.288
1759.423, 8509.529
1761.352, 8481.227
1763.280, 8460.055
1765.209, 8425.991
1767.137, 8407.014
1769.066, 8394.354
1770.994, 8362.755
1772.923, 8315.600
1774.851, 8269.336
1776.780, 8244.797
1778.708, 8216.583
1780.637, 8161.422
1782.565, 8127.759
1784.494, 8118.546
1786.422, 8065.866
1788.350, 8050.324
1790.279, 7987.302
1792.207, 7992.487
1794.136, 7959.121
1796.064, 7909.559
1797.993, 7878.619
1799.921, 7854.968
1801.850, 7822.221
1803.778, 7784.754
1805.707, 7749.252
1807.635, 7716.911
1809.564, 7684.318
1811.492, 7653.782
1813.421, 7624.714
1815.349, 7598.137
1817.277, 7571.201
1819.206, 7563.389
1821.134, 7552.670
1823.063, 7527.591
1824.991, 7501.902
1826.920, 7466.758
1828.848, 7426.692
1830.777, 7386.816
1832.705, 7332.680
1834.634, 7297.877
1836.562, 7290.357
1838.491, 7281.659
1840.419, 7262.426
1842.348, 7258.195
1844.276, 7247.805
1846.204, 7211.688
1848.133, 7173.293
1850.061, 7148.895
1851.990, 7117.902
1853.918, 7088.396
1855.847, 7057.059
1857.775, 7008.527
1859.704, 6966.116
1861.632, 6955.680
1863.561, 6967.782
1865.489, 6966.453
1867.418, 6917.539
1869.346, 6883.119
1871.275, 6882.895
1873.203, 6860.951
1875.131, 6824.978
1877.060, 6803.652
1878.988, 6782.085
1880.917, 6747.068
1882.845, 6721.510
1884.774, 6712.949
1886.702, 6700.162
1888.631, 6674.977
1890.559, 6647.696
1892.488, 6624.617
1894.416, 6594.303
1896.345, 6578.342
1898.273, 6535.659
1900.202, 6500.407
1902.130, 6472.855
1904.058, 6478.286
1905.987, 6480.169
1907.915, 6430.380
1909.844, 6385.634
1911.772, 6381.501
1913.701, 6379.514
1915.629, 6368.979
1917.558, 6355.252
1919.486, 6323.878
1921.415, 6277.538
1923.343, 6263.265
1925.272, 6263.423
1927.200, 6259.156
1929.129, 6254.608
1931.057, 6222.382
1932.985, 6190.144
1934.914, 6164.010
1936.842, 6136.311
1938.771, 6125.082
1940.699, 6110.395
1942.628, 6067.360
1944.556, 6046.445
1946.485, 6060.044
1948.413, 6047.782
1950.342, 6013.369
1952.270, 5997.459
1954.199, 5992.239
1956.127, 5971.492
1958.056, 5955.133
1959.984, 5924.542
1961.912, 5880.456
1963.841, 5847.817
1965.769, 5853.289
1967.698, 5867.477
1969.626, 5843.588
1971.555, 5822.076
1973.483, 5800.631
1975.412, 5781.473
1977.340, 5765.350
1979.269, 5744.637
1981.197, 5721.819
1983.126, 5701.382
1985.054, 5667.035
1986.983, 5654.083
1988.911, 5641.383
1990.839, 5616.192
1992.768, 5607.857
1994.696, 5589.242
1996.625, 5582.045
1998.553, 5559.922
2000.482, 5543.817
2002.410, 5533.601
2004.339, 5518.986
2006.267, 5488.723
2008.196, 5464.151
2010.124, 5451.250
2012.053, 5433.630
2013.981, 5393.400
2015.910, 5362.339
2017.838, 5363.765
2019.766, 5376.144
2021.695, 5359.775
2023.623, 5323.986
2025.552, 5302.921
2027.480, 5294.004
2029.409, 5272.405
2031.337, 5247.829
2033.266, 5237.829
2035.194, 5207.051
2037.123, 5153.229
2039.051, 5125.001
2040.980, 5118.646
2042.908, 5122.057
2044.837, 5104.014
2046.765, 5097.284
2048.693, 5083.746
2050.622, 5067.964
2052.550, 5050.721
2054.479, 5027.260
2056.407, 5014.899
2058.336, 4996.563
2060.264, 4982.646
2062.193, 4953.438
2064.121, 4958.925
2066.050, 4953.592
2067.978, 4945.617
2069.906, 4916.714
2071.835, 4902.125
2073.763, 4867.101
2075.692, 4853.640
2077.620, 4819.785
2079.549, 4793.876
2081.477, 4777.346
2083.406, 4795.246
2085.334, 4798.222
2087.263, 4778.339
2089.191, 4759.675
2091.120, 4740.146
2093.048, 4730.821
2094.977, 4714.013
2096.905, 4675.973
2098.833, 4652.644
2100.762, 4648.889
2102.690, 4638.157
2104.619, 4622.472
2106.547, 4615.272
2108.476, 4591.613
2110.404, 4571.793
2112.333, 4569.777
2114.261, 4564.354
2116.190, 4552.765
2118.118, 4538.296
2120.047, 4520.792
2121.975, 4496.478
2123.904, 4484.533
2125.832, 4464.515
2127.760, 4438.850
2129.689, 4421.594
2131.617, 4415.881
2133.546, 4408.335
2135.474, 4390.197
2137.403, 4366.942
2139.331, 4356.423
2141.260, 4336.168
2143.188, 4333.398
2145.117, 4306.376
2147.045, 4306.083
2148.974, 4301.012
2150.902, 4283.121
2152.831, 4261.170
2154.759, 4242.062
2156.688, 4227.937
2158.616, 4222.424
2160.544, 4210.812
2162.473, 4201.894
2164.401, 4188.676
2166.330, 4158.472
2168.258, 4148.092
2170.187, 4143.188
2172.115, 4129.546
2174.044, 4127.214
2175.972, 4107.439
2177.901, 4078.956
2179.829, 4059.071
2181.758, 4051.131
2183.686, 4042.299
2185.615, 4021.338
2187.543, 4002.614
2189.471, 3978.319
2191.400, 3952.285
2193.328, 3962.197
2195.257, 3981.163
2197.185, 3964.817
2199.114, 3944.068
2201.042, 3933.639
2202.971, 3915.525
2204.899, 3902.146
2206.828, 3891.848
2208.756, 3874.239
2210.685, 3869.872
2212.613, 3853.235
2214.542, 3837.962
2216.470, 3828.610
2218.398, 3811.873
2220.327, 3802.634
2222.255, 3785.477
2224.184, 3767.887
2226.112, 3759.027
2228.041, 3756.359
2229.969, 3741.933
2231.898, 3730.833
2233.826, 3728.994
2235.755, 3719.802
2237.683, 3701.344
2239.612, 3681.026
2241.540, 3672.708
2243.469, 3636.639
2245.397, 3647.797
2247.325, 3637.201
2249.254, 3617.714
2251.182, 3596.402
2253.111, 3608.342
2255.039, 3610.289
2256.968, 3568.734
2258.896, 3544.905
2260.825, 3539.197
2262.753, 3540.224
2264.682, 3534.207
2266.610, 3515.478
2268.539, 3502.754
2270.467, 3495.606
2272.396, 3477.321
2274.324, 3461.067
2276.252, 3459.752
2278.181, 3441.345
2280.109, 3428.608
2282.038, 3424.581
2283.966, 3395.128
2285.895, 3402.837
2287.823, 3382.858
2289.752, 3366.293
2291.680, 3377.577
2293.609, 3342.051
2295.537, 3324.134
2297.466, 3334.992
2299.394, 3328.475
2301.323, 3310.370
2303.251, 3290.354
2305.179, 3280.056
2307.108, 3271.922
2309.036, 3261.972
2310.965, 3254.087
2312.893, 3223.889
2314.822, 3211.365
2316.750, 3210.315
2318.679, 3208.337
2320.607, 3207.121
2322.536, 3200.971
2324.464, 3170.207
2326.393, 3146.604
2328.321, 3135.921
2330.250, 3126.922
2332.178, 3119.257
2334.106, 3109.645
2336.035, 3100.585
2337.963, 3084.703
2339.892, 3080.320
2341.820, 3072.352
2343.749, 3059.690
2345.677, 3041.284
2347.606, 3028.108
2349.534, 3020.490
2351.463, 3008.202
2353.391, 3002.450
2355.320, 2996.790
2357.248, 2985.977
2359.177, 2991.496
2361.105, 2971.990
2363.033, 2965.186
2364.962, 2995.641
2366.890, 3015.068
2368.819, 2999.012
2370.747, 2932.469
2372.676, 2907.801
2374.604, 2896.376
2376.533, 2866.351
2378.461, 2861.605
2380.390, 2850.915
2382.318, 2856.606
2384.247, 2843.652
2386.175, 2843.300
2388.104, 2846.305
2390.032, 2828.861
2391.960, 2820.378
2393.889, 2808.649
2395.817, 2787.089
2397.746, 2777.498
2399.674, 2760.311
2401.603, 2739.922
2403.531, 2730.201
2405.460, 2717.791
2407.388, 2693.292
2409.317, 2669.872
2411.245, 2655.433
2413.174, 2652.468
2415.102, 2654.787
2417.031, 2650.625
2418.959, 2634.396
2420.887, 2629.491
2422.816, 2627.566
2424.744, 2606.189
2426.673, 2587.630
2428.601, 2578.247
2430.530, 2561.131
2432.458, 2550.906
2434.387, 2547.231
2436.315, 2509.177
2438.244, 2489.410
2440.172, 2509.569
2442.101, 2483.622
2444.029, 2447.941
2445.958, 2448.102
2447.886, 2456.441
2449.814, 2454.218
2451.743, 2443.346
2453.671, 2415.767
2455.600, 2414.571
2457.528, 2387.813
2459.457, 2372.808
2461.385, 2368.343
2463.314, 2359.988
2465.242, 2356.092
2467.171, 2357.075
2469.099, 2333.730
2471.028, 2314.958
2472.956, 2321.707
2474.885, 2311.220
2476.813, 2291.503
2478.741, 2277.630
2480.670, 2267.508
2482.598, 2259.737
2484.527, 2265.479
2486.455, 2259.502
2488.384, 2240.241
2490.312, 2245.230
2492.241, 2233.444
2494.169, 2195.389
2496.098, 2168.292
2498.026, 2167.606
2499.955, 2185.652
2501.883, 2160.915
2503.812, 2129.759
2505.740, 2112.745
2507.668, 2094.924
2509.597, 2077.494
2511.525, 2068.054
2513.454, 2072.392
2515.382, 2052.611
2517.311, 2056.961
2519.239, 2053.667
2521.168, 2040.609
2523.096, 2031.191
2525.025, 2025.711
2526.953, 2014.344
2528.882, 1995.956
2530.810, 1992.220
2532.739, 1995.455
2534.667, 1982.092
2536.595, 1965.043
2538.524, 1950.308
2540.452, 1942.770
2542.381, 1935.704
2544.309, 1933.144
2546.238, 1929.490
2548.166, 1933.044
2550.095, 1928.547
2552.023, 1914.387
2553.952, 1896.699
2555.880, 1880.851
2557.809, 1871.444
2559.737, 1859.732
2561.666, 1852.892
2563.594, 1843.541
2565.522, 1832.411
2567.451, 1824.473
2569.379, 1809.616
2571.308, 1801.834
2573.236, 1790.965
2575.165, 1787.227
2577.093, 1774.234
2579.022, 1773.297
2580.950, 1772.924
2582.879, 1771.840
2584.807, 1759.519
2586.736, 1752.608
2588.664, 1736.752
2590.593, 1709.067
2592.521, 1697.969
2594.449, 1723.579
2596.378, 1743.462
2598.306, 1702.907
2600.235, 1677.877
2602.163, 1674.071
2604.092, 1667.534
2606.020, 1667.112
2607.949, 1666.879
2609.877, 1653.247
2611.806, 1639.985
2613.734, 1640.978
2615.663, 1637.243
2617.591, 1621.604
2619.520, 1603.642
2621.448, 1597.899
2623.376, 1598.128
2625.305, 1595.411
2627.233, 1578.217
2629.162, 1561.162
2631.090, 1551.003
2633.019, 1549.388
2634.947, 1545.161
2636.876, 1537.179
2638.804, 1542.620
2640.733, 1544.845
2642.661, 1539.419
2644.590, 1531.208
2646.518, 1521.856
2648.447, 1530.534
2650.375, 1520.683
2652.303, 1492.964
2654.232, 1473.292
2656.160, 1478.098
2658.089, 1485.268
2660.017, 1470.516
2661.946, 1459.835
2663.874, 1464.786
2665.803, 1458.549
2667.731, 1456.348
2669.660, 1447.234
2671.588, 1443.726
2673.517, 1427.233
2675.445, 1401.392
2677.374, 1397.535
2679.302, 1379.608
2681.230, 1371.075
2683.159, 1378.590
2685.087, 1372.822
2687.016, 1354.639
2688.944, 1342.303
2690.873, 1356.973
2692.801, 1357.794
2694.730, 1339.297
2696.658, 1343.165
2698.587, 1343.084
2700.515, 1331.606
2702.444, 1302.224
2704.372, 1289.972
2706.301, 1298.973
2708.229, 1311.938
2710.157, 1303.044
2712.086, 1278.916
2714.014, 1255.734
2715.943, 1252.601
2717.871, 1252.006
2719.800, 1241.330
2721.728, 1251.767
2723.657, 1260.581
2725.585, 1246.868
2727.514, 1240.304
2729.442, 1237.800
2731.371, 1226.725
2733.299, 1223.880
2735.228, 1212.747
2737.156, 1213.792
2739.084, 1210.009
2741.013, 1203.593
2742.941, 1191.251
2744.870, 1182.894
2746.798, 1170.190
2748.727, 1153.110
2750.655, 1159.813
2752.584, 1162.202
2754.512, 1145.678
2756.441, 1138.057
2758.369, 1141.893
2760.298, 1148.449
2762.226, 1148.010
2764.155, 1144.180
2766.083, 1137.457
2768.011, 1128.005
2769.940, 1116.237
2771.868, 1102.328
2773.797, 1093.603
2775.725, 1094.223
2777.654, 1086.966
2779.582, 1070.110
2781.511, 1100.794
2783.439, 1103.180
2785.368, 1076.978
2787.296, 1059.361
2789.225, 1048.122
2791.153, 1048.847
2793.082, 1039.149
2795.010, 1040.161
2796.938, 1035.927
2798.867, 1042.956
2800.795, 1032.092
2802.724, 1032.208
2804.652, 1035.422
2806.581, 1009.885
2808.509, 1003.009
2810.438, 1011.819
2812.366, 997.8399
2814.295, 991.1268
2816.223, 994.4763
2818.152, 997.7433
2820.080, 978.3941
2822.009, 972.8748
2823.937, 974.6637
2825.865, 964.5700
2827.794, 973.1049
2829.722, 981.8992
2831.651, 974.4733
2833.579, 967.6230
2835.508, 951.6465
2837.436, 947.4622
2839.365, 925.9049
2841.293, 937.2399
2843.222, 924.7769
2845.150, 927.4337
2847.079, 923.7841
2849.007, 897.2391
2850.936, 889.1875
2852.864, 896.8835
2854.792, 907.4414
2856.721, 900.1098
2858.649, 903.5806
2860.578, 891.6346
2862.506, 892.5345
2864.435, 882.9988
2866.363, 883.4265
2868.292, 867.8127
2870.220, 882.1571
2872.149, 881.9626
2874.077, 875.1489
2876.006, 862.2914
2877.934, 858.7635
2879.863, 847.8845
2881.791, 839.9679
2883.719, 833.8468
2885.648, 824.5337
2887.576, 826.8047
2889.505, 821.5248
2891.433, 817.0917
2893.362, 806.0334
2895.290, 807.8462
2897.219, 805.4180
2899.147, 796.0870
2901.076, 802.7419
2903.004, 799.2718
2904.933, 789.6000
2906.861, 777.7097
2908.790, 777.8493
2910.718, 783.3516
2912.646, 785.0648
2914.575, 771.8055
2916.503, 761.9903
2918.432, 756.3229
2920.360, 748.1694
2922.289, 742.3025
2924.217, 750.0947
2926.146, 760.2921
2928.074, 736.8854
2930.003, 726.5426
2931.931, 729.3503
2933.860, 718.5848
2935.788, 719.0729
2937.717, 727.1467
2939.645, 726.3415
2941.573, 703.8785
2943.502, 709.0643
2945.430, 726.7340
2947.359, 695.0101
2949.287, 699.7926
2951.216, 705.4952
2953.144, 692.5092
2955.073, 699.2079
2957.001, 673.5173
2958.930, 695.0325
2960.858, 678.7873
2962.787, 665.4436
2964.715, 655.2333
2966.644, 648.7734
2968.572, 664.6056
2970.500, 656.5472
2972.429, 639.2108
2974.357, 661.1877
2976.286, 655.9174
2978.214, 638.1044
2980.143, 622.2903
2982.071, 623.8134
2984.000, 612.8720
2985.928, 610.2126
2987.857, 607.3289
2989.785, 605.7935
2991.714, 605.1840
2993.642, 602.2887
2995.571, 592.8387
2997.499, 597.8889
2999.427, 602.7705
3001.356, 586.6984
3003.284, 580.8018
3005.213, 581.2451
3007.141, 583.3120
3009.070, 572.3182
3010.998, 570.8855
3012.927, 581.7945
3014.855, 578.9795
3016.784, 560.8826
3018.712, 567.6356
3020.641, 566.1771
3022.569, 527.5477
3024.498, 521.0974
3026.426, 534.0284
3028.354, 544.5765
3030.283, 540.1577
3032.211, 544.0540
3034.140, 540.9393
3036.068, 525.3376
3037.997, 512.1425
3039.925, 512.8956
3041.854, 509.9061
3043.782, 495.2856
3045.711, 488.9082
3047.639, 491.2044
3049.568, 483.7188
3051.496, 487.0821
3053.425, 483.8540
3055.353, 488.7657
3057.281, 496.8232
3059.210, 478.3862
3061.138, 486.1273
3063.067, 499.9171
3064.995, 472.5410
3066.924, 456.9953
3068.852, 459.6815
3070.781, 471.3218
3072.709, 463.7329
3074.638, 448.5586
3076.566, 437.7998
3078.495, 438.9500
3080.423, 435.1209
3082.352, 434.1878
3084.280, 436.1703
3086.208, 435.1137
3088.137, 437.2886
3090.065, 435.8539
3091.994, 429.3839
3093.922, 428.7241
3095.851, 420.9356
3097.779, 419.9401
3099.708, 409.5480
3101.636, 401.3134
3103.565, 401.1313
3105.493, 399.0686
3107.422, 389.1043
3109.350, 403.8873
3111.279, 405.2152
3113.207, 399.4057
3115.135, 394.5476
3117.064, 389.9327
3118.992, 381.8670
3120.921, 373.5974
3122.849, 360.5112
3124.778, 359.5598
3126.706, 355.5663
3128.635, 364.5566
3130.563, 354.4762
3132.492, 355.5997
3134.420, 356.1395
3136.349, 353.0812
3138.277, 355.1911
3140.206, 360.0770
3142.134, 359.4115
3144.063, 350.8949
3145.991, 349.5060
3147.919, 335.2878
3149.848, 325.0957
3151.776, 330.7762
3153.705, 331.5597
3155.633, 338.4902
3157.562, 345.1480
3159.490, 341.9634
3161.419, 342.5189
3163.347, 335.0498
3165.276, 327.2960
3167.204, 319.3706
3169.133, 306.0886
3171.061, 316.5596
3172.990, 324.4642
3174.918, 306.5111
3176.846, 291.8845
3178.775, 290.8735
3180.703, 303.3425
3182.632, 324.8549
3184.560, 318.4120
3186.489, 303.3972
3188.417, 292.1445
3190.346, 288.6798
3192.274, 279.5626
3194.203, 274.3223
3196.131, 272.1358
3198.060, 271.3916
3199.988, 270.6414
3201.917, 268.1624
3203.845, 267.0278
3205.773, 269.0966
3207.702, 256.5420
3209.630, 259.3367
3211.559, 265.6864
3213.487, 254.5687
3215.416, 260.0966
3217.344, 259.2468
3219.273, 257.2961
3221.201, 266.7876
3223.130, 252.0878
3225.058, 244.0905
3226.987, 243.7472
3228.915, 243.0049
3230.844, 238.7800
3232.772, 246.0945
3234.700, 236.4332
3236.629, 247.8163
3238.557, 252.6764
3240.486, 245.4905
3242.414, 240.9217
3244.343, 246.5036
3246.271, 241.7804
3248.200, 252.2017
3250.128, 241.6941
3252.057, 207.6634
3253.985, 219.1096
3255.914, 225.9355
3257.842, 238.3266
3259.771, 243.4399
3261.699, 239.2496
3263.627, 219.0699
3265.556, 230.5084
3267.484, 225.4810
3269.413, 233.0919
3271.341, 221.1465
3273.270, 230.3691
3275.198, 237.4580
3277.127, 211.2632
3279.055, 223.7871
3280.984, 222.7355
3282.912, 210.9837
3284.841, 201.8265
3286.769, 200.3040
3288.698, 205.0432
3290.626, 195.7764
3292.554, 200.8938
3294.483, 201.7441
3296.411, 205.7033
3298.340, 202.1714
3300.268, 198.1844
3302.197, 193.5858
3304.125, 190.4948
3306.054, 186.5897
3307.982, 195.3333
3309.911, 185.5234
3311.839, 191.0293
3313.768, 170.5686
3315.696, 186.4177
3317.625, 175.1029
3319.553, 209.5119
3321.481, 187.6049
3323.410, 188.6340
3325.338, 199.6595
3327.267, 188.1063
3329.195, 187.8317
3331.124, 185.2429
3333.052, 181.6713
3334.981, 179.8075
3336.909, 179.7351
3338.838, 176.1130
3340.766, 180.9971
3342.695, 173.1945
3344.623, 172.9220
3346.552, 177.9837
3348.480, 180.8419
3350.408, 182.3762
3352.337, 184.5982
3354.265, 166.5808
3356.194, 157.1876
3358.122, 166.0794
3360.051, 183.7274
3361.979, 173.3268
3363.908, 185.6402
3365.836, 176.1953
3367.765, 154.4226
3369.693, 148.5593
3371.622, 152.3420
3373.550, 161.3561
3375.479, 165.4433
3377.407, 160.7711
3379.335, 153.6704
3381.264, 154.7810
3383.192, 143.2423
3385.121, 152.7135
3387.049, 143.2979
3388.978, 145.6716
3390.906, 153.4112
3392.835, 159.7252
3394.763, 157.9817
3396.692, 158.8632
3398.620, 155.1009
3400.549, 149.6545
3402.477, 132.2778
3404.406, 120.7368
3406.334, 127.8812
3408.262, 131.6086
3410.191, 138.7622
3412.119, 146.7623
3414.048, 148.2454
3415.976, 144.7409
3417.905, 150.1926
3419.833, 145.2169
3421.762, 139.9929
3423.690, 136.3002
3425.619, 127.0636
3427.547, 118.0610
3429.476, 115.6788
3431.404, 121.7305
3433.333, 103.2433
3435.261, 126.7931
3437.189, 143.7619
3439.118, 138.9345
3441.046, 120.7377
3442.975, 108.7306
3444.903, 120.2265
3446.832, 128.9006
3448.760, 128.1089
3450.689, 127.7880
3452.617, 135.4258
3454.546, 115.9865
3456.474, 105.7373
3458.403, 119.4609
3460.331, 140.2203
3462.260, 134.5823
3464.188, 125.9339
3466.116, 121.3312
3468.045, 115.7193
3469.973, 97.12012
3471.902, 102.4707
3473.830, 92.10987
3475.759, 90.70007
3477.687, 107.3868
3479.616, 99.46601
3481.544, 102.8888
3483.473, 107.5449
3485.401, 105.2328
3487.330, 105.7934
3489.258, 95.10223
3491.187, 100.8220
3493.115, 98.51972
3495.043, 94.47511
3496.972, 95.55514
3498.900, 97.24141
3500.829, 81.56310
3502.757, 101.6681
3504.686, 119.7584
3506.614, 109.3363
3508.543, 116.1354
3510.471, 113.3080
3512.400, 108.0873
3514.328, 110.3364
3516.257, 106.7493
3518.185, 105.7361
3520.114, 103.2640
3522.042, 101.8011
3523.970, 98.64648
3525.899, 92.77153
3527.827, 88.63712
3529.756, 81.72505
3531.684, 82.49340
3533.613, 82.98697
3535.541, 92.25660
3537.470, 98.15150
3539.398, 90.14625
3541.327, 69.15736
3543.255, 62.70024
3545.184, 75.37897
3547.112, 92.53196
3549.041, 81.45362
3550.969, 82.49277
3552.897, 72.15930
3554.826, 67.61786
3556.754, 86.78774
3558.683, 89.53937
3560.611, 83.42690
3562.540, 88.27779
3564.468, 64.91496
3566.397, 78.41261
3568.325, 70.76348
3570.254, 59.94055
3572.182, 71.48125
3574.111, 68.51563
3576.039, 56.40419
3577.968, 73.93829
3579.896, 75.88869
3581.824, 77.18124
3583.753, 71.84719
3585.681, 62.93517
3587.610, 59.80893
3589.538, 72.91337
3591.467, 54.60932
3593.395, 71.84019
3595.324, 82.21761
3597.252, 75.26984
3599.181, 86.98892
3601.109, 65.75556
3603.038, 74.67371
3604.966, 76.61788
3606.895, 61.37188
3608.823, 45.56984
3610.751, 62.49598
3612.680, 58.21662
3614.608, 65.87204
3616.537, 76.07366
3618.465, 76.25895
3620.394, 77.70882
3622.322, 65.68092
3624.251, 73.01112
3626.179, 63.19943
3628.108, 60.94906
3630.036, 73.13132
3631.965, 53.37306
3633.893, 66.22574
3635.822, 66.82864
3637.750, 61.24284
3639.678, 53.83157
3641.607, 49.24533
3643.535, 71.15496
3645.464, 81.90032
3647.392, 64.76937
3649.321, 56.71333
3651.249, 68.05011
3653.178, 79.00588
3655.106, 65.41160
3657.035, 72.38325
3658.963, 81.53205
3660.892, 64.99615
3662.820, 48.98024
3664.749, 78.10975
3666.677, 77.52722
3668.605, 72.88757
3670.534, 62.90816
3672.462, 54.32942
3674.391, 53.83455
3676.319, 61.91954
3678.248, 71.99030
3680.176, 64.44553
3682.105, 66.40130
3684.033, 70.35266
3685.962, 61.71600
3687.890, 62.92922
3689.819, 62.45526
3691.747, 57.15137
3693.676, 62.15090
3695.604, 60.96428
3697.532, 60.02467
3699.461, 55.85113
3701.389, 59.80422
3703.318, 61.03920
3705.246, 60.85128
3707.175, 45.33983
3709.103, 58.80596
3711.032, 51.24620
3712.960, 40.87805
3714.889, 64.92041
3716.817, 61.35137
3718.746, 56.40619
3720.674, 50.62649
3722.603, 34.01817
3724.531, 35.41237
3726.459, 35.42115
3728.388, 57.82787
3730.316, 46.53531
3732.245, 48.02341
3734.173, 54.95237
3736.102, 51.03715
3738.030, 52.22331
3739.959, 27.80105
3741.887, 27.93219
3743.816, 49.61235
3745.744, 70.18909
3747.673, 73.36060
3749.601, 52.11445
3751.530, 44.04514
3753.458, 49.11049
3755.386, 49.37624
3757.315, 47.79047
3759.243, 51.88130
3761.172, 58.54754
3763.100, 63.70423
3765.029, 60.42812
3766.957, 43.90864
3768.886, 51.66446
3770.814, 49.72765
3772.743, 44.90932
3774.671, 68.01184
3776.600, 51.73634
3778.528, 64.15530
3780.457, 58.82018
3782.385, 54.61790
3784.313, 61.27774
3786.242, 57.78667
3788.170, 61.23382
3790.099, 62.31277
3792.027, 50.22790
3793.956, 61.12721
3795.884, 57.53601
3797.813, 50.42766
3799.741, 69.52338
3801.670, 54.50319
3803.598, 63.35411
3805.527, 55.16552
3807.455, 46.60568
3809.384, 44.82622
3811.312, 44.28563
3813.240, 43.02162
3815.169, 54.41835
3817.097, 50.92841
3819.026, 49.42344
3820.954, 59.76804
3822.883, 59.38624
3824.811, 46.84971
3826.740, 41.73508
3828.668, 30.60983
3830.597, 46.78760
3832.525, 44.42641
3834.454, 41.11387
3836.382, 36.66729
3838.311, 31.23264
3840.239, 32.27952
3842.167, 41.60461
3844.096, 40.58249
3846.024, 54.54059
3847.953, 52.18900
3849.881, 50.35241
3851.810, 43.50064
3853.738, 33.40208
3855.667, 59.33075
3857.595, 75.63550
3859.524, 59.99754
3861.452, 58.26274
3863.381, 38.14847
3865.309, 50.01978
3867.238, 69.89434
3869.166, 41.18227
3871.094, 58.81696
3873.023, 41.62432
3874.951, 52.67581
3876.880, 53.29400
3878.808, 44.65866
3880.737, 49.34986
3882.665, 54.02895
3884.594, 34.02487
3886.522, 37.81102
3888.451, 39.09111
3890.379, 34.85063
3892.308, 47.96270
3894.236, 39.35063
3896.165, 42.18723
3898.093, 46.68628
3900.021, 41.13031
3901.950, 37.50903
3903.878, 49.81248
3905.807, 53.09034
3907.735, 56.19978
3909.664, 57.03704
3911.592, 48.82472
3913.521, 54.01423
3915.449, 24.22836
3917.378, 52.64398
3919.306, 50.64085
3921.235, 39.71577
3923.163, 55.69630
3925.092, 55.56518
3927.020, 55.63030
3928.948, 62.09341
3930.877, 54.12144
3932.805, 42.37635
3934.734, 57.52454
3936.662, 73.96849
3938.591, 42.68008
3940.519, 34.76521
3942.448, 47.12366
3944.376, 45.56042
3946.305, 37.87391
3948.233, 52.64960
3950.162, 60.88204
3952.090, 41.38062
3954.019, 43.60766
3955.947, 43.09795
3957.875, 53.88590
3959.804, 40.90047
3961.732, 31.15931
3963.661, 43.12522
3965.589, 29.92871
3967.518, 39.76335
3969.446, 24.92363
3971.375, 35.19798
3973.303, 35.63442
3975.232, 25.47833
3977.160, 26.62834
3979.089, 33.95557
3981.017, 32.19391
3982.946, 26.38303
3984.874, 26.28319
3986.802, 20.66271
3988.731, 14.24919
3990.659, 12.38809
3992.588, -0.2632287
3994.516, -2.082000
3996.445, -7.674382
3998.373, -3.970096
4000.302, -1.212876
4002.230, -6.056143
4004.159, -3.576933
4006.087, 16.90321
4008.016, -3.878572
4009.944, 13.15975
4011.873, 7.906056
4013.801, -4.988406
4015.729, 5.506369
4017.658, -3.644720
4019.586, -3.394594
4021.515, 12.28017
4023.443, 0.5334015
4025.372, 24.05665
4027.300, -1.546252
4029.229, 8.206660
4031.157, 16.77797
4033.086, 5.786124
4035.014, -18.89184
4036.943, -3.156140
4038.871, 10.11110
4040.800, -10.46780
4042.728, 0.9864338
4044.656, 16.28518
4046.585, 6.201480
4048.513, 9.784754
4050.442, 17.74558
4052.370, 11.34855
4054.299, 4.745911
4056.227, 0.3495073
4058.156, 5.005011
4060.084, 6.859881
4062.013, -4.326553
4063.941, 16.12491
4065.870, 14.54766
4067.798, 34.43997
4069.727, 27.55800
4071.655, 9.747666
4073.583, 10.59191
4075.512, 13.40219
4077.440, 17.32049
4079.369, 14.88377
4081.297, 26.31634
4083.226, 7.854301
4085.154, 1.894556
4087.083, -8.286604
4089.011, 9.935572
4090.940, 22.04191
4092.868, 4.047307
4094.797, -4.573723
4096.725, 2.685867
4098.653, 12.60561
4100.582, 5.657890
4102.510, 0.9602994
4104.439, 2.097592
4106.367, 11.65534
4108.296, 1.578947
4110.224, 6.764290
4112.153, -3.387718
4114.081, 5.215342
4116.010, -2.388374
4117.938, -7.877569
4119.867, 4.506309
4121.795, 5.012895
4123.724, -2.708399
4125.652, 2.945512
4127.581, 0.6004065
4129.509, 6.378468
4131.438, 8.298688
4133.366, -0.3116443
4135.294, 15.46869
4137.223, 9.843124
4139.151, 38.15445
4141.080, 29.90432
4143.008, 5.098146
4144.937, 7.643598
4146.865, 25.92531
4148.793, 22.77562
4150.722, 5.198828
4152.650, 15.48569
4154.579, -0.2495983
4156.507, -6.044014
4158.436, -9.192865
4160.364, 4.381365
4162.293, 8.910443
4164.221, 20.52670
4166.150, 1.235506
4168.078, -9.114686
4170.007, 3.191284
4171.935, 12.50592
4173.864, 0.4577741
4175.792, -5.192160
4177.721, -2.954497
4179.649, 13.56191
4181.578, -4.330392
4183.506, 10.26841
4185.435, 10.95568
4187.363, 9.800511
4189.292, 16.99064
4191.220, 29.41269
4193.148, -4.656783
4195.077, -10.56093
4197.005, -9.869042
4198.934, -1.130135
4200.862, 7.717948
4202.791, 2.051208
4204.719, 7.268096
4206.647, -15.34680
4208.576, -4.151463
4210.504, -8.659904
4212.433, 33.11147
4214.361, 19.17023
4216.290, 4.186490
4218.218, 21.20054
4220.147, 11.49829
4222.075, 12.93828
4224.004, 0.9771729
4225.932, 11.06692
4227.861, 25.48645
4229.789, 17.81241
4231.718, 1.914131
4233.646, 9.549503
4235.575, 30.09372
4237.503, 8.962628
4239.432, 25.90506
4241.360, 9.2515953E-02
4243.289, -4.693589
4245.217, 9.460502
4247.146, 22.84034
4249.074, 10.31608
4251.002, 16.17031
4252.931, 10.75242
4254.859, 17.01440
4256.788, 20.80498
4258.716, 9.139633
4260.645, 2.062689
4262.573, -6.493756
4264.501, -7.038011
4266.430, -4.413390
4268.358, -4.007561
4270.287, 10.91005
4272.215, -0.7701615
4274.144, -11.79600
4276.072, -16.89766
4278.001, 6.484002
4279.929, 14.80427
4281.858, 8.288377
4283.786, 34.80666
4285.715, 19.31107
4287.643, 5.599318
4289.572, -12.62996
4291.500, 11.79000
4293.429, 14.31901
4295.357, 4.183253
4297.286, 8.444641
4299.214, 17.20906
4301.143, 12.99974
4303.071, 5.518103
4305.000, 9.596673
4306.928, 9.203187
4308.856, 4.497416
4310.785, 7.858899
4312.713, 8.836366
4314.642, 19.30313
4316.570, 27.33473
4318.499, 24.17408
4320.427, 35.63110
4322.355, 35.98826
4324.284, 7.093540
4326.212, -24.55149
4328.141, 10.80310
4330.069, 4.943471
4331.998, 0.9813036
4333.926, 6.475561
4335.855, 13.42010
4337.783, 17.29236
4339.712, 19.82634
4341.640, 30.32154
4343.569, 15.89674
4345.497, 16.97071
4347.426, 0.9074066
4349.354, -10.83512
4351.283, -4.083174
4353.211, 10.57879
4355.140, 14.00959
4357.068, 9.378850
4358.997, 11.41384
4360.925, 10.82706
4362.854, 5.575893
4364.782, 8.011482
4366.710, 22.47282
4368.639, 17.04780
4370.567, 24.69852
4372.496, 13.83371
4374.424, 27.80834
4376.353, -9.183425
4378.281, 24.98299
4380.209, -7.662803
4382.138, 11.99060
##END=



