##NAMES=Johachidolite
##RRUFFID=R070640
##IDEAL CHEMISTRY=CaAlB_3_O_7_
##LOCALITY=Pyant Gyi mine, Mogok Stone Tract, Mandalay Division, Burma
##OWNER=RRUFF
##SOURCE=Marcus Origlieri
##DESCRIPTION=Pale yellowish orange granular
##STATUS=The identification of this mineral has been confirmed by X-ray diffraction and chemical analysis
##URL=https://www.rruff.net/odr/rruff_sample/R070640
##MEASURED CHEMISTRY=Ca_1.00_Al_1.00_B_3.00_O_7_ ; B estimated by difference
##DIFFRACTION SAMPLE DESCRIPTION=Powder
##CELL PARAMETERS=a: 7.9652 b: 11.7275 c: 4.37149 alpha: 90 beta: 90 gamma: 90 volume: 408.35 crystal system: orthorhombic
##FILETYPE=Raman RAW
##RAMAN WAVELENGTH=532

211.5166, 821.6580
213.4451, 819.1581
215.3736, 815.3849
217.3020, 816.4619
219.2305, 826.2043
221.1590, 835.0742
223.0874, 841.7065
225.0159, 846.3776
226.9444, 851.4143
228.8728, 860.7903
230.8013, 867.2355
232.7298, 865.6851
234.6582, 856.0953
236.5867, 852.5928
238.5152, 863.2697
240.4436, 879.5725
242.3721, 891.2589
244.3006, 891.6284
246.2290, 892.9669
248.1575, 898.1846
250.0860, 906.6729
252.0145, 916.8796
253.9429, 928.2216
255.8714, 942.5143
257.7999, 960.4971
259.7283, 974.2962
261.6568, 1000.145
263.5853, 1034.284
265.5137, 1078.828
267.4422, 1163.805
269.3707, 1217.609
271.2991, 1358.775
273.2276, 1713.940
275.1561, 2331.118
277.0845, 2964.936
279.0130, 3691.718
280.9415, 4418.709
282.8699, 4726.880
284.7984, 4430.032
286.7269, 3938.197
288.6553, 3440.185
290.5838, 2932.975
292.5123, 2514.309
294.4407, 2203.337
296.3692, 1982.597
298.2977, 1800.167
300.2261, 1653.196
302.1546, 1546.220
304.0831, 1476.995
306.0115, 1446.352
307.9400, 1449.593
309.8685, 1469.118
311.7969, 1531.770
313.7254, 1665.724
315.6539, 1915.337
317.5823, 2155.908
319.5108, 2369.572
321.4393, 2549.677
323.3677, 2642.461
325.2962, 2571.883
327.2247, 2466.170
329.1531, 2394.826
331.0816, 2295.970
333.0101, 2375.980
334.9385, 2691.613
336.8670, 3237.596
338.7955, 3871.432
340.7239, 4834.117
342.6524, 5613.594
344.5809, 5983.254
346.5093, 5757.507
348.4378, 5433.583
350.3663, 4927.904
352.2947, 4372.281
354.2232, 3944.626
356.1517, 3654.639
358.0801, 3497.486
360.0086, 3452.698
361.9371, 3526.880
363.8655, 3751.286
365.7940, 4318.696
367.7225, 4918.873
369.6509, 5347.253
371.5794, 5625.871
373.5079, 5643.396
375.4363, 5284.832
377.3648, 4604.218
379.2933, 3995.194
381.2217, 3454.954
383.1502, 2989.162
385.0787, 2593.202
387.0071, 2279.359
388.9356, 2017.036
390.8641, 1810.604
392.7925, 1650.559
394.7210, 1519.758
396.6495, 1424.221
398.5779, 1345.776
400.5064, 1274.702
402.4349, 1212.371
404.3633, 1169.019
406.2918, 1149.815
408.2203, 1143.305
410.1487, 1143.561
412.0772, 1151.449
414.0057, 1164.690
415.9341, 1173.909
417.8626, 1186.366
419.7911, 1220.020
421.7195, 1232.852
423.6480, 1319.046
425.5765, 1542.232
427.5049, 1904.396
429.4334, 2257.275
431.3619, 2683.547
433.2903, 3053.671
435.2188, 3184.597
437.1473, 3029.641
439.0757, 2859.016
441.0042, 2715.270
442.9327, 2609.249
444.8611, 2598.344
446.7896, 2777.982
448.7181, 2965.306
450.6465, 3108.648
452.5750, 3216.695
454.5035, 3246.243
456.4319, 3089.948
458.3604, 2902.115
460.2889, 2780.299
462.2173, 2672.135
464.1458, 2752.693
466.0743, 3083.448
468.0027, 3655.617
469.9312, 4429.358
471.8597, 5805.551
473.7881, 6926.551
475.7166, 7450.316
477.6451, 7323.695
479.5735, 6933.491
481.5020, 6131.596
483.4305, 5183.782
485.3589, 4383.737
487.2874, 3767.286
489.2159, 3260.104
491.1443, 2851.255
493.0728, 2541.354
495.0013, 2295.881
496.9297, 2116.711
498.8582, 1981.324
500.7867, 1876.255
502.7151, 1802.159
504.6436, 1761.468
506.5721, 1741.413
508.5005, 1756.752
510.4290, 1818.702
512.3575, 1920.206
514.2859, 2073.566
516.2144, 2331.257
518.1429, 2629.667
520.0714, 2905.321
521.9998, 3176.812
523.9283, 3359.481
525.8568, 3396.670
527.7852, 3299.302
529.7137, 3127.885
531.6422, 2834.001
533.5706, 2540.987
535.4991, 2309.003
537.4276, 2137.691
539.3560, 1981.829
541.2845, 1829.317
543.2130, 1693.897
545.1414, 1582.095
547.0699, 1495.522
548.9984, 1428.729
550.9268, 1377.155
552.8553, 1339.491
554.7838, 1322.171
556.7122, 1324.709
558.6407, 1335.880
560.5692, 1349.781
562.4976, 1380.725
564.4261, 1441.396
566.3546, 1504.536
568.2830, 1619.469
570.2115, 1768.685
572.1400, 1980.670
574.0684, 2348.925
575.9969, 2914.896
577.9254, 3810.960
579.8538, 5130.868
581.7823, 6912.777
583.7108, 8377.830
585.6392, 9250.010
587.5677, 9459.096
589.4962, 9025.461
591.4246, 8007.732
593.3531, 6851.455
595.2816, 5889.355
597.2100, 5088.528
599.1385, 4418.818
601.0670, 3867.911
602.9954, 3424.674
604.9239, 3070.870
606.8524, 2775.230
608.7808, 2515.610
610.7093, 2300.906
612.6378, 2133.728
614.5662, 2001.577
616.4947, 1903.370
618.4232, 1831.978
620.3516, 1777.929
622.2801, 1737.231
624.2086, 1720.234
626.1370, 1729.511
628.0655, 1760.728
629.9940, 1794.739
631.9224, 1828.799
633.8509, 1869.276
635.7794, 1925.322
637.7078, 2003.415
639.6363, 2112.712
641.5648, 2257.000
643.4932, 2426.360
645.4217, 2606.047
647.3502, 2860.449
649.2786, 3162.628
651.2071, 3612.324
653.1356, 4304.862
655.0640, 5313.229
656.9925, 6752.715
658.9210, 8799.873
660.8494, 10923.40
662.7779, 12779.85
664.7064, 13826.14
666.6348, 13958.96
668.5633, 13109.22
670.4918, 11744.93
672.4202, 10269.06
674.3487, 8961.012
676.2772, 7932.426
678.2056, 7161.052
680.1341, 6527.495
682.0626, 5935.264
683.9910, 5282.622
685.9195, 4612.157
687.8480, 3953.620
689.7764, 3387.332
691.7049, 2947.772
693.6334, 2616.435
695.5618, 2345.050
697.4903, 2124.132
699.4188, 1948.012
701.3472, 1823.615
703.2757, 1739.483
705.2042, 1668.365
707.1326, 1602.812
709.0611, 1547.040
710.9896, 1503.907
712.9180, 1477.476
714.8465, 1463.790
716.7750, 1464.550
718.7034, 1473.672
720.6319, 1483.872
722.5604, 1488.399
724.4888, 1498.327
726.4173, 1517.795
728.3458, 1558.258
730.2742, 1614.437
732.2027, 1678.026
734.1312, 1746.981
736.0596, 1822.749
737.9881, 1912.947
739.9166, 2020.710
741.8450, 2149.003
743.7735, 2246.815
745.7020, 2299.017
747.6304, 2313.452
749.5589, 2296.496
751.4874, 2244.047
753.4158, 2182.053
755.3443, 2121.279
757.2728, 2061.780
759.2012, 1998.245
761.1297, 1928.421
763.0582, 1873.987
764.9866, 1850.120
766.9151, 1834.673
768.8436, 1804.529
770.7720, 1759.876
772.7005, 1723.198
774.6290, 1706.753
776.5574, 1696.210
778.4859, 1679.493
780.4144, 1648.557
782.3428, 1628.555
784.2713, 1629.474
786.1998, 1641.631
788.1282, 1656.165
790.0567, 1673.699
791.9852, 1699.003
793.9136, 1729.133
795.8421, 1767.592
797.7706, 1819.896
799.6990, 1874.663
801.6275, 1964.572
803.5560, 2108.000
805.4844, 2291.997
807.4129, 2479.203
809.3414, 2652.089
811.2698, 2858.881
813.1983, 3090.847
815.1268, 3362.916
817.0552, 3770.120
818.9837, 4285.812
820.9122, 5024.582
822.8406, 6120.087
824.7691, 7544.791
826.6976, 8750.836
828.6260, 9904.443
830.5545, 10592.68
832.4830, 10506.60
834.4114, 9802.778
836.3399, 8951.822
838.2684, 7868.258
840.1968, 6839.306
842.1253, 5922.589
844.0538, 5111.975
845.9822, 4427.805
847.9107, 3899.098
849.8392, 3445.352
851.7676, 3053.588
853.6961, 2722.988
855.6246, 2452.546
857.5530, 2255.974
859.4815, 2101.035
861.4100, 1984.988
863.3384, 1896.003
865.2669, 1811.139
867.1954, 1715.996
869.1238, 1642.148
871.0523, 1602.169
872.9808, 1584.902
874.9092, 1564.719
876.8377, 1539.678
878.7662, 1516.261
880.6946, 1494.595
882.6231, 1476.866
884.5516, 1467.046
886.4800, 1472.684
888.4085, 1476.007
890.3370, 1471.506
892.2654, 1464.323
894.1939, 1464.148
896.1224, 1473.616
898.0508, 1482.407
899.9793, 1484.284
901.9078, 1484.350
903.8362, 1491.601
905.7647, 1510.916
907.6932, 1526.442
909.6216, 1536.698
911.5501, 1541.500
913.4786, 1538.966
915.4070, 1522.419
917.3355, 1518.079
919.2640, 1527.601
921.1924, 1553.730
923.1209, 1599.257
925.0494, 1665.498
926.9778, 1723.208
928.9063, 1758.206
930.8348, 1790.819
932.7632, 1839.090
934.6917, 1913.455
936.6202, 1952.157
938.5486, 1942.077
940.4771, 1912.464
942.4056, 1873.638
944.3341, 1824.801
946.2626, 1778.635
948.1910, 1733.915
950.1195, 1700.091
952.0480, 1680.441
953.9764, 1674.333
955.9049, 1669.600
957.8334, 1652.773
959.7618, 1650.776
961.6903, 1686.465
963.6188, 1753.432
965.5472, 1799.577
967.4757, 1815.055
969.4042, 1823.370
971.3326, 1839.595
973.2611, 1853.216
975.1896, 1843.029
977.1180, 1795.676
979.0465, 1751.141
980.9750, 1721.654
982.9034, 1703.132
984.8319, 1682.200
986.7604, 1655.644
988.6888, 1630.388
990.6173, 1603.842
992.5458, 1583.624
994.4742, 1577.029
996.4027, 1585.922
998.3312, 1596.581
1000.260, 1610.729
1002.188, 1618.615
1004.117, 1612.171
1006.045, 1589.087
1007.974, 1584.788
1009.902, 1610.812
1011.830, 1641.645
1013.759, 1662.902
1015.687, 1676.061
1017.616, 1679.566
1019.544, 1671.537
1021.473, 1664.222
1023.401, 1660.905
1025.330, 1654.555
1027.258, 1655.251
1029.187, 1674.161
1031.115, 1690.243
1033.044, 1692.686
1034.972, 1677.466
1036.901, 1657.326
1038.829, 1645.594
1040.757, 1639.419
1042.686, 1635.378
1044.614, 1625.901
1046.543, 1616.080
1048.471, 1610.071
1050.400, 1606.165
1052.328, 1605.311
1054.257, 1605.094
1056.185, 1603.118
1058.114, 1601.348
1060.042, 1596.749
1061.971, 1588.040
1063.899, 1581.306
1065.828, 1579.627
1067.756, 1575.217
1069.684, 1570.409
1071.613, 1571.805
1073.541, 1577.379
1075.470, 1586.568
1077.398, 1595.040
1079.327, 1598.234
1081.255, 1593.030
1083.184, 1593.621
1085.112, 1611.796
1087.041, 1638.732
1088.969, 1656.142
1090.898, 1655.565
1092.826, 1659.939
1094.755, 1680.914
1096.683, 1712.729
1098.611, 1746.153
1100.540, 1768.162
1102.468, 1800.436
1104.397, 1857.257
1106.325, 1900.739
1108.254, 1902.359
1110.182, 1872.089
1112.111, 1849.173
1114.039, 1840.289
1115.968, 1828.501
1117.896, 1808.227
1119.825, 1784.212
1121.753, 1762.027
1123.682, 1739.522
1125.610, 1723.982
1127.538, 1713.295
1129.467, 1704.779
1131.395, 1699.428
1133.324, 1710.631
1135.252, 1719.923
1137.181, 1710.800
1139.109, 1694.071
1141.038, 1681.483
1142.966, 1678.154
1144.895, 1681.641
1146.823, 1692.004
1148.752, 1700.936
1150.680, 1693.682
1152.609, 1677.126
1154.537, 1674.934
1156.465, 1705.576
1158.394, 1726.504
1160.322, 1726.062
1162.251, 1724.911
1164.179, 1733.197
1166.108, 1743.838
1168.036, 1767.994
1169.965, 1829.853
1171.893, 1878.989
1173.822, 1890.115
1175.750, 1876.532
1177.679, 1878.294
1179.607, 1896.712
1181.536, 1936.253
1183.464, 2001.635
1185.392, 2059.798
1187.321, 2087.879
1189.249, 2090.533
1191.178, 2092.341
1193.106, 2076.135
1195.035, 2056.567
1196.963, 2047.731
1198.892, 2051.654
1200.820, 2062.651
1202.749, 2092.482
1204.677, 2115.249
1206.606, 2113.840
1208.534, 2095.543
1210.463, 2079.671
1212.391, 2069.012
1214.319, 2056.992
1216.248, 2048.743
1218.176, 2041.225
1220.105, 2020.703
1222.033, 1986.442
1223.962, 1955.187
1225.890, 1931.926
1227.819, 1920.715
1229.747, 1922.730
1231.676, 1927.064
1233.604, 1918.694
1235.533, 1886.335
1237.461, 1868.914
1239.390, 1879.751
1241.318, 1897.572
1243.246, 1910.867
1245.175, 1919.758
1247.103, 1924.735
1249.032, 1919.736
1250.960, 1919.963
1252.889, 1930.964
1254.817, 1945.693
1256.746, 1957.425
1258.674, 1965.009
1260.603, 1968.310
1262.531, 1970.645
1264.460, 1973.526
1266.388, 1966.450
1268.317, 1950.372
1270.245, 1941.982
1272.173, 1948.416
1274.102, 1953.946
1276.030, 1947.583
1277.959, 1940.181
1279.887, 1949.259
1281.816, 1983.369
1283.744, 2006.456
1285.673, 2004.635
1287.601, 1996.709
1289.530, 2001.310
1291.458, 2013.908
1293.387, 2016.864
1295.315, 2008.565
1297.244, 2003.361
1299.172, 2001.044
1301.100, 2000.016
1303.029, 2004.891
1304.957, 2014.979
1306.886, 2025.354
1308.814, 2036.764
1310.743, 2042.830
1312.671, 2039.038
1314.600, 2034.118
1316.528, 2033.385
1318.457, 2036.974
1320.385, 2036.503
1322.314, 2023.477
1324.242, 2017.689
1326.171, 2029.307
1328.099, 2047.615
1330.027, 2055.469
1331.956, 2043.670
1333.884, 2039.380
1335.813, 2048.189
1337.741, 2060.734
1339.670, 2071.438
1341.598, 2077.513
1343.527, 2074.895
1345.455, 2057.198
1347.384, 2044.980
1349.312, 2047.547
1351.241, 2055.265
1353.169, 2058.773
1355.098, 2059.797
1357.026, 2062.921
1358.954, 2065.246
1360.883, 2074.539
1362.811, 2106.940
1364.740, 2141.865
1366.668, 2149.788
1368.597, 2125.038
1370.525, 2113.347
1372.454, 2127.921
1374.382, 2146.935
1376.311, 2167.771
1378.239, 2186.488
1380.168, 2194.986
1382.096, 2187.599
1384.025, 2180.081
1385.953, 2171.240
1387.881, 2163.402
1389.810, 2155.853
1391.738, 2150.315
1393.667, 2153.029
1395.595, 2166.936
1397.524, 2180.334
1399.452, 2201.452
1401.381, 2212.961
1403.309, 2191.801
1405.238, 2150.189
1407.166, 2135.309
1409.095, 2156.258
1411.023, 2174.742
1412.952, 2176.194
1414.880, 2177.654
1416.808, 2193.171
1418.737, 2217.984
1420.665, 2233.900
1422.594, 2237.837
1424.522, 2239.597
1426.451, 2237.113
1428.379, 2236.256
1430.308, 2244.094
1432.236, 2261.681
1434.165, 2275.492
1436.093, 2286.420
1438.022, 2290.121
1439.950, 2282.038
1441.879, 2270.247
1443.807, 2263.509
1445.735, 2265.161
1447.664, 2265.727
1449.592, 2265.153
1451.521, 2260.948
1453.449, 2243.133
1455.378, 2227.972
1457.306, 2237.586
1459.235, 2274.376
1461.163, 2292.305
1463.092, 2284.711
1465.020, 2275.034
1466.949, 2260.423
1468.877, 2246.174
1470.806, 2247.796
1472.734, 2267.585
1474.662, 2269.778
1476.591, 2241.202
1478.519, 2216.657
1480.448, 2208.061
1482.376, 2206.035
1484.305, 2200.729
1486.233, 2195.245
1488.162, 2203.118
1490.090, 2233.133
1492.019, 2256.477
1493.947, 2262.816
1495.876, 2259.968
1497.804, 2249.729
1499.733, 2230.862
1501.661, 2221.293
1503.589, 2230.782
1505.518, 2242.705
1507.446, 2250.487
1509.375, 2254.485
1511.303, 2260.319
1513.232, 2267.496
1515.160, 2262.582
1517.089, 2239.509
1519.017, 2229.805
1520.946, 2250.547
1522.874, 2270.049
1524.803, 2268.531
1526.731, 2255.502
1528.660, 2258.895
1530.588, 2289.382
1532.516, 2302.641
1534.445, 2272.776
1536.373, 2249.688
1538.302, 2264.979
1540.230, 2301.179
1542.159, 2315.742
1544.087, 2288.618
1546.016, 2287.137
1547.944, 2332.216
1549.873, 2375.965
1551.801, 2402.445
1553.730, 2418.847
1555.658, 2435.531
1557.587, 2454.136
1559.515, 2464.783
1561.443, 2461.277
1563.372, 2462.200
1565.300, 2468.130
1567.229, 2479.268
1569.157, 2495.583
1571.086, 2519.558
1573.014, 2558.153
1574.943, 2620.793
1576.871, 2676.011
1578.800, 2731.113
1580.728, 2764.769
1582.657, 2755.235
1584.585, 2714.966
1586.514, 2681.575
1588.442, 2659.087
1590.370, 2627.265
1592.299, 2573.212
1594.227, 2524.710
1596.156, 2484.281
1598.084, 2458.252
1600.013, 2468.727
1601.941, 2517.934
1603.870, 2535.035
1605.798, 2495.163
1607.727, 2459.981
1609.655, 2452.033
1611.584, 2452.726
1613.512, 2448.020
1615.441, 2439.105
1617.369, 2427.997
1619.297, 2413.239
1621.226, 2401.951
1623.154, 2394.368
1625.083, 2390.286
1627.011, 2390.449
1628.940, 2393.817
1630.868, 2399.231
1632.797, 2406.912
1634.725, 2412.454
1636.654, 2414.054
1638.582, 2416.427
1640.511, 2420.671
1642.439, 2427.139
1644.368, 2443.082
1646.296, 2462.283
1648.224, 2453.805
1650.153, 2405.421
1652.081, 2374.771
1654.010, 2383.869
1655.938, 2402.524
1657.867, 2418.993
1659.795, 2432.916
1661.724, 2444.697
1663.652, 2454.319
1665.581, 2456.340
1667.509, 2445.805
1669.438, 2437.413
1671.366, 2437.061
1673.295, 2439.632
1675.223, 2441.838
1677.151, 2443.722
1679.080, 2443.767
1681.008, 2440.347
1682.937, 2447.573
1684.865, 2482.823
1686.794, 2505.037
1688.722, 2480.605
1690.651, 2444.266
1692.579, 2439.873
1694.508, 2460.373
1696.436, 2461.591
1698.365, 2433.781
1700.293, 2414.773
1702.222, 2417.164
1704.150, 2426.442
1706.078, 2441.812
1708.007, 2455.368
1709.935, 2451.020
1711.864, 2429.518
1713.792, 2417.268
1715.721, 2417.667
1717.649, 2423.608
1719.578, 2442.678
1721.506, 2456.685
1723.435, 2447.270
1725.363, 2425.801
1727.292, 2417.766
1729.220, 2424.063
1731.149, 2431.463
1733.077, 2441.490
1735.005, 2448.110
1736.934, 2443.442
1738.862, 2440.552
1740.791, 2454.987
1742.719, 2478.684
1744.648, 2484.520
1746.576, 2467.806
1748.505, 2463.587
1750.433, 2490.893
1752.362, 2507.081
1754.290, 2490.195
1756.219, 2466.016
1758.147, 2451.317
1760.076, 2447.532
1762.004, 2465.795
1763.932, 2521.891
1765.861, 2539.573
1767.789, 2475.002
1769.718, 2426.810
1771.646, 2427.958
1773.575, 2450.070
1775.503, 2481.456
1777.432, 2513.773
1779.360, 2513.198
1781.289, 2460.421
1783.217, 2430.362
1785.146, 2435.930
1787.074, 2446.034
1789.003, 2458.828
1790.931, 2468.981
1792.859, 2468.656
1794.788, 2462.889
1796.716, 2468.127
1798.645, 2490.832
1800.573, 2502.936
1802.502, 2490.942
1804.430, 2486.707
1806.359, 2496.312
1808.287, 2513.755
1810.216, 2546.477
1812.144, 2580.367
1814.073, 2576.906
1816.001, 2528.820
1817.930, 2514.718
1819.858, 2558.724
1821.786, 2590.693
1823.715, 2587.882
1825.643, 2579.396
1827.572, 2575.474
1829.500, 2576.637
1831.429, 2584.708
1833.357, 2598.685
1835.286, 2609.375
1837.214, 2611.585
1839.143, 2629.170
1841.071, 2689.247
1843.000, 2728.816
1844.928, 2696.513
1846.857, 2647.801
1848.785, 2640.840
1850.714, 2661.079
1852.642, 2655.198
1854.570, 2617.396
1856.499, 2605.843
1858.427, 2648.479
1860.356, 2676.288
1862.284, 2646.817
1864.213, 2613.153
1866.141, 2619.269
1868.070, 2644.958
1869.998, 2647.940
1871.927, 2627.349
1873.855, 2621.629
1875.784, 2645.496
1877.712, 2654.610
1879.641, 2623.310
1881.569, 2600.987
1883.497, 2620.143
1885.426, 2649.618
1887.354, 2654.374
1889.283, 2639.141
1891.211, 2626.399
1893.140, 2611.322
1895.068, 2612.306
1896.997, 2645.503
1898.925, 2670.482
1900.854, 2674.782
1902.782, 2675.142
1904.711, 2680.998
1906.639, 2689.107
1908.568, 2696.687
1910.496, 2703.085
1912.424, 2696.533
1914.353, 2671.942
1916.281, 2659.281
1918.210, 2668.049
1920.138, 2679.598
1922.067, 2686.724
1923.995, 2693.464
1925.924, 2703.484
1927.852, 2714.542
1929.781, 2724.104
1931.709, 2731.860
1933.638, 2732.738
1935.566, 2723.610
1937.495, 2719.813
1939.423, 2722.511
1941.351, 2733.913
1943.280, 2763.475
1945.208, 2793.954
1947.137, 2813.549
1949.065, 2822.559
1950.994, 2818.177
1952.922, 2798.318
1954.851, 2790.107
1956.779, 2798.357
1958.708, 2809.630
1960.636, 2838.215
1962.565, 2848.620
1964.493, 2813.838
1966.422, 2771.139
1968.350, 2743.481
1970.278, 2732.116
1972.207, 2750.126
1974.135, 2794.885
1976.064, 2805.956
1977.992, 2772.287
1979.921, 2749.398
1981.849, 2752.449
1983.778, 2757.639
1985.706, 2752.474
1987.635, 2749.041
1989.563, 2758.909
1991.492, 2774.221
1993.420, 2779.792
1995.349, 2777.472
1997.277, 2787.880
1999.205, 2817.369
2001.134, 2836.519
2003.062, 2844.869
2004.991, 2840.386
2006.919, 2807.704
2008.848, 2779.807
2010.776, 2777.266
2012.705, 2787.517
2014.633, 2798.493
2016.562, 2809.198
2018.490, 2812.458
2020.419, 2806.404
2022.347, 2817.894
2024.276, 2859.588
2026.204, 2882.011
2028.132, 2861.395
2030.061, 2843.850
2031.989, 2856.294
2033.918, 2873.008
2035.846, 2876.755
2037.775, 2869.541
2039.703, 2848.182
2041.632, 2816.222
2043.560, 2806.126
2045.489, 2825.809
2047.417, 2837.323
2049.346, 2835.217
2051.274, 2829.444
2053.203, 2812.541
2055.131, 2803.416
2057.060, 2823.556
2058.988, 2844.280
2060.917, 2832.551
2062.845, 2800.825
2064.773, 2780.262
2066.702, 2770.665
2068.630, 2764.593
2070.559, 2762.495
2072.487, 2760.745
2074.416, 2758.985
2076.344, 2757.231
2078.273, 2755.662
2080.201, 2753.660
2082.130, 2747.713
2084.058, 2743.595
2085.987, 2752.321
2087.915, 2765.748
2089.844, 2760.169
2091.772, 2734.987
2093.700, 2725.278
2095.629, 2740.783
2097.557, 2748.619
2099.486, 2743.142
2101.414, 2739.309
2103.343, 2746.624
2105.271, 2748.389
2107.200, 2730.757
2109.128, 2712.393
2111.057, 2707.425
2112.985, 2713.328
2114.914, 2733.569
2116.842, 2761.877
2118.771, 2760.429
2120.699, 2722.094
2122.627, 2702.314
2124.556, 2709.168
2126.484, 2726.726
2128.413, 2772.097
2130.341, 2800.078
2132.270, 2778.395
2134.198, 2754.553
2136.127, 2767.875
2138.055, 2792.292
2139.984, 2794.157
2141.912, 2778.848
2143.841, 2762.442
2145.769, 2745.274
2147.698, 2730.966
2149.626, 2717.852
2151.554, 2721.487
2153.483, 2750.479
2155.411, 2780.932
2157.340, 2816.673
2159.268, 2838.123
2161.197, 2825.705
2163.125, 2807.262
2165.054, 2808.813
2166.982, 2815.774
2168.911, 2801.938
2170.839, 2774.121
2172.768, 2762.851
2174.696, 2768.198
2176.625, 2777.689
2178.553, 2793.836
2180.481, 2790.521
2182.410, 2751.967
2184.338, 2727.559
2186.267, 2734.623
2188.195, 2754.301
2190.124, 2797.982
2192.052, 2830.035
2193.981, 2812.299
2195.909, 2777.241
2197.838, 2767.637
2199.766, 2776.294
2201.695, 2783.218
2203.623, 2788.296
2205.552, 2780.995
2207.480, 2756.931
2209.408, 2764.594
2211.337, 2822.665
2213.265, 2855.280
2215.194, 2832.166
2217.122, 2806.476
2219.051, 2801.249
2220.979, 2794.645
2222.908, 2765.322
2224.836, 2739.574
2226.765, 2744.196
2228.693, 2767.392
2230.622, 2794.114
2232.550, 2821.928
2234.479, 2842.700
2236.407, 2855.847
2238.335, 2839.856
2240.264, 2786.964
2242.192, 2776.662
2244.121, 2834.694
2246.049, 2884.044
2247.978, 2914.718
2249.906, 2920.464
2251.835, 2876.030
2253.763, 2836.173
2255.692, 2836.301
2257.620, 2847.210
2259.549, 2846.801
2261.477, 2839.434
2263.406, 2827.427
2265.334, 2814.562
2267.262, 2813.277
2269.191, 2821.656
2271.119, 2828.166
2273.048, 2832.227
2274.976, 2829.462
2276.905, 2806.288
2278.833, 2811.350
2280.762, 2887.293
2282.690, 2931.670
2284.619, 2908.160
2286.547, 2876.994
2288.476, 2853.674
2290.404, 2834.825
2292.333, 2814.657
2294.261, 2801.759
2296.189, 2810.536
2298.118, 2827.472
2300.046, 2830.465
2301.975, 2825.075
2303.903, 2827.270
2305.832, 2836.993
2307.760, 2855.125
2309.689, 2888.735
2311.617, 2894.042
2313.546, 2857.874
2315.474, 2845.877
2317.403, 2873.172
2319.331, 2901.036
2321.260, 2915.918
2323.188, 2938.375
2325.116, 2992.019
2327.045, 3034.327
2328.973, 3040.133
2330.902, 3029.472
2332.830, 3013.371
2334.759, 2993.409
2336.687, 2966.205
2338.616, 2939.702
2340.544, 2931.273
2342.473, 2936.530
2344.401, 2943.952
2346.330, 2952.080
2348.258, 2948.834
2350.187, 2931.610
2352.115, 2922.643
2354.043, 2926.285
2355.972, 2930.481
2357.900, 2934.359
2359.829, 2940.027
2361.757, 2946.815
2363.686, 2957.439
2365.614, 2979.994
2367.543, 2993.296
2369.471, 2976.292
2371.400, 2961.080
2373.328, 2977.106
2375.257, 2993.715
2377.185, 2979.858
2379.114, 2953.391
2381.042, 2933.510
2382.970, 2921.002
2384.899, 2918.141
2386.827, 2923.655
2388.756, 2936.303
2390.684, 2953.927
2392.613, 2964.104
2394.541, 2966.127
2396.470, 2960.556
2398.398, 2937.318
2400.327, 2937.912
2402.255, 2981.796
2404.184, 3006.562
2406.112, 3003.878
2408.041, 2991.366
2409.969, 2963.533
2411.897, 2946.615
2413.826, 2956.052
2415.754, 2968.794
2417.683, 2979.213
2419.611, 2982.433
2421.540, 2964.677
2423.468, 2949.896
2425.397, 2965.407
2427.325, 2989.017
2429.254, 2993.560
2431.182, 2991.212
2433.111, 3006.351
2435.039, 3027.493
2436.968, 3025.611
2438.896, 3006.244
2440.824, 2992.312
2442.753, 2983.563
2444.681, 2981.401
2446.610, 2985.271
2448.538, 3003.745
2450.467, 3039.459
2452.395, 3058.961
2454.324, 3058.224
2456.252, 3046.104
2458.181, 3015.338
2460.109, 2995.152
2462.038, 2992.768
2463.966, 2996.881
2465.895, 3012.812
2467.823, 3023.081
2469.751, 3017.851
2471.680, 3015.653
2473.608, 3029.074
2475.537, 3040.595
2477.465, 3046.383
2479.394, 3039.334
2481.322, 2994.984
2483.251, 2956.843
2485.179, 2977.177
2487.108, 3015.931
2489.036, 3030.207
2490.965, 3029.046
2492.893, 3015.027
2494.822, 3000.997
2496.750, 3017.933
2498.678, 3053.763
2500.607, 3075.110
2502.535, 3081.961
2504.464, 3070.182
2506.392, 3041.647
2508.321, 3025.834
2510.249, 3022.771
2512.178, 3026.670
2514.106, 3037.490
2516.035, 3047.217
2517.963, 3055.691
2519.892, 3060.519
2521.820, 3054.434
2523.749, 3068.877
2525.677, 3119.727
2527.605, 3135.582
2529.534, 3091.287
2531.462, 3060.622
2533.391, 3067.148
2535.319, 3077.159
2537.248, 3079.699
2539.176, 3088.733
2541.105, 3118.842
2543.033, 3140.038
2544.962, 3141.052
2546.890, 3135.527
2548.819, 3124.850
2550.747, 3116.049
2552.676, 3112.350
2554.604, 3111.785
2556.532, 3113.715
2558.461, 3116.914
2560.389, 3116.820
2562.318, 3121.669
2564.246, 3145.253
2566.175, 3171.425
2568.103, 3191.396
2570.032, 3198.531
2571.960, 3168.638
2573.889, 3132.363
2575.817, 3151.254
2577.746, 3189.562
2579.674, 3166.637
2581.603, 3117.245
2583.531, 3119.299
2585.459, 3154.677
2587.388, 3185.731
2589.316, 3207.465
2591.245, 3192.306
2593.173, 3148.590
2595.102, 3130.200
2597.030, 3132.918
2598.959, 3129.237
2600.887, 3121.628
2602.816, 3141.195
2604.744, 3188.515
2606.673, 3187.485
2608.601, 3129.860
2610.530, 3118.467
2612.458, 3155.752
2614.386, 3176.670
2616.315, 3177.746
2618.243, 3177.092
2620.172, 3174.021
2622.100, 3185.487
2624.029, 3224.399
2625.957, 3240.574
2627.886, 3227.853
2629.814, 3221.629
2631.743, 3225.109
2633.671, 3234.430
2635.600, 3256.271
2637.528, 3256.483
2639.457, 3202.384
2641.385, 3181.926
2643.313, 3212.143
2645.242, 3235.986
2647.170, 3243.543
2649.099, 3255.908
2651.027, 3282.312
2652.956, 3299.988
2654.884, 3290.874
2656.813, 3296.576
2658.741, 3340.816
2660.670, 3358.048
2662.598, 3325.028
2664.527, 3297.672
2666.455, 3293.183
2668.384, 3291.555
2670.312, 3287.620
2672.240, 3285.260
2674.169, 3284.177
2676.097, 3288.658
2678.026, 3304.889
2679.954, 3315.625
2681.883, 3308.602
2683.811, 3307.540
2685.740, 3328.150
2687.668, 3342.313
2689.597, 3335.803
2691.525, 3329.147
2693.454, 3323.476
2695.382, 3326.563
2697.311, 3351.090
2699.239, 3369.215
2701.167, 3364.750
2703.096, 3363.078
2705.024, 3375.770
2706.953, 3388.328
2708.881, 3396.750
2710.810, 3403.889
2712.738, 3411.382
2714.667, 3416.679
2716.595, 3424.253
2718.524, 3420.075
2720.452, 3387.141
2722.381, 3363.574
2724.309, 3365.366
2726.238, 3371.525
2728.166, 3375.726
2730.094, 3379.573
2732.023, 3385.952
2733.951, 3388.590
2735.880, 3383.937
2737.808, 3377.934
2739.737, 3363.580
2741.665, 3365.632
2743.594, 3411.937
2745.522, 3446.177
2747.451, 3444.916
2749.379, 3438.141
2751.308, 3429.076
2753.236, 3425.514
2755.165, 3435.140
2757.093, 3440.242
2759.021, 3441.056
2760.950, 3424.542
2762.878, 3356.752
2764.807, 3341.733
2766.735, 3433.734
2768.664, 3492.627
2770.592, 3458.649
2772.521, 3423.095
2774.449, 3387.521
2776.378, 3389.999
2778.306, 3457.763
2780.235, 3493.279
2782.163, 3464.873
2784.092, 3442.430
2786.020, 3439.692
2787.948, 3449.876
2789.877, 3483.170
2791.805, 3495.865
2793.734, 3479.039
2795.662, 3462.508
2797.591, 3450.664
2799.519, 3441.576
2801.448, 3430.157
2803.376, 3437.101
2805.305, 3467.544
2807.233, 3487.967
2809.162, 3494.613
2811.090, 3500.109
2813.019, 3506.592
2814.947, 3502.882
2816.875, 3482.804
2818.804, 3499.421
2820.732, 3553.021
2822.661, 3588.400
2824.589, 3601.720
2826.518, 3608.554
2828.446, 3609.452
2830.375, 3607.944
2832.303, 3606.714
2834.232, 3633.273
2836.160, 3683.536
2838.089, 3729.064
2840.017, 3772.521
2841.946, 3837.857
2843.874, 3913.405
2845.802, 3940.863
2847.731, 3943.805
2849.659, 3991.581
2851.588, 4057.027
2853.516, 4081.209
2855.445, 4079.478
2857.373, 4070.630
2859.302, 4065.192
2861.230, 4088.927
2863.159, 4115.076
2865.087, 4096.214
2867.016, 4076.368
2868.944, 4114.094
2870.873, 4165.712
2872.801, 4196.344
2874.729, 4217.196
2876.658, 4230.824
2878.586, 4245.140
2880.515, 4269.992
2882.443, 4290.611
2884.372, 4294.086
2886.300, 4302.676
2888.229, 4346.854
2890.157, 4367.503
2892.086, 4317.299
2894.014, 4284.082
2895.943, 4293.976
2897.871, 4307.635
2899.800, 4322.419
2901.728, 4318.459
2903.656, 4257.819
2905.585, 4249.785
2907.513, 4316.367
2909.442, 4358.959
2911.370, 4364.234
2913.299, 4369.836
2915.227, 4379.841
2917.156, 4389.837
2919.084, 4400.289
2921.013, 4394.749
2922.941, 4377.788
2924.870, 4403.302
2926.798, 4462.457
2928.727, 4482.693
2930.655, 4474.634
2932.583, 4484.916
2934.512, 4501.803
2936.440, 4501.887
2938.369, 4485.098
2940.297, 4445.003
2942.226, 4394.224
2944.154, 4349.302
2946.083, 4306.558
2948.011, 4257.194
2949.940, 4216.143
2951.868, 4207.299
2953.797, 4196.154
2955.725, 4151.267
2957.654, 4111.758
2959.582, 4094.800
2961.510, 4087.034
2963.439, 4093.167
2965.367, 4088.065
2967.296, 4060.052
2969.224, 4041.288
2971.153, 4040.847
2973.081, 4040.113
2975.010, 4041.204
2976.938, 4026.719
2978.867, 3994.515
2980.795, 3972.313
2982.724, 3961.546
2984.652, 3956.369
2986.581, 3954.598
2988.509, 3922.485
2990.438, 3871.689
2992.366, 3860.792
2994.294, 3874.317
2996.223, 3884.279
2998.151, 3884.968
3000.080, 3855.172
3002.008, 3822.382
3003.937, 3827.301
3005.865, 3833.852
3007.794, 3801.104
3009.722, 3772.965
3011.651, 3787.053
3013.579, 3799.279
3015.508, 3790.588
3017.436, 3781.451
3019.365, 3784.309
3021.293, 3777.978
3023.221, 3752.227
3025.150, 3743.993
3027.078, 3759.206
3029.007, 3780.988
3030.935, 3811.467
3032.864, 3819.075
3034.792, 3804.752
3036.721, 3787.213
3038.649, 3770.120
3040.578, 3771.177
3042.506, 3780.603
3044.435, 3760.254
3046.363, 3736.713
3048.292, 3769.732
3050.220, 3808.147
3052.148, 3792.036
3054.077, 3763.486
3056.005, 3747.220
3057.934, 3744.781
3059.862, 3766.548
3061.791, 3784.281
3063.719, 3778.377
3065.648, 3784.797
3067.576, 3815.219
3069.505, 3833.135
3071.433, 3833.727
3073.362, 3812.755
3075.290, 3763.016
3077.219, 3757.381
3079.147, 3786.946
3081.075, 3774.457
3083.004, 3734.878
3084.932, 3722.445
3086.861, 3729.804
3088.789, 3751.836
3090.718, 3773.944
3092.646, 3778.321
3094.575, 3777.392
3096.503, 3777.083
3098.432, 3782.301
3100.360, 3803.505
3102.289, 3810.404
3104.217, 3766.948
3106.146, 3756.636
3108.074, 3807.796
3110.002, 3827.499
3111.931, 3805.534
3113.859, 3793.448
3115.788, 3795.437
3117.716, 3784.090
3119.645, 3764.961
3121.573, 3768.512
3123.502, 3785.683
3125.430, 3801.941
3127.359, 3814.375
3129.287, 3819.729
3131.216, 3817.900
3133.144, 3803.647
3135.073, 3790.851
3137.001, 3795.039
3138.929, 3785.520
3140.858, 3742.797
3142.786, 3733.773
3144.715, 3791.886
3146.643, 3807.226
3148.572, 3767.537
3150.500, 3762.401
3152.429, 3786.026
3154.357, 3781.473
3156.286, 3763.131
3158.214, 3783.891
3160.143, 3815.391
3162.071, 3805.175
3164.000, 3793.168
3165.928, 3826.669
3167.856, 3853.264
3169.785, 3839.648
3171.713, 3824.839
3173.642, 3829.827
3175.570, 3809.371
3177.499, 3728.945
3179.427, 3737.957
3181.356, 3840.284
3183.284, 3862.633
3185.213, 3814.124
3187.141, 3809.942
3189.070, 3831.881
3190.998, 3829.895
3192.927, 3827.684
3194.855, 3868.785
3196.783, 3902.099
3198.712, 3878.745
3200.640, 3851.871
3202.569, 3837.547
3204.497, 3835.148
3206.426, 3843.760
3208.354, 3875.057
3210.283, 3931.801
3212.211, 3941.727
3214.140, 3905.801
3216.068, 3883.439
3217.997, 3876.762
3219.925, 3915.440
3221.854, 3951.960
3223.782, 3902.226
3225.710, 3853.328
3227.639, 3887.453
3229.567, 3919.795
3231.496, 3909.126
3233.424, 3904.410
3235.353, 3919.409
3237.281, 3923.281
3239.210, 3913.223
3241.138, 3924.702
3243.067, 3953.948
3244.995, 3972.882
3246.924, 3977.484
3248.852, 3945.936
3250.781, 3911.723
3252.709, 3914.680
3254.637, 3926.636
3256.566, 3927.707
3258.494, 3941.432
3260.423, 3998.194
3262.351, 4019.668
3264.280, 3994.556
3266.208, 3974.170
3268.137, 3962.182
3270.065, 3966.868
3271.994, 3979.760
3273.922, 3967.831
3275.851, 3952.340
3277.779, 3961.094
3279.708, 3978.767
3281.636, 4008.317
3283.564, 4017.489
3285.493, 3984.138
3287.421, 3968.963
3289.350, 3997.136
3291.278, 3991.154
3293.207, 3955.849
3295.135, 4004.225
3297.064, 4091.536
3298.992, 4058.370
3300.921, 3985.016
3302.849, 3970.803
3304.778, 3985.362
3306.706, 4027.677
3308.635, 4059.491
3310.563, 4069.069
3312.491, 4073.992
3314.420, 4078.534
3316.348, 4066.996
3318.277, 4041.267
3320.205, 4039.777
3322.134, 4048.481
3324.062, 4026.978
3325.991, 4005.506
3327.919, 4024.585
3329.848, 4050.011
3331.776, 4076.964
3333.705, 4077.644
3335.633, 4034.146
3337.562, 4024.258
3339.490, 4056.462
3341.418, 4089.952
3343.347, 4117.927
3345.275, 4102.379
3347.204, 4074.927
3349.132, 4090.204
3351.061, 4104.013
3352.989, 4070.475
3354.918, 4047.047
3356.846, 4052.090
3358.775, 4072.629
3360.703, 4114.906
3362.632, 4098.019
3364.560, 4034.544
3366.489, 4004.878
3368.417, 4002.510
3370.345, 4021.147
3372.274, 4048.789
3374.202, 4080.719
3376.131, 4109.229
3378.059, 4142.232
3379.988, 4135.527
3381.916, 4077.276
3383.845, 4030.490
3385.773, 4000.408
3387.702, 4016.020
3389.630, 4056.183
3391.559, 4089.231
3393.487, 4111.180
3395.416, 4109.886
3397.344, 4110.798
3399.272, 4127.883
3401.201, 4134.263
3403.129, 4124.793
3405.058, 4114.562
3406.986, 4106.025
3408.915, 4117.453
3410.843, 4129.765
3412.772, 4090.323
3414.700, 4058.577
3416.629, 4100.588
3418.557, 4119.646
3420.486, 4074.263
3422.414, 4057.953
3424.343, 4084.609
3426.271, 4128.615
3428.199, 4177.080
3430.128, 4165.184
3432.056, 4129.725
3433.985, 4110.921
3435.913, 4100.405
3437.842, 4097.259
3439.770, 4091.614
3441.699, 4075.549
3443.627, 4079.541
3445.556, 4101.790
3447.484, 4110.281
3449.413, 4108.388
3451.341, 4098.426
3453.270, 4092.677
3455.198, 4112.194
3457.126, 4118.968
3459.055, 4076.919
3460.983, 4069.184
3462.912, 4102.083
3464.840, 4148.281
3466.769, 4193.887
3468.697, 4177.745
3470.626, 4144.500
3472.554, 4146.541
3474.483, 4156.196
3476.411, 4163.691
3478.340, 4159.825
3480.268, 4138.733
3482.197, 4153.403
3484.125, 4197.354
3486.053, 4180.769
3487.982, 4140.218
3489.910, 4126.324
3491.839, 4124.643
3493.767, 4127.787
3495.696, 4133.899
3497.624, 4143.585
3499.553, 4150.104
3501.481, 4154.625
3503.410, 4178.892
3505.338, 4205.854
3507.267, 4194.273
3509.195, 4182.323
3511.124, 4211.771
3513.052, 4212.729
3514.980, 4143.886
3516.909, 4130.008
3518.837, 4172.562
3520.766, 4211.395
3522.694, 4238.767
3524.623, 4231.789
3526.551, 4217.633
3528.480, 4216.644
3530.408, 4211.297
3532.337, 4195.120
3534.265, 4198.330
3536.194, 4220.792
3538.122, 4199.917
3540.051, 4165.747
3541.979, 4186.684
3543.907, 4204.199
3545.836, 4150.270
3547.764, 4135.582
3549.693, 4193.091
3551.621, 4227.607
3553.550, 4235.425
3555.478, 4229.373
3557.407, 4222.540
3559.335, 4242.534
3561.264, 4255.967
3563.192, 4238.294
3565.121, 4233.309
3567.049, 4263.713
3568.978, 4254.923
3570.906, 4218.764
3572.834, 4194.688
3574.763, 4186.811
3576.691, 4208.859
3578.620, 4234.434
3580.548, 4262.474
3582.477, 4256.018
3584.405, 4212.357
3586.334, 4226.375
3588.262, 4270.484
3590.191, 4269.938
3592.119, 4248.732
3594.048, 4213.959
3595.976, 4196.688
3597.905, 4211.264
3599.833, 4222.522
3601.761, 4231.357
3603.690, 4260.016
3605.618, 4297.584
3607.547, 4338.792
3609.475, 4357.654
3611.404, 4310.820
3613.332, 4308.290
3615.261, 4363.565
3617.189, 4361.164
3619.118, 4320.187
3621.046, 4307.923
3622.975, 4310.619
3624.903, 4322.259
3626.832, 4332.629
3628.760, 4340.010
3630.688, 4340.648
3632.617, 4334.955
3634.545, 4328.875
3636.474, 4319.887
3638.402, 4294.680
3640.331, 4284.817
3642.259, 4315.425
3644.188, 4324.879
3646.116, 4302.190
3648.045, 4312.114
3649.973, 4341.364
3651.902, 4368.923
3653.830, 4380.240
3655.759, 4349.213
3657.687, 4330.757
3659.615, 4337.710
3661.544, 4309.994
3663.472, 4267.797
3665.401, 4336.890
3667.329, 4410.248
3669.258, 4359.371
3671.186, 4335.585
3673.115, 4390.247
3675.043, 4396.363
3676.972, 4356.222
3678.900, 4351.376
3680.829, 4358.039
3682.757, 4339.157
3684.686, 4338.649
3686.614, 4382.303
3688.542, 4377.402
3690.471, 4320.122
3692.399, 4320.013
3694.328, 4353.884
3696.256, 4418.054
3698.185, 4437.225
3700.113, 4362.375
3702.042, 4331.796
3703.970, 4364.613
3705.899, 4386.335
3707.827, 4394.553
3709.756, 4379.520
3711.684, 4361.815
3713.613, 4346.488
3715.541, 4353.705
3717.469, 4387.906
3719.398, 4403.283
3721.326, 4405.787
3723.255, 4410.835
3725.183, 4402.829
3727.112, 4366.816
3729.040, 4351.077
3730.969, 4365.310
3732.897, 4380.194
3734.826, 4390.815
3736.754, 4381.601
3738.683, 4376.910
3740.611, 4392.234
3742.540, 4396.900
3744.468, 4384.807
3746.396, 4408.779
3748.325, 4440.165
3750.253, 4417.491
3752.182, 4404.553
3754.110, 4437.727
3756.039, 4454.651
3757.967, 4446.431
3759.896, 4452.023
3761.824, 4453.080
3763.753, 4403.746
3765.681, 4376.523
3767.610, 4405.843
3769.538, 4424.338
3771.467, 4425.223
3773.395, 4429.614
3775.323, 4427.452
3777.252, 4390.786
3779.180, 4375.969
3781.109, 4406.178
3783.037, 4414.212
3784.966, 4401.279
3786.894, 4413.140
3788.823, 4426.583
3790.751, 4403.564
3792.680, 4411.052
3794.608, 4470.091
3796.537, 4478.779
3798.465, 4452.271
3800.394, 4461.224
3802.322, 4483.700
3804.250, 4516.604
3806.179, 4526.786
3808.107, 4509.141
3810.036, 4510.616
3811.964, 4515.886
3813.893, 4475.354
3815.821, 4446.592
3817.750, 4469.174
3819.678, 4486.665
3821.607, 4493.793
3823.535, 4503.416
3825.464, 4507.493
3827.392, 4495.521
3829.321, 4474.854
3831.249, 4440.973
3833.177, 4466.160
3835.106, 4526.890
3837.034, 4500.661
3838.963, 4464.792
3840.891, 4487.703
3842.820, 4503.979
3844.748, 4503.717
3846.677, 4489.271
3848.605, 4472.203
3850.534, 4483.859
3852.462, 4489.816
3854.391, 4469.218
3856.319, 4457.579
3858.248, 4456.037
3860.176, 4485.809
3862.104, 4513.006
3864.033, 4490.416
3865.961, 4481.541
3867.890, 4514.029
3869.818, 4510.417
3871.747, 4486.490
3873.675, 4488.015
3875.604, 4493.558
3877.532, 4487.577
3879.461, 4498.773
3881.389, 4529.917
3883.318, 4532.136
3885.246, 4534.527
3887.175, 4591.744
3889.103, 4625.209
3891.031, 4610.512
3892.960, 4603.282
3894.888, 4604.851
3896.817, 4610.396
3898.745, 4604.300
3900.674, 4570.591
3902.602, 4587.806
3904.531, 4638.263
3906.459, 4645.462
3908.388, 4643.389
3910.316, 4634.426
3912.245, 4628.658
3914.173, 4631.917
3916.102, 4647.426
3918.030, 4648.134
3919.958, 4606.465
3921.887, 4588.729
3923.815, 4633.717
3925.744, 4619.009
3927.672, 4563.903
3929.601, 4591.608
3931.529, 4622.262
3933.458, 4625.254
3935.386, 4618.205
3937.315, 4593.596
3939.243, 4626.175
3941.172, 4656.651
3943.100, 4657.125
3945.029, 4645.171
3946.957, 4625.340
3948.885, 4626.168
3950.814, 4643.363
3952.742, 4684.978
3954.671, 4700.479
3956.599, 4695.852
3958.528, 4668.757
3960.456, 4638.210
3962.385, 4635.018
3964.313, 4624.544
3966.242, 4628.752
3968.170, 4669.528
3970.099, 4690.248
3972.027, 4698.836
3973.956, 4710.444
3975.884, 4710.939
3977.813, 4700.263
3979.741, 4664.950
3981.669, 4679.835
3983.598, 4722.070
3985.526, 4696.635
3987.455, 4668.837
3989.383, 4686.260
3991.312, 4713.100
3993.240, 4712.525
3995.169, 4664.411
3997.097, 4651.795
3999.026, 4696.014
4000.954, 4722.990
4002.883, 4739.517
4004.811, 4758.812
4006.740, 4765.599
4008.668, 4767.744
4010.596, 4753.436
4012.525, 4734.036
4014.453, 4708.134
4016.382, 4694.096
4018.310, 4755.338
4020.239, 4743.862
4022.167, 4679.500
4024.096, 4713.649
4026.024, 4754.621
4027.953, 4756.340
4029.881, 4776.339
4031.810, 4802.066
4033.738, 4801.843
4035.667, 4782.932
4037.595, 4737.256
4039.523, 4730.678
4041.452, 4764.507
4043.380, 4763.574
4045.309, 4756.422
4047.237, 4782.645
4049.166, 4790.368
4051.094, 4769.756
4053.023, 4769.183
4054.951, 4769.113
4056.880, 4723.340
4058.808, 4728.499
4060.737, 4803.528
4062.665, 4821.958
4064.594, 4804.985
4066.522, 4778.955
4068.450, 4775.520
4070.379, 4814.917
4072.307, 4815.088
4074.236, 4787.604
4076.164, 4782.338
4078.093, 4801.788
4080.021, 4853.507
4081.950, 4837.359
4083.878, 4790.541
4085.807, 4823.653
4087.735, 4866.397
4089.664, 4873.496
4091.592, 4883.611
4093.521, 4887.897
4095.449, 4863.152
4097.377, 4838.750
4099.306, 4841.188
4101.234, 4853.451
4103.163, 4846.433
4105.091, 4861.230
4107.020, 4883.954
4108.948, 4877.184
4110.877, 4867.243
4112.805, 4862.335
4114.734, 4899.269
4116.662, 4921.605
4118.591, 4815.362
4120.519, 4778.995
4122.448, 4884.060
4124.376, 4933.180
4126.305, 4946.002
4128.233, 4960.542
4130.162, 4949.005
4132.090, 4917.870
4134.019, 4897.685
4135.947, 4914.584
4137.875, 4983.146
4139.804, 4999.638
4141.732, 4943.270
4143.661, 4927.712
4145.589, 4927.897
4147.518, 4913.110
4149.446, 4913.703
4151.375, 4932.603
4153.303, 4925.821
4155.231, 4906.160
4157.160, 4912.185
4159.088, 4914.456
4161.017, 4881.942
4162.945, 4889.579
4164.874, 4923.765
4166.802, 4951.659
4168.731, 4960.689
4170.659, 4935.884
4172.588, 4930.333
4174.516, 4933.087
4176.445, 4938.032
4178.373, 4925.906
4180.302, 4852.059
4182.230, 4853.293
4184.159, 4930.401
4186.087, 4912.574
4188.016, 4883.565
4189.944, 4935.236
4191.873, 4963.585
4193.801, 4940.481
4195.729, 4926.427
4197.658, 4925.839
4199.586, 4931.510
4201.515, 4946.484
4203.443, 4976.222
4205.372, 4974.881
4207.300, 4959.893
4209.229, 4945.001
4211.157, 4938.820
4213.085, 4941.861
4215.014, 4943.509
4216.942, 4954.901
4218.871, 4997.325
4220.799, 5007.736
4222.728, 4992.566
4224.656, 5024.832
4226.585, 5045.897
4228.513, 4990.297
4230.442, 4985.297
4232.370, 5024.794
4234.299, 5023.564
4236.227, 5014.380
4238.156, 5014.232
4240.084, 5038.688
4242.013, 5077.894
4243.941, 5091.835
4245.870, 5098.689
4247.798, 5111.534
4249.727, 5094.523
4251.655, 5058.749
4253.583, 5018.770
4255.512, 5010.781
4257.440, 5070.276
4259.369, 5063.015
4261.297, 5031.952
4263.226, 5072.867
4265.154, 5088.678
4267.083, 5041.694
4269.011, 5066.299
4270.939, 5098.594
4272.868, 5021.262
4274.796, 4999.915
4276.725, 5065.182
4278.653, 5111.361
4280.582, 5130.305
4282.510, 5096.601
4284.439, 5087.642
4286.367, 5102.061
4288.296, 5050.413
4290.224, 5007.673
4292.153, 5047.853
4294.081, 5041.032
4296.010, 5007.323
4297.938, 5036.269
4299.867, 5081.532
4301.795, 5133.713
4303.724, 5140.038
4305.652, 5118.874
4307.581, 5098.676
4309.509, 5082.208
4311.438, 5070.429
4313.366, 5041.811
4315.294, 5031.340
4317.223, 5108.118
4319.151, 5117.300
4321.080, 5048.991
4323.008, 5055.422
4324.937, 5080.137
4326.865, 5086.581
4328.793, 5117.332
4330.722, 5152.692
4332.650, 5100.192
4334.579, 5061.666
4336.507, 5077.217
4338.436, 5072.533
4340.364, 5057.019
4342.293, 5046.308
4344.221, 5042.614
4346.150, 5047.208
4348.078, 5085.654
4350.007, 5119.683
4351.935, 5118.585
4353.864, 5098.518
4355.792, 5071.849
4357.721, 5081.689
4359.649, 5073.283
4361.578, 5014.645
4363.506, 5041.594
4365.435, 5088.794
4367.363, 5018.490
4369.292, 4994.107
4371.220, 5048.871
4373.148, 5064.814
4375.077, 5061.321
4377.005, 5049.863
4378.934, 5036.884
4380.862, 5028.775
4382.791, 5052.517
4384.719, 5078.420
4386.647, 5098.093
4388.576, 5086.385
4390.504, 5060.359
4392.433, 5032.800
4394.361, 5040.710
4396.290, 5081.646
4398.218, 5038.142
4400.147, 5011.905
4402.075, 5072.911
4404.004, 5075.029
4405.932, 5036.417
4407.861, 5016.388
4409.789, 4994.785
4411.718, 4968.221
4413.646, 4959.564
4415.575, 4971.264
4417.503, 5022.914
4419.432, 5026.746
4421.360, 4998.478
4423.289, 5023.414
4425.217, 5029.298
4427.146, 4976.125
4429.074, 4953.756
4431.002, 4966.501
4432.931, 5040.474
4434.859, 5092.497
4436.788, 5107.275
4438.716, 5040.875
4440.645, 4976.733
4442.573, 4950.464
4444.501, 4934.620
4446.430, 4940.840
4448.358, 5012.838
4450.287, 5034.139
4452.215, 5000.816
4454.144, 4966.089
4456.072, 4957.839
4458.001, 4999.015
4459.929, 5017.544
4461.858, 5011.026
4463.786, 4969.497
4465.715, 4939.268
4467.643, 4922.947
4469.572, 4843.874
4471.500, 4818.208
4473.429, 4917.731
4475.357, 4957.697
4477.286, 4960.205
4479.214, 4969.433
4481.143, 4949.942
4483.071, 4913.885
4485.000, 4963.332
4486.928, 4993.068
4488.856, 4944.911
4490.785, 4902.329
4492.713, 4889.038
4494.642, 4963.977
4496.570, 4979.417
4498.499, 4932.393
4500.427, 4885.320
4502.355, 4881.291
4504.284, 4941.418
4506.212, 4930.803
4508.141, 4910.849
4510.069, 4960.789
4511.998, 4966.618
4513.926, 4920.877
4515.855, 4799.207
4517.783, 4764.707
4519.712, 4875.254
4521.640, 4874.763
4523.569, 4855.445
4525.497, 4893.937
4527.426, 4952.021
4529.354, 4994.924
4531.283, 4934.636
4533.211, 4924.680
4535.140, 4969.953
4537.068, 4844.220
4538.997, 4775.541
4540.925, 4898.463
4542.854, 4892.450
4544.782, 4854.167
4546.710, 4969.302
4548.639, 4966.520
4550.567, 4865.942
4552.496, 4853.227
4554.424, 4847.743
4556.353, 4827.398
4558.281, 4900.552
4560.209, 4943.842
4562.138, 4859.390
4564.066, 4772.530
4565.995, 4729.907
4567.923, 4827.918
4569.852, 4864.343
4571.780, 4825.751
4573.709, 4830.397
4575.637, 4858.949
4577.566, 4904.515
4579.494, 4908.743
4581.423, 4867.874
4583.351, 4762.835
4585.280, 4718.129
4587.208, 4731.604
4589.137, 4810.229
4591.065, 4818.006
4592.994, 4751.799
4594.922, 4758.091
4596.851, 4790.837
4598.779, 4832.257
4600.708, 4830.176
4602.636, 4797.305
4604.564, 4731.817
4606.493, 4722.591
4608.421, 4757.249
4610.350, 4828.047
4612.278, 4834.641
4614.207, 4781.680
4616.135, 4770.755
4618.063, 4778.597
4619.992, 4794.200
4621.920, 4731.916
4623.849, 4695.819
4625.777, 4772.536
4627.706, 4827.566
4629.634, 4829.719
4631.563, 4693.725
4633.491, 4673.336
4635.420, 4746.177
4637.348, 4771.543
4639.277, 4782.872
4641.205, 4790.390
4643.134, 4808.326
4645.062, 4804.552
4646.991, 4751.772
4648.919, 4753.110
4650.848, 4759.901
4652.776, 4726.359
4654.705, 4703.583
4656.633, 4699.885
4658.562, 4736.445
4660.490, 4739.116
4662.418, 4716.308
4664.347, 4737.547
4666.275, 4742.825
4668.204, 4716.673
4670.132, 4668.904
4672.061, 4645.958
4673.989, 4667.437
4675.917, 4693.417
4677.846, 4707.096
4679.774, 4688.481
4681.703, 4679.616
4683.631, 4678.528
4685.560, 4687.541
4687.488, 4657.668
4689.417, 4619.940
4691.345, 4698.808
4693.274, 4684.545
4695.202, 4571.427
4697.131, 4580.340
4699.059, 4638.518
4700.988, 4717.750
4702.916, 4675.505
4704.845, 4619.114
4706.773, 4607.139
4708.702, 4584.296
4710.630, 4585.386
4712.559, 4674.068
4714.487, 4684.206
4716.416, 4648.660
4718.344, 4615.754
4720.272, 4616.587
4722.201, 4638.194
4724.129, 4637.735
4726.058, 4663.105
4727.986, 4707.243
4729.915, 4696.174
4731.843, 4644.932
4733.771, 4573.477
4735.700, 4617.373
4737.628, 4646.812
4739.557, 4592.811
4741.485, 4598.798
4743.414, 4627.083
4745.342, 4654.108
4747.271, 4691.250
4749.199, 4693.980
4751.128, 4592.948
4753.056, 4588.268
4754.985, 4628.490
4756.913, 4628.091
4758.842, 4618.677
4760.770, 4607.889
4762.699, 4607.928
4764.627, 4582.175
4766.556, 4550.648
4768.484, 4599.279
4770.413, 4656.133
4772.341, 4693.016
4774.270, 4639.131
4776.198, 4554.684
4778.126, 4473.956
4780.055, 4527.415
4781.983, 4574.138
4783.912, 4553.465
4785.840, 4563.384
4787.769, 4542.514
4789.697, 4458.539
4791.625, 4463.939
4793.554, 4496.593
4795.482, 4509.039
4797.411, 4497.339
4799.339, 4493.795
4801.268, 4531.004
4803.196, 4537.914
4805.125, 4538.853
4807.053, 4585.253
4808.982, 4549.308
4810.910, 4501.775
4812.839, 4575.899
4814.767, 4618.551
4816.696, 4607.273
4818.624, 4499.622
4820.553, 4467.885
4822.481, 4497.626
4824.410, 4516.239
4826.338, 4493.895
4828.267, 4453.750
4830.195, 4491.732
4832.124, 4495.561
4834.052, 4461.244
4835.980, 4443.256
4837.909, 4527.798
4839.837, 4669.282
4841.766, 4489.646
4843.694, 4430.005
4845.623, 4563.561
4847.551, 4497.765
4849.479, 4424.444
4851.408, 4407.648
4853.336, 4418.109
4855.265, 4462.400
4857.193, 4530.894
4859.122, 4498.946
4861.050, 4465.846
4862.979, 4471.911
4864.907, 4379.656
4866.836, 4335.871
4868.764, 4395.553
4870.693, 4444.501
4872.621, 4490.747
4874.550, 4543.638
4876.478, 4471.655
4878.407, 4430.725
4880.335, 4487.659
4882.264, 4464.221
4884.192, 4424.473
4886.121, 4404.629
4888.049, 4456.502
4889.978, 4488.877
4891.906, 4457.332
4893.834, 4448.872
4895.763, 4439.736
4897.691, 4412.133
4899.620, 4418.879
4901.548, 4419.270
4903.477, 4391.312
4905.405, 4385.668
4907.333, 4385.973
4909.262, 4382.016
4911.190, 4402.956
4913.119, 4408.869
4915.047, 4373.581
4916.976, 4380.361
4918.904, 4381.542
4920.833, 4354.401
4922.761, 4361.972
4924.690, 4382.522
4926.618, 4406.972
4928.547, 4331.346
4930.475, 4301.248
4932.404, 4372.001
4934.332, 4386.719
4936.261, 4388.911
4938.189, 4400.630
4940.118, 4333.047
4942.046, 4302.306
4943.975, 4349.394
4945.903, 4393.717
4947.832, 4396.744
4949.760, 4352.063
4951.688, 4312.326
4953.617, 4286.290
4955.545, 4276.780
4957.474, 4285.099
4959.402, 4301.646
4961.331, 4320.711
4963.259, 4337.698
4965.188, 4322.635
4967.116, 4291.056
4969.044, 4376.530
4970.973, 4390.295
4972.901, 4326.719
4974.830, 4295.381
4976.758, 4306.573
4978.687, 4332.804
4980.615, 4288.432
4982.544, 4284.205
4984.472, 4301.136
4986.401, 4257.777
4988.329, 4250.835
4990.258, 4266.234
4992.186, 4265.251
4994.115, 4233.067
4996.043, 4205.542
4997.972, 4236.131
4999.900, 4237.279
5001.829, 4236.567
5003.757, 4270.900
5005.686, 4272.542
5007.614, 4258.339
5009.542, 4242.119
5011.471, 4236.211
5013.399, 4259.582
5015.328, 4318.425
5017.256, 4274.799
5019.185, 4238.947
5021.113, 4259.985
5023.042, 4242.933
5024.970, 4201.150
5026.898, 4154.804
5028.827, 4246.824
5030.755, 4261.155
5032.684, 4185.150
5034.612, 4130.380
5036.541, 4225.977
5038.469, 4375.410
5040.398, 4217.280
5042.326, 4255.128
5044.255, 4371.165
5046.183, 4229.665
5048.112, 4210.774
5050.040, 4255.139
5051.969, 4246.970
5053.897, 4214.863
5055.826, 4192.182
5057.754, 4204.722
5059.683, 4202.676
5061.611, 4188.616
5063.540, 4166.365
5065.468, 4136.913
5067.396, 4141.843
5069.325, 4190.285
5071.253, 4227.034
5073.182, 4223.823
5075.110, 4187.798
5077.039, 4156.521
5078.967, 4174.051
5080.896, 4199.960
5082.824, 4111.220
5084.752, 4139.441
5086.681, 4200.699
5088.609, 4157.394
5090.538, 4157.600
5092.466, 4151.715
5094.395, 4090.408
5096.323, 4130.083
5098.252, 4178.749
5100.180, 4184.498
5102.109, 4156.309
5104.037, 4136.067
5105.966, 4128.338
5107.894, 4082.218
5109.823, 4059.695
5111.751, 4065.365
5113.680, 4092.348
5115.608, 4083.069
5117.537, 4073.080
5119.465, 4123.796
5121.394, 4109.105
5123.322, 4074.506
5125.250, 4062.007
5127.179, 4061.231
5129.107, 4068.012
5131.036, 4078.821
5132.964, 4058.708
5134.893, 4056.733
5136.821, 4072.283
5138.750, 4053.739
5140.678, 4063.079
5142.606, 4073.743
5144.535, 4011.276
5146.463, 4002.428
5148.392, 4025.791
5150.320, 4060.122
5152.249, 4037.356
5154.177, 4041.886
5156.106, 4098.052
5158.034, 4046.940
5159.963, 4040.814
5161.891, 4088.739
5163.820, 4051.670
5165.748, 4040.285
5167.677, 4054.280
5169.605, 4070.043
5171.534, 4043.036
5173.462, 4005.752
5175.391, 3986.866
5177.319, 4008.637
5179.248, 4021.927
5181.176, 4011.130
5183.104, 4040.516
5185.033, 4049.797
5186.961, 4040.499
5188.890, 4055.468
5190.818, 4023.688
5192.747, 3975.103
5194.675, 3948.913
5196.604, 3946.995
5198.532, 3960.520
5200.460, 3984.044
5202.389, 4020.133
5204.317, 4010.309
5206.246, 3964.464
5208.174, 3956.010
5210.103, 3952.870
5212.031, 3957.223
5213.960, 3985.546
5215.888, 3992.901
5217.817, 3966.821
5219.745, 3905.584
5221.674, 3892.211
5223.602, 3925.883
5225.531, 3974.898
5227.459, 3950.567
5229.388, 3873.287
5231.316, 3842.702
5233.245, 4038.773
5235.173, 4036.104
5237.102, 3989.761
5239.030, 3990.966
5240.958, 3908.572
5242.887, 3885.583
5244.815, 3923.539
5246.744, 3916.678
5248.672, 3898.825
5250.601, 3904.168
5252.529, 3982.649
5254.458, 3943.146
5256.386, 3877.203
5258.314, 3844.468
5260.243, 3937.722
5262.171, 3972.126
5264.100, 3932.052
5266.028, 3844.481
5267.957, 3845.514
5269.885, 3873.829
5271.814, 3873.132
5273.742, 3844.528
5275.671, 3859.535
5277.599, 3911.298
5279.528, 3883.560
5281.456, 3853.615
5283.385, 3843.597
5285.313, 3874.445
5287.242, 3873.858
5289.170, 3868.552
5291.099, 3869.510
5293.027, 3827.115
5294.956, 3833.535
5296.884, 3854.071
5298.813, 3780.533
5300.741, 3775.759
5302.669, 3800.302
5304.598, 3815.070
5306.526, 3819.438
5308.455, 3843.572
5310.383, 3872.254
5312.312, 3837.689
5314.240, 3820.823
5316.168, 3822.363
5318.097, 3832.422
5320.025, 3837.869
5321.954, 3799.727
5323.882, 3729.183
5325.811, 3707.607
5327.739, 3761.615
5329.668, 3812.186
5331.596, 3774.334
5333.525, 3734.387
5335.453, 3680.891
5337.382, 3637.901
5339.310, 3743.841
5341.239, 3797.679
5343.167, 3793.692
5345.096, 3747.264
5347.024, 3777.177
5348.953, 3771.514
5350.881, 3707.101
5352.810, 3700.008
5354.738, 3710.725
5356.667, 3712.750
5358.595, 3684.194
5360.523, 3692.017
5362.452, 3703.647
5364.380, 3710.467
5366.309, 3769.732
5368.237, 3745.637
5370.166, 3683.295
5372.094, 3653.557
5374.022, 3698.902
5375.951, 3702.100
5377.879, 3647.335
5379.808, 3632.843
5381.736, 3639.513
5383.665, 3639.118
5385.593, 3604.764
5387.522, 3601.496
5389.450, 3623.926
5391.379, 3658.809
5393.307, 3685.608
5395.236, 3652.690
5397.164, 3634.605
5399.093, 3679.907
5401.021, 3634.126
5402.950, 3618.101
5404.878, 3643.673
5406.807, 3676.687
5408.735, 3648.339
5410.664, 3628.758
5412.592, 3649.967
5414.521, 3593.187
5416.449, 3634.626
5418.377, 3678.884
5420.306, 3558.134
5422.234, 3546.327
5424.163, 3550.006
5426.091, 3536.908
5428.020, 3585.413
5429.948, 3568.802
5431.876, 3548.630
5433.805, 3595.455
5435.733, 3576.347
5437.662, 3550.243
5439.590, 3540.529
5441.519, 3558.198
5443.447, 3578.226
5445.376, 3579.415
5447.304, 3557.219
5449.233, 3534.388
5451.161, 3531.231
5453.090, 3542.658
5455.018, 3570.044
5456.947, 3491.650
5458.875, 3504.440
5460.804, 3590.175
5462.732, 3553.806
5464.661, 3458.416
5466.589, 3418.550
5468.518, 3475.776
5470.446, 3516.189
5472.375, 3499.997
5474.303, 3470.289
5476.231, 3479.540
5478.160, 3509.952
5480.088, 3537.473
5482.017, 3538.308
5483.945, 3463.773
5485.874, 3456.914
5487.802, 3488.320
5489.730, 3520.854
5491.659, 3495.563
5493.587, 3448.710
5495.516, 3419.378
5497.444, 3435.578
5499.373, 3447.215
5501.301, 3411.163
5503.230, 3367.408
5505.158, 3414.627
5507.087, 3453.162
5509.015, 3474.780
5510.944, 3478.955
5512.872, 3460.705
5514.801, 3507.253
5516.729, 3538.464
5518.658, 3507.198
5520.586, 3523.480
5522.515, 3505.883
5524.443, 3460.146
5526.372, 3407.750
5528.300, 3371.202
5530.229, 3408.050
5532.157, 3456.955
5534.085, 3362.690
5536.014, 3385.768
5537.942, 3433.862
5539.871, 3451.655
5541.799, 3408.757
5543.728, 3432.650
5545.656, 3450.838
5547.584, 3416.853
5549.513, 3347.487
5551.441, 3389.357
5553.370, 3444.530
5555.298, 3414.693
5557.227, 3377.484
5559.155, 3379.388
5561.084, 3388.918
5563.012, 3354.553
5564.941, 3320.485
5566.869, 3313.408
5568.798, 3334.667
5570.726, 3375.837
5572.655, 3358.638
5574.583, 3336.775
5576.512, 3321.425
5578.440, 3272.982
5580.369, 3238.413
5582.297, 3262.429
5584.226, 3331.100
5586.154, 3301.698
5588.083, 3284.028
5590.011, 3288.037
5591.939, 3296.563
5593.868, 3203.795
5595.796, 3238.720
5597.725, 3292.300
5599.653, 3262.501
5601.582, 3226.699
5603.510, 3223.250
5605.438, 3239.014
5607.367, 3254.858
5609.295, 3248.147
5611.224, 3300.325
5613.152, 3346.063
5615.081, 3288.496
5617.009, 3244.618
5618.938, 3254.039
5620.866, 3281.303
5622.795, 3268.478
5624.723, 3193.755
5626.652, 3228.486
5628.580, 3312.787
5630.509, 3295.219
5632.437, 3254.920
5634.366, 3275.164
5636.294, 3314.141
5638.223, 3269.898
5640.151, 3244.573
5642.080, 3238.279
5644.008, 3243.747
5645.937, 3251.602
5647.865, 3278.891
5649.793, 3267.863
5651.722, 3226.039
5653.650, 3209.449
5655.579, 3164.486
5657.507, 3170.492
5659.436, 3210.781
5661.364, 3201.650
5663.292, 3223.881
5665.221, 3216.078
5667.149, 3194.199
5669.078, 3230.052
5671.006, 3267.843
5672.935, 3234.895
5674.863, 3169.416
5676.792, 3192.150
5678.720, 3191.845
5680.649, 3165.018
5682.577, 3146.750
5684.506, 3217.107
5686.434, 3173.406
5688.363, 3164.843
5690.291, 3187.467
5692.220, 3155.781
5694.148, 3237.974
5696.077, 3209.736
5698.005, 3121.453
5699.934, 3126.023
5701.862, 3176.747
5703.791, 3151.606
5705.719, 3108.516
5707.647, 3142.016
5709.576, 3132.744
5711.504, 3171.010
5713.433, 3201.815
5715.361, 3153.942
5717.290, 3117.736
5719.218, 3121.053
5721.146, 3144.801
5723.075, 3165.109
5725.003, 3137.667
5726.932, 3151.457
5728.860, 3166.852
5730.789, 3153.415
5732.717, 3157.266
5734.646, 3172.836
5736.574, 3158.691
5738.503, 3104.324
5740.431, 3041.340
5742.360, 3126.784
5744.288, 3182.406
5746.217, 3158.385
5748.145, 3153.086
5750.074, 3127.552
5752.002, 3137.507
5753.931, 3153.330
5755.859, 3084.177
5757.788, 3108.587
5759.716, 3135.400
5761.645, 3138.454
5763.573, 3121.608
5765.501, 3058.802
5767.430, 3072.887
5769.358, 3104.586
5771.287, 3091.789
5773.215, 3129.083
5775.144, 3098.674
5777.072, 3082.272
5779.000, 3101.556
5780.929, 3023.301
5782.857, 3024.616
5784.786, 3041.763
5786.714, 3036.887
5788.643, 3010.651
5790.571, 3169.747
5792.500, 3223.481
5794.428, 3151.646
5796.357, 3053.839
5798.285, 3057.330
5800.214, 3062.886
5802.142, 3065.898
5804.071, 3077.007
5805.999, 3065.977
5807.928, 3081.595
5809.856, 3071.719
5811.785, 3038.173
5813.713, 3077.202
5815.642, 3093.343
5817.570, 3066.613
5819.499, 3036.108
5821.427, 3062.723
5823.355, 3058.964
5825.284, 3014.570
5827.212, 2990.956
5829.141, 3031.296
5831.069, 3083.640
5832.998, 3088.488
5834.926, 3068.855
5836.854, 3050.156
5838.783, 3049.095
5840.711, 3039.522
5842.640, 3029.405
5844.568, 3048.776
5846.497, 3113.745
5848.425, 3067.047
5850.354, 3009.451
5852.282, 3006.908
5854.211, 3070.461
5856.139, 3149.776
5858.068, 3076.578
5859.996, 3056.663
5861.925, 3102.099
5863.853, 3085.723
5865.782, 3010.907
5867.710, 3036.151
5869.639, 3066.632
5871.567, 3020.733
5873.496, 3042.029
5875.424, 3045.342
5877.353, 2997.724
5879.281, 2963.865
5881.209, 3082.611
5883.138, 3090.590
5885.066, 3087.355
5886.995, 3080.317
5888.923, 3056.850
5890.852, 3048.907
5892.780, 3021.065
5894.708, 3028.279
5896.637, 3047.676
5898.565, 3001.534
5900.494, 3063.997
5902.422, 3075.621
5904.351, 3055.988
5906.279, 3056.634
5908.208, 3092.947
5910.136, 3015.614
5912.065, 3005.976
5913.993, 3042.898
5915.922, 2984.542
5917.850, 3026.990
5919.779, 3072.801
5921.707, 3049.445
5923.636, 2975.175
5925.564, 3042.964
5927.493, 2993.874
5929.421, 2986.819
5931.350, 3043.982
5933.278, 3110.467
5935.207, 3090.010
5937.135, 3095.635
5939.063, 3063.913
5940.992, 2997.236
5942.920, 2995.039
5944.849, 3006.314
5946.777, 3030.410
5948.706, 3042.815
5950.634, 3033.604
5952.563, 3045.267
5954.491, 3011.701
5956.419, 2996.431
5958.348, 3019.517
5960.276, 3068.943
5962.205, 3028.708
5964.133, 2999.595
5966.062, 3002.861
5967.990, 3023.255
5969.919, 3029.613
5971.847, 3063.631
5973.776, 3138.288
5975.704, 3144.162
5977.633, 3083.520
5979.561, 3198.452
5981.490, 3116.123
5983.418, 3120.007
5985.347, 3158.517
5987.275, 3113.098
5989.204, 3095.037
5991.132, 3087.199
5993.061, 3078.940
5994.989, 3059.795
5996.917, 3029.018
5998.846, 3045.280
6000.774, 3061.779
6002.703, 3109.126
6004.631, 3155.234
6006.560, 3128.811
6008.488, 3059.336
6010.417, 3127.822
6012.345, 3129.952
6014.273, 3028.888
6016.202, 3018.961
6018.130, 3047.615
6020.059, 3032.098
6021.987, 3040.050
6023.916, 3092.229
6025.844, 3103.365
6027.773, 3056.597
6029.701, 3013.164
6031.630, 2984.750
6033.558, 2983.686
6035.487, 3050.669
6037.415, 3103.738
6039.344, 3079.605
6041.272, 3061.932
6043.201, 3096.223
6045.129, 3079.582
6047.058, 3045.548
6048.986, 3026.854
6050.915, 2998.424
6052.843, 2963.500
6054.771, 3035.091
6056.700, 3025.609
6058.628, 3039.018
6060.557, 3065.799
6062.485, 3070.162
6064.414, 3066.363
6066.342, 2994.648
6068.271, 3007.355
6070.199, 3041.684
6072.127, 3023.162
6074.056, 3003.912
6075.984, 3011.821
6077.913, 3047.033
6079.841, 3050.110
6081.770, 3003.244
6083.698, 2985.705
6085.627, 2994.402
6087.555, 2999.892
6089.484, 2993.415
6091.412, 2981.987
6093.341, 2983.956
6095.269, 3032.340
6097.198, 2974.125
6099.126, 2988.205
6101.055, 3089.220
6102.983, 3040.039
6104.912, 3037.853
6106.840, 3036.488
6108.769, 3019.614
6110.697, 3005.729
6112.625, 3023.386
6114.554, 3035.448
6116.482, 3014.486
6118.411, 3034.021
6120.339, 3050.384
6122.268, 2991.437
6124.196, 3035.595
6126.125, 3014.736
6128.053, 2998.873
6129.981, 3011.220
6131.910, 3030.102
6133.838, 3013.954
6135.767, 3019.068
6137.695, 3080.947
6139.624, 3099.166
6141.552, 3028.081
6143.481, 2959.931
6145.409, 3026.754
6147.338, 3070.932
6149.266, 3065.993
6151.195, 3041.640
6153.123, 3037.277
6155.052, 3081.823
6156.980, 3019.935
6158.909, 3024.802
6160.837, 3067.897
6162.766, 3057.923
6164.694, 3102.316
6166.623, 3074.088
6168.551, 3060.234
6170.479, 3078.152
6172.408, 3077.340
6174.336, 2981.370
6176.265, 3022.218
6178.193, 3071.250
6180.122, 3057.054
6182.050, 3040.974
6183.979, 3099.771
6185.907, 3036.257
6187.835, 3062.678
6189.764, 3062.755
6191.692, 3063.175
6193.621, 3092.457
6195.549, 3067.367
6197.478, 3087.815
6199.406, 3035.672
6201.335, 2986.067
6203.263, 2989.395
6205.192, 3036.909
6207.120, 3048.026
6209.049, 3093.761
6210.977, 3085.614
6212.906, 3026.488
6214.834, 2975.235
6216.763, 3013.878
6218.691, 3039.680
6220.620, 3035.444
6222.548, 3001.851
6224.477, 2995.736
6226.405, 3062.975
6228.333, 3142.273
6230.262, 3104.695
6232.190, 3041.688
6234.119, 3005.295
6236.047, 3008.173
6237.976, 3041.389
6239.904, 3056.996
6241.833, 3055.263
6243.761, 3030.983
6245.689, 3052.268
6247.618, 3102.058
6249.546, 3016.362
6251.475, 3018.302
6253.403, 3035.911
6255.332, 3090.962
6257.260, 3081.817
6259.189, 2986.256
6261.117, 3086.782
6263.046, 3114.617
6264.974, 3074.236
6266.903, 3041.586
6268.831, 3041.368
6270.760, 3063.509
6272.688, 3128.058
6274.617, 3066.036
6276.545, 3043.765
6278.474, 3064.380
6280.402, 3093.272
6282.331, 3114.798
6284.259, 3111.052
6286.188, 3146.025
6288.116, 3155.944
6290.044, 3153.292
6291.973, 3133.895
6293.901, 3065.057
6295.830, 3039.631
6297.758, 3040.067
6299.687, 3072.800
6301.615, 3077.918
6303.543, 3023.590
6305.472, 2934.667
6307.400, 3090.282
6309.329, 3007.394
6311.257, 2972.037
6313.186, 3055.652
6315.114, 3128.622
6317.043, 3053.784
6318.971, 3042.934
6320.900, 3053.983
6322.828, 3054.447
6324.757, 3083.141
6326.685, 3110.813
6328.614, 3081.548
6330.542, 3099.146
6332.471, 3063.430
6334.399, 3036.619
6336.328, 3021.765
6338.256, 3035.721
6340.185, 3074.209
6342.113, 3001.929
6344.042, 3015.530
6345.970, 3106.369
6347.898, 3082.558
6349.827, 3006.669
6351.755, 3004.425
6353.684, 2993.683
6355.612, 2927.149
6357.541, 2968.638
6359.469, 3044.397
6361.397, 3004.979
6363.326, 2911.365
6365.254, 3048.975
6367.183, 2932.990
6369.111, 2980.715
6371.040, 2965.763
6372.968, 2947.559
6374.897, 2973.841
6376.825, 2986.510
6378.754, 2989.555
6380.682, 2991.962
6382.611, 3069.701
6384.539, 3015.712
6386.468, 2929.671
6388.396, 2970.168
6390.325, 3023.888
6392.253, 3076.445
6394.182, 3069.322
6396.110, 3078.918
6398.039, 3093.974
6399.967, 3092.289
6401.896, 3082.316
6403.824, 3071.290
6405.752, 3122.642
6407.681, 3158.641
6409.609, 3155.468
6411.538, 3141.310
6413.466, 3139.568
6415.395, 3134.963
6417.323, 3100.382
6419.251, 3144.166
6421.180, 3140.543
6423.108, 3126.934
6425.037, 3143.963
6426.965, 3173.497
6428.894, 3181.355
6430.822, 3191.431
6432.751, 3186.692
6434.679, 3218.901
6436.608, 3253.591
6438.536, 3242.276
6440.465, 3182.841
6442.393, 3177.797
6444.322, 3225.024
6446.250, 3181.836
6448.179, 3155.264
6450.107, 3158.939
6452.036, 3140.560
6453.964, 3088.715
6455.893, 3142.081
6457.821, 3173.607
6459.750, 3163.856
6461.678, 3160.685
6463.606, 3122.359
6465.535, 3077.064
6467.463, 3151.025
6469.392, 3155.553
6471.320, 3122.545
6473.249, 3091.212
6475.177, 3065.488
6477.105, 3112.445
6479.034, 3192.547
6480.962, 3128.380
6482.891, 3100.576
6484.819, 3055.709
6486.748, 3127.164
6488.676, 3146.146
6490.605, 3107.610
6492.533, 3089.114
6494.462, 3097.538
6496.390, 3078.907
6498.319, 3146.966
6500.247, 3183.234
6502.176, 3139.968
6504.104, 3129.860
6506.033, 3159.073
##END=



