##NAMES=Jonesite
##RRUFFID=R080005
##IDEAL CHEMISTRY=KBa_2_Ti_2_(Si_5_Al)O_18_·nH_2_O
##LOCALITY=Langban, Filipstad, Varmland, Sweden
##OWNER=RRUFF
##SOURCE=Michael Scott
##DESCRIPTION=Colorless blades associated with metallic haussmanite and calcite.
##STATUS=The identification of this mineral has been confirmed by single-crystal X-ray diffraction
##URL=https://www.rruff.net/odr/rruff_sample/R080005
##DIFFRACTION SAMPLE DESCRIPTION=Single crystal, powder profile is calculated
##CELL PARAMETERS=a: 10.6151 b: 25.901 c: 8.6923 alpha: 90 beta: 127.637 gamma: 90 volume: 1892.5 crystal system: monoclinic
##FILETYPE=Raman RAW
##RAMAN WAVELENGTH=780

94.84864, 714.9698
96.77711, 687.2731
98.70557, 659.1240
100.6340, 632.3593
102.5625, 607.1305
104.4910, 583.1042
106.4194, 559.0428
108.3479, 534.5500
110.2764, 511.4265
112.2048, 487.4085
114.1333, 466.2847
116.0618, 449.3138
117.9902, 435.3081
119.9187, 422.3192
121.8472, 409.9779
123.7756, 398.5467
125.7041, 387.5247
127.6326, 377.5355
129.5611, 368.0999
131.4895, 360.0628
133.4180, 355.0908
135.3465, 353.2648
137.2749, 350.7483
139.2034, 345.4134
141.1319, 341.2090
143.0603, 339.9803
144.9888, 340.0450
146.9173, 339.2436
148.8457, 337.5804
150.7742, 336.7031
152.7027, 336.7806
154.6311, 337.6269
156.5596, 339.1893
158.4881, 341.5778
160.4165, 345.0073
162.3450, 349.3779
164.2735, 353.6989
166.2019, 358.1804
168.1304, 362.2529
170.0589, 365.2996
171.9873, 368.4710
173.9158, 372.5074
175.8443, 377.2926
177.7727, 382.4380
179.7012, 389.0066
181.6297, 394.2086
183.5581, 397.1960
185.4866, 399.6507
187.4151, 402.6846
189.3435, 405.8294
191.2720, 408.1567
193.2005, 409.6555
195.1289, 409.8839
197.0574, 408.2317
198.9859, 406.4911
200.9143, 406.0580
202.8428, 405.3205
204.7713, 402.6820
206.6997, 398.0869
208.6282, 392.9718
210.5567, 387.4178
212.4851, 381.2675
214.4136, 373.9848
216.3421, 366.5766
218.2705, 359.2651
220.1990, 352.3502
222.1275, 347.0163
224.0559, 343.2634
225.9844, 340.4478
227.9129, 338.1319
229.8413, 337.4932
231.7698, 339.1493
233.6983, 342.4407
235.6267, 346.1931
237.5552, 350.5610
239.4837, 357.7429
241.4121, 368.5776
243.3406, 379.6050
245.2691, 389.9959
247.1975, 399.9880
249.1260, 409.1931
251.0545, 418.1788
252.9829, 428.4451
254.9114, 439.9330
256.8399, 451.4767
258.7683, 462.4239
260.6968, 474.2256
262.6253, 488.0859
264.5537, 502.3881
266.4822, 515.8300
268.4107, 528.3177
270.3391, 539.2418
272.2676, 548.4844
274.1961, 556.5058
276.1245, 564.8556
278.0530, 570.3270
279.9815, 571.1682
281.9099, 568.4221
283.8384, 563.2733
285.7669, 555.9293
287.6953, 547.4908
289.6238, 537.7917
291.5523, 527.4023
293.4807, 514.9572
295.4092, 503.6216
297.3377, 495.6619
299.2661, 489.7123
301.1946, 483.7330
303.1231, 477.6883
305.0515, 473.1126
306.9800, 471.3845
308.9085, 469.1409
310.8369, 464.8337
312.7654, 461.1332
314.6939, 459.7039
316.6223, 460.0038
318.5508, 461.5094
320.4793, 464.4736
322.4077, 467.2359
324.3362, 467.6117
326.2647, 471.3309
328.1931, 480.2201
330.1216, 491.9067
332.0501, 506.2878
333.9785, 521.7700
335.9070, 535.3468
337.8355, 547.2201
339.7639, 555.8440
341.6924, 560.2704
343.6209, 563.6401
345.5493, 566.2347
347.4778, 568.7558
349.4063, 570.9448
351.3347, 573.5417
353.2632, 579.2953
355.1917, 589.0375
357.1201, 591.9858
359.0486, 587.7539
360.9771, 578.8250
362.9055, 565.2927
364.8340, 547.4831
366.7625, 524.6262
368.6909, 498.8004
370.6194, 471.9573
372.5479, 444.4815
374.4763, 420.9295
376.4048, 401.5825
378.3333, 383.7178
380.2617, 366.3961
382.1902, 351.3260
384.1187, 338.9445
386.0471, 328.9495
387.9756, 321.7173
389.9041, 316.6869
391.8326, 311.3592
393.7610, 305.6405
395.6895, 300.7969
397.6180, 296.9990
399.5464, 294.3575
401.4749, 293.0313
403.4034, 292.4529
405.3318, 293.1357
407.2603, 294.0984
409.1888, 292.9960
411.1172, 290.1479
413.0457, 287.5685
414.9742, 285.4363
416.9026, 283.6646
418.8311, 282.8665
420.7596, 281.5213
422.6880, 278.3659
424.6165, 275.0611
426.5450, 273.8672
428.4734, 273.6907
430.4019, 271.6481
432.3304, 267.4840
434.2588, 264.2050
436.1873, 262.8495
438.1158, 261.4231
440.0442, 258.9915
441.9727, 257.0874
443.9012, 257.1277
445.8296, 257.7314
447.7581, 257.3241
449.6866, 256.1887
451.6150, 255.2746
453.5435, 254.5117
455.4720, 254.3257
457.4004, 255.2811
459.3289, 255.9477
461.2574, 255.9171
463.1858, 255.6619
465.1143, 255.5587
467.0428, 255.3627
468.9712, 254.3662
470.8997, 252.9032
472.8282, 253.2729
474.7566, 256.5574
476.6851, 257.9788
478.6136, 256.8746
480.5420, 255.3977
482.4705, 253.9152
484.3990, 252.3690
486.3274, 250.9603
488.2559, 249.3404
490.1844, 246.8571
492.1128, 243.7114
494.0413, 240.9318
495.9698, 238.4588
497.8982, 236.7169
499.8267, 235.9675
501.7552, 235.4619
503.6836, 235.8229
505.6121, 234.8113
507.5406, 230.0431
509.4690, 224.9523
511.3975, 222.3647
513.3260, 221.4107
515.2545, 220.3693
517.1829, 219.1888
519.1114, 218.0095
521.0399, 216.9268
522.9683, 215.0551
524.8968, 212.0737
526.8253, 208.7635
528.7537, 205.1806
530.6822, 201.3782
532.6107, 197.5511
534.5391, 193.8144
536.4676, 189.8835
538.3961, 185.9935
540.3245, 183.0586
542.2530, 180.9378
544.1815, 178.1944
546.1099, 174.3627
548.0384, 171.4558
549.9669, 170.5009
551.8953, 169.6600
553.8238, 168.5630
555.7523, 167.3617
557.6807, 166.2418
559.6092, 165.0719
561.5377, 163.1855
563.4661, 161.0333
565.3946, 160.2739
567.3231, 161.0331
569.2515, 161.3989
571.1800, 161.1548
573.1085, 160.3857
575.0369, 158.6712
576.9654, 157.2398
578.8939, 156.4571
580.8223, 156.0861
582.7508, 155.8770
584.6793, 155.7620
586.6077, 156.2764
588.5362, 156.9644
590.4647, 156.3579
592.3931, 154.3446
594.3216, 152.9864
596.2501, 152.7535
598.1785, 152.3553
600.1070, 151.2866
602.0355, 150.7363
603.9639, 151.7135
605.8924, 152.2674
607.8209, 150.9431
609.7493, 149.2991
611.6778, 148.5114
613.6063, 148.2444
615.5347, 147.8447
617.4632, 148.2392
619.3917, 148.0744
621.3201, 149.6517
623.2486, 151.0728
625.1771, 152.2913
627.1055, 153.7469
629.0340, 155.5193
630.9625, 157.3885
632.8909, 159.1273
634.8194, 161.2816
636.7479, 164.4328
638.6763, 167.6681
640.6048, 170.5540
642.5333, 172.9969
644.4617, 174.3905
646.3902, 177.4325
648.3187, 178.1569
650.2471, 182.5425
652.1756, 185.9913
654.1041, 188.5039
656.0325, 190.6145
657.9610, 192.1258
659.8895, 194.0116
661.8179, 197.3081
663.7464, 199.7564
665.6749, 201.0955
667.6033, 200.8259
669.5318, 197.6626
671.4603, 193.6969
673.3887, 191.0311
675.3172, 188.7687
677.2457, 185.5159
679.1741, 181.6670
681.1026, 178.2570
683.0311, 175.2375
684.9595, 172.3510
686.8880, 169.5780
688.8165, 167.2541
690.7449, 165.4243
692.6734, 163.9875
694.6019, 163.0625
696.5303, 162.3507
698.4588, 161.4986
700.3873, 161.1413
702.3157, 161.8527
704.2442, 163.1405
706.1727, 164.5355
708.1011, 165.9727
710.0296, 167.5071
711.9581, 169.0643
713.8865, 170.5805
715.8150, 172.0302
717.7435, 172.9271
719.6719, 174.4912
721.6004, 176.1499
723.5289, 177.2336
725.4573, 179.6309
727.3858, 181.1728
729.3143, 182.5583
731.2427, 183.5642
733.1712, 185.0172
735.0997, 187.4684
737.0281, 190.0857
738.9566, 192.6917
740.8851, 194.7336
742.8135, 195.8601
744.7420, 196.4976
746.6705, 197.2062
748.5989, 197.0751
750.5274, 194.2576
752.4559, 189.4696
754.3843, 185.7397
756.3128, 183.0867
758.2413, 180.6999
760.1697, 178.6809
762.0982, 176.0707
764.0267, 172.5519
765.9551, 169.7252
767.8836, 168.0161
769.8121, 166.2839
771.7405, 164.2196
773.6690, 162.3293
775.5975, 160.4217
777.5259, 159.0027
779.4544, 158.6023
781.3829, 158.7390
783.3113, 158.8227
785.2398, 159.1868
787.1683, 160.0038
789.0967, 161.8871
791.0252, 165.9757
792.9537, 171.3651
794.8821, 175.9784
796.8106, 180.2749
798.7391, 185.8595
800.6675, 192.5153
802.5960, 199.3033
804.5245, 206.4503
806.4529, 215.7346
808.3814, 225.2359
810.3099, 235.4880
812.2383, 247.9811
814.1668, 259.6967
816.0953, 273.9925
818.0237, 290.3735
819.9522, 308.5070
821.8807, 329.5081
823.8091, 352.4400
825.7376, 379.7949
827.6661, 415.2944
829.5945, 451.8209
831.5230, 486.1422
833.4515, 518.9167
835.3799, 551.9062
837.3084, 581.8677
839.2369, 603.9031
841.1653, 622.5612
843.0938, 641.7994
845.0223, 663.9952
846.9507, 694.6241
848.8792, 730.1072
850.8077, 763.1934
852.7361, 792.3944
854.6646, 811.8967
856.5931, 821.2748
858.5215, 812.3693
860.4500, 784.3848
862.3785, 746.0079
864.3069, 695.0203
866.2354, 641.7904
868.1639, 585.6705
870.0923, 532.5760
872.0208, 481.5887
873.9493, 435.8188
875.8777, 395.2842
877.8062, 363.4070
879.7347, 341.8536
881.6631, 325.3535
883.5916, 313.1209
885.5201, 304.5338
887.4485, 299.9785
889.3770, 297.7121
891.3055, 297.9048
893.2339, 298.3257
895.1624, 297.9539
897.0909, 297.6234
899.0193, 297.6813
900.9478, 298.1477
902.8763, 298.2670
904.8047, 299.4583
906.7332, 303.5809
908.6617, 308.4392
910.5901, 311.6447
912.5186, 317.2105
914.4471, 320.8391
916.3755, 327.7595
918.3040, 333.8839
920.2325, 339.1669
922.1609, 343.8866
924.0894, 347.5135
926.0179, 348.9224
927.9464, 348.4240
929.8748, 346.0638
931.8033, 342.5692
933.7318, 339.8919
935.6602, 334.1978
937.5887, 330.6919
939.5172, 321.7425
941.4456, 313.8300
943.3741, 306.6759
945.3026, 297.8238
947.2310, 287.5533
949.1595, 278.9394
951.0880, 271.9205
953.0164, 264.0151
954.9449, 255.2273
956.8734, 246.5271
958.8018, 237.7246
960.7303, 229.4791
962.6588, 222.1654
964.5872, 214.6341
966.5157, 207.0378
968.4442, 198.2113
970.3726, 187.2133
972.3011, 177.5315
974.2296, 169.4053
976.1580, 162.1407
978.0865, 156.0318
980.0150, 149.5309
981.9434, 142.2631
983.8719, 135.8777
985.8004, 130.2325
987.7288, 126.2683
989.6573, 124.7848
991.5858, 122.8768
993.5142, 119.9187
995.4427, 117.0004
997.3712, 113.7441
999.2996, 112.3769
1001.228, 114.4628
1003.157, 115.1707
1005.085, 112.5522
1007.013, 110.8728
1008.942, 111.5063
1010.870, 112.0476
1012.799, 111.8687
1014.727, 111.7674
1016.656, 111.9720
1018.584, 112.3880
1020.513, 112.8469
1022.441, 113.2717
1024.370, 113.9916
1026.298, 114.5984
1028.227, 114.6128
1030.155, 114.8647
1032.084, 115.7882
1034.012, 116.6822
1035.941, 117.5867
1037.869, 117.8760
1039.797, 117.0215
1041.726, 116.3452
1043.654, 116.1646
1045.583, 116.2809
1047.511, 116.9512
1049.440, 116.9040
1051.368, 115.8476
1053.297, 114.8302
1055.225, 113.5489
1057.154, 112.8260
1059.082, 113.0930
1061.011, 113.3298
1062.939, 113.5800
1064.868, 113.7384
1066.796, 113.5529
1068.724, 113.2422
1070.653, 113.2050
1072.581, 112.9554
1074.510, 111.9908
1076.438, 111.1076
1078.367, 110.6606
1080.295, 109.9236
1082.224, 108.7361
1084.152, 107.7729
1086.081, 106.7084
1088.009, 105.4997
1089.938, 104.5025
1091.866, 103.1391
1093.795, 102.0715
1095.723, 100.9972
1097.651, 100.1445
1099.580, 99.16816
1101.508, 97.79247
1103.437, 96.40029
1105.365, 95.05299
1107.294, 94.07015
1109.222, 93.69685
1111.151, 93.32944
1113.079, 92.54828
1115.008, 92.18652
1116.936, 92.66203
1118.865, 91.89647
1120.793, 91.69828
1122.722, 91.41592
1124.650, 90.61858
1126.578, 90.78873
1128.507, 89.97561
1130.435, 90.10586
1132.364, 90.76044
1134.292, 90.10234
1136.221, 89.96293
1138.149, 89.59049
1140.078, 88.74526
1142.006, 88.42564
1143.935, 87.58793
1145.863, 86.98151
1147.792, 86.59889
1149.720, 86.33571
1151.649, 86.06023
1153.577, 85.61338
1155.505, 85.40468
1157.434, 86.02480
1159.362, 86.67268
1161.291, 86.43539
1163.219, 85.67078
1165.148, 84.32230
1167.076, 83.42683
1169.005, 83.95110
1170.933, 84.59068
1172.862, 85.10766
1174.790, 85.50036
1176.719, 85.01147
1178.647, 84.33483
1180.576, 84.03048
1182.504, 84.05798
1184.432, 84.60198
1186.361, 84.92242
1188.289, 84.69701
1190.218, 84.16881
1192.146, 83.34280
1194.075, 83.15199
1196.003, 82.91098
1197.932, 83.48837
1199.860, 83.10354
1201.789, 83.40856
1203.717, 84.07885
1205.646, 84.11906
1207.574, 83.76843
1209.503, 83.43534
1211.431, 83.03484
1213.359, 82.97389
1215.288, 83.30798
1217.216, 83.43365
1219.145, 83.26584
1221.073, 83.26600
1223.002, 83.47070
1224.930, 83.15871
1226.859, 82.69774
1228.787, 83.49808
1230.716, 83.36491
1232.644, 84.55199
1234.573, 83.97697
1236.501, 84.20694
1238.430, 84.42184
1240.358, 83.61296
1242.286, 82.99345
1244.215, 82.98375
1246.143, 82.85681
1248.072, 82.64818
1250.000, 82.45467
1251.929, 82.16042
1253.857, 82.26832
1255.786, 82.64339
1257.714, 82.14601
1259.643, 82.55084
1261.571, 81.49431
1263.500, 82.61136
1265.428, 82.85710
1267.357, 82.27410
1269.285, 82.56825
1271.214, 83.53355
1273.142, 83.52812
1275.070, 83.02464
1276.999, 82.63360
1278.927, 82.44132
1280.856, 82.89207
1282.784, 83.34380
1284.713, 83.21469
1286.641, 82.78436
1288.570, 82.18113
1290.498, 82.15421
1292.427, 82.81685
1294.355, 83.27940
1296.284, 83.79498
1298.212, 84.24026
1300.141, 84.11254
1302.069, 83.79121
1303.997, 83.77005
1305.926, 83.61125
1307.854, 83.29885
1309.783, 83.63438
1311.711, 84.07851
1313.640, 83.68929
1315.568, 83.29781
1317.497, 84.79371
1319.425, 86.35551
1321.354, 84.76332
1323.282, 82.99483
1325.211, 83.73032
1327.139, 84.45937
1329.068, 83.72836
1330.996, 83.03525
1332.924, 83.18924
1334.853, 83.58089
1336.781, 83.58501
1338.710, 83.15862
1340.638, 82.75649
1342.567, 83.13327
1344.495, 84.18823
1346.424, 85.08467
1348.352, 85.34245
1350.281, 84.79366
1352.209, 84.36772
1354.138, 84.71147
1356.066, 84.90977
1357.995, 84.36185
1359.923, 84.01764
1361.851, 83.97330
1363.780, 83.84354
1365.708, 84.21773
1367.637, 84.32616
1369.565, 84.30481
1371.494, 84.25590
1373.422, 84.09730
1375.351, 84.04131
1377.279, 84.06577
1379.208, 83.78017
1381.136, 84.34686
1383.065, 84.88356
1384.993, 85.45708
1386.922, 85.34138
1388.850, 85.03432
1390.778, 85.76312
1392.707, 86.18043
1394.635, 84.73056
1396.564, 83.70544
1398.492, 83.84053
1400.421, 84.11745
1402.349, 84.80867
1404.278, 85.84518
1406.206, 87.12174
1408.135, 87.48484
1410.063, 87.00020
1411.992, 86.70019
1413.920, 86.38908
1415.849, 85.74647
1417.777, 85.53442
1419.705, 85.89680
1421.634, 86.27607
1423.562, 86.68759
1425.491, 87.14303
1427.419, 87.64664
1429.348, 87.17924
1431.276, 87.58779
1433.205, 87.37350
1435.133, 87.25483
1437.062, 87.12736
1438.990, 86.94175
1440.919, 87.01812
1442.847, 86.74129
1444.776, 87.06508
1446.704, 87.28529
1448.632, 87.08840
1450.561, 87.02583
1452.489, 88.00795
1454.418, 87.79180
1456.346, 85.51858
1458.275, 84.15661
1460.203, 84.41917
1462.132, 84.89042
1464.060, 85.14128
1465.989, 84.55193
1467.917, 84.68621
1469.846, 83.64569
1471.774, 84.00428
1473.703, 83.56463
1475.631, 82.88278
1477.559, 81.63898
1479.488, 80.85558
1481.416, 80.90563
1483.345, 81.27277
1485.273, 81.80122
1487.202, 81.79787
1489.130, 81.61743
1491.059, 81.53376
1492.987, 81.28379
1494.916, 81.35346
1496.844, 81.18774
1498.773, 79.86198
1500.701, 79.16605
1502.630, 79.61678
1504.558, 79.88588
1506.486, 80.21625
1508.415, 80.46781
1510.343, 80.39895
1512.272, 79.62068
1514.200, 78.61483
1516.129, 78.98468
1518.057, 79.58286
1519.986, 78.73581
1521.914, 77.94932
1523.843, 78.36488
1525.771, 79.54701
1527.700, 80.36529
1529.628, 79.13640
1531.557, 77.73263
1533.485, 78.04027
1535.413, 78.74924
1537.342, 79.48078
1539.270, 79.75226
1541.199, 79.35221
1543.127, 78.85860
1545.056, 78.31500
1546.984, 78.20227
1548.913, 77.80685
1550.841, 77.98263
1552.770, 77.53192
1554.698, 77.46123
1556.627, 77.75043
1558.555, 77.89935
1560.484, 77.90541
1562.412, 77.26648
1564.340, 76.58463
1566.269, 76.18170
1568.197, 76.48051
1570.126, 77.61365
1572.054, 77.73343
1573.983, 76.89277
1575.911, 76.34620
1577.840, 76.12498
1579.768, 76.34065
1581.697, 76.71581
1583.625, 77.20528
1585.554, 77.83802
1587.482, 78.12038
1589.411, 77.51318
1591.339, 77.78913
1593.267, 76.89659
1595.196, 77.42908
1597.124, 77.15009
1599.053, 76.92130
1600.981, 77.02386
1602.910, 77.15411
1604.838, 77.48720
1606.767, 77.57564
1608.695, 77.38802
1610.624, 77.15360
1612.552, 76.79388
1614.481, 76.39215
1616.409, 75.95377
1618.338, 75.88503
1620.266, 75.36160
1622.194, 75.77313
1624.123, 75.79624
1626.051, 75.73901
1627.980, 75.79800
1629.908, 75.86386
1631.837, 76.27631
1633.765, 76.25867
1635.694, 75.24737
1637.622, 74.62434
1639.551, 74.77772
1641.479, 74.95187
1643.408, 74.80629
1645.336, 74.38490
1647.265, 73.84845
1649.193, 73.95000
1651.121, 74.01270
1653.050, 72.92620
1654.978, 72.24229
1656.907, 72.62972
1658.835, 73.14376
1660.764, 73.11790
1662.692, 72.62863
1664.621, 72.54665
1666.549, 72.67595
1668.478, 72.38649
1670.406, 72.33604
1672.335, 72.75124
1674.263, 72.83028
1676.192, 72.48628
1678.120, 71.96378
1680.048, 71.16565
1681.977, 70.40514
1683.905, 69.81117
1685.834, 69.43024
1687.762, 69.20122
1689.691, 69.68812
1691.619, 69.41812
1693.548, 70.17778
1695.476, 69.53610
1697.405, 70.17989
1699.333, 70.36919
1701.262, 69.13892
1703.190, 68.39494
1705.119, 68.59097
1707.047, 68.99234
1708.975, 69.09431
1710.904, 69.19057
1712.832, 69.19119
1714.761, 69.05100
1716.689, 68.88760
1718.618, 68.47343
1720.546, 68.13480
1722.475, 67.48623
1724.403, 67.34793
1726.332, 68.16490
1728.260, 68.80309
1730.189, 68.46353
1732.117, 67.76939
1734.046, 67.54375
1735.974, 67.23705
1737.902, 66.86575
1739.831, 66.97763
1741.759, 66.58636
1743.688, 66.75221
1745.616, 67.17930
1747.545, 66.86404
1749.473, 66.15883
1751.402, 66.30006
1753.330, 66.51881
1755.259, 66.48708
1757.187, 66.58852
1759.116, 66.50689
1761.044, 66.00926
1762.973, 65.21193
1764.901, 64.59809
1766.829, 64.29942
1768.758, 63.90813
1770.686, 63.67851
1772.615, 63.87023
1774.543, 63.80056
1776.472, 63.42406
1778.400, 63.69119
1780.329, 64.11945
1782.257, 64.00764
1784.186, 63.91912
1786.114, 63.61766
1788.043, 63.55910
1789.971, 63.98183
1791.900, 64.14306
1793.828, 63.90802
1795.756, 63.01612
1797.685, 62.13320
1799.613, 61.70162
1801.542, 61.40242
1803.470, 61.09585
1805.399, 61.37966
1807.327, 61.10222
1809.256, 60.93009
1811.184, 61.06061
1813.113, 60.35239
1815.041, 60.43475
1816.970, 59.96709
1818.898, 59.98351
1820.827, 59.89720
1822.755, 59.87881
1824.683, 59.93239
1826.612, 59.78175
1828.540, 59.77150
1830.469, 59.60072
1832.397, 59.48798
1834.326, 59.51590
1836.254, 59.07449
1838.183, 58.51365
1840.111, 58.00410
1842.040, 57.80839
1843.968, 58.10840
1845.897, 58.12892
1847.825, 57.68698
1849.754, 57.36212
1851.682, 57.70200
1853.610, 58.36589
1855.539, 58.14970
1857.467, 58.06425
1859.396, 58.27946
1861.324, 57.82513
1863.253, 57.29913
1865.181, 56.98376
1867.110, 57.34590
1869.038, 56.64929
1870.967, 56.61689
1872.895, 56.74002
1874.824, 56.05769
1876.752, 56.67257
1878.681, 56.33158
1880.609, 55.60149
1882.537, 54.73289
1884.466, 53.98777
1886.394, 54.43216
1888.323, 54.80717
1890.251, 54.80288
1892.180, 54.52618
1894.108, 54.02697
1896.037, 53.75770
1897.965, 53.76101
1899.894, 53.46423
1901.822, 54.61801
1903.751, 53.56853
1905.679, 53.70519
1907.608, 54.52818
1909.536, 54.07038
1911.464, 53.13035
1913.393, 52.18240
1915.321, 51.66996
1917.250, 51.94014
1919.178, 52.08527
1921.107, 52.12003
1923.035, 52.43345
1924.964, 52.49009
1926.892, 52.04043
1928.821, 51.39681
1930.749, 51.30317
1932.678, 52.09603
1934.606, 52.30061
1936.535, 51.67559
1938.463, 51.09126
1940.391, 50.70330
1942.320, 50.75252
1944.248, 50.83307
1946.177, 51.01733
1948.105, 50.91969
1950.034, 50.79393
1951.962, 50.82472
1953.891, 50.82319
1955.819, 50.88376
1957.748, 50.63309
1959.676, 50.06070
1961.605, 49.40631
1963.533, 49.10588
1965.462, 48.83184
1967.390, 49.02143
1969.318, 49.98650
1971.247, 50.11483
1973.175, 49.53882
1975.104, 48.58578
1977.032, 48.02589
1978.961, 47.60104
1980.889, 47.36998
1982.818, 47.13589
1984.746, 47.25699
1986.675, 47.51540
1988.603, 47.27551
1990.532, 47.17798
1992.460, 47.54765
1994.389, 47.37035
1996.317, 46.58926
1998.245, 46.01754
2000.174, 46.10343
2002.102, 46.26974
2004.031, 46.28844
2005.959, 46.36010
2007.888, 46.15311
2009.816, 45.99810
2011.745, 45.86372
2013.673, 45.49931
2015.602, 45.45926
2017.530, 45.37711
2019.459, 45.48112
2021.387, 45.20837
2023.316, 45.42054
2025.244, 44.74233
2027.172, 44.28859
2029.101, 44.07622
2031.029, 43.75644
2032.958, 43.94105
2034.886, 43.53037
2036.815, 43.58992
2038.743, 43.60329
2040.672, 43.17448
2042.600, 43.32542
2044.529, 43.65531
2046.457, 43.46020
2048.386, 42.78562
2050.314, 41.57021
2052.243, 41.41097
2054.171, 42.15906
2056.100, 42.56278
2058.028, 42.73148
2059.957, 43.37238
2061.885, 42.90093
2063.813, 41.85108
2065.742, 41.94466
2067.670, 42.14109
2069.599, 42.29473
2071.527, 42.27134
2073.456, 42.01404
2075.384, 41.50621
2077.313, 41.10032
2079.241, 40.99216
2081.170, 40.91518
2083.098, 41.42683
2085.027, 41.86378
2086.955, 41.44521
2088.884, 40.66448
2090.812, 40.68768
2092.740, 41.01847
2094.669, 41.53532
2096.597, 41.31635
2098.526, 40.27788
2100.454, 39.67030
2102.383, 39.30093
2104.311, 38.89079
2106.240, 38.65815
2108.168, 38.70296
2110.097, 38.34722
2112.025, 38.49075
2113.954, 38.34093
2115.882, 38.41235
2117.811, 38.06052
2119.739, 38.29527
2121.667, 38.81233
2123.596, 38.43199
2125.524, 38.17902
2127.453, 37.81519
2129.381, 37.35121
2131.310, 37.44747
2133.238, 37.85303
2135.167, 37.63056
2137.095, 37.41731
2139.024, 37.71058
2140.952, 37.47016
2142.881, 36.33353
2144.809, 36.01908
2146.738, 36.48680
2148.666, 37.25011
2150.594, 37.31820
2152.523, 36.65419
2154.451, 36.59693
2156.380, 36.59610
2158.308, 35.61842
2160.237, 35.29184
2162.165, 35.73214
2164.094, 35.95297
2166.022, 36.13574
2167.951, 36.03396
2169.879, 36.09026
2171.808, 35.96294
2173.736, 35.44254
2175.665, 35.29336
2177.593, 34.96666
2179.521, 34.92939
2181.450, 34.29526
2183.378, 34.19075
2185.307, 33.70041
2187.235, 33.06125
2189.164, 33.47013
2191.092, 34.43069
2193.021, 35.17912
2194.949, 34.96238
2196.878, 35.33913
2198.806, 34.55141
2200.735, 34.82377
2202.663, 34.58616
2204.592, 33.63349
2206.520, 32.75136
2208.448, 32.96171
2210.377, 33.10823
2212.305, 32.72955
2214.234, 32.85992
2216.162, 33.06852
2218.091, 32.91656
2220.019, 32.72519
2221.948, 32.42706
2223.876, 32.71634
2225.805, 32.88447
2227.733, 32.42246
2229.662, 32.60598
2231.590, 33.19853
2233.519, 33.10049
2235.447, 33.22196
2237.375, 34.20556
2239.304, 34.09640
2241.232, 33.39442
2243.161, 32.67661
2245.089, 32.70963
2247.018, 32.96288
2248.946, 32.57581
2250.875, 32.14191
2252.803, 31.92393
2254.732, 31.54695
2256.660, 31.43466
2258.589, 30.92004
2260.517, 30.81066
2262.446, 30.47956
2264.374, 30.41088
2266.302, 30.67303
2268.231, 30.73199
2270.159, 31.17868
2272.088, 31.50256
2274.016, 31.17343
2275.945, 30.50592
2277.873, 29.52540
2279.802, 28.84964
2281.730, 28.33182
2283.659, 28.22142
2285.587, 28.18119
2287.516, 29.97827
2289.444, 28.86293
2291.373, 28.86515
2293.301, 29.68938
2295.229, 29.01145
2297.158, 28.56279
2299.086, 28.66501
2301.015, 28.44208
2302.943, 28.24609
2304.872, 28.31828
2306.800, 28.03377
2308.729, 27.70932
2310.657, 27.57809
2312.586, 27.80867
2314.514, 28.37693
2316.443, 27.59117
2318.371, 26.93894
2320.300, 27.79567
2322.228, 28.31410
2324.156, 28.60229
2326.085, 28.41512
2328.013, 28.21633
2329.942, 28.56774
2331.870, 27.54165
2333.799, 26.64014
2335.727, 27.46510
2337.656, 27.45435
2339.584, 26.91068
2341.513, 26.75097
2343.441, 26.56150
2345.370, 26.12977
2347.298, 25.92911
2349.227, 25.67380
2351.155, 25.47685
2353.083, 25.55455
2355.012, 25.38375
2356.940, 25.72224
2358.869, 26.11484
2360.797, 26.05268
2362.726, 26.00092
2364.654, 25.65982
2366.583, 25.45565
2368.511, 24.75600
2370.440, 25.00572
2372.368, 24.69444
2374.297, 24.90805
2376.225, 25.18766
2378.154, 24.55595
2380.082, 24.31603
2382.010, 24.30469
2383.939, 24.82220
2385.867, 25.16978
2387.796, 24.98164
2389.724, 24.53447
2391.653, 24.00777
2393.581, 24.07988
2395.510, 23.70476
2397.438, 23.71904
2399.367, 23.69353
2401.295, 23.82084
2403.224, 24.50432
2405.152, 24.65149
2407.081, 24.06710
2409.009, 23.35404
2410.938, 23.35822
2412.866, 23.33962
2414.794, 23.45632
2416.723, 23.38399
2418.651, 23.55662
2420.580, 23.87598
2422.508, 23.40834
2424.437, 23.15773
2426.365, 23.39716
2428.294, 23.29375
2430.222, 22.80796
2432.151, 22.66625
2434.079, 22.68372
2436.008, 22.54015
2437.936, 22.16901
2439.865, 21.93987
2441.793, 21.89381
2443.721, 21.64719
2445.650, 21.48213
2447.578, 21.88835
2449.507, 21.48476
2451.435, 21.06883
2453.364, 21.58921
2455.292, 21.78988
2457.221, 21.64417
2459.149, 21.71228
2461.078, 21.75062
2463.006, 21.34352
2464.935, 20.58290
2466.863, 20.18977
2468.792, 19.90728
2470.720, 20.17611
2472.648, 20.61314
2474.577, 20.49708
2476.505, 20.82167
2478.434, 20.61641
2480.362, 19.53947
2482.291, 19.28783
2484.219, 19.51947
2486.148, 20.61422
2488.076, 20.61634
2490.005, 20.16156
2491.933, 19.49849
2493.862, 19.28163
2495.790, 19.64940
2497.719, 19.56195
2499.647, 19.71273
2501.575, 19.89469
2503.504, 19.80664
2505.432, 19.69385
2507.361, 19.64062
2509.289, 19.25376
2511.218, 18.90192
2513.146, 18.75619
2515.075, 18.76960
2517.003, 18.85917
2518.932, 18.53411
2520.860, 18.99127
2522.789, 18.15838
2524.717, 17.69120
2526.646, 17.91119
2528.574, 18.38121
2530.502, 18.50797
2532.431, 18.62032
2534.359, 18.31639
2536.288, 17.69409
2538.216, 17.61134
2540.145, 17.57845
2542.073, 17.66452
2544.002, 17.21382
2545.930, 16.68593
2547.859, 17.61839
2549.787, 18.23252
2551.716, 18.30601
2553.644, 18.33811
2555.573, 17.49500
2557.501, 16.32840
2559.429, 16.22066
2561.358, 17.01737
2563.286, 18.11859
2565.215, 16.75271
2567.143, 15.88240
2569.072, 16.23150
2571.000, 16.51110
2572.929, 16.56359
2574.857, 16.53447
2576.786, 16.50377
2578.714, 16.39414
2580.643, 16.16389
2582.571, 16.07529
2584.500, 15.81256
2586.428, 15.59280
2588.356, 15.57739
2590.285, 15.67188
2592.213, 15.49522
2594.142, 15.10040
2596.070, 15.34635
2597.999, 15.18345
2599.927, 15.22370
2601.856, 15.30018
2603.784, 15.31079
2605.713, 15.31353
2607.641, 15.39591
2609.570, 15.28176
2611.498, 15.18914
2613.427, 15.17991
2615.355, 16.03834
2617.283, 15.97549
2619.212, 15.40072
2621.140, 14.74092
2623.069, 14.80481
2624.997, 14.65289
2626.926, 14.15286
2628.854, 14.14363
2630.783, 13.84615
2632.711, 13.85276
2634.640, 13.96196
2636.568, 14.44054
2638.497, 14.34935
2640.425, 14.31643
2642.354, 14.55266
2644.282, 14.00338
2646.210, 14.25675
2648.139, 14.26077
2650.067, 13.93245
2651.996, 13.79041
2653.924, 13.67438
2655.853, 13.38705
2657.781, 12.70883
2659.710, 13.12991
2661.638, 12.67182
2663.567, 13.41660
2665.495, 12.81159
2667.424, 12.79330
2669.352, 13.83227
2671.281, 13.85063
2673.209, 12.96774
2675.137, 12.90069
2677.066, 12.81666
2678.994, 12.59460
2680.923, 12.83818
2682.851, 12.94637
2684.780, 12.88531
2686.708, 12.43453
2688.637, 12.15657
2690.565, 12.16672
2692.494, 11.67225
2694.422, 12.39834
2696.351, 12.86569
2698.279, 11.97583
2700.208, 11.85301
2702.136, 12.08431
2704.064, 12.27872
2705.993, 11.56399
2707.921, 11.02722
2709.850, 10.94076
2711.778, 12.01102
2713.707, 12.62246
2715.635, 11.96479
2717.564, 10.91003
2719.492, 10.92781
2721.421, 11.69176
2723.349, 11.69210
2725.278, 12.37839
2727.206, 12.55559
2729.135, 11.10973
2731.063, 10.99370
2732.991, 11.17001
2734.920, 10.69963
2736.848, 10.51496
2738.777, 10.93613
2740.705, 10.65661
2742.634, 11.40709
2744.562, 10.58776
2746.491, 10.78005
2748.419, 10.49258
2750.348, 10.15571
2752.276, 10.17460
2754.205, 10.49021
2756.133, 10.34641
2758.062, 10.07584
2759.990, 10.45915
2761.918, 9.861336
2763.847, 9.420771
2765.775, 10.37012
2767.704, 10.13621
2769.632, 9.680842
2771.561, 10.23973
2773.489, 9.957786
2775.418, 9.395370
2777.346, 9.614902
2779.275, 9.425394
2781.203, 10.70185
2783.132, 9.649920
2785.060, 10.15893
2786.989, 10.56101
2788.917, 10.25379
2790.845, 9.486131
2792.774, 9.371946
2794.702, 9.672338
2796.631, 9.627630
2798.559, 9.234093
2800.488, 8.839510
2802.416, 8.908342
2804.345, 8.530991
2806.273, 8.057673
2808.202, 8.593947
2810.130, 8.311435
2812.059, 8.315115
2813.987, 8.830266
2815.916, 8.897257
2817.844, 9.013167
2819.772, 9.280848
2821.701, 8.353628
2823.629, 7.567832
2825.558, 7.964703
2827.486, 9.188902
2829.415, 9.085059
2831.343, 8.795729
2833.272, 8.453234
2835.200, 8.171386
2837.129, 8.227889
2839.057, 8.454646
2840.986, 7.923468
2842.914, 8.711046
2844.843, 9.272456
2846.771, 7.747068
2848.699, 7.782922
2850.628, 8.296719
2852.556, 8.763660
2854.485, 7.784362
2856.413, 7.314734
2858.342, 7.459973
2860.270, 7.092369
2862.199, 7.560125
2864.127, 8.233900
2866.056, 7.706248
2867.984, 6.776572
2869.913, 6.431087
2871.841, 7.170499
2873.770, 7.208301
2875.698, 7.232297
2877.626, 7.113989
2879.555, 6.447343
2881.483, 7.312113
2883.412, 8.156627
2885.340, 8.103331
2887.269, 7.634295
2889.197, 6.515895
2891.126, 5.918681
2893.054, 7.654263
2894.983, 8.136561
2896.911, 7.934690
2898.840, 8.302804
2900.768, 7.741752
2902.697, 6.790103
2904.625, 6.482662
2906.553, 7.476714
2908.482, 8.295179
2910.410, 7.998116
2912.339, 7.296512
2914.267, 7.121568
2916.196, 6.964892
2918.124, 6.146695
2920.053, 6.733713
2921.981, 7.160451
2923.910, 6.646250
2925.838, 6.539034
2927.767, 6.472999
2929.695, 6.398817
2931.624, 6.810069
2933.552, 7.310254
2935.480, 7.180227
2937.409, 7.246974
2939.337, 7.324899
2941.266, 7.033681
2943.194, 7.017446
2945.123, 7.289765
2947.051, 6.644795
2948.980, 6.143876
2950.908, 6.257561
2952.837, 6.227118
2954.765, 6.372745
2956.694, 6.253259
2958.622, 6.904875
2960.551, 6.349075
2962.479, 5.641256
2964.407, 6.425053
2966.336, 6.404729
2968.264, 5.724498
2970.193, 5.075947
2972.121, 5.680056
2974.050, 5.565776
2975.978, 5.313365
2977.907, 6.046725
2979.835, 6.339637
2981.764, 6.269858
2983.692, 6.136003
2985.621, 4.998647
2987.549, 4.779376
2989.478, 5.884525
2991.406, 7.312165
2993.334, 5.604132
2995.263, 5.181864
2997.191, 5.760413
2999.120, 5.150023
3001.048, 4.878318
3002.977, 4.523660
3004.905, 4.330036
3006.834, 4.528300
3008.762, 4.743766
3010.691, 5.114781
3012.619, 4.912467
3014.548, 3.582538
3016.476, 4.203413
3018.405, 4.098419
3020.333, 5.460826
3022.261, 4.600256
3024.190, 5.300433
3026.118, 4.955383
3028.047, 4.492219
3029.975, 4.698826
3031.904, 4.764596
3033.832, 3.441223
3035.761, 4.809600
3037.689, 5.375436
3039.618, 3.579150
3041.546, 3.741183
3043.475, 4.633836
3045.403, 4.933000
3047.332, 3.955560
3049.260, 3.980397
3051.188, 3.671991
3053.117, 3.678977
3055.045, 4.333848
3056.974, 4.226898
3058.902, 4.514123
3060.831, 4.555551
3062.759, 4.645841
3064.688, 4.545455
3066.616, 4.121770
3068.545, 3.906442
3070.473, 4.357949
3072.402, 5.227357
3074.330, 5.944033
3076.259, 4.432899
3078.187, 3.605386
3080.115, 4.460924
3082.044, 5.927901
3083.972, 4.831469
3085.901, 4.076276
3087.829, 4.022025
3089.758, 3.608599
3091.686, 3.226287
3093.615, 3.478280
3095.543, 3.476938
3097.472, 2.945150
3099.400, 2.803869
3101.329, 3.125437
3103.257, 3.496102
3105.186, 3.550887
3107.114, 3.773799
3109.042, 3.586247
3110.971, 3.659667
3112.899, 3.886232
3114.828, 3.619035
3116.756, 3.937423
3118.685, 3.930027
3120.613, 4.036981
3122.542, 4.127614
3124.470, 3.532048
3126.399, 3.664817
3128.327, 2.789010
3130.256, 2.856142
3132.184, 4.249536
3134.113, 5.904102
3136.041, 3.410457
3137.969, 2.721315
3139.898, 3.399455
3141.826, 3.387201
3143.755, 3.261585
3145.683, 3.439906
3147.612, 3.672865
3149.540, 3.886087
3151.469, 3.897853
3153.397, 3.046383
3155.326, 2.107949
3157.254, 3.335321
3159.183, 3.905254
3161.111, 3.229987
3163.040, 2.409431
3164.968, 3.137846
3166.896, 3.149675
3168.825, 2.877598
3170.753, 2.838440
3172.682, 3.677595
3174.610, 2.941657
3176.539, 2.873338
3178.467, 3.501712
3180.396, 1.766515
3182.324, 1.945104
3184.253, 2.722754
3186.181, 3.166897
3188.110, 3.243108
3190.038, 2.898671
3191.967, 3.042024
3193.895, 3.963981
3195.823, 2.122954
3197.752, 2.077373
3199.680, 2.841380
3201.609, 3.529108
3203.537, 3.177028
3205.466, 3.773275
3207.394, 3.730229
3209.323, 2.661984
3211.251, 2.581882
3213.180, 1.933994
3215.108, 2.527099
3217.037, 2.380328
3218.965, 2.826222
3220.894, 2.676750
3222.822, 2.555895
3224.750, 2.513654
3226.679, 2.130197
3228.607, 2.281341
3230.536, 1.197777
3232.464, 1.787315
3234.393, 1.025255
3236.321, 2.175114
3238.250, 1.464403
3240.178, 1.701208
3242.107, 2.301619
3244.035, 1.840081
3245.964, 1.779952
3247.892, 2.259634
3249.821, 2.374145
3251.749, 1.875821
3253.677, 2.318244
3255.606, 2.801275
3257.534, 1.128306
3259.463, 1.560284
3261.391, 2.080175
3263.320, 2.615462
3265.248, 3.072345
3267.177, 3.200483
3269.105, 2.383517
3271.034, 2.942336
3272.962, 3.071393
3274.891, 2.170173
3276.819, 2.695321
3278.748, 2.856655
3280.676, 2.587053
3282.604, 2.377313
3284.533, 1.906033
3286.461, 2.373251
3288.390, 3.101795
3290.318, 2.960504
3292.247, 3.464888
3294.175, 2.715272
3296.104, 1.916535
3298.032, 1.921777
3299.961, 2.744760
3301.889, 2.201493
3303.818, 1.554836
3305.746, 1.861579
3307.675, 0.6506572
3309.603, 1.648502
3311.531, 1.987511
3313.460, 1.521875
3315.388, 3.006254
3317.317, 3.188189
3319.245, 2.508870
3321.174, 2.145595
3323.102, 2.918382
3325.031, 3.532566
3326.959, 2.149967
3328.888, 0.3133244
3330.816, -0.2212971
3332.745, 2.015669
3334.673, 3.299124
3336.602, 3.442132
3338.530, 3.284988
3340.458, 3.958956
3342.387, 2.413740
3344.315, 2.583284
3346.244, 2.624040
3348.172, 1.335681
3350.101, 3.079943
3352.029, 2.877934
3353.958, 2.808183
3355.886, 3.343577
3357.815, 2.952153
3359.743, 2.868521
3361.672, 2.726424
3363.600, 2.625258
3365.529, 2.474848
3367.457, 2.057865
3369.385, 2.132014
3371.314, 1.242091
3373.242, 1.504434
3375.171, 3.073396
3377.099, 1.739869
3379.028, 1.832025
3380.956, 2.055004
3382.885, 0.5725145
3384.813, 1.349012
3386.742, 3.227840
3388.670, 3.816773
3390.599, 3.215400
3392.527, 3.360110
3394.456, 3.503625
3396.384, 4.017560
3398.313, 3.978326
3400.241, 3.056337
3402.169, 2.411415
3404.098, 2.593960
3406.026, 2.756120
3407.955, 2.462852
3409.883, 1.688355
3411.812, 1.424486
3413.740, 1.862185
3415.669, 2.004647
3417.597, 1.700291
3419.526, 1.999282
3421.454, 2.560492
3423.383, 2.609473
3425.311, 2.038651
3427.240, 1.374028
3429.168, 2.104347
3431.096, 1.995021
3433.025, 2.502787
3434.953, 2.383893
3436.882, 0.4396708
3438.810, 0.9356751
3440.739, 1.105313
3442.667, 1.207962
3444.596, 1.576104
3446.524, 2.201728
3448.453, 1.708869
3450.381, 0.8919681
3452.310, 1.415181
3454.238, 0.9988081
3456.167, 2.201871
3458.095, 1.282688
3460.023, 1.851061
3461.952, 2.551831
3463.880, 2.346645
3465.809, 1.941918
3467.737, 1.856259
3469.666, 1.788118
3471.594, 1.891355
3473.523, 2.387758
3475.451, 3.394681
3477.380, 2.341965
3479.308, 1.512538
3481.237, 2.026693
3483.165, 3.370135
3485.094, 2.160410
3487.022, 3.082930
3488.950, 3.201375
3490.879, 2.816783
3492.807, 3.064202
3494.736, 1.842077
3496.664, 2.430844
3498.593, 3.124671
3500.521, 2.850745
3502.450, 1.615074
3504.378, 0.5780733
3506.307, 0.8643907
3508.235, 1.559599
3510.164, 1.933984
3512.092, 1.666890
3514.021, 1.964715
3515.949, 0.9694635
3517.877, 1.530850
3519.806, 1.437469
3521.734, 0.5289631
3523.663, 0.5315402
3525.591, -1.101004
3527.520, 7.8240419E-03
3529.448, 2.070987
3531.377, 2.642110
3533.305, 1.910250
3535.234, 2.572262
3537.162, 2.604074
3539.091, 1.722496
3541.019, 0.7727079
3542.948, 1.214618
3544.876, 0.9329028
3546.804, 1.238338
3548.733, 1.594136
3550.661, 1.925949
3552.590, 2.648618
3554.518, 2.508881
3556.447, 1.590757
3558.375, 2.273375
3560.304, 2.093194
3562.232, 1.730100
3564.161, 2.080745
3566.089, 1.347008
3568.018, 2.338256
3569.946, 2.764987
3571.875, 1.012519
3573.803, 1.700800
3575.731, 9.1694906E-02
3577.660, 1.656758
3579.588, 2.279810
3581.517, 0.9351426
3583.445, 2.271224
3585.374, 2.143914
3587.302, 1.676193
3589.231, 2.183758
3591.159, 1.824583
3593.088, 2.116158
3595.016, 1.403335
3596.945, 1.277490
3598.873, 0.5821958
3600.802, 1.364198
3602.730, 3.576327
3604.658, 3.325476
3606.587, 3.684551
3608.515, 3.054130
3610.444, 3.069037
3612.372, 3.025164
3614.301, 2.768684
3616.229, 2.733638
3618.158, 2.773665
3620.086, 2.271940
3622.015, 2.244048
3623.943, 2.584305
3625.872, 1.886059
3627.800, 1.098430
3629.729, 1.390459
3631.657, 1.369250
3633.585, 1.769162
3635.514, 1.898958
3637.442, 2.743702
3639.371, 2.268465
3641.299, 1.793927
3643.228, 2.675592
3645.156, 3.313690
3647.085, 1.840007
3649.013, 2.175028
3650.942, 1.332371
3652.870, 0.8955415
3654.799, 1.143400
3656.727, 1.598266
3658.656, 1.723830
3660.584, 1.838938
3662.512, -0.2182690
3664.441, 1.053726
3666.369, 1.589313
3668.298, 6.4967163E-02
3670.226, 1.390459
3672.155, 0.3015853
3674.083, 1.649508
3676.012, 1.920637
3677.940, 1.503754
3679.869, 2.298690
3681.797, 2.007326
3683.726, 2.979537
3685.654, 1.870520
3687.583, 1.433619
3689.511, 1.281621
3691.439, 1.063683
3693.368, 0.6756045
3695.296, 3.266825
3697.225, 2.638703
3699.153, 2.292604
3701.082, 2.014805
3703.010, 1.341222
3704.939, 1.572289
3706.867, 0.2644124
3708.796, 0.8747889
3710.724, 1.997027
3712.653, 1.737027
3714.581, 0.7858065
3716.510, 1.512361
3718.438, 1.240535
3720.366, 0.4021670
3722.295, 0.8174907
3724.223, 0.5865880
3726.152, 4.5932230E-02
3728.080, 0.7606366
3730.009, -0.2272536
3731.937, 1.026550
3733.866, 1.343410
3735.794, 1.172949
3737.723, 0.8144438
3739.651, 0.3966247
3741.580, 0.7555094
3743.508, 1.313141
3745.437, 0.5661458
3747.365, 0.2598694
3749.293, 1.270056
3751.222, 2.275585
3753.150, 1.534094
3755.079, 1.637679
3757.007, 1.709942
3758.936, 0.4564733
3760.864, 1.398605
3762.793, 1.422482
3764.721, 1.014233
3766.650, 1.229167
3768.578, 1.119408
3770.507, -0.1983379
3772.435, 0.6769629
3774.364, 0.5098934
3776.292, -0.4285031
3778.220, 1.909649
3780.149, 2.669654
3782.077, 2.173381
3784.006, 2.022727
3785.934, 1.948591
3787.863, 2.000511
3789.791, 2.237960
3791.720, 2.132019
3793.648, 0.5955388
3795.577, -6.8202578E-02
3797.505, 4.8741501E-02
3799.434, 0.4789728
3801.362, 0.4743278
3803.291, 0.2017157
3805.219, 0.9445608
3807.147, 1.699905
3809.076, 0.8519185
3811.004, -1.021980
3812.933, 0.3419362
3814.861, 1.445577
3816.790, -0.1130210
3818.718, 1.043379
3820.647, 2.064046
3822.575, 1.181430
3824.504, 1.451518
3826.432, 1.037637
3828.361, 0.3744201
3830.289, 0.4234730
3832.218, 0.2318751
3834.146, 0.1488307
3836.074, 0.8921021
3838.003, 0.4631883
3839.931, -0.4070652
3841.860, -0.1229267
3843.788, 0.9055260
3845.717, 0.5510309
3847.645, 1.083013
3849.574, 1.569711
3851.502, 1.066713
3853.431, 0.5203386
3855.359, -0.4662224
3857.288, -0.5087461
3859.216, 1.364674
3861.145, -0.9054343
3863.073, 0.2195914
3865.001, 1.783675
3866.930, 1.067628
3868.858, 0.3661734
3870.787, 0.8002471
3872.715, 1.536306
3874.644, 1.540630
3876.572, 0.2101914
3878.501, 0.9536649
3880.429, 0.3162406
3882.358, 1.935875
3884.286, 0.4656823
3886.215, 1.534899
3888.143, 3.011976
3890.072, 1.190466
3892.000, 3.540598
3893.928, 1.621922
3895.857, 1.079818
3897.785, 1.664830
3899.714, 1.039268
3901.642, 1.282828
3903.571, 1.349973
3905.499, 1.542864
3907.428, 1.258055
3909.356, 1.361537
3911.285, 0.8090628
3913.213, 1.555422
3915.142, 1.433260
3917.070, 0.1963602
3918.999, 0.3690965
3920.927, 2.216901
3922.855, 1.230044
3924.784, 0.8384819
3926.712, -0.1234000
3928.641, 1.8655701E-02
3930.569, 0.4224985
3932.498, 0.5571255
3934.426, 0.6104717
3936.355, 0.8898165
3938.283, 0.9721519
3940.212, 1.260218
3942.140, 1.295007
3944.069, 1.499635
3945.997, 1.417400
3947.926, 1.388923
3949.854, 1.179067
3951.782, 1.164454
3953.711, 1.051739
3955.639, 0.9188790
3957.568, 1.075360
3959.496, 0.8900353
3961.425, 1.071890
3963.353, 0.7665330
3965.282, 7.4793667E-02
3967.210, 9.0275228E-02
3969.139, 0.6614648
3971.067, 1.321232
3972.996, 1.050715
3974.924, 1.170219
3976.853, 0.1659888
3978.781, 0.4047277
3980.709, -0.1641498
3982.638, 0.2024244
3984.566, -0.1695272
3986.495, -0.5955305
3988.423, -0.1034466
3990.352, 0.4384755
3992.280, 0.6376243
3994.209, 0.3498319
3996.137, 0.5020173
3998.066, 0.1119712
3999.994, 0.2505164
4001.923, 0.2961801
4003.851, 0.2829704
4005.780, 0.3396810
4007.708, 0.5165991
4009.636, 0.4451422
4011.565, 0.8408494
4013.493, 1.129383
4015.422, 1.105189
4017.350, 0.6973252
4019.279, 0.9083446
4021.207, 1.849363
4023.136, 1.342627
4025.064, 0.2681410
4026.993, 1.170556
4028.921, 0.2154745
4030.850, 0.6632150
4032.778, -0.3697454
4034.707, -0.5679754
4036.635, 0.1071566
4038.563, -0.9272801
4040.492, -0.2462186
4042.420, 0.4357271
4044.349, 0.5050967
4046.277, 1.042405
4048.206, 0.8442978
4050.134, 0.7061751
4052.063, 0.3286418
4053.991, 0.1404262
4055.920, -0.7108909
4057.848, -0.7932600
4059.777, 1.069741
4061.705, 1.888456
4063.634, 0.5581545
4065.562, -7.4103557E-02
4067.490, -0.3256655
4069.419, -0.2105556
4071.347, 1.020108
4073.276, 0.6285187
4075.204, 1.886875
4077.133, 1.662195
4079.061, 0.3170805
4080.990, 0.8700800
4082.918, 2.042379
4084.847, 0.7571245
4086.775, 1.739489
4088.704, 0.4840709
4090.632, 2.498541
4092.561, 1.653097
4094.489, 2.471556
4096.417, 0.9809004
4098.346, 1.413197
4100.274, 0.1078251
4102.203, -1.229437
4104.131, -1.333652
4106.060, -1.9055439E-02
4107.988, 1.312679
4109.917, 1.437444
4111.845, 0.9789154
4113.774, 0.8543518
4115.702, 0.3908365
4117.631, 0.2478577
4119.559, -0.3944263
4121.488, 0.1460918
4123.416, -0.3598789
4125.345, -0.9662840
4127.273, 0.5645958
4129.202, 0.9702873
4131.130, -2.103120
4133.059, 0.8666351
4134.987, 1.104267
4136.916, 2.577288
4138.844, -0.1107158
4140.772, 7.2684303E-02
4142.701, -8.0702342E-02
4144.629, -0.2815867
4146.558, -0.3942635
4148.486, 0.5384406
4150.415, 1.569690
4152.343, 1.981014
4154.271, 2.420720
4156.200, 1.199031
4158.128, -0.2942641
4160.057, -1.109802
4161.985, 0.4853971
4163.914, 1.144021
4165.842, 1.184599
4167.771, -0.2977597
4169.699, 0.3069219
4171.628, 0.2108182
4173.556, 0.5543979
4175.485, -4.2027622E-03
4177.413, -0.9391980
4179.342, 0.6675069
4181.270, 1.339783
4183.199, 0.9176898
4185.127, -0.3289703
4187.056, 0.3839259
4188.984, -9.6238568E-02
4190.913, -0.4891427
4192.841, 0.2252034
4194.770, 0.8917292
4196.698, 1.503870
4198.626, 0.8001421
4200.555, 1.597976
4202.483, -0.2284521
4204.412, 1.725988
4206.340, 0.6164269
4208.269, -0.5202786
4210.197, -3.2847971E-02
4212.125, 0.9956325
4214.054, 0.4000776
4215.982, 1.344119
4217.911, 8.6729243E-02
4219.839, -0.1501241
4221.768, 0.9707432
4223.696, 0.7519203
4225.625, 1.378136
4227.553, 0.5931240
4229.482, -0.5345743
4231.410, 0.6433842
4233.339, 1.751534
4235.267, 1.097167
4237.196, 1.213987
4239.124, 1.707535
4241.053, 8.8606663E-02
4242.981, 0.5522354
4244.910, -0.7858425
4246.838, 0.3652569
4248.767, -0.6666926
4250.695, -1.046026
4252.624, 1.374561
4254.552, -0.3995228
4256.480, 0.7517599
4258.409, -0.3972900
4260.337, -0.1597113
4262.266, -0.1907939
4264.194, 0.3854946
4266.123, 1.517844
4268.051, 1.568362
4269.979, 1.352988
4271.908, 1.076142
4273.836, 0.4627425
4275.765, 0.9685543
4277.693, -0.3336050
4279.622, -0.7131853
4281.550, 1.359714
4283.479, 0.7308087
4285.407, 1.098877
4287.336, 0.6066043
4289.264, -0.6599458
4291.193, 0.6760128
4293.121, -0.1082367
4295.050, 0.8685259
4296.978, -8.0031827E-02
4298.907, 0.7141782
4300.835, 0.9353677
4302.764, 0.4696990
4304.692, 0.1069858
4306.621, 0.6109228
4308.549, -1.164283
4310.478, 1.034151
4312.406, 0.5439301
4314.334, -0.2827484
4316.263, 0.1721675
4318.191, 2.748210
4320.120, 1.323196
4322.048, 0.1420627
4323.977, 1.528739
4325.905, -0.6862237
4327.833, -0.7564192
4329.762, 0.1031348
4331.690, 1.318268
4333.619, 1.063453
4335.547, 1.081689
4337.476, 0.8183759
4339.404, 0.3363944
4341.333, -0.5509156
4343.261, -0.2920842
4345.190, -0.8213381
4347.118, 1.336644
4349.047, -0.5328410
4350.975, -7.8743443E-02
4352.904, 1.572814
4354.832, 1.149981
4356.761, 0.1568571
4358.689, -0.6105458
4360.618, -2.060549
4362.546, -1.620384
4364.475, 0.5563453
4366.403, 0.8088719
4368.332, 0.3292169
4370.260, 0.4572548
4372.188, 1.562258
4374.117, -0.1467449
4376.045, 0.7284976
4377.974, 1.396896
##END=



