##NAMES=Kamarizaite
##RRUFFID=R090020
##IDEAL CHEMISTRY=Fe^3+^_3_(AsO_4_)_2_(OH)_3_·3H_2_O
##LOCALITY=Kamareza Mines, Laurion, Greece
##OWNER=RRUFF
##SOURCE=William W. Pinch
##DESCRIPTION=Tan colored massive on brown matrix.
##STATUS=The identification of this mineral is not yet confirmed
##URL=https://www.rruff.net/odr/rruff_sample/R090020
##FILETYPE=Raman Processed
##RAMAN WAVELENGTH=532

139.2877, 4985.183
141.2161, 5256.879
143.1446, 5588.046
145.0731, 5712.789
147.0015, 5843.616
148.9300, 5973.236
150.8585, 6120.326
152.7869, 6237.887
154.7154, 6324.413
156.6439, 6385.750
158.5723, 6402.886
160.5008, 6375.152
162.4293, 6316.974
164.3577, 6239.428
166.2862, 6133.719
168.2147, 6030.966
170.1431, 5933.961
172.0716, 5842.553
174.0001, 5767.702
175.9285, 5719.821
177.8570, 5681.660
179.7855, 5638.546
181.7139, 5588.258
183.6424, 5533.539
185.5709, 5468.629
187.4993, 5394.577
189.4278, 5329.112
191.3563, 5275.498
193.2847, 5229.428
195.2132, 5189.380
197.1417, 5156.446
199.0701, 5126.243
200.9986, 5099.661
202.9271, 5076.513
204.8555, 5051.514
206.7840, 5019.686
208.7125, 4988.245
210.6409, 4964.752
212.5694, 4949.583
214.4979, 4939.520
216.4263, 4934.115
218.3548, 4933.082
220.2833, 4929.879
222.2117, 4923.538
224.1402, 4914.871
226.0687, 4904.023
227.9971, 4888.151
229.9256, 4875.015
231.8541, 4865.414
233.7825, 4860.438
235.7110, 4860.913
237.6395, 4866.519
239.5679, 4878.948
241.4964, 4898.841
243.4249, 4930.267
245.3533, 4966.075
247.2818, 5007.672
249.2103, 5054.018
251.1387, 5100.524
253.0672, 5141.413
254.9957, 5186.503
256.9242, 5242.436
258.8526, 5314.634
260.7811, 5386.554
262.7096, 5457.829
264.6380, 5527.069
266.5665, 5589.731
268.4950, 5650.993
270.4234, 5700.744
272.3519, 5733.763
274.2804, 5752.219
276.2088, 5751.219
278.1373, 5726.007
280.0658, 5682.048
281.9942, 5624.662
283.9227, 5547.463
285.8512, 5464.719
287.7796, 5378.748
289.7081, 5289.406
291.6366, 5203.058
293.5650, 5122.705
295.4935, 5044.315
297.4220, 4962.805
299.3504, 4875.787
301.2789, 4790.857
303.2074, 4710.359
305.1358, 4634.568
307.0643, 4563.189
308.9928, 4492.322
310.9212, 4428.496
312.8497, 4375.625
314.7782, 4332.724
316.7066, 4300.334
318.6351, 4276.274
320.5636, 4260.122
322.4920, 4256.354
324.4205, 4268.406
326.3490, 4288.023
328.2774, 4310.551
330.2059, 4335.179
332.1344, 4366.797
334.0628, 4404.735
335.9913, 4451.034
337.9198, 4506.780
339.8482, 4571.411
341.7767, 4646.566
343.7052, 4734.019
345.6336, 4835.528
347.5621, 4936.303
349.4906, 5040.932
351.4190, 5140.715
353.3475, 5228.819
355.2760, 5308.277
357.2044, 5367.187
359.1329, 5399.300
361.0614, 5406.891
362.9898, 5410.911
364.9183, 5414.838
366.8468, 5412.728
368.7752, 5403.288
370.7037, 5385.068
372.6322, 5369.523
374.5606, 5364.208
376.4891, 5359.896
378.4176, 5342.639
380.3460, 5309.008
382.2745, 5272.966
384.2030, 5237.132
386.1314, 5200.452
388.0599, 5169.362
389.9884, 5142.361
391.9168, 5123.538
393.8453, 5112.930
395.7738, 5110.276
397.7022, 5115.085
399.6307, 5127.640
401.5592, 5146.208
403.4876, 5167.266
405.4161, 5186.860
407.3446, 5214.386
409.2730, 5255.350
411.2015, 5307.592
413.1300, 5362.604
415.0584, 5420.457
416.9869, 5482.293
418.9154, 5549.716
420.8438, 5622.296
422.7723, 5701.146
424.7008, 5787.382
426.6292, 5880.227
428.5577, 5976.040
430.4862, 6076.952
432.4146, 6176.865
434.3431, 6278.775
436.2716, 6383.196
438.2000, 6475.768
440.1285, 6554.435
442.0570, 6616.489
443.9854, 6653.024
445.9139, 6660.126
447.8424, 6642.638
449.7708, 6599.163
451.6993, 6529.402
453.6278, 6446.325
455.5562, 6346.264
457.4847, 6242.376
459.4132, 6134.670
461.3416, 6025.886
463.2701, 5927.728
465.1986, 5847.483
467.1270, 5773.866
469.0555, 5696.255
470.9840, 5612.239
472.9124, 5526.632
474.8409, 5440.397
476.7694, 5358.225
478.6978, 5278.170
480.6263, 5197.934
482.5548, 5117.881
484.4832, 5039.876
486.4117, 4965.041
488.3402, 4899.450
490.2686, 4845.403
492.1971, 4798.170
494.1256, 4756.007
496.0540, 4718.529
497.9825, 4689.325
499.9110, 4671.662
501.8394, 4658.960
503.7679, 4644.972
505.6964, 4628.929
507.6248, 4610.124
509.5533, 4588.030
511.4818, 4562.776
513.4103, 4533.015
515.3387, 4496.801
517.2672, 4455.397
519.1957, 4409.618
521.1241, 4358.710
523.0526, 4303.116
524.9811, 4243.326
526.9095, 4183.083
528.8380, 4124.681
530.7665, 4069.005
532.6949, 4012.035
534.6234, 3950.896
536.5519, 3886.230
538.4803, 3820.613
540.4088, 3755.831
542.3373, 3686.590
544.2657, 3608.582
546.1942, 3528.159
548.1227, 3453.872
550.0511, 3387.266
551.9796, 3321.477
553.9081, 3255.032
555.8365, 3189.469
557.7650, 3128.904
559.6935, 3075.249
561.6219, 3021.749
563.5504, 2966.933
565.4789, 2912.000
567.4073, 2861.016
569.3358, 2815.394
571.2643, 2773.429
573.1927, 2733.391
575.1212, 2694.480
577.0497, 2658.729
578.9781, 2625.892
580.9066, 2595.529
582.8351, 2568.458
584.7635, 2546.122
586.6920, 2526.848
588.6205, 2505.636
590.5490, 2483.929
592.4774, 2465.172
594.4059, 2455.206
596.3344, 2444.944
598.2628, 2431.350
600.1913, 2415.183
602.1198, 2399.094
604.0482, 2382.592
605.9767, 2366.632
607.9052, 2352.731
609.8336, 2341.556
611.7621, 2330.586
613.6906, 2318.875
615.6190, 2307.999
617.5475, 2298.172
619.4760, 2288.444
621.4044, 2278.595
623.3329, 2269.603
625.2614, 2261.442
627.1898, 2254.019
629.1183, 2247.917
631.0468, 2242.753
632.9752, 2237.770
634.9037, 2233.437
636.8322, 2230.270
638.7606, 2227.550
640.6891, 2223.390
642.6176, 2217.946
644.5460, 2212.652
646.4745, 2208.288
648.4030, 2206.287
650.3314, 2205.431
652.2599, 2203.333
654.1884, 2199.125
656.1168, 2193.678
658.0453, 2190.029
659.9738, 2189.179
661.9022, 2191.898
663.8307, 2194.838
665.7592, 2194.930
667.6876, 2192.914
669.6161, 2191.520
671.5446, 2190.828
673.4730, 2190.093
675.4015, 2190.945
677.3300, 2194.908
679.2584, 2199.068
681.1869, 2202.371
683.1154, 2205.964
685.0438, 2209.952
686.9723, 2212.287
688.9008, 2214.782
690.8292, 2218.716
692.7577, 2224.921
694.6862, 2229.469
696.6146, 2229.995
698.5431, 2230.531
700.4716, 2233.688
702.4000, 2239.162
704.3285, 2244.098
706.2570, 2249.993
708.1854, 2258.677
710.1139, 2271.613
712.0424, 2284.734
713.9708, 2295.030
715.8993, 2301.448
717.8278, 2309.204
719.7562, 2319.903
721.6847, 2331.842
723.6132, 2344.821
725.5416, 2359.338
727.4701, 2376.874
729.3986, 2398.386
731.3270, 2422.097
733.2555, 2447.832
735.1840, 2475.482
737.1124, 2505.756
739.0409, 2537.824
740.9694, 2573.764
742.8978, 2615.969
744.8263, 2664.674
746.7548, 2718.150
748.6832, 2775.169
750.6117, 2835.261
752.5402, 2902.144
754.4686, 2978.363
756.3971, 3060.640
758.3256, 3145.271
760.2540, 3233.604
762.1825, 3331.073
764.1110, 3435.847
766.0394, 3547.540
767.9679, 3667.392
769.8964, 3799.126
771.8248, 3940.608
773.7533, 4090.462
775.6818, 4253.619
777.6102, 4422.261
779.5387, 4609.044
781.4672, 4803.816
783.3956, 5006.829
785.3241, 5212.584
787.2526, 5423.406
789.1810, 5637.000
791.1095, 5852.915
793.0380, 6071.575
794.9664, 6292.792
796.8949, 6513.800
798.8234, 6744.051
800.7518, 6971.837
802.6803, 7201.852
804.6088, 7423.984
806.5372, 7654.517
808.4657, 7864.662
810.3942, 8082.393
812.3226, 8297.776
814.2511, 8534.732
816.1796, 8813.140
818.1080, 9146.047
820.0365, 9481.886
821.9650, 9856.153
823.8934, 10189.77
825.8219, 10460.54
827.7504, 10664.96
829.6788, 10743.18
831.6073, 10649.42
833.5358, 10456.53
835.4642, 10159.49
837.3927, 9763.933
839.3212, 9377.298
841.2496, 8973.442
843.1781, 8609.131
845.1066, 8311.237
847.0350, 8075.146
848.9635, 7894.677
850.8920, 7789.007
852.8204, 7720.337
854.7489, 7683.117
856.6774, 7673.507
858.6058, 7664.731
860.5343, 7657.034
862.4628, 7646.446
864.3912, 7626.460
866.3197, 7603.296
868.2482, 7595.681
870.1766, 7604.506
872.1051, 7634.172
874.0336, 7694.678
875.9620, 7779.103
877.8905, 7852.529
879.8190, 7942.966
881.7474, 7989.604
883.6759, 7976.486
885.6044, 7907.063
887.5328, 7790.654
889.4613, 7611.390
891.3898, 7417.403
893.3182, 7217.803
895.2467, 7015.278
897.1752, 6815.346
899.1036, 6629.833
901.0321, 6433.229
902.9606, 6224.874
904.8890, 6004.718
906.8175, 5771.336
908.7460, 5521.522
910.6744, 5271.029
912.6029, 5009.518
914.5314, 4757.878
916.4598, 4532.376
918.3883, 4333.152
920.3168, 4160.020
922.2452, 4020.135
924.1737, 3898.707
926.1022, 3786.356
928.0306, 3682.580
929.9591, 3587.496
931.8876, 3504.787
933.8160, 3428.537
935.7445, 3354.481
937.6730, 3282.535
939.6014, 3216.231
941.5299, 3159.059
943.4584, 3104.427
945.3868, 3049.749
947.3153, 2993.437
949.2438, 2937.815
951.1722, 2880.765
953.1007, 2825.734
955.0292, 2774.543
956.9576, 2727.192
958.8861, 2681.622
960.8146, 2637.277
962.7430, 2594.749
964.6715, 2555.256
966.6000, 2519.198
968.5284, 2484.608
970.4569, 2449.528
972.3854, 2418.426
974.3138, 2394.298
976.2423, 2374.790
978.1708, 2353.864
980.0992, 2330.256
982.0277, 2308.993
983.9562, 2292.616
985.8846, 2278.894
987.8131, 2266.140
989.7416, 2254.495
991.6700, 2243.339
993.5985, 2231.920
995.5270, 2221.322
997.4554, 2212.648
999.3839, 2206.331
1001.312, 2201.594
1003.241, 2199.556
1005.169, 2197.494
1007.098, 2193.762
1009.026, 2188.491
1010.955, 2184.556
1012.883, 2182.599
1014.812, 2179.855
1016.740, 2174.960
1018.669, 2170.419
1020.597, 2167.364
1022.526, 2164.276
1024.454, 2161.120
1026.382, 2158.358
1028.311, 2156.166
1030.239, 2153.152
1032.168, 2149.458
1034.096, 2146.356
1036.025, 2144.775
1037.953, 2144.072
1039.882, 2143.468
1041.810, 2141.651
1043.739, 2141.148
1045.667, 2142.127
1047.596, 2144.322
1049.524, 2147.505
1051.453, 2153.028
1053.381, 2159.122
1055.309, 2163.573
1057.238, 2166.625
1059.166, 2168.730
1061.095, 2172.237
1063.023, 2175.237
1064.952, 2176.697
1066.880, 2179.958
1068.809, 2186.372
1070.737, 2193.681
1072.666, 2199.303
1074.594, 2205.497
1076.523, 2211.897
1078.451, 2217.939
1080.380, 2221.298
1082.308, 2221.065
1084.236, 2219.907
1086.165, 2218.937
1088.093, 2218.603
1090.022, 2214.222
1091.950, 2203.018
1093.879, 2187.465
1095.807, 2174.330
1097.736, 2164.773
1099.664, 2155.487
1101.593, 2145.011
1103.521, 2135.353
1105.450, 2130.235
1107.378, 2130.220
1109.307, 2130.034
1111.235, 2127.797
1113.163, 2128.258
1115.092, 2125.542
1117.020, 2127.645
1118.949, 2127.808
1120.877, 2127.392
1122.806, 2127.687
1124.734, 2127.757
1126.663, 2126.167
1128.591, 2125.712
1130.520, 2128.999
1132.448, 2131.356
1134.377, 2131.358
1136.305, 2129.456
1138.234, 2126.904
1140.162, 2122.390
1142.090, 2118.442
1144.019, 2117.767
1145.947, 2116.763
1147.876, 2112.241
1149.804, 2105.683
1151.733, 2102.800
1153.661, 2103.970
1155.590, 2103.649
1157.518, 2100.371
1159.447, 2096.188
1161.375, 2094.114
1163.304, 2093.177
1165.232, 2091.885
1167.161, 2092.360
1169.089, 2094.388
1171.017, 2096.349
1172.946, 2097.047
1174.874, 2099.960
1176.803, 2105.229
1178.731, 2107.852
1180.660, 2106.108
1182.588, 2102.684
1184.517, 2101.000
1186.445, 2100.797
1188.374, 2102.406
1190.302, 2106.444
1192.231, 2111.156
1194.159, 2114.990
1196.088, 2118.094
1198.016, 2121.727
1199.944, 2125.584
1201.873, 2128.746
1203.801, 2131.064
1205.730, 2133.323
1207.658, 2136.439
1209.587, 2138.945
1211.515, 2141.371
1213.444, 2146.304
1215.372, 2151.467
1217.301, 2154.137
1219.229, 2154.309
1221.158, 2155.728
1223.086, 2158.210
1225.015, 2161.166
1226.943, 2164.872
1228.871, 2168.724
1230.800, 2171.241
1232.728, 2172.619
1234.657, 2175.541
1236.585, 2179.189
1238.514, 2183.192
1240.442, 2187.350
1242.371, 2191.625
1244.299, 2196.869
1246.228, 2203.810
1248.156, 2209.510
1250.085, 2213.688
1252.013, 2216.266
1253.942, 2216.316
1255.870, 2213.180
1257.798, 2211.747
1259.727, 2213.891
1261.655, 2216.857
1263.584, 2219.519
1265.512, 2221.718
1267.441, 2223.681
1269.369, 2228.028
1271.298, 2229.934
1273.226, 2236.753
1275.155, 2242.811
1277.083, 2247.250
1279.012, 2250.251
1280.940, 2254.492
1282.869, 2261.178
1284.797, 2268.227
1286.725, 2271.996
1288.654, 2273.077
1290.582, 2275.937
1292.511, 2282.182
1294.439, 2287.207
1296.368, 2288.559
1298.296, 2289.511
1300.225, 2292.903
1302.153, 2295.523
1304.082, 2298.835
1306.010, 2303.551
1307.939, 2306.791
1309.867, 2312.536
1311.796, 2317.306
1313.724, 2319.576
1315.652, 2318.512
1317.581, 2320.614
1319.509, 2328.605
1321.438, 2337.315
1323.366, 2342.440
1325.295, 2343.682
1327.223, 2345.206
1329.152, 2348.103
1331.080, 2351.090
1333.009, 2352.173
1334.937, 2353.464
1336.866, 2355.931
1338.794, 2359.463
1340.723, 2363.951
1342.651, 2370.169
1344.579, 2374.161
1346.508, 2374.422
1348.436, 2373.373
1350.365, 2372.115
1352.293, 2370.840
1354.222, 2371.593
1356.150, 2375.058
1358.079, 2380.618
1360.007, 2389.931
1361.936, 2398.588
1363.864, 2402.537
1365.793, 2400.816
1367.721, 2402.182
1369.650, 2407.833
1371.578, 2413.054
1373.506, 2416.846
1375.435, 2419.868
1377.363, 2422.427
1379.292, 2424.167
1381.220, 2425.499
1383.149, 2427.234
1385.077, 2429.269
1387.006, 2429.458
1388.934, 2428.973
1390.863, 2433.269
1392.791, 2443.649
1394.720, 2451.236
1396.648, 2452.283
1398.577, 2452.071
1400.505, 2452.035
1402.433, 2452.432
1404.362, 2454.979
1406.290, 2460.687
1408.219, 2466.151
1410.147, 2472.228
1412.076, 2475.718
1414.004, 2474.776
1415.933, 2471.635
1417.861, 2471.165
1419.790, 2474.479
1421.718, 2478.357
1423.647, 2484.090
1425.575, 2489.336
1427.504, 2491.495
1429.432, 2492.248
1431.360, 2495.711
1433.289, 2503.360
1435.217, 2507.916
1437.146, 2506.918
1439.074, 2504.751
1441.003, 2503.066
1442.931, 2502.494
1444.860, 2503.648
1446.788, 2506.958
1448.717, 2509.841
1450.645, 2511.587
1452.574, 2513.058
1454.502, 2514.208
1456.431, 2515.165
1458.359, 2516.452
1460.287, 2517.890
1462.216, 2519.635
1464.144, 2521.243
1466.073, 2524.090
1468.001, 2530.478
1469.930, 2538.689
1471.858, 2542.916
1473.787, 2541.495
1475.715, 2542.034
1477.644, 2545.772
1479.572, 2551.046
1481.501, 2557.948
1483.429, 2565.352
1485.358, 2570.886
1487.286, 2572.589
1489.214, 2576.046
1491.143, 2582.757
1493.071, 2589.249
1495.000, 2595.100
1496.928, 2600.050
1498.857, 2603.229
1500.785, 2604.279
1502.714, 2607.131
1504.642, 2612.984
1506.571, 2619.366
1508.499, 2625.667
1510.428, 2631.871
1512.356, 2636.465
1514.285, 2639.141
1516.213, 2647.142
1518.141, 2666.091
1520.070, 2679.956
1521.998, 2677.974
1523.927, 2673.271
1525.855, 2680.595
1527.784, 2696.897
1529.712, 2705.540
1531.641, 2702.523
1533.569, 2702.343
1535.498, 2711.289
1537.426, 2721.956
1539.355, 2729.277
1541.283, 2734.466
1543.212, 2740.169
1545.140, 2746.182
1547.068, 2753.940
1548.997, 2766.974
1550.925, 2777.567
1552.854, 2779.724
1554.782, 2777.609
1556.711, 2779.409
1558.639, 2785.599
1560.568, 2791.044
1562.496, 2795.498
1564.425, 2798.743
1566.353, 2798.360
1568.282, 2799.038
1570.210, 2807.418
1572.139, 2824.024
1574.067, 2834.177
1575.995, 2832.771
1577.924, 2833.861
1579.852, 2840.747
1581.781, 2849.265
1583.709, 2857.524
1585.638, 2864.558
1587.566, 2867.979
1589.495, 2865.613
1591.423, 2865.525
1593.352, 2869.673
1595.280, 2874.608
1597.209, 2880.200
1599.137, 2885.251
1601.066, 2887.570
1602.994, 2886.479
1604.922, 2885.594
1606.851, 2885.355
1608.779, 2883.643
1610.708, 2878.991
1612.636, 2873.842
1614.565, 2872.507
1616.493, 2873.540
1618.422, 2867.122
1620.350, 2847.634
1622.279, 2834.317
1624.207, 2831.698
1626.136, 2830.898
1628.064, 2828.352
1629.993, 2824.499
1631.921, 2820.128
1633.849, 2814.864
1635.778, 2808.419
1637.706, 2801.258
1639.635, 2792.488
1641.563, 2780.606
1643.492, 2769.021
1645.420, 2761.008
1647.349, 2755.523
1649.277, 2748.821
1651.206, 2739.878
1653.134, 2733.966
1655.063, 2734.633
1656.991, 2734.064
1658.920, 2728.240
1660.848, 2720.903
1662.776, 2716.819
1664.705, 2715.698
1666.633, 2712.487
1668.562, 2705.244
1670.490, 2701.334
1672.419, 2704.629
1674.347, 2708.129
1676.276, 2707.402
1678.204, 2704.299
1680.133, 2702.285
1682.061, 2701.281
1683.990, 2698.942
1685.918, 2694.268
1687.847, 2691.082
1689.775, 2692.680
1691.703, 2694.538
1693.632, 2693.493
1695.560, 2690.597
1697.489, 2687.594
1699.417, 2684.118
1701.346, 2683.333
1703.274, 2686.792
1705.203, 2690.558
1707.131, 2693.946
1709.060, 2696.761
1710.988, 2697.756
1712.917, 2698.043
1714.845, 2701.892
1716.774, 2710.160
1718.702, 2715.582
1720.630, 2715.026
1722.559, 2714.346
1724.487, 2715.363
1726.416, 2717.206
1728.344, 2720.170
1730.273, 2723.618
1732.201, 2724.129
1734.130, 2721.238
1736.058, 2718.549
1737.987, 2714.658
1739.915, 2713.659
1741.844, 2719.464
1743.772, 2726.769
1745.701, 2729.804
1747.629, 2729.605
1749.557, 2731.815
1751.486, 2737.438
1753.414, 2741.632
1755.343, 2743.321
1757.271, 2744.072
1759.200, 2742.797
1761.128, 2741.756
1763.057, 2744.112
1764.985, 2748.775
1766.914, 2750.546
1768.842, 2748.794
1770.771, 2747.194
1772.699, 2744.349
1774.628, 2744.422
1776.556, 2750.297
1778.484, 2758.013
1780.413, 2765.655
1782.341, 2771.848
1784.270, 2771.509
1786.198, 2760.321
1788.127, 2755.297
1790.055, 2762.638
1791.984, 2767.584
1793.912, 2765.198
1795.841, 2762.351
1797.769, 2765.025
1799.698, 2771.043
1801.626, 2774.362
1803.555, 2773.884
1805.483, 2775.141
1807.411, 2778.591
1809.340, 2781.765
1811.268, 2783.702
1813.197, 2785.230
1815.125, 2786.267
1817.054, 2787.598
1818.982, 2790.914
1820.911, 2796.572
1822.839, 2801.972
1824.768, 2809.173
1826.696, 2811.805
1828.625, 2803.228
1830.553, 2797.530
1832.482, 2801.642
1834.410, 2808.784
1836.339, 2812.125
1838.267, 2812.554
1840.195, 2815.327
1842.124, 2821.140
1844.052, 2824.531
1845.981, 2823.185
1847.909, 2823.629
1849.838, 2830.717
1851.766, 2837.163
1853.695, 2836.427
1855.623, 2832.923
1857.552, 2834.576
1859.480, 2840.743
1861.409, 2845.763
1863.337, 2849.134
1865.266, 2851.763
1867.194, 2854.124
1869.122, 2855.491
1871.051, 2854.289
1872.979, 2853.079
1874.908, 2855.175
1876.836, 2859.093
1878.765, 2860.215
1880.693, 2858.219
1882.622, 2857.313
1884.550, 2857.962
1886.479, 2859.443
1888.407, 2861.049
1890.336, 2864.172
1892.264, 2873.614
1894.193, 2882.523
1896.121, 2879.062
1898.049, 2865.491
1899.978, 2859.438
1901.906, 2863.409
1903.835, 2868.712
1905.763, 2876.726
1907.692, 2883.651
1909.620, 2889.330
1911.549, 2892.723
1913.477, 2891.241
1915.406, 2888.135
1917.334, 2888.968
1919.263, 2893.676
1921.191, 2897.915
1923.120, 2901.739
1925.048, 2905.186
1926.976, 2908.640
1928.905, 2910.922
1930.833, 2909.391
1932.762, 2908.832
1934.690, 2914.215
1936.619, 2921.221
1938.547, 2922.001
1940.476, 2917.753
1942.404, 2916.356
1944.333, 2918.902
1946.261, 2920.194
1948.190, 2918.556
1950.118, 2918.069
1952.047, 2921.539
1953.975, 2925.387
1955.904, 2926.362
1957.832, 2926.626
1959.760, 2929.771
1961.689, 2935.097
1963.617, 2938.255
1965.546, 2937.688
1967.474, 2940.385
1969.403, 2950.849
1971.331, 2958.418
1973.260, 2959.854
1975.188, 2959.685
1977.117, 2958.411
1979.045, 2958.290
1980.974, 2963.707
1982.902, 2972.737
1984.831, 2976.342
1986.759, 2973.594
1988.688, 2972.054
1990.616, 2971.825
1992.544, 2974.038
1994.473, 2980.785
1996.401, 2987.417
1998.330, 2991.556
2000.258, 2995.123
2002.187, 2998.235
2004.115, 3002.096
2006.044, 3010.403
2007.972, 3022.034
2009.901, 3029.493
2011.829, 3032.098
2013.758, 3032.056
2015.686, 3028.522
2017.615, 3025.270
2019.543, 3021.481
2021.471, 3021.291
2023.400, 3030.401
2025.328, 3041.958
2027.257, 3046.707
2029.185, 3046.615
2031.114, 3049.204
2033.042, 3054.271
2034.971, 3060.886
2036.899, 3071.356
2038.828, 3076.880
2040.756, 3073.670
2042.685, 3070.285
2044.613, 3070.718
2046.542, 3071.226
2048.470, 3068.762
2050.398, 3066.300
2052.327, 3067.263
2054.255, 3071.336
2056.184, 3078.428
2058.112, 3088.297
2060.041, 3094.167
2061.969, 3093.144
2063.898, 3094.497
2065.826, 3102.266
2067.755, 3109.264
2069.683, 3112.661
2071.612, 3115.534
2073.540, 3120.958
2075.469, 3126.520
2077.397, 3127.636
2079.325, 3125.907
2081.254, 3128.943
2083.182, 3137.861
2085.111, 3140.927
2087.039, 3134.865
2088.968, 3134.266
2090.896, 3144.575
2092.825, 3153.474
2094.753, 3156.802
2096.682, 3157.671
2098.610, 3155.836
2100.539, 3154.024
2102.467, 3155.444
2104.396, 3158.870
2106.324, 3162.038
2108.252, 3164.981
2110.181, 3166.360
2112.109, 3165.412
2114.038, 3166.079
2115.966, 3169.837
2117.895, 3173.528
2119.823, 3175.536
2121.752, 3179.336
2123.680, 3188.044
2125.609, 3196.794
2127.537, 3201.784
2129.466, 3204.451
2131.394, 3205.844
2133.323, 3206.534
2135.251, 3209.814
2137.179, 3215.332
2139.108, 3216.904
2141.036, 3213.433
2142.965, 3210.521
2144.893, 3208.588
2146.822, 3208.761
2148.750, 3212.508
2150.679, 3217.257
2152.607, 3223.931
2154.536, 3229.214
2156.464, 3228.634
2158.393, 3226.197
2160.321, 3227.499
2162.250, 3232.178
2164.178, 3240.248
2166.106, 3251.384
2168.035, 3255.873
2169.963, 3251.781
2171.892, 3251.793
2173.820, 3259.538
2175.749, 3266.147
2177.677, 3267.857
2179.606, 3269.773
2181.534, 3273.733
2183.463, 3278.808
2185.391, 3287.385
2187.320, 3294.140
2189.248, 3289.247
2191.177, 3278.302
2193.105, 3277.017
2195.033, 3284.867
2196.962, 3289.051
2198.890, 3289.448
2200.819, 3288.947
2202.747, 3287.707
2204.676, 3287.876
2206.604, 3290.552
2208.533, 3294.214
2210.461, 3298.119
2212.390, 3303.370
2214.318, 3310.411
2216.247, 3318.404
2218.175, 3327.907
2220.104, 3336.229
2222.032, 3339.324
2223.960, 3338.238
2225.889, 3335.786
2227.817, 3332.344
2229.746, 3332.688
2231.674, 3337.510
2233.603, 3341.399
2235.531, 3343.911
2237.460, 3346.414
2239.388, 3348.574
2241.317, 3351.686
2243.245, 3357.496
2245.174, 3361.842
2247.102, 3360.924
2249.031, 3360.142
2250.959, 3364.275
2252.887, 3369.990
2254.816, 3373.594
2256.744, 3375.945
2258.673, 3379.102
2260.601, 3382.427
2262.530, 3381.425
2264.458, 3376.609
2266.387, 3380.999
2268.315, 3397.421
2270.244, 3406.465
2272.172, 3402.977
2274.101, 3399.990
2276.029, 3399.508
2277.958, 3400.488
2279.886, 3400.929
2281.814, 3404.999
2283.743, 3417.753
2285.671, 3430.525
2287.600, 3438.740
2289.528, 3442.308
2291.457, 3437.177
2293.385, 3429.677
2295.314, 3431.436
2297.242, 3440.109
2299.171, 3447.922
2301.099, 3454.867
2303.028, 3459.198
2304.956, 3461.150
2306.885, 3459.439
2308.813, 3450.246
2310.741, 3448.642
2312.670, 3459.372
2314.598, 3469.243
2316.527, 3476.181
2318.455, 3479.980
2320.384, 3476.790
2322.312, 3475.548
2324.241, 3483.270
2326.169, 3492.250
2328.098, 3496.811
2330.026, 3499.031
2331.955, 3500.857
2333.883, 3502.286
2335.812, 3503.181
2337.740, 3503.734
2339.668, 3505.702
2341.597, 3508.580
2343.525, 3507.110
2345.454, 3501.380
2347.382, 3499.494
2349.311, 3503.007
2351.239, 3506.355
2353.168, 3508.322
2355.096, 3511.001
2357.025, 3514.142
2358.953, 3518.338
2360.882, 3525.182
2362.810, 3530.722
2364.739, 3533.629
2366.667, 3535.028
2368.595, 3532.233
2370.524, 3531.707
2372.452, 3541.906
2374.381, 3553.232
2376.309, 3554.243
2378.238, 3550.165
2380.166, 3548.487
2382.095, 3549.385
2384.023, 3554.387
2385.952, 3555.751
2387.880, 3558.988
2389.809, 3564.074
2391.737, 3565.994
2393.666, 3571.535
2395.594, 3577.248
2397.522, 3582.656
2399.451, 3587.751
2401.379, 3593.452
2403.308, 3596.945
2405.236, 3597.257
2407.165, 3596.938
2409.093, 3594.759
2411.022, 3595.908
2412.950, 3605.142
2414.879, 3613.301
2416.807, 3614.917
2418.736, 3615.533
2420.664, 3617.665
2422.593, 3621.169
2424.521, 3625.917
2426.449, 3631.673
2428.378, 3639.333
2430.306, 3646.802
2432.235, 3649.520
2434.163, 3650.190
2436.092, 3657.182
2438.020, 3666.729
2439.949, 3663.878
2441.877, 3651.254
2443.806, 3649.516
2445.734, 3659.551
2447.663, 3669.164
2449.591, 3678.808
2451.520, 3683.990
2453.448, 3683.285
2455.376, 3684.973
2457.305, 3689.655
2459.233, 3695.958
2461.162, 3706.516
2463.090, 3711.177
2465.019, 3704.210
2466.947, 3698.867
2468.876, 3697.938
2470.804, 3700.336
2472.733, 3708.324
2474.661, 3715.222
2476.590, 3715.075
2478.518, 3716.630
2480.447, 3726.593
2482.375, 3736.846
2484.303, 3744.360
2486.232, 3747.141
2488.160, 3739.185
2490.089, 3730.605
2492.017, 3734.176
2493.946, 3743.247
2495.874, 3749.594
2497.803, 3753.972
2499.731, 3755.951
2501.660, 3757.180
2503.588, 3762.196
2505.517, 3769.718
2507.445, 3776.804
2509.374, 3782.879
2511.302, 3782.722
2513.230, 3787.714
2515.159, 3790.092
2517.087, 3790.110
2519.016, 3794.145
2520.944, 3791.152
2522.873, 3790.566
2524.801, 3793.840
2526.730, 3796.752
2528.658, 3798.636
2530.587, 3801.852
2532.515, 3806.528
2534.444, 3809.819
2536.372, 3810.328
2538.301, 3811.571
2540.229, 3814.615
2542.157, 3818.013
2544.086, 3823.626
2546.014, 3827.171
2547.943, 3826.834
2549.871, 3827.158
2551.800, 3828.184
2553.728, 3832.245
2555.657, 3842.270
2557.585, 3851.206
2559.514, 3854.380
2561.442, 3857.171
2563.371, 3863.804
2565.299, 3868.717
2567.228, 3866.312
2569.156, 3864.732
2571.084, 3872.466
2573.013, 3878.433
2574.941, 3869.559
2576.870, 3860.968
2578.798, 3868.086
2580.727, 3879.512
2582.655, 3885.192
2584.584, 3887.742
2586.512, 3887.683
2588.441, 3888.441
2590.369, 3896.530
2592.298, 3905.718
2594.226, 3905.177
2596.155, 3901.316
2598.083, 3905.829
2600.011, 3914.676
2601.940, 3920.500
2603.868, 3924.342
2605.797, 3927.103
2607.725, 3930.273
2609.654, 3937.575
2611.582, 3947.672
2613.511, 3957.785
2615.439, 3966.836
2617.368, 3970.309
2619.296, 3975.477
2621.225, 3972.049
2623.153, 3976.939
2625.082, 3975.415
2627.010, 3969.284
2628.938, 3972.378
2630.867, 3983.849
2632.795, 3987.400
2634.724, 3983.634
2636.652, 3984.479
2638.581, 3989.617
2640.509, 3994.535
2642.438, 3998.840
2644.366, 4000.769
2646.295, 4004.516
2648.223, 4007.623
2650.152, 4008.936
2652.080, 4012.596
2654.009, 4013.252
2655.937, 4012.736
2657.865, 4011.560
2659.794, 4017.454
2661.722, 4016.439
2663.651, 4018.216
2665.579, 4023.813
2667.508, 4023.296
2669.436, 4036.599
2671.365, 4046.524
2673.293, 4051.718
2675.222, 4057.386
2677.150, 4064.634
2679.079, 4069.638
2681.007, 4071.522
2682.936, 4076.416
2684.864, 4084.937
2686.792, 4092.739
2688.721, 4099.617
2690.649, 4100.762
2692.578, 4108.076
2694.506, 4114.723
2696.435, 4116.490
2698.363, 4128.274
2700.292, 4129.916
2702.220, 4132.154
2704.149, 4135.759
2706.077, 4139.833
2708.006, 4144.077
2709.934, 4150.090
2711.863, 4159.528
2713.791, 4163.555
2715.719, 4160.739
2717.648, 4165.583
2719.576, 4179.810
2721.505, 4185.044
2723.433, 4177.409
2725.362, 4173.931
2727.290, 4175.900
2729.219, 4180.531
2731.147, 4188.248
2733.076, 4196.309
2735.004, 4204.651
2736.933, 4208.178
2738.861, 4205.067
2740.790, 4206.189
2742.718, 4212.499
2744.646, 4215.662
2746.575, 4215.778
2748.503, 4223.262
2750.432, 4227.274
2752.360, 4233.351
2754.289, 4242.071
2756.217, 4246.544
2758.146, 4258.854
2760.074, 4263.860
2762.003, 4261.982
2763.931, 4257.638
2765.860, 4252.116
2767.788, 4255.775
2769.717, 4267.927
2771.645, 4272.262
2773.573, 4270.005
2775.502, 4273.148
2777.430, 4280.256
2779.359, 4285.261
2781.287, 4288.580
2783.216, 4294.210
2785.144, 4301.038
2787.073, 4303.585
2789.001, 4303.763
2790.930, 4307.709
2792.858, 4313.913
2794.787, 4318.045
2796.715, 4320.846
2798.644, 4323.640
2800.572, 4326.560
2802.500, 4329.136
2804.429, 4333.286
2806.357, 4346.204
2808.286, 4360.206
2810.214, 4362.993
2812.143, 4361.692
2814.071, 4363.862
2816.000, 4369.511
2817.928, 4381.927
2819.857, 4393.476
2821.785, 4394.045
2823.714, 4393.019
2825.642, 4399.398
2827.571, 4407.300
2829.499, 4413.280
2831.427, 4417.792
2833.356, 4420.308
2835.284, 4423.521
2837.213, 4429.271
2839.141, 4436.401
2841.070, 4444.607
2842.998, 4453.544
2844.927, 4462.588
2846.855, 4472.378
2848.784, 4484.583
2850.712, 4494.531
2852.641, 4500.124
2854.569, 4503.944
2856.498, 4504.898
2858.426, 4509.114
2860.354, 4519.646
2862.283, 4528.193
2864.211, 4533.210
2866.140, 4535.659
2868.068, 4534.798
2869.997, 4535.288
2871.925, 4537.458
2873.854, 4544.099
2875.782, 4556.742
2877.711, 4564.281
2879.639, 4565.219
2881.568, 4567.649
2883.496, 4571.280
2885.425, 4575.041
2887.353, 4579.146
2889.281, 4584.271
2891.210, 4591.353
2893.138, 4607.063
2895.067, 4611.247
2896.995, 4617.986
2898.924, 4625.754
2900.852, 4627.062
2902.781, 4632.017
2904.709, 4637.998
2906.638, 4643.851
2908.566, 4646.692
2910.495, 4650.865
2912.423, 4663.537
2914.352, 4676.606
2916.280, 4681.303
2918.208, 4686.006
2920.137, 4696.796
2922.065, 4707.271
2923.994, 4713.975
2925.922, 4719.039
2927.851, 4723.787
2929.779, 4726.315
2931.708, 4724.651
2933.636, 4727.102
2935.565, 4737.765
2937.493, 4746.401
2939.422, 4748.530
2941.350, 4753.380
2943.279, 4761.559
2945.207, 4767.471
2947.135, 4770.345
2949.064, 4769.092
2950.992, 4778.317
2952.921, 4770.897
2954.849, 4790.337
2956.778, 4797.632
2958.706, 4797.283
2960.635, 4803.708
2962.563, 4814.646
2964.492, 4824.068
2966.420, 4833.086
2968.349, 4844.475
2970.277, 4855.542
2972.206, 4865.627
2974.134, 4871.310
2976.063, 4864.245
2977.991, 4859.928
2979.919, 4873.899
2981.848, 4888.130
2983.776, 4894.209
2985.705, 4899.730
2987.633, 4905.703
2989.562, 4913.577
2991.490, 4923.247
2993.419, 4933.063
2995.347, 4943.336
2997.276, 4949.817
2999.204, 4950.667
3001.133, 4954.726
3003.061, 4962.576
3004.990, 4975.261
3006.918, 4991.364
3008.846, 4995.821
3010.775, 5010.433
3012.703, 5020.673
3014.632, 5030.467
3016.560, 5040.876
3018.489, 5045.518
3020.417, 5051.886
3022.346, 5060.338
3024.274, 5072.544
3026.203, 5085.462
3028.131, 5095.629
3030.060, 5107.859
3031.988, 5127.218
3033.917, 5144.138
3035.845, 5153.431
3037.773, 5164.267
3039.702, 5179.431
3041.630, 5191.911
3043.559, 5200.626
3045.487, 5205.875
3047.416, 5207.281
3049.344, 5215.640
3051.273, 5230.628
3053.201, 5247.587
3055.130, 5264.572
3057.058, 5272.360
3058.987, 5276.420
3060.915, 5289.914
3062.844, 5307.701
3064.772, 5326.383
3066.700, 5342.740
3068.629, 5352.011
3070.557, 5360.062
3072.486, 5368.372
3074.414, 5378.549
3076.343, 5389.269
3078.271, 5400.781
3080.200, 5413.306
3082.128, 5425.557
3084.057, 5438.532
3085.985, 5450.455
3087.914, 5466.835
3089.842, 5479.038
3091.771, 5494.953
3093.699, 5512.706
3095.627, 5530.165
3097.556, 5540.221
3099.484, 5547.635
3101.413, 5561.225
3103.341, 5576.651
3105.270, 5592.957
3107.198, 5604.451
3109.127, 5599.495
3111.055, 5603.056
3112.984, 5632.580
3114.912, 5650.843
3116.841, 5640.419
3118.769, 5644.982
3120.698, 5677.399
3122.626, 5697.742
3124.554, 5705.354
3126.483, 5711.269
3128.411, 5717.954
3130.340, 5740.438
3132.268, 5771.234
3134.197, 5792.444
3136.125, 5807.026
3138.054, 5816.204
3139.982, 5824.180
3141.911, 5834.270
3143.839, 5844.721
3145.768, 5854.180
3147.696, 5865.836
3149.625, 5886.908
3151.553, 5897.845
3153.481, 5893.877
3155.410, 5904.963
3157.338, 5933.028
3159.267, 5955.366
3161.195, 5972.171
3163.124, 5993.478
3165.052, 6015.595
3166.981, 6030.793
3168.909, 6042.202
3170.838, 6051.563
3172.766, 6062.431
3174.695, 6076.546
3176.623, 6095.030
3178.552, 6104.770
3180.480, 6116.214
3182.408, 6133.241
3184.337, 6136.618
3186.265, 6160.192
3188.194, 6177.759
3190.122, 6188.417
3192.051, 6206.588
3193.979, 6228.437
3195.908, 6237.286
3197.836, 6243.556
3199.765, 6259.139
3201.693, 6282.111
3203.622, 6316.282
3205.550, 6346.111
3207.479, 6361.214
3209.407, 6373.373
3211.335, 6383.586
3213.264, 6394.761
3215.192, 6407.862
3217.121, 6420.949
3219.049, 6435.372
3220.978, 6453.763
3222.906, 6475.396
3224.835, 6495.354
3226.763, 6515.089
3228.692, 6534.632
3230.620, 6555.205
3232.549, 6577.286
3234.477, 6599.684
3236.406, 6621.409
3238.334, 6645.130
3240.262, 6669.597
3242.191, 6693.916
3244.119, 6720.849
3246.048, 6745.541
3247.976, 6772.380
3249.905, 6800.359
3251.833, 6829.505
3253.762, 6862.843
3255.690, 6893.466
3257.619, 6911.254
3259.547, 6931.198
3261.476, 6961.208
3263.404, 6992.936
3265.333, 7024.396
3267.261, 7055.508
3269.189, 7085.265
3271.118, 7125.632
3273.046, 7161.501
3274.975, 7211.573
3276.903, 7246.875
3278.832, 7293.373
3280.760, 7347.586
3282.689, 7411.250
3284.617, 7472.652
3286.546, 7517.935
3288.474, 7574.308
3290.403, 7648.574
3292.331, 7717.198
3294.260, 7776.259
3296.188, 7835.508
3298.116, 7894.602
3300.045, 7947.107
3301.973, 8001.233
3303.902, 8076.609
3305.830, 8151.166
3307.759, 8206.884
3309.687, 8255.135
3311.616, 8297.642
3313.544, 8342.365
3315.473, 8393.054
3317.401, 8426.780
3319.330, 8464.780
3321.258, 8477.960
3323.187, 8520.431
3325.115, 8545.462
3327.043, 8554.335
3328.972, 8541.521
3330.900, 8526.444
3332.829, 8522.916
3334.757, 8518.322
3336.686, 8511.850
3338.614, 8494.771
3340.543, 8464.235
3342.471, 8438.277
3344.400, 8416.056
3346.328, 8399.818
3348.257, 8381.176
3350.185, 8343.318
3352.114, 8302.964
3354.042, 8271.099
3355.970, 8241.884
3357.899, 8213.846
3359.827, 8187.354
3361.756, 8162.266
3363.684, 8142.943
3365.613, 8127.802
3367.541, 8106.472
3369.470, 8083.599
3371.398, 8071.611
3373.327, 8054.384
3375.255, 8009.173
3377.184, 7974.873
3379.112, 7967.347
3381.041, 7953.830
3382.969, 7927.653
3384.897, 7906.304
3386.826, 7888.118
3388.754, 7862.764
3390.683, 7836.041
3392.611, 7818.139
3394.540, 7802.267
3396.468, 7785.684
3398.397, 7767.284
3400.325, 7747.370
3402.254, 7726.505
3404.182, 7704.779
3406.111, 7674.399
3408.039, 7654.064
3409.968, 7620.134
3411.896, 7602.933
3413.824, 7571.299
3415.753, 7536.839
3417.681, 7506.186
3419.610, 7475.900
3421.538, 7445.593
3423.467, 7413.912
3425.395, 7386.118
3427.324, 7353.716
3429.252, 7329.674
3431.181, 7300.893
3433.109, 7271.594
3435.038, 7247.760
3436.966, 7221.073
3438.895, 7186.783
3440.823, 7156.893
3442.751, 7126.370
3444.680, 7093.332
3446.608, 7065.651
3448.537, 7032.350
3450.465, 7004.314
3452.394, 6981.501
3454.322, 6965.750
3456.251, 6966.394
3458.179, 6952.458
3460.108, 6914.849
3462.036, 6886.457
3463.965, 6867.217
3465.893, 6840.446
3467.822, 6808.495
3469.750, 6771.392
3471.678, 6736.986
3473.607, 6710.432
3475.535, 6688.218
3477.464, 6669.489
3479.392, 6648.946
3481.321, 6625.636
3483.249, 6601.399
3485.178, 6576.655
3487.106, 6551.837
3489.035, 6528.402
3490.963, 6509.136
3492.892, 6489.444
3494.820, 6467.589
3496.749, 6449.257
3498.677, 6435.427
3500.605, 6415.292
3502.534, 6394.814
3504.462, 6393.001
3506.391, 6389.955
3508.319, 6358.115
3510.248, 6334.484
3512.176, 6333.646
3514.105, 6332.315
3516.033, 6328.647
3517.962, 6320.376
3519.890, 6314.332
3521.819, 6327.695
3523.747, 6348.420
3525.676, 6364.728
3527.604, 6387.205
3529.532, 6415.703
3531.461, 6461.039
3533.389, 6523.234
3535.318, 6604.779
3537.246, 6700.501
3539.175, 6805.534
3541.103, 6914.875
3543.032, 7023.701
3544.960, 7139.341
3546.889, 7264.390
3548.817, 7389.661
3550.746, 7517.073
3552.674, 7671.255
3554.603, 7835.021
3556.531, 7995.152
3558.459, 8122.885
3560.388, 8209.252
3562.316, 8233.546
3564.245, 8193.503
3566.173, 8107.850
3568.102, 7979.511
3570.030, 7792.414
3571.959, 7578.523
3573.887, 7367.846
3575.816, 7160.835
3577.744, 6958.157
3579.673, 6762.962
3581.601, 6577.069
3583.530, 6406.804
3585.458, 6253.247
3587.386, 6114.021
3589.315, 5994.593
3591.243, 5902.428
3593.172, 5828.267
3595.100, 5770.507
3597.029, 5723.655
3598.957, 5685.004
3600.886, 5642.528
3602.814, 5602.587
3604.743, 5573.132
3606.671, 5551.331
3608.600, 5523.880
3610.528, 5504.900
3612.457, 5485.962
3614.385, 5467.350
3616.313, 5456.744
3618.242, 5435.975
3620.170, 5415.556
3622.099, 5401.946
3624.027, 5394.801
3625.956, 5395.457
3627.884, 5388.362
3629.813, 5374.888
3631.741, 5369.314
3633.670, 5366.118
3635.598, 5360.267
3637.527, 5354.060
3639.455, 5350.135
3641.384, 5336.243
3643.312, 5333.077
3645.240, 5311.347
3647.169, 5317.142
3649.097, 5295.572
3651.026, 5277.841
3652.954, 5282.116
3654.883, 5283.301
3656.811, 5276.455
3658.740, 5269.825
3660.668, 5264.898
3662.597, 5266.797
3664.525, 5267.594
3666.454, 5259.002
3668.382, 5255.926
3670.311, 5265.836
3672.239, 5264.408
3674.167, 5255.518
3676.096, 5249.572
3678.024, 5245.556
3679.953, 5240.404
3681.881, 5241.673
3683.810, 5238.931
3685.738, 5239.393
3687.667, 5239.978
3689.595, 5241.130
3691.524, 5245.903
3693.452, 5246.430
3695.381, 5239.766
3697.309, 5221.659
3699.238, 5214.417
3701.166, 5217.476
3703.094, 5223.797
3705.023, 5229.969
3706.951, 5232.601
3708.880, 5232.029
3710.808, 5227.383
3712.737, 5224.320
3714.665, 5223.511
3716.594, 5229.193
3718.522, 5234.948
3720.451, 5232.780
3722.379, 5228.906
3724.308, 5224.823
3726.236, 5222.186
3728.165, 5220.861
3730.093, 5219.236
3732.021, 5216.808
3733.950, 5208.907
3735.878, 5208.925
3737.807, 5222.395
3739.735, 5226.589
3741.664, 5222.000
3743.592, 5221.246
3745.521, 5220.717
3747.449, 5216.789
3749.378, 5211.923
3751.306, 5206.091
3753.235, 5209.750
3755.163, 5219.481
3757.092, 5218.865
3759.020, 5214.770
3760.948, 5212.722
3762.877, 5209.306
3764.805, 5203.695
3766.734, 5201.154
3768.662, 5201.241
3770.591, 5203.653
3772.519, 5205.891
3774.448, 5205.860
3776.376, 5207.831
3778.305, 5212.446
3780.233, 5203.547
3782.162, 5206.688
3784.090, 5195.478
3786.019, 5201.638
3787.947, 5200.757
3789.875, 5192.419
3791.804, 5178.084
3793.732, 5175.208
3795.661, 5180.479
3797.589, 5192.353
3799.518, 5203.553
3801.446, 5212.645
3803.375, 5213.011
3805.303, 5222.649
3807.232, 5218.692
3809.160, 5230.408
3811.089, 5230.499
3813.017, 5225.766
3814.946, 5216.460
3816.874, 5220.195
3818.802, 5229.359
3820.731, 5224.477
3822.659, 5214.328
3824.588, 5199.621
3826.516, 5198.780
3828.445, 5212.251
3830.373, 5215.145
3832.302, 5214.723
3834.230, 5225.067
3836.159, 5228.589
3838.087, 5217.787
3840.016, 5208.376
3841.944, 5202.923
3843.873, 5210.544
3845.801, 5222.261
3847.729, 5235.665
3849.658, 5237.802
3851.586, 5225.062
3853.515, 5216.783
3855.443, 5215.761
3857.372, 5232.146
3859.300, 5242.532
3861.229, 5236.289
3863.157, 5229.345
3865.086, 5224.106
3867.014, 5228.390
3868.943, 5231.085
3870.871, 5219.875
3872.800, 5212.621
3874.728, 5211.863
3876.656, 5209.461
3878.585, 5207.757
3880.513, 5209.795
3882.442, 5217.035
3884.370, 5217.737
3886.299, 5237.758
3888.227, 5226.744
3890.156, 5236.506
3892.084, 5244.927
3894.013, 5232.641
3895.941, 5224.995
3897.870, 5226.887
3899.798, 5220.885
3901.727, 5215.287
3903.655, 5225.420
3905.583, 5240.592
3907.512, 5256.578
3909.440, 5256.304
3911.369, 5246.080
3913.297, 5229.274
3915.226, 5218.541
3917.154, 5226.419
3919.083, 5231.333
3921.011, 5231.574
3922.940, 5222.565
3924.868, 5214.067
3926.797, 5223.332
3928.725, 5229.330
3930.654, 5227.742
3932.582, 5220.673
3934.510, 5214.646
3936.439, 5226.303
3938.367, 5232.515
3940.296, 5219.070
3942.224, 5223.779
3944.153, 5237.021
3946.081, 5233.519
3948.010, 5226.024
3949.938, 5221.126
3951.867, 5215.833
3953.795, 5210.596
3955.724, 5210.655
3957.652, 5217.295
3959.581, 5238.518
3961.509, 5242.637
3963.438, 5227.069
3965.366, 5216.201
3967.294, 5212.923
3969.223, 5226.314
3971.151, 5233.837
3973.080, 5230.254
3975.008, 5225.510
3976.937, 5223.585
3978.865, 5223.662
3980.794, 5234.310
3982.722, 5228.275
3984.651, 5230.551
3986.579, 5237.049
3988.508, 5233.293
3990.436, 5227.486
3992.365, 5224.313
3994.293, 5224.521
3996.221, 5227.378
3998.150, 5230.006
4000.078, 5232.469
4002.007, 5234.759
4003.935, 5236.647
4005.864, 5236.717
4007.792, 5229.560
4009.721, 5224.534
4011.649, 5228.755
4013.578, 5231.328
4015.506, 5233.229
4017.435, 5231.788
4019.363, 5231.413
4021.292, 5231.916
4023.220, 5230.672
4025.148, 5233.439
4027.077, 5233.578
4029.005, 5237.472
4030.934, 5248.408
4032.862, 5255.708
4034.791, 5253.142
4036.719, 5250.152
4038.648, 5248.873
4040.576, 5244.302
4042.505, 5238.470
4044.433, 5239.840
4046.362, 5232.338
4048.290, 5241.488
4050.219, 5247.103
4052.147, 5249.466
4054.075, 5246.938
4056.004, 5243.045
4057.932, 5241.322
4059.861, 5246.418
4061.789, 5250.730
4063.718, 5238.685
4065.646, 5232.472
4067.575, 5238.942
4069.503, 5236.279
4071.432, 5231.859
4073.360, 5224.251
4075.289, 5221.189
4077.217, 5220.536
4079.146, 5231.275
4081.074, 5222.662
4083.002, 5224.917
4084.931, 5227.015
4086.859, 5224.983
4088.788, 5214.242
4090.716, 5207.630
4092.645, 5220.141
4094.573, 5223.929
4096.502, 5212.361
4098.430, 5206.288
4100.359, 5200.403
4102.287, 5196.640
4104.216, 5195.091
4106.144, 5195.724
4108.073, 5199.959
4110.001, 5203.509
4111.930, 5205.470
4113.858, 5203.650
4115.787, 5205.614
4117.715, 5206.722
4119.644, 5206.117
4121.572, 5208.256
4123.500, 5209.597
4125.429, 5206.679
4127.357, 5200.648
4129.286, 5201.546
4131.214, 5198.858
4133.143, 5193.570
4135.071, 5194.011
4137.000, 5196.511
4138.928, 5196.211
4140.856, 5195.548
4142.785, 5196.211
4144.713, 5193.017
4146.642, 5194.421
4148.570, 5202.374
4150.499, 5196.021
4152.427, 5188.756
4154.356, 5198.802
4156.284, 5209.856
4158.213, 5209.662
4160.141, 5195.025
4162.070, 5182.774
4163.998, 5179.443
4165.927, 5182.732
4167.855, 5192.861
4169.784, 5192.846
4171.712, 5190.458
4173.641, 5201.443
4175.569, 5197.481
4177.498, 5172.984
4179.426, 5162.807
4181.354, 5163.536
4183.283, 5180.448
4185.211, 5185.874
4187.140, 5177.505
4189.068, 5177.938
4190.997, 5177.742
4192.925, 5164.884
4194.854, 5161.407
4196.782, 5166.601
4198.710, 5169.266
4200.639, 5170.358
4202.567, 5171.721
4204.496, 5163.300
4206.424, 5170.273
4208.353, 5167.169
4210.281, 5164.069
4212.210, 5169.104
4214.138, 5168.715
4216.067, 5165.306
4217.995, 5169.607
4219.924, 5176.956
4221.852, 5170.422
4223.781, 5178.863
4225.709, 5162.239
4227.638, 5154.872
4229.566, 5151.003
4231.495, 5150.225
4233.423, 5143.128
4235.352, 5134.906
4237.280, 5133.734
4239.208, 5137.667
4241.137, 5146.439
4243.065, 5151.805
4244.994, 5153.888
4246.922, 5152.508
4248.851, 5149.894
4250.779, 5146.468
4252.708, 5148.516
4254.636, 5150.517
4256.564, 5148.076
4258.493, 5141.302
4260.421, 5132.563
4262.350, 5135.931
4264.278, 5141.817
4266.207, 5146.758
4268.135, 5141.066
4270.064, 5131.960
4271.992, 5145.303
4273.921, 5153.088
4275.849, 5143.158
4277.778, 5138.149
4279.706, 5134.891
4281.635, 5125.712
4283.563, 5122.908
4285.492, 5129.633
4287.420, 5128.767
4289.349, 5125.537
4291.277, 5124.270
4293.206, 5123.408
4295.134, 5122.669
4297.063, 5119.491
4298.991, 5121.042
4300.919, 5133.232
4302.848, 5137.735
4304.776, 5136.143
4306.705, 5132.552
4308.633, 5130.331
4310.562, 5130.490
4312.490, 5137.004
4314.418, 5138.252
4316.347, 5135.206
4318.275, 5134.392
4320.204, 5126.853
4322.132, 5126.939
4324.061, 5122.727
4325.989, 5121.976
4327.918, 5120.627
4329.846, 5119.736
4331.775, 5123.627
4333.703, 5131.748
4335.632, 5125.019
4337.560, 5132.038
4339.489, 5114.880
4341.417, 5117.540
4343.346, 5112.429
4345.274, 5100.063
4347.203, 5105.529
4349.131, 5118.919
4351.060, 5136.480
4352.988, 5131.572
4354.917, 5117.338
4356.845, 5130.943
4358.773, 5128.665
4360.702, 5102.412
4362.630, 5101.280
4364.559, 5107.946
4366.487, 5101.807
4368.416, 5104.159
4370.344, 5113.410
4372.272, 5120.255
4374.201, 5121.494
4376.129, 5114.214
4378.058, 5108.704
4379.986, 5104.588
4381.915, 5102.102
4383.843, 5098.576
4385.772, 5093.853
4387.700, 5086.706
4389.629, 5086.313
4391.557, 5101.794
4393.486, 5103.026
4395.414, 5096.260
4397.343, 5093.208
4399.271, 5096.520
4401.200, 5105.711
4403.128, 5105.875
4405.057, 5100.845
4406.985, 5092.039
4408.914, 5088.780
4410.842, 5090.108
4412.771, 5092.401
4414.699, 5098.045
4416.627, 5106.045
4418.556, 5093.779
4420.484, 5078.406
4422.413, 5072.090
4424.341, 5079.542
4426.270, 5092.759
4428.198, 5091.213
4430.126, 5086.984
4432.055, 5064.133
4433.983, 5080.528
4435.912, 5089.043
4437.840, 5090.104
4439.769, 5061.379
4441.697, 5071.117
4443.626, 5065.439
4445.554, 5059.131
4447.483, 5074.281
4449.411, 5049.889
4451.340, 5064.698
4453.268, 5063.859
4455.197, 5070.182
4457.125, 5060.997
4459.054, 5056.601
4460.982, 5067.719
4462.911, 5070.247
4464.839, 5059.276
4466.768, 5066.054
4468.696, 5041.121
4470.625, 5044.014
4472.553, 5058.915
4474.481, 5048.724
4476.410, 5055.785
4478.338, 5056.277
4480.267, 5026.905
4482.195, 5049.467
4484.124, 5049.569
4486.052, 5026.612
4487.980, 5047.395
4489.909, 5027.615
4491.837, 5022.314
4493.766, 5027.908
4495.694, 5022.145
4497.623, 5034.289
4499.551, 5029.181
4501.480, 5022.532
4503.408, 5022.609
4505.337, 5003.625
4507.265, 5020.004
4509.194, 5012.227
4511.122, 5002.704
4513.051, 4991.032
4514.979, 4989.665
4516.908, 4986.529
4518.836, 4986.027
4520.765, 4990.912
4522.693, 5000.602
4524.622, 5004.366
4526.550, 4980.869
4528.479, 4968.239
4530.407, 4970.117
4532.335, 4977.181
4534.264, 4988.064
4536.192, 4983.637
4538.121, 4993.303
4540.049, 4978.829
4541.978, 4980.106
4543.906, 4979.476
4545.834, 4975.712
4547.763, 4968.422
4549.691, 4961.083
4551.620, 4955.612
4553.548, 4959.899
4555.477, 4962.844
4557.405, 4959.204
4559.334, 4949.255
4561.262, 4946.098
4563.191, 4943.167
4565.119, 4943.196
4567.048, 4940.953
4568.976, 4941.539
4570.905, 4947.706
4572.833, 4943.134
4574.762, 4945.235
4576.690, 4946.101
4578.619, 4941.675
4580.547, 4951.313
4582.476, 4956.199
4584.404, 4936.255
4586.333, 4929.916
4588.261, 4932.915
4590.189, 4933.553
4592.118, 4942.906
4594.046, 4939.667
4595.975, 4949.260
4597.903, 4938.633
4599.832, 4929.462
4601.760, 4931.576
4603.688, 4934.026
4605.617, 4928.872
4607.545, 4933.805
4609.474, 4940.855
4611.402, 4940.751
4613.331, 4935.458
4615.259, 4928.197
4617.188, 4927.978
4619.116, 4915.378
4621.045, 4893.248
4622.973, 4911.910
4624.902, 4929.769
4626.830, 4930.430
4628.759, 4911.763
4630.687, 4894.405
4632.616, 4892.474
4634.544, 4888.920
4636.473, 4885.675
4638.401, 4888.377
4640.330, 4885.576
4642.258, 4880.161
4644.187, 4882.966
4646.115, 4887.273
4648.043, 4891.127
4649.972, 4890.347
4651.900, 4886.797
4653.829, 4881.032
4655.757, 4875.104
4657.686, 4870.014
4659.614, 4866.310
4661.542, 4865.978
4663.471, 4866.638
4665.399, 4866.556
4667.328, 4866.085
4669.256, 4863.674
4671.185, 4852.916
4673.113, 4849.135
4675.042, 4851.817
4676.970, 4855.846
4678.899, 4850.193
4680.827, 4834.622
4682.756, 4832.071
4684.684, 4839.252
4686.613, 4853.065
4688.541, 4850.131
4690.470, 4844.505
4692.398, 4848.565
4694.327, 4844.063
4696.255, 4834.990
4698.184, 4823.994
4700.112, 4822.397
4702.041, 4822.703
4703.969, 4808.724
4705.897, 4808.001
4707.826, 4815.563
4709.754, 4812.966
4711.683, 4805.367
4713.611, 4796.104
4715.540, 4793.822
4717.468, 4797.470
4719.396, 4803.937
4721.325, 4797.235
4723.253, 4788.497
4725.182, 4782.435
4727.110, 4776.791
4729.039, 4770.396
4730.967, 4769.846
4732.896, 4764.206
4734.824, 4766.950
4736.753, 4774.353
4738.681, 4773.495
4740.610, 4765.750
4742.538, 4750.367
4744.467, 4741.799
4746.395, 4741.771
4748.324, 4756.383
4750.252, 4760.269
4752.181, 4757.461
4754.109, 4770.477
4756.038, 4763.295
4757.966, 4762.131
4759.895, 4744.733
4761.823, 4749.370
4763.751, 4748.519
4765.680, 4737.263
4767.608, 4730.251
4769.537, 4731.282
4771.465, 4730.311
4773.394, 4726.954
4775.322, 4721.407
4777.250, 4715.723
4779.179, 4714.327
4781.107, 4708.240
4783.036, 4710.485
4784.964, 4699.959
4786.893, 4702.104
4788.821, 4700.481
4790.750, 4698.213
4792.678, 4698.873
4794.607, 4700.481
4796.535, 4700.182
4798.464, 4694.657
4800.392, 4692.654
4802.321, 4690.004
4804.249, 4679.372
4806.178, 4676.231
4808.106, 4677.537
4810.035, 4678.554
4811.963, 4674.177
4813.892, 4670.065
4815.820, 4678.602
4817.749, 4680.997
4819.677, 4675.332
4821.605, 4677.469
4823.534, 4677.888
4825.462, 4672.076
4827.391, 4678.433
4829.319, 4677.491
4831.248, 4672.775
4833.176, 4673.071
4835.104, 4670.419
4837.033, 4664.688
4838.961, 4658.666
4840.890, 4654.304
4842.818, 4650.620
4844.747, 4642.768
4846.675, 4635.112
4848.604, 4630.386
4850.532, 4637.789
4852.461, 4640.921
4854.389, 4636.244
4856.318, 4619.852
4858.246, 4616.008
4860.175, 4625.396
4862.103, 4634.523
4864.032, 4623.678
4865.960, 4625.553
4867.889, 4612.740
4869.817, 4614.928
4871.746, 4599.165
4873.674, 4598.232
4875.603, 4603.695
4877.531, 4609.217
4879.459, 4591.231
4881.388, 4577.838
4883.316, 4574.028
4885.245, 4573.561
4887.173, 4566.409
4889.102, 4554.884
4891.030, 4552.795
4892.958, 4544.837
4894.887, 4546.008
4896.815, 4539.365
4898.744, 4543.990
4900.672, 4553.807
4902.601, 4550.578
4904.529, 4542.370
4906.458, 4533.529
4908.386, 4529.365
4910.315, 4536.467
4912.243, 4548.981
4914.172, 4539.837
4916.100, 4537.341
4918.029, 4541.302
4919.957, 4533.236
4921.886, 4528.115
4923.814, 4526.146
4925.743, 4520.821
4927.671, 4520.387
4929.600, 4520.347
4931.528, 4506.978
4933.457, 4492.055
4935.385, 4480.671
4937.313, 4478.044
4939.242, 4484.831
4941.170, 4492.769
4943.099, 4487.727
4945.027, 4487.614
4946.956, 4491.094
4948.884, 4496.372
4950.813, 4490.057
4952.741, 4476.932
4954.669, 4461.320
4956.598, 4466.041
4958.526, 4472.552
4960.455, 4460.431
4962.383, 4448.369
4964.312, 4445.096
4966.240, 4439.198
4968.169, 4447.318
4970.097, 4436.722
4972.026, 4442.124
4973.954, 4444.096
4975.883, 4439.638
4977.811, 4438.690
4979.740, 4436.326
4981.668, 4428.354
4983.597, 4427.186
4985.525, 4420.913
4987.454, 4409.083
4989.382, 4394.666
4991.311, 4396.610
4993.239, 4395.100
4995.167, 4389.408
4997.096, 4394.947
4999.024, 4398.021
5000.953, 4397.390
5002.881, 4398.013
5004.810, 4388.631
5006.738, 4377.502
5008.667, 4383.708
5010.595, 4371.774
5012.523, 4354.369
5014.452, 4352.858
5016.380, 4345.966
5018.309, 4342.450
5020.237, 4351.368
5022.166, 4351.072
5024.094, 4343.155
5026.023, 4329.905
5027.951, 4332.107
5029.880, 4335.570
5031.808, 4333.296
5033.737, 4328.674
5035.665, 4321.250
5037.594, 4311.962
5039.522, 4304.152
5041.451, 4298.842
5043.379, 4294.801
5045.308, 4286.157
5047.236, 4283.896
5049.165, 4284.045
5051.093, 4274.939
5053.021, 4281.220
5054.950, 4275.628
5056.878, 4275.164
5058.807, 4270.984
5060.735, 4270.248
5062.664, 4268.996
5064.592, 4263.070
5066.521, 4254.280
5068.449, 4244.228
5070.377, 4240.101
5072.306, 4236.994
5074.234, 4232.735
5076.163, 4223.833
5078.091, 4223.329
5080.020, 4217.984
5081.948, 4220.177
5083.877, 4212.568
5085.805, 4210.588
5087.734, 4210.667
5089.662, 4222.188
5091.591, 4214.680
5093.519, 4216.079
5095.448, 4213.891
5097.376, 4206.174
5099.305, 4192.827
5101.233, 4183.028
5103.162, 4187.837
5105.090, 4204.235
5107.019, 4213.804
5108.947, 4197.261
5110.875, 4171.324
5112.804, 4171.970
5114.732, 4168.564
5116.661, 4165.207
5118.589, 4162.003
5120.518, 4156.049
5122.446, 4153.396
5124.375, 4144.221
5126.303, 4140.407
5128.231, 4135.954
5130.160, 4143.060
5132.088, 4134.702
5134.017, 4134.476
5135.945, 4137.452
5137.874, 4125.041
5139.802, 4119.380
5141.731, 4121.460
5143.659, 4131.751
5145.588, 4129.941
5147.516, 4122.666
5149.445, 4114.625
5151.373, 4115.873
5153.302, 4106.866
5155.230, 4106.062
5157.159, 4096.409
5159.087, 4100.297
5161.016, 4099.044
5162.944, 4091.412
5164.873, 4103.016
5166.801, 4109.899
5168.729, 4093.475
5170.658, 4089.820
5172.586, 4085.837
5174.515, 4077.440
5176.443, 4082.304
5178.372, 4086.906
5180.300, 4088.667
5182.229, 4088.800
5184.157, 4083.005
5186.085, 4072.547
5188.014, 4058.641
5189.942, 4054.913
5191.871, 4055.039
5193.799, 4055.362
5195.728, 4051.159
5197.656, 4046.598
5199.585, 4042.830
5201.513, 4041.082
5203.442, 4035.070
5205.370, 4033.541
5207.299, 4028.557
5209.227, 4028.492
5211.156, 4027.524
5213.084, 4024.614
5215.013, 4019.304
5216.941, 4003.980
5218.870, 3986.634
5220.798, 3988.800
5222.727, 3991.297
5224.655, 3993.380
5226.583, 3996.261
5228.512, 3995.168
5230.440, 3992.199
5232.369, 3986.936
5234.297, 3988.533
5236.226, 3983.420
5238.154, 3979.010
5240.083, 3975.740
5242.011, 3967.618
5243.939, 3961.145
5245.868, 3953.934
5247.796, 3943.532
5249.725, 3936.281
5251.653, 3933.179
5253.582, 3931.857
5255.510, 3929.382
5257.439, 3928.655
5259.367, 3936.234
5261.296, 3926.039
5263.224, 3913.048
5265.153, 3906.069
5267.081, 3914.343
5269.010, 3915.667
5270.938, 3908.313
5272.867, 3894.637
5274.795, 3890.836
5276.724, 3892.465
5278.652, 3895.318
5280.581, 3885.485
5282.509, 3876.189
5284.438, 3871.566
5286.366, 3875.862
5288.294, 3863.599
5290.223, 3852.649
5292.151, 3865.316
5294.080, 3856.841
5296.008, 3847.497
5297.937, 3844.769
5299.865, 3849.776
5301.793, 3845.977
5303.722, 3837.379
5305.650, 3831.383
5307.579, 3822.609
5309.507, 3817.991
5311.436, 3819.395
5313.364, 3821.757
5315.293, 3818.941
5317.221, 3810.526
5319.150, 3797.292
5321.078, 3793.057
5323.007, 3787.300
5324.935, 3776.851
5326.864, 3780.849
5328.792, 3779.751
5330.721, 3773.296
5332.649, 3766.078
5334.578, 3766.972
5336.506, 3766.440
5338.435, 3759.909
5340.363, 3748.470
5342.292, 3737.986
5344.220, 3732.910
5346.148, 3741.946
5348.077, 3729.616
5350.005, 3721.931
5351.934, 3726.687
5353.862, 3716.010
5355.791, 3723.161
5357.719, 3730.791
5359.647, 3710.093
5361.576, 3710.887
5363.504, 3709.503
5365.433, 3697.038
5367.361, 3685.341
5369.290, 3677.540
5371.218, 3675.780
5373.147, 3667.927
5375.075, 3667.738
5377.004, 3659.069
5378.932, 3659.382
5380.861, 3654.891
5382.789, 3656.153
5384.718, 3652.419
5386.646, 3633.576
5388.575, 3636.939
5390.503, 3627.057
5392.432, 3614.006
5394.360, 3617.771
5396.289, 3611.276
5398.217, 3615.938
5400.146, 3608.486
5402.074, 3603.422
5404.002, 3597.804
5405.931, 3594.812
5407.859, 3592.107
5409.788, 3592.892
5411.716, 3589.063
5413.645, 3593.135
5415.573, 3592.197
5417.501, 3583.871
5419.430, 3571.407
5421.358, 3558.053
5423.287, 3563.155
5425.215, 3568.224
5427.144, 3564.622
5429.072, 3544.626
5431.001, 3535.391
5432.929, 3534.383
5434.858, 3535.546
5436.786, 3520.719
5438.715, 3514.968
5440.643, 3515.288
5442.572, 3514.800
5444.500, 3517.956
5446.429, 3509.013
5448.357, 3491.368
5450.286, 3483.256
5452.214, 3482.994
5454.143, 3485.384
5456.071, 3486.441
5458.000, 3479.905
5459.928, 3468.149
5461.856, 3459.376
5463.785, 3461.148
5465.713, 3461.859
5467.642, 3461.664
5469.570, 3461.144
5471.499, 3462.360
5473.427, 3450.893
5475.355, 3442.438
5477.284, 3441.108
5479.212, 3424.053
5481.141, 3422.931
5483.069, 3423.908
5484.998, 3412.090
5486.926, 3408.779
5488.855, 3412.620
5490.783, 3414.106
5492.712, 3398.798
5494.640, 3388.935
5496.569, 3385.257
5498.497, 3382.605
5500.426, 3366.301
5502.354, 3362.982
5504.283, 3366.452
5506.211, 3369.048
5508.140, 3361.280
5510.068, 3350.095
5511.997, 3343.860
5513.925, 3349.665
5515.854, 3345.943
5517.782, 3338.628
5519.710, 3330.316
5521.639, 3322.009
5523.567, 3326.472
5525.496, 3321.367
5527.424, 3307.212
5529.353, 3306.953
5531.281, 3294.898
5533.209, 3285.996
5535.138, 3286.341
5537.066, 3280.511
5538.995, 3284.450
5540.923, 3282.634
5542.852, 3278.065
5544.780, 3277.969
5546.709, 3268.503
5548.637, 3267.062
5550.566, 3261.410
5552.494, 3244.411
5554.423, 3243.934
5556.351, 3239.894
5558.280, 3224.286
5560.208, 3223.454
5562.137, 3223.914
5564.065, 3222.930
5565.994, 3226.860
5567.922, 3208.959
5569.851, 3208.583
5571.779, 3221.383
5573.708, 3188.521
5575.636, 3191.563
5577.564, 3193.691
5579.493, 3178.153
5581.421, 3179.299
5583.350, 3165.288
5585.278, 3154.022
5587.207, 3155.585
5589.135, 3142.711
5591.063, 3139.456
5592.992, 3137.663
5594.920, 3129.513
5596.849, 3131.700
5598.777, 3128.539
5600.706, 3116.195
5602.634, 3097.486
5604.563, 3104.384
5606.491, 3101.786
5608.420, 3094.511
5610.348, 3094.770
5612.277, 3084.552
5614.205, 3078.808
5616.134, 3073.655
5618.062, 3059.137
5619.991, 3067.405
5621.919, 3062.664
5623.848, 3052.825
5625.776, 3058.728
5627.705, 3047.941
5629.633, 3033.414
5631.562, 3024.332
5633.490, 3026.630
5635.418, 3013.102
5637.347, 3010.229
5639.275, 3013.583
5641.204, 3002.608
5643.132, 2999.001
5645.061, 2999.163
5646.989, 2995.844
5648.917, 2979.824
5650.846, 2975.554
5652.774, 2974.443
5654.703, 2973.177
5656.631, 2971.271
5658.560, 2966.127
5660.488, 2957.198
5662.417, 2949.842
5664.345, 2950.800
5666.274, 2942.352
5668.202, 2944.582
5670.131, 2945.989
5672.059, 2938.441
5673.988, 2926.782
5675.916, 2926.782
5677.845, 2917.418
5679.773, 2909.979
5681.702, 2915.696
5683.630, 2913.146
5685.559, 2902.938
5687.487, 2892.336
5689.416, 2889.244
5691.344, 2882.224
5693.272, 2874.462
5695.201, 2871.167
5697.129, 2873.192
5699.058, 2867.321
5700.986, 2866.341
5702.915, 2861.083
5704.843, 2858.851
5706.771, 2854.149
5708.700, 2844.924
5710.628, 2833.556
5712.557, 2828.764
5714.485, 2823.564
5716.414, 2818.106
5718.342, 2814.194
5720.271, 2815.989
5722.199, 2801.578
5724.128, 2791.800
5726.056, 2793.474
5727.985, 2797.224
5729.913, 2783.046
5731.842, 2775.166
5733.770, 2776.088
5735.699, 2772.171
5737.627, 2761.077
5739.556, 2759.619
5741.484, 2764.167
5743.413, 2763.822
5745.341, 2739.913
5747.270, 2739.597
5749.198, 2745.281
5751.126, 2733.324
5753.055, 2743.734
5754.983, 2732.940
5756.912, 2717.139
5758.840, 2713.904
5760.769, 2727.795
5762.697, 2723.673
5764.625, 2712.553
5766.554, 2702.250
5768.482, 2691.418
5770.411, 2684.556
5772.339, 2677.971
5774.268, 2673.040
5776.196, 2674.479
5778.125, 2679.505
5780.053, 2677.076
5781.982, 2668.223
5783.910, 2657.189
5785.839, 2637.438
5787.767, 2633.028
5789.696, 2629.357
5791.624, 2619.164
5793.553, 2625.359
5795.481, 2627.943
5797.410, 2617.360
5799.338, 2603.672
5801.267, 2610.804
5803.195, 2609.813
5805.124, 2606.196
5807.052, 2603.963
5808.980, 2603.458
5810.909, 2584.530
5812.837, 2578.190
5814.766, 2576.236
5816.694, 2569.700
5818.623, 2563.695
5820.551, 2563.065
5822.479, 2557.753
5824.408, 2549.198
5826.336, 2550.979
5828.265, 2543.131
5830.193, 2531.900
5832.122, 2522.505
5834.050, 2517.841
5835.979, 2512.858
5837.907, 2517.691
5839.836, 2520.930
5841.764, 2517.625
5843.693, 2516.988
5845.621, 2509.984
5847.550, 2506.355
5849.478, 2500.081
5851.407, 2494.580
5853.335, 2487.259
5855.264, 2479.453
5857.192, 2475.733
5859.121, 2474.446
5861.049, 2464.512
5862.978, 2468.807
5864.906, 2459.310
5866.834, 2443.034
5868.763, 2453.075
5870.691, 2449.457
5872.620, 2451.788
5874.548, 2451.997
5876.477, 2443.315
5878.405, 2439.836
5880.333, 2434.606
5882.262, 2431.800
5884.190, 2430.826
5886.119, 2427.569
5888.047, 2421.218
5889.976, 2415.928
5891.904, 2409.086
5893.833, 2401.929
5895.761, 2396.500
5897.690, 2391.609
5899.618, 2385.852
5901.547, 2382.703
5903.475, 2376.145
5905.404, 2375.344
5907.332, 2371.567
5909.261, 2365.217
5911.189, 2358.552
5913.118, 2351.601
5915.046, 2347.614
5916.975, 2341.421
5918.903, 2339.020
5920.832, 2345.998
5922.760, 2340.247
5924.688, 2334.644
5926.617, 2322.659
5928.545, 2312.173
5930.474, 2334.702
5932.402, 2318.948
5934.331, 2313.074
5936.259, 2308.695
5938.188, 2295.486
5940.116, 2299.594
5942.044, 2287.899
5943.973, 2282.702
5945.901, 2284.577
5947.830, 2283.149
5949.758, 2276.465
5951.687, 2261.764
5953.615, 2268.912
5955.544, 2270.825
5957.472, 2267.788
5959.401, 2244.967
5961.329, 2247.692
5963.258, 2240.179
5965.186, 2232.247
5967.115, 2238.566
5969.043, 2218.625
5970.972, 2224.717
5972.900, 2220.419
5974.829, 2220.875
5976.757, 2211.034
5978.686, 2204.370
5980.614, 2208.015
5982.542, 2205.952
5984.471, 2194.921
5986.399, 2195.683
5988.328, 2175.378
5990.256, 2173.560
5992.185, 2179.713
5994.113, 2169.203
5996.042, 2170.150
5997.970, 2166.735
5999.898, 2161.577
6001.827, 2154.728
6003.755, 2151.055
6005.684, 2146.894
6007.612, 2135.017
6009.541, 2129.227
6011.469, 2122.616
6013.398, 2128.662
6015.326, 2125.434
6017.255, 2119.756
6019.183, 2113.646
6021.112, 2107.714
6023.040, 2107.271
6024.969, 2099.390
6026.897, 2095.763
6028.826, 2093.807
6030.754, 2088.014
6032.683, 2079.052
6034.611, 2083.344
6036.540, 2081.467
6038.468, 2073.066
6040.396, 2065.495
6042.325, 2061.297
6044.253, 2061.584
6046.182, 2053.542
6048.110, 2045.754
6050.039, 2048.142
6051.967, 2037.290
6053.896, 2034.069
6055.824, 2036.955
6057.752, 2035.319
6059.681, 2022.221
6061.609, 2011.246
6063.538, 2011.630
6065.466, 2011.397
6067.395, 2009.611
6069.323, 2010.111
6071.252, 2002.317
6073.180, 2000.834
6075.109, 1986.862
6077.037, 1979.016
6078.966, 1973.451
6080.894, 1968.866
6082.823, 1967.495
6084.751, 1964.174
6086.680, 1958.307
6088.608, 1953.363
6090.537, 1950.214
6092.465, 1944.390
6094.394, 1944.141
6096.322, 1937.622
6098.250, 1935.490
6100.179, 1939.107
6102.107, 1937.330
6104.036, 1927.500
6105.964, 1924.019
6107.893, 1926.529
6109.821, 1918.793
6111.750, 1919.059
6113.678, 1910.940
6115.606, 1913.891
6117.535, 1904.279
6119.463, 1897.732
6121.392, 1895.276
6123.320, 1891.297
6125.249, 1883.548
6127.177, 1879.638
6129.106, 1874.215
6131.034, 1868.907
6132.963, 1864.464
6134.891, 1861.090
6136.820, 1856.727
6138.748, 1852.389
6140.677, 1848.623
6142.605, 1843.236
6144.534, 1841.337
6146.462, 1836.518
6148.391, 1834.382
6150.319, 1840.435
6152.248, 1822.931
6154.176, 1815.936
6156.104, 1817.842
6158.033, 1819.999
6159.961, 1815.810
6161.890, 1814.045
6163.818, 1802.422
6165.747, 1801.857
6167.675, 1793.448
6169.604, 1780.311
6171.532, 1775.131
6173.460, 1774.236
6175.389, 1775.078
6177.317, 1775.549
6179.246, 1772.840
6181.174, 1764.665
6183.103, 1755.689
6185.031, 1752.123
6186.960, 1747.461
6188.888, 1740.174
6190.817, 1732.897
6192.745, 1730.938
6194.674, 1730.224
6196.602, 1731.658
6198.531, 1725.003
6200.459, 1713.710
6202.388, 1709.176
6204.316, 1710.922
6206.245, 1714.939
6208.173, 1714.996
6210.102, 1707.451
6212.030, 1695.953
6213.958, 1691.627
6215.887, 1688.924
6217.815, 1688.513
6219.744, 1686.459
6221.672, 1681.748
6223.601, 1676.439
6225.529, 1676.586
6227.458, 1677.755
6229.386, 1678.581
6231.314, 1672.837
6233.243, 1657.873
6235.171, 1660.798
6237.100, 1649.899
6239.028, 1654.477
6240.957, 1645.733
6242.885, 1635.194
6244.814, 1629.347
6246.742, 1622.135
6248.671, 1623.532
6250.599, 1623.742
6252.528, 1623.008
6254.456, 1620.100
6256.385, 1615.999
6258.313, 1618.856
6260.242, 1611.671
6262.170, 1600.346
6264.099, 1601.037
6266.027, 1595.264
6267.956, 1590.256
6269.884, 1583.251
6271.813, 1588.962
6273.741, 1586.158
6275.669, 1579.393
6277.598, 1575.061
6279.526, 1571.648
6281.455, 1557.453
6283.383, 1567.278
6285.312, 1556.385
6287.240, 1545.111
6289.168, 1548.022
6291.097, 1555.676
6293.025, 1555.412
6294.954, 1545.009
6296.882, 1548.477
6298.811, 1546.804
6300.739, 1536.868
6302.668, 1535.332
6304.596, 1520.242
6306.525, 1521.366
6308.453, 1517.375
6310.382, 1517.152
6312.310, 1515.621
6314.239, 1499.876
6316.167, 1508.357
6318.096, 1511.603
6320.024, 1509.900
6321.953, 1488.411
6323.881, 1492.471
6325.810, 1486.290
6327.738, 1479.692
6329.667, 1487.345
6331.595, 1468.735
6333.523, 1476.164
6335.452, 1473.197
6337.380, 1474.989
6339.309, 1466.478
6341.237, 1461.150
6343.166, 1466.125
6345.094, 1465.396
6347.022, 1455.701
6348.951, 1457.793
6350.879, 1438.824
6352.808, 1438.336
6354.736, 1445.826
6356.665, 1436.646
6358.593, 1438.929
6360.522, 1436.845
6362.450, 1414.928
6364.379, 1427.505
6366.307, 1425.164
6368.236, 1407.506
6370.164, 1418.901
6372.093, 1403.355
6374.021, 1397.425
6375.950, 1398.731
6377.878, 1399.884
6379.807, 1397.058
6381.735, 1391.849
6383.664, 1390.560
6385.592, 1385.096
6387.521, 1384.791
6389.449, 1375.345
6391.377, 1369.373
6393.306, 1364.248
6395.234, 1355.376
6397.163, 1347.980
6399.091, 1350.072
6401.020, 1354.081
6402.948, 1350.000
6404.876, 1350.604
6406.805, 1346.764
6408.733, 1340.244
6410.662, 1336.363
6412.590, 1333.012
6414.519, 1327.649
6416.447, 1330.837
6418.376, 1329.277
6420.304, 1325.927
6422.233, 1321.705
6424.161, 1314.609
6426.090, 1310.763
6428.018, 1304.022
6429.947, 1302.047
6431.875, 1304.975
6433.804, 1304.105
6435.732, 1299.167
6437.661, 1297.073
6439.589, 1293.484
6441.518, 1289.815
6443.446, 1284.024
6445.375, 1285.418
6447.303, 1281.618
6449.231, 1279.664
6451.160, 1272.122
6453.088, 1275.897
6455.017, 1274.570
6456.945, 1272.822
6458.874, 1263.662
6460.802, 1267.849
6462.730, 1255.311
6464.659, 1256.205
6466.587, 1245.644
6468.516, 1240.035
6470.444, 1242.644
6472.373, 1240.459
6474.301, 1232.319
6476.230, 1226.615
6478.158, 1228.599
6480.087, 1227.853
6482.015, 1226.554
6483.944, 1225.877
6485.872, 1220.922
6487.801, 1215.507
6489.729, 1210.906
6491.658, 1202.874
6493.586, 1207.854
6495.515, 1213.039
6497.443, 1203.541
6499.372, 1199.560
6501.300, 1197.962
6503.229, 1192.074
6505.157, 1187.409
6507.085, 1184.294
6509.014, 1190.572
6510.942, 1178.068
6512.871, 1181.581
6514.799, 1181.767
6516.728, 1171.807
6518.656, 1163.989
6520.584, 1161.997
6522.513, 1164.660
6524.441, 1166.255
6526.370, 1163.202
6528.298, 1158.810
6530.227, 1153.157
6532.155, 1148.767
6534.084, 1151.020
6536.012, 1143.808
6537.941, 1148.672
6539.869, 1139.265
6541.798, 1132.872
6543.726, 1136.766
6545.655, 1135.460
6547.583, 1123.660
6549.512, 1131.580
6551.440, 1119.030
6553.369, 1128.110
6555.297, 1118.228
6557.226, 1108.776
6559.154, 1112.152
6561.083, 1115.365
6563.011, 1105.480
6564.939, 1107.376
6566.868, 1099.242
6568.796, 1105.453
6570.725, 1096.971
6572.653, 1095.434
6574.582, 1097.065
6576.510, 1090.549
6578.438, 1085.216
6580.367, 1075.684
6582.295, 1080.191
6584.224, 1074.054
6586.152, 1080.039
6588.081, 1070.686
6590.009, 1069.860
6591.938, 1069.242
6593.866, 1061.017
6595.795, 1065.282
6597.723, 1059.827
6599.652, 1055.850
6601.580, 1058.672
6603.509, 1059.138
6605.437, 1054.894
6607.366, 1048.255
6609.294, 1040.770
6611.223, 1042.683
6613.151, 1043.950
6615.080, 1037.115
6617.008, 1044.777
6618.937, 1042.426
6620.865, 1034.896
6622.793, 1032.278
6624.722, 1027.611
6626.650, 1023.630
6628.579, 1020.731
6630.507, 1022.635
##END=



