##NAMES=Kamaishilite
##RRUFFID=R070297
##IDEAL CHEMISTRY=Ca_2_(SiAl_2_)O_6_(OH)_2_
##LOCALITY=Kamaishi mine, Iwate Prefecture, Tohoku Region, Honshu Island, Japan
##OWNER=RRUFF
##SOURCE=Michael Scott
##DESCRIPTION=Colorless crystalline massive
##STATUS=The identification of this mineral is not yet confirmed
##URL=https://www.rruff.net/odr/rruff_sample/R070297
##FILETYPE=Raman RAW
##RAMAN WAVELENGTH=532

172.9473, 5109.279
174.8758, 5143.126
176.8042, 5163.714
178.7327, 5178.964
180.6612, 5198.283
182.5896, 5221.236
184.5181, 5246.271
186.4466, 5273.287
188.3750, 5301.795
190.3035, 5330.640
192.2320, 5361.645
194.1604, 5391.201
196.0889, 5411.940
198.0174, 5420.309
199.9458, 5434.527
201.8743, 5463.155
203.8028, 5507.734
205.7312, 5546.166
207.6597, 5570.467
209.5882, 5592.944
211.5166, 5631.074
213.4451, 5696.751
215.3736, 5752.748
217.3020, 5782.803
219.2305, 5776.612
221.1590, 5780.720
223.0874, 5800.304
225.0159, 5828.958
226.9444, 5859.547
228.8728, 5893.265
230.8013, 5923.162
232.7298, 5945.791
234.6582, 5963.979
236.5867, 5983.597
238.5152, 6002.612
240.4436, 6022.611
242.3721, 6048.533
244.3006, 6086.478
246.2290, 6125.026
248.1575, 6159.179
250.0860, 6191.785
252.0145, 6231.266
253.9429, 6282.528
255.8714, 6336.327
257.7999, 6386.413
259.7283, 6434.901
261.6568, 6481.250
263.5853, 6523.012
265.5137, 6559.997
267.4422, 6601.571
269.3707, 6659.949
271.2991, 6713.268
273.2276, 6740.454
275.1561, 6735.104
277.0845, 6730.704
279.0130, 6741.509
280.9415, 6769.924
282.8699, 6778.035
284.7984, 6749.528
286.7269, 6712.720
288.6553, 6682.983
290.5838, 6659.565
292.5123, 6650.349
294.4407, 6662.957
296.3692, 6690.461
298.2977, 6709.752
300.2261, 6718.261
302.1546, 6722.736
304.0831, 6724.014
306.0115, 6717.119
307.9400, 6723.650
309.8685, 6750.769
311.7969, 6788.875
313.7254, 6824.815
315.6539, 6857.979
317.5823, 6890.113
319.5108, 6922.229
321.4393, 6954.039
323.3677, 6980.575
325.2962, 6997.871
327.2247, 7011.696
329.1531, 7026.736
331.0816, 7045.047
333.0101, 7058.784
334.9385, 7063.131
336.8670, 7061.185
338.7955, 7068.020
340.7239, 7094.129
342.6524, 7120.211
344.5809, 7137.426
346.5093, 7144.733
348.4378, 7143.288
350.3663, 7117.271
352.2947, 7086.739
354.2232, 7085.922
356.1517, 7138.697
358.0801, 7186.353
360.0086, 7204.616
361.9371, 7185.180
363.8655, 7177.863
365.7940, 7185.189
367.7225, 7204.354
369.6509, 7232.288
371.5794, 7275.656
373.5079, 7313.715
375.4363, 7341.665
377.3648, 7358.252
379.2933, 7368.237
381.2217, 7366.086
383.1502, 7363.103
385.0787, 7364.294
387.0071, 7371.395
388.9356, 7379.014
390.8641, 7395.567
392.7925, 7411.934
394.7210, 7413.044
396.6495, 7389.755
398.5779, 7371.783
400.5064, 7368.973
402.4349, 7382.981
404.3633, 7393.306
406.2918, 7390.225
408.2203, 7387.989
410.1487, 7402.566
412.0772, 7442.672
414.0057, 7466.376
415.9341, 7454.310
417.8626, 7423.434
419.7911, 7415.568
421.7195, 7445.003
423.6480, 7475.987
425.5765, 7490.670
427.5049, 7487.295
429.4334, 7494.771
431.3619, 7522.845
433.2903, 7556.539
435.2188, 7577.563
437.1473, 7582.551
439.0757, 7595.444
441.0042, 7628.903
442.9327, 7668.882
444.8611, 7700.574
446.7896, 7727.674
448.7181, 7750.623
450.6465, 7759.623
452.5750, 7755.209
454.5035, 7754.745
456.4319, 7764.231
458.3604, 7780.021
460.2889, 7799.181
462.2173, 7825.525
464.1458, 7841.367
466.0743, 7832.581
468.0027, 7813.288
469.9312, 7809.242
471.8597, 7831.871
473.7881, 7858.196
475.7166, 7883.797
477.6451, 7904.859
479.5735, 7918.773
481.5020, 7918.223
483.4305, 7928.711
485.3589, 7949.518
487.2874, 7979.546
489.2159, 8006.036
491.1443, 8038.260
493.0728, 8087.385
495.0013, 8133.678
496.9297, 8167.100
498.8582, 8194.662
500.7867, 8233.010
502.7151, 8288.664
504.6436, 8353.410
506.5721, 8418.643
508.5005, 8484.779
510.4290, 8569.695
512.3575, 8673.872
514.2859, 8763.367
516.2144, 8830.019
518.1429, 8877.983
520.0714, 8900.704
521.9998, 8892.245
523.9283, 8868.682
525.8568, 8835.073
527.7852, 8791.987
529.7137, 8742.095
531.6422, 8674.899
533.5706, 8609.382
535.4991, 8559.152
537.4276, 8529.296
539.3560, 8511.205
541.2845, 8500.449
543.2130, 8490.995
545.1414, 8483.718
547.0699, 8477.726
548.9984, 8473.902
550.9268, 8478.960
552.8553, 8492.831
554.7838, 8501.633
556.7122, 8501.002
558.6407, 8496.198
560.5692, 8495.328
562.4976, 8497.532
564.4261, 8507.967
566.3546, 8535.353
568.2830, 8568.337
570.2115, 8595.121
572.1400, 8622.139
574.0684, 8662.172
575.9969, 8729.777
577.9254, 8783.075
579.8538, 8805.155
581.7823, 8800.714
583.7108, 8810.868
585.6392, 8845.306
587.5677, 8864.056
589.4962, 8857.464
591.4246, 8830.034
593.3531, 8800.347
595.2816, 8767.904
597.2100, 8738.807
599.1385, 8721.895
601.0670, 8721.899
602.9954, 8740.628
604.9239, 8770.131
606.8524, 8792.817
608.7808, 8801.906
610.7093, 8804.798
612.6378, 8820.993
614.5662, 8850.789
616.4947, 8890.601
618.4232, 8929.147
620.3516, 8955.112
622.2801, 8979.922
624.2086, 9013.383
626.1370, 9055.868
628.0655, 9098.598
629.9940, 9152.763
631.9224, 9207.702
633.8509, 9248.814
635.7794, 9271.952
637.7078, 9293.525
639.6363, 9311.780
641.5648, 9306.874
643.4932, 9283.148
645.4217, 9264.107
647.3502, 9274.435
649.2786, 9288.578
651.2071, 9294.236
653.1356, 9290.069
655.0640, 9284.275
656.9925, 9272.790
658.9210, 9237.629
660.8494, 9194.593
662.7779, 9158.745
664.7064, 9159.220
666.6348, 9160.147
668.5633, 9144.940
670.4918, 9119.643
672.4202, 9099.699
674.3487, 9092.239
676.2772, 9083.396
678.2056, 9078.433
680.1341, 9084.472
682.0626, 9108.159
683.9910, 9116.846
685.9195, 9129.378
687.8480, 9157.275
689.7764, 9186.385
691.7049, 9185.057
693.6334, 9162.712
695.5618, 9155.693
697.4903, 9173.871
699.4188, 9195.972
701.3472, 9198.615
703.2757, 9177.613
705.2042, 9164.040
707.1326, 9176.002
709.0611, 9212.896
710.9896, 9251.232
712.9180, 9266.787
714.8465, 9276.145
716.7750, 9287.842
718.7034, 9305.934
720.6319, 9308.271
722.5604, 9293.598
724.4888, 9289.392
726.4173, 9309.947
728.3458, 9346.141
730.2742, 9379.888
732.2027, 9406.351
734.1312, 9418.532
736.0596, 9405.660
737.9881, 9376.470
739.9166, 9361.274
741.8450, 9375.201
743.7735, 9410.505
745.7020, 9466.506
747.6304, 9521.568
749.5589, 9550.114
751.4874, 9555.271
753.4158, 9557.948
755.3443, 9564.525
757.2728, 9565.509
759.2012, 9571.168
761.1297, 9586.301
763.0582, 9605.521
764.9866, 9627.087
766.9151, 9641.873
768.8436, 9659.566
770.7720, 9689.320
772.7005, 9729.363
774.6290, 9772.352
776.5574, 9807.576
778.4859, 9836.766
780.4144, 9863.442
782.3428, 9889.692
784.2713, 9916.253
786.1998, 9911.759
788.1282, 9902.231
790.0567, 9896.379
791.9852, 9912.755
793.9136, 9959.506
795.8421, 10016.15
797.7706, 10066.75
799.6990, 10105.46
801.6275, 10146.23
803.5560, 10186.28
805.4844, 10237.08
807.4129, 10293.48
809.3414, 10347.47
811.2698, 10396.51
813.1983, 10445.32
815.1268, 10504.10
817.0552, 10573.62
818.9837, 10668.94
820.9122, 10751.58
822.8406, 10796.56
824.7691, 10805.40
826.6976, 10847.86
828.6260, 10936.95
830.5545, 11039.30
832.4830, 11145.13
834.4114, 11254.90
836.3399, 11355.07
838.2684, 11436.08
840.1968, 11509.31
842.1253, 11590.66
844.0538, 11687.79
845.9822, 11754.55
847.9107, 11771.83
849.8392, 11781.92
851.7676, 11803.40
853.6961, 11832.18
855.6246, 11850.42
857.5530, 11855.34
859.4815, 11849.93
861.4100, 11835.79
863.3384, 11820.89
865.2669, 11800.43
867.1954, 11769.21
869.1238, 11735.94
871.0523, 11706.67
872.9808, 11678.09
874.9092, 11637.59
876.8377, 11577.61
878.7662, 11527.06
880.6946, 11503.80
882.6231, 11494.54
884.5516, 11479.77
886.4800, 11446.98
888.4085, 11428.59
890.3370, 11431.80
892.2654, 11449.98
894.1939, 11474.36
896.1224, 11509.65
898.0508, 11532.01
899.9793, 11526.72
901.9078, 11506.67
903.8362, 11484.64
905.7647, 11455.09
907.6932, 11438.70
909.6216, 11454.24
911.5501, 11478.01
913.4786, 11480.32
915.4070, 11451.58
917.3355, 11427.17
919.2640, 11408.21
921.1924, 11398.49
923.1209, 11399.21
925.0494, 11410.98
926.9778, 11429.66
928.9063, 11457.51
930.8348, 11487.94
932.7632, 11521.50
934.6917, 11551.00
936.6202, 11561.07
938.5486, 11538.66
940.4771, 11514.69
942.4056, 11495.35
944.3341, 11483.30
946.2626, 11492.23
948.1910, 11540.29
950.1195, 11582.93
952.0480, 11601.01
953.9764, 11606.75
955.9049, 11623.85
957.8334, 11660.26
959.7618, 11692.71
961.6903, 11715.50
963.6188, 11741.95
965.5472, 11766.93
967.4757, 11771.18
969.4042, 11778.21
971.3326, 11801.26
973.2611, 11845.24
975.1896, 11891.29
977.1180, 11939.07
979.0465, 11991.61
980.9750, 12051.52
982.9034, 12102.04
984.8319, 12162.95
986.7604, 12260.94
988.6888, 12334.13
990.6173, 12372.47
992.5458, 12374.88
994.4742, 12334.24
996.4027, 12252.22
998.3312, 12185.37
1000.260, 12151.87
1002.188, 12135.65
1004.117, 12130.67
1006.045, 12124.94
1007.974, 12113.50
1009.902, 12093.61
1011.830, 12077.98
1013.759, 12071.03
1015.687, 12097.91
1017.616, 12115.77
1019.544, 12101.53
1021.473, 12082.71
1023.401, 12085.16
1025.330, 12106.50
1027.258, 12138.39
1029.187, 12189.32
1031.115, 12227.41
1033.044, 12232.60
1034.972, 12224.30
1036.901, 12241.81
1038.829, 12271.46
1040.757, 12287.75
1042.686, 12290.82
1044.614, 12302.37
1046.543, 12317.81
1048.471, 12314.59
1050.400, 12316.44
1052.328, 12331.46
1054.257, 12358.80
1056.185, 12395.08
1058.114, 12450.43
1060.042, 12507.61
1061.971, 12560.75
1063.899, 12605.00
1065.828, 12636.46
1067.756, 12649.95
1069.684, 12676.29
1071.613, 12734.88
1073.541, 12795.19
1075.470, 12829.25
1077.398, 12846.94
1079.327, 12918.62
1081.255, 13056.15
1083.184, 13149.16
1085.112, 13141.92
1087.041, 13082.80
1088.969, 13032.77
1090.898, 13008.10
1092.826, 13000.43
1094.755, 12999.71
1096.683, 12994.68
1098.611, 12981.23
1100.540, 12981.52
1102.468, 12990.63
1104.397, 13002.26
1106.325, 13014.62
1108.254, 13019.44
1110.182, 13016.28
1112.111, 13040.67
1114.039, 13103.99
1115.968, 13157.14
1117.896, 13185.85
1119.825, 13200.46
1121.753, 13211.71
1123.682, 13225.33
1125.610, 13247.25
1127.538, 13271.08
1129.467, 13294.78
1131.395, 13319.85
1133.324, 13346.98
1135.252, 13364.64
1137.181, 13363.22
1139.109, 13372.24
1141.038, 13408.41
1142.966, 13450.00
1144.895, 13449.27
1146.823, 13422.34
1148.752, 13440.30
1150.680, 13499.42
1152.609, 13556.29
1154.537, 13570.53
1156.465, 13561.83
1158.394, 13575.85
1160.322, 13602.87
1162.251, 13634.81
1164.179, 13672.03
1166.108, 13722.07
1168.036, 13769.29
1169.965, 13795.21
1171.893, 13799.46
1173.822, 13793.19
1175.750, 13786.95
1177.679, 13792.77
1179.607, 13812.59
1181.536, 13842.90
1183.464, 13889.44
1185.392, 13933.21
1187.321, 13950.73
1189.249, 13935.59
1191.178, 13945.29
1193.106, 13987.73
1195.035, 14022.80
1196.963, 14062.84
1198.892, 14120.66
1200.820, 14181.82
1202.749, 14222.44
1204.677, 14256.94
1206.606, 14284.76
1208.534, 14302.87
1210.463, 14325.51
1212.391, 14361.95
1214.319, 14389.29
1216.248, 14385.19
1218.176, 14388.77
1220.105, 14419.73
1222.033, 14466.76
1223.962, 14499.83
1225.890, 14515.29
1227.819, 14542.70
1229.747, 14596.02
1231.676, 14652.05
1233.604, 14671.37
1235.533, 14623.77
1237.461, 14609.92
1239.390, 14655.44
1241.318, 14716.74
1243.246, 14775.26
1245.175, 14830.18
1247.103, 14876.98
1249.032, 14912.33
1250.960, 14941.31
1252.889, 14960.77
1254.817, 14982.78
1256.746, 15007.38
1258.674, 15028.19
1260.603, 15036.05
1262.531, 15028.52
1264.460, 15044.92
1266.388, 15086.98
1268.317, 15137.35
1270.245, 15171.01
1272.173, 15187.14
1274.102, 15212.89
1276.030, 15242.14
1277.959, 15272.45
1279.887, 15306.46
1281.816, 15344.82
1283.744, 15383.29
1285.673, 15431.49
1287.601, 15463.73
1289.530, 15461.30
1291.458, 15440.99
1293.387, 15448.42
1295.315, 15493.05
1297.244, 15534.65
1299.172, 15551.85
1301.100, 15577.88
1303.029, 15641.25
1304.957, 15719.51
1306.886, 15762.22
1308.814, 15747.69
1310.743, 15753.75
1312.671, 15818.83
1314.600, 15890.11
1316.528, 15925.62
1318.457, 15921.08
1320.385, 15932.69
1322.314, 15979.38
1324.242, 16015.57
1326.171, 16022.06
1328.099, 16008.30
1330.027, 16007.26
1331.956, 16023.51
1333.884, 16051.02
1335.813, 16103.50
1337.741, 16163.42
1339.670, 16215.67
1341.598, 16247.59
1343.527, 16264.54
1345.455, 16259.84
1347.384, 16258.90
1349.312, 16254.34
1351.241, 16261.81
1353.169, 16297.60
1355.098, 16356.66
1357.026, 16415.97
1358.954, 16483.66
1360.883, 16532.38
1362.811, 16540.14
1364.740, 16529.23
1366.668, 16525.31
1368.597, 16529.37
1370.525, 16543.63
1372.454, 16571.51
1374.382, 16607.41
1376.311, 16652.13
1378.239, 16701.12
1380.168, 16750.21
1382.096, 16808.17
1384.025, 16842.88
1385.953, 16827.02
1387.881, 16814.65
1389.810, 16839.71
1391.738, 16891.74
1393.667, 16932.63
1395.595, 16960.94
1397.524, 16988.97
1399.452, 17014.21
1401.381, 17044.38
1403.309, 17089.14
1405.238, 17140.88
1407.166, 17171.94
1409.095, 17169.46
1411.023, 17175.88
1412.952, 17210.34
1414.880, 17253.93
1416.808, 17295.12
1418.737, 17334.92
1420.665, 17371.72
1422.594, 17402.87
1424.522, 17434.02
1426.451, 17461.62
1428.379, 17494.90
1430.308, 17542.81
1432.236, 17603.21
1434.165, 17645.12
1436.093, 17658.23
1438.022, 17671.88
1439.950, 17702.96
1441.879, 17732.34
1443.807, 17739.04
1445.735, 17719.04
1447.664, 17729.19
1449.592, 17810.86
1451.521, 17873.38
1453.449, 17871.75
1455.378, 17855.03
1457.306, 17887.48
1459.235, 17978.18
1461.163, 18036.95
1463.092, 18040.35
1465.020, 18044.46
1466.949, 18056.10
1468.877, 18080.11
1470.806, 18124.11
1472.734, 18183.95
1474.662, 18234.19
1476.591, 18276.02
1478.519, 18308.28
1480.448, 18316.32
1482.376, 18315.11
1484.305, 18330.89
1486.233, 18369.02
1488.162, 18397.45
1490.090, 18407.70
1492.019, 18411.21
1493.947, 18412.63
1495.876, 18419.02
1497.804, 18417.84
1499.733, 18409.31
1501.661, 18433.43
1503.589, 18506.92
1505.518, 18565.05
1507.446, 18566.14
1509.375, 18567.44
1511.303, 18622.28
1513.232, 18718.53
1515.160, 18774.54
1517.089, 18779.65
1519.017, 18772.04
1520.946, 18735.17
1522.874, 18711.20
1524.803, 18724.79
1526.731, 18771.91
1528.660, 18831.29
1530.588, 18911.22
1532.516, 18978.45
1534.445, 19017.65
1536.373, 19049.42
1538.302, 19080.21
1540.230, 19114.05
1542.159, 19155.11
1544.087, 19206.51
1546.016, 19254.81
1547.944, 19306.20
1549.873, 19347.32
1551.801, 19372.24
1553.730, 19386.74
1555.658, 19401.94
1557.587, 19419.40
1559.515, 19417.03
1561.443, 19357.81
1563.372, 19342.64
1565.300, 19409.31
1567.229, 19513.08
1569.157, 19624.81
1571.086, 19736.42
1573.014, 19796.08
1574.943, 19775.33
1576.871, 19764.51
1578.800, 19771.77
1580.728, 19793.16
1582.657, 19844.29
1584.585, 19915.08
1586.514, 19959.95
1588.442, 19970.19
1590.370, 19974.99
1592.299, 19956.97
1594.227, 19967.21
1596.156, 20048.81
1598.084, 20154.59
1600.013, 20207.50
1601.941, 20202.47
1603.870, 20203.50
1605.798, 20227.40
1607.727, 20237.04
1609.655, 20194.39
1611.584, 20162.99
1613.512, 20226.01
1615.441, 20357.56
1617.369, 20421.21
1619.297, 20388.71
1621.226, 20376.37
1623.154, 20415.71
1625.083, 20466.84
1627.011, 20503.53
1628.940, 20536.54
1630.868, 20598.28
1632.797, 20691.66
1634.725, 20735.73
1636.654, 20683.36
1638.582, 20661.25
1640.511, 20747.38
1642.439, 20861.30
1644.368, 20929.82
1646.296, 20959.16
1648.224, 20974.26
1650.153, 20972.98
1652.081, 20961.35
1654.010, 20922.71
1655.938, 20899.46
1657.867, 20923.53
1659.795, 20978.18
1661.724, 21042.85
1663.652, 21117.63
1665.581, 21170.81
1667.509, 21190.46
1669.438, 21205.73
1671.366, 21212.65
1673.295, 21228.03
1675.223, 21270.15
1677.151, 21330.12
1679.080, 21381.31
1681.008, 21418.52
1682.937, 21479.17
1684.865, 21602.28
1686.794, 21695.60
1688.722, 21703.16
1690.651, 21670.56
1692.579, 21639.73
1694.508, 21614.07
1696.436, 21613.04
1698.365, 21652.47
1700.293, 21670.22
1702.222, 21605.26
1704.150, 21572.72
1706.078, 21663.76
1708.007, 21813.28
1709.935, 21921.45
1711.864, 21987.90
1713.792, 22040.35
1715.721, 22071.66
1717.649, 22104.12
1719.578, 22144.01
1721.506, 22183.67
1723.435, 22224.81
1725.363, 22260.51
1727.292, 22275.54
1729.220, 22270.66
1731.149, 22262.70
1733.077, 22252.16
1735.005, 22247.70
1736.934, 22247.51
1738.862, 22261.30
1740.791, 22306.45
1742.719, 22369.40
1744.648, 22406.60
1746.576, 22410.36
1748.505, 22426.53
1750.433, 22468.11
1752.362, 22505.96
1754.290, 22517.94
1756.219, 22535.81
1758.147, 22610.84
1760.076, 22717.56
1762.004, 22751.64
1763.932, 22692.29
1765.861, 22649.60
1767.789, 22618.07
1769.718, 22617.01
1771.646, 22675.05
1773.575, 22741.57
1775.503, 22770.71
1777.432, 22769.95
1779.360, 22768.28
1781.289, 22757.07
1783.217, 22770.21
1785.146, 22837.01
1787.074, 22890.07
1789.003, 22906.70
1790.931, 22915.76
1792.859, 22942.26
1794.788, 22981.36
1796.716, 23012.05
1798.645, 23024.20
1800.573, 23059.65
1802.502, 23126.68
1804.430, 23198.37
1806.359, 23281.62
1808.287, 23347.47
1810.216, 23363.12
1812.144, 23349.23
1814.073, 23352.98
1816.001, 23376.79
1817.930, 23418.71
1819.858, 23512.13
1821.786, 23565.51
1823.715, 23527.81
1825.643, 23492.87
1827.572, 23500.43
1829.500, 23541.50
1831.429, 23607.05
1833.357, 23691.06
1835.286, 23761.67
1837.214, 23806.04
1839.143, 23851.91
1841.071, 23904.38
1843.000, 23953.25
1844.928, 24010.91
1846.857, 24055.86
1848.785, 24063.57
1850.714, 24048.62
1852.642, 24048.74
1854.570, 24067.99
1856.499, 24084.56
1858.427, 24080.91
1860.356, 24097.54
1862.284, 24171.22
1864.213, 24241.70
1866.141, 24244.50
1868.070, 24223.95
1869.998, 24287.27
1871.927, 24440.31
1873.855, 24505.46
1875.784, 24424.93
1877.712, 24374.15
1879.641, 24394.02
1881.569, 24423.98
1883.497, 24432.49
1885.426, 24441.77
1887.354, 24488.34
1889.283, 24559.90
1891.211, 24586.91
1893.140, 24527.21
1895.068, 24541.24
1896.997, 24700.74
1898.925, 24825.86
1900.854, 24869.73
1902.782, 24888.93
1904.711, 24909.15
1906.639, 24929.48
1908.568, 24945.90
1910.496, 24960.34
1912.424, 24991.37
1914.353, 25044.94
1916.281, 25088.80
1918.210, 25109.27
1920.138, 25132.37
1922.067, 25175.05
1923.995, 25211.76
1925.924, 25206.73
1927.852, 25187.02
1929.781, 25207.24
1931.709, 25263.80
1933.638, 25310.09
1935.566, 25350.51
1937.495, 25366.41
1939.423, 25326.20
1941.351, 25305.12
1943.280, 25347.73
1945.208, 25404.84
1947.137, 25435.09
1949.065, 25449.49
1950.994, 25473.95
1952.922, 25510.00
1954.851, 25540.67
1956.779, 25556.15
1958.708, 25581.50
1960.636, 25594.59
1962.565, 25640.39
1964.493, 25772.98
1966.422, 25897.37
1968.350, 25924.16
1970.278, 25892.38
1972.207, 25889.53
1974.135, 25916.14
1976.064, 25939.60
1977.992, 25968.14
1979.921, 25961.35
1981.849, 25871.96
1983.778, 25832.35
1985.706, 25938.15
1987.635, 26065.03
1989.563, 26133.68
1991.492, 26157.10
1993.420, 26121.15
1995.349, 26041.36
1997.277, 26097.97
1999.205, 26360.35
2001.134, 26506.82
2003.062, 26431.82
2004.991, 26364.83
2006.919, 26348.95
2008.848, 26355.72
2010.776, 26373.38
2012.705, 26401.40
2014.633, 26445.94
2016.562, 26500.99
2018.490, 26542.48
2020.419, 26572.46
2022.347, 26575.24
2024.276, 26536.40
2026.204, 26521.65
2028.132, 26550.68
2030.061, 26599.02
2031.989, 26685.96
2033.918, 26756.16
2035.846, 26739.50
2037.775, 26688.59
2039.703, 26693.75
2041.632, 26750.23
2043.560, 26827.21
2045.489, 26940.91
2047.417, 27010.85
2049.346, 27006.72
2051.274, 26997.42
2053.203, 26962.05
2055.131, 26961.20
2057.060, 27058.61
2058.988, 27170.11
2060.917, 27208.15
2062.845, 27197.83
2064.773, 27205.06
2066.702, 27229.84
2068.630, 27234.47
2070.559, 27213.38
2072.487, 27212.18
2074.416, 27236.66
2076.344, 27287.06
2078.273, 27389.37
2080.201, 27481.39
2082.130, 27511.40
2084.058, 27526.19
2085.987, 27580.13
2087.915, 27651.76
2089.844, 27680.27
2091.772, 27662.63
2093.700, 27691.67
2095.629, 27808.52
2097.557, 27871.11
2099.486, 27857.87
2101.414, 27827.99
2103.343, 27764.46
2105.271, 27733.04
2107.200, 27809.90
2109.128, 27892.00
2111.057, 27875.06
2112.985, 27816.68
2114.914, 27805.89
2116.842, 27838.45
2118.771, 27905.87
2120.699, 28010.69
2122.627, 28075.19
2124.556, 28055.27
2126.484, 28056.33
2128.413, 28120.21
2130.341, 28166.91
2132.270, 28152.87
2134.198, 28139.57
2136.127, 28191.40
2138.055, 28257.21
2139.984, 28254.21
2141.912, 28211.97
2143.841, 28241.87
2145.769, 28336.56
2147.698, 28379.16
2149.626, 28349.19
2151.554, 28358.65
2153.483, 28450.59
2155.411, 28516.47
2157.340, 28490.14
2159.268, 28477.39
2161.197, 28530.23
2163.125, 28604.80
2165.054, 28688.20
2166.982, 28757.28
2168.911, 28759.67
2170.839, 28717.09
2172.768, 28727.46
2174.696, 28791.56
2176.625, 28861.33
2178.553, 28941.93
2180.481, 28975.65
2182.410, 28933.83
2184.338, 28898.01
2186.267, 28866.75
2188.195, 28882.77
2190.124, 29018.11
2192.052, 29149.83
2193.981, 29167.32
2195.909, 29148.24
2197.838, 29205.12
2199.766, 29309.80
2201.695, 29369.58
2203.623, 29384.65
2205.552, 29394.10
2207.480, 29391.32
2209.408, 29413.08
2211.337, 29460.20
2213.265, 29522.85
2215.194, 29618.39
2217.122, 29683.98
2219.051, 29679.49
2220.979, 29666.78
2222.908, 29684.41
2224.836, 29712.91
2226.765, 29745.70
2228.693, 29774.26
2230.622, 29768.06
2232.550, 29742.52
2234.479, 29773.18
2236.407, 29856.17
2238.335, 29911.62
2240.264, 29928.62
2242.192, 29972.67
2244.121, 30061.91
2246.049, 30133.62
2247.978, 30163.66
2249.906, 30181.63
2251.835, 30193.65
2253.763, 30200.70
2255.692, 30210.19
2257.620, 30215.80
2259.549, 30191.78
2261.477, 30180.20
2263.406, 30265.20
2265.334, 30406.90
2267.262, 30476.75
2269.191, 30485.74
2271.119, 30527.73
2273.048, 30607.51
2274.976, 30669.02
2276.905, 30710.51
2278.833, 30723.47
2280.762, 30658.97
2282.690, 30643.85
2284.619, 30753.06
2286.547, 30839.96
2288.476, 30814.69
2290.404, 30797.04
2292.333, 30882.18
2294.261, 30978.46
2296.189, 31019.34
2298.118, 31012.34
2300.046, 30932.12
2301.975, 30821.62
2303.903, 30826.36
2305.832, 30940.39
2307.760, 31002.93
2309.689, 30989.96
2311.617, 31027.22
2313.546, 31127.25
2315.474, 31221.65
2317.403, 31301.82
2319.331, 31384.14
2321.260, 31490.71
2323.188, 31566.54
2325.116, 31553.45
2327.045, 31550.43
2328.973, 31621.57
2330.902, 31704.01
2332.830, 31754.44
2334.759, 31782.60
2336.687, 31786.24
2338.616, 31785.80
2340.544, 31840.09
2342.473, 31922.11
2344.401, 31925.43
2346.330, 31861.90
2348.258, 31848.09
2350.187, 31895.39
2352.115, 31922.94
2354.043, 31902.75
2355.972, 31915.41
2357.900, 31973.27
2359.829, 32039.38
2361.757, 32122.27
2363.686, 32183.81
2365.614, 32209.07
2367.543, 32214.98
2369.471, 32183.11
2371.400, 32169.30
2373.328, 32230.65
2375.257, 32306.24
2377.185, 32336.41
2379.114, 32356.23
2381.042, 32431.25
2382.970, 32520.92
2384.899, 32520.66
2386.827, 32458.29
2388.756, 32429.25
2390.684, 32432.41
2392.613, 32475.18
2394.541, 32558.35
2396.470, 32634.14
2398.398, 32707.25
2400.327, 32756.68
2402.255, 32770.70
2404.184, 32799.29
2406.112, 32862.00
2408.041, 32905.76
2409.969, 32899.75
2411.897, 32916.13
2413.826, 32985.71
2415.754, 33069.75
2417.683, 33168.56
2419.611, 33244.43
2421.540, 33256.54
2423.468, 33251.09
2425.397, 33259.29
2427.325, 33283.34
2429.254, 33364.41
2431.182, 33443.82
2433.111, 33397.58
2435.039, 33292.53
2436.968, 33268.57
2438.896, 33312.98
2440.824, 33386.51
2442.753, 33483.31
2444.681, 33499.37
2446.610, 33417.21
2448.538, 33446.65
2450.467, 33605.07
2452.395, 33711.45
2454.324, 33737.94
2456.252, 33792.89
2458.181, 33923.38
2460.109, 34007.93
2462.038, 33984.34
2463.966, 33980.13
2465.895, 34018.88
2467.823, 34075.18
2469.751, 34169.37
2471.680, 34229.76
2473.608, 34184.55
2475.537, 34153.03
2477.465, 34232.46
2479.394, 34314.96
2481.322, 34346.91
2483.251, 34327.91
2485.179, 34187.03
2487.108, 34067.16
2489.036, 34185.88
2490.965, 34398.30
2492.893, 34503.82
2494.822, 34527.32
2496.750, 34471.43
2498.678, 34383.26
2500.607, 34436.46
2502.535, 34601.34
2504.464, 34698.53
2506.392, 34733.55
2508.321, 34779.61
2510.249, 34836.40
2512.178, 34863.00
2514.106, 34852.57
2516.035, 34896.72
2517.963, 35038.37
2519.892, 35104.20
2521.820, 35067.27
2523.749, 35020.70
2525.677, 34950.73
2527.605, 34947.30
2529.534, 35047.28
2531.462, 35132.70
2533.391, 35161.13
2535.319, 35197.13
2537.248, 35274.97
2539.176, 35336.24
2541.105, 35375.50
2543.033, 35384.92
2544.962, 35314.04
2546.890, 35300.17
2548.819, 35462.36
2550.747, 35615.82
2552.676, 35628.11
2554.604, 35625.32
2556.532, 35699.76
2558.461, 35775.62
2560.389, 35775.74
2562.318, 35772.07
2564.246, 35846.86
2566.175, 35938.18
2568.103, 35997.96
2570.032, 36030.53
2571.960, 36020.53
2573.889, 35999.41
2575.817, 36020.63
2577.746, 36061.41
2579.674, 36071.87
2581.603, 36074.31
2583.531, 36117.01
2585.459, 36193.11
2587.388, 36287.29
2589.316, 36395.75
2591.245, 36516.20
2593.173, 36634.50
2595.102, 36652.39
2597.030, 36592.86
2598.959, 36628.23
2600.887, 36745.79
2602.816, 36823.02
2604.744, 36858.95
2606.673, 36853.09
2608.601, 36798.92
2610.530, 36806.66
2612.458, 36879.07
2614.386, 36900.96
2616.315, 36863.31
2618.243, 36879.41
2620.172, 36968.67
2622.100, 37053.65
2624.029, 37146.00
2625.957, 37184.05
2627.886, 37147.04
2629.814, 37159.70
2631.743, 37239.01
2633.671, 37314.45
2635.600, 37380.36
2637.528, 37423.74
2639.457, 37420.63
2641.385, 37444.64
2643.313, 37513.36
2645.242, 37574.66
2647.170, 37626.97
2649.099, 37648.29
2651.027, 37598.43
2652.956, 37608.88
2654.884, 37753.18
2656.813, 37876.75
2658.741, 37952.61
2660.670, 38020.33
2662.598, 38090.43
2664.527, 38134.60
2666.455, 38120.36
2668.384, 38131.36
2670.312, 38226.13
2672.240, 38291.22
2674.169, 38268.18
2676.097, 38292.13
2678.026, 38443.17
2679.954, 38539.39
2681.883, 38466.74
2683.811, 38431.27
2685.740, 38521.11
2687.668, 38615.07
2689.597, 38658.38
2691.525, 38714.04
2693.454, 38808.23
2695.382, 38886.09
2697.311, 38935.14
2699.239, 38955.30
2701.167, 38921.41
2703.096, 38909.28
2705.024, 38973.63
2706.953, 39023.76
2708.881, 39024.68
2710.810, 39025.24
2712.738, 39033.55
2714.667, 39059.83
2716.595, 39126.13
2718.524, 39175.83
2720.452, 39153.84
2722.381, 39176.52
2724.309, 39329.75
2726.238, 39440.68
2728.166, 39414.82
2730.094, 39377.99
2732.023, 39367.82
2733.951, 39370.05
2735.880, 39381.16
2737.808, 39395.82
2739.737, 39394.67
2741.665, 39422.54
2743.594, 39523.89
2745.522, 39609.25
2747.451, 39663.71
2749.379, 39674.54
2751.308, 39601.32
2753.236, 39580.95
2755.165, 39709.67
2757.093, 39794.00
2759.021, 39683.00
2760.950, 39673.88
2762.878, 39934.77
2764.807, 40080.62
2766.735, 39983.60
2768.664, 39892.41
2770.592, 39890.16
2772.521, 39889.53
2774.449, 39868.85
2776.378, 39853.41
2778.306, 39827.41
2780.235, 39868.13
2782.163, 40020.87
2784.092, 40139.72
2786.020, 40164.99
2787.948, 40199.23
2789.877, 40255.28
2791.805, 40302.23
2793.734, 40339.63
2795.662, 40347.87
2797.591, 40318.16
2799.519, 40284.44
2801.448, 40222.64
2803.376, 40247.48
2805.305, 40380.40
2807.233, 40500.98
2809.162, 40599.22
2811.090, 40679.43
2813.019, 40728.67
2814.947, 40811.20
2816.875, 40936.70
2818.804, 40977.80
2820.732, 40930.53
2822.661, 40938.04
2824.589, 41009.80
2826.518, 41055.74
2828.446, 41078.18
2830.375, 41083.48
2832.303, 41078.64
2834.232, 41092.74
2836.160, 41130.78
2838.089, 41222.78
2840.017, 41350.33
2841.946, 41419.27
2843.874, 41447.66
2845.802, 41522.00
2847.731, 41626.09
2849.659, 41737.96
2851.588, 41839.00
2853.516, 41885.20
2855.445, 41890.65
2857.373, 41830.94
2859.302, 41788.48
2861.230, 41934.55
2863.159, 42120.05
2865.087, 42143.74
2867.016, 42121.11
2868.944, 42184.83
2870.873, 42265.01
2872.801, 42297.84
2874.729, 42316.08
2876.658, 42343.73
2878.586, 42362.68
2880.515, 42337.84
2882.443, 42337.05
2884.372, 42414.68
2886.300, 42496.68
2888.229, 42572.43
2890.157, 42617.51
2892.086, 42611.02
2894.014, 42594.21
2895.943, 42563.45
2897.871, 42547.88
2899.800, 42536.00
2901.728, 42583.05
2903.656, 42751.33
2905.585, 42877.74
2907.513, 42954.72
2909.442, 42969.02
2911.370, 42904.63
2913.299, 42910.05
2915.227, 43031.15
2917.156, 43052.46
2919.084, 42967.74
2921.013, 42923.52
2922.941, 42926.18
2924.870, 42996.70
2926.798, 43122.34
2928.727, 43194.23
2930.655, 43222.88
2932.583, 43213.78
2934.512, 43199.75
2936.440, 43278.97
2938.369, 43387.05
2940.297, 43416.03
2942.226, 43398.20
2944.154, 43377.63
2946.083, 43351.13
2948.011, 43315.39
2949.940, 43289.29
2951.868, 43283.09
2953.797, 43307.14
2955.725, 43372.50
2957.654, 43457.91
2959.582, 43582.24
2961.510, 43660.43
2963.439, 43634.44
2965.367, 43581.14
2967.296, 43470.86
2969.224, 43487.79
2971.153, 43729.53
2973.081, 43870.48
2975.010, 43788.41
2976.938, 43761.32
2978.867, 43796.13
2980.795, 43816.33
2982.724, 43817.74
2984.652, 43821.50
2986.581, 43827.84
2988.509, 43826.28
2990.438, 43826.50
2992.366, 43905.85
2994.294, 44008.89
2996.223, 43969.27
2998.151, 43902.95
3000.080, 44099.54
3002.008, 44300.28
3003.937, 44121.52
3005.865, 43904.00
3007.794, 43935.44
3009.722, 44029.77
3011.651, 44083.65
3013.579, 44133.29
3015.508, 44208.86
3017.436, 44252.48
3019.365, 44202.14
3021.293, 44212.39
3023.221, 44331.99
3025.150, 44417.79
3027.078, 44447.58
3029.007, 44429.94
3030.935, 44336.29
3032.864, 44358.36
3034.792, 44488.02
3036.721, 44515.36
3038.649, 44469.46
3040.578, 44494.64
3042.506, 44568.05
3044.435, 44625.96
3046.363, 44670.14
3048.292, 44696.34
3050.220, 44714.55
3052.148, 44742.07
3054.077, 44758.51
3056.005, 44759.41
3057.934, 44727.99
3059.862, 44627.92
3061.791, 44552.48
3063.719, 44522.16
3065.648, 44558.54
3067.576, 44684.23
3069.505, 44785.96
3071.433, 44846.12
3073.362, 44879.58
3075.290, 44879.58
3077.219, 44923.14
3079.147, 45001.86
3081.075, 45064.63
3083.004, 45103.16
3084.932, 45087.30
3086.861, 45042.43
3088.789, 45012.48
3090.718, 45004.77
3092.646, 45033.58
3094.575, 45084.70
3096.503, 45165.86
3098.432, 45231.26
3100.360, 45240.59
3102.289, 45257.24
3104.217, 45294.99
3106.146, 45347.91
3108.074, 45423.96
3110.002, 45481.26
3111.931, 45523.18
3113.859, 45478.30
3115.788, 45346.41
3117.716, 45332.42
3119.645, 45412.99
3121.573, 45436.92
3123.502, 45454.13
3125.430, 45629.08
3127.359, 45796.15
3129.287, 45643.18
3131.216, 45483.63
3133.144, 45605.71
3135.073, 45724.75
3137.001, 45646.36
3138.929, 45623.67
3140.858, 45763.98
3142.786, 45810.69
3144.715, 45670.71
3146.643, 45588.00
3148.572, 45578.04
3150.500, 45609.64
3152.429, 45680.07
3154.357, 45806.78
3156.286, 45940.51
3158.214, 45878.35
3160.143, 45774.96
3162.071, 45898.74
3164.000, 46064.40
3165.928, 46127.09
3167.856, 46136.25
3169.785, 46093.55
3171.713, 46067.11
3173.642, 46104.68
3175.570, 46101.76
3177.499, 46010.85
3179.427, 46016.68
3181.356, 46126.29
3183.284, 46213.55
3185.213, 46272.24
3187.141, 46315.96
3189.070, 46335.19
3190.998, 46261.64
3192.927, 46198.49
3194.855, 46305.44
3196.783, 46434.30
3198.712, 46475.04
3200.640, 46506.65
3202.569, 46590.67
3204.497, 46616.52
3206.426, 46494.97
3208.354, 46532.49
3210.283, 46754.28
3212.211, 46871.09
3214.140, 46870.34
3216.068, 46871.74
3217.997, 46871.33
3219.925, 46874.84
3221.854, 46871.06
3223.782, 46805.30
3225.710, 46794.88
3227.639, 47033.91
3229.567, 47187.60
3231.496, 47044.83
3233.424, 46953.59
3235.353, 47002.03
3237.281, 47028.43
3239.210, 47016.71
3241.138, 47050.39
3243.067, 47116.93
3244.995, 47128.40
3246.924, 47104.68
3248.852, 47070.55
3250.781, 47064.59
3252.709, 47144.69
3254.637, 47260.86
3256.566, 47439.11
3258.494, 47522.12
3260.423, 47366.20
3262.351, 47286.68
3264.280, 47314.76
3266.208, 47355.17
3268.137, 47400.07
3270.065, 47487.15
3271.994, 47581.40
3273.922, 47573.37
3275.851, 47499.93
3277.779, 47365.50
3279.708, 47271.94
3281.636, 47341.69
3283.564, 47421.56
3285.493, 47465.25
3287.421, 47523.37
3289.350, 47588.27
3291.278, 47732.04
3293.207, 47933.86
3295.135, 48003.78
3297.064, 47969.69
3298.992, 47913.36
3300.921, 47869.84
3302.849, 47925.96
3304.778, 47976.31
3306.706, 47929.52
3308.635, 47915.32
3310.563, 47994.66
3312.491, 48033.16
3314.420, 47989.80
3316.348, 47959.30
3318.277, 47938.86
3320.205, 47928.66
3322.134, 47932.39
3324.062, 47974.67
3325.991, 48028.29
3327.919, 48066.63
3329.848, 48108.01
3331.776, 48205.10
3333.705, 48226.35
3335.633, 48110.99
3337.562, 48073.16
3339.490, 48132.79
3341.418, 48254.98
3343.347, 48398.16
3345.275, 48336.25
3347.204, 48218.42
3349.132, 48296.89
3351.061, 48383.93
3352.989, 48304.95
3354.918, 48247.81
3356.846, 48273.08
3358.775, 48313.26
3360.703, 48355.84
3362.632, 48392.95
3364.560, 48428.01
3366.489, 48521.98
3368.417, 48613.29
3370.345, 48540.34
3372.274, 48445.99
3374.202, 48416.38
3376.131, 48458.11
3378.059, 48610.90
3379.988, 48733.61
3381.916, 48808.69
3383.845, 48799.04
3385.773, 48720.20
3387.702, 48730.20
3389.630, 48788.32
3391.559, 48822.64
3393.487, 48846.77
3395.416, 48891.19
3397.344, 48891.54
3399.272, 48760.36
3401.201, 48768.33
3403.129, 48976.06
3405.058, 49074.82
3406.986, 49074.72
3408.915, 49130.70
3410.843, 49188.07
3412.772, 49102.46
3414.700, 49030.71
3416.629, 49136.22
3418.557, 49215.39
3420.486, 49211.50
3422.414, 49178.43
3424.343, 49118.95
3426.271, 49159.32
3428.199, 49268.07
3430.128, 49317.33
3432.056, 49321.72
3433.985, 49239.35
3435.913, 49233.21
3437.842, 49445.14
3439.770, 49624.14
3441.699, 49718.52
3443.627, 49723.66
3445.556, 49648.82
3447.484, 49556.24
3449.413, 49485.77
3451.341, 49600.37
3453.270, 49682.02
3455.198, 49478.09
3457.126, 49337.46
3459.055, 49481.89
3460.983, 49575.98
3462.912, 49599.40
3464.840, 49657.48
3466.769, 49740.14
3468.697, 49802.71
3470.626, 49845.05
3472.554, 49860.18
3474.483, 49868.18
3476.411, 49889.70
3478.340, 49875.68
3480.268, 49807.46
3482.197, 49847.14
3484.125, 49981.30
3486.053, 49970.91
3487.982, 49911.59
3489.910, 49938.18
3491.839, 50001.26
3493.767, 50079.40
3495.696, 50147.52
3497.624, 50206.81
3499.553, 50190.72
3501.481, 50112.66
3503.410, 50136.21
3505.338, 50219.24
3507.267, 50303.90
3509.195, 50377.55
3511.124, 50413.10
3513.052, 50481.04
3514.980, 50623.64
3516.909, 50710.32
3518.837, 50736.63
3520.766, 50753.78
3522.694, 50766.46
3524.623, 50743.92
3526.551, 50781.96
3528.480, 51042.23
3530.408, 51193.46
3532.337, 51135.59
3534.265, 51171.90
3536.194, 51333.48
3538.122, 51623.78
3540.051, 51959.46
3541.979, 52170.16
3543.907, 52365.95
3545.836, 52591.46
3547.764, 52913.63
3549.693, 53372.71
3551.621, 53785.08
3553.550, 54154.08
3555.478, 54604.66
3557.407, 55103.02
3559.335, 55559.34
3561.264, 56103.24
3563.192, 56890.75
3565.121, 57477.18
3567.049, 57701.73
3568.978, 57959.81
3570.906, 58190.39
3572.834, 58120.11
3574.763, 57884.25
3576.691, 57559.29
3578.620, 57269.40
3580.548, 57140.28
3582.477, 56825.80
3584.405, 56299.52
3586.334, 55895.56
3588.262, 55580.34
3590.191, 55223.68
3592.119, 54898.75
3594.048, 54713.25
3595.976, 54452.60
3597.905, 53985.92
3599.833, 53731.70
3601.761, 53686.67
3603.690, 53601.38
3605.618, 53521.34
3607.547, 53529.41
3609.475, 53569.89
3611.404, 53688.24
3613.332, 53637.04
3615.261, 53388.11
3617.189, 53145.84
3619.118, 52957.76
3621.046, 52998.99
3622.975, 53081.62
3624.903, 53051.88
3626.832, 52975.84
3628.760, 52858.45
3630.688, 52828.78
3632.617, 52888.13
3634.545, 52968.85
3636.474, 52997.30
3638.402, 52813.24
3640.331, 52664.34
3642.259, 52694.03
3644.188, 52685.52
3646.116, 52604.55
3648.045, 52545.43
3649.973, 52514.66
3651.902, 52563.89
3653.830, 52582.88
3655.759, 52435.20
3657.687, 52346.04
3659.615, 52357.80
3661.544, 52443.00
3663.472, 52560.57
3665.401, 52545.85
3667.329, 52482.54
3669.258, 52445.56
3671.186, 52396.66
3673.115, 52340.55
3675.043, 52213.38
3676.972, 52024.02
3678.900, 51746.54
3680.829, 51491.93
3682.757, 51448.80
3684.686, 51357.68
3686.614, 51106.31
3688.542, 50885.84
3690.471, 50714.01
3692.399, 50467.70
3694.328, 50249.42
3696.256, 50237.54
3698.185, 50259.83
3700.113, 50238.70
3702.042, 50235.29
3703.970, 50256.25
3705.899, 50178.52
3707.827, 50074.61
3709.756, 50087.08
3711.684, 50091.19
3713.613, 49999.56
3715.541, 50003.80
3717.469, 50139.18
3719.398, 50144.95
3721.326, 50082.94
3723.255, 50074.66
3725.183, 50064.73
3727.112, 50028.35
3729.040, 50002.71
3730.969, 49998.72
3732.897, 49986.78
3734.826, 49988.62
3736.754, 50047.55
3738.683, 50112.21
3740.611, 50168.00
3742.540, 50130.16
3744.468, 49978.89
3746.396, 49938.76
3748.325, 49967.50
3750.253, 50037.19
3752.182, 50036.02
3754.110, 49870.13
3756.039, 49854.93
3757.967, 50029.00
3759.896, 50008.34
3761.824, 49908.40
3763.753, 49896.36
3765.681, 49918.52
3767.610, 49958.46
3769.538, 49997.85
3771.467, 50031.80
3773.395, 49997.59
3775.323, 49949.61
3777.252, 49972.91
3779.180, 49970.20
3781.109, 49896.63
3783.037, 49923.20
3784.966, 50021.92
3786.894, 49857.51
3788.823, 49680.22
3790.751, 49804.55
3792.680, 49868.00
3794.608, 49770.67
3796.537, 49799.92
3798.465, 49922.69
3800.394, 50002.43
3802.322, 50038.04
3804.250, 50020.58
3806.179, 49956.30
3808.107, 49848.43
3810.036, 49800.74
3811.964, 49793.41
3813.893, 49772.51
3815.821, 49766.16
3817.750, 49806.61
3819.678, 49786.23
3821.607, 49703.78
3823.535, 49738.86
3825.464, 49831.96
3827.392, 49945.77
3829.321, 50007.19
3831.249, 49999.78
3833.177, 49906.67
3835.106, 49770.96
3837.034, 49735.10
3838.963, 49774.04
3840.891, 49916.26
3842.820, 49979.59
3844.748, 49938.43
3846.677, 49954.31
3848.605, 50004.95
3850.534, 50092.93
3852.462, 50129.92
3854.391, 50058.43
3856.319, 50010.74
3858.248, 49990.61
3860.176, 49946.25
3862.104, 49928.16
3864.033, 49997.47
3865.961, 50089.77
3867.890, 50201.16
3869.818, 50184.89
3871.747, 50126.66
3873.675, 50282.49
3875.604, 50362.92
3877.532, 50197.77
3879.461, 50127.59
3881.389, 50176.50
3883.318, 50254.69
3885.246, 50314.70
3887.175, 50253.46
3889.103, 50228.84
3891.031, 50279.46
3892.960, 50338.57
3894.888, 50381.29
3896.817, 50289.37
3898.745, 50251.13
3900.674, 50363.46
3902.602, 50447.72
3904.531, 50491.47
3906.459, 50538.23
3908.388, 50584.74
3910.316, 50618.42
3912.245, 50644.93
3914.173, 50643.92
3916.102, 50578.93
3918.030, 50527.04
3919.958, 50555.80
3921.887, 50534.54
3923.815, 50442.32
3925.744, 50484.09
3927.672, 50576.78
3929.601, 50611.86
3931.529, 50635.05
3933.458, 50626.50
3935.386, 50590.90
3937.315, 50612.32
3939.243, 50718.61
3941.172, 50794.42
3943.100, 50690.20
3945.029, 50617.32
3946.957, 50712.09
3948.885, 50765.13
3950.814, 50767.01
3952.742, 50785.59
3954.671, 50793.13
3956.599, 50731.00
3958.528, 50718.21
3960.456, 50748.46
3962.385, 50618.56
3964.313, 50529.78
3966.242, 50669.92
3968.170, 50723.62
3970.099, 50716.63
3972.027, 50764.11
3973.956, 50740.69
3975.884, 50731.12
3977.813, 50846.71
3979.741, 50959.96
3981.669, 50917.25
3983.598, 50883.89
3985.526, 50818.09
3987.455, 50805.24
3989.383, 50920.43
3991.312, 50906.77
3993.240, 50850.80
3995.169, 50844.44
3997.097, 50821.10
3999.026, 50825.19
4000.954, 50891.72
4002.883, 50942.58
4004.811, 50993.03
4006.740, 51067.73
4008.668, 51096.59
4010.596, 50968.07
4012.525, 50842.95
4014.453, 50916.98
4016.382, 50985.09
4018.310, 50997.89
4020.239, 51028.16
4022.167, 51060.00
4024.096, 51063.73
4026.024, 51029.01
4027.953, 51007.79
4029.881, 51047.31
4031.810, 51098.58
4033.738, 51016.16
4035.667, 50924.90
4037.595, 50912.91
4039.523, 50957.36
4041.452, 51042.98
4043.380, 51103.72
4045.309, 51139.16
4047.237, 51133.91
4049.166, 51107.62
4051.094, 51062.52
4053.023, 51075.68
4054.951, 51097.77
4056.880, 51056.47
4058.808, 51036.46
4060.737, 51052.99
4062.665, 51076.06
4064.594, 51100.84
4066.522, 51108.26
4068.450, 51121.43
4070.379, 51164.10
4072.307, 51059.60
4074.236, 50869.21
4076.164, 50962.90
4078.093, 51106.91
4080.021, 51078.73
4081.950, 51016.30
4083.878, 51017.17
4085.807, 50995.56
4087.735, 50996.87
4089.664, 51167.93
4091.592, 51232.75
4093.521, 51166.00
4095.449, 51051.99
4097.377, 50971.98
4099.306, 51065.11
4101.234, 51143.65
4103.163, 51120.04
4105.091, 51142.58
4107.020, 51196.98
4108.948, 51228.54
4110.877, 51218.40
4112.805, 51119.00
4114.734, 50955.67
4116.662, 50831.36
4118.591, 50989.09
4120.519, 51134.95
4122.448, 51049.68
4124.376, 51082.25
4126.305, 51177.86
4128.233, 51054.87
4130.162, 51003.88
4132.090, 51130.07
4134.019, 51150.86
4135.947, 51155.03
4137.875, 51214.23
4139.804, 51225.87
4141.732, 51166.36
4143.661, 51144.22
4145.589, 51151.91
4147.518, 51175.52
4149.446, 51140.76
4151.375, 51029.39
4153.303, 51022.57
4155.231, 51006.18
4157.160, 50961.37
4159.088, 51008.83
4161.017, 51100.15
4162.945, 51172.87
4164.874, 51260.32
4166.802, 51304.30
4168.731, 51302.04
4170.659, 51300.72
4172.588, 51237.75
4174.516, 51168.84
4176.445, 51099.59
4178.373, 51057.61
4180.302, 51222.25
4182.230, 51273.61
4184.159, 51113.20
4186.087, 51107.75
4188.016, 51127.97
4189.944, 50947.57
4191.873, 50905.70
4193.801, 50990.02
4195.729, 51112.68
4197.658, 51172.04
4199.586, 50924.59
4201.515, 50825.90
4203.443, 50945.24
4205.372, 50916.32
4207.300, 50870.00
4209.229, 50999.61
4211.157, 50998.03
4213.085, 50858.05
4215.014, 50765.17
4216.942, 50731.93
4218.871, 50808.29
4220.799, 50876.83
4222.728, 50921.33
4224.656, 50830.53
4226.585, 50745.71
4228.513, 50776.63
4230.442, 50802.08
4232.370, 50825.12
4234.299, 50934.70
4236.227, 50981.05
4238.156, 50807.58
4240.084, 50696.35
4242.013, 50667.92
4243.941, 50759.61
4245.870, 50834.73
4247.798, 50779.01
4249.727, 50773.79
4251.655, 50777.02
4253.583, 50619.31
4255.512, 50545.64
4257.440, 50717.10
4259.369, 50710.29
4261.297, 50632.57
4263.226, 50753.59
4265.154, 50736.38
4267.083, 50441.17
4269.011, 50395.65
4270.939, 50491.37
4272.868, 50643.24
4274.796, 50678.28
4276.725, 50558.66
4278.653, 50603.38
4280.582, 50664.27
4282.510, 50599.11
4284.439, 50487.41
4286.367, 50365.00
4288.296, 50425.32
4290.224, 50437.76
4292.153, 50095.28
4294.081, 50148.76
4296.010, 50451.46
4297.938, 50403.48
4299.867, 50290.46
4301.795, 50226.54
4303.724, 50261.96
4305.652, 50301.61
4307.581, 50057.39
4309.509, 49968.89
4311.438, 50176.68
4313.366, 50335.61
4315.294, 50350.51
4317.223, 49987.88
4319.151, 49858.21
4321.080, 50017.28
4323.008, 50013.86
4324.937, 49983.63
4326.865, 50016.94
4328.793, 50017.17
4330.722, 49977.28
4332.650, 49878.19
4334.579, 49810.89
4336.507, 49815.70
4338.436, 49747.02
4340.364, 49652.04
4342.293, 49589.69
4344.221, 49608.39
4346.150, 49695.67
4348.078, 49624.95
4350.007, 49527.93
4351.935, 49537.72
4353.864, 49413.80
4355.792, 49232.23
4357.721, 49398.94
4359.649, 49524.26
4361.578, 49419.06
4363.506, 49354.34
4365.435, 49345.06
4367.363, 49441.82
4369.292, 49460.05
4371.220, 49360.74
4373.148, 49127.98
4375.077, 48965.45
4377.005, 49106.33
4378.934, 49226.30
4380.862, 49281.32
4382.791, 49209.36
4384.719, 49076.57
4386.647, 48878.11
4388.576, 48923.30
4390.504, 49058.98
4392.433, 49058.11
4394.361, 49123.96
4396.290, 49267.69
4398.218, 49175.96
4400.147, 49063.92
4402.075, 49055.98
4404.004, 49086.66
4405.932, 49113.72
4407.861, 49040.04
4409.789, 49004.48
4411.718, 49036.31
4413.646, 49054.23
4415.575, 49020.80
4417.503, 48892.59
4419.432, 48740.61
4421.360, 48613.66
4423.289, 48680.50
4425.217, 48701.75
4427.146, 48547.01
4429.074, 48545.95
4431.002, 48581.34
4432.931, 48505.43
4434.859, 48424.20
4436.788, 48361.13
4438.716, 48381.55
4440.645, 48414.41
4442.573, 48435.83
4444.501, 48314.15
4446.430, 48184.63
4448.358, 48273.70
4450.287, 48301.85
4452.215, 48247.19
4454.144, 48199.77
4456.072, 48206.52
4458.001, 48335.81
4459.929, 48113.22
4461.858, 47820.70
4463.786, 48028.21
4465.715, 48030.70
4467.643, 47768.63
4469.572, 47660.54
4471.500, 47608.98
4473.429, 47559.03
4475.357, 47590.12
4477.286, 47677.70
4479.214, 47830.33
4481.143, 47881.44
4483.071, 47825.98
4485.000, 47706.13
4486.928, 47678.66
4488.856, 47847.27
4490.785, 47840.35
4492.713, 47757.20
4494.642, 47766.16
4496.570, 47682.61
4498.499, 47530.97
4500.427, 47567.46
4502.355, 47658.35
4504.284, 47764.35
4506.212, 47637.69
4508.141, 47458.51
4510.069, 47394.36
4511.998, 47447.98
4513.926, 47535.20
4515.855, 47388.94
4517.783, 47321.18
4519.712, 47441.69
4521.640, 47371.65
4523.569, 47248.21
4525.497, 47161.45
4527.426, 47154.31
4529.354, 47188.25
4531.283, 47219.16
4533.211, 47148.60
4535.140, 46992.60
4537.068, 46909.79
4538.997, 46961.54
4540.925, 47201.84
4542.854, 47175.94
4544.782, 47024.48
4546.710, 46953.50
4548.639, 46873.00
4550.567, 46773.21
4552.496, 46579.66
4554.424, 46556.99
4556.353, 46766.71
4558.281, 46830.90
4560.209, 46774.33
4562.138, 46594.52
4564.066, 46541.82
4565.995, 46551.65
4567.923, 46476.75
4569.852, 46445.81
4571.780, 46465.31
4573.709, 46415.59
4575.637, 46394.66
4577.566, 46436.70
4579.494, 46363.80
4581.423, 46254.05
4583.351, 46172.73
4585.280, 46093.98
4587.208, 46068.74
4589.137, 46277.23
4591.065, 46300.83
4592.994, 46117.38
4594.922, 46073.71
4596.851, 46112.31
4598.779, 46209.33
4600.708, 46266.64
4602.636, 46236.87
4604.564, 46057.54
4606.493, 45968.07
4608.421, 45924.95
4610.350, 45763.08
4612.278, 45785.21
4614.207, 45972.25
4616.135, 46043.98
4618.063, 45890.52
4619.992, 45510.61
4621.920, 45450.16
4623.849, 45440.97
4625.777, 45232.15
4627.706, 45360.12
4629.634, 45585.46
4631.563, 45505.38
4633.491, 45475.32
4635.420, 45478.43
4637.348, 45324.49
4639.277, 45177.94
4641.205, 45083.93
4643.134, 45064.54
4645.062, 45050.76
4646.991, 44990.86
4648.919, 45081.41
4650.848, 45159.50
4652.776, 45077.55
4654.705, 44954.96
4656.633, 44842.12
4658.562, 44791.94
4660.490, 44806.13
4662.418, 44840.02
4664.347, 44754.89
4666.275, 44636.31
4668.204, 44514.41
4670.132, 44521.83
4672.061, 44534.54
4673.989, 44500.30
4675.917, 44540.63
4677.846, 44569.96
4679.774, 44512.78
4681.703, 44350.43
4683.631, 44190.72
4685.560, 44221.29
4687.488, 44138.46
4689.417, 44014.27
4691.345, 44187.79
4693.274, 44186.41
4695.202, 43966.86
4697.131, 43864.50
4699.059, 43832.10
4700.988, 43853.57
4702.916, 43946.36
4704.845, 43975.68
4706.773, 43866.73
4708.702, 43786.46
4710.630, 43757.58
4712.559, 43812.68
4714.487, 43823.61
4716.416, 43803.61
4718.344, 43795.50
4720.272, 43733.39
4722.201, 43629.97
4724.129, 43504.67
4726.058, 43413.61
4727.986, 43365.34
4729.915, 43359.72
4731.843, 43375.98
4733.771, 43392.73
4735.700, 43270.33
4737.628, 43197.54
4739.557, 43276.71
4741.485, 43362.25
4743.414, 43366.89
4745.342, 43219.84
4747.271, 43219.54
4749.199, 43212.80
4751.128, 42989.72
4753.056, 42972.32
4754.985, 43051.65
4756.913, 43075.93
4758.842, 42910.02
4760.770, 42702.97
4762.699, 42819.68
4764.627, 42861.52
4766.556, 42806.23
4768.484, 42779.98
4770.413, 42743.00
4772.341, 42688.20
4774.270, 42661.75
4776.198, 42621.57
4778.126, 42563.52
4780.055, 42547.09
4781.983, 42536.56
4783.912, 42518.22
4785.840, 42323.68
4787.769, 42159.55
4789.697, 42128.88
4791.625, 42215.61
4793.554, 42273.06
4795.482, 42195.90
4797.411, 41988.33
4799.339, 41867.60
4801.268, 42058.94
4803.196, 42003.00
4805.125, 41912.77
4807.053, 42164.69
4808.982, 42188.15
4810.910, 42075.84
4812.839, 41995.59
4814.767, 42018.66
4816.696, 42068.32
4818.624, 41996.83
4820.553, 41810.00
4822.481, 41604.25
4824.410, 41636.83
4826.338, 41602.57
4828.267, 41522.02
4830.195, 41686.75
4832.124, 41671.47
4834.052, 41473.33
4835.980, 41440.76
4837.909, 41353.99
4839.837, 41208.66
4841.766, 41318.03
4843.694, 41321.50
4845.623, 41165.56
4847.551, 41210.05
4849.479, 41220.55
4851.408, 41130.04
4853.336, 41071.53
4855.265, 41010.47
4857.193, 40937.17
4859.122, 40901.27
4861.050, 40901.77
4862.979, 40938.79
4864.907, 40968.73
4866.836, 40918.45
4868.764, 40772.78
4870.693, 40759.86
4872.621, 40777.80
4874.550, 40771.59
4876.478, 40673.46
4878.407, 40611.92
4880.335, 40641.64
4882.264, 40566.39
4884.192, 40456.23
4886.121, 40343.20
4888.049, 40390.84
4889.978, 40403.66
4891.906, 40285.52
4893.834, 40223.59
4895.763, 40170.51
4897.691, 40092.35
4899.620, 40023.74
4901.548, 40010.51
4903.477, 40076.55
4905.405, 39993.77
4907.333, 39859.07
4909.262, 39731.26
4911.190, 39652.01
4913.119, 39658.57
4915.047, 39783.08
4916.976, 39715.12
4918.904, 39666.75
4920.833, 39740.39
4922.761, 39680.14
4924.690, 39622.13
4926.618, 39648.94
4928.547, 39705.30
4930.475, 39616.11
4932.404, 39340.70
4934.332, 39434.69
4936.261, 39473.45
4938.189, 39256.37
4940.118, 39292.21
4942.046, 39296.77
4943.975, 39156.79
4945.903, 38941.40
4947.832, 38890.24
4949.760, 39049.54
4951.688, 39116.39
4953.617, 39045.10
4955.545, 38858.21
4957.474, 38820.83
4959.402, 38804.11
4961.331, 38775.02
4963.259, 38793.11
4965.188, 38699.75
4967.116, 38520.31
4969.044, 38602.44
4970.973, 38610.60
4972.901, 38526.26
4974.830, 38571.07
4976.758, 38510.73
4978.687, 38375.41
4980.615, 38329.94
4982.544, 38363.64
4984.472, 38399.21
4986.401, 38295.87
4988.329, 38081.21
4990.258, 37866.99
4992.186, 37829.18
4994.115, 37859.55
4996.043, 37892.27
4997.972, 37848.96
4999.900, 37816.04
5001.829, 37770.00
5003.757, 37675.65
5005.686, 37672.94
5007.614, 37688.80
5009.542, 37647.20
5011.471, 37670.17
5013.399, 37639.55
5015.328, 37491.57
5017.256, 37349.34
5019.185, 37283.63
5021.113, 37312.44
5023.042, 37248.35
5024.970, 37161.66
5026.898, 37081.47
5028.827, 37002.21
5030.755, 36996.63
5032.684, 37035.50
5034.612, 36928.49
5036.541, 36944.49
5038.469, 37028.30
5040.398, 36869.58
5042.326, 36792.41
5044.255, 36823.11
5046.183, 36956.36
5048.112, 36936.64
5050.040, 36818.75
5051.969, 36678.49
5053.897, 36576.75
5055.826, 36500.84
5057.754, 36432.44
5059.683, 36586.75
5061.611, 36650.95
5063.540, 36473.92
5065.468, 36482.18
5067.396, 36431.66
5069.325, 36248.05
5071.253, 36225.18
5073.182, 36194.22
5075.110, 36113.94
5077.039, 35986.98
5078.967, 35924.73
5080.896, 35923.03
5082.824, 35962.43
5084.752, 35909.22
5086.681, 35847.23
5088.609, 35904.99
5090.538, 35882.46
5092.466, 35791.75
5094.395, 35653.45
5096.323, 35604.74
5098.252, 35599.43
5100.180, 35609.08
5102.109, 35548.82
5104.037, 35430.54
5105.966, 35282.52
5107.894, 35200.79
5109.823, 35122.96
5111.751, 35054.64
5113.680, 35022.77
5115.608, 35122.84
5117.537, 35204.70
5119.465, 35047.23
5121.394, 34927.71
5123.322, 34862.35
5125.250, 34845.31
5127.179, 34832.35
5129.107, 34840.88
5131.036, 34873.25
5132.964, 34770.49
5134.893, 34750.05
5136.821, 34811.19
5138.750, 34768.37
5140.678, 34612.40
5142.606, 34477.22
5144.535, 34621.38
5146.463, 34672.88
5148.392, 34604.74
5150.320, 34394.89
5152.249, 34419.02
5154.177, 34382.47
5156.106, 34173.93
5158.034, 34079.25
5159.963, 34103.83
5161.891, 34190.07
5163.820, 34133.04
5165.748, 34171.07
5167.677, 34226.63
5169.605, 34127.03
5171.534, 33959.81
5173.462, 33813.19
5175.391, 33747.65
5177.319, 33778.32
5179.248, 33805.38
5181.176, 33778.67
5183.104, 33632.15
5185.033, 33599.04
5186.961, 33653.72
5188.890, 33617.15
5190.818, 33546.39
5192.747, 33456.11
5194.675, 33335.57
5196.604, 33374.22
5198.532, 33378.54
5200.460, 33252.70
5202.389, 33368.79
5204.317, 33326.09
5206.246, 33114.07
5208.174, 33024.99
5210.103, 32960.10
5212.031, 32903.81
5213.960, 32850.64
5215.888, 32848.31
5217.817, 32804.15
5219.745, 32667.59
5221.674, 32563.18
5223.602, 32574.63
5225.531, 32654.24
5227.459, 32596.27
5229.388, 32456.10
5231.316, 32342.61
5233.245, 32421.90
5235.173, 32360.59
5237.102, 32298.46
5239.030, 32310.82
5240.958, 32235.31
5242.887, 32103.32
5244.815, 31978.24
5246.744, 32017.71
5248.672, 31988.41
5250.601, 31942.01
5252.529, 31977.84
5254.458, 31960.33
5256.386, 31892.52
5258.314, 31792.29
5260.243, 31712.86
5262.171, 31723.95
5264.100, 31756.64
5266.028, 31613.84
5267.957, 31581.84
5269.885, 31569.25
5271.814, 31483.17
5273.742, 31518.50
5275.671, 31469.66
5277.599, 31325.22
5279.528, 31309.89
5281.456, 31257.96
5283.385, 31177.75
5285.313, 31097.23
5287.242, 31079.63
5289.170, 31067.27
5291.099, 31029.50
5293.027, 30991.71
5294.956, 30863.13
5296.884, 30690.81
5298.813, 30578.10
5300.741, 30616.85
5302.669, 30652.46
5304.598, 30568.72
5306.526, 30556.19
5308.455, 30542.46
5310.383, 30512.92
5312.312, 30520.99
5314.240, 30291.85
5316.168, 30157.28
5318.097, 30411.43
5320.025, 30330.05
5321.954, 30147.67
5323.882, 30014.81
5325.811, 30132.28
5327.739, 30212.31
5329.668, 30163.49
5331.596, 29934.33
5333.525, 29790.24
5335.453, 29740.58
5337.382, 29759.23
5339.310, 29770.96
5341.239, 29785.84
5343.167, 29771.31
5345.096, 29672.34
5347.024, 29697.26
5348.953, 29569.78
5350.881, 29282.05
5352.810, 29362.61
5354.738, 29375.82
5356.667, 29292.30
5358.595, 29167.18
5360.523, 29055.55
5362.452, 29002.38
5364.380, 29010.74
5366.309, 29030.87
5368.237, 28981.56
5370.166, 28913.30
5372.094, 28895.42
5374.022, 28863.42
5375.951, 28766.67
5377.879, 28628.81
5379.808, 28558.85
5381.736, 28651.11
5383.665, 28710.04
5385.593, 28528.10
5387.522, 28394.80
5389.450, 28480.75
5391.379, 28670.11
5393.307, 28470.49
5395.236, 28441.47
5397.164, 28398.26
5399.093, 28180.57
5401.021, 28183.96
5402.950, 28124.61
5404.878, 28005.37
5406.807, 28009.58
5408.735, 27963.78
5410.664, 27959.61
5412.592, 28027.03
5414.521, 27873.73
5416.449, 27736.55
5418.377, 27684.40
5420.306, 27742.04
5422.234, 27569.76
5424.163, 27519.83
5426.091, 27639.55
5428.020, 27491.51
5429.948, 27383.53
5431.876, 27345.20
5433.805, 27368.87
5435.733, 27298.79
5437.662, 27279.46
5439.590, 27263.41
5441.519, 27062.89
5443.447, 27113.69
5445.376, 27083.20
5447.304, 26834.03
5449.233, 26697.83
5451.161, 26803.86
5453.090, 26923.74
5455.018, 26770.91
5456.947, 26565.67
5458.875, 26590.91
5460.804, 26746.38
5462.732, 26577.92
5464.661, 26385.76
5466.589, 26315.43
5468.518, 26395.84
5470.446, 26458.10
5472.375, 26340.02
5474.303, 26170.70
5476.231, 26116.37
5478.160, 26089.07
5480.088, 26122.96
5482.017, 26163.43
5483.945, 26035.50
5485.874, 26080.13
5487.802, 26061.51
5489.730, 25883.87
5491.659, 25845.98
5493.587, 25698.79
5495.516, 25542.46
5497.444, 25506.42
5499.373, 25548.02
5501.301, 25625.30
5503.230, 25661.79
5505.158, 25530.28
5507.087, 25352.74
5509.015, 25342.72
5510.944, 25454.61
5512.872, 25226.70
5514.801, 25221.72
5516.729, 25296.07
5518.658, 25291.29
5520.586, 25135.36
5522.515, 25144.15
5524.443, 25213.27
5526.372, 25172.12
5528.300, 25089.04
5530.229, 24971.09
5532.157, 24840.09
5534.085, 24723.01
5536.014, 24668.84
5537.942, 24675.44
5539.871, 24684.72
5541.799, 24527.69
5543.728, 24523.97
5545.656, 24603.66
5547.584, 24659.05
5549.513, 24458.20
5551.441, 24418.10
5553.370, 24426.67
5555.298, 24337.81
5557.227, 24265.02
5559.155, 24274.46
5561.084, 24252.89
5563.012, 24039.21
5564.941, 24041.16
5566.869, 24063.66
5568.798, 24051.89
5570.726, 24023.46
5572.655, 23885.17
5574.583, 23773.98
5576.512, 23747.59
5578.440, 23831.23
5580.369, 23834.72
5582.297, 23755.11
5584.226, 23634.47
5586.154, 23614.92
5588.083, 23563.95
5590.011, 23453.74
5591.939, 23310.03
5593.868, 23346.61
5595.796, 23266.16
5597.725, 23191.27
5599.653, 23222.24
5601.582, 23089.85
5603.510, 23052.89
5605.438, 23077.65
5607.367, 23077.71
5609.295, 22884.41
5611.224, 22866.11
5613.152, 22911.36
5615.081, 22795.37
5617.009, 22765.86
5618.938, 22604.68
5620.866, 22472.43
5622.795, 22654.88
5624.723, 22635.28
5626.652, 22532.47
5628.580, 22415.23
5630.509, 22321.14
5632.437, 22235.04
5634.366, 22255.29
5636.294, 22304.17
5638.223, 22214.17
5640.151, 22250.06
5642.080, 22172.53
5644.008, 22008.89
5645.937, 21969.48
5647.865, 22014.17
5649.793, 22021.54
5651.722, 21963.24
5653.650, 21860.30
5655.579, 21848.65
5657.507, 21809.67
5659.436, 21751.99
5661.364, 21775.94
5663.292, 21790.47
5665.221, 21761.57
5667.149, 21683.47
5669.078, 21558.03
5671.006, 21520.56
5672.935, 21467.49
5674.863, 21397.09
5676.792, 21383.75
5678.720, 21465.64
5680.649, 21383.50
5682.577, 21189.76
5684.506, 21127.94
5686.434, 21188.32
5688.363, 21217.53
5690.291, 21150.02
5692.220, 20965.77
5694.148, 21023.02
5696.077, 20987.70
5698.005, 20871.24
5699.934, 20819.23
5701.862, 20697.09
5703.791, 20610.98
5705.719, 20601.83
5707.647, 20669.36
5709.576, 20554.48
5711.504, 20452.65
5713.433, 20428.35
5715.361, 20481.48
5717.290, 20306.86
5719.218, 20412.99
5721.146, 20489.51
5723.075, 20237.18
5725.003, 20199.28
5726.932, 20234.59
5728.860, 20209.81
5730.789, 20081.67
5732.717, 20014.90
5734.646, 19947.69
5736.574, 19932.34
5738.503, 19950.04
5740.431, 19823.21
5742.360, 19868.37
5744.288, 19828.15
5746.217, 19669.56
5748.145, 19622.47
5750.074, 19602.25
5752.002, 19644.73
5753.931, 19679.72
5755.859, 19562.62
5757.788, 19514.96
5759.716, 19545.70
5761.645, 19553.95
5763.573, 19417.55
5765.501, 19459.21
5767.430, 19348.78
5769.358, 19255.58
5771.287, 19340.08
5773.215, 19232.85
5775.144, 19289.93
5777.072, 19281.05
5779.000, 19101.59
5780.929, 18974.24
5782.857, 19042.97
5784.786, 18975.40
5786.714, 18817.39
5788.643, 18928.42
5790.571, 18902.53
5792.500, 18854.62
5794.428, 18778.53
5796.357, 18628.24
5798.285, 18696.52
5800.214, 18645.29
5802.142, 18528.51
5804.071, 18450.05
5805.999, 18421.10
5807.928, 18457.32
5809.856, 18481.25
5811.785, 18434.65
5813.713, 18221.74
5815.642, 18267.25
5817.570, 18259.53
5819.499, 18197.22
5821.427, 18244.57
5823.355, 18172.33
5825.284, 17970.68
5827.212, 17889.39
5829.141, 18050.96
5831.069, 17975.83
5832.998, 17885.25
5834.926, 17790.70
5836.854, 17736.67
5838.783, 17840.48
5840.711, 17775.77
5842.640, 17735.96
5844.568, 17735.40
5846.497, 17706.34
5848.425, 17658.64
5850.354, 17581.62
5852.282, 17519.65
5854.211, 17498.94
5856.139, 17522.21
5858.068, 17403.42
5859.996, 17337.53
5861.925, 17327.71
5863.853, 17225.66
5865.782, 17285.37
5867.710, 17217.29
5869.639, 17078.92
5871.567, 16987.90
5873.496, 17016.06
5875.424, 17070.26
5877.353, 17066.06
5879.281, 16988.13
5881.209, 16862.34
5883.138, 16881.40
5885.066, 16940.97
5886.995, 16930.85
5888.923, 16810.71
5890.852, 16760.03
5892.780, 16594.36
5894.708, 16564.62
5896.637, 16645.04
5898.565, 16588.50
5900.494, 16603.14
5902.422, 16564.96
5904.351, 16484.34
5906.279, 16414.95
5908.208, 16427.66
5910.136, 16450.52
5912.065, 16415.10
5913.993, 16329.96
5915.922, 16250.90
5917.850, 16326.01
5919.779, 16266.98
5921.707, 16169.67
5923.636, 16125.57
5925.564, 16087.16
5927.493, 16010.62
5929.421, 16011.61
5931.350, 16028.71
5933.278, 15961.40
5935.207, 15977.24
5937.135, 15952.61
5939.063, 15925.11
5940.992, 15892.89
5942.920, 15765.61
5944.849, 15768.12
5946.777, 15733.08
5948.706, 15686.13
5950.634, 15671.95
5952.563, 15647.92
5954.491, 15570.26
5956.419, 15492.56
5958.348, 15454.01
5960.276, 15470.46
5962.205, 15388.37
5964.133, 15350.23
5966.062, 15271.53
5967.990, 15189.38
5969.919, 15275.17
5971.847, 15237.13
5973.776, 15311.82
5975.704, 15285.32
5977.633, 15088.75
5979.561, 15078.48
5981.490, 14971.68
5983.418, 14958.67
5985.347, 14994.09
5987.275, 14979.92
5989.204, 14953.36
5991.132, 14926.94
5993.061, 14866.68
5994.989, 14757.50
5996.917, 14633.55
5998.846, 14798.96
6000.774, 14715.74
6002.703, 14633.21
6004.631, 14651.37
6006.560, 14662.42
6008.488, 14544.24
6010.417, 14545.51
6012.345, 14514.94
6014.273, 14413.72
6016.202, 14387.53
6018.130, 14402.80
6020.059, 14387.00
6021.987, 14344.55
6023.916, 14312.10
6025.844, 14338.86
6027.773, 14249.43
6029.701, 14160.95
6031.630, 14055.41
6033.558, 13975.69
6035.487, 14140.90
6037.415, 14128.34
6039.344, 14061.14
6041.272, 13975.38
6043.201, 13898.13
6045.129, 13946.27
6047.058, 13815.15
6048.986, 13822.58
6050.915, 13836.58
6052.843, 13730.77
6054.771, 13741.78
6056.700, 13666.52
6058.628, 13626.28
6060.557, 13636.80
6062.485, 13646.69
6064.414, 13547.39
6066.342, 13544.81
6068.271, 13562.16
6070.199, 13524.79
6072.127, 13435.00
6074.056, 13427.88
6075.984, 13338.73
6077.913, 13309.67
6079.841, 13259.19
6081.770, 13162.40
6083.698, 13236.66
6085.627, 13231.58
6087.555, 13218.20
6089.484, 13210.40
6091.412, 13185.57
6093.341, 13108.97
6095.269, 12975.38
6097.198, 12973.76
6099.126, 12996.03
6101.055, 12942.57
6102.983, 12817.81
6104.912, 12778.42
6106.840, 12777.92
6108.769, 12786.94
6110.697, 12780.01
6112.625, 12742.40
6114.554, 12789.46
6116.482, 12695.37
6118.411, 12602.10
6120.339, 12584.37
6122.268, 12609.22
6124.196, 12563.99
6126.125, 12535.88
6128.053, 12535.61
6129.981, 12515.46
6131.910, 12440.87
6133.838, 12351.21
6135.767, 12282.04
6137.695, 12244.95
6139.624, 12256.17
6141.552, 12292.39
6143.481, 12274.76
6145.409, 12129.91
6147.338, 12149.06
6149.266, 12179.29
6151.195, 12151.21
6153.123, 12144.35
6155.052, 12073.03
6156.980, 12061.36
6158.909, 12057.87
6160.837, 11999.56
6162.766, 11891.00
6164.694, 11892.49
6166.623, 11907.50
6168.551, 11884.54
6170.479, 11868.58
6172.408, 11844.05
6174.336, 11698.24
6176.265, 11642.96
6178.193, 11586.17
6180.122, 11551.52
6182.050, 11535.83
6183.979, 11526.28
6185.907, 11639.38
6187.835, 11664.81
6189.764, 11524.48
6191.692, 11401.74
6193.621, 11415.16
6195.549, 11438.87
6197.478, 11370.52
6199.406, 11365.23
6201.335, 11269.81
6203.263, 11162.48
6205.192, 11251.07
6207.120, 11287.88
6209.049, 11261.29
6210.977, 11219.69
6212.906, 11232.35
6214.834, 11262.46
6216.763, 11110.38
6218.691, 11109.33
6220.620, 11074.07
6222.548, 11061.61
6224.477, 11026.53
6226.405, 10910.13
6228.333, 10927.79
6230.262, 10946.99
6232.190, 10899.02
6234.119, 10825.63
6236.047, 10780.82
6237.976, 10784.03
6239.904, 10671.10
6241.833, 10612.91
6243.761, 10595.14
6245.689, 10621.82
6247.618, 10666.18
6249.546, 10639.18
6251.475, 10653.62
6253.403, 10561.77
6255.332, 10507.67
6257.260, 10466.57
6259.189, 10393.03
6261.117, 10448.42
6263.046, 10461.53
6264.974, 10401.77
6266.903, 10333.30
6268.831, 10307.67
6270.760, 10315.14
6272.688, 10241.49
6274.617, 10178.52
6276.545, 10171.56
6278.474, 10168.69
6280.402, 10144.82
6282.331, 10116.96
6284.259, 10099.90
6286.188, 10071.61
6288.116, 10067.04
6290.044, 10004.33
6291.973, 9925.867
6293.901, 9969.270
6295.830, 9882.644
6297.758, 9968.231
6299.687, 9943.666
6301.615, 9847.881
6303.543, 9796.014
6305.472, 9825.051
6307.400, 9717.787
6309.329, 9716.060
6311.257, 9748.898
6313.186, 9759.488
6315.114, 9737.730
6317.043, 9698.347
6318.971, 9644.236
6320.900, 9537.255
6322.828, 9559.786
6324.757, 9627.847
6326.685, 9595.859
6328.614, 9445.714
6330.542, 9475.614
6332.471, 9485.892
6334.399, 9455.608
6336.328, 9414.929
6338.256, 9390.216
6340.185, 9376.342
6342.113, 9308.676
6344.042, 9262.502
6345.970, 9344.836
6347.898, 9330.923
6349.827, 9249.160
6351.755, 9233.523
6353.684, 9248.294
6355.612, 9208.566
6357.541, 9143.640
6359.469, 9123.206
6361.397, 9099.656
6363.326, 9059.802
6365.254, 9090.496
6367.183, 9014.133
6369.111, 8945.747
6371.040, 8975.137
6372.968, 9006.339
6374.897, 8959.107
6376.825, 8870.146
6378.754, 8908.514
6380.682, 8880.188
6382.611, 8850.220
6384.539, 8836.680
6386.468, 8803.063
6388.396, 8743.216
6390.325, 8726.360
6392.253, 8660.994
6394.182, 8713.545
6396.110, 8698.414
6398.039, 8675.897
6399.967, 8663.463
6401.896, 8569.832
6403.824, 8514.571
6405.752, 8603.954
6407.681, 8500.306
6409.609, 8448.450
6411.538, 8488.343
6413.466, 8484.289
6415.395, 8373.595
6417.323, 8440.357
6419.251, 8427.527
6421.180, 8390.659
6423.108, 8323.036
6425.037, 8261.152
6426.965, 8265.128
6428.894, 8298.495
6430.822, 8245.519
6432.751, 8293.589
6434.679, 8277.697
6436.608, 8167.956
6438.536, 8072.788
6440.465, 8089.633
6442.393, 8046.532
6444.322, 8020.990
6446.250, 8010.428
6448.179, 8033.248
6450.107, 7995.676
6452.036, 7925.760
6453.964, 7993.338
6455.893, 8042.757
6457.821, 7869.585
6459.750, 7917.251
6461.678, 7998.146
6463.606, 7993.853
6465.535, 7918.062
6467.463, 7803.519
6469.392, 7771.195
6471.320, 7783.398
6473.249, 7795.830
6475.177, 7742.478
6477.105, 7700.811
6479.034, 7721.646
6480.962, 7731.960
6482.891, 7676.146
6484.819, 7590.646
6486.748, 7591.136
6488.676, 7616.437
6490.605, 7617.560
6492.533, 7601.728
6494.462, 7587.084
6496.390, 7522.196
6498.319, 7582.199
6500.247, 7527.033
6502.176, 7419.878
6504.104, 7432.583
6506.033, 7490.699
6507.961, 7396.895
6509.890, 7312.315
6511.818, 7381.932
6513.747, 7355.073
6515.675, 7304.502
6517.604, 7277.563
6519.532, 7227.254
6521.460, 7171.216
6523.389, 7267.216
6525.317, 7211.428
6527.246, 7211.532
6529.174, 7232.455
6531.103, 7245.990
6533.031, 7229.069
6534.959, 7192.023
6536.888, 7172.427
6538.816, 7141.808
6540.745, 7104.234
6542.673, 7075.065
##END=



