##NAMES=Kapustinite
##RRUFFID=R060896
##IDEAL CHEMISTRY=Na_6_ZrSi_6_O_16_(OH)_2_
##LOCALITY=Palitra pegmatite, Kedykverpakhk Mountain, Lovozero Massif, Russia
##OWNER=RRUFF
##SOURCE=Michael Scott
##DESCRIPTION=Reddish brown vitreous massive fragment
##STATUS=The identification of this mineral has been confirmed only by single crystal X-ray diffraction
##URL=https://www.rruff.net/odr/rruff_sample/R060896
##DIFFRACTION SAMPLE DESCRIPTION=Powder, refined as cubic because peaks overlap too much to properly refine the monoclinic cell
##CELL PARAMETERS=a: 10.5894 b: 10.5894 c: 10.5894 alpha: 58.379 beta: 58.379 gamma: 58.379 volume: 808.5 crystal system: hexagonal
##FILETYPE=Raman RAW
##RAMAN WAVELENGTH=785

177.4209, 3890.141
179.3493, 3907.730
181.2778, 3932.736
183.2063, 3950.923
185.1348, 3969.461
187.0632, 4007.047
188.9917, 4064.534
190.9202, 4110.203
192.8486, 4138.780
194.7771, 4161.963
196.7056, 4175.116
198.6340, 4192.757
200.5625, 4235.096
202.4910, 4294.712
204.4194, 4328.572
206.3479, 4333.750
208.2764, 4338.053
210.2048, 4340.381
212.1333, 4354.309
214.0618, 4389.045
215.9902, 4436.175
217.9187, 4485.190
219.8472, 4536.072
221.7756, 4589.858
223.7041, 4651.430
225.6326, 4699.529
227.5610, 4714.870
229.4895, 4727.623
231.4180, 4751.382
233.3464, 4784.698
235.2749, 4825.699
237.2034, 4873.752
239.1318, 4926.913
241.0603, 4991.922
242.9888, 5045.989
244.9172, 5075.917
246.8457, 5099.575
248.7742, 5126.826
250.7026, 5159.147
252.6311, 5200.361
254.5596, 5250.383
256.4880, 5306.442
258.4165, 5375.792
260.3449, 5436.678
262.2734, 5474.634
264.2019, 5508.187
266.1303, 5561.669
268.0588, 5624.702
269.9873, 5654.462
271.9157, 5646.389
273.8442, 5661.128
275.7727, 5731.133
277.7011, 5793.854
279.6296, 5821.918
281.5581, 5841.565
283.4865, 5880.684
285.4150, 5931.919
287.3435, 5970.161
289.2719, 5994.135
291.2004, 6017.404
293.1289, 6043.733
295.0573, 6067.754
296.9858, 6080.506
298.9143, 6097.017
300.8427, 6131.366
302.7712, 6180.387
304.6997, 6235.842
306.6281, 6298.178
308.5566, 6356.032
310.4851, 6403.415
312.4135, 6453.363
314.3420, 6511.066
316.2705, 6570.455
318.1989, 6616.083
320.1274, 6664.878
322.0559, 6755.704
323.9843, 6886.409
325.9128, 7006.172
327.8413, 7105.876
329.7697, 7199.458
331.6982, 7289.756
333.6267, 7374.279
335.5551, 7447.721
337.4836, 7516.668
339.4121, 7593.235
341.3405, 7674.889
343.2690, 7747.258
345.1975, 7805.821
347.1259, 7869.362
349.0544, 7939.290
350.9829, 8017.551
352.9113, 8117.526
354.8398, 8215.474
356.7683, 8282.380
358.6967, 8330.196
360.6252, 8387.355
362.5537, 8455.829
364.4821, 8509.232
366.4106, 8525.807
368.3391, 8556.147
370.2675, 8617.405
372.1960, 8683.369
374.1245, 8753.353
376.0529, 8810.049
377.9814, 8828.778
379.9099, 8815.400
381.8383, 8794.809
383.7668, 8764.608
385.6953, 8740.372
387.6237, 8714.393
389.5522, 8707.631
391.4807, 8744.362
393.4091, 8783.723
395.3376, 8799.137
397.2661, 8795.101
399.1945, 8776.134
401.1230, 8742.474
403.0515, 8701.213
404.9799, 8645.127
406.9084, 8596.567
408.8369, 8554.258
410.7654, 8521.854
412.6938, 8506.842
414.6223, 8496.562
416.5508, 8489.878
418.4792, 8477.444
420.4077, 8438.541
422.3362, 8373.397
424.2646, 8316.831
426.1931, 8273.081
428.1216, 8232.156
430.0500, 8194.482
431.9785, 8157.769
433.9070, 8120.505
435.8354, 8084.683
437.7639, 8056.443
439.6924, 8028.212
441.6208, 7987.904
443.5493, 7935.941
445.4778, 7881.354
447.4062, 7819.319
449.3347, 7766.321
451.2631, 7729.669
453.1916, 7689.892
455.1201, 7628.717
457.0485, 7578.427
458.9770, 7576.125
460.9055, 7581.662
462.8339, 7549.622
464.7624, 7485.664
466.6909, 7417.577
468.6193, 7344.803
470.5478, 7272.678
472.4763, 7196.359
474.4047, 7132.276
476.3332, 7086.483
478.2617, 7047.926
480.1901, 7013.071
482.1186, 6981.927
484.0471, 6954.566
485.9755, 6929.498
487.9040, 6906.849
489.8325, 6885.844
491.7609, 6853.238
493.6894, 6806.813
495.6179, 6753.015
497.5463, 6681.354
499.4748, 6628.093
501.4033, 6610.709
503.3317, 6601.480
505.2602, 6590.844
507.1887, 6576.949
509.1171, 6553.816
511.0456, 6527.423
512.9741, 6510.518
514.9025, 6502.728
516.8310, 6503.044
518.7595, 6516.060
520.6879, 6515.991
522.6164, 6494.733
524.5449, 6479.502
526.4733, 6476.067
528.4018, 6483.289
530.3303, 6512.954
532.2587, 6541.147
534.1872, 6538.585
536.1157, 6528.591
538.0441, 6557.542
539.9726, 6619.783
541.9011, 6670.569
543.8295, 6709.380
545.7580, 6736.675
547.6865, 6752.810
549.6149, 6756.030
551.5434, 6749.867
553.4719, 6721.888
555.4003, 6650.019
557.3288, 6576.422
559.2573, 6520.715
561.1857, 6479.855
563.1142, 6459.287
565.0427, 6448.533
566.9711, 6416.686
568.8996, 6364.676
570.8281, 6320.625
572.7565, 6284.292
574.6850, 6258.642
576.6135, 6248.002
578.5419, 6231.485
580.4704, 6195.333
582.3989, 6169.357
584.3273, 6172.518
586.2558, 6182.144
588.1843, 6191.953
590.1127, 6195.747
592.0412, 6181.386
593.9697, 6156.940
595.8981, 6140.958
597.8266, 6133.243
599.7551, 6132.124
601.6835, 6137.694
603.6120, 6150.208
605.5405, 6175.259
607.4689, 6177.661
609.3974, 6140.503
611.3259, 6102.855
613.2543, 6076.256
615.1828, 6055.034
617.1113, 6035.910
619.0397, 6021.843
620.9682, 6019.881
622.8967, 6020.883
624.8251, 6008.353
626.7536, 5988.020
628.6821, 5979.578
630.6105, 5980.885
632.5390, 5979.577
634.4675, 5975.169
636.3959, 5966.915
638.3244, 5955.679
640.2529, 5933.776
642.1813, 5884.590
644.1098, 5855.844
646.0383, 5877.734
647.9667, 5899.208
649.8952, 5899.560
651.8237, 5893.010
653.7521, 5894.414
655.6806, 5891.166
657.6091, 5855.883
659.5375, 5809.358
661.4660, 5802.076
663.3945, 5821.027
665.3229, 5821.880
667.2514, 5805.440
669.1799, 5795.118
671.1083, 5793.371
673.0368, 5791.542
674.9653, 5786.357
676.8937, 5788.782
678.8222, 5808.797
680.7507, 5824.470
682.6791, 5833.069
684.6076, 5833.548
686.5361, 5820.659
688.4645, 5804.719
690.3930, 5789.565
692.3215, 5777.887
694.2499, 5771.227
696.1784, 5771.063
698.1069, 5786.139
700.0353, 5807.405
701.9638, 5811.888
703.8923, 5802.450
705.8207, 5793.986
707.7492, 5787.046
709.6777, 5787.542
711.6061, 5799.128
713.5346, 5800.412
715.4631, 5779.909
717.3915, 5769.146
719.3200, 5773.456
721.2485, 5784.182
723.1769, 5813.593
725.1054, 5829.014
727.0339, 5813.788
728.9623, 5788.134
730.8908, 5745.394
732.8193, 5717.358
734.7477, 5744.653
736.6762, 5787.737
738.6047, 5805.270
740.5331, 5806.261
742.4616, 5797.305
744.3901, 5784.417
746.3185, 5786.702
748.2470, 5800.370
750.1755, 5797.392
752.1039, 5776.593
754.0324, 5780.383
755.9609, 5821.319
757.8893, 5833.661
759.8178, 5794.368
761.7463, 5774.959
763.6747, 5788.546
765.6032, 5799.126
767.5317, 5798.024
769.4601, 5802.488
771.3886, 5822.564
773.3171, 5838.356
775.2455, 5852.053
777.1740, 5848.380
779.1025, 5804.780
781.0309, 5762.555
782.9594, 5752.126
784.8879, 5750.080
786.8163, 5730.886
788.7448, 5715.742
790.6733, 5737.650
792.6017, 5768.036
794.5302, 5754.877
796.4587, 5723.228
798.3871, 5735.042
800.3156, 5776.422
802.2441, 5794.395
804.1725, 5791.248
806.1010, 5787.841
808.0295, 5784.000
809.9579, 5774.223
811.8864, 5756.529
813.8149, 5742.924
815.7433, 5731.367
817.6718, 5734.795
819.6002, 5762.883
821.5287, 5772.127
823.4572, 5753.829
825.3856, 5738.728
827.3141, 5731.285
829.2426, 5727.298
831.1710, 5722.941
833.0995, 5729.952
835.0280, 5757.679
836.9564, 5781.778
838.8849, 5790.251
840.8134, 5799.203
842.7418, 5818.823
844.6703, 5835.729
846.5988, 5842.481
848.5272, 5844.911
850.4557, 5832.597
852.3842, 5833.626
854.3126, 5884.507
856.2411, 5936.429
858.1696, 5945.119
860.0980, 5937.418
862.0265, 5934.927
863.9550, 5938.797
865.8834, 5951.543
867.8119, 5971.199
869.7404, 5995.270
871.6688, 6023.556
873.5973, 6056.411
875.5258, 6092.574
877.4542, 6134.672
879.3827, 6175.652
881.3112, 6184.758
883.2396, 6173.841
885.1681, 6201.139
887.0966, 6255.185
889.0250, 6263.438
890.9535, 6233.700
892.8820, 6245.851
894.8104, 6292.736
896.7389, 6287.577
898.6674, 6234.664
900.5958, 6209.170
902.5243, 6213.358
904.4528, 6229.992
906.3812, 6257.784
908.3097, 6283.193
910.2382, 6304.894
912.1666, 6310.752
914.0951, 6298.704
916.0236, 6279.841
917.9520, 6252.676
919.8805, 6264.764
921.8090, 6329.393
923.7374, 6349.739
925.6659, 6304.481
927.5944, 6284.433
929.5228, 6309.076
931.4513, 6319.654
933.3798, 6300.677
935.3082, 6303.472
937.2367, 6343.657
939.1652, 6377.425
941.0936, 6396.163
943.0221, 6413.474
944.9506, 6430.678
946.8790, 6447.878
948.8075, 6464.776
950.7360, 6479.628
952.6644, 6487.968
954.5929, 6502.206
956.5214, 6525.455
958.4498, 6551.751
960.3783, 6579.211
962.3068, 6612.284
964.2352, 6662.915
966.1637, 6699.538
968.0922, 6709.148
970.0206, 6719.930
971.9491, 6740.025
973.8776, 6755.309
975.8060, 6748.506
977.7345, 6763.397
979.6630, 6825.770
981.5914, 6876.743
983.5199, 6895.229
985.4484, 6921.322
987.3768, 6967.136
989.3053, 7011.515
991.2338, 7053.466
993.1622, 7089.629
995.0907, 7107.876
997.0192, 7141.187
998.9476, 7205.971
1000.876, 7265.306
1002.805, 7309.717
1004.733, 7354.350
1006.661, 7393.480
1008.590, 7447.136
1010.518, 7528.305
1012.447, 7605.645
1014.375, 7678.537
1016.304, 7743.436
1018.232, 7785.424
1020.161, 7847.791
1022.089, 7942.343
1024.018, 8040.809
1025.946, 8156.174
1027.875, 8244.019
1029.803, 8284.905
1031.732, 8332.219
1033.660, 8381.441
1035.589, 8453.365
1037.517, 8558.497
1039.445, 8664.848
1041.374, 8775.713
1043.302, 8876.729
1045.231, 8961.029
1047.159, 9054.093
1049.088, 9158.229
1051.016, 9258.965
1052.945, 9354.112
1054.873, 9460.342
1056.802, 9581.250
1058.730, 9694.555
1060.659, 9800.485
1062.587, 9899.771
1064.516, 9991.979
1066.444, 10118.73
1068.372, 10278.27
1070.301, 10428.04
1072.229, 10570.19
1074.158, 10730.46
1076.086, 10903.48
1078.015, 11055.08
1079.943, 11193.26
1081.872, 11355.37
1083.800, 11530.01
1085.729, 11676.58
1087.657, 11813.35
1089.586, 11984.50
1091.514, 12176.07
1093.443, 12357.24
1095.371, 12545.75
1097.299, 12783.38
1099.228, 13030.90
1101.156, 13234.70
1103.085, 13428.58
1105.013, 13639.76
1106.942, 13867.38
1108.870, 14112.24
1110.799, 14370.78
1112.727, 14644.75
1114.656, 14923.55
1116.584, 15200.93
1118.513, 15479.02
1120.441, 15753.48
1122.370, 16037.35
1124.298, 16346.23
1126.226, 16641.02
1128.155, 16903.43
1130.083, 17177.94
1132.012, 17477.45
1133.940, 17790.95
1135.869, 18116.75
1137.797, 18455.97
1139.726, 18810.95
1141.654, 19147.89
1143.583, 19460.32
1145.511, 19793.55
1147.440, 20148.79
1149.368, 20464.46
1151.297, 20744.83
1153.225, 21082.02
1155.153, 21458.41
1157.082, 21737.96
1159.010, 21962.10
1160.939, 22297.10
1162.867, 22684.75
1164.796, 22980.17
1166.724, 23240.52
1168.653, 23570.54
1170.581, 23915.38
1172.510, 24179.35
1174.438, 24453.06
1176.367, 24856.76
1178.295, 25258.56
1180.224, 25555.32
1182.152, 25829.35
1184.080, 26115.88
1186.009, 26403.84
1187.937, 26683.59
1189.866, 26975.82
1191.794, 27304.46
1193.723, 27603.14
1195.651, 27845.34
1197.580, 28126.95
1199.508, 28471.70
1201.437, 28761.71
1203.365, 28988.53
1205.294, 29268.93
1207.222, 29600.09
1209.151, 29883.38
1211.079, 30134.04
1213.007, 30422.48
1214.936, 30740.47
1216.864, 31085.21
1218.793, 31426.89
1220.721, 31707.73
1222.650, 31979.59
1224.578, 32298.89
1226.507, 32633.78
1228.435, 32970.55
1230.364, 33297.89
1232.292, 33605.29
1234.221, 33911.06
1236.149, 34218.34
1238.078, 34535.70
1240.006, 34885.26
1241.934, 35207.48
1243.863, 35489.04
1245.791, 35765.16
1247.720, 36036.16
1249.648, 36284.21
1251.577, 36508.98
1253.505, 36741.69
1255.434, 36977.21
1257.362, 37198.15
1259.291, 37404.65
1261.219, 37601.50
1263.148, 37779.70
1265.076, 37917.20
1267.005, 38044.90
1268.933, 38167.22
1270.861, 38315.86
1272.790, 38504.49
1274.718, 38729.39
1276.647, 39017.11
1278.575, 39250.30
1280.504, 39378.83
1282.432, 39572.59
1284.361, 39853.96
1286.289, 40195.89
1288.218, 40596.61
1290.146, 40989.34
1292.075, 41393.07
1294.003, 41896.43
1295.932, 42471.68
1297.860, 43087.88
1299.788, 43721.04
1301.717, 44320.43
1303.645, 44960.69
1305.574, 45681.88
1307.502, 46468.62
1309.431, 47330.08
1311.359, 48199.77
1313.288, 49037.38
1315.216, 50026.43
1317.145, 51204.63
1319.073, 52397.84
1321.002, 53596.84
1322.930, 54795.88
1324.859, 56024.65
1326.787, 57418.87
1328.715, 58889.07
1330.644, 60293.18
1332.572, 61641.89
1334.501, 62867.59
1336.429, 64148.47
1338.358, 65755.05
1340.286, 67114.16
1342.215, 67998.63
1344.143, 68900.59
1346.072, 69927.11
1348.000, 70727.73
1349.929, 71279.73
1351.857, 71787.95
1353.786, 72250.10
1355.714, 72621.63
1357.642, 72904.59
1359.571, 73091.70
1361.499, 73207.84
1363.428, 73254.10
1365.356, 73283.77
1367.285, 73326.56
1369.213, 73382.99
1371.142, 73465.26
1373.070, 73543.40
1374.999, 73609.53
1376.927, 73735.55
1378.856, 73911.89
1380.784, 74008.35
1382.713, 74072.82
1384.641, 74307.98
1386.569, 74568.01
1388.498, 74672.45
1390.426, 74684.77
1392.355, 74625.70
1394.283, 74549.85
1396.212, 74485.58
1398.140, 74409.48
1400.069, 74328.88
1401.997, 74202.21
1403.926, 74028.03
1405.854, 73835.35
1407.783, 73627.01
1409.711, 73455.50
1411.640, 73225.41
1413.568, 72739.16
1415.496, 72232.29
1417.425, 71885.86
1419.353, 71573.66
1421.282, 71289.64
1423.210, 70924.65
1425.139, 70423.48
1427.067, 69956.85
1428.996, 69523.77
1430.924, 69031.29
1432.853, 68496.24
1434.781, 68004.04
1436.710, 67462.64
1438.638, 66716.59
1440.567, 65987.63
1442.495, 65437.39
1444.423, 64864.98
1446.352, 64214.77
1448.280, 63508.32
1450.209, 62727.89
1452.137, 62142.62
1454.066, 61690.26
1455.994, 60982.52
1457.923, 60195.85
1459.851, 59608.54
1461.780, 59093.73
1463.708, 58594.08
1465.637, 58052.64
1467.565, 57417.25
1469.494, 56857.29
1471.422, 56412.40
1473.350, 55918.80
1475.279, 55393.25
1477.207, 54968.80
1479.136, 54594.42
1481.064, 54182.53
1482.993, 53770.07
1484.921, 53365.46
1486.850, 53017.96
1488.778, 52759.04
1490.707, 52465.70
1492.635, 52111.10
1494.564, 51812.48
1496.492, 51569.87
1498.421, 51401.76
1500.349, 51262.14
1502.277, 51103.34
1504.206, 50909.34
1506.134, 50638.09
1508.063, 50425.84
1509.991, 50319.85
1511.920, 50155.17
1513.848, 49919.18
1515.777, 49775.38
1517.705, 49678.52
1519.634, 49503.40
1521.562, 49297.34
1523.491, 49093.25
1525.419, 48915.20
1527.348, 48776.66
1529.276, 48665.83
1531.204, 48582.71
1533.133, 48422.21
1535.061, 48200.35
1536.990, 48038.68
1538.918, 47888.22
1540.847, 47646.95
1542.775, 47425.79
1544.704, 47342.27
1546.632, 47204.94
1548.561, 46961.14
1550.489, 46796.84
1552.418, 46700.46
1554.346, 46467.04
1556.275, 46166.96
1558.203, 45930.02
1560.131, 45714.89
1562.060, 45478.69
1563.988, 45272.31
1565.917, 45132.77
1567.845, 44944.75
1569.774, 44707.43
1571.702, 44460.78
1573.631, 44225.29
1575.559, 44053.99
1577.488, 43885.54
1579.416, 43680.35
1581.344, 43431.12
1583.273, 43083.16
1585.201, 42806.29
1587.130, 42600.56
1589.058, 42375.27
1590.987, 42121.40
1592.915, 41805.84
1594.844, 41487.07
1596.772, 41199.23
1598.701, 40947.99
1600.629, 40762.04
1602.558, 40525.00
1604.486, 40236.60
1606.415, 39997.65
1608.343, 39781.19
1610.271, 39547.95
1612.200, 39308.38
1614.128, 39077.20
1616.057, 38816.47
1617.985, 38502.91
1619.914, 38249.76
1621.842, 38043.72
1623.771, 37802.24
1625.699, 37544.06
1627.628, 37295.66
1629.556, 37033.50
1631.485, 36744.67
1633.413, 36456.65
1635.342, 36173.30
1637.270, 35979.11
1639.198, 35839.21
1641.127, 35670.21
1643.055, 35487.86
1644.984, 35304.76
1646.912, 35093.34
1648.841, 34835.83
1650.769, 34657.32
1652.698, 34556.71
1654.626, 34495.34
1656.555, 34422.54
1658.483, 34241.47
1660.412, 34068.84
1662.340, 33949.38
1664.269, 33823.74
1666.197, 33684.88
1668.125, 33613.87
1670.054, 33551.85
1671.982, 33343.75
1673.911, 33138.78
1675.839, 33057.03
1677.768, 32941.51
1679.696, 32766.94
1681.625, 32712.50
1683.553, 32735.18
1685.482, 32670.35
1687.410, 32579.86
1689.339, 32505.71
1691.267, 32459.95
1693.196, 32452.57
1695.124, 32361.84
1697.052, 32212.10
1698.981, 32155.43
1700.909, 32121.93
1702.838, 32018.67
1704.766, 31936.04
1706.695, 31909.47
1708.623, 31872.13
1710.552, 31821.23
1712.480, 31794.32
1714.409, 31739.64
1716.337, 31548.13
1718.266, 31391.54
1720.194, 31379.53
1722.123, 31311.98
1724.051, 31195.00
1725.979, 31162.03
1727.908, 31142.52
1729.836, 31021.74
1731.765, 30908.87
1733.693, 30850.60
1735.622, 30816.19
1737.550, 30796.89
1739.479, 30725.87
1741.407, 30626.58
1743.336, 30528.93
1745.264, 30424.84
1747.193, 30317.41
1749.121, 30184.67
1751.050, 30033.30
1752.978, 29926.76
1754.906, 29848.94
1756.835, 29791.38
1758.763, 29722.91
1760.692, 29628.11
1762.620, 29528.63
1764.549, 29426.59
1766.477, 29319.52
1768.406, 29227.26
1770.334, 29190.07
1772.263, 29104.91
1774.191, 28928.66
1776.120, 28775.88
1778.048, 28654.20
1779.977, 28604.12
1781.905, 28550.31
1783.833, 28433.22
1785.762, 28335.33
1787.690, 28277.11
1789.619, 28166.91
1791.547, 28018.95
1793.476, 27805.53
1795.404, 27695.13
1797.333, 27809.34
1799.261, 27755.96
1801.190, 27500.94
1803.118, 27365.05
1805.047, 27281.25
1806.975, 27157.35
1808.904, 27066.74
1810.832, 27038.22
1812.760, 26957.94
1814.689, 26829.38
1816.617, 26668.14
1818.546, 26531.51
1820.474, 26478.89
1822.403, 26417.37
1824.331, 26330.97
1826.260, 26239.60
1828.188, 26154.89
1830.117, 26123.06
1832.045, 26055.96
1833.974, 25914.17
1835.902, 25785.24
1837.831, 25679.32
1839.759, 25595.13
1841.688, 25528.56
1843.616, 25486.85
1845.544, 25435.80
1847.473, 25368.84
1849.401, 25226.54
1851.330, 25074.06
1853.258, 25056.67
1855.187, 25011.04
1857.115, 24843.38
1859.044, 24731.79
1860.972, 24670.45
1862.901, 24593.52
1864.829, 24535.05
1866.758, 24582.16
1868.686, 24477.99
1870.615, 24198.26
1872.543, 24084.35
1874.471, 24034.24
1876.400, 23911.94
1878.328, 23788.68
1880.257, 23703.06
1882.185, 23565.99
1884.114, 23409.93
1886.042, 23337.55
1887.971, 23256.38
1889.899, 23104.57
1891.828, 22956.91
1893.756, 22816.14
1895.685, 22679.61
1897.613, 22538.19
1899.542, 22401.42
1901.470, 22195.90
1903.398, 21910.09
1905.327, 21722.80
1907.255, 21569.71
1909.184, 21364.49
1911.112, 21176.75
1913.041, 21033.67
1914.969, 20815.76
1916.898, 20561.38
1918.826, 20344.25
1920.755, 20157.79
1922.683, 20010.32
1924.612, 19778.46
1926.540, 19496.37
1928.469, 19284.51
1930.397, 19089.59
1932.325, 18881.77
1934.254, 18724.22
1936.182, 18592.27
1938.111, 18311.01
1940.039, 18023.65
1941.968, 17840.79
1943.896, 17628.08
1945.825, 17378.10
1947.753, 17198.10
1949.682, 17023.35
1951.610, 16787.79
1953.539, 16540.31
1955.467, 16294.69
1957.396, 16118.08
1959.324, 15956.90
1961.252, 15739.83
1963.181, 15547.56
1965.109, 15389.60
1967.038, 15212.60
1968.966, 15009.19
1970.895, 14743.14
1972.823, 14516.56
1974.752, 14344.83
1976.680, 14122.08
1978.609, 13889.62
1980.537, 13710.02
1982.466, 13538.76
1984.394, 13365.47
1986.323, 13204.85
1988.251, 13040.32
1990.179, 12845.26
1992.108, 12642.65
1994.036, 12437.63
1995.965, 12227.38
1997.893, 12026.36
1999.822, 11855.26
2001.750, 11698.04
2003.679, 11552.85
2005.607, 11390.32
2007.536, 11221.95
2009.464, 11052.78
2011.393, 10907.97
2013.321, 10796.57
2015.250, 10634.09
2017.178, 10466.77
2019.106, 10358.06
2021.035, 10223.60
2022.963, 10045.24
2024.892, 9932.175
2026.820, 9824.605
2028.749, 9661.896
2030.677, 9492.716
2032.606, 9328.667
2034.534, 9191.265
2036.463, 9075.193
2038.391, 8974.037
2040.320, 8895.820
2042.248, 8832.470
2044.177, 8729.117
2046.105, 8602.903
2048.033, 8463.978
2049.962, 8321.582
2051.890, 8182.262
2053.819, 8063.859
2055.747, 7958.879
2057.676, 7867.275
2059.604, 7728.589
2061.533, 7564.260
2063.461, 7439.347
2065.390, 7314.512
2067.318, 7175.712
2069.247, 7085.932
2071.175, 7009.805
2073.104, 6864.897
2075.032, 6759.534
2076.960, 6711.489
2078.889, 6627.846
2080.817, 6522.606
2082.746, 6410.403
2084.674, 6296.507
2086.603, 6178.891
2088.531, 6016.465
2090.460, 5891.627
2092.388, 5891.510
2094.317, 5855.732
2096.245, 5780.479
2098.174, 5689.412
2100.102, 5588.753
2102.031, 5478.085
2103.959, 5389.044
2105.887, 5317.883
2107.816, 5262.458
2109.744, 5203.209
2111.673, 5135.669
2113.601, 5032.088
2115.530, 4938.829
2117.458, 4916.971
2119.387, 4863.938
2121.315, 4783.901
2123.244, 4760.750
2125.172, 4715.460
2127.101, 4578.999
2129.029, 4502.355
2130.958, 4462.810
2132.886, 4414.097
2134.814, 4386.021
2136.743, 4387.538
2138.671, 4317.360
2140.600, 4236.515
2142.528, 4197.023
2144.457, 4159.901
2146.385, 4121.609
2148.314, 4088.778
2150.242, 4065.282
2152.171, 4055.094
2154.099, 4023.683
2156.028, 3986.136
2157.956, 3975.708
2159.885, 3919.968
2161.813, 3818.496
2163.741, 3817.979
2165.670, 3807.377
2167.598, 3715.571
2169.527, 3687.350
2171.455, 3695.412
2173.384, 3658.746
2175.312, 3623.767
2177.241, 3599.877
2179.169, 3552.762
2181.098, 3513.065
2183.026, 3508.544
2184.955, 3503.686
2186.883, 3490.000
2188.812, 3451.046
2190.740, 3414.039
2192.668, 3386.937
2194.597, 3377.486
2196.525, 3362.659
2198.454, 3313.397
2200.382, 3267.999
2202.311, 3237.091
2204.239, 3253.433
2206.168, 3240.745
2208.096, 3177.409
2210.025, 3148.324
2211.953, 3135.506
2213.882, 3119.801
2215.810, 3119.441
2217.739, 3121.729
2219.667, 3084.069
2221.595, 3049.454
2223.524, 3031.821
2225.452, 2995.035
2227.381, 2952.335
2229.309, 2905.147
2231.238, 2900.940
2233.166, 2916.834
2235.095, 2894.020
2237.023, 2856.242
2238.952, 2810.803
2240.880, 2822.436
2242.809, 2831.676
2244.737, 2789.438
2246.666, 2771.032
2248.594, 2767.020
2250.522, 2756.682
2252.451, 2743.609
2254.379, 2726.673
2256.308, 2681.504
2258.236, 2646.016
2260.165, 2639.801
2262.093, 2638.185
2264.022, 2633.126
2265.950, 2615.051
2267.879, 2605.080
2269.807, 2599.215
2271.736, 2572.310
2273.664, 2550.481
2275.593, 2540.725
2277.521, 2523.886
2279.449, 2519.508
2281.378, 2542.320
2283.306, 2530.304
2285.235, 2499.545
2287.163, 2473.097
2289.092, 2469.353
2291.020, 2477.747
2292.949, 2438.692
2294.877, 2411.313
2296.806, 2412.515
2298.734, 2402.825
2300.663, 2389.719
2302.591, 2381.538
2304.520, 2359.376
2306.448, 2328.437
2308.376, 2289.643
2310.305, 2277.085
2312.233, 2286.733
2314.162, 2296.467
2316.090, 2286.733
2318.019, 2255.232
2319.947, 2250.463
2321.876, 2250.728
2323.804, 2242.887
2325.733, 2217.856
2327.661, 2192.344
2329.590, 2187.408
2331.518, 2197.424
2333.447, 2206.755
2335.375, 2172.732
2337.303, 2141.651
2339.232, 2124.394
2341.160, 2116.598
2343.089, 2114.469
2345.017, 2120.296
2346.946, 2083.535
2348.874, 2043.827
2350.803, 2035.219
2352.731, 2024.942
2354.660, 2012.448
2356.588, 2000.493
2358.517, 1986.368
2360.445, 1975.235
2362.374, 1991.276
2364.302, 1993.714
2366.230, 1975.665
2368.159, 1971.539
2370.087, 1964.639
2372.016, 1948.452
2373.944, 1940.328
2375.873, 1924.127
2377.801, 1888.108
2379.730, 1887.366
2381.658, 1895.947
2383.587, 1879.747
2385.515, 1871.474
2387.444, 1865.756
2389.372, 1837.703
2391.301, 1825.610
2393.229, 1827.257
2395.157, 1810.789
2397.086, 1806.727
2399.014, 1818.462
2400.943, 1823.412
2402.871, 1816.413
2404.800, 1797.338
2406.728, 1766.208
2408.657, 1743.344
2410.585, 1742.333
2412.514, 1720.437
2414.442, 1703.725
2416.371, 1725.301
2418.299, 1749.865
2420.228, 1757.338
2422.156, 1709.130
2424.084, 1687.846
2426.013, 1684.927
2427.941, 1666.304
2429.870, 1664.410
2431.798, 1671.551
2433.727, 1649.171
2435.655, 1621.902
2437.584, 1599.738
2439.512, 1613.640
2441.441, 1621.214
2443.369, 1611.198
2445.298, 1626.968
2447.226, 1629.415
2449.155, 1601.344
2451.083, 1603.858
2453.011, 1602.255
2454.940, 1576.604
2456.868, 1554.267
2458.797, 1559.336
2460.725, 1609.117
2462.654, 1598.200
2464.582, 1569.164
2466.511, 1560.577
2468.439, 1563.249
2470.368, 1561.250
2472.296, 1537.528
2474.225, 1541.712
2476.153, 1543.327
2478.082, 1487.684
2480.010, 1485.964
2481.938, 1512.813
2483.867, 1510.400
2485.795, 1501.162
2487.724, 1488.819
2489.652, 1478.107
2491.581, 1452.079
2493.509, 1421.558
2495.438, 1419.490
2497.366, 1410.137
2499.295, 1390.376
2501.223, 1365.581
2503.152, 1343.276
2505.080, 1328.442
2507.009, 1335.759
2508.937, 1331.491
2510.865, 1313.357
2512.794, 1289.809
2514.722, 1279.109
2516.651, 1277.860
2518.579, 1260.688
2520.508, 1248.517
2522.436, 1244.764
2524.365, 1247.984
2526.293, 1245.549
2528.222, 1236.411
2530.150, 1232.125
2532.079, 1210.741
2534.007, 1174.514
2535.936, 1153.721
2537.864, 1158.661
2539.792, 1183.322
2541.721, 1194.401
2543.649, 1180.685
2545.578, 1148.832
2547.506, 1145.061
2549.435, 1133.120
2551.363, 1112.668
2553.292, 1126.818
2555.220, 1123.419
2557.149, 1101.687
2559.077, 1106.587
2561.006, 1106.001
2562.934, 1096.583
2564.863, 1089.050
2566.791, 1081.635
2568.719, 1073.971
2570.648, 1062.649
2572.576, 1066.255
2574.505, 1076.913
2576.433, 1069.765
2578.362, 1044.376
2580.290, 1016.418
2582.219, 1019.831
2584.147, 1036.185
2586.076, 1045.236
2588.004, 1002.363
2589.933, 992.6783
2591.861, 1001.728
2593.790, 994.3977
2595.718, 994.6536
2597.646, 991.8062
2599.575, 963.2921
2601.503, 951.7483
2603.432, 953.7386
2605.360, 972.2261
2607.289, 956.9718
2609.217, 936.3536
2611.146, 936.9776
2613.074, 932.7443
2615.003, 929.0187
2616.931, 930.2111
2618.860, 928.2668
2620.788, 916.1757
2622.717, 890.8926
2624.645, 893.2952
2626.573, 896.4188
2628.502, 891.4773
2630.430, 894.3892
2632.359, 889.3243
2634.287, 875.9136
2636.216, 873.0815
2638.144, 861.9178
2640.073, 848.2965
2642.001, 860.6717
2643.930, 868.8354
2645.858, 864.6268
2647.787, 838.2367
2649.715, 829.5775
2651.644, 835.3463
2653.572, 849.2160
2655.500, 838.3504
2657.429, 821.5260
2659.357, 814.4912
2661.286, 822.5168
2663.214, 820.9442
2665.143, 801.3840
2667.071, 805.9424
2669.000, 799.9025
2670.928, 777.7435
2672.857, 773.2437
2674.785, 782.6476
2676.714, 794.9789
2678.642, 784.5848
2680.571, 774.7081
2682.499, 766.0768
2684.427, 748.9734
2686.356, 748.6816
2688.284, 756.0380
2690.213, 760.0852
2692.141, 753.8176
2694.070, 743.2250
2695.998, 731.1982
2697.927, 748.1089
2699.855, 744.2834
2701.784, 706.7037
2703.712, 698.4844
2705.641, 703.1938
2707.569, 711.5113
2709.498, 709.1591
2711.426, 712.2117
2713.354, 710.4706
2715.283, 683.7657
2717.211, 679.9709
2719.140, 692.9626
2721.068, 713.4487
2722.997, 691.1392
2724.925, 664.8357
2726.854, 655.1414
2728.782, 663.3098
2730.711, 669.6100
2732.639, 668.5981
2734.568, 660.1401
2736.496, 647.9084
2738.425, 638.3704
2740.353, 641.4588
2742.281, 630.3171
2744.210, 620.2516
2746.138, 622.0472
2748.067, 611.1661
2749.995, 608.7756
2751.924, 618.2907
2753.852, 621.2099
2755.781, 615.7112
2757.709, 605.3710
2759.638, 594.5777
2761.566, 597.4808
2763.495, 603.2917
2765.423, 600.0757
2767.352, 594.4295
2769.280, 591.2311
2771.208, 590.3431
2773.137, 563.7805
2775.065, 551.6400
2776.994, 559.0082
2778.922, 582.7913
2780.851, 588.9208
2782.779, 580.8412
2784.708, 565.3413
2786.636, 551.8356
2788.565, 540.4064
2790.493, 532.3972
2792.422, 549.7097
2794.350, 540.7703
2796.279, 517.2870
2798.207, 526.0283
2800.135, 542.3862
2802.064, 540.8687
2803.992, 508.0994
2805.921, 527.5668
2807.849, 535.3990
2809.778, 513.3497
2811.706, 503.1049
2813.635, 496.5613
2815.563, 493.1476
2817.492, 495.3561
2819.420, 481.7343
2821.349, 475.7246
2823.277, 488.2052
2825.206, 501.5915
2827.134, 491.3195
2829.063, 468.1875
2830.991, 473.1089
2832.919, 476.2680
2834.848, 472.7641
2836.776, 461.0911
2838.705, 475.2850
2840.633, 486.8949
2842.562, 485.1795
2844.490, 464.6893
2846.419, 456.3570
2848.347, 456.7345
2850.276, 457.0988
2852.204, 461.2424
2854.133, 452.3919
2856.061, 430.7216
2857.990, 442.7875
2859.918, 448.6097
2861.846, 443.9783
2863.775, 432.7463
2865.703, 426.1338
2867.632, 424.6866
2869.560, 428.2307
2871.489, 441.7149
2873.417, 431.9447
2875.346, 414.2150
2877.274, 416.3545
2879.203, 414.0135
2881.131, 416.0719
2883.060, 424.6980
2884.988, 421.2272
2886.917, 406.4280
2888.845, 393.6595
2890.773, 400.0116
2892.702, 406.6826
2894.630, 406.8146
2896.559, 401.5123
2898.487, 405.3444
2900.416, 400.7203
2902.344, 398.3066
2904.273, 414.4626
2906.201, 398.0137
2908.130, 394.9983
2910.058, 410.8494
2911.987, 406.8452
2913.915, 402.5103
2915.844, 401.2363
2917.772, 403.8711
2919.700, 387.9844
2921.629, 389.3465
2923.557, 402.4196
2925.486, 388.5291
2927.414, 390.4323
2929.343, 398.4698
2931.271, 403.1151
2933.200, 394.7629
2935.128, 391.4732
2937.057, 393.0951
2938.985, 394.3618
2940.914, 396.6913
2942.842, 396.2988
2944.771, 394.0097
2946.699, 399.4919
2948.627, 412.7795
2950.556, 410.1234
2952.484, 378.9294
2954.413, 385.4026
2956.341, 394.8887
2958.270, 396.5062
2960.198, 389.2469
2962.127, 397.6581
2964.055, 400.8647
2965.984, 394.8085
2967.912, 407.2712
2969.841, 410.3136
2971.769, 412.3704
2973.698, 422.2108
2975.626, 417.9691
2977.554, 408.3702
2979.483, 402.3870
2981.411, 412.5005
2983.340, 409.4707
2985.268, 407.4559
2987.197, 410.8613
2989.125, 414.7559
2991.054, 409.3946
2992.982, 410.4766
2994.911, 428.3772
2996.839, 440.4711
2998.768, 437.8905
3000.696, 432.1951
3002.625, 437.3261
3004.553, 453.2426
3006.481, 461.8089
3008.410, 460.6491
3010.338, 455.4957
3012.267, 460.6659
3014.195, 473.0058
3016.124, 484.2681
3018.052, 470.9898
3019.981, 482.0830
3021.909, 496.7893
3023.838, 500.0345
3025.766, 509.1838
3027.695, 509.8800
3029.623, 510.4784
3031.552, 518.5027
3033.480, 508.4463
3035.408, 510.6380
3037.337, 522.1277
3039.265, 528.9880
3041.194, 547.9601
3043.122, 549.4210
3045.051, 541.4388
3046.979, 557.4717
3048.907, 577.3410
3050.836, 587.5646
3052.764, 587.8468
3054.693, 589.8198
3056.621, 585.8627
3058.550, 586.7516
3060.478, 594.1743
3062.407, 589.3843
3064.335, 599.1466
3066.264, 616.3088
3068.192, 631.8700
3070.121, 634.2753
3072.049, 635.6519
3073.978, 639.2316
3075.906, 646.2043
3077.834, 660.0263
3079.763, 668.0950
3081.691, 671.5125
3083.620, 674.7807
3085.548, 704.1639
3087.477, 700.4301
3089.405, 693.2582
3091.334, 712.5345
3093.262, 706.9655
3095.191, 721.4756
3097.119, 736.5635
3099.048, 728.6223
3100.976, 735.4531
3102.905, 734.4022
3104.833, 733.4321
3106.761, 744.0914
3108.690, 744.7969
3110.618, 763.2286
3112.547, 777.8867
3114.475, 764.8771
3116.404, 802.1368
3118.332, 799.0227
3120.261, 775.2335
3122.189, 771.4565
3124.118, 803.0718
3126.046, 815.3940
3127.975, 815.9325
3129.903, 822.5247
3131.832, 808.4903
3133.760, 824.7880
3135.688, 846.3986
3137.617, 846.6326
3139.545, 878.5632
3141.474, 894.2697
3143.402, 898.0351
3145.331, 898.4219
3147.259, 880.7496
3149.188, 883.1253
3151.116, 895.2424
3153.045, 903.4495
3154.973, 883.4716
3156.902, 918.8542
3158.830, 940.9464
3160.759, 930.5410
3162.687, 969.7603
3164.615, 992.8067
3166.544, 1011.312
3168.472, 1025.917
3170.401, 1016.257
3172.329, 1038.083
3174.258, 1053.545
3176.186, 1056.131
3178.115, 1056.351
3180.043, 1094.954
3181.972, 1131.870
3183.900, 1155.396
3185.829, 1165.480
3187.757, 1216.057
3189.686, 1245.710
3191.614, 1258.250
3193.542, 1269.609
3195.471, 1276.688
3197.399, 1286.209
3199.328, 1301.543
3201.256, 1328.556
3203.185, 1387.806
3205.113, 1383.218
3207.042, 1385.929
3208.970, 1416.714
3210.899, 1439.240
3212.827, 1467.585
3214.756, 1468.917
3216.684, 1472.342
3218.613, 1520.235
3220.541, 1549.622
3222.469, 1565.592
3224.398, 1562.236
3226.326, 1544.601
3228.255, 1554.740
3230.183, 1590.585
3232.112, 1604.833
3234.040, 1594.912
3235.969, 1605.917
3237.897, 1633.565
3239.826, 1656.553
3241.754, 1673.154
3243.683, 1689.623
3245.611, 1689.061
3247.540, 1691.349
3249.468, 1716.778
3251.396, 1762.693
3253.325, 1762.145
3255.253, 1782.168
3257.182, 1793.298
3259.110, 1801.259
3261.039, 1843.833
3262.967, 1850.188
3264.896, 1853.422
3266.824, 1864.590
3268.753, 1883.849
3270.681, 1905.435
3272.610, 1912.717
3274.538, 1934.626
3276.467, 1959.822
3278.395, 1938.723
3280.323, 1923.729
3282.252, 1913.698
3284.180, 1918.500
3286.109, 1941.225
3288.037, 1947.958
3289.966, 1945.422
3291.894, 1933.256
3293.823, 1919.202
3295.751, 1921.620
3297.680, 1868.034
3299.608, 1869.150
3301.537, 1877.208
3303.465, 1846.630
3305.394, 1885.800
3307.322, 1834.964
3309.250, 1802.193
3311.179, 1801.777
3313.107, 1774.318
3315.036, 1747.572
3316.964, 1736.920
3318.893, 1709.085
3320.821, 1660.878
3322.750, 1648.027
3324.678, 1606.916
3326.607, 1563.634
3328.535, 1549.290
3330.464, 1572.226
3332.392, 1564.139
3334.321, 1544.205
3336.249, 1490.483
3338.177, 1433.947
3340.106, 1430.159
3342.034, 1408.707
3343.963, 1394.172
3345.891, 1402.581
3347.820, 1417.450
3349.748, 1385.805
3351.677, 1356.754
3353.605, 1321.817
3355.534, 1301.019
3357.462, 1301.768
3359.391, 1284.790
3361.319, 1225.274
3363.248, 1184.332
3365.176, 1164.913
3367.104, 1148.243
3369.033, 1138.770
3370.961, 1095.832
3372.890, 1049.510
3374.818, 1020.529
3376.747, 1013.735
3378.675, 989.2344
3380.604, 950.9475
3382.532, 908.5201
3384.461, 884.1200
3386.389, 899.1556
3388.318, 887.7886
3390.246, 878.3415
3392.175, 854.9133
3394.103, 823.1816
3396.031, 812.1133
3397.960, 801.9428
3399.888, 771.2971
3401.817, 758.5934
3403.745, 764.8929
3405.674, 746.3325
3407.602, 733.8067
3409.531, 730.5703
3411.459, 704.4056
##END=



