##NAMES=Karibibite
##RRUFFID=R060307
##IDEAL CHEMISTRY=Fe^3+^_3_(As^3+^O_2_)_4_(As^3+^_2_O_5_)(OH)
##LOCALITY=Urucum, Municipio de Galilea, Minas Gerais, Brazil
##OWNER=RRUFF
##SOURCE=Michael Scott
##DESCRIPTION=Yellowish-brown acicular crystals lining cavities
##STATUS=The identification of this mineral is not yet confirmed
##URL=https://www.rruff.net/odr/rruff_sample/R060307
##DIFFRACTION SAMPLE DESCRIPTION=Powder, using Mo radiation
##FILETYPE=Raman Processed
##RAMAN WAVELENGTH=532

95.17188, 708.6022
97.10034, 730.0394
99.02881, 754.0247
100.9573, 792.6387
102.8857, 836.6338
104.8142, 886.1119
106.7427, 945.4521
108.6711, 1001.418
110.5996, 1056.378
112.5281, 1110.543
114.4565, 1149.820
116.3850, 1167.296
118.3135, 1178.658
120.2419, 1190.036
122.1704, 1199.827
124.0989, 1215.372
126.0273, 1236.911
127.9558, 1264.333
129.8843, 1298.254
131.8127, 1342.412
133.7412, 1390.052
135.6697, 1435.279
137.5981, 1474.752
139.5266, 1513.289
141.4551, 1554.933
143.3835, 1600.155
145.3120, 1633.840
147.2405, 1642.415
149.1689, 1638.877
151.0974, 1642.303
153.0259, 1650.220
154.9543, 1668.045
156.8828, 1700.541
158.8113, 1746.824
160.7397, 1804.144
162.6682, 1871.498
164.5967, 1948.644
166.5251, 2036.969
168.4536, 2133.977
170.3821, 2242.739
172.3105, 2370.302
174.2390, 2540.379
176.1675, 2673.828
178.0959, 2761.301
180.0244, 2797.534
181.9529, 2798.077
183.8813, 2729.481
185.8098, 2647.526
187.7383, 2588.715
189.6667, 2573.631
191.5952, 2563.901
193.5237, 2571.700
195.4521, 2589.310
197.3806, 2578.365
199.3091, 2509.829
201.2375, 2421.969
203.1660, 2341.964
205.0945, 2259.816
207.0229, 2198.720
208.9514, 2169.220
210.8799, 2168.598
212.8083, 2180.635
214.7368, 2211.727
216.6653, 2250.187
218.5938, 2286.185
220.5222, 2330.421
222.4507, 2353.110
224.3792, 2344.869
226.3076, 2298.708
228.2361, 2246.772
230.1646, 2180.726
232.0930, 2112.978
234.0215, 2055.775
235.9500, 2009.780
237.8784, 1974.883
239.8069, 1951.372
241.7354, 1942.372
243.6638, 1936.589
245.5923, 1936.744
247.5208, 1939.267
249.4492, 1940.123
251.3777, 1935.400
253.3062, 1933.009
255.2346, 1934.984
257.1631, 1941.613
259.0916, 1951.222
261.0200, 1963.174
262.9485, 1978.535
264.8770, 1999.245
266.8054, 2028.988
268.7339, 2060.714
270.6624, 2096.445
272.5908, 2135.798
274.5193, 2166.517
276.4478, 2184.696
278.3762, 2193.703
280.3047, 2195.335
282.2332, 2188.383
284.1616, 2176.335
286.0901, 2159.806
288.0186, 2139.471
289.9470, 2112.871
291.8755, 2073.906
293.8040, 2031.466
295.7324, 1995.224
297.6609, 1964.580
299.5894, 1939.385
301.5178, 1919.874
303.4463, 1905.680
305.3748, 1895.846
307.3032, 1889.631
309.2317, 1887.435
311.1602, 1890.066
313.0886, 1898.052
315.0171, 1908.341
316.9456, 1919.233
318.8740, 1930.698
320.8025, 1946.376
322.7310, 1966.913
324.6594, 1990.574
326.5879, 2016.107
328.5164, 2043.204
330.4448, 2072.335
332.3733, 2103.084
334.3018, 2135.552
336.2302, 2170.227
338.1587, 2209.039
340.0872, 2248.502
342.0156, 2290.016
343.9441, 2339.575
345.8726, 2372.725
347.8010, 2389.279
349.7295, 2388.377
351.6580, 2369.536
353.5864, 2324.347
355.5149, 2273.507
357.4434, 2223.664
359.3718, 2172.512
361.3003, 2129.513
363.2288, 2094.859
365.1572, 2067.868
367.0857, 2046.940
369.0142, 2032.638
370.9426, 2023.503
372.8711, 2018.230
374.7996, 2017.102
376.7280, 2021.371
378.6565, 2032.874
380.5850, 2048.413
382.5134, 2065.935
384.4419, 2086.105
386.3704, 2106.495
388.2988, 2128.535
390.2273, 2150.931
392.1558, 2168.327
394.0842, 2179.553
396.0127, 2187.322
397.9412, 2192.978
399.8696, 2196.547
401.7981, 2197.049
403.7266, 2191.518
405.6550, 2183.601
407.5835, 2178.753
409.5120, 2176.389
411.4404, 2177.255
413.3689, 2182.367
415.2974, 2192.065
417.2258, 2201.506
419.1543, 2209.329
421.0828, 2218.242
423.0112, 2230.846
424.9397, 2247.719
426.8682, 2265.444
428.7966, 2284.220
430.7251, 2303.417
432.6536, 2320.868
434.5820, 2337.088
436.5105, 2351.356
438.4390, 2362.945
440.3674, 2372.075
442.2959, 2379.359
444.2244, 2384.806
446.1528, 2388.090
448.0813, 2388.476
450.0098, 2385.389
451.9382, 2379.725
453.8667, 2371.743
455.7952, 2361.235
457.7236, 2347.071
459.6521, 2325.405
461.5806, 2303.736
463.5090, 2284.642
465.4375, 2268.573
467.3660, 2256.442
469.2944, 2250.392
471.2229, 2247.971
473.1514, 2246.313
475.0798, 2245.148
477.0083, 2243.972
478.9368, 2242.716
480.8652, 2240.600
482.7937, 2236.184
484.7222, 2228.164
486.6506, 2218.796
488.5791, 2209.317
490.5076, 2199.651
492.4360, 2191.867
494.3645, 2186.340
496.2930, 2183.414
498.2214, 2183.219
500.1499, 2185.767
502.0784, 2190.646
504.0068, 2197.442
505.9353, 2205.761
507.8638, 2215.201
509.7922, 2226.444
511.7207, 2237.382
513.6492, 2246.649
515.5776, 2254.403
517.5061, 2262.821
519.4346, 2273.805
521.3630, 2285.502
523.2915, 2296.224
525.2200, 2306.124
527.1484, 2315.373
529.0769, 2323.439
531.0054, 2330.771
532.9338, 2338.661
534.8623, 2350.410
536.7908, 2358.049
538.7192, 2358.954
540.6477, 2352.220
542.5762, 2340.720
544.5046, 2322.121
546.4331, 2300.494
548.3616, 2277.729
550.2900, 2252.603
552.2185, 2231.834
554.1470, 2217.042
556.0754, 2206.848
558.0039, 2198.849
559.9324, 2191.903
561.8608, 2188.123
563.7893, 2189.103
565.7178, 2193.687
567.6462, 2198.717
569.5747, 2204.301
571.5032, 2209.512
573.4316, 2214.211
575.3601, 2218.490
577.2886, 2221.344
579.2170, 2224.337
581.1455, 2225.138
583.0740, 2222.032
585.0024, 2213.527
586.9309, 2204.772
588.8594, 2196.339
590.7878, 2188.191
592.7163, 2180.021
594.6448, 2171.464
596.5732, 2162.852
598.5017, 2152.583
600.4302, 2140.874
602.3586, 2133.542
604.2871, 2133.192
606.2156, 2134.316
608.1440, 2135.310
610.0725, 2136.307
612.0010, 2136.798
613.9294, 2137.455
615.8579, 2137.602
617.7864, 2136.696
619.7148, 2133.952
621.6433, 2132.144
623.5718, 2132.001
625.5002, 2132.503
627.4287, 2131.938
629.3572, 2129.389
631.2856, 2127.210
633.2141, 2126.186
635.1426, 2125.795
637.0710, 2124.723
638.9995, 2122.323
640.9280, 2119.959
642.8564, 2118.377
644.7849, 2117.470
646.7134, 2116.047
648.6418, 2113.045
650.5703, 2110.912
652.4988, 2111.291
654.4272, 2115.641
656.3557, 2117.570
658.2842, 2114.593
660.2126, 2111.069
662.1411, 2110.872
664.0696, 2114.406
665.9980, 2117.758
667.9265, 2119.494
669.8550, 2121.004
671.7834, 2123.746
673.7119, 2128.306
675.6404, 2133.510
677.5688, 2139.349
679.4973, 2145.606
681.4258, 2151.870
683.3542, 2158.085
685.2827, 2163.711
687.2112, 2168.428
689.1396, 2172.324
691.0681, 2176.026
692.9966, 2179.324
694.9250, 2182.985
696.8535, 2187.632
698.7820, 2193.263
700.7104, 2199.118
702.6389, 2204.909
704.5674, 2211.321
706.4958, 2218.731
708.4243, 2227.317
710.3528, 2235.235
712.2813, 2241.449
714.2097, 2247.476
716.1382, 2254.747
718.0667, 2263.351
719.9951, 2270.784
721.9236, 2275.152
723.8521, 2279.309
725.7805, 2285.354
727.7090, 2294.960
729.6375, 2304.303
731.5659, 2313.021
733.4944, 2321.805
735.4229, 2331.228
737.3513, 2341.011
739.2798, 2352.205
741.2083, 2366.093
743.1367, 2381.052
745.0652, 2394.860
746.9937, 2406.322
748.9221, 2417.531
750.8506, 2427.962
752.7791, 2438.182
754.7075, 2449.383
756.6360, 2461.870
758.5645, 2475.069
760.4929, 2488.913
762.4214, 2503.645
764.3499, 2519.705
766.2783, 2537.882
768.2068, 2556.541
770.1353, 2575.250
772.0637, 2593.744
773.9922, 2612.176
775.9207, 2631.440
777.8491, 2648.000
779.7776, 2659.173
781.7061, 2665.700
783.6345, 2674.987
785.5630, 2690.657
787.4915, 2705.960
789.4199, 2717.988
791.3484, 2727.751
793.2769, 2740.294
795.2053, 2756.738
797.1338, 2774.735
799.0623, 2793.627
800.9907, 2813.330
802.9192, 2831.841
804.8477, 2850.940
806.7761, 2867.295
808.7046, 2880.809
810.6331, 2891.082
812.5615, 2894.909
814.4900, 2891.500
816.4185, 2882.218
818.3469, 2867.063
820.2754, 2845.900
822.2039, 2823.328
824.1323, 2797.258
826.0608, 2771.391
827.9893, 2746.657
829.9177, 2723.078
831.8462, 2701.913
833.7747, 2683.734
835.7031, 2667.663
837.6316, 2653.375
839.5601, 2640.929
841.4885, 2629.896
843.4170, 2621.043
845.3455, 2613.046
847.2739, 2605.359
849.2024, 2597.939
851.1309, 2591.256
853.0593, 2585.056
854.9878, 2579.510
856.9163, 2575.154
858.8447, 2571.750
860.7732, 2567.750
862.7017, 2562.548
864.6301, 2557.641
866.5586, 2553.764
868.4871, 2551.066
870.4155, 2548.748
872.3440, 2546.483
874.2725, 2544.938
876.2009, 2544.688
878.1294, 2545.274
880.0579, 2545.300
881.9863, 2543.448
883.9148, 2542.345
885.8433, 2543.599
887.7717, 2546.719
889.7002, 2547.715
891.6287, 2544.320
893.5571, 2541.629
895.4856, 2542.108
897.4141, 2544.614
899.3425, 2545.520
901.2710, 2544.199
903.1995, 2542.927
905.1279, 2542.264
907.0564, 2542.284
908.9849, 2543.189
910.9133, 2545.577
912.8418, 2547.655
914.7703, 2548.588
916.6987, 2548.776
918.6272, 2549.551
920.5557, 2551.712
922.4841, 2552.078
924.4126, 2548.568
926.3411, 2543.511
928.2695, 2539.879
930.1980, 2538.760
932.1265, 2537.384
934.0549, 2534.625
935.9834, 2531.980
937.9119, 2531.254
939.8403, 2532.841
941.7688, 2534.368
943.6973, 2536.017
945.6257, 2536.824
947.5542, 2535.473
949.4827, 2531.577
951.4111, 2529.387
953.3396, 2531.315
955.2681, 2533.749
957.1965, 2534.729
959.1250, 2533.976
961.0535, 2533.710
962.9819, 2534.741
964.9104, 2535.452
966.8389, 2534.488
968.7673, 2532.324
970.6958, 2531.199
972.6243, 2531.669
974.5527, 2532.590
976.4812, 2533.726
978.4097, 2535.029
980.3381, 2536.152
982.2666, 2537.665
984.1951, 2538.618
986.1235, 2538.331
988.0520, 2537.629
989.9805, 2538.180
991.9089, 2540.284
993.8374, 2542.299
995.7659, 2542.905
997.6943, 2543.467
999.6228, 2545.389
1001.551, 2548.740
1003.480, 2552.709
1005.408, 2558.887
1007.337, 2564.289
1009.265, 2566.357
1011.194, 2564.224
1013.122, 2563.613
1015.051, 2566.116
1016.979, 2569.121
1018.907, 2570.855
1020.836, 2572.042
1022.764, 2575.688
1024.693, 2583.862
1026.621, 2591.708
1028.550, 2596.673
1030.478, 2599.681
1032.407, 2604.187
1034.335, 2610.637
1036.264, 2617.241
1038.192, 2623.734
1040.121, 2629.935
1042.049, 2635.939
1043.978, 2642.038
1045.906, 2646.299
1047.834, 2647.181
1049.763, 2647.210
1051.691, 2648.371
1053.620, 2650.985
1055.548, 2653.693
1057.477, 2657.147
1059.405, 2660.592
1061.334, 2664.000
1063.262, 2667.513
1065.191, 2670.802
1067.119, 2672.951
1069.048, 2676.010
1070.976, 2680.251
1072.905, 2685.338
1074.833, 2690.755
1076.761, 2696.123
1078.690, 2701.540
1080.618, 2707.599
1082.547, 2713.110
1084.475, 2717.089
1086.404, 2719.184
1088.332, 2721.801
1090.261, 2725.415
1092.189, 2729.790
1094.118, 2735.755
1096.046, 2742.909
1097.975, 2747.343
1099.903, 2746.490
1101.832, 2746.908
1103.760, 2752.109
1105.688, 2759.704
1107.617, 2765.950
1109.545, 2770.292
1111.474, 2774.847
1113.402, 2780.412
1115.331, 2786.083
1117.259, 2791.177
1119.188, 2795.623
1121.116, 2798.844
1123.045, 2800.056
1124.973, 2800.625
1126.902, 2800.973
1128.830, 2801.356
1130.759, 2802.437
1132.687, 2804.927
1134.615, 2807.352
1136.544, 2809.310
1138.472, 2811.167
1140.401, 2812.945
1142.329, 2814.054
1144.258, 2816.853
1146.186, 2822.108
1148.115, 2827.851
1150.043, 2832.976
1151.972, 2837.380
1153.900, 2841.544
1155.829, 2845.452
1157.757, 2849.269
1159.686, 2853.971
1161.614, 2858.444
1163.542, 2860.598
1165.471, 2859.965
1167.399, 2860.312
1169.328, 2863.075
1171.256, 2866.864
1173.185, 2871.004
1175.113, 2875.644
1177.042, 2880.110
1178.970, 2882.989
1180.899, 2887.375
1182.827, 2894.473
1184.756, 2903.227
1186.684, 2911.481
1188.613, 2919.212
1190.541, 2925.209
1192.469, 2927.084
1194.398, 2928.523
1196.326, 2933.549
1198.255, 2941.726
1200.183, 2947.777
1202.112, 2950.848
1204.040, 2953.697
1205.969, 2957.284
1207.897, 2961.773
1209.826, 2967.206
1211.754, 2973.320
1213.683, 2980.235
1215.611, 2988.229
1217.540, 2995.841
1219.468, 3001.712
1221.396, 3005.632
1223.325, 3009.757
1225.253, 3014.920
1227.182, 3019.465
1229.110, 3023.185
1231.039, 3026.292
1232.967, 3028.610
1234.896, 3029.936
1236.824, 3033.680
1238.753, 3042.364
1240.681, 3051.914
1242.610, 3059.944
1244.538, 3066.656
1246.467, 3073.874
1248.395, 3081.104
1250.323, 3089.055
1252.252, 3098.093
1254.180, 3107.150
1256.109, 3115.191
1258.037, 3122.032
1259.966, 3127.357
1261.894, 3130.039
1263.823, 3132.541
1265.751, 3136.376
1267.680, 3140.930
1269.608, 3144.444
1271.537, 3146.773
1273.465, 3150.052
1275.394, 3155.976
1277.322, 3162.404
1279.250, 3167.567
1281.179, 3171.758
1283.107, 3177.266
1285.036, 3184.316
1286.964, 3191.916
1288.893, 3200.021
1290.821, 3207.691
1292.750, 3213.800
1294.678, 3217.615
1296.607, 3221.844
1298.535, 3227.077
1300.464, 3232.513
1302.392, 3238.629
1304.321, 3244.893
1306.249, 3249.276
1308.177, 3250.788
1310.106, 3253.937
1312.034, 3261.145
1313.963, 3268.234
1315.891, 3272.073
1317.820, 3273.732
1319.748, 3276.716
1321.677, 3282.055
1323.605, 3288.101
1325.534, 3295.222
1327.462, 3302.887
1329.391, 3310.002
1331.319, 3316.062
1333.248, 3324.822
1335.176, 3338.525
1337.104, 3350.720
1339.033, 3359.388
1340.961, 3365.087
1342.890, 3368.463
1344.818, 3368.562
1346.747, 3369.727
1348.675, 3374.840
1350.604, 3378.954
1352.532, 3379.956
1354.461, 3379.679
1356.389, 3381.409
1358.318, 3385.701
1360.246, 3390.213
1362.175, 3393.432
1364.103, 3397.812
1366.031, 3405.158
1367.960, 3414.098
1369.888, 3421.801
1371.817, 3427.582
1373.745, 3433.528
1375.674, 3440.203
1377.602, 3447.065
1379.531, 3453.808
1381.459, 3460.518
1383.388, 3467.689
1385.316, 3476.923
1387.245, 3483.595
1389.173, 3484.573
1391.102, 3484.903
1393.030, 3488.806
1394.958, 3496.099
1396.887, 3501.959
1398.815, 3506.464
1400.744, 3510.125
1402.672, 3511.971
1404.601, 3513.858
1406.529, 3517.813
1408.458, 3523.299
1410.386, 3526.714
1412.315, 3526.691
1414.243, 3526.522
1416.172, 3527.237
1418.100, 3528.304
1420.029, 3529.650
1421.957, 3531.545
1423.885, 3533.870
1425.814, 3537.168
1427.742, 3540.896
1429.671, 3545.413
1431.599, 3549.972
1433.528, 3552.841
1435.456, 3553.884
1437.385, 3558.667
1439.313, 3569.843
1441.242, 3579.728
1443.170, 3585.714
1445.099, 3590.056
1447.027, 3594.269
1448.956, 3598.301
1450.884, 3604.091
1452.813, 3614.058
1454.741, 3622.585
1456.669, 3628.347
1458.598, 3632.804
1460.526, 3636.828
1462.455, 3640.363
1464.383, 3644.476
1466.312, 3650.128
1468.240, 3654.199
1470.169, 3655.710
1472.097, 3656.074
1474.026, 3655.805
1475.954, 3655.809
1477.883, 3659.236
1479.811, 3667.773
1481.740, 3676.562
1483.668, 3682.938
1485.596, 3690.503
1487.525, 3702.728
1489.453, 3717.097
1491.382, 3727.223
1493.310, 3731.361
1495.239, 3734.642
1497.167, 3737.416
1499.096, 3740.517
1501.024, 3746.063
1502.953, 3752.700
1504.881, 3755.991
1506.810, 3755.527
1508.738, 3756.621
1510.667, 3761.570
1512.595, 3766.683
1514.523, 3769.850
1516.452, 3771.998
1518.380, 3774.846
1520.309, 3778.193
1522.237, 3781.786
1524.166, 3786.240
1526.094, 3789.939
1528.023, 3791.935
1529.951, 3793.692
1531.880, 3796.946
1533.808, 3801.974
1535.737, 3807.907
1537.665, 3816.569
1539.594, 3823.741
1541.522, 3826.996
1543.450, 3829.705
1545.379, 3834.338
1547.307, 3840.534
1549.236, 3847.378
1551.164, 3856.974
1553.093, 3862.645
1555.021, 3860.552
1556.950, 3858.065
1558.878, 3859.345
1560.807, 3863.641
1562.735, 3869.010
1564.664, 3875.595
1566.592, 3882.669
1568.521, 3890.643
1570.449, 3897.615
1572.377, 3901.849
1574.306, 3904.602
1576.234, 3907.877
1578.163, 3911.458
1580.091, 3913.073
1582.020, 3912.552
1583.948, 3911.368
1585.877, 3909.812
1587.805, 3908.927
1589.734, 3909.691
1591.662, 3911.834
1593.591, 3914.494
1595.519, 3917.469
1597.448, 3920.199
1599.376, 3922.056
1601.304, 3923.470
1603.233, 3924.796
1605.161, 3925.462
1607.090, 3924.732
1609.018, 3922.807
1610.947, 3921.065
1612.875, 3920.357
1614.804, 3918.882
1616.732, 3914.791
1618.661, 3910.852
1620.589, 3909.264
1622.518, 3909.161
1624.446, 3907.758
1626.375, 3904.532
1628.303, 3901.676
1630.231, 3900.163
1632.160, 3898.625
1634.088, 3896.299
1636.017, 3894.141
1637.945, 3893.435
1639.874, 3894.050
1641.802, 3894.171
1643.731, 3893.371
1645.659, 3891.729
1647.588, 3887.891
1649.516, 3884.190
1651.445, 3882.786
1653.373, 3882.715
1655.302, 3881.066
1657.230, 3877.847
1659.158, 3875.460
1661.087, 3873.992
1663.015, 3873.809
1664.944, 3875.063
1666.872, 3877.059
1668.801, 3879.350
1670.729, 3881.797
1672.658, 3883.870
1674.586, 3885.388
1676.515, 3888.085
1678.443, 3893.451
1680.372, 3899.480
1682.300, 3905.519
1684.229, 3911.869
1686.157, 3918.446
1688.085, 3924.852
1690.014, 3932.756
1691.942, 3942.898
1693.871, 3950.976
1695.799, 3954.818
1697.728, 3957.406
1699.656, 3960.556
1701.585, 3963.371
1703.513, 3964.116
1705.442, 3962.883
1707.370, 3962.507
1709.299, 3963.479
1711.227, 3965.713
1713.156, 3970.488
1715.084, 3975.358
1717.012, 3978.846
1718.941, 3981.323
1720.869, 3983.422
1722.798, 3984.805
1724.726, 3986.600
1726.655, 3988.608
1728.583, 3991.212
1730.512, 3995.990
1732.440, 4000.113
1734.369, 4001.895
1736.297, 4001.864
1738.226, 4000.433
1740.154, 3997.013
1742.083, 3996.730
1744.011, 4000.909
1745.939, 4005.706
1747.868, 4011.772
1749.796, 4016.463
1751.725, 4017.539
1753.653, 4016.808
1755.582, 4018.169
1757.510, 4022.012
1759.439, 4025.365
1761.367, 4026.797
1763.296, 4030.046
1765.224, 4036.864
1767.153, 4043.865
1769.081, 4050.004
1771.010, 4054.182
1772.938, 4053.706
1774.866, 4048.828
1776.795, 4046.607
1778.723, 4048.919
1780.652, 4051.556
1782.580, 4054.044
1784.509, 4056.516
1786.437, 4058.456
1788.366, 4060.645
1790.294, 4064.218
1792.223, 4068.836
1794.151, 4073.272
1796.080, 4077.229
1798.008, 4081.200
1799.937, 4085.067
1801.865, 4089.162
1803.793, 4094.417
1805.722, 4099.321
1807.650, 4101.841
1809.579, 4102.769
1811.507, 4105.428
1813.436, 4110.453
1815.364, 4113.612
1817.293, 4112.899
1819.221, 4113.576
1821.150, 4118.591
1823.078, 4125.395
1825.007, 4132.271
1826.935, 4139.243
1828.864, 4146.295
1830.792, 4153.165
1832.720, 4159.115
1834.649, 4162.471
1836.577, 4167.183
1838.506, 4175.731
1840.434, 4183.620
1842.363, 4188.563
1844.291, 4191.433
1846.220, 4193.211
1848.148, 4194.096
1850.077, 4195.245
1852.005, 4197.415
1853.934, 4198.680
1855.862, 4198.545
1857.791, 4198.846
1859.719, 4201.210
1861.647, 4204.031
1863.576, 4204.735
1865.504, 4205.214
1867.433, 4210.435
1869.361, 4220.860
1871.290, 4231.173
1873.218, 4242.232
1875.147, 4249.641
1877.075, 4249.500
1879.004, 4248.975
1880.932, 4251.306
1882.861, 4255.252
1884.789, 4260.797
1886.718, 4267.533
1888.646, 4270.536
1890.574, 4269.061
1892.503, 4270.112
1894.431, 4274.681
1896.360, 4280.240
1898.288, 4286.362
1900.217, 4292.119
1902.145, 4298.057
1904.074, 4302.628
1906.002, 4302.935
1907.931, 4300.189
1909.859, 4299.208
1911.788, 4300.298
1913.716, 4304.554
1915.645, 4313.845
1917.573, 4322.604
1919.501, 4329.612
1921.430, 4334.216
1923.358, 4334.387
1925.287, 4332.539
1927.215, 4331.771
1929.144, 4332.251
1931.072, 4335.893
1933.001, 4344.800
1934.929, 4350.269
1936.858, 4348.628
1938.786, 4348.327
1940.715, 4351.503
1942.643, 4356.356
1944.572, 4362.412
1946.500, 4368.892
1948.428, 4375.034
1950.357, 4380.612
1952.285, 4383.471
1954.214, 4381.081
1956.142, 4383.517
1958.071, 4395.018
1959.999, 4403.919
1961.928, 4405.809
1963.856, 4406.361
1965.785, 4409.109
1967.713, 4412.018
1969.642, 4412.317
1971.570, 4411.317
1973.499, 4413.126
1975.427, 4418.241
1977.355, 4421.320
1979.284, 4419.896
1981.212, 4422.406
1983.141, 4432.819
1985.069, 4443.586
1986.998, 4450.501
1988.926, 4455.589
1990.855, 4461.358
1992.783, 4466.317
1994.712, 4467.106
1996.640, 4463.859
1998.569, 4460.836
2000.497, 4458.521
2002.426, 4457.384
2004.354, 4458.070
2006.282, 4460.086
2008.211, 4464.373
2010.139, 4468.658
2012.068, 4470.239
2013.996, 4471.489
2015.925, 4476.357
2017.853, 4483.974
2019.782, 4489.509
2021.710, 4492.896
2023.639, 4496.979
2025.567, 4502.146
2027.496, 4507.475
2029.424, 4512.075
2031.353, 4517.298
2033.281, 4523.887
2035.209, 4530.622
2037.138, 4537.911
2039.066, 4544.106
2040.995, 4545.680
2042.923, 4543.551
2044.852, 4543.404
2046.780, 4545.413
2048.709, 4548.872
2050.637, 4556.219
2052.566, 4560.849
2054.494, 4559.719
2056.423, 4558.811
2058.351, 4560.950
2060.280, 4564.312
2062.208, 4568.354
2064.136, 4572.448
2066.065, 4574.811
2067.993, 4575.755
2069.922, 4577.882
2071.850, 4580.996
2073.779, 4584.384
2075.707, 4587.925
2077.636, 4589.744
2079.564, 4587.909
2081.493, 4586.722
2083.421, 4590.392
2085.350, 4593.622
2087.278, 4591.900
2089.207, 4588.531
2091.135, 4587.545
2093.063, 4588.989
2094.992, 4593.002
2096.920, 4600.127
2098.849, 4604.294
2100.777, 4603.004
2102.706, 4602.976
2104.634, 4605.455
2106.563, 4607.907
2108.491, 4610.838
2110.420, 4612.900
2112.348, 4612.225
2114.277, 4611.793
2116.205, 4614.534
2118.134, 4619.321
2120.062, 4624.121
2121.990, 4628.789
2123.919, 4633.155
2125.847, 4636.818
2127.776, 4642.612
2129.704, 4653.123
2131.633, 4660.174
2133.561, 4660.559
2135.490, 4659.281
2137.418, 4656.399
2139.347, 4653.841
2141.275, 4653.544
2143.204, 4654.341
2145.132, 4655.826
2147.061, 4657.880
2148.989, 4659.511
2150.917, 4660.954
2152.846, 4659.799
2154.774, 4655.056
2156.703, 4656.418
2158.631, 4666.485
2160.560, 4674.148
2162.488, 4674.063
2164.417, 4674.118
2166.345, 4679.953
2168.274, 4683.953
2170.202, 4680.719
2172.131, 4675.552
2174.059, 4674.444
2175.988, 4676.025
2177.916, 4675.753
2179.844, 4674.114
2181.773, 4677.415
2183.701, 4685.476
2185.630, 4693.442
2187.558, 4700.639
2189.487, 4706.306
2191.415, 4709.810
2193.344, 4712.286
2195.272, 4714.619
2197.201, 4715.636
2199.129, 4713.963
2201.058, 4712.284
2202.986, 4713.078
2204.915, 4715.430
2206.843, 4717.940
2208.771, 4721.148
2210.700, 4726.454
2212.628, 4733.793
2214.557, 4740.353
2216.485, 4745.762
2218.414, 4750.979
2220.342, 4755.501
2222.271, 4759.712
2224.199, 4763.702
2226.128, 4766.419
2228.056, 4768.497
2229.985, 4768.701
2231.913, 4764.846
2233.842, 4761.974
2235.770, 4765.625
2237.698, 4771.577
2239.627, 4773.651
2241.555, 4773.514
2243.484, 4774.971
2245.412, 4777.719
2247.341, 4783.237
2249.269, 4791.386
2251.198, 4795.982
2253.126, 4796.502
2255.055, 4795.016
2256.983, 4790.120
2258.912, 4788.235
2260.840, 4792.670
2262.769, 4797.625
2264.697, 4801.508
2266.625, 4804.731
2268.554, 4806.276
2270.482, 4808.458
2272.411, 4814.975
2274.339, 4822.125
2276.268, 4824.364
2278.196, 4823.264
2280.125, 4821.507
2282.053, 4819.796
2283.982, 4822.456
2285.910, 4830.131
2287.839, 4834.852
2289.767, 4834.029
2291.696, 4836.792
2293.624, 4846.848
2295.552, 4854.160
2297.481, 4855.442
2299.409, 4857.136
2301.338, 4860.932
2303.266, 4864.923
2305.195, 4868.533
2307.123, 4871.859
2309.052, 4876.272
2310.980, 4879.368
2312.909, 4876.288
2314.837, 4871.387
2316.766, 4873.143
2318.694, 4879.542
2320.623, 4883.110
2322.551, 4884.289
2324.479, 4889.458
2326.408, 4899.272
2328.336, 4904.360
2330.265, 4903.502
2332.193, 4903.140
2334.122, 4903.744
2336.050, 4904.847
2337.979, 4905.962
2339.907, 4907.792
2341.836, 4912.358
2343.764, 4915.456
2345.693, 4913.273
2347.621, 4912.316
2349.550, 4917.303
2351.478, 4924.107
2353.406, 4929.385
2355.335, 4934.086
2357.263, 4940.089
2359.192, 4945.537
2361.120, 4946.578
2363.049, 4944.548
2364.977, 4944.821
2366.906, 4947.088
2368.834, 4945.551
2370.763, 4939.327
2372.691, 4937.271
2374.620, 4940.869
2376.548, 4942.209
2378.477, 4940.418
2380.405, 4939.423
2382.333, 4939.663
2384.262, 4941.969
2386.190, 4947.024
2388.119, 4952.969
2390.047, 4959.013
2391.976, 4965.335
2393.904, 4973.030
2395.833, 4979.413
2397.761, 4981.385
2399.690, 4982.931
2401.618, 4986.048
2403.547, 4991.301
2405.475, 5002.689
2407.404, 5014.096
2409.332, 5013.815
2411.260, 5006.706
2413.189, 5005.626
2415.117, 5009.745
2417.046, 5012.210
2418.974, 5013.585
2420.903, 5019.948
2422.831, 5031.375
2424.760, 5039.654
2426.688, 5043.441
2428.617, 5047.836
2430.545, 5053.368
2432.474, 5056.839
2434.402, 5057.304
2436.331, 5056.403
2438.259, 5052.956
2440.188, 5052.292
2442.116, 5057.865
2444.044, 5063.633
2445.973, 5067.532
2447.901, 5071.539
2449.830, 5074.611
2451.758, 5079.266
2453.687, 5088.514
2455.615, 5096.536
2457.544, 5098.377
2459.472, 5096.940
2461.401, 5094.764
2463.329, 5092.491
2465.258, 5091.954
2467.186, 5092.209
2469.115, 5090.422
2471.043, 5088.640
2472.971, 5091.212
2474.900, 5096.808
2476.828, 5100.819
2478.757, 5102.905
2480.685, 5104.018
2482.614, 5103.964
2484.542, 5106.703
2486.471, 5112.347
2488.399, 5116.201
2490.328, 5117.915
2492.256, 5122.547
2494.185, 5132.510
2496.113, 5139.257
2498.042, 5140.542
2499.970, 5141.141
2501.898, 5140.146
2503.827, 5140.244
2505.755, 5143.165
2507.684, 5143.216
2509.612, 5137.309
2511.541, 5133.326
2513.469, 5136.543
2515.398, 5139.549
2517.326, 5137.194
2519.255, 5137.966
2521.183, 5147.700
2523.112, 5156.869
2525.040, 5159.503
2526.969, 5160.962
2528.897, 5165.413
2530.825, 5169.441
2532.754, 5170.558
2534.682, 5171.228
2536.611, 5173.735
2538.539, 5177.347
2540.468, 5180.334
2542.396, 5183.890
2544.325, 5189.850
2546.253, 5196.603
2548.182, 5202.624
2550.110, 5207.545
2552.039, 5210.568
2553.967, 5212.643
2555.896, 5214.795
2557.824, 5218.046
2559.752, 5226.835
2561.681, 5238.955
2563.609, 5246.896
2565.538, 5250.788
2567.466, 5252.569
2569.395, 5252.453
2571.323, 5251.194
2573.252, 5248.913
2575.180, 5252.452
2577.109, 5262.056
2579.037, 5266.359
2580.966, 5264.939
2582.894, 5269.484
2584.823, 5281.724
2586.751, 5288.704
2588.679, 5288.423
2590.608, 5287.229
2592.536, 5284.500
2594.465, 5284.197
2596.393, 5286.713
2598.322, 5292.057
2600.250, 5301.146
2602.179, 5308.010
2604.107, 5310.359
2606.036, 5312.951
2607.964, 5316.619
2609.893, 5319.604
2611.821, 5321.042
2613.750, 5324.450
2615.678, 5331.251
2617.606, 5337.874
2619.535, 5342.750
2621.463, 5348.433
2623.392, 5358.032
2625.320, 5363.112
2627.249, 5358.071
2629.177, 5356.415
2631.106, 5363.938
2633.034, 5369.186
2634.963, 5367.384
2636.891, 5365.165
2638.820, 5363.657
2640.748, 5364.483
2642.677, 5368.446
2644.605, 5374.068
2646.533, 5382.269
2648.462, 5388.063
2650.390, 5388.729
2652.319, 5387.140
2654.247, 5384.747
2656.176, 5380.968
2658.104, 5373.621
2660.033, 5369.357
2661.961, 5372.350
2663.890, 5377.326
2665.818, 5382.109
2667.747, 5386.998
2669.675, 5392.005
2671.604, 5396.036
2673.532, 5397.049
2675.460, 5398.398
2677.389, 5402.894
2679.317, 5406.955
2681.246, 5409.004
2683.174, 5410.272
2685.103, 5411.223
2687.031, 5412.321
2688.960, 5413.534
2690.888, 5415.963
2692.817, 5420.323
2694.745, 5426.678
2696.674, 5436.333
2698.602, 5445.898
2700.531, 5452.487
2702.459, 5457.950
2704.387, 5462.422
2706.316, 5465.734
2708.244, 5467.583
2710.173, 5468.435
2712.101, 5468.329
2714.030, 5469.203
2715.958, 5474.190
2717.887, 5479.229
2719.815, 5481.577
2721.744, 5484.047
2723.672, 5487.969
2725.601, 5491.462
2727.529, 5492.795
2729.458, 5493.778
2731.386, 5494.728
2733.314, 5496.533
2735.243, 5501.761
2737.171, 5505.119
2739.100, 5501.932
2741.028, 5501.174
2742.957, 5509.795
2744.885, 5517.851
2746.814, 5520.794
2748.742, 5523.261
2750.671, 5527.020
2752.599, 5531.542
2754.528, 5535.964
2756.456, 5542.101
2758.385, 5550.135
2760.313, 5559.080
2762.241, 5568.791
2764.170, 5576.962
2766.098, 5582.913
2768.027, 5586.519
2769.955, 5587.992
2771.884, 5587.172
2773.812, 5584.544
2775.741, 5580.275
2777.669, 5573.468
2779.598, 5568.613
2781.526, 5566.908
2783.455, 5567.182
2785.383, 5569.766
2787.312, 5572.696
2789.240, 5574.562
2791.168, 5577.390
2793.097, 5581.719
2795.025, 5583.018
2796.954, 5579.834
2798.882, 5578.146
2800.811, 5578.991
2802.739, 5582.642
2804.668, 5592.619
2806.596, 5597.077
2808.525, 5594.998
2810.453, 5596.325
2812.382, 5601.713
2814.310, 5603.358
2816.239, 5599.641
2818.167, 5599.803
2820.095, 5604.516
2822.024, 5608.009
2823.952, 5610.419
2825.881, 5613.736
2827.809, 5617.303
2829.738, 5616.446
2831.666, 5611.727
2833.595, 5611.511
2835.523, 5614.640
2837.452, 5614.125
2839.380, 5612.283
2841.309, 5615.829
2843.237, 5622.918
2845.166, 5627.384
2847.094, 5630.914
2849.022, 5637.259
2850.951, 5644.008
2852.879, 5645.167
2854.808, 5645.432
2856.736, 5653.014
2858.665, 5661.696
2860.593, 5664.209
2862.522, 5664.339
2864.450, 5665.698
2866.379, 5666.933
2868.307, 5666.866
2870.236, 5666.469
2872.164, 5665.819
2874.093, 5666.257
2876.021, 5669.628
2877.949, 5672.895
2879.878, 5673.698
2881.806, 5676.250
2883.735, 5683.885
2885.663, 5689.958
2887.592, 5691.321
2889.520, 5692.343
2891.449, 5692.755
2893.377, 5695.788
2895.306, 5704.852
2897.234, 5711.862
2899.163, 5716.659
2901.091, 5720.101
2903.020, 5722.094
2904.948, 5725.923
2906.876, 5732.022
2908.805, 5735.521
2910.733, 5735.893
2912.662, 5735.158
2914.590, 5733.451
2916.519, 5730.796
2918.447, 5728.134
2920.376, 5728.159
2922.304, 5730.736
2924.233, 5734.401
2926.161, 5739.037
2928.090, 5745.086
2930.018, 5750.653
2931.947, 5750.784
2933.875, 5750.541
2935.803, 5759.832
2937.732, 5768.484
2939.660, 5766.104
2941.589, 5761.409
2943.517, 5759.862
2945.446, 5759.714
2947.374, 5758.981
2949.303, 5761.304
2951.231, 5770.748
2953.160, 5776.752
2955.088, 5774.259
2957.017, 5770.784
2958.945, 5765.739
2960.874, 5766.439
2962.802, 5774.605
2964.730, 5783.080
2966.659, 5791.323
2968.587, 5791.924
2970.516, 5781.530
2972.444, 5783.995
2974.373, 5797.570
2976.301, 5804.381
2978.230, 5804.487
2980.158, 5799.576
2982.087, 5792.166
2984.015, 5789.683
2985.944, 5790.057
2987.872, 5788.596
2989.801, 5787.982
2991.729, 5793.442
2993.657, 5799.694
2995.586, 5801.908
2997.514, 5802.377
2999.443, 5801.505
3001.371, 5800.854
3003.300, 5799.852
3005.228, 5800.626
3007.157, 5804.818
3009.085, 5807.875
3011.014, 5808.933
3012.942, 5809.527
3014.871, 5810.427
3016.799, 5811.375
3018.728, 5812.437
3020.656, 5814.967
3022.584, 5818.743
3024.513, 5822.407
3026.441, 5825.756
3028.370, 5830.400
3030.298, 5835.447
3032.227, 5838.855
3034.155, 5840.647
3036.084, 5840.857
3038.012, 5839.757
3039.941, 5835.551
3041.869, 5832.702
3043.798, 5836.698
3045.726, 5839.563
3047.655, 5835.208
3049.583, 5831.184
3051.511, 5829.547
3053.440, 5831.697
3055.368, 5840.693
3057.297, 5843.531
3059.225, 5833.719
3061.154, 5829.849
3063.082, 5832.516
3065.011, 5837.708
3066.939, 5844.457
3068.868, 5846.357
3070.796, 5844.596
3072.725, 5844.854
3074.653, 5846.327
3076.582, 5848.975
3078.510, 5850.790
3080.438, 5849.289
3082.367, 5846.636
3084.295, 5842.578
3086.224, 5842.072
3088.152, 5850.826
3090.081, 5856.642
3092.009, 5851.251
3093.938, 5848.072
3095.866, 5848.967
3097.795, 5851.601
3099.723, 5856.452
3101.652, 5857.073
3103.580, 5853.311
3105.509, 5855.094
3107.437, 5860.859
3109.365, 5862.162
3111.294, 5861.325
3113.222, 5862.226
3115.151, 5865.618
3117.079, 5875.494
3119.008, 5884.861
3120.936, 5886.798
3122.865, 5888.893
3124.793, 5896.115
3126.722, 5902.103
3128.650, 5903.978
3130.579, 5908.365
3132.507, 5919.583
3134.436, 5921.794
3136.364, 5913.164
3138.292, 5914.178
3140.221, 5923.625
3142.149, 5927.513
3144.078, 5927.902
3146.006, 5932.218
3147.935, 5936.737
3149.863, 5934.417
3151.792, 5931.184
3153.720, 5933.145
3155.649, 5935.602
3157.577, 5936.727
3159.506, 5937.422
3161.434, 5938.147
3163.363, 5937.911
3165.291, 5934.305
3167.219, 5936.990
3169.148, 5946.076
3171.076, 5948.608
3173.005, 5946.121
3174.933, 5951.344
3176.862, 5960.744
3178.790, 5965.483
3180.719, 5967.250
3182.647, 5965.020
3184.576, 5963.956
3186.504, 5969.601
3188.433, 5975.450
3190.361, 5981.269
3192.290, 5983.800
3194.218, 5980.434
3196.146, 5978.761
3198.075, 5978.852
3200.003, 5984.226
3201.932, 5993.389
3203.860, 5993.558
3205.789, 5987.858
3207.717, 5983.657
3209.646, 5982.830
3211.574, 5990.064
3213.503, 5997.874
3215.431, 5998.078
3217.360, 5999.719
3219.288, 6007.080
3221.217, 6010.916
3223.145, 6006.688
3225.073, 6002.264
3227.002, 5998.250
3228.930, 5994.644
3230.859, 5992.140
3232.787, 5991.433
3234.716, 5991.986
3236.644, 5992.116
3238.573, 5992.012
3240.501, 5990.044
3242.430, 5989.585
3244.358, 5993.817
3246.287, 5997.101
3248.215, 5997.955
3250.144, 5997.380
3252.072, 5995.524
3254.000, 5993.257
3255.929, 5990.760
3257.857, 5986.292
3259.786, 5981.361
3261.714, 5980.088
3263.643, 5980.289
3265.571, 5979.288
3267.500, 5977.884
3269.428, 5974.257
3271.357, 5974.562
3273.285, 5981.813
3275.214, 5988.474
3277.142, 5992.766
3279.071, 5997.718
3280.999, 6003.121
3282.927, 6005.226
3284.856, 6004.569
3286.784, 6003.081
3288.713, 6000.579
3290.641, 5995.091
3292.570, 5991.924
3294.498, 5996.647
3296.427, 6000.641
3298.355, 5998.601
3300.284, 5999.694
3302.212, 6004.351
3304.141, 6008.719
3306.069, 6011.879
3307.998, 6013.829
3309.926, 6014.116
3311.854, 6012.487
3313.783, 6009.542
3315.711, 6005.803
3317.640, 6002.532
3319.568, 6000.395
3321.497, 6000.800
3323.425, 6005.688
3325.354, 6007.219
3327.282, 6004.335
3329.211, 6009.750
3331.139, 6019.550
3333.068, 6018.005
3334.996, 6012.330
3336.925, 6012.539
3338.853, 6016.522
3340.781, 6025.447
3342.710, 6033.192
3344.638, 6037.562
3346.567, 6040.277
3348.495, 6041.092
3350.424, 6043.926
3352.352, 6047.935
3354.281, 6044.573
3356.209, 6039.095
3358.138, 6041.258
3360.066, 6044.731
3361.995, 6044.130
3363.923, 6043.758
3365.852, 6047.042
3367.780, 6045.450
3369.708, 6035.581
3371.637, 6035.225
3373.565, 6044.226
3375.494, 6061.415
3377.422, 6079.323
3379.351, 6080.891
3381.279, 6078.284
3383.208, 6078.622
3385.136, 6081.702
3387.065, 6088.958
3388.993, 6095.101
3390.922, 6100.019
3392.850, 6097.210
3394.779, 6088.635
3396.707, 6087.101
3398.635, 6087.993
3400.564, 6083.486
3402.492, 6079.000
3404.421, 6079.905
3406.349, 6081.349
3408.278, 6082.777
3410.206, 6082.924
3412.135, 6081.208
3414.063, 6079.222
3415.992, 6078.126
3417.920, 6084.033
3419.849, 6091.680
3421.777, 6094.127
3423.706, 6095.550
3425.634, 6097.983
3427.563, 6101.655
3429.491, 6107.173
3431.419, 6112.885
3433.348, 6118.375
3435.276, 6121.128
3437.205, 6122.302
3439.133, 6125.451
3441.062, 6127.798
3442.990, 6126.721
3444.919, 6124.940
3446.847, 6122.711
3448.776, 6124.625
3450.704, 6131.979
3452.633, 6134.906
3454.561, 6134.163
3456.490, 6134.562
3458.418, 6132.797
3460.346, 6120.798
3462.275, 6113.032
3464.203, 6118.581
3466.132, 6122.826
3468.060, 6122.246
3469.989, 6118.657
3471.917, 6113.072
3473.846, 6113.751
3475.774, 6117.067
3477.703, 6117.705
3479.631, 6118.446
3481.560, 6122.806
3483.488, 6124.701
3485.417, 6123.397
3487.345, 6116.672
3489.273, 6106.562
3491.202, 6110.713
3493.130, 6120.010
3495.059, 6114.313
3496.987, 6107.107
3498.916, 6108.349
3500.844, 6111.008
3502.773, 6114.563
3504.701, 6115.271
3506.630, 6113.325
3508.558, 6117.161
3510.487, 6122.483
3512.415, 6118.843
3514.344, 6114.058
3516.272, 6112.550
3518.200, 6116.313
3520.129, 6127.881
3522.057, 6130.734
3523.986, 6124.088
3525.914, 6124.906
3527.843, 6129.374
3529.771, 6132.265
3531.700, 6132.495
3533.628, 6128.958
3535.557, 6124.084
3537.485, 6119.073
3539.414, 6113.928
3541.342, 6109.869
3543.271, 6115.010
3545.199, 6124.682
3547.127, 6131.739
3549.056, 6138.483
3550.984, 6146.278
3552.913, 6150.311
3554.841, 6144.957
3556.770, 6153.183
3558.698, 6168.908
3560.627, 6165.633
3562.555, 6155.703
3564.484, 6156.414
3566.412, 6156.366
3568.341, 6149.351
3570.269, 6147.107
3572.198, 6151.132
3574.126, 6152.516
3576.054, 6152.165
3577.983, 6150.639
3579.911, 6152.859
3581.840, 6165.158
3583.768, 6175.353
3585.697, 6179.113
3587.625, 6178.946
3589.554, 6175.710
3591.482, 6175.460
3593.411, 6176.369
3595.339, 6174.891
3597.268, 6173.464
3599.196, 6173.527
3601.125, 6173.478
3603.053, 6172.806
3604.981, 6174.558
3606.910, 6177.304
3608.838, 6177.009
3610.767, 6174.460
3612.695, 6167.854
3614.624, 6167.028
3616.552, 6177.252
3618.481, 6180.864
3620.409, 6177.648
3622.338, 6185.435
3624.266, 6197.635
3626.195, 6205.000
3628.123, 6210.305
3630.052, 6214.591
3631.980, 6218.297
3633.908, 6221.285
3635.837, 6221.996
3637.765, 6220.354
3639.694, 6215.180
3641.622, 6210.214
3643.551, 6210.648
3645.479, 6209.786
3647.408, 6207.289
3649.336, 6205.006
3651.265, 6203.976
3653.193, 6206.489
3655.122, 6212.001
3657.050, 6219.865
3658.979, 6228.047
3660.907, 6235.287
3662.835, 6243.149
3664.764, 6250.899
3666.692, 6248.808
3668.621, 6243.346
3670.549, 6242.062
3672.478, 6244.091
3674.406, 6250.996
3676.335, 6252.863
3678.263, 6248.972
3680.192, 6253.916
3682.120, 6262.753
3684.049, 6267.641
3685.977, 6270.059
3687.906, 6268.896
3689.834, 6269.440
3691.762, 6272.054
3693.691, 6276.361
3695.619, 6280.772
3697.548, 6283.808
3699.476, 6283.126
3701.405, 6273.766
3703.333, 6270.118
3705.262, 6274.606
3707.190, 6269.996
3709.119, 6261.509
3711.047, 6262.168
3712.976, 6265.473
3714.904, 6266.163
3716.833, 6271.285
3718.761, 6281.485
3720.689, 6280.468
3722.618, 6274.163
3724.546, 6280.627
3726.475, 6288.479
3728.403, 6291.019
3730.332, 6291.716
3732.260, 6291.165
3734.189, 6295.679
3736.117, 6303.542
3738.046, 6310.763
3739.974, 6318.506
3741.903, 6330.865
3743.831, 6334.943
3745.760, 6329.712
3747.688, 6322.195
3749.616, 6315.840
3751.545, 6318.931
3753.473, 6322.472
3755.402, 6318.957
3757.330, 6321.333
3759.259, 6329.989
3761.187, 6335.581
3763.116, 6338.528
3765.044, 6338.271
3766.973, 6339.122
3768.901, 6345.021
3770.830, 6347.267
3772.758, 6346.222
3774.687, 6349.047
3776.615, 6352.933
3778.543, 6354.523
3780.472, 6354.112
3782.400, 6351.371
3784.329, 6346.828
3786.257, 6341.798
3788.186, 6341.037
3790.114, 6342.630
3792.043, 6345.425
3793.971, 6348.236
3795.900, 6350.187
3797.828, 6353.202
3799.757, 6355.983
3801.685, 6356.448
3803.614, 6354.649
3805.542, 6350.799
3807.470, 6345.066
3809.399, 6337.838
3811.327, 6335.670
3813.256, 6335.021
3815.184, 6328.524
3817.113, 6322.639
3819.041, 6319.567
3820.970, 6320.790
3822.898, 6325.383
3824.827, 6328.412
3826.755, 6331.283
3828.684, 6337.468
3830.612, 6339.659
3832.541, 6335.840
3834.469, 6329.585
3836.397, 6323.433
3838.326, 6324.121
3840.254, 6326.535
3842.183, 6327.396
3844.111, 6328.904
3846.040, 6331.205
3847.968, 6335.768
3849.897, 6340.373
3851.825, 6341.003
3853.754, 6343.156
3855.682, 6349.023
3857.611, 6351.391
3859.539, 6351.007
3861.468, 6354.231
3863.396, 6354.611
3865.324, 6341.627
3867.253, 6339.266
3869.181, 6349.508
3871.110, 6357.141
3873.038, 6361.791
3874.967, 6363.845
3876.895, 6362.196
3878.824, 6353.306
3880.752, 6350.865
3882.681, 6353.374
3884.609, 6354.935
3886.538, 6354.612
3888.466, 6350.399
3890.395, 6351.397
3892.323, 6358.797
3894.251, 6361.089
3896.180, 6360.792
3898.108, 6359.600
3900.037, 6361.091
3901.965, 6367.051
3903.894, 6370.823
3905.822, 6372.258
3907.751, 6370.944
3909.679, 6368.452
3911.608, 6364.139
3913.536, 6365.404
3915.465, 6372.244
3917.393, 6377.510
3919.322, 6381.171
3921.250, 6384.045
3923.178, 6383.798
3925.107, 6380.503
3927.035, 6385.667
3928.964, 6393.521
3930.892, 6389.604
3932.821, 6389.110
3934.749, 6401.306
3936.678, 6404.201
3938.606, 6399.905
3940.535, 6398.436
3942.463, 6398.703
3944.392, 6400.825
3946.320, 6403.490
3948.249, 6406.470
3950.177, 6404.741
3952.105, 6404.192
3954.034, 6413.152
3955.962, 6417.960
3957.891, 6414.823
3959.819, 6411.883
3961.748, 6411.188
3963.676, 6419.452
3965.605, 6423.666
3967.533, 6420.492
3969.462, 6417.002
3971.390, 6415.710
3973.319, 6424.073
3975.247, 6430.534
3977.176, 6426.098
3979.104, 6429.854
3981.032, 6438.714
3982.961, 6437.409
3984.889, 6431.693
3986.818, 6423.739
3988.746, 6420.959
3990.675, 6423.247
3992.603, 6422.833
3994.532, 6423.270
3996.460, 6428.782
3998.389, 6430.985
4000.317, 6427.850
4002.246, 6425.393
4004.174, 6423.923
4006.103, 6427.133
4008.031, 6425.381
4009.959, 6417.220
4011.888, 6413.854
4013.816, 6415.193
4015.745, 6420.628
4017.673, 6427.203
4019.602, 6433.504
4021.530, 6435.379
4023.459, 6433.266
4025.387, 6426.868
4027.316, 6420.961
4029.244, 6418.537
4031.173, 6417.087
4033.101, 6416.693
4035.030, 6415.640
4036.958, 6416.021
4038.886, 6418.119
4040.815, 6417.981
4042.743, 6415.919
4044.672, 6416.924
4046.600, 6414.448
4048.529, 6406.058
4050.457, 6395.710
4052.386, 6387.829
4054.314, 6398.650
4056.243, 6410.099
4058.171, 6411.633
4060.100, 6406.660
4062.028, 6397.876
4063.957, 6396.353
4065.885, 6396.791
4067.813, 6397.430
4069.742, 6395.375
4071.670, 6390.986
4073.599, 6383.126
4075.527, 6379.342
4077.456, 6384.604
4079.384, 6389.161
4081.313, 6392.251
4083.241, 6391.749
4085.170, 6394.186
4087.098, 6405.289
4089.027, 6409.347
4090.955, 6408.129
4092.884, 6413.930
4094.812, 6420.068
4096.740, 6423.221
4098.669, 6423.164
4100.598, 6419.402
4102.526, 6408.709
4104.454, 6400.865
4106.383, 6401.673
4108.312, 6403.040
4110.240, 6402.811
4112.168, 6392.388
4114.097, 6387.022
4116.025, 6393.602
4117.954, 6399.049
4119.882, 6404.000
4121.811, 6413.398
4123.739, 6421.671
4125.667, 6425.092
4127.596, 6433.962
4129.524, 6443.218
4131.453, 6439.712
4133.381, 6439.829
4135.310, 6450.465
4137.238, 6457.728
4139.167, 6461.470
4141.095, 6461.458
4143.023, 6459.111
4144.952, 6455.409
4146.881, 6456.426
4148.809, 6461.087
4150.737, 6467.067
4152.666, 6476.602
4154.595, 6488.658
4156.523, 6496.010
4158.451, 6501.008
4160.380, 6505.748
4162.309, 6510.002
4164.237, 6513.922
4166.165, 6514.394
4168.094, 6515.929
4170.022, 6521.772
4171.951, 6529.670
4173.879, 6537.939
4175.808, 6540.233
4177.736, 6542.721
4179.665, 6549.508
4181.593, 6553.107
4183.521, 6554.373
4185.450, 6553.880
4187.378, 6555.568
4189.307, 6561.229
4191.235, 6562.601
4193.164, 6561.849
4195.092, 6564.534
4197.021, 6562.649
4198.949, 6555.927
4200.878, 6550.950
4202.806, 6550.025
4204.734, 6557.560
4206.663, 6556.210
4208.592, 6549.065
4210.520, 6562.507
4212.448, 6575.440
4214.377, 6576.127
4216.306, 6577.609
4218.234, 6580.778
4220.162, 6586.243
4222.091, 6588.327
4224.020, 6585.261
4225.948, 6583.068
4227.876, 6582.461
4229.805, 6585.489
4231.733, 6585.427
4233.662, 6582.385
4235.590, 6584.736
4237.519, 6588.419
##END=



