##NAMES=Kasolite
##RRUFFID=R060479
##IDEAL CHEMISTRY=Pb(UO_2_)(SiO_4_)·H_2_O
##LOCALITY=Musonoi Extension, Shaba Province, Zaire
##OWNER=RRUFF
##SOURCE=Michael Scott
##DESCRIPTION=Yellowish-orange prismatic single crystals
##STATUS=The identification of this mineral has been confirmed by single-crystal X-ray diffraction
##URL=https://www.rruff.net/odr/rruff_sample/R060479
##DIFFRACTION SAMPLE DESCRIPTION=Single crystal, powder profile is calculated
##CELL PARAMETERS=a: 13.268 b: 6.919 c: 6.691 alpha: 90 beta: 105.11 gamma: 90 volume: 593 crystal system: monoclinic
##FILETYPE=Raman Processed
##RAMAN WAVELENGTH=532

202.2373, 7660.292
204.1658, 7752.088
206.0943, 7862.702
208.0227, 7990.423
209.9512, 8115.538
211.8797, 8238.080
213.8081, 8356.463
215.7366, 8471.427
217.6651, 8583.934
219.5935, 8688.048
221.5220, 8785.048
223.4505, 8873.013
225.3789, 8947.612
227.3074, 9019.239
229.2359, 9068.454
231.1643, 9083.301
233.0928, 9053.431
235.0213, 8993.143
236.9497, 8893.371
238.8782, 8755.467
240.8067, 8614.245
242.7351, 8470.823
244.6636, 8327.593
246.5921, 8188.130
248.5205, 8048.806
250.4490, 7919.173
252.3775, 7803.488
254.3059, 7700.798
256.2344, 7612.243
258.1629, 7535.627
260.0913, 7474.618
262.0198, 7437.653
263.9483, 7425.299
265.8767, 7431.373
267.8052, 7456.774
269.7337, 7499.425
271.6621, 7550.154
273.5906, 7609.219
275.5191, 7671.244
277.4475, 7732.654
279.3760, 7802.792
281.3045, 7850.472
283.2329, 7868.572
285.1614, 7857.724
287.0899, 7817.385
289.0183, 7742.296
290.9468, 7647.515
292.8753, 7547.063
294.8037, 7435.868
296.7322, 7335.384
298.6607, 7249.223
300.5891, 7178.456
302.5176, 7119.834
304.4461, 7073.498
306.3745, 7036.291
308.3030, 7003.904
310.2315, 6976.560
312.1599, 6951.856
314.0884, 6930.515
316.0169, 6913.115
317.9453, 6895.637
319.8738, 6882.781
321.8023, 6868.836
323.7307, 6849.742
325.6592, 6819.305
327.5877, 6794.381
329.5161, 6777.559
331.4446, 6767.941
333.3731, 6759.182
335.3015, 6747.681
337.2300, 6738.073
339.1585, 6733.015
341.0869, 6738.736
343.0154, 6739.969
344.9439, 6734.315
346.8723, 6724.862
348.8008, 6718.422
350.7293, 6721.306
352.6578, 6722.653
354.5862, 6717.578
356.5147, 6701.929
358.4432, 6687.748
360.3716, 6672.565
362.3001, 6658.926
364.2286, 6649.951
366.1570, 6646.178
368.0855, 6646.437
370.0140, 6650.771
371.9424, 6660.156
373.8709, 6671.702
375.7994, 6687.522
377.7278, 6705.114
379.6563, 6721.766
381.5848, 6734.578
383.5132, 6750.358
385.4417, 6769.999
387.3702, 6793.539
389.2986, 6818.977
391.2271, 6844.916
393.1556, 6874.133
395.0840, 6908.046
397.0125, 6948.444
398.9410, 6992.445
400.8694, 7041.691
402.7979, 7094.985
404.7264, 7149.297
406.6548, 7209.905
408.5833, 7263.565
410.5118, 7307.096
412.4402, 7341.531
414.3687, 7357.044
416.2972, 7357.584
418.2256, 7336.506
420.1541, 7290.557
422.0826, 7211.376
424.0110, 7123.374
425.9395, 7027.712
427.8680, 6925.592
429.7964, 6840.991
431.7249, 6781.347
433.6534, 6732.687
435.5818, 6684.047
437.5103, 6630.202
439.4388, 6591.630
441.3672, 6575.404
443.2957, 6574.094
445.2242, 6570.152
447.1526, 6559.115
449.0811, 6551.305
451.0096, 6553.372
452.9380, 6566.675
454.8665, 6574.872
456.7950, 6571.565
458.7234, 6567.463
460.6519, 6573.685
462.5804, 6592.597
464.5089, 6611.576
466.4373, 6625.976
468.3658, 6637.153
470.2943, 6650.441
472.2227, 6662.508
474.1512, 6677.921
476.0797, 6698.799
478.0081, 6724.896
479.9366, 6754.797
481.8651, 6791.554
483.7935, 6832.084
485.7220, 6873.962
487.6505, 6918.583
489.5789, 6964.752
491.5074, 7016.992
493.4359, 7070.760
495.3643, 7114.939
497.2928, 7145.595
499.2213, 7166.211
501.1497, 7178.083
503.0782, 7179.464
505.0067, 7173.008
506.9351, 7155.763
508.8636, 7133.624
510.7921, 7112.565
512.7205, 7093.808
514.6490, 7076.837
516.5775, 7059.579
518.5059, 7043.672
520.4344, 7035.791
522.3629, 7038.872
524.2913, 7044.094
526.2198, 7047.993
528.1483, 7050.328
530.0767, 7051.849
532.0052, 7049.666
533.9337, 7049.290
535.8621, 7056.607
537.7906, 7075.439
539.7191, 7093.461
541.6475, 7108.114
543.5760, 7119.941
545.5045, 7129.981
547.4329, 7140.971
549.3614, 7143.924
551.2899, 7135.419
553.2183, 7114.156
555.1468, 7087.151
557.0753, 7053.219
559.0037, 7015.981
560.9322, 6977.018
562.8607, 6934.978
564.7891, 6900.119
566.7176, 6878.111
568.6461, 6862.115
570.5745, 6841.765
572.5030, 6814.251
574.4315, 6789.144
576.3599, 6771.770
578.2884, 6759.343
580.2169, 6741.136
582.1453, 6711.338
584.0738, 6680.194
586.0023, 6648.910
587.9307, 6617.367
589.8592, 6590.587
591.7877, 6573.446
593.7161, 6557.343
595.6447, 6536.325
597.5731, 6506.721
599.5016, 6480.747
601.4301, 6460.394
603.3585, 6444.767
605.2870, 6432.414
607.2155, 6424.299
609.1439, 6418.029
611.0724, 6410.376
613.0009, 6402.580
614.9293, 6402.564
616.8578, 6416.229
618.7863, 6429.520
620.7147, 6437.140
622.6432, 6439.394
624.5717, 6440.726
626.5001, 6441.607
628.4286, 6443.128
630.3571, 6445.696
632.2855, 6447.686
634.2140, 6457.841
636.1425, 6482.178
638.0709, 6512.008
639.9994, 6536.222
641.9279, 6550.760
643.8563, 6571.266
645.7848, 6602.695
647.7133, 6640.910
649.6417, 6679.191
651.5702, 6716.047
653.4987, 6753.039
655.4271, 6789.606
657.3556, 6826.719
659.2841, 6866.602
661.2125, 6909.778
663.1410, 6958.050
665.0695, 7012.253
666.9979, 7073.399
668.9264, 7140.516
670.8549, 7212.708
672.7833, 7291.200
674.7118, 7376.226
676.6403, 7466.097
678.5687, 7567.023
680.4972, 7682.239
682.4257, 7807.591
684.3541, 7940.211
686.2826, 8073.672
688.2111, 8225.180
690.1395, 8393.778
692.0680, 8582.270
693.9965, 8789.287
695.9249, 9010.176
697.8534, 9260.636
699.7819, 9530.292
701.7103, 9828.893
703.6388, 10193.61
705.5673, 10610.17
707.4957, 11105.55
709.4242, 11691.16
711.3527, 12368.79
713.2811, 13126.71
715.2096, 14009.84
717.1381, 14916.43
719.0665, 15830.57
720.9950, 16756.23
722.9235, 17593.93
724.8519, 18348.78
726.7804, 19030.44
728.7089, 19599.66
730.6373, 20069.29
732.5658, 20589.39
734.4943, 21120.62
736.4227, 21774.42
738.3512, 22602.15
740.2797, 23600.16
742.2081, 24805.12
744.1366, 26239.34
746.0651, 27837.76
747.9935, 29605.81
749.9220, 31557.82
751.8505, 33471.50
753.7789, 35551.13
755.7074, 37427.92
757.6359, 38763.97
759.5643, 39692.54
761.4928, 39771.09
763.4213, 38781.99
765.3497, 37015.39
767.2782, 34817.17
769.2067, 32072.96
771.1351, 29337.07
773.0636, 26667.55
774.9921, 24135.51
776.9205, 21882.58
778.8490, 19942.29
780.7775, 18275.36
782.7059, 16907.13
784.6344, 15808.89
786.5629, 14891.73
788.4913, 14178.55
790.4198, 13572.27
792.3483, 13087.22
794.2767, 12686.57
796.2052, 12285.21
798.1337, 11868.80
800.0621, 11473.20
801.9906, 11100.78
803.9191, 10755.34
805.8475, 10442.40
807.7760, 10162.54
809.7045, 9908.253
811.6329, 9678.143
813.5614, 9470.137
815.4899, 9284.833
817.4183, 9129.897
819.3468, 8991.291
821.2753, 8868.670
823.2037, 8761.692
825.1322, 8662.159
827.0607, 8570.013
828.9891, 8486.052
830.9176, 8413.400
832.8461, 8350.544
834.7745, 8293.413
836.7030, 8236.325
838.6315, 8194.687
840.5599, 8171.819
842.4884, 8167.490
844.4169, 8180.565
846.3453, 8198.591
848.2738, 8241.369
850.2023, 8317.991
852.1307, 8423.408
854.0592, 8548.166
855.9877, 8692.120
857.9161, 8855.720
859.8446, 9046.339
861.7731, 9260.199
863.7015, 9465.313
865.6300, 9671.245
867.5585, 9861.021
869.4869, 10023.78
871.4154, 10166.30
873.3439, 10305.27
875.2723, 10435.56
877.2008, 10575.59
879.1293, 10718.22
881.0577, 10872.61
882.9862, 11078.96
884.9147, 11341.86
886.8431, 11653.10
888.7716, 12025.66
890.7001, 12448.55
892.6285, 12891.45
894.5570, 13384.08
896.4855, 13832.95
898.4139, 14247.04
900.3424, 14591.26
902.2709, 14774.05
904.1993, 14777.46
906.1278, 14624.12
908.0563, 14264.37
909.9847, 13763.02
911.9132, 13234.99
913.8417, 12658.00
915.7701, 12111.86
917.6986, 11601.95
919.6271, 11145.98
921.5555, 10761.76
923.4840, 10458.39
925.4125, 10212.53
927.3410, 10032.86
929.2695, 9896.723
931.1979, 9783.784
933.1264, 9707.504
935.0549, 9624.795
936.9833, 9544.000
938.9118, 9445.435
940.8403, 9310.813
942.7687, 9138.212
944.6972, 8948.169
946.6257, 8728.125
948.5541, 8504.582
950.4826, 8291.827
952.4111, 8090.485
954.3395, 7906.492
956.2680, 7739.030
958.1965, 7589.530
960.1249, 7459.001
962.0534, 7347.214
963.9819, 7251.792
965.9103, 7176.335
967.8388, 7109.771
969.7673, 7048.531
971.6957, 6991.501
973.6242, 6934.628
975.5527, 6875.955
977.4811, 6822.118
979.4096, 6777.865
981.3381, 6741.869
983.2665, 6707.583
985.1950, 6674.738
987.1235, 6645.662
989.0519, 6620.341
990.9804, 6598.880
992.9089, 6581.585
994.8373, 6569.104
996.7658, 6555.202
998.6943, 6535.417
1000.623, 6514.124
1002.551, 6495.579
1004.480, 6480.313
1006.408, 6467.874
1008.337, 6463.446
1010.265, 6459.005
1012.194, 6447.274
1014.122, 6429.392
1016.050, 6416.083
1017.979, 6411.311
1019.907, 6407.822
1021.836, 6400.237
1023.764, 6388.760
1025.693, 6383.122
1027.621, 6389.873
1029.550, 6394.291
1031.478, 6393.032
1033.407, 6387.091
1035.335, 6378.781
1037.264, 6366.670
1039.192, 6356.186
1041.120, 6350.219
1043.049, 6345.953
1044.977, 6339.842
1046.906, 6331.139
1048.834, 6324.161
1050.763, 6322.158
1052.691, 6320.352
1054.620, 6314.896
1056.548, 6304.392
1058.477, 6299.309
1060.405, 6305.209
1062.334, 6311.142
1064.262, 6310.171
1066.191, 6304.603
1068.119, 6305.008
1070.047, 6315.117
1071.976, 6323.000
1073.904, 6321.227
1075.833, 6314.446
1077.761, 6310.980
1079.690, 6312.459
1081.618, 6313.961
1083.547, 6316.422
1085.475, 6318.517
1087.404, 6318.967
1089.332, 6317.600
1091.261, 6315.956
1093.189, 6312.216
1095.118, 6309.362
1097.046, 6309.366
1098.975, 6311.138
1100.903, 6311.802
1102.832, 6311.179
1104.760, 6308.651
1106.688, 6303.347
1108.617, 6296.708
1110.545, 6291.463
1112.474, 6289.327
1114.402, 6287.232
1116.331, 6282.612
1118.259, 6280.237
1120.188, 6286.955
1122.116, 6304.127
1124.045, 6313.687
1125.973, 6307.782
1127.902, 6300.577
1129.830, 6297.211
1131.759, 6297.272
1133.687, 6302.643
1135.615, 6319.579
1137.544, 6328.813
1139.472, 6322.094
1141.401, 6307.458
1143.329, 6295.487
1145.258, 6285.792
1147.186, 6281.177
1149.115, 6286.771
1151.043, 6292.825
1152.972, 6291.607
1154.900, 6283.532
1156.829, 6277.718
1158.757, 6275.365
1160.686, 6273.354
1162.614, 6269.865
1164.542, 6266.596
1166.471, 6267.076
1168.399, 6273.892
1170.328, 6278.430
1172.256, 6277.443
1174.185, 6275.385
1176.113, 6274.978
1178.042, 6275.937
1179.970, 6277.545
1181.899, 6277.849
1183.827, 6279.586
1185.756, 6286.597
1187.684, 6295.053
1189.613, 6295.471
1191.541, 6285.866
1193.469, 6277.691
1195.398, 6274.406
1197.326, 6274.581
1199.255, 6277.554
1201.183, 6283.293
1203.112, 6288.147
1205.040, 6290.873
1206.969, 6292.064
1208.897, 6289.719
1210.826, 6285.290
1212.754, 6283.618
1214.683, 6290.952
1216.611, 6293.093
1218.540, 6287.427
1220.468, 6280.398
1222.396, 6276.906
1224.325, 6277.576
1226.253, 6282.730
1228.182, 6294.583
1230.110, 6306.442
1232.039, 6312.287
1233.967, 6315.317
1235.896, 6321.881
1237.824, 6332.488
1239.753, 6339.731
1241.681, 6342.639
1243.610, 6341.161
1245.538, 6334.084
1247.467, 6322.205
1249.395, 6314.307
1251.323, 6316.333
1253.252, 6317.014
1255.180, 6313.094
1257.109, 6307.948
1259.037, 6306.584
1260.966, 6309.493
1262.894, 6309.804
1264.823, 6302.732
1266.751, 6296.428
1268.680, 6295.989
1270.608, 6299.186
1272.537, 6301.526
1274.465, 6303.431
1276.394, 6303.188
1278.322, 6297.033
1280.250, 6291.840
1282.179, 6293.302
1284.107, 6302.341
1286.036, 6311.202
1287.964, 6320.727
1289.893, 6328.718
1291.821, 6332.174
1293.750, 6334.023
1295.678, 6339.369
1297.607, 6349.166
1299.535, 6357.481
1301.464, 6364.592
1303.392, 6369.151
1305.321, 6368.768
1307.249, 6365.374
1309.177, 6364.854
1311.106, 6368.920
1313.034, 6371.261
1314.963, 6370.245
1316.891, 6367.474
1318.820, 6363.002
1320.748, 6357.365
1322.677, 6355.697
1324.605, 6362.274
1326.534, 6365.663
1328.462, 6359.115
1330.391, 6349.667
1332.319, 6346.101
1334.248, 6350.875
1336.176, 6351.144
1338.104, 6343.343
1340.033, 6336.813
1341.961, 6336.759
1343.890, 6340.037
1345.818, 6339.248
1347.747, 6332.500
1349.675, 6330.525
1351.604, 6338.792
1353.532, 6346.113
1355.461, 6347.214
1357.389, 6342.167
1359.318, 6330.006
1361.246, 6307.880
1363.175, 6294.200
1365.103, 6303.835
1367.031, 6314.430
1368.960, 6310.331
1370.888, 6294.842
1372.817, 6285.956
1374.745, 6285.820
1376.674, 6286.670
1378.602, 6285.361
1380.531, 6283.710
1382.459, 6283.983
1384.388, 6286.192
1386.316, 6285.029
1388.245, 6276.743
1390.173, 6271.849
1392.102, 6277.037
1394.030, 6283.617
1395.958, 6282.377
1397.887, 6272.687
1399.815, 6263.095
1401.744, 6252.294
1403.672, 6242.595
1405.601, 6232.036
1407.529, 6224.642
1409.458, 6228.100
1411.386, 6241.697
1413.315, 6249.069
1415.243, 6246.566
1417.172, 6242.259
1419.100, 6237.433
1421.029, 6233.114
1422.957, 6230.283
1424.885, 6228.502
1426.814, 6227.524
1428.742, 6229.233
1430.671, 6228.190
1432.599, 6219.555
1434.528, 6209.795
1436.456, 6207.995
1438.385, 6216.778
1440.313, 6221.440
1442.242, 6219.291
1444.170, 6215.798
1446.099, 6211.057
1448.027, 6205.889
1449.956, 6201.767
1451.884, 6199.231
1453.813, 6194.787
1455.741, 6184.985
1457.669, 6178.414
1459.598, 6181.750
1461.526, 6187.300
1463.455, 6184.115
1465.383, 6171.659
1467.312, 6163.662
1469.240, 6162.935
1471.169, 6162.026
1473.097, 6157.628
1475.026, 6151.989
1476.954, 6148.201
1478.883, 6145.819
1480.811, 6140.875
1482.740, 6132.734
1484.668, 6124.878
1486.596, 6119.439
1488.525, 6115.733
1490.453, 6111.883
1492.382, 6108.604
1494.310, 6110.864
1496.239, 6120.193
1498.167, 6127.994
1500.096, 6130.036
1502.024, 6127.949
1503.953, 6121.939
1505.881, 6112.210
1507.810, 6101.909
1509.738, 6092.477
1511.667, 6083.315
1513.595, 6075.921
1515.523, 6070.299
1517.452, 6067.962
1519.380, 6067.678
1521.309, 6064.085
1523.237, 6051.902
1525.166, 6045.200
1527.094, 6047.765
1529.023, 6049.491
1530.951, 6045.935
1532.880, 6038.850
1534.808, 6030.831
1536.737, 6020.772
1538.665, 6016.599
1540.594, 6022.958
1542.522, 6030.000
1544.450, 6034.886
1546.379, 6039.053
1548.307, 6045.516
1550.236, 6054.114
1552.164, 6054.484
1554.093, 6041.897
1556.021, 6028.802
1557.950, 6016.582
1559.878, 6005.791
1561.807, 5997.316
1563.735, 5990.701
1565.664, 5983.915
1567.592, 5976.760
1569.521, 5970.782
1571.449, 5966.728
1573.377, 5963.658
1575.306, 5961.943
1577.234, 5960.657
1579.163, 5957.931
1581.091, 5953.852
1583.020, 5951.385
1584.948, 5951.589
1586.877, 5952.758
1588.805, 5957.456
1590.734, 5960.648
1592.662, 5956.271
1594.591, 5945.788
1596.519, 5937.568
1598.448, 5932.116
1600.376, 5927.262
1602.304, 5923.236
1604.233, 5917.167
1606.161, 5906.136
1608.090, 5891.523
1610.018, 5876.896
1611.947, 5862.382
1613.875, 5847.682
1615.804, 5834.414
1617.732, 5820.636
1619.661, 5805.946
1621.589, 5791.976
1623.518, 5779.358
1625.446, 5768.637
1627.375, 5763.888
1629.303, 5767.701
1631.231, 5768.808
1633.160, 5758.067
1635.088, 5748.445
1637.017, 5748.028
1638.945, 5752.448
1640.874, 5753.700
1642.802, 5752.664
1644.731, 5744.760
1646.659, 5725.409
1648.588, 5708.226
1650.516, 5697.519
1652.445, 5690.939
1654.373, 5687.126
1656.302, 5685.493
1658.230, 5682.979
1660.158, 5678.316
1662.087, 5674.550
1664.015, 5674.275
1665.944, 5671.760
1667.872, 5663.607
1669.801, 5652.872
1671.729, 5643.740
1673.658, 5636.608
1675.586, 5629.331
1677.515, 5621.321
1679.443, 5615.229
1681.372, 5613.026
1683.300, 5611.407
1685.229, 5608.370
1687.157, 5604.380
1689.085, 5600.271
1691.014, 5595.256
1692.942, 5591.116
1694.871, 5590.217
1696.799, 5585.366
1698.728, 5572.253
1700.656, 5558.013
1702.585, 5547.742
1704.513, 5541.194
1706.442, 5537.336
1708.370, 5538.671
1710.299, 5534.893
1712.227, 5519.136
1714.156, 5506.758
1716.084, 5502.942
1718.012, 5501.851
1719.941, 5497.932
1721.869, 5492.179
1723.798, 5490.722
1725.726, 5496.165
1727.655, 5497.742
1729.583, 5495.063
1731.512, 5488.169
1733.440, 5473.761
1735.369, 5458.306
1737.297, 5447.681
1739.226, 5441.426
1741.154, 5436.499
1743.083, 5433.420
1745.011, 5429.847
1746.939, 5423.330
1748.868, 5418.979
1750.797, 5419.884
1752.725, 5421.317
1754.653, 5419.010
1756.582, 5412.994
1758.510, 5404.633
1760.439, 5392.995
1762.367, 5383.647
1764.296, 5380.416
1766.224, 5375.528
1768.153, 5366.710
1770.081, 5356.315
1772.010, 5345.316
1773.938, 5334.590
1775.867, 5326.634
1777.795, 5321.510
1779.724, 5318.790
1781.652, 5320.810
1783.580, 5319.614
1785.509, 5306.353
1787.437, 5294.258
1789.366, 5295.512
1791.294, 5303.458
1793.223, 5301.945
1795.151, 5290.549
1797.080, 5280.958
1799.008, 5275.288
1800.937, 5269.539
1802.865, 5261.934
1804.794, 5255.415
1806.722, 5254.429
1808.651, 5254.737
1810.579, 5249.263
1812.507, 5238.484
1814.436, 5227.477
1816.364, 5215.564
1818.293, 5206.041
1820.221, 5199.510
1822.150, 5195.033
1824.078, 5195.261
1826.007, 5195.298
1827.935, 5188.668
1829.864, 5177.513
1831.792, 5168.531
1833.721, 5161.594
1835.649, 5160.875
1837.578, 5173.963
1839.506, 5181.443
1841.434, 5170.258
1843.363, 5156.776
1845.291, 5154.779
1847.220, 5159.155
1849.148, 5158.511
1851.077, 5152.161
1853.005, 5146.083
1854.934, 5140.896
1856.862, 5135.311
1858.791, 5130.010
1860.719, 5123.640
1862.648, 5115.114
1864.576, 5105.600
1866.505, 5095.797
1868.433, 5086.049
1870.361, 5078.819
1872.290, 5074.669
1874.218, 5071.787
1876.147, 5074.729
1878.075, 5072.786
1880.004, 5058.077
1881.932, 5044.509
1883.861, 5043.081
1885.789, 5047.404
1887.718, 5045.302
1889.646, 5036.339
1891.575, 5031.322
1893.503, 5030.806
1895.432, 5030.481
1897.360, 5032.885
1899.288, 5030.314
1901.217, 5017.688
1903.145, 5002.893
1905.074, 4991.834
1907.002, 4983.835
1908.931, 4976.420
1910.859, 4969.687
1912.788, 4965.778
1914.716, 4964.540
1916.645, 4963.492
1918.573, 4960.635
1920.502, 4958.180
1922.430, 4958.665
1924.359, 4958.422
1926.287, 4954.913
1928.215, 4948.696
1930.144, 4939.583
1932.072, 4927.744
1934.001, 4920.256
1935.929, 4920.799
1937.858, 4918.263
1939.786, 4909.194
1941.715, 4899.307
1943.643, 4887.780
1945.572, 4878.853
1947.500, 4878.272
1949.429, 4882.386
1951.357, 4882.280
1953.286, 4877.354
1955.214, 4872.247
1957.142, 4867.241
1959.071, 4861.184
1960.999, 4855.177
1962.928, 4846.933
1964.856, 4834.667
1966.785, 4822.028
1968.713, 4809.492
1970.642, 4799.753
1972.570, 4800.153
1974.499, 4808.678
1976.427, 4808.971
1978.356, 4798.302
1980.284, 4793.269
1982.213, 4799.502
1984.141, 4803.717
1986.069, 4799.964
1987.998, 4793.665
1989.926, 4786.604
1991.855, 4779.667
1993.783, 4774.745
1995.712, 4771.115
1997.640, 4765.342
1999.569, 4756.984
2001.497, 4750.282
2003.426, 4744.103
2005.354, 4741.892
2007.283, 4750.683
2009.211, 4754.289
2011.140, 4741.765
2013.068, 4726.061
2014.996, 4718.053
2016.925, 4714.851
2018.853, 4711.631
2020.782, 4708.442
2022.710, 4700.197
2024.639, 4685.349
2026.567, 4676.125
2028.496, 4676.224
2030.424, 4676.122
2032.353, 4672.525
2034.281, 4667.969
2036.210, 4663.640
2038.138, 4659.000
2040.067, 4653.133
2041.995, 4646.635
2043.923, 4640.956
2045.852, 4636.058
2047.780, 4631.771
2049.709, 4628.781
2051.637, 4624.165
2053.566, 4616.687
2055.494, 4608.972
2057.423, 4602.360
2059.351, 4595.240
2061.280, 4587.132
2063.208, 4578.701
2065.136, 4569.643
2067.065, 4561.461
2068.993, 4558.124
2070.922, 4559.433
2072.850, 4560.882
2074.779, 4561.794
2076.708, 4561.221
2078.636, 4557.815
2080.564, 4553.080
2082.493, 4546.342
2084.421, 4539.499
2086.350, 4536.446
2088.278, 4532.187
2090.207, 4520.558
2092.135, 4506.001
2094.064, 4496.499
2095.992, 4492.061
2097.921, 4489.927
2099.849, 4491.542
2101.778, 4489.354
2103.706, 4481.853
2105.635, 4471.621
2107.563, 4454.352
2109.491, 4440.703
2111.420, 4437.596
2113.348, 4436.355
2115.277, 4433.849
2117.205, 4429.002
2119.134, 4417.680
2121.062, 4403.269
2122.991, 4394.610
2124.919, 4391.412
2126.848, 4392.248
2128.776, 4398.445
2130.705, 4400.318
2132.633, 4393.696
2134.562, 4386.760
2136.490, 4380.295
2138.418, 4375.030
2140.347, 4374.655
2142.275, 4372.675
2144.204, 4361.335
2146.132, 4347.026
2148.061, 4340.159
2149.989, 4339.236
2151.918, 4336.979
2153.846, 4333.451
2155.775, 4331.486
2157.703, 4331.447
2159.632, 4329.814
2161.560, 4325.110
2163.489, 4319.504
2165.417, 4314.092
2167.345, 4306.538
2169.274, 4293.063
2171.202, 4280.331
2173.131, 4275.200
2175.059, 4273.211
2176.988, 4268.980
2178.916, 4263.045
2180.845, 4255.470
2182.773, 4246.506
2184.702, 4241.594
2186.630, 4241.236
2188.559, 4238.936
2190.487, 4233.096
2192.416, 4226.930
2194.344, 4220.034
2196.272, 4214.498
2198.201, 4213.420
2200.129, 4211.146
2202.058, 4202.522
2203.986, 4193.565
2205.915, 4192.697
2207.843, 4193.890
2209.772, 4185.084
2211.700, 4168.847
2213.629, 4157.975
2215.557, 4152.653
2217.486, 4145.162
2219.414, 4134.877
2221.343, 4127.212
2223.271, 4123.048
2225.199, 4120.843
2227.128, 4121.584
2229.056, 4120.965
2230.985, 4115.470
2232.913, 4110.095
2234.842, 4109.076
2236.770, 4107.972
2238.699, 4101.033
2240.627, 4092.944
2242.556, 4092.518
2244.484, 4096.982
2246.413, 4096.468
2248.341, 4091.157
2250.270, 4082.251
2252.198, 4069.231
2254.126, 4064.970
2256.055, 4074.049
2257.983, 4075.839
2259.912, 4061.128
2261.840, 4048.710
2263.769, 4045.032
2265.697, 4041.500
2267.626, 4034.456
2269.554, 4027.047
2271.483, 4024.104
2273.411, 4019.828
2275.340, 4005.720
2277.268, 3988.904
2279.197, 3981.263
2281.125, 3980.330
2283.053, 3980.015
2284.982, 3979.537
2286.910, 3973.194
2288.839, 3958.548
2290.767, 3951.308
2292.696, 3958.062
2294.624, 3958.876
2296.553, 3948.919
2298.481, 3940.503
2300.410, 3936.974
2302.338, 3932.804
2304.267, 3927.200
2306.195, 3920.022
2308.124, 3909.270
2310.052, 3899.532
2311.980, 3894.015
2313.909, 3891.594
2315.837, 3892.390
2317.766, 3894.284
2319.694, 3892.420
2321.623, 3887.716
2323.551, 3885.746
2325.480, 3886.398
2327.408, 3882.453
2329.337, 3873.483
2331.265, 3867.514
2333.194, 3866.439
2335.122, 3858.814
2337.051, 3839.130
2338.979, 3825.366
2340.907, 3829.692
2342.836, 3829.155
2344.764, 3812.263
2346.693, 3797.841
2348.621, 3793.940
2350.550, 3794.222
2352.478, 3796.758
2354.407, 3798.278
2356.335, 3795.636
2358.264, 3789.743
2360.192, 3781.901
2362.121, 3772.381
2364.049, 3761.886
2365.978, 3750.924
2367.906, 3738.402
2369.834, 3725.060
2371.763, 3718.983
2373.691, 3721.496
2375.620, 3721.007
2377.548, 3716.213
2379.477, 3711.499
2381.405, 3707.051
2383.334, 3700.934
2385.262, 3691.174
2387.191, 3684.288
2389.119, 3687.861
2391.048, 3686.676
2392.976, 3672.147
2394.905, 3658.580
2396.833, 3651.451
2398.761, 3647.848
2400.690, 3646.794
2402.618, 3646.862
2404.547, 3648.910
2406.475, 3649.260
2408.404, 3642.067
2410.332, 3631.916
2412.261, 3626.963
2414.189, 3625.103
2416.118, 3620.738
2418.046, 3614.325
2419.975, 3606.339
2421.903, 3597.101
2423.832, 3593.204
2425.760, 3594.462
2427.688, 3591.695
2429.617, 3583.548
2431.545, 3578.366
2433.474, 3578.987
2435.402, 3576.108
2437.331, 3567.104
2439.259, 3557.999
2441.188, 3548.009
2443.116, 3541.269
2445.045, 3541.466
2446.973, 3539.239
2448.902, 3529.133
2450.830, 3519.676
2452.759, 3514.832
2454.687, 3511.162
2456.615, 3505.566
2458.544, 3501.578
2460.472, 3505.091
2462.401, 3508.325
2464.329, 3503.385
2466.258, 3495.121
2468.186, 3487.133
2470.115, 3481.021
2472.043, 3480.777
2473.972, 3482.552
2475.900, 3477.638
2477.829, 3468.032
2479.757, 3461.808
2481.686, 3458.091
2483.614, 3450.567
2485.542, 3440.051
2487.471, 3434.175
2489.399, 3432.978
2491.328, 3426.866
2493.256, 3414.867
2495.185, 3406.784
2497.113, 3403.527
2499.042, 3402.896
2500.970, 3407.343
2502.899, 3405.516
2504.827, 3394.030
2506.756, 3384.937
2508.684, 3381.317
2510.613, 3376.038
2512.541, 3366.843
2514.469, 3357.856
2516.398, 3349.430
2518.326, 3343.351
2520.255, 3342.345
2522.183, 3340.509
2524.112, 3333.919
2526.040, 3328.713
2527.969, 3329.028
2529.897, 3328.815
2531.826, 3324.190
2533.754, 3318.604
2535.683, 3314.831
2537.611, 3310.713
2539.540, 3302.879
2541.468, 3295.565
2543.396, 3293.247
2545.325, 3292.531
2547.253, 3289.917
2549.182, 3286.296
2551.110, 3283.825
2553.039, 3280.481
2554.967, 3271.423
2556.896, 3260.683
2558.824, 3257.451
2560.753, 3258.484
2562.681, 3255.193
2564.610, 3249.381
2566.538, 3244.685
2568.467, 3241.005
2570.395, 3238.223
2572.323, 3235.877
2574.252, 3233.381
2576.180, 3230.418
2578.109, 3225.790
2580.037, 3219.902
2581.966, 3218.138
2583.894, 3220.044
2585.823, 3211.521
2587.751, 3191.255
2589.680, 3185.837
2591.608, 3199.351
2593.537, 3203.068
2595.465, 3194.891
2597.394, 3190.301
2599.322, 3189.874
2601.250, 3188.986
2603.179, 3186.891
2605.107, 3185.927
2607.036, 3189.857
2608.964, 3184.558
2610.893, 3163.884
2612.821, 3152.951
2614.750, 3155.708
2616.678, 3158.475
2618.607, 3160.189
2620.535, 3157.552
2622.464, 3148.099
2624.392, 3138.157
2626.321, 3127.578
2628.249, 3118.023
2630.177, 3108.529
2632.106, 3103.827
2634.034, 3106.734
2635.963, 3109.119
2637.891, 3109.425
2639.820, 3108.110
2641.748, 3105.990
2643.677, 3100.829
2645.605, 3088.943
2647.534, 3080.312
2649.462, 3077.930
2651.391, 3076.067
2653.319, 3072.757
2655.248, 3069.433
2657.176, 3066.246
2659.104, 3063.356
2661.033, 3062.827
2662.961, 3059.456
2664.890, 3050.751
2666.818, 3042.526
2668.747, 3035.520
2670.675, 3032.618
2672.604, 3040.489
2674.532, 3043.997
2676.461, 3033.749
2678.389, 3024.277
2680.318, 3019.061
2682.246, 3016.014
2684.175, 3016.618
2686.103, 3014.397
2688.031, 3003.184
2689.960, 2994.305
2691.888, 2995.872
2693.817, 2995.217
2695.745, 2987.935
2697.674, 2979.402
2699.602, 2969.352
2701.531, 2962.866
2703.459, 2964.176
2705.388, 2965.852
2707.316, 2965.560
2709.245, 2963.768
2711.173, 2958.654
2713.102, 2955.631
2715.030, 2959.382
2716.958, 2960.210
2718.887, 2950.362
2720.815, 2943.027
2722.744, 2946.949
2724.672, 2947.499
2726.601, 2938.688
2728.529, 2931.141
2730.458, 2929.320
2732.386, 2927.733
2734.315, 2925.128
2736.243, 2920.870
2738.172, 2910.872
2740.100, 2905.702
2742.029, 2910.864
2743.957, 2912.706
2745.885, 2905.662
2747.814, 2898.950
2749.742, 2895.730
2751.671, 2893.007
2753.599, 2890.444
2755.528, 2887.866
2757.456, 2884.430
2759.385, 2882.661
2761.313, 2884.003
2763.242, 2883.681
2765.170, 2879.419
2767.099, 2874.846
2769.027, 2869.526
2770.956, 2866.747
2772.884, 2868.710
2774.813, 2866.012
2776.741, 2855.620
2778.669, 2845.821
2780.598, 2836.961
2782.526, 2831.538
2784.455, 2830.540
2786.383, 2827.516
2788.312, 2821.151
2790.240, 2816.446
2792.169, 2813.729
2794.097, 2812.035
2796.026, 2811.430
2797.954, 2810.302
2799.883, 2808.676
2801.811, 2804.180
2803.740, 2796.826
2805.668, 2789.522
2807.596, 2782.438
2809.525, 2778.500
2811.453, 2777.437
2813.382, 2774.328
2815.310, 2769.478
2817.239, 2765.692
2819.167, 2762.708
2821.096, 2758.462
2823.024, 2753.417
2824.953, 2749.390
2826.881, 2746.364
2828.810, 2744.991
2830.738, 2744.275
2832.667, 2742.381
2834.595, 2739.437
2836.523, 2735.474
2838.452, 2731.192
2840.380, 2726.844
2842.309, 2723.983
2844.237, 2727.061
2846.166, 2729.824
2848.094, 2722.979
2850.023, 2713.908
2851.951, 2709.484
2853.880, 2706.805
2855.808, 2704.581
2857.737, 2701.991
2859.665, 2697.930
2861.594, 2694.435
2863.522, 2693.772
2865.450, 2692.581
2867.379, 2688.817
2869.307, 2685.296
2871.236, 2683.897
2873.164, 2681.578
2875.093, 2675.930
2877.021, 2671.513
2878.950, 2669.476
2880.878, 2667.894
2882.807, 2666.779
2884.735, 2664.954
2886.664, 2662.296
2888.592, 2658.363
2890.521, 2652.202
2892.449, 2651.362
2894.377, 2657.103
2896.306, 2655.634
2898.234, 2644.627
2900.163, 2634.757
2902.091, 2625.902
2904.020, 2627.245
2905.948, 2636.483
2907.877, 2638.682
2909.805, 2635.122
2911.734, 2631.148
2913.662, 2627.411
2915.591, 2627.479
2917.519, 2628.198
2919.448, 2621.139
2921.376, 2612.397
2923.304, 2612.625
2925.233, 2614.075
2927.161, 2605.380
2929.090, 2596.313
2931.018, 2596.988
2932.947, 2597.896
2934.875, 2590.578
2936.804, 2584.434
2938.732, 2587.250
2940.661, 2587.970
2942.589, 2582.375
2944.518, 2575.389
2946.446, 2567.352
2948.375, 2561.186
2950.303, 2558.238
2952.231, 2555.770
2954.160, 2553.831
2956.088, 2549.840
2958.017, 2542.357
2959.945, 2539.874
2961.874, 2543.194
2963.802, 2547.941
2965.731, 2553.201
2967.659, 2546.009
2969.588, 2529.692
2971.516, 2520.006
2973.445, 2516.418
2975.373, 2520.227
2977.302, 2526.158
2979.230, 2522.627
2981.158, 2515.877
2983.087, 2513.691
2985.015, 2512.015
2986.944, 2506.705
2988.872, 2501.016
2990.801, 2495.751
2992.729, 2493.398
2994.658, 2499.772
2996.586, 2501.578
2998.515, 2490.012
3000.443, 2481.817
3002.372, 2480.665
3004.300, 2480.219
3006.229, 2480.716
3008.157, 2477.091
3010.085, 2468.519
3012.014, 2461.970
3013.942, 2457.789
3015.871, 2456.741
3017.799, 2458.229
3019.728, 2459.176
3021.656, 2458.915
3023.585, 2453.122
3025.513, 2446.117
3027.442, 2445.814
3029.370, 2447.910
3031.299, 2447.029
3033.227, 2445.511
3035.156, 2446.011
3037.084, 2445.388
3039.012, 2441.513
3040.941, 2436.644
3042.869, 2430.501
3044.798, 2426.391
3046.726, 2425.421
3048.655, 2425.120
3050.583, 2425.350
3052.512, 2424.771
3054.440, 2423.241
3056.369, 2422.354
3058.297, 2421.777
3060.226, 2415.575
3062.154, 2406.100
3064.083, 2405.159
3066.011, 2408.872
3067.939, 2408.912
3069.868, 2406.179
3071.796, 2400.743
3073.725, 2394.944
3075.653, 2391.878
3077.582, 2388.367
3079.510, 2381.966
3081.439, 2377.049
3083.367, 2376.405
3085.296, 2376.216
3087.224, 2376.365
3089.153, 2373.861
3091.081, 2367.586
3093.010, 2366.122
3094.938, 2370.758
3096.866, 2369.167
3098.795, 2362.366
3100.723, 2359.763
3102.652, 2359.861
3104.580, 2359.171
3106.509, 2357.980
3108.437, 2356.357
3110.366, 2354.793
3112.294, 2354.588
3114.223, 2353.271
3116.151, 2348.288
3118.080, 2344.100
3120.008, 2342.673
3121.937, 2341.392
3123.865, 2339.463
3125.793, 2339.759
3127.722, 2343.785
3129.650, 2343.474
3131.579, 2339.061
3133.507, 2334.283
3135.436, 2330.146
3137.364, 2331.134
3139.293, 2333.927
3141.221, 2332.128
3143.150, 2328.735
3145.078, 2324.629
3147.007, 2323.113
3148.935, 2328.475
3150.864, 2333.177
3152.792, 2335.978
3154.720, 2333.487
3156.649, 2321.993
3158.577, 2313.760
3160.506, 2309.804
3162.434, 2308.837
3164.363, 2310.164
3166.291, 2307.191
3168.220, 2301.906
3170.148, 2300.468
3172.077, 2300.833
3174.005, 2300.736
3175.934, 2299.868
3177.862, 2296.960
3179.791, 2295.239
3181.719, 2297.565
3183.647, 2298.431
3185.576, 2294.378
3187.504, 2294.966
3189.433, 2302.945
3191.361, 2305.828
3193.290, 2303.341
3195.218, 2299.087
3197.147, 2293.813
3199.075, 2290.207
3201.004, 2287.203
3202.932, 2282.591
3204.861, 2278.715
3206.789, 2277.918
3208.718, 2278.128
3210.646, 2278.210
3212.574, 2277.991
3214.503, 2276.085
3216.431, 2276.817
3218.360, 2281.757
3220.288, 2283.582
3222.217, 2282.286
3224.145, 2276.070
3226.074, 2268.074
3228.002, 2266.960
3229.931, 2268.688
3231.859, 2268.273
3233.788, 2266.974
3235.716, 2265.404
3237.645, 2263.148
3239.573, 2258.242
3241.501, 2257.667
3243.430, 2263.425
3245.358, 2269.140
3247.287, 2274.464
3249.215, 2275.424
3251.144, 2273.113
3253.072, 2271.488
3255.001, 2270.236
3256.929, 2269.392
3258.858, 2267.873
3260.786, 2262.767
3262.715, 2260.488
3264.643, 2265.396
3266.572, 2271.874
3268.500, 2280.403
3270.428, 2280.730
3272.357, 2271.408
3274.285, 2268.016
3276.214, 2269.465
3278.142, 2269.042
3280.071, 2267.991
3281.999, 2267.144
3283.928, 2268.023
3285.856, 2274.634
3287.785, 2278.921
3289.713, 2276.274
3291.642, 2276.270
3293.570, 2283.550
3295.499, 2285.612
3297.427, 2282.734
3299.355, 2284.911
3301.284, 2289.988
3303.212, 2290.472
3305.141, 2289.026
3307.069, 2289.073
3308.998, 2289.607
3310.926, 2289.276
3312.855, 2291.619
3314.783, 2299.192
3316.712, 2302.990
3318.640, 2300.686
3320.569, 2299.921
3322.497, 2300.990
3324.426, 2308.595
3326.354, 2318.191
3328.282, 2321.510
3330.211, 2322.219
3332.139, 2323.086
3334.068, 2324.108
3335.996, 2325.924
3337.925, 2327.176
3339.853, 2327.658
3341.782, 2327.989
3343.710, 2328.917
3345.639, 2338.446
3347.567, 2351.978
3349.496, 2357.086
3351.424, 2358.771
3353.353, 2360.900
3355.281, 2363.778
3357.209, 2367.795
3359.138, 2372.480
3361.066, 2377.827
3362.995, 2385.781
3364.923, 2396.676
3366.852, 2402.975
3368.780, 2407.060
3370.709, 2414.486
3372.637, 2423.457
3374.566, 2432.406
3376.494, 2441.021
3378.423, 2449.393
3380.351, 2456.131
3382.280, 2458.446
3384.208, 2468.711
3386.136, 2486.115
3388.065, 2499.637
3389.993, 2511.362
3391.922, 2527.499
3393.851, 2544.449
3395.779, 2559.156
3397.708, 2573.277
3399.636, 2586.825
3401.564, 2602.577
3403.493, 2621.229
3405.421, 2637.607
3407.350, 2652.372
3409.278, 2675.216
3411.207, 2700.456
3413.135, 2717.721
3415.064, 2733.783
3416.992, 2753.003
3418.921, 2774.815
3420.849, 2800.023
3422.778, 2823.890
3424.706, 2845.703
3426.635, 2868.790
3428.563, 2891.059
3430.491, 2904.673
3432.420, 2916.298
3434.348, 2936.326
3436.277, 2953.763
3438.205, 2963.016
3440.134, 2970.591
3442.062, 2978.014
3443.991, 2982.733
3445.919, 2984.698
3447.848, 2984.145
3449.776, 2982.173
3451.705, 2982.168
3453.633, 2979.371
3455.562, 2969.867
3457.490, 2958.239
3459.418, 2945.550
3461.347, 2933.041
3463.275, 2920.834
3465.204, 2907.622
3467.132, 2892.288
3469.061, 2868.733
3470.989, 2845.937
3472.918, 2833.031
3474.846, 2819.640
3476.775, 2801.609
3478.703, 2787.826
3480.632, 2779.739
3482.560, 2762.850
3484.489, 2740.713
3486.417, 2724.470
3488.345, 2709.417
3490.274, 2691.175
3492.202, 2672.689
3494.131, 2654.620
3496.059, 2637.778
3497.988, 2622.010
3499.916, 2605.206
3501.845, 2587.509
3503.773, 2570.411
3505.702, 2553.140
3507.630, 2535.955
3509.559, 2516.943
3511.487, 2493.712
3513.416, 2475.070
3515.344, 2461.915
3517.272, 2442.595
3519.201, 2420.502
3521.129, 2406.481
3523.058, 2394.392
3524.986, 2379.506
3526.915, 2362.445
3528.843, 2340.969
3530.772, 2323.723
3532.700, 2310.593
3534.629, 2293.399
3536.557, 2274.831
3538.486, 2264.316
3540.414, 2252.588
3542.343, 2230.333
3544.271, 2210.021
3546.199, 2195.905
3548.128, 2179.198
3550.056, 2159.852
3551.985, 2144.335
3553.913, 2130.546
3555.842, 2113.776
3557.770, 2098.443
3559.699, 2090.903
3561.627, 2076.999
3563.556, 2053.886
3565.484, 2038.248
3567.413, 2028.482
3569.341, 2012.321
3571.270, 1994.944
3573.198, 1983.710
3575.126, 1970.801
3577.055, 1951.510
3578.983, 1937.959
3580.912, 1932.103
3582.840, 1916.873
3584.769, 1897.479
3586.697, 1888.120
3588.626, 1880.143
3590.554, 1864.464
3592.483, 1853.344
3594.411, 1849.875
3596.340, 1844.298
3598.268, 1835.953
3600.197, 1822.537
3602.125, 1810.297
3604.053, 1811.868
3605.982, 1808.026
3607.910, 1788.781
3609.839, 1774.894
3611.767, 1769.781
3613.696, 1764.823
3615.624, 1759.767
3617.553, 1754.373
3619.481, 1748.211
3621.410, 1741.037
3623.338, 1732.740
3625.267, 1723.058
3627.195, 1713.698
3629.124, 1705.774
3631.052, 1706.714
3632.980, 1708.756
3634.909, 1703.043
3636.837, 1698.049
3638.766, 1696.858
3640.694, 1692.643
3642.623, 1685.297
3644.551, 1676.387
3646.480, 1668.349
3648.408, 1664.405
3650.337, 1662.806
3652.265, 1663.418
3654.194, 1662.003
3656.122, 1657.851
3658.051, 1653.222
3659.979, 1648.515
3661.907, 1644.945
3663.836, 1640.735
3665.764, 1634.314
3667.693, 1629.103
3669.621, 1625.855
3671.550, 1624.677
3673.478, 1624.479
3675.407, 1622.228
3677.335, 1619.904
3679.264, 1619.893
3681.192, 1617.376
3683.121, 1611.114
3685.049, 1603.397
3686.978, 1596.106
3688.906, 1596.665
3690.834, 1598.139
3692.763, 1594.604
3694.691, 1590.677
3696.620, 1586.933
3698.548, 1587.142
3700.477, 1589.839
3702.405, 1589.796
3704.334, 1588.186
3706.262, 1585.346
3708.191, 1581.762
3710.119, 1577.301
3712.048, 1574.707
3713.976, 1573.008
3715.905, 1567.094
3717.833, 1561.332
3719.761, 1560.409
3721.690, 1559.148
3723.618, 1556.598
3725.547, 1553.805
3727.475, 1551.125
3729.404, 1550.351
3731.332, 1549.145
3733.261, 1544.480
3735.189, 1541.614
3737.118, 1541.567
3739.046, 1539.708
3740.975, 1536.617
3742.903, 1534.115
3744.832, 1531.758
3746.760, 1528.519
3748.688, 1527.276
3750.617, 1528.316
3752.545, 1525.547
3754.474, 1521.010
3756.402, 1519.722
3758.331, 1519.095
3760.259, 1517.911
3762.188, 1515.395
3764.116, 1511.767
3766.045, 1515.919
3767.973, 1521.182
3769.902, 1513.158
3771.830, 1505.615
3773.759, 1506.836
3775.687, 1505.055
3777.615, 1500.662
3779.544, 1499.220
3781.472, 1499.055
3783.401, 1498.333
3785.329, 1496.924
3787.258, 1494.582
3789.186, 1490.985
3791.115, 1486.875
3793.043, 1485.414
3794.972, 1484.494
3796.900, 1481.930
3798.829, 1481.138
3800.757, 1483.819
3802.686, 1482.532
3804.614, 1478.585
3806.542, 1473.780
3808.471, 1470.127
3810.399, 1468.822
3812.328, 1467.091
3814.256, 1464.553
3816.185, 1462.548
3818.113, 1461.669
3820.042, 1463.363
3821.970, 1465.471
3823.899, 1467.643
3825.827, 1469.575
3827.756, 1469.736
3829.684, 1457.612
3831.613, 1445.579
3833.541, 1443.566
3835.469, 1444.653
3837.398, 1447.674
3839.326, 1449.142
3841.255, 1448.597
3843.183, 1443.654
3845.112, 1439.875
3847.040, 1440.922
3848.969, 1440.046
3850.897, 1437.349
3852.826, 1435.930
3854.754, 1433.462
3856.683, 1426.323
3858.611, 1422.853
3860.540, 1424.996
3862.468, 1427.044
3864.396, 1427.679
3866.325, 1422.736
3868.253, 1419.258
3870.182, 1420.859
3872.110, 1421.214
3874.039, 1420.136
3875.967, 1419.571
3877.896, 1418.697
3879.824, 1415.843
3881.753, 1415.316
3883.681, 1418.297
3885.610, 1416.127
3887.538, 1411.737
3889.467, 1409.466
3891.395, 1408.033
3893.323, 1406.860
3895.252, 1408.348
3897.180, 1410.490
3899.109, 1402.679
3901.037, 1394.968
3902.966, 1394.398
3904.894, 1397.427
3906.823, 1402.745
3908.751, 1402.528
3910.680, 1399.599
3912.608, 1396.551
3914.537, 1394.490
3916.465, 1393.630
3918.394, 1395.365
3920.322, 1396.906
3922.250, 1391.285
3924.179, 1385.629
3926.107, 1382.874
3928.036, 1382.228
3929.964, 1382.774
3931.893, 1380.632
3933.821, 1377.810
3935.750, 1375.258
3937.678, 1374.631
3939.607, 1375.936
3941.535, 1373.260
3943.464, 1370.129
3945.392, 1371.102
3947.321, 1370.864
3949.249, 1368.314
3951.177, 1367.206
3953.106, 1365.916
3955.034, 1359.614
3956.963, 1355.675
3958.891, 1358.703
3960.820, 1359.353
3962.748, 1358.022
3964.677, 1355.959
3966.605, 1353.158
3968.534, 1348.893
3970.462, 1348.424
3972.391, 1350.749
3974.319, 1347.651
3976.248, 1344.686
3978.176, 1347.206
3980.104, 1346.581
3982.033, 1342.293
3983.961, 1340.788
3985.890, 1340.210
3987.818, 1338.144
3989.747, 1337.833
3991.675, 1339.526
3993.604, 1342.658
3995.532, 1343.117
3997.461, 1332.306
3999.389, 1326.912
4001.318, 1331.916
4003.246, 1341.054
4005.175, 1347.448
4007.103, 1336.373
4009.031, 1326.635
4010.960, 1324.248
4012.888, 1321.443
4014.817, 1318.205
4016.745, 1313.762
4018.674, 1312.227
4020.602, 1315.120
4022.531, 1317.852
4024.459, 1319.926
4026.388, 1321.776
4028.316, 1320.823
4030.245, 1314.307
4032.173, 1308.728
4034.102, 1305.035
4036.030, 1306.805
4037.958, 1307.863
4039.887, 1305.192
4041.815, 1301.128
4043.744, 1297.234
4045.672, 1297.999
4047.601, 1299.735
4049.529, 1301.047
4051.458, 1297.795
4053.386, 1291.790
4055.315, 1291.987
4057.243, 1292.385
4059.172, 1289.109
4061.100, 1287.051
4063.029, 1286.120
4064.957, 1283.812
4066.885, 1283.301
4068.814, 1287.217
4070.742, 1288.038
4072.671, 1286.082
4074.599, 1285.511
4076.528, 1282.277
4078.456, 1273.252
4080.385, 1271.209
4082.313, 1274.679
4084.242, 1276.412
4086.170, 1275.930
4088.099, 1271.745
4090.027, 1269.311
4091.956, 1268.727
4093.884, 1270.584
4095.813, 1271.706
4097.741, 1270.875
4099.669, 1266.293
4101.598, 1260.873
4103.526, 1262.611
4105.455, 1263.292
4107.383, 1259.042
4109.312, 1266.469
4111.240, 1277.107
4113.169, 1269.018
4115.097, 1260.505
4117.026, 1257.609
4118.954, 1255.165
4120.883, 1252.787
4122.811, 1250.349
4124.740, 1247.564
4126.668, 1243.605
4128.597, 1246.473
4130.525, 1251.305
4132.454, 1251.950
4134.382, 1250.028
4136.311, 1245.815
4138.239, 1241.416
4140.167, 1238.693
4142.096, 1240.028
4144.024, 1242.709
4145.953, 1245.516
4147.881, 1242.311
4149.810, 1238.767
4151.738, 1239.945
4153.667, 1238.544
4155.595, 1234.717
4157.523, 1233.594
4159.452, 1231.582
4161.380, 1225.886
4163.309, 1225.655
4165.237, 1229.205
4167.166, 1231.328
4169.094, 1229.959
4171.023, 1222.926
4172.951, 1220.396
4174.880, 1220.618
4176.808, 1220.293
4178.737, 1220.557
4180.665, 1221.937
4182.594, 1222.209
4184.522, 1221.212
4186.451, 1218.467
4188.379, 1214.394
4190.308, 1209.789
4192.236, 1211.953
4194.165, 1214.396
4196.093, 1211.253
4198.021, 1209.988
4199.950, 1209.993
4201.878, 1207.310
4203.807, 1204.485
4205.735, 1202.735
4207.664, 1199.793
4209.592, 1197.764
4211.521, 1201.977
4213.449, 1204.546
4215.377, 1203.676
4217.306, 1204.374
4219.234, 1204.046
4221.163, 1199.415
4223.091, 1195.425
4225.020, 1193.080
4226.948, 1193.477
4228.877, 1194.671
4230.805, 1195.711
4232.734, 1194.529
4234.662, 1192.551
4236.591, 1194.717
4238.519, 1194.714
4240.448, 1190.031
4242.376, 1189.361
##END=



