##NAMES=Kasolite
##RRUFFID=R070155
##IDEAL CHEMISTRY=Pb(UO_2_)(SiO_4_)·H_2_O
##LOCALITY=Katherine District, Northern Territory, Australia
##OWNER=RRUFF
##SOURCE=James Shigley
##DESCRIPTION=Radiating thin yellow laths
##STATUS=The identification of this mineral has been confirmed by single-crystal X-ray diffraction
##URL=https://www.rruff.net/odr/rruff_sample/R070155
##DIFFRACTION SAMPLE DESCRIPTION=Single crystal, powder profile is calculated
##CELL PARAMETERS=a: 6.691 b: 6.938 c: 13.23 alpha: 90 beta: 104.15 gamma: 90 volume: 595 crystal system: monoclinic
##FILETYPE=Raman RAW
##RAMAN WAVELENGTH=532

80.50876, 512.6379
82.43723, 514.8311
84.36569, 526.5909
86.29416, 548.9598
88.22263, 580.3679
90.15109, 618.3207
92.07956, 659.1940
94.00803, 717.1569
95.93649, 790.6646
97.86496, 881.6859
99.79343, 998.4334
101.7219, 1146.297
103.6504, 1316.602
105.5788, 1504.906
107.5073, 1699.457
109.4358, 1939.038
111.3642, 2235.937
113.2927, 2587.856
115.2212, 2970.131
117.1496, 3371.579
119.0781, 3808.238
121.0066, 4284.396
122.9350, 4804.195
124.8635, 5362.615
126.7920, 5951.329
128.7204, 6576.485
130.6489, 7248.545
132.5774, 8002.069
134.5058, 8794.031
136.4343, 9582.690
138.3628, 10372.73
140.2912, 11152.08
142.2197, 11901.96
144.1481, 12622.84
146.0766, 13383.10
148.0051, 14209.06
149.9335, 15078.66
151.8620, 15966.56
153.7905, 16885.23
155.7189, 17792.02
157.6474, 18664.10
159.5759, 19488.06
161.5043, 20339.70
163.4328, 21262.08
165.3613, 22199.53
167.2897, 23068.74
169.2182, 23830.90
171.1467, 24576.02
173.0751, 25346.70
175.0036, 26172.75
176.9321, 26943.98
178.8605, 27625.79
180.7890, 28259.75
182.7175, 28895.06
184.6460, 29571.63
186.5744, 30211.65
188.5029, 30778.62
190.4314, 31272.28
192.3598, 31732.35
194.2883, 32158.84
196.2168, 32555.94
198.1452, 32924.37
200.0737, 33258.67
202.0022, 33571.89
203.9306, 33864.26
205.8591, 34137.80
207.7876, 34402.32
209.7160, 34672.57
211.6445, 34935.42
213.5730, 35157.46
215.5014, 35309.77
217.4299, 35463.75
219.3584, 35652.24
221.2868, 35894.33
223.2153, 36114.55
225.1438, 36320.74
227.0722, 36497.30
229.0007, 36637.16
230.9292, 36743.02
232.8576, 36800.43
234.7861, 36811.93
236.7146, 36770.15
238.6430, 36677.79
240.5715, 36533.25
242.5000, 36335.55
244.4284, 36085.18
246.3569, 35719.58
248.2854, 35362.32
250.2138, 35050.82
252.1423, 34788.23
254.0708, 34512.43
255.9992, 34198.52
257.9277, 33875.90
259.8561, 33574.43
261.7846, 33296.65
263.7131, 33037.98
265.6415, 32801.00
267.5700, 32583.37
269.4985, 32385.23
271.4269, 32208.29
273.3554, 32050.59
275.2839, 31913.99
277.2123, 31799.97
279.1408, 31700.92
281.0693, 31616.22
282.9977, 31544.77
284.9262, 31488.63
286.8547, 31457.24
288.7831, 31432.21
290.7116, 31406.15
292.6401, 31381.11
294.5685, 31348.88
296.4970, 31305.02
298.4255, 31252.33
300.3539, 31198.27
302.2824, 31150.96
304.2109, 31094.97
306.1393, 31025.85
308.0678, 30946.39
309.9963, 30850.84
311.9247, 30733.10
313.8532, 30597.68
315.7817, 30459.05
317.7101, 30313.90
319.6386, 30180.59
321.5671, 30070.79
323.4955, 29988.13
325.4240, 29872.19
327.3525, 29684.75
329.2809, 29498.37
331.2094, 29368.81
333.1379, 29305.32
335.0663, 29248.74
336.9948, 29186.04
338.9233, 29120.43
340.8517, 29056.47
342.7802, 28984.71
344.7087, 28922.12
346.6371, 28878.12
348.5656, 28852.44
350.4941, 28827.98
352.4225, 28802.28
354.3510, 28786.53
356.2795, 28774.03
358.2079, 28766.59
360.1364, 28747.70
362.0649, 28714.95
363.9933, 28668.83
365.9218, 28637.02
367.8503, 28617.09
369.7787, 28606.34
371.7072, 28609.43
373.6357, 28628.13
375.5641, 28631.75
377.4926, 28601.89
379.4211, 28561.71
381.3495, 28563.18
383.2780, 28625.67
385.2065, 28694.07
387.1349, 28753.02
389.0634, 28803.55
390.9919, 28857.01
392.9203, 28913.38
394.8488, 28972.45
396.7773, 29029.64
398.7057, 29078.63
400.6342, 29144.52
402.5627, 29242.46
404.4911, 29357.63
406.4196, 29459.67
408.3481, 29562.36
410.2766, 29655.53
412.2050, 29714.96
414.1335, 29741.34
416.0620, 29759.02
417.9904, 29767.98
419.9189, 29774.79
421.8474, 29785.18
423.7758, 29814.93
425.7043, 29821.90
427.6328, 29789.11
429.5612, 29732.03
431.4897, 29679.21
433.4182, 29642.66
435.3466, 29587.62
437.2751, 29511.35
439.2036, 29414.20
441.1320, 29342.96
443.0605, 29304.14
444.9890, 29288.69
446.9174, 29286.45
448.8459, 29318.97
450.7744, 29331.57
452.7028, 29290.34
454.6313, 29226.57
456.5597, 29216.40
458.4882, 29300.28
460.4167, 29371.55
462.3451, 29394.80
464.2736, 29359.19
466.2021, 29378.00
468.1305, 29467.82
470.0590, 29567.80
471.9875, 29638.00
473.9159, 29673.01
475.8444, 29718.54
477.7729, 29789.16
479.7013, 29872.88
481.6298, 29941.62
483.5583, 29981.54
485.4867, 30024.51
487.4152, 30095.54
489.3437, 30193.75
491.2721, 30287.38
493.2006, 30352.37
495.1291, 30403.12
497.0575, 30451.79
498.9860, 30506.52
500.9145, 30576.60
502.8429, 30663.15
504.7714, 30737.21
506.6999, 30775.95
508.6283, 30723.79
510.5568, 30730.71
512.4853, 30864.63
514.4138, 31063.47
516.3422, 31189.68
518.2707, 31187.73
520.1992, 31159.92
522.1276, 31137.77
524.0561, 31123.97
525.9846, 31132.52
527.9130, 31176.25
529.8415, 31230.88
531.7700, 31287.63
533.6984, 31351.40
535.6269, 31404.07
537.5554, 31426.73
539.4838, 31445.30
541.4123, 31500.67
543.3408, 31605.14
545.2692, 31673.85
547.1977, 31671.89
549.1262, 31640.33
551.0546, 31645.97
552.9831, 31681.44
554.9116, 31703.46
556.8400, 31704.61
558.7685, 31716.08
560.6970, 31758.12
562.6254, 31815.40
564.5539, 31855.33
566.4824, 31867.83
568.4108, 31864.79
570.3393, 31878.03
572.2678, 31924.33
574.1962, 31953.40
576.1246, 31904.90
578.0531, 31794.15
579.9816, 31734.16
581.9100, 31767.99
583.8385, 31826.32
585.7670, 31839.05
587.6954, 31789.63
589.6239, 31751.94
591.5524, 31744.79
593.4808, 31761.47
595.4093, 31775.46
597.3378, 31774.43
599.2662, 31775.58
601.1947, 31783.59
603.1232, 31786.46
605.0516, 31782.70
606.9801, 31778.57
608.9086, 31796.97
610.8370, 31857.50
612.7655, 31942.44
614.6940, 32004.92
616.6224, 32021.29
618.5509, 32024.41
620.4794, 32027.17
622.4078, 32047.27
624.3363, 32086.83
626.2648, 32165.61
628.1932, 32246.10
630.1217, 32311.64
632.0502, 32329.44
633.9786, 32336.22
635.9071, 32312.77
637.8356, 32311.23
639.7640, 32389.15
641.6925, 32557.53
643.6210, 32700.09
645.5494, 32756.01
647.4779, 32786.77
649.4064, 32858.11
651.3348, 32985.07
653.2633, 33101.77
655.1918, 33189.38
657.1202, 33265.71
659.0487, 33352.13
660.9772, 33445.29
662.9056, 33551.68
664.8341, 33678.88
666.7626, 33830.52
668.6910, 33973.07
670.6195, 34089.60
672.5480, 34217.02
674.4764, 34372.70
676.4049, 34550.25
678.3334, 34745.93
680.2618, 34976.40
682.1903, 35210.88
684.1188, 35426.88
686.0472, 35629.05
687.9757, 35864.12
689.9042, 36123.06
691.8326, 36421.25
693.7611, 36768.34
695.6896, 37165.25
697.6180, 37596.66
699.5465, 38042.18
701.4750, 38529.03
703.4034, 39083.54
705.3319, 39715.43
707.2604, 40396.09
709.1888, 41094.28
711.1173, 41866.12
713.0458, 42748.14
714.9742, 43753.64
716.9027, 44842.80
718.8312, 45952.56
720.7596, 47157.68
722.6881, 48558.26
724.6166, 50166.40
726.5450, 51880.81
728.4735, 53646.84
730.4020, 55531.56
732.3304, 57610.69
734.2589, 59920.13
736.1874, 62368.32
738.1158, 64951.04
740.0443, 67654.26
741.9728, 70456.89
743.9012, 73333.05
745.8297, 76341.95
747.7582, 79591.94
749.6866, 82976.36
751.6151, 86318.05
753.5436, 89688.17
755.4720, 92897.29
757.4005, 96012.91
759.3290, 98973.13
761.2574, 101529.2
763.1859, 103843.9
765.1144, 105580.2
767.0428, 106570.4
768.9713, 106907.4
770.8998, 106586.9
772.8282, 105460.4
774.7567, 103745.6
776.6852, 101399.5
778.6136, 98455.82
780.5421, 95313.98
782.4706, 91856.95
784.3990, 88304.41
786.3275, 84741.05
788.2560, 81197.11
790.1844, 77795.90
792.1129, 74552.70
794.0414, 71488.75
795.9698, 68553.10
797.8983, 65830.63
799.8268, 63323.40
801.7552, 61022.29
803.6837, 58925.09
805.6122, 57077.73
807.5406, 55445.52
809.4691, 53907.79
811.3976, 52404.60
813.3260, 51057.85
815.2545, 49908.21
817.1830, 48937.09
819.1115, 48062.18
821.0399, 47268.91
822.9684, 46565.54
824.8969, 45991.82
826.8253, 45498.05
828.7538, 45038.79
830.6823, 44601.86
832.6107, 44231.39
834.5392, 43931.27
836.4677, 43702.61
838.3961, 43518.96
840.3246, 43368.75
842.2531, 43228.36
844.1815, 43114.71
846.1100, 43018.75
848.0385, 42943.63
849.9669, 42890.36
851.8954, 42882.35
853.8239, 42904.25
855.7523, 42947.31
857.6808, 43026.96
859.6093, 43163.03
861.5377, 43350.15
863.4662, 43572.23
865.3947, 43750.52
867.3231, 43916.64
869.2516, 44074.50
871.1801, 44258.44
873.1085, 44459.69
875.0370, 44679.33
876.9655, 44920.58
878.8939, 45192.34
880.8224, 45496.71
882.7509, 45833.07
884.6793, 46174.82
886.6078, 46514.72
888.5363, 46847.82
890.4647, 47192.59
892.3932, 47582.73
894.3217, 48012.87
896.2501, 48432.22
898.1786, 48800.64
900.1071, 49098.31
902.0355, 49332.23
903.9640, 49577.27
905.8925, 49853.22
907.8209, 50118.55
909.7494, 50279.57
911.6779, 50258.90
913.6063, 50129.55
915.5348, 50022.36
917.4633, 49933.67
919.3917, 49826.76
921.3202, 49679.95
923.2487, 49489.37
925.1771, 49274.20
927.1056, 49083.71
929.0341, 48937.95
930.9625, 48836.26
932.8910, 48723.25
934.8195, 48575.24
936.7479, 48397.75
938.6764, 48168.43
940.6049, 47885.89
942.5333, 47620.84
944.4618, 47431.62
946.3903, 47265.58
948.3187, 47035.58
950.2472, 46734.09
952.1757, 46408.71
954.1041, 46119.75
956.0326, 45814.38
957.9611, 45495.45
959.8895, 45189.79
961.8180, 44925.98
963.7465, 44701.65
965.6749, 44504.76
967.6034, 44290.84
969.5319, 44070.59
971.4603, 43866.82
973.3888, 43703.25
975.3173, 43558.77
977.2457, 43446.33
979.1742, 43366.71
981.1027, 43313.61
983.0311, 43256.06
984.9596, 43194.33
986.8881, 43127.53
988.8165, 43054.64
990.7450, 42978.00
992.6735, 42924.59
994.6019, 42918.64
996.5304, 42951.30
998.4589, 42961.73
1000.387, 42939.27
1002.316, 42900.29
1004.244, 42851.20
1006.173, 42772.68
1008.101, 42739.24
1010.030, 42784.16
1011.958, 42849.14
1013.887, 42893.20
1015.815, 42923.76
1017.744, 42980.55
1019.672, 43047.46
1021.600, 43080.09
1023.529, 43068.36
1025.457, 43044.72
1027.386, 43023.60
1029.314, 43024.03
1031.243, 43059.07
1033.171, 43137.04
1035.100, 43220.30
1037.028, 43308.89
1038.957, 43369.34
1040.885, 43390.13
1042.814, 43374.37
1044.742, 43395.30
1046.671, 43482.76
1048.599, 43610.91
1050.527, 43722.59
1052.456, 43781.42
1054.384, 43806.39
1056.313, 43787.14
1058.241, 43780.14
1060.170, 43825.69
1062.098, 43934.22
1064.027, 44041.21
1065.955, 44136.54
1067.884, 44199.20
1069.812, 44239.73
1071.741, 44261.48
1073.669, 44281.64
1075.598, 44310.29
1077.526, 44334.84
1079.454, 44324.07
1081.383, 44327.54
1083.311, 44401.14
1085.240, 44529.60
1087.168, 44651.22
1089.097, 44771.54
1091.025, 44877.96
1092.954, 44957.28
1094.882, 44988.36
1096.811, 44998.45
1098.739, 44953.76
1100.668, 44970.88
1102.596, 45072.18
1104.525, 45184.40
1106.453, 45269.83
1108.381, 45328.30
1110.310, 45383.02
1112.238, 45443.31
1114.167, 45496.54
1116.095, 45512.68
1118.024, 45490.80
1119.952, 45505.61
1121.881, 45588.87
1123.809, 45697.99
1125.738, 45811.36
1127.666, 45907.24
1129.595, 45997.36
1131.523, 46097.08
1133.452, 46175.61
1135.380, 46201.83
1137.308, 46201.04
1139.237, 46221.85
1141.165, 46278.27
1143.094, 46360.88
1145.022, 46499.15
1146.951, 46623.01
1148.879, 46682.14
1150.808, 46698.23
1152.736, 46742.77
1154.665, 46836.74
1156.593, 46925.30
1158.522, 46981.89
1160.450, 47030.76
1162.379, 47108.01
1164.307, 47244.38
1166.235, 47343.29
1168.164, 47374.30
1170.092, 47396.73
1172.021, 47442.61
1173.949, 47513.49
1175.878, 47597.78
1177.806, 47703.72
1179.735, 47800.32
1181.663, 47871.86
1183.592, 47931.13
1185.520, 47993.18
1187.449, 48061.70
1189.377, 48135.58
1191.306, 48211.37
1193.234, 48290.12
1195.162, 48376.01
1197.091, 48445.22
1199.019, 48524.54
1200.948, 48641.93
1202.876, 48760.95
1204.805, 48862.20
1206.733, 48929.79
1208.662, 48989.44
1210.590, 49039.22
1212.519, 49089.99
1214.447, 49137.09
1216.376, 49211.33
1218.304, 49335.28
1220.233, 49480.40
1222.161, 49591.32
1224.089, 49652.58
1226.018, 49707.97
1227.946, 49760.07
1229.875, 49806.18
1231.803, 49872.14
1233.732, 49991.57
1235.660, 50108.26
1237.589, 50203.66
1239.517, 50292.09
1241.446, 50403.39
1243.374, 50531.27
1245.303, 50615.09
1247.231, 50624.64
1249.160, 50665.99
1251.088, 50795.30
1253.016, 50946.68
1254.945, 51040.27
1256.873, 51091.32
1258.802, 51142.89
1260.730, 51182.09
1262.659, 51223.16
1264.587, 51295.27
1266.516, 51389.71
1268.444, 51478.51
1270.373, 51599.49
1272.301, 51714.69
1274.230, 51782.73
1276.158, 51821.45
1278.087, 51884.45
1280.015, 52011.71
1281.943, 52161.04
1283.872, 52315.45
1285.800, 52443.62
1287.729, 52547.50
1289.657, 52649.80
1291.586, 52724.79
1293.514, 52762.32
1295.443, 52813.43
1297.371, 52884.46
1299.300, 52956.05
1301.228, 53019.96
1303.157, 53100.93
1305.085, 53172.34
1307.014, 53207.32
1308.942, 53263.14
1310.870, 53373.25
1312.799, 53504.62
1314.727, 53621.72
1316.656, 53735.73
1318.584, 53848.56
1320.513, 53927.67
1322.441, 53995.70
1324.370, 54086.37
1326.298, 54199.00
1328.227, 54254.58
1330.155, 54206.32
1332.083, 54216.51
1334.012, 54300.64
1335.940, 54406.07
1337.869, 54501.97
1339.797, 54589.30
1341.726, 54662.82
1343.654, 54749.64
1345.583, 54852.30
1347.511, 54952.31
1349.440, 55022.70
1351.368, 55054.49
1353.297, 55087.23
1355.225, 55182.07
1357.154, 55326.89
1359.082, 55424.34
1361.010, 55466.20
1362.939, 55502.47
1364.867, 55547.10
1366.796, 55547.78
1368.724, 55585.49
1370.653, 55747.40
1372.581, 55912.78
1374.510, 56018.70
1376.438, 56074.11
1378.367, 56124.08
1380.295, 56149.41
1382.224, 56202.53
1384.152, 56298.14
1386.081, 56401.47
1388.009, 56501.44
1389.938, 56603.10
1391.866, 56683.80
1393.794, 56721.81
1395.723, 56784.67
1397.651, 56846.30
1399.580, 56895.21
1401.508, 56972.64
1403.437, 57106.57
1405.365, 57244.59
1407.294, 57381.84
1409.222, 57480.49
1411.151, 57480.13
1413.079, 57448.95
1415.008, 57472.13
1416.936, 57556.36
1418.865, 57681.80
1420.793, 57864.00
1422.721, 58010.08
1424.650, 58088.84
1426.578, 58136.88
1428.507, 58206.34
1430.435, 58309.94
1432.364, 58420.90
1434.292, 58489.99
1436.221, 58533.25
1438.149, 58613.26
1440.078, 58720.56
1442.006, 58794.48
1443.935, 58795.29
1445.863, 58830.98
1447.792, 58992.62
1449.720, 59185.40
1451.648, 59319.24
1453.577, 59381.80
1455.505, 59425.84
1457.434, 59457.89
1459.362, 59519.32
1461.291, 59604.48
1463.219, 59696.57
1465.148, 59807.44
1467.076, 59929.50
1469.005, 60046.82
1470.933, 60167.55
1472.862, 60275.75
1474.790, 60358.41
1476.719, 60397.01
1478.647, 60378.54
1480.575, 60374.97
1482.504, 60473.03
1484.432, 60665.90
1486.361, 60820.16
1488.289, 60922.89
1490.218, 61024.10
1492.146, 61098.40
1494.075, 61169.88
1496.003, 61299.93
1497.932, 61486.65
1499.860, 61602.66
1501.789, 61582.02
1503.717, 61586.16
1505.646, 61709.57
1507.574, 61871.73
1509.502, 61994.71
1511.431, 62086.13
1513.359, 62183.73
1515.288, 62290.73
1517.216, 62398.44
1519.145, 62513.26
1521.073, 62614.90
1523.002, 62691.14
1524.930, 62747.53
1526.859, 62822.97
1528.787, 62931.80
1530.716, 63024.68
1532.644, 63062.49
1534.573, 63109.97
1536.501, 63221.27
1538.429, 63387.34
1540.358, 63534.66
1542.286, 63654.67
1544.215, 63774.66
1546.143, 63919.85
1548.072, 64041.71
1550.000, 64092.52
1551.929, 64098.95
1553.857, 64145.46
1555.786, 64232.30
1557.714, 64360.82
1559.643, 64591.37
1561.571, 64792.21
1563.500, 64895.32
1565.428, 64938.19
1567.356, 64986.20
1569.285, 65042.15
1571.213, 65090.99
1573.142, 65108.05
1575.070, 65150.70
1576.999, 65261.25
1578.927, 65384.17
1580.856, 65451.56
1582.784, 65463.00
1584.713, 65516.12
1586.641, 65612.80
1588.570, 65745.55
1590.498, 65977.21
1592.427, 66184.26
1594.355, 66237.55
1596.283, 66194.81
1598.212, 66278.48
1600.140, 66551.45
1602.069, 66748.04
1603.997, 66786.51
1605.926, 66812.91
1607.854, 66870.01
1609.783, 66962.19
1611.711, 67126.18
1613.640, 67371.38
1615.568, 67480.96
1617.497, 67345.15
1619.425, 67246.51
1621.354, 67261.13
1623.282, 67337.10
1625.210, 67453.07
1627.139, 67598.49
1629.067, 67719.48
1630.996, 67813.51
1632.924, 67891.17
1634.853, 67945.59
1636.781, 67994.66
1638.710, 68046.73
1640.638, 68098.89
1642.567, 68131.84
1644.495, 68144.20
1646.424, 68223.84
1648.352, 68429.66
1650.281, 68606.43
1652.209, 68708.80
1654.137, 68769.77
1656.066, 68780.48
1657.994, 68770.93
1659.923, 68855.35
1661.851, 69058.41
1663.780, 69236.57
1665.708, 69371.59
1667.637, 69472.73
1669.565, 69505.38
1671.494, 69528.95
1673.422, 69633.86
1675.351, 69810.07
1677.279, 69955.29
1679.208, 70051.63
1681.136, 70150.49
1683.064, 70257.27
1684.993, 70377.02
1686.921, 70515.77
1688.850, 70669.01
1690.778, 70842.22
1692.707, 71041.81
1694.635, 71163.68
1696.564, 71143.10
1698.492, 71145.11
1700.421, 71223.56
1702.349, 71342.25
1704.278, 71486.75
1706.206, 71647.59
1708.135, 71790.94
1710.063, 71915.05
1711.991, 72028.95
1713.920, 72120.39
1715.848, 72219.15
1717.777, 72342.02
1719.705, 72472.59
1721.634, 72604.06
1723.562, 72731.21
1725.491, 72811.32
1727.419, 72814.35
1729.348, 72862.20
1731.276, 73004.27
1733.205, 73153.42
1735.133, 73295.94
1737.062, 73411.31
1738.990, 73430.27
1740.918, 73363.16
1742.847, 73458.32
1744.775, 73821.20
1746.704, 74113.71
1748.632, 74277.88
1750.561, 74389.16
1752.489, 74427.23
1754.418, 74464.90
1756.346, 74633.13
1758.275, 74934.48
1760.203, 75137.55
1762.132, 75169.95
1764.060, 75224.23
1765.989, 75342.38
1767.917, 75446.92
1769.845, 75461.83
1771.774, 75464.86
1773.702, 75577.88
1775.631, 75802.69
1777.559, 76004.98
1779.488, 76193.70
1781.416, 76342.22
1783.345, 76400.73
1785.273, 76477.87
1787.202, 76647.12
1789.130, 76842.60
1791.059, 76978.41
1792.987, 77056.58
1794.916, 77130.31
1796.844, 77172.75
1798.772, 77278.72
1800.701, 77538.69
1802.629, 77763.09
1804.558, 77879.46
1806.486, 77935.63
1808.415, 77946.57
1810.343, 77930.01
1812.272, 78031.00
1814.200, 78286.06
1816.129, 78478.40
1818.057, 78546.20
1819.986, 78607.69
1821.914, 78681.95
1823.843, 78790.42
1825.771, 78986.34
1827.699, 79222.25
1829.628, 79360.01
1831.556, 79393.52
1833.485, 79449.03
1835.413, 79551.34
1837.342, 79649.84
1839.270, 79693.98
1841.199, 79767.83
1843.127, 79953.90
1845.056, 80191.84
1846.984, 80387.14
1848.913, 80542.92
1850.841, 80696.16
1852.770, 80854.51
1854.698, 80993.05
1856.626, 81101.21
1858.555, 81196.18
1860.483, 81252.59
1862.412, 81324.52
1864.340, 81502.31
1866.269, 81754.46
1868.197, 81914.66
1870.126, 81948.55
1872.054, 82004.63
1873.983, 82088.32
1875.911, 82190.66
1877.840, 82327.74
1879.768, 82463.87
1881.697, 82562.89
1883.625, 82650.48
1885.553, 82793.73
1887.482, 83001.34
1889.410, 83098.98
1891.339, 83002.38
1893.267, 82990.72
1895.196, 83138.41
1897.124, 83319.16
1899.053, 83519.68
1900.981, 83709.96
1902.910, 83845.97
1904.838, 83951.42
1906.767, 84111.38
1908.695, 84328.07
1910.624, 84512.53
1912.552, 84656.48
1914.480, 84769.32
1916.409, 84846.77
1918.337, 84903.44
1920.266, 84889.88
1922.194, 84902.53
1924.123, 85097.17
1926.051, 85406.58
1927.980, 85588.55
1929.908, 85621.33
1931.837, 85695.41
1933.765, 85834.79
1935.694, 86005.34
1937.622, 86233.67
1939.551, 86450.85
1941.479, 86631.55
1943.407, 86770.73
1945.336, 86843.63
1947.264, 86863.31
1949.193, 86914.91
1951.121, 87007.59
1953.050, 87106.39
1954.978, 87183.13
1956.907, 87311.97
1958.835, 87575.20
1960.764, 87809.30
1962.692, 87913.16
1964.621, 87957.97
1966.549, 88015.34
1968.478, 88087.01
1970.406, 88182.24
1972.334, 88301.88
1974.263, 88432.20
1976.191, 88567.68
1978.120, 88729.59
1980.048, 88965.00
1981.977, 89169.82
1983.905, 89272.89
1985.834, 89331.49
1987.762, 89365.09
1989.691, 89407.04
1991.619, 89588.96
1993.548, 89941.35
1995.476, 90159.82
1997.405, 90132.63
1999.333, 90165.26
2001.261, 90337.38
2003.190, 90496.42
2005.118, 90550.72
2007.047, 90609.59
2008.975, 90786.28
2010.904, 91017.80
2012.832, 91174.81
2014.761, 91260.76
2016.689, 91376.93
2018.618, 91536.27
2020.546, 91656.77
2022.475, 91694.28
2024.403, 91774.63
2026.332, 91978.63
2028.260, 92182.06
2030.188, 92297.63
2032.117, 92384.52
2034.045, 92513.52
2035.974, 92668.01
2037.902, 92791.18
2039.831, 92878.56
2041.759, 92989.77
2043.688, 93126.55
2045.616, 93286.20
2047.545, 93522.70
2049.473, 93705.87
2051.402, 93745.24
2053.330, 93775.70
2055.259, 93879.05
2057.187, 94035.23
2059.115, 94252.53
2061.044, 94503.27
2062.972, 94620.50
2064.901, 94597.10
2066.829, 94564.99
2068.758, 94500.88
2070.686, 94574.35
2072.615, 94937.83
2074.543, 95243.27
2076.472, 95281.02
2078.400, 95274.55
2080.329, 95361.30
2082.257, 95521.29
2084.186, 95776.66
2086.114, 96088.09
2088.042, 96216.22
2089.971, 96091.10
2091.899, 96119.98
2093.828, 96410.66
2095.756, 96629.22
2097.685, 96707.63
2099.613, 96763.45
2101.542, 96802.37
2103.470, 96863.29
2105.399, 96984.46
2107.327, 97128.08
2109.256, 97248.15
2111.184, 97355.94
2113.113, 97487.44
2115.041, 97641.44
2116.969, 97763.99
2118.898, 97838.52
2120.826, 97929.44
2122.755, 98027.86
2124.683, 98168.02
2126.612, 98420.98
2128.540, 98635.13
2130.469, 98710.55
2132.397, 98743.49
2134.326, 98802.77
2136.254, 98889.96
2138.183, 99017.68
2140.111, 99178.08
2142.040, 99321.83
2143.968, 99447.45
2145.896, 99611.75
2147.825, 99856.27
2149.753, 99992.10
2151.682, 99841.29
2153.610, 99810.19
2155.539, 100148.7
2157.467, 100497.8
2159.396, 100642.7
2161.324, 100702.3
2163.253, 100768.7
2165.181, 100856.7
2167.110, 101030.6
2169.038, 101276.0
2170.967, 101370.5
2172.895, 101299.2
2174.823, 101307.8
2176.752, 101435.8
2178.680, 101564.2
2180.609, 101665.0
2182.537, 101769.6
2184.466, 101882.5
2186.394, 102009.6
2188.323, 102172.3
2190.251, 102333.1
2192.180, 102456.3
2194.108, 102553.1
2196.037, 102626.5
2197.965, 102689.0
2199.894, 102837.0
2201.822, 103076.7
2203.750, 103196.1
2205.679, 103145.9
2207.607, 103242.2
2209.536, 103616.4
2211.464, 103893.2
2213.393, 103877.1
2215.321, 103874.0
2217.250, 104033.9
2219.178, 104222.9
2221.107, 104365.4
2223.035, 104474.0
2224.964, 104530.1
2226.892, 104577.0
2228.821, 104752.8
2230.749, 105033.1
2232.677, 105153.2
2234.606, 105108.7
2236.534, 105100.0
2238.463, 105137.7
2240.391, 105247.5
2242.320, 105483.9
2244.248, 105671.8
2246.177, 105729.1
2248.105, 105777.2
2250.034, 105856.9
2251.962, 105948.8
2253.891, 106049.7
2255.819, 106147.9
2257.748, 106192.1
2259.676, 106244.3
2261.604, 106475.6
2263.533, 106817.5
2265.461, 106991.7
2267.390, 107007.1
2269.318, 107070.3
2271.247, 107202.1
2273.175, 107328.1
2275.104, 107446.4
2277.032, 107546.9
2278.961, 107617.1
2280.889, 107686.1
2282.818, 107758.2
2284.746, 107833.4
2286.675, 107878.6
2288.603, 107963.6
2290.531, 108190.4
2292.460, 108433.9
2294.388, 108534.7
2296.317, 108571.6
2298.245, 108712.1
2300.174, 108920.9
2302.102, 109014.4
2304.031, 108982.5
2305.959, 109064.3
2307.888, 109306.7
2309.816, 109466.6
2311.745, 109509.1
2313.673, 109568.3
2315.602, 109683.5
2317.530, 109762.6
2319.458, 109738.2
2321.387, 109744.7
2323.315, 109831.3
2325.244, 109976.0
2327.172, 110232.9
2329.101, 110472.5
2331.029, 110554.8
2332.958, 110567.7
2334.886, 110617.7
2336.815, 110697.3
2338.743, 110784.2
2340.672, 110885.6
2342.600, 111067.5
2344.529, 111315.4
2346.457, 111375.7
2348.385, 111173.4
2350.314, 111156.3
2352.242, 111495.6
2354.171, 111745.9
2356.099, 111869.4
2358.028, 111967.6
2359.956, 112036.7
2361.885, 112117.4
2363.813, 112248.1
2365.742, 112350.5
2367.670, 112362.2
2369.599, 112358.3
2371.527, 112359.3
2373.456, 112399.1
2375.384, 112531.5
2377.313, 112708.7
2379.241, 112869.9
2381.169, 113018.6
2383.098, 113175.1
2385.026, 113327.1
2386.955, 113404.7
2388.883, 113422.3
2390.812, 113522.3
2392.740, 113722.6
2394.669, 113838.6
2396.597, 113779.0
2398.526, 113857.8
2400.454, 114210.4
2402.383, 114395.8
2404.311, 114273.1
2406.240, 114231.2
2408.168, 114382.4
2410.096, 114575.0
2412.025, 114831.4
2413.953, 114996.4
2415.882, 114903.3
2417.810, 114809.5
2419.739, 114888.9
2421.667, 115031.6
2423.596, 115182.7
2425.524, 115307.5
2427.453, 115343.0
2429.381, 115339.2
2431.310, 115361.8
2433.238, 115415.7
2435.167, 115538.7
2437.095, 115702.9
2439.023, 115751.0
2440.952, 115689.5
2442.880, 115797.9
2444.809, 116100.9
2446.737, 116276.4
2448.666, 116305.4
2450.594, 116354.3
2452.523, 116442.1
2454.451, 116529.3
2456.380, 116608.1
2458.308, 116690.4
2460.237, 116780.7
2462.165, 116870.2
2464.094, 116951.0
2466.022, 117042.2
2467.950, 117159.7
2469.879, 117268.5
2471.807, 117353.5
2473.736, 117426.9
2475.664, 117470.4
2477.593, 117535.4
2479.521, 117676.6
2481.450, 117834.4
2483.378, 117965.3
2485.307, 118075.3
2487.235, 118158.6
2489.164, 118234.9
2491.092, 118345.1
2493.021, 118461.2
2494.949, 118516.2
2496.877, 118543.4
2498.806, 118649.4
2500.734, 118812.0
2502.663, 118920.4
2504.591, 118977.2
2506.520, 119005.1
2508.448, 119008.9
2510.377, 119055.9
2512.305, 119150.3
2514.234, 119182.2
2516.162, 119085.2
2518.091, 119201.9
2520.019, 119675.7
2521.948, 119959.1
2523.876, 119995.5
2525.804, 119989.4
2527.733, 119932.9
2529.661, 119976.5
2531.590, 120230.0
2533.518, 120400.7
2535.447, 120351.6
2537.375, 120321.1
2539.304, 120338.2
2541.232, 120424.3
2543.161, 120641.8
2545.089, 120825.5
2547.018, 120895.2
2548.946, 120938.9
2550.875, 120980.9
2552.803, 121038.6
2554.731, 121143.8
2556.660, 121241.8
2558.588, 121300.4
2560.517, 121330.6
2562.445, 121283.9
2564.374, 121275.0
2566.302, 121446.2
2568.231, 121664.2
2570.159, 121811.9
2572.088, 121896.7
2574.016, 121868.9
2575.945, 121829.9
2577.873, 121982.7
2579.802, 122206.1
2581.730, 122255.9
2583.658, 122230.4
2585.587, 122317.6
2587.515, 122488.6
2589.444, 122702.7
2591.372, 122927.2
2593.301, 123033.3
2595.229, 123040.9
2597.158, 123006.0
2599.086, 122957.6
2601.015, 123062.0
2602.943, 123293.1
2604.872, 123369.1
2606.800, 123294.4
2608.729, 123331.2
2610.657, 123479.5
2612.585, 123673.7
2614.514, 123906.3
2616.442, 124025.3
2618.371, 124016.7
2620.299, 124028.0
2622.228, 124067.9
2624.156, 124118.3
2626.085, 124185.9
2628.013, 124201.3
2629.942, 124146.1
2631.870, 124252.9
2633.799, 124579.3
2635.727, 124816.5
2637.656, 124918.3
2639.584, 124951.8
2641.512, 124890.0
2643.441, 124849.0
2645.369, 124828.1
2647.298, 124879.3
2649.226, 125034.5
2651.155, 125152.8
2653.083, 125162.3
2655.012, 125241.4
2656.940, 125438.1
2658.869, 125624.5
2660.797, 125796.2
2662.726, 125929.1
2664.654, 126016.2
2666.583, 126072.1
2668.511, 126080.6
2670.439, 126094.3
2672.368, 126119.6
2674.296, 126155.4
2676.225, 126221.1
2678.153, 126232.4
2680.082, 126125.0
2682.010, 126091.1
2683.939, 126189.1
2685.867, 126355.0
2687.796, 126651.8
2689.724, 126883.9
2691.653, 127022.5
2693.581, 127090.4
2695.510, 127041.2
2697.438, 127056.2
2699.366, 127252.8
2701.295, 127407.5
2703.223, 127479.2
2705.152, 127490.3
2707.080, 127401.8
2709.009, 127371.0
2710.937, 127487.9
2712.866, 127554.1
2714.794, 127407.9
2716.723, 127390.8
2718.651, 127691.6
2720.580, 127875.2
2722.508, 127808.1
2724.437, 127775.9
2726.365, 127877.7
2728.293, 127975.7
2730.222, 128031.1
2732.150, 128084.9
2734.079, 128127.6
2736.007, 128212.9
2737.936, 128381.5
2739.864, 128492.9
2741.793, 128472.3
2743.721, 128476.1
2745.650, 128502.8
2747.578, 128630.8
2749.507, 128930.2
2751.435, 129138.7
2753.364, 129189.6
2755.292, 129220.0
2757.220, 129256.0
2759.149, 129282.2
2761.077, 129276.6
2763.006, 129307.5
2764.934, 129375.8
2766.863, 129514.6
2768.791, 129763.3
2770.720, 129935.5
2772.648, 129958.9
2774.577, 129984.6
2776.505, 129992.2
2778.434, 130140.5
2780.362, 130491.1
2782.291, 130533.1
2784.219, 130074.1
2786.147, 129985.8
2788.076, 130497.5
2790.004, 130728.2
2791.933, 130646.8
2793.861, 130638.3
2795.790, 130730.1
2797.718, 130819.2
2799.646, 130897.3
2801.575, 130994.7
2803.503, 131117.8
2805.432, 131133.7
2807.360, 131055.6
2809.289, 131082.1
2811.217, 131212.7
2813.146, 131300.5
2815.074, 131348.8
2817.003, 131388.3
2818.931, 131429.2
2820.860, 131575.1
2822.788, 131772.8
2824.717, 131794.3
2826.645, 131705.4
2828.573, 131736.6
2830.502, 131841.8
2832.430, 131880.3
2834.359, 131894.0
2836.287, 131988.2
2838.216, 132106.8
2840.144, 132149.2
2842.073, 132149.7
2844.001, 132123.6
2845.930, 132128.1
2847.858, 132284.3
2849.787, 132459.4
2851.715, 132493.1
2853.644, 132496.8
2855.572, 132612.8
2857.500, 132707.4
2859.429, 132614.4
2861.357, 132544.1
2863.286, 132684.5
2865.214, 132827.5
2867.143, 132825.3
2869.071, 132823.5
2871.000, 132893.0
2872.928, 132968.2
2874.857, 133001.9
2876.785, 133077.3
2878.714, 133287.7
2880.642, 133430.2
2882.571, 133426.0
2884.499, 133449.2
2886.427, 133551.8
2888.356, 133616.7
2890.284, 133611.3
2892.213, 133574.7
2894.141, 133484.3
2896.070, 133460.0
2897.998, 133508.0
2899.927, 133668.6
2901.855, 133973.9
2903.784, 134101.1
2905.712, 134019.5
2907.641, 134131.1
2909.569, 134404.9
2911.498, 134582.8
2913.426, 134665.5
2915.354, 134715.5
2917.283, 134725.3
2919.211, 134629.2
2921.140, 134490.1
2923.068, 134494.6
2924.997, 134545.9
2926.925, 134417.4
2928.854, 134307.8
2930.782, 134557.3
2932.711, 134904.0
2934.639, 135110.8
2936.568, 135257.2
2938.496, 135417.8
2940.425, 135521.7
2942.353, 135483.8
2944.281, 135435.4
2946.210, 135438.3
2948.138, 135429.0
2950.067, 135285.9
2951.995, 135297.1
2953.924, 135665.9
2955.852, 135926.0
2957.781, 136010.8
2959.709, 136013.8
2961.638, 135916.2
2963.566, 135873.3
2965.495, 135879.8
2967.423, 136054.3
2969.352, 136387.8
2971.280, 136495.4
2973.208, 136380.0
2975.137, 136338.5
2977.065, 136361.3
2978.994, 136414.6
2980.922, 136483.3
2982.851, 136515.0
2984.779, 136543.7
2986.708, 136661.6
2988.636, 136775.6
2990.565, 136721.8
2992.493, 136653.9
2994.422, 136698.5
2996.350, 136783.4
2998.279, 136885.1
3000.207, 136973.9
3002.135, 137044.0
3004.064, 137079.5
3005.992, 137028.9
3007.921, 137056.1
3009.849, 137257.5
3011.778, 137444.5
3013.706, 137612.6
3015.635, 137711.0
3017.563, 137729.5
3019.492, 137738.3
3021.420, 137740.3
3023.349, 137766.4
3025.277, 137815.8
3027.206, 137884.1
3029.134, 137968.7
3031.063, 138089.7
3032.991, 138197.9
3034.919, 138147.5
3036.848, 138075.4
3038.776, 138164.9
3040.705, 138283.6
3042.633, 138344.0
3044.562, 138352.8
3046.490, 138232.9
3048.419, 138216.2
3050.347, 138503.7
3052.276, 138658.5
3054.204, 138389.3
3056.133, 138306.5
3058.061, 138483.1
3059.990, 138719.3
3061.918, 139005.2
3063.846, 139201.6
3065.775, 139305.1
3067.703, 139321.0
3069.632, 139282.1
3071.560, 139318.0
3073.489, 139426.5
3075.417, 139713.8
3077.346, 139965.6
3079.274, 139738.4
3081.203, 139450.8
3083.131, 139441.0
3085.060, 139555.2
3086.988, 139809.1
3088.917, 139958.5
3090.845, 139838.6
3092.773, 139844.5
3094.702, 140206.9
3096.630, 140409.1
3098.559, 140363.1
3100.487, 140376.9
3102.416, 140463.9
3104.344, 140463.2
3106.273, 140397.3
3108.201, 140578.1
3110.130, 140882.1
3112.058, 140892.3
3113.987, 140760.8
3115.915, 140672.2
3117.844, 140616.5
3119.772, 140562.4
3121.700, 140572.3
3123.629, 140703.7
3125.557, 140866.0
3127.486, 141051.4
3129.414, 141209.8
3131.343, 141349.9
3133.271, 141373.1
3135.200, 141236.6
3137.128, 141204.4
3139.057, 141286.6
3140.985, 141466.4
3142.914, 141712.0
3144.842, 141923.1
3146.771, 142085.9
3148.699, 142177.2
3150.627, 142198.8
3152.556, 142078.7
3154.484, 142001.8
3156.413, 142163.5
3158.341, 142288.8
3160.270, 142226.4
3162.198, 142200.6
3164.127, 142261.9
3166.055, 142339.3
3167.984, 142421.9
3169.912, 142536.0
3171.841, 142672.2
3173.769, 142674.6
3175.698, 142615.4
3177.626, 142807.1
3179.554, 143064.9
3181.483, 143014.9
3183.411, 142907.1
3185.340, 142954.3
3187.268, 143045.8
3189.197, 143145.6
3191.125, 143215.2
3193.054, 143214.7
3194.982, 143292.7
3196.911, 143576.4
3198.839, 143642.6
3200.768, 143499.7
3202.696, 143487.3
3204.625, 143572.0
3206.553, 143513.7
3208.481, 143429.8
3210.410, 143596.2
3212.338, 143825.9
3214.267, 143979.3
3216.195, 144064.9
3218.124, 144057.8
3220.052, 144031.7
3221.981, 143993.6
3223.909, 143978.9
3225.838, 144009.1
3227.766, 144000.2
3229.695, 143961.2
3231.623, 144035.1
3233.552, 144207.6
3235.480, 144495.5
3237.408, 144762.9
3239.337, 144735.4
3241.265, 144635.6
3243.194, 144603.5
3245.122, 144612.3
3247.051, 144659.9
3248.979, 144722.4
3250.908, 144795.0
3252.836, 144896.9
3254.765, 145056.5
3256.693, 144991.3
3258.622, 144775.8
3260.550, 144765.9
3262.479, 144905.8
3264.407, 145167.5
3266.335, 145408.5
3268.264, 145463.2
3270.192, 145496.0
3272.121, 145637.7
3274.049, 145679.9
3275.978, 145533.6
3277.906, 145541.0
3279.835, 145774.7
3281.763, 145975.5
3283.692, 146122.4
3285.620, 145983.5
3287.549, 145746.8
3289.477, 145761.8
3291.406, 145887.3
3293.334, 146052.1
3295.262, 146150.0
3297.191, 146044.0
3299.119, 146048.0
3301.048, 146295.5
3302.976, 146422.3
3304.905, 146407.5
3306.833, 146495.4
3308.762, 146654.3
3310.690, 146690.1
3312.619, 146663.9
3314.547, 146603.4
3316.476, 146632.8
3318.404, 146971.8
3320.333, 147225.5
3322.261, 147242.9
3324.189, 147227.7
3326.118, 147203.6
3328.046, 147232.3
3329.975, 147304.3
3331.903, 147304.7
3333.832, 147282.0
3335.760, 147369.0
3337.689, 147491.7
3339.617, 147584.5
3341.546, 147655.3
3343.474, 147704.2
3345.403, 147733.3
3347.331, 147732.7
3349.260, 147787.0
3351.188, 147909.2
3353.116, 148011.0
3355.045, 148086.0
3356.973, 148028.9
3358.902, 148019.4
3360.830, 148426.6
3362.759, 148740.8
3364.687, 148613.9
3366.616, 148461.5
3368.544, 148339.3
3370.473, 148464.1
3372.401, 148846.1
3374.330, 148922.9
3376.258, 148808.5
3378.187, 148989.8
3380.115, 149257.3
3382.043, 149333.5
3383.972, 149344.0
3385.900, 149253.9
3387.829, 149359.6
3389.757, 149790.9
3391.686, 149956.0
3393.614, 149774.6
3395.543, 149891.5
3397.471, 150181.6
3399.400, 150134.9
3401.328, 150054.9
3403.257, 150362.6
3405.185, 150633.9
3407.114, 150644.0
3409.042, 150634.7
3410.970, 150652.4
3412.899, 150705.0
3414.827, 150795.7
3416.756, 150989.7
3418.684, 151238.0
3420.613, 151426.7
3422.541, 151631.1
3424.470, 152004.9
3426.398, 152238.8
3428.327, 152044.0
3430.255, 152039.4
3432.184, 152280.5
3434.112, 152462.3
3436.041, 152591.8
3437.969, 152814.0
3439.897, 153040.5
3441.826, 153165.6
3443.754, 153219.2
3445.683, 153192.2
3447.611, 153126.1
3449.540, 152991.7
3451.468, 153124.1
3453.397, 153528.3
3455.325, 153837.8
3457.254, 154051.5
3459.182, 154185.1
3461.111, 154229.7
3463.039, 154116.4
3464.968, 154018.8
3466.896, 153996.1
3468.824, 153962.9
3470.753, 153907.9
3472.681, 153913.7
3474.610, 153970.2
3476.538, 154058.6
3478.467, 154150.3
3480.395, 154230.3
3482.324, 154271.1
3484.252, 154260.2
3486.181, 154178.5
3488.109, 154020.4
3490.038, 154080.0
3491.966, 154265.6
3493.895, 154154.6
3495.823, 153961.8
3497.751, 153930.9
3499.680, 153929.9
3501.608, 153908.7
3503.537, 153873.3
3505.465, 153825.9
3507.394, 153686.5
3509.322, 153493.8
3511.251, 153459.0
3513.179, 153450.3
3515.108, 153262.1
3517.036, 153141.3
3518.965, 153259.6
3520.893, 153244.3
3522.822, 153005.5
3524.750, 152743.3
3526.678, 152502.8
3528.607, 152568.9
3530.535, 152647.1
3532.464, 152305.2
3534.392, 152047.7
3536.321, 152129.3
3538.249, 152071.0
3540.178, 151761.6
3542.106, 151644.9
3544.035, 151660.2
3545.963, 151640.5
3547.892, 151620.3
3549.820, 151706.3
3551.749, 151649.4
3553.677, 151245.0
3555.605, 150971.8
3557.534, 150848.8
3559.462, 150835.4
3561.391, 150841.9
3563.319, 150643.6
3565.248, 150443.6
3567.176, 150423.3
3569.105, 150340.3
3571.033, 150104.6
3572.962, 149944.1
3574.890, 149859.0
3576.819, 149766.2
3578.747, 149690.1
3580.676, 149712.0
3582.604, 149688.7
3584.532, 149481.2
3586.461, 149364.7
3588.389, 149366.8
3590.318, 149301.0
3592.246, 149176.8
3594.175, 148971.7
3596.103, 148840.7
3598.032, 149014.0
3599.960, 149110.3
3601.889, 149037.2
3603.817, 148760.5
3605.746, 148331.8
3607.674, 148371.4
3609.603, 148544.8
3611.531, 148274.9
3613.459, 148017.6
3615.388, 148015.2
3617.316, 148148.9
3619.245, 148412.3
3621.173, 148457.1
3623.102, 148325.9
3625.030, 148069.5
3626.959, 147858.3
3628.887, 147882.8
3630.816, 147892.6
3632.744, 147831.0
3634.673, 147781.0
3636.601, 147746.6
3638.530, 147712.6
3640.458, 147685.0
3642.386, 147659.9
3644.315, 147669.1
3646.243, 147735.3
3648.172, 147749.2
3650.100, 147703.7
3652.029, 147763.6
3653.957, 147838.1
3655.886, 147801.0
3657.814, 147683.1
3659.743, 147426.6
3661.671, 147390.9
3663.600, 147667.4
3665.528, 147704.0
3667.457, 147598.2
3669.385, 147570.0
3671.313, 147538.7
3673.242, 147392.8
3675.170, 147391.5
3677.099, 147611.7
3679.027, 147633.4
3680.956, 147490.7
3682.884, 147189.3
3684.813, 147012.5
3686.741, 147400.5
3688.670, 147548.9
3690.598, 147262.0
3692.527, 147049.1
3694.455, 146950.2
3696.384, 147129.0
3698.312, 147318.1
3700.240, 147253.7
3702.169, 147158.8
3704.097, 147069.6
3706.026, 147137.3
3707.954, 147308.3
3709.883, 147348.8
3711.811, 147272.2
3713.740, 146942.3
3715.668, 146822.3
3717.597, 147057.8
3719.525, 147039.1
3721.454, 146839.1
3723.382, 147062.3
3725.311, 147273.2
3727.239, 146911.1
3729.167, 146749.5
3731.096, 146981.3
3733.024, 147222.3
3734.953, 147389.3
3736.881, 147081.6
3738.810, 146797.3
3740.738, 147068.3
3742.667, 147303.0
3744.595, 147390.3
3746.524, 147247.1
3748.452, 146975.7
3750.381, 146904.4
3752.309, 146885.0
3754.238, 146829.5
3756.166, 146737.7
3758.094, 146609.4
3760.023, 146457.4
3761.951, 146354.2
3763.880, 146582.2
3765.808, 146815.7
3767.737, 146894.2
3769.665, 146758.0
3771.594, 146424.3
3773.522, 146419.7
3775.451, 146571.3
3777.379, 146552.1
3779.308, 146498.6
3781.236, 146442.4
3783.165, 146502.4
3785.093, 146646.4
3787.021, 146521.2
3788.950, 146326.8
3790.878, 146325.6
3792.807, 146366.9
3794.735, 146413.2
3796.664, 146438.3
3798.592, 146426.3
3800.521, 146262.6
3802.449, 146154.4
3804.378, 146372.4
3806.306, 146388.4
3808.235, 146021.1
3810.163, 146067.2
3812.092, 146310.0
3814.020, 146185.8
3815.948, 146048.4
3817.877, 146140.8
3819.805, 146010.0
3821.734, 145639.9
3823.662, 146026.4
3825.591, 146523.4
3827.519, 146090.5
3829.448, 145761.9
3831.376, 145927.0
3833.305, 145859.4
3835.233, 145621.5
3837.162, 145692.8
3839.090, 145786.8
3841.019, 145596.5
3842.947, 145596.9
3844.875, 145898.5
3846.804, 145881.4
3848.732, 145728.9
3850.661, 145773.0
3852.589, 145696.7
3854.518, 145390.1
3856.446, 145306.7
3858.375, 145381.3
3860.303, 145005.9
3862.232, 144585.4
3864.160, 144546.5
3866.089, 144378.1
3868.017, 144007.1
3869.946, 143805.2
3871.874, 143644.3
3873.802, 143173.0
3875.731, 142775.8
3877.659, 142700.7
3879.588, 142526.5
3881.516, 142290.7
3883.445, 142136.8
3885.373, 142078.3
3887.302, 142236.6
3889.230, 142116.1
3891.159, 141620.3
3893.087, 141286.8
3895.016, 141090.8
3896.944, 141056.0
3898.873, 141034.6
3900.801, 140987.3
3902.729, 140836.5
3904.658, 140608.9
3906.586, 140383.5
3908.515, 140063.4
3910.443, 139517.4
3912.372, 139297.5
3914.300, 139409.7
3916.229, 139381.0
3918.157, 139195.8
3920.086, 138738.2
3922.014, 138430.1
3923.943, 138332.9
3925.871, 138144.3
3927.800, 137921.4
3929.728, 137831.7
3931.656, 137690.8
3933.585, 137402.9
3935.513, 137252.1
3937.442, 137173.8
3939.370, 136969.7
3941.299, 136685.5
3943.227, 136478.6
3945.156, 136250.5
3947.084, 135929.9
3949.013, 135802.8
3950.941, 135714.8
3952.870, 135472.5
3954.798, 135297.3
3956.727, 135207.4
3958.655, 134967.0
3960.583, 134687.4
3962.512, 134497.9
3964.440, 134350.4
3966.369, 134247.5
3968.297, 134052.5
3970.226, 133746.9
3972.154, 133610.5
3974.083, 133534.0
3976.011, 133250.8
3977.940, 133116.8
3979.868, 133116.0
3981.797, 132881.1
3983.725, 132629.0
3985.654, 132486.1
3987.582, 132375.2
3989.510, 132168.9
3991.439, 131679.4
3993.367, 131406.6
3995.296, 131551.5
3997.224, 131364.4
3999.153, 130960.5
4001.081, 130841.9
4003.010, 130696.2
4004.938, 130461.2
4006.867, 130282.4
4008.795, 130087.8
4010.724, 129933.1
4012.652, 129826.6
4014.581, 129773.0
4016.509, 129669.4
4018.438, 129470.2
4020.366, 129100.0
4022.294, 128876.0
4024.223, 128957.6
4026.151, 128783.8
4028.080, 128359.0
4030.008, 128238.1
4031.937, 128162.8
4033.865, 127914.1
4035.794, 127831.5
4037.722, 127876.4
4039.651, 127558.4
4041.579, 127224.0
4043.508, 127075.6
4045.436, 126774.2
4047.365, 126447.5
4049.293, 126384.6
4051.221, 126326.6
4053.150, 125985.8
4055.078, 125760.0
4057.007, 125780.7
4058.935, 125671.3
4060.864, 125504.9
4062.792, 125313.3
4064.721, 125175.4
4066.649, 125147.8
4068.578, 124920.5
4070.506, 124633.3
4072.435, 124522.1
4074.363, 124389.5
4076.292, 124201.5
4078.220, 123982.2
4080.148, 123791.5
4082.077, 123857.6
4084.005, 123789.5
4085.934, 123394.4
4087.862, 123168.0
4089.791, 123052.4
4091.719, 122845.6
4093.648, 122618.4
4095.576, 122400.6
4097.504, 122225.2
4099.433, 122084.8
4101.361, 122001.4
4103.290, 121944.8
4105.218, 121853.1
4107.147, 121583.6
4109.075, 121227.9
4111.004, 121162.0
4112.932, 121113.3
4114.861, 120909.6
4116.789, 120660.1
4118.718, 120424.4
4120.646, 120317.1
4122.575, 120282.2
4124.503, 120332.2
4126.432, 120099.5
4128.360, 119705.5
4130.289, 119639.7
4132.217, 119534.5
4134.146, 119240.3
4136.074, 119094.7
4138.002, 119075.6
4139.931, 118876.7
4141.859, 118600.6
4143.788, 118499.8
4145.716, 118447.6
4147.645, 118224.1
4149.573, 117968.5
4151.501, 117801.0
4153.430, 117660.4
4155.358, 117481.7
4157.287, 117403.7
4159.215, 117201.4
4161.144, 116865.7
4163.072, 116684.3
4165.001, 116630.8
4166.929, 116544.6
4168.858, 116413.4
4170.786, 116311.4
4172.715, 116126.0
4174.643, 115921.1
4176.572, 115702.6
4178.500, 115474.9
4180.429, 115346.8
4182.357, 115254.2
4184.286, 115184.6
4186.214, 115204.7
4188.143, 115089.4
4190.071, 114895.8
4192.000, 114767.0
4193.928, 114553.0
4195.856, 114223.4
4197.785, 114052.6
4199.713, 113977.2
4201.642, 113808.5
4203.570, 113579.7
4205.499, 113359.1
4207.427, 113464.0
4209.355, 113606.2
4211.284, 113498.7
4213.212, 113209.4
4215.141, 112734.3
4217.069, 112642.9
4218.998, 112649.7
4220.926, 112429.5
4222.855, 112388.7
4224.783, 112590.1
4226.712, 112467.4
4228.640, 112216.8
4230.569, 111969.1
4232.497, 111834.0
4234.426, 111822.0
4236.354, 111688.0
4238.283, 111481.7
4240.211, 111197.8
4242.140, 111059.2
4244.068, 111052.9
4245.997, 110955.1
4247.925, 110982.7
4249.854, 111186.8
4251.782, 111072.7
4253.710, 110762.0
4255.639, 110885.2
4257.567, 111036.9
4259.496, 111013.4
4261.424, 111048.1
4263.353, 111099.9
4265.281, 110977.6
4267.209, 110964.5
4269.138, 111199.1
4271.066, 111253.1
4272.995, 111199.4
4274.923, 111139.7
4276.852, 111078.3
4278.780, 111014.3
4280.709, 110969.5
4282.637, 110988.3
4284.566, 111193.4
4286.494, 111190.7
4288.423, 110972.1
4290.351, 111240.5
4292.280, 111518.3
4294.208, 111475.7
4296.137, 111315.6
4298.065, 111139.6
4299.994, 111313.9
4301.922, 111440.2
4303.851, 111329.0
4305.779, 111237.3
4307.708, 111242.2
4309.636, 111583.4
4311.564, 111753.5
4313.493, 111627.3
4315.421, 111637.7
4317.350, 111693.6
4319.278, 111652.8
4321.207, 111764.6
4323.135, 111990.8
4325.063, 111797.7
4326.992, 111537.4
4328.920, 111410.1
4330.849, 111494.4
4332.777, 111669.8
4334.706, 111559.1
4336.634, 111489.3
4338.563, 111578.4
4340.491, 111605.7
4342.420, 111563.7
4344.348, 111365.4
4346.277, 111408.2
4348.205, 111714.1
4350.134, 111822.7
4352.062, 111816.3
4353.991, 111688.3
4355.919, 111787.9
4357.848, 111992.8
4359.776, 111808.2
4361.705, 111605.2
4363.633, 111494.0
4365.562, 111828.3
4367.490, 112242.0
4369.418, 112165.7
4371.347, 112000.0
4373.275, 111824.1
4375.204, 111797.7
4377.132, 111851.8
4379.061, 111982.3
4380.989, 111912.6
##END=



