##NAMES=Kentbrooksite
##RRUFFID=R110208
##IDEAL CHEMISTRY=(Na,REE)_15_(Ca,REE)_6_Mn_3_Zr_3_Nb(Si_25_O_73_)(O,OH,H_2_O)_3_(F,Cl)_2_
##LOCALITY=Pocos de Caldas plateau, Minas Gerais, Brazil
##OWNER=RRUFF
##SOURCE=Gunnar Farber
##DESCRIPTION=Red massive crystalline associated with aegirine and nepheline
##STATUS=The identification of this mineral has been confirmed only by single crystal X-ray diffraction
##URL=https://www.rruff.net/odr/rruff_sample/R110208
##DIFFRACTION SAMPLE DESCRIPTION=Single crystal, powder profile is calculated
##CELL PARAMETERS=a: 14.27 b: 14.27 c: 30.154 alpha: 90 beta: 90 gamma: 120 volume: 5317.9 crystal system: hexagonal
##FILETYPE=Raman Processed
##RAMAN WAVELENGTH=532

184.8814, 142.4995
186.8099, 147.6107
188.7384, 152.0117
190.6668, 156.1245
192.5953, 159.2637
194.5238, 161.2085
196.4522, 162.1937
198.3807, 162.8654
200.3092, 163.0642
202.2376, 163.1219
204.1661, 163.3662
206.0946, 164.4971
208.0230, 164.6468
209.9515, 162.9461
211.8800, 159.5933
213.8084, 156.7829
215.7369, 154.5061
217.6654, 152.7870
219.5938, 151.7373
221.5223, 151.4943
223.4508, 151.2768
225.3792, 150.8379
227.3077, 150.1831
229.2362, 149.7985
231.1646, 149.9896
233.0931, 150.1755
235.0216, 149.8297
236.9500, 148.5645
238.8785, 147.4117
240.8070, 146.6354
242.7354, 146.2433
244.6639, 145.9868
246.5924, 145.9128
248.5208, 145.8532
250.4493, 145.8580
252.3778, 145.9146
254.3062, 146.1854
256.2347, 146.6640
258.1632, 147.2679
260.0916, 147.8296
262.0201, 148.3479
263.9486, 148.8025
265.8770, 149.1587
267.8055, 149.3699
269.7340, 149.6277
271.6624, 150.0272
273.5909, 150.4971
275.5194, 150.8787
277.4478, 151.2483
279.3763, 151.3939
281.3048, 151.2224
283.2332, 150.7747
285.1617, 150.3955
287.0902, 150.2412
289.0186, 150.1118
290.9471, 149.7097
292.8756, 148.5709
294.8040, 147.6735
296.7325, 147.5623
298.6610, 148.0761
300.5894, 148.1987
302.5179, 147.5606
304.4464, 146.7056
306.3748, 145.9806
308.3033, 145.3544
310.2318, 144.8896
312.1602, 144.5939
314.0887, 144.4135
316.0172, 144.2452
317.9456, 143.8683
319.8741, 143.7324
321.8026, 144.2545
323.7310, 145.4899
325.6595, 146.9280
327.5880, 148.4231
329.5164, 149.8214
331.4449, 150.8928
333.3734, 151.7155
335.3018, 152.3416
337.2303, 152.6577
339.1588, 152.6338
341.0872, 152.3589
343.0157, 151.7385
344.9442, 150.9861
346.8727, 150.3103
348.8011, 149.7590
350.7296, 149.4124
352.6581, 149.4875
354.5865, 149.8051
356.5150, 149.6174
358.4435, 148.6756
360.3719, 147.3848
362.3004, 145.8460
364.2289, 144.0829
366.1573, 142.2491
368.0858, 140.3838
370.0143, 138.5542
371.9427, 136.8049
373.8712, 135.0346
375.7997, 133.3782
377.7281, 132.0430
379.6566, 131.0856
381.5851, 130.3886
383.5135, 129.7171
385.4420, 129.0319
387.3705, 128.3839
389.2989, 127.8492
391.2274, 127.2612
393.1559, 126.4842
395.0843, 125.6124
397.0128, 124.7961
398.9413, 124.1385
400.8697, 123.4211
402.7982, 122.5426
404.7267, 121.6089
406.6551, 120.9142
408.5836, 120.3326
410.5121, 119.9697
412.4405, 120.0251
414.3690, 120.6235
416.2975, 121.0378
418.2259, 121.0923
420.1544, 121.0274
422.0829, 121.1476
424.0113, 121.5148
425.9398, 121.5958
427.8683, 121.1341
429.7967, 120.3316
431.7252, 119.7530
433.6537, 119.4375
435.5821, 119.2617
437.5106, 119.2001
439.4391, 119.7606
441.3675, 120.0909
443.2960, 119.7636
445.2245, 118.9189
447.1529, 117.9445
449.0814, 117.2164
451.0099, 116.5715
452.9383, 116.0118
454.8668, 115.4136
456.7953, 114.6545
458.7237, 113.5973
460.6522, 112.5353
462.5807, 111.6112
464.5091, 110.9054
466.4376, 110.1759
468.3661, 109.2393
470.2945, 108.3603
472.2230, 107.9019
474.1515, 107.9110
476.0799, 107.7148
478.0084, 107.0111
479.9369, 106.1433
481.8653, 105.7513
483.7938, 105.8121
485.7223, 106.2115
487.6507, 107.0678
489.5792, 108.2973
491.5077, 109.5365
493.4361, 110.4611
495.3646, 111.5800
497.2931, 113.3398
499.2215, 115.8199
501.1500, 118.2022
503.0785, 120.2919
505.0069, 122.2632
506.9354, 124.3913
508.8639, 126.7050
510.7923, 128.8204
512.7208, 130.6231
514.6493, 132.2767
516.5778, 133.8730
518.5062, 135.1744
520.4347, 136.8365
522.3632, 139.0782
524.2916, 142.0557
526.2201, 145.2152
528.1486, 148.8004
530.0770, 152.4313
532.0055, 155.9617
533.9340, 159.0517
535.8624, 161.9310
537.7909, 164.7304
539.7194, 167.4236
541.6478, 169.8058
543.5763, 171.9352
545.5048, 173.8945
547.4332, 175.8346
549.3617, 177.5185
551.2902, 178.6080
553.2186, 178.9321
555.1471, 178.7891
557.0756, 178.1490
559.0040, 176.9424
560.9325, 175.5959
562.8610, 174.1042
564.7894, 172.6826
566.7179, 171.4569
568.6464, 170.3803
570.5748, 168.8517
572.5033, 167.0500
574.4318, 164.6519
576.3602, 161.1685
578.2887, 156.5013
580.2172, 152.1001
582.1456, 148.2905
584.0741, 144.9344
586.0026, 141.7153
587.9310, 138.1515
589.8595, 135.0807
591.7880, 132.6566
593.7164, 130.9658
595.6449, 129.7701
597.5734, 129.2749
599.5018, 128.9276
601.4303, 128.6197
603.3588, 128.4286
605.2872, 128.5496
607.2157, 129.0874
609.1442, 129.8153
611.0726, 130.5882
613.0011, 131.3564
614.9296, 132.4196
616.8580, 134.2356
618.7865, 136.0121
620.7150, 137.2621
622.6434, 137.9529
624.5719, 138.3740
626.5004, 138.3814
628.4288, 138.2835
630.3573, 138.2775
632.2858, 138.3307
634.2142, 138.5727
636.1427, 139.2108
638.0712, 139.9723
639.9996, 140.3791
641.9281, 140.2404
643.8566, 140.3246
645.7850, 140.8096
647.7135, 141.6475
649.6420, 142.8322
651.5704, 144.5961
653.4989, 146.4551
655.4274, 148.4023
657.3558, 150.4096
659.2843, 152.3254
661.2128, 153.9057
663.1412, 155.7612
665.0697, 158.0643
666.9982, 160.8685
668.9266, 164.0230
670.8551, 167.7830
672.7836, 171.5488
674.7120, 175.0872
676.6405, 178.4355
678.5690, 181.8042
680.4974, 185.5869
682.4259, 189.1211
684.3544, 192.0809
686.2828, 194.4778
688.2113, 196.0315
690.1398, 196.4334
692.0682, 196.1518
693.9967, 195.5903
695.9252, 194.7570
697.8536, 193.7876
699.7821, 192.8453
701.7106, 191.6016
703.6390, 189.8254
705.5675, 187.5280
707.4960, 185.3286
709.4244, 183.5350
711.3529, 181.6120
713.2814, 179.2337
715.2098, 176.1663
717.1383, 173.3091
719.0668, 170.6709
720.9952, 168.2626
722.9237, 166.2548
724.8522, 164.5240
726.7806, 163.1990
728.7091, 162.3978
730.6376, 162.1147
732.5660, 162.2163
734.4945, 162.8393
736.4230, 163.6018
738.3514, 164.5736
740.2799, 165.7761
742.2084, 166.6071
744.1368, 166.8335
746.0653, 166.8535
747.9938, 167.0357
749.9222, 167.6394
751.8507, 168.0045
753.7792, 167.9524
755.7076, 167.3362
757.6361, 166.4133
759.5646, 165.5416
761.4930, 164.5737
763.4215, 163.4476
765.3500, 161.9811
767.2784, 160.2010
769.2069, 158.3226
771.1354, 156.4617
773.0638, 154.6629
774.9923, 152.7477
776.9208, 150.6250
778.8492, 148.4284
780.7777, 146.5179
782.7062, 145.0055
784.6346, 143.2868
786.5631, 141.0193
788.4916, 138.7215
790.4200, 136.7363
792.3485, 135.3178
794.2770, 133.5216
796.2054, 131.2991
798.1339, 129.2326
800.0624, 127.4991
801.9908, 126.0695
803.9193, 124.7507
805.8478, 123.5659
807.7762, 122.5454
809.7047, 121.6192
811.6332, 120.7149
813.5616, 119.7355
815.4901, 118.9204
817.4186, 118.5545
819.3470, 118.2769
821.2755, 117.9859
823.2040, 117.6203
825.1324, 117.2388
827.0609, 116.9195
828.9894, 116.7389
830.9178, 116.6927
832.8463, 116.8690
834.7748, 117.5197
836.7032, 118.3070
838.6317, 118.8005
840.5602, 118.9914
842.4886, 119.3918
844.4171, 120.1194
846.3456, 120.6539
848.2740, 121.0688
850.2025, 121.4382
852.1310, 121.9216
854.0594, 122.4068
855.9879, 122.9462
857.9164, 123.4832
859.8448, 123.9172
861.7733, 124.0910
863.7018, 124.1282
865.6302, 124.2996
867.5587, 124.4032
869.4872, 124.3424
871.4156, 124.3377
873.3441, 124.6710
875.2726, 125.2450
877.2010, 125.6519
879.1295, 125.7412
881.0580, 125.7215
882.9865, 126.0059
884.9149, 126.6438
886.8434, 127.4652
888.7719, 128.4908
890.7003, 129.6448
892.6288, 130.7334
894.5573, 131.6846
896.4857, 132.8855
898.4142, 134.6608
900.3427, 136.7632
902.2711, 138.6880
904.1996, 140.0197
906.1281, 140.8470
908.0565, 141.3934
909.9850, 142.0494
911.9135, 143.1599
913.8419, 144.7138
915.7704, 146.2648
917.6989, 147.3674
919.6273, 148.2253
921.5558, 149.2279
923.4843, 150.6249
925.4127, 152.5605
927.3412, 154.7013
929.2697, 156.8067
931.1981, 158.8630
933.1266, 161.3300
935.0551, 164.1231
936.9835, 166.8274
938.9120, 169.1243
940.8405, 170.7106
942.7689, 171.3491
944.6974, 170.9275
946.6259, 170.2552
948.5543, 169.6879
950.4828, 168.8765
952.4113, 167.3115
954.3397, 164.6501
956.2682, 161.4238
958.1967, 158.0728
960.1251, 154.8847
962.0536, 152.0226
963.9821, 149.5969
965.9105, 147.3356
967.8390, 145.0949
969.7675, 143.3271
971.6959, 142.2187
973.6244, 141.5155
975.5529, 140.7212
977.4813, 139.9874
979.4098, 139.4633
981.3383, 139.0889
983.2667, 138.8209
985.1952, 138.8559
987.1237, 139.1247
989.0521, 139.2618
990.9806, 139.2642
992.9091, 139.5255
994.8375, 140.3404
996.7660, 141.7224
998.6945, 143.1886
1000.623, 144.4495
1002.551, 145.3688
1004.480, 145.7692
1006.408, 146.2868
1008.337, 147.2394
1010.265, 148.5964
1012.194, 149.9009
1014.122, 151.0057
1016.051, 152.0650
1017.979, 153.3335
1019.908, 154.8311
1021.836, 156.2293
1023.765, 157.3617
1025.693, 158.1958
1027.621, 159.0257
1029.550, 159.9609
1031.478, 160.5019
1033.407, 160.3979
1035.335, 159.8493
1037.264, 159.0084
1039.192, 158.1078
1041.121, 157.1585
1043.049, 155.9870
1044.978, 154.8343
1046.906, 153.8529
1048.835, 153.1980
1050.763, 152.3876
1052.692, 151.3771
1054.620, 150.8818
1056.548, 151.1827
1058.477, 152.0428
1060.405, 153.3830
1062.334, 154.8704
1064.262, 156.2215
1066.191, 157.4125
1068.119, 158.8139
1070.048, 160.8906
1071.976, 162.7445
1073.905, 163.2578
1075.833, 162.5714
1077.762, 161.5405
1079.690, 160.4009
1081.619, 158.4475
1083.547, 155.4543
1085.475, 152.1447
1087.404, 148.8957
1089.332, 145.6319
1091.261, 142.1980
1093.189, 138.6170
1095.118, 135.0358
1097.046, 131.5639
1098.975, 128.2707
1100.903, 125.3480
1102.832, 122.9484
1104.760, 120.8010
1106.689, 118.6472
1108.617, 116.2403
1110.546, 113.9233
1112.474, 111.6916
1114.402, 110.0111
1116.331, 108.8610
1118.259, 108.1383
1120.188, 107.4630
1122.116, 106.6081
1124.045, 105.7166
1125.973, 104.9389
1127.902, 104.3508
1129.830, 103.6684
1131.759, 102.8996
1133.687, 102.1989
1135.616, 101.5733
1137.544, 100.9857
1139.473, 100.5206
1141.401, 100.1564
1143.329, 99.75404
1145.258, 99.26707
1147.186, 98.83578
1149.115, 98.44722
1151.043, 98.04507
1152.972, 97.66618
1154.900, 97.28440
1156.829, 97.13491
1158.757, 97.43770
1160.686, 97.77254
1162.614, 97.81874
1164.543, 97.58398
1166.471, 97.37659
1168.400, 97.30155
1170.328, 97.19278
1172.256, 96.83318
1174.185, 96.42947
1176.113, 96.33707
1178.042, 96.69105
1179.970, 96.84524
1181.899, 96.71434
1183.827, 96.42295
1185.756, 95.92833
1187.684, 95.32077
1189.613, 94.94529
1191.541, 94.94142
1193.470, 94.82301
1195.398, 94.23543
1197.327, 93.65657
1199.255, 93.57337
1201.183, 94.00784
1203.112, 94.28105
1205.040, 94.17477
1206.969, 94.01121
1208.897, 93.83740
1210.826, 93.72701
1212.754, 93.79800
1214.683, 94.40652
1216.611, 94.71786
1218.540, 94.51295
1220.468, 94.18710
1222.397, 94.07531
1224.325, 94.16705
1226.254, 94.24178
1228.182, 94.26516
1230.110, 94.30674
1232.039, 94.32040
1233.967, 94.36201
1235.896, 94.58646
1237.824, 95.06425
1239.753, 95.36142
1241.681, 95.22647
1243.610, 95.05213
1245.538, 95.06944
1247.467, 95.30943
1249.395, 95.49244
1251.324, 95.59094
1253.252, 95.68385
1255.181, 95.78994
1257.109, 95.87866
1259.037, 95.99856
1260.966, 96.24170
1262.894, 96.45361
1264.823, 96.59014
1266.751, 96.62463
1268.680, 96.48930
1270.608, 96.32396
1272.537, 96.27155
1274.465, 96.32527
1276.394, 96.40909
1278.322, 96.50595
1280.251, 96.70695
1282.179, 97.07814
1284.108, 97.54279
1286.036, 97.88541
1287.964, 98.13342
1289.893, 98.34756
1291.821, 98.54295
1293.750, 98.62395
1295.678, 98.49236
1297.607, 98.01003
1299.535, 97.85925
1301.464, 98.29175
1303.392, 98.74768
1305.321, 98.93690
1307.249, 99.07446
1309.178, 99.32723
1311.106, 99.65740
1313.035, 99.96267
1314.963, 100.2511
1316.891, 100.5019
1318.820, 100.7242
1320.748, 101.0038
1322.677, 101.1833
1324.605, 101.0682
1326.534, 100.9842
1328.462, 101.1354
1330.391, 101.3518
1332.319, 101.3289
1334.248, 100.9383
1336.176, 100.7850
1338.105, 101.0816
1340.033, 101.3530
1341.962, 101.3691
1343.890, 101.3247
1345.818, 101.5541
1347.747, 102.0374
1349.675, 102.4682
1351.604, 102.9047
1353.532, 103.1499
1355.461, 102.9242
1357.389, 102.5124
1359.318, 102.3666
1361.246, 102.5369
1363.175, 102.7809
1365.103, 103.1640
1367.032, 103.4680
1368.960, 103.5592
1370.889, 103.4386
1372.817, 103.2943
1374.745, 103.1660
1376.674, 103.1423
1378.602, 103.2360
1380.531, 103.3081
1382.459, 103.2339
1384.388, 103.4551
1386.316, 103.7242
1388.245, 103.8811
1390.173, 104.4069
1392.102, 104.7954
1394.030, 105.0018
1395.959, 104.6962
1397.887, 103.8044
1399.816, 103.6038
1401.744, 104.5873
1403.672, 105.4773
1405.601, 105.8260
1407.529, 105.8122
1409.458, 105.6539
1411.386, 105.5703
1413.315, 105.5862
1415.243, 105.7153
1417.172, 105.7656
1419.100, 105.5648
1421.029, 105.3737
1422.957, 105.5067
1424.886, 105.3794
1426.814, 105.3128
1428.743, 105.4292
1430.671, 105.2507
1432.599, 105.3498
1434.528, 105.5444
1436.456, 105.7215
1438.385, 105.9684
1440.313, 106.3806
1442.242, 107.3217
1444.170, 107.8152
1446.099, 107.2270
1448.027, 106.2992
1449.956, 106.0138
1451.884, 106.4186
1453.813, 106.6673
1455.741, 107.0011
1457.670, 107.3020
1459.598, 107.4474
1461.526, 107.5304
1463.455, 106.3901
1465.383, 108.1314
1467.312, 109.1785
1469.240, 109.5685
1471.169, 107.3336
1473.097, 108.4882
1475.026, 108.2844
1476.954, 108.0249
1478.883, 109.6567
1480.811, 107.8035
1482.740, 109.4052
1484.668, 109.6278
1486.597, 110.4816
1488.525, 109.9686
1490.453, 109.8777
1492.382, 111.1541
1494.310, 111.6734
1496.239, 111.0031
1498.167, 111.8969
1500.096, 109.9961
1502.024, 110.5476
1503.953, 112.1573
1505.881, 111.5557
1507.810, 112.4746
1509.738, 112.8144
1511.667, 110.5225
1513.595, 112.8073
1515.524, 113.1129
1517.452, 111.3861
1519.380, 113.5142
1521.309, 112.0676
1523.237, 111.8969
1525.166, 112.6865
1527.094, 112.4751
1529.023, 113.8419
1530.951, 113.2788
1532.880, 113.8557
1534.808, 114.2446
1536.737, 114.3898
1538.665, 114.5700
1540.594, 114.6326
1542.522, 114.8986
1544.451, 115.8430
1546.379, 116.8445
1548.307, 116.9338
1550.236, 116.0718
1552.164, 116.1105
1554.093, 117.7193
1556.021, 118.9049
1557.950, 119.0596
1559.878, 118.8634
1561.807, 118.7040
1563.735, 118.5977
1565.664, 118.6646
1567.592, 118.9831
1569.521, 119.1672
1571.449, 119.1130
1573.378, 119.0007
1575.306, 118.6390
1577.234, 118.3165
1579.163, 118.7484
1581.091, 120.0084
1583.020, 120.7991
1584.948, 120.6171
1586.877, 120.5218
1588.805, 121.0532
1590.734, 121.8256
1592.662, 122.5737
1594.591, 123.2483
1596.519, 123.5510
1598.448, 123.3638
1600.376, 123.1174
1602.305, 122.6979
1604.233, 122.4744
1606.161, 122.8319
1608.090, 123.4685
1610.018, 123.7456
1611.947, 123.6438
1613.875, 123.3139
1615.804, 122.6396
1617.732, 122.0235
1619.661, 121.6134
1621.589, 121.3687
1623.518, 121.3418
1625.446, 121.5085
1627.375, 121.4433
1629.303, 120.9181
1631.232, 120.6918
1633.160, 121.2337
1635.089, 121.7423
1637.017, 121.6229
1638.945, 122.1080
1640.874, 121.4063
1642.802, 122.3673
1644.731, 122.8328
1646.659, 122.5143
1648.588, 122.0338
1650.516, 121.4117
1652.445, 120.8599
1654.373, 120.5426
1656.302, 120.4469
1658.230, 120.5333
1660.159, 120.8574
1662.087, 121.1679
1664.016, 121.5837
1665.944, 121.7864
1667.872, 121.4105
1669.801, 120.9016
1671.729, 120.9583
1673.658, 121.6622
1675.586, 121.9441
1677.515, 121.5101
1679.443, 121.2450
1681.372, 121.3345
1683.300, 121.5782
1685.229, 121.9794
1687.157, 122.4166
1689.086, 122.6052
1691.014, 122.4680
1692.943, 122.4018
1694.871, 122.3920
1696.799, 122.4709
1698.728, 122.7500
1700.656, 123.0229
1702.585, 123.0251
1704.513, 122.9252
1706.442, 123.3365
1708.370, 124.5382
1710.299, 125.2582
1712.227, 125.1362
1714.156, 124.9264
1716.084, 124.6839
1718.013, 124.5205
1719.941, 124.5564
1721.870, 124.7536
1723.798, 124.9494
1725.726, 125.1383
1727.655, 125.3567
1729.583, 125.7641
1731.512, 125.9935
1733.440, 125.8220
1735.369, 125.5403
1737.297, 125.3237
1739.226, 125.2120
1741.154, 125.4954
1743.083, 126.3779
1745.011, 126.9201
1746.940, 126.7067
1748.868, 126.5886
1750.797, 126.8542
1752.725, 127.2801
1754.653, 127.7098
1756.582, 128.1201
1758.510, 128.4393
1760.439, 128.6756
1762.367, 128.7753
1764.296, 128.6503
1766.224, 128.5520
1768.153, 128.7748
1770.081, 128.8948
1772.010, 128.2820
1773.938, 128.6332
1775.867, 128.8468
1777.795, 128.6764
1779.724, 129.5043
1781.652, 129.3602
1783.580, 129.2039
1785.509, 129.3795
1787.437, 129.6179
1789.366, 129.7681
1791.294, 129.8237
1793.223, 129.7038
1795.151, 129.3986
1797.080, 129.4099
1799.008, 129.9930
1800.937, 130.3453
1802.865, 129.8871
1804.794, 129.5544
1806.722, 130.2849
1808.651, 131.3410
1810.579, 131.4407
1812.507, 130.7146
1814.436, 130.6136
1816.364, 131.4610
1818.293, 132.0091
1820.221, 131.6655
1822.150, 131.3727
1824.078, 131.7607
1826.007, 132.3360
1827.935, 132.5390
1829.864, 132.4628
1831.792, 132.4505
1833.721, 132.5327
1835.649, 132.5774
1837.578, 132.3521
1839.506, 132.4349
1841.434, 133.4265
1843.363, 134.3729
1845.291, 134.3058
1847.220, 133.6980
1849.148, 133.6825
1851.077, 134.3454
1853.005, 134.8295
1854.934, 134.9707
1856.862, 135.2287
1858.791, 135.8028
1860.719, 136.3387
1862.648, 136.7505
1864.576, 136.9831
1866.505, 136.8972
1868.433, 136.5460
1870.361, 136.2834
1872.290, 136.1203
1874.218, 136.0211
1876.147, 136.0206
1878.075, 136.0458
1880.004, 135.9938
1881.932, 136.0700
1883.861, 136.5279
1885.789, 137.1363
1887.718, 137.4593
1889.646, 137.4852
1891.575, 137.5841
1893.503, 137.7583
1895.432, 137.9467
1897.360, 138.1426
1899.288, 138.3562
1901.217, 138.6424
1903.145, 138.9458
1905.074, 139.2143
1907.002, 139.5047
1908.931, 139.9535
1910.859, 140.5428
1912.788, 140.9918
1914.716, 141.2619
1916.645, 141.3488
1918.573, 141.2010
1920.502, 140.8940
1922.430, 140.1693
1924.359, 139.5587
1926.287, 139.6987
1928.215, 140.2907
1930.144, 140.5201
1932.072, 140.3743
1934.001, 140.6991
1935.929, 141.8932
1937.858, 142.7244
1939.786, 142.7368
1941.715, 142.7493
1943.643, 143.1990
1945.572, 143.6437
1947.500, 143.5782
1949.429, 143.2334
1951.357, 143.2198
1953.286, 143.5810
1955.214, 143.7423
1957.143, 143.5461
1959.071, 143.5206
1961.000, 143.8961
1962.928, 144.2106
1964.856, 144.3735
1966.785, 144.4066
1968.713, 144.1392
1970.642, 143.8535
1972.570, 144.2161
1974.499, 145.0943
1976.427, 145.4788
1978.356, 145.2509
1980.284, 144.9818
1982.213, 144.5836
1984.141, 144.5438
1986.070, 145.3163
1987.998, 146.1516
1989.927, 146.6894
1991.855, 146.9670
1993.783, 146.8807
1995.712, 146.5604
1997.640, 146.6394
1999.569, 147.2610
2001.497, 147.5997
2003.426, 147.4395
2005.354, 147.3484
2007.283, 147.2754
2009.211, 147.4064
2011.140, 148.0849
2013.068, 148.7230
2014.997, 148.6975
2016.925, 148.3378
2018.854, 148.3713
2020.782, 148.7775
2022.710, 148.9064
2024.639, 148.6720
2026.567, 148.6889
2028.496, 149.1353
2030.424, 149.5623
2032.353, 149.7275
2034.281, 149.9735
2036.210, 150.7940
2038.138, 151.5234
2040.067, 151.2056
2041.995, 150.3604
2043.924, 150.3564
2045.852, 151.1822
2047.781, 151.6331
2049.709, 151.5430
2051.637, 151.4828
2053.566, 151.5057
2055.494, 151.5344
2057.423, 151.4956
2059.351, 151.5443
2061.280, 151.9157
2063.208, 152.3154
2065.137, 152.2934
2067.065, 152.0892
2068.994, 152.4707
2070.922, 153.4002
2072.851, 153.8769
2074.779, 153.7504
2076.708, 153.7110
2078.636, 153.7768
2080.564, 154.0778
2082.493, 154.9958
2084.421, 155.6586
2086.350, 155.4622
2088.278, 154.9707
2090.207, 154.5945
2092.135, 154.3902
2094.064, 154.5327
2095.992, 154.9933
2097.921, 155.2421
2099.849, 155.1899
2101.778, 155.1301
2103.706, 154.8250
2105.635, 154.8908
2107.563, 156.0530
2109.491, 156.6803
2111.420, 155.6884
2113.348, 154.6674
2115.277, 154.7730
2117.205, 155.3712
2119.134, 155.6933
2121.062, 155.8398
2122.991, 156.0139
2124.919, 156.2198
2126.848, 156.7215
2128.776, 157.6227
2130.705, 158.3562
2132.633, 158.9272
2134.562, 159.1799
2136.490, 158.9121
2138.418, 158.5615
2140.347, 158.2812
2142.275, 158.0510
2144.204, 157.8321
2146.132, 157.6805
2148.061, 157.6366
2149.989, 157.7384
2151.918, 158.2663
2153.846, 158.3957
2155.775, 158.6553
2157.703, 159.2120
2159.632, 159.1886
2161.560, 159.8613
2163.489, 160.3647
2165.417, 160.2614
2167.345, 160.1713
2169.274, 160.4819
2171.202, 160.7707
2173.131, 160.6094
2175.059, 160.3391
2176.988, 160.4767
2178.916, 160.8968
2180.845, 161.1538
2182.773, 161.2584
2184.702, 161.4339
2186.630, 161.6653
2188.559, 162.1501
2190.487, 163.0865
2192.416, 163.5173
2194.344, 162.8874
2196.272, 162.3538
2198.201, 162.5211
2200.129, 162.6950
2202.058, 162.2873
2203.986, 161.9152
2205.915, 162.2803
2207.843, 163.0167
2209.772, 163.5798
2211.700, 163.9521
2213.629, 163.9694
2215.557, 163.6328
2217.486, 163.5244
2219.414, 163.6838
2221.343, 164.0200
2223.271, 164.6417
2225.199, 165.0029
2227.128, 164.7598
2229.056, 164.6013
2230.985, 164.8438
2232.913, 165.1373
2234.842, 165.1915
2236.770, 165.3123
2238.699, 165.9211
2240.627, 166.1424
2242.556, 167.0549
2244.484, 167.1613
2246.413, 167.6721
2248.341, 168.4983
2250.270, 168.5888
2252.198, 167.8539
2254.126, 167.7535
2256.055, 168.5963
2257.983, 169.3226
2259.912, 169.7918
2261.840, 170.0005
2263.769, 169.7207
2265.697, 169.4901
2267.626, 169.5804
2269.554, 169.7079
2271.483, 169.7105
2273.411, 169.6813
2275.340, 169.6343
2277.268, 169.6962
2279.197, 170.2096
2281.125, 170.9633
2283.053, 171.3328
2284.982, 171.3371
2286.910, 171.2160
2288.839, 170.8992
2290.767, 170.8852
2292.696, 171.3156
2294.624, 171.7545
2296.553, 172.3826
2298.481, 172.6883
2300.410, 172.3741
2302.338, 172.1454
2304.267, 171.0897
2306.195, 172.8531
2308.124, 173.9223
2310.052, 174.3342
2311.980, 172.1211
2313.909, 173.2978
2315.837, 173.1160
2317.766, 172.8786
2319.694, 174.5323
2321.623, 172.7011
2323.551, 174.3248
2325.480, 174.5694
2327.408, 175.4452
2329.337, 174.9542
2331.265, 174.8853
2333.194, 176.1837
2335.122, 176.7251
2337.051, 176.0767
2338.979, 176.9926
2340.907, 175.1135
2342.836, 175.6872
2344.764, 177.3189
2346.693, 176.7393
2348.621, 177.6802
2350.550, 178.0420
2352.478, 175.7719
2354.407, 178.0789
2356.335, 178.4065
2358.264, 176.7016
2360.192, 178.8518
2362.121, 177.4272
2364.049, 177.2784
2365.978, 178.0901
2367.906, 177.9006
2369.834, 179.2894
2371.763, 179.1578
2373.691, 178.8902
2375.620, 179.2157
2377.548, 177.8610
2379.477, 179.6231
2381.405, 179.2562
2383.334, 179.9476
2385.262, 180.8788
2387.191, 179.9734
2389.119, 181.0124
2391.048, 179.0361
2392.976, 179.5828
2394.905, 179.8578
2396.833, 181.7455
2398.761, 179.7838
2400.690, 180.2605
2402.618, 181.7752
2404.547, 181.8374
2406.475, 182.5069
2408.404, 181.3784
2410.332, 181.9389
2412.261, 182.0340
2414.189, 183.7377
2416.118, 184.1715
2418.046, 183.0735
2419.975, 181.9820
2421.903, 182.5273
2423.832, 182.0195
2425.760, 181.5036
2427.688, 181.6663
2429.617, 182.6273
2431.545, 183.3071
2433.474, 183.4784
2435.402, 183.7260
2437.331, 184.3790
2439.259, 184.6384
2441.188, 184.2062
2443.116, 183.8847
2445.045, 183.7961
2446.973, 183.9158
2448.902, 184.3486
2450.830, 184.7716
2452.759, 184.8835
2454.687, 185.1055
2456.615, 185.9629
2458.544, 186.6580
2460.472, 186.2850
2462.401, 185.8405
2464.329, 186.4729
2466.258, 187.3787
2468.186, 187.6358
2470.115, 187.5281
2472.043, 187.2370
2473.972, 186.9810
2475.900, 187.3768
2477.829, 187.2952
2479.757, 188.3056
2481.686, 187.9958
2483.614, 188.4108
2485.542, 189.4519
2487.471, 189.6156
2489.399, 188.9667
2491.328, 188.8432
2493.256, 189.3829
2495.185, 189.6776
2497.113, 189.5228
2499.042, 189.5468
2500.970, 189.8877
2502.899, 189.8945
2504.827, 189.2696
2506.756, 189.2264
2508.684, 190.2297
2510.613, 190.8623
2512.541, 190.5424
2514.469, 190.3867
2516.398, 190.9021
2518.326, 191.3447
2520.255, 191.5091
2522.183, 191.5691
2524.112, 191.3503
2526.040, 191.3777
2527.969, 192.0389
2529.897, 192.7413
2531.826, 193.1487
2533.754, 193.4867
2535.683, 194.0051
2537.611, 194.4151
2539.540, 194.4605
2541.468, 194.3145
2543.396, 193.8057
2545.325, 193.4906
2547.253, 194.1553
2549.182, 195.1295
2551.110, 195.6276
2553.039, 195.8890
2554.967, 196.5294
2556.896, 197.0784
2558.824, 196.2721
2560.753, 194.8349
2562.681, 194.4120
2564.610, 194.8199
2566.538, 195.8913
2568.467, 197.2645
2570.395, 197.5668
2572.323, 197.9899
2574.252, 197.1306
2576.180, 197.7789
2578.109, 197.7484
2580.037, 197.1566
2581.966, 197.3918
2583.894, 198.4189
2585.823, 199.1113
2587.751, 199.4215
2589.680, 199.4735
2591.608, 199.1720
2593.537, 199.2160
2595.465, 199.6299
2597.394, 200.0555
2599.322, 200.4661
2601.250, 200.7289
2603.179, 200.8027
2605.107, 200.8652
2607.036, 200.8548
2608.964, 201.1265
2610.893, 201.9737
2612.821, 202.2291
2614.750, 201.5773
2616.678, 201.6106
2618.607, 202.8034
2620.535, 203.5348
2622.464, 203.1666
2624.392, 203.0842
2626.321, 203.7610
2628.249, 204.2193
2630.177, 204.4243
2632.106, 204.2453
2634.034, 203.3499
2635.963, 203.1161
2637.891, 204.1213
2639.820, 205.3629
2641.748, 207.2633
2643.677, 208.2100
2645.605, 207.3295
2647.534, 206.5999
2649.462, 206.3670
2651.391, 206.4626
2653.319, 207.0855
2655.248, 207.4796
2657.176, 207.2061
2659.104, 206.9719
2661.033, 206.9290
2662.961, 207.0555
2664.890, 207.4128
2666.818, 207.8719
2668.747, 208.6801
2670.675, 209.0700
2672.604, 208.4340
2674.532, 207.8390
2676.461, 207.3944
2678.389, 207.4404
2680.318, 208.3089
2682.246, 209.1370
2684.175, 209.6142
2686.103, 209.9269
2688.031, 210.1349
2689.960, 210.2386
2691.888, 210.1540
2693.817, 210.1691
2695.745, 210.5815
2697.674, 210.7661
2699.602, 210.3147
2701.531, 209.9117
2703.459, 209.5720
2705.388, 209.7337
2707.316, 211.1424
2709.245, 212.1135
2711.173, 211.8892
2713.102, 211.5828
2715.030, 211.4601
2716.958, 211.5953
2718.887, 212.3191
2720.815, 212.8258
2722.744, 212.4227
2724.672, 212.5000
2726.601, 213.8121
2728.529, 214.8675
2730.458, 215.1068
2732.386, 215.1046
2734.315, 214.7647
2736.243, 214.6745
2738.172, 215.2415
2740.100, 215.6048
2742.029, 215.4193
2743.957, 215.4654
2745.885, 216.3186
2747.814, 216.7400
2749.742, 215.7684
2751.671, 215.4809
2753.599, 216.7395
2755.528, 217.5525
2757.456, 217.2941
2759.385, 217.3618
2761.313, 218.1785
2763.242, 219.0629
2765.170, 220.2804
2767.099, 220.6307
2769.027, 219.5692
2770.956, 219.1926
2772.884, 220.0522
2774.813, 220.4909
2776.741, 220.1015
2778.669, 219.6919
2780.598, 219.2570
2782.526, 219.1253
2784.455, 219.3315
2786.383, 219.8083
2788.312, 220.5955
2790.240, 221.0836
2792.169, 221.0345
2794.097, 221.2152
2796.026, 221.6620
2797.954, 222.1041
2799.883, 222.5396
2801.811, 221.9859
2803.740, 222.8389
2805.668, 220.7751
2807.596, 223.3434
2809.525, 224.0830
2811.453, 223.1301
2813.382, 222.6137
2815.310, 222.5228
2817.239, 222.6532
2819.167, 222.9352
2821.096, 223.0723
2823.024, 223.0654
2824.953, 222.6909
2826.881, 223.1591
2828.810, 222.7940
2830.738, 223.8985
2832.667, 224.6532
2834.595, 225.1664
2836.523, 225.7302
2838.452, 226.1861
2840.380, 226.1632
2842.309, 225.9711
2844.237, 225.9103
2846.166, 225.9881
2848.094, 226.2984
2850.023, 226.6314
2851.951, 226.5871
2853.880, 226.6886
2855.808, 227.6622
2857.737, 228.4896
2859.665, 228.1462
2861.594, 227.8771
2863.522, 228.7548
2865.450, 229.4240
2867.379, 229.0765
2869.307, 228.8568
2871.236, 229.5158
2873.164, 229.9621
2875.093, 229.3129
2877.021, 229.4290
2878.950, 231.1582
2880.878, 232.0423
2882.807, 231.0914
2884.735, 230.7117
2886.664, 231.7728
2888.592, 232.6809
2890.521, 233.4425
2892.449, 233.7608
2894.377, 233.5829
2896.306, 233.3234
2898.234, 233.0129
2900.163, 232.5094
2902.091, 231.7942
2904.020, 231.9659
2905.948, 232.9175
2907.877, 234.2818
2909.805, 235.6993
2911.734, 235.2280
2913.662, 233.7995
2915.591, 234.3915
2917.519, 236.0673
2919.448, 237.2414
2921.376, 237.9357
2923.304, 238.0711
2925.233, 237.8551
2927.161, 237.1454
2929.090, 236.7135
2931.018, 237.7006
2932.947, 238.4913
2934.875, 237.5193
2936.804, 236.7008
2938.732, 237.2713
2940.661, 237.9389
2942.589, 238.3190
2944.518, 238.6012
2946.446, 238.7641
2948.375, 239.0378
2950.303, 239.5053
2952.231, 240.0123
2954.160, 240.5346
2956.088, 241.2613
2958.017, 241.2644
2959.945, 241.2618
2961.874, 241.2964
2963.802, 240.7285
2965.731, 240.6852
2967.659, 240.5585
2969.588, 240.3867
2971.516, 240.2850
2973.445, 240.3490
2975.373, 241.0474
2977.302, 241.1051
2979.230, 242.0074
2981.158, 241.8668
2983.087, 242.3557
2985.015, 242.8938
2986.944, 242.8761
2988.872, 242.7697
2990.801, 242.8511
2992.729, 243.0188
2994.658, 243.3427
2996.586, 243.5259
2998.515, 243.2694
3000.443, 243.1963
3002.372, 243.3697
3004.300, 243.9063
3006.229, 245.1374
3008.157, 245.8099
3010.085, 245.8223
3012.014, 245.8449
3013.942, 245.9111
3015.871, 246.0216
3017.799, 246.1505
3019.728, 246.0507
3021.656, 246.2169
3023.585, 246.0479
3025.513, 246.4494
3027.442, 246.6748
3029.370, 246.9039
3031.299, 247.3185
3033.227, 247.8841
3035.156, 248.7602
3037.084, 249.4546
3039.012, 249.5958
3040.941, 249.6338
3042.869, 249.7136
3044.798, 249.8523
3046.726, 250.0914
3048.655, 250.3045
3050.583, 250.5383
3052.512, 250.3416
3054.440, 250.7771
3056.369, 251.2372
3058.297, 251.3537
3060.226, 252.1852
3062.154, 252.4303
3064.083, 252.1872
3066.011, 251.9416
3067.939, 253.3557
3069.868, 255.0394
3071.796, 255.1169
3073.725, 254.7154
3075.653, 254.8750
3077.582, 255.0029
3079.510, 254.8457
3081.439, 254.5403
3083.367, 254.6996
3085.296, 254.6219
3087.224, 254.6008
3089.153, 255.0074
3091.081, 254.5639
3093.010, 255.2227
3094.938, 255.3529
3096.866, 255.3307
3098.795, 256.1490
3100.723, 255.9060
3102.652, 256.5584
3104.580, 257.8555
3106.509, 259.1909
3108.437, 259.6139
3110.366, 259.5950
3112.294, 259.6389
3114.223, 259.3143
3116.151, 257.5842
3118.080, 256.8770
3120.008, 258.5417
3121.937, 259.8175
3123.865, 260.1695
3125.793, 260.1266
3127.722, 259.4654
3129.650, 259.8846
3131.579, 261.2281
3133.507, 261.8480
3135.436, 261.9098
3137.364, 262.0309
3139.293, 262.3271
3141.221, 263.4150
3143.150, 264.3301
3145.078, 263.6210
3147.007, 263.1240
3148.935, 264.3289
3150.864, 265.5929
3152.792, 266.5977
3154.720, 266.8390
3156.649, 267.2622
3158.577, 267.5286
3160.506, 267.1147
3162.434, 267.7154
3164.363, 267.4601
3166.291, 267.5716
3168.220, 267.9826
3170.148, 268.4425
3172.077, 268.9692
3174.005, 269.6307
3175.934, 270.3215
3177.862, 271.1811
3179.791, 271.6996
3181.719, 271.4409
3183.647, 271.3479
3185.576, 271.7493
3187.504, 272.0238
3189.433, 271.8341
3191.361, 272.5263
3193.290, 273.9579
3195.218, 274.6942
3197.147, 274.8158
3199.075, 274.4811
3201.004, 274.1373
3202.932, 274.9655
3204.861, 275.6825
3206.789, 274.8118
3208.718, 274.0620
3210.646, 274.0291
3212.574, 274.8298
3214.503, 276.8749
3216.431, 278.0254
3218.360, 277.6946
3220.288, 277.4358
3222.217, 277.2844
3224.145, 277.5737
3226.074, 278.1629
3228.002, 278.5986
3229.931, 279.1124
3231.859, 280.4205
3233.788, 281.3368
3235.716, 280.3975
3237.645, 279.8942
3239.573, 281.0198
3241.501, 281.5497
3243.430, 280.9138
3245.358, 280.6005
3247.287, 280.7342
3249.215, 280.7859
3251.144, 280.9205
3253.072, 282.2131
3255.001, 281.7894
3256.929, 282.9154
3258.858, 281.8809
3260.786, 281.5193
3262.715, 281.8975
3264.643, 283.7184
3266.572, 284.8822
3268.500, 284.9051
3270.428, 285.3272
3272.357, 286.3336
3274.285, 286.2346
3276.214, 286.7715
3278.142, 286.0388
3280.071, 287.1801
3281.999, 287.1303
3283.928, 287.0562
3285.856, 288.2115
3287.785, 289.3436
3289.713, 290.1292
3291.642, 290.4942
3293.570, 290.1460
3295.499, 290.3727
3297.427, 291.1897
3299.355, 292.7046
3301.284, 294.4502
3303.212, 294.6646
3305.141, 296.1500
3307.069, 296.1613
3308.998, 297.7260
3310.926, 298.2064
3312.855, 298.2044
3314.783, 297.7338
3316.712, 297.6463
3318.640, 298.0586
3320.569, 299.6061
3322.497, 299.7890
3324.426, 302.2244
3326.354, 301.6729
3328.282, 303.5159
3330.211, 305.4128
3332.139, 304.9353
3334.068, 304.1186
3335.996, 303.4393
3337.925, 303.5851
3339.853, 304.9251
3341.782, 305.5431
3343.710, 305.4300
3345.639, 305.6808
3347.567, 305.9756
3349.496, 305.0111
3351.424, 304.0492
3353.353, 304.6528
3355.281, 305.2421
3357.209, 304.7920
3359.138, 304.6133
3361.066, 305.0233
3362.995, 305.2708
3364.923, 305.3311
3366.852, 304.7317
3368.780, 304.0628
3370.709, 305.2007
3372.637, 304.6699
3374.566, 305.7254
3376.494, 305.1347
3378.423, 305.9725
3380.351, 306.6943
3382.280, 306.8086
3384.208, 307.2375
3386.136, 307.9391
3388.065, 308.2609
3389.993, 308.3941
3391.922, 308.9572
3393.850, 309.4366
3395.779, 308.9549
3397.707, 308.9891
3399.636, 310.9997
3401.564, 312.0219
3403.493, 311.6931
3405.421, 311.3094
3407.350, 311.0316
3409.278, 311.4999
3411.207, 312.3009
3413.135, 312.7487
3415.063, 313.1389
3416.992, 313.7433
3418.920, 314.2861
3420.849, 314.6706
3422.777, 315.1147
3424.706, 315.6544
3426.634, 315.9344
3428.563, 316.1350
3430.491, 316.8678
3432.420, 317.7719
3434.348, 318.7469
3436.277, 319.1438
3438.205, 318.3901
3440.134, 317.7162
3442.062, 317.2276
3443.990, 317.6322
3445.919, 318.8353
3447.847, 320.2129
3449.776, 321.5403
3451.704, 322.6968
3453.633, 323.1758
3455.561, 322.1479
3457.490, 321.3229
3459.418, 321.0948
3461.347, 321.1220
3463.275, 321.4553
3465.204, 323.1565
3467.132, 325.3726
3469.061, 326.0899
3470.989, 325.9761
3472.917, 324.7323
3474.846, 324.3861
3476.774, 325.6962
3478.703, 326.6436
3480.631, 326.8776
3482.560, 326.9961
3484.488, 327.1822
3486.417, 328.4712
3488.345, 329.5762
3490.274, 328.6377
3492.202, 328.2987
3494.131, 329.6653
3496.059, 330.7812
3497.988, 331.2706
3499.916, 331.8677
3501.844, 332.5255
3503.773, 333.3155
3505.701, 333.9890
3507.630, 334.1123
3509.558, 334.3948
3511.487, 334.9431
3513.415, 336.5085
3515.344, 339.1769
3517.272, 340.4759
3519.201, 340.7412
3521.129, 340.6116
3523.058, 340.7679
3524.986, 341.4765
3526.915, 343.3732
3528.843, 347.6700
3530.771, 351.1828
3532.700, 353.6943
3534.628, 354.1206
3536.557, 352.9681
3538.485, 350.3251
3540.414, 348.1092
3542.342, 348.5954
3544.271, 348.2916
3546.199, 346.1370
3548.128, 343.8617
3550.056, 341.7184
3551.985, 340.6793
3553.913, 340.3624
3555.842, 340.5799
3557.770, 340.3943
3559.698, 338.9120
3561.627, 337.5075
3563.555, 336.3725
3565.484, 335.6032
3567.412, 335.1475
3569.341, 335.0405
3571.269, 334.9388
3573.198, 334.5289
3575.126, 333.8876
3577.055, 332.9904
3578.983, 332.2541
3580.912, 331.7788
3582.840, 331.9343
3584.769, 332.2829
3586.697, 331.3238
3588.625, 330.4973
3590.554, 331.0499
3592.482, 331.7452
3594.411, 332.2747
3596.339, 333.3140
3598.268, 334.6259
3600.196, 333.3861
3602.125, 332.5961
3604.053, 338.2069
3605.982, 341.1865
3607.910, 336.7295
3609.839, 335.2477
3611.767, 338.4710
3613.696, 340.9515
3615.624, 342.7310
3617.552, 343.6686
3619.481, 344.4547
3621.409, 345.5571
3623.338, 346.8206
3625.266, 348.3601
3627.195, 348.8015
3629.123, 348.2422
3631.052, 347.0384
3632.980, 345.4256
3634.909, 343.4156
3636.837, 341.3783
3638.766, 339.4425
3640.694, 337.2350
3642.623, 335.8858
3644.551, 333.8232
3646.479, 333.3109
3648.408, 332.1299
3650.336, 331.0882
3652.265, 330.5049
3654.193, 330.0230
3656.122, 329.5789
3658.050, 329.0851
3659.979, 328.7096
3661.907, 329.0220
3663.836, 329.0411
3665.764, 328.0418
3667.693, 327.1582
3669.621, 326.5629
3671.550, 327.0241
3673.478, 328.0332
3675.406, 328.3312
3677.335, 328.4638
3679.263, 328.8979
3681.192, 328.9496
3683.120, 328.3882
3685.049, 328.5464
3686.977, 329.2101
3688.906, 329.8161
3690.834, 330.0950
3692.763, 330.3221
3694.691, 329.2873
3696.620, 330.1184
3698.548, 329.9853
3700.477, 329.2662
3702.405, 329.7609
3704.333, 330.5988
3706.262, 331.5241
3708.190, 331.2525
3710.119, 331.9508
3712.047, 329.8553
3713.976, 332.0516
3715.904, 331.5356
3717.833, 330.6408
3719.761, 331.7212
3721.690, 332.0287
3723.618, 330.9470
3725.547, 331.4623
3727.475, 333.0402
3729.404, 333.8315
3731.332, 333.7643
3733.260, 331.7744
3735.189, 331.2173
3737.117, 332.7081
3739.046, 333.7835
3740.974, 334.2185
3742.903, 334.4954
3744.831, 334.4041
3746.760, 333.5646
3748.688, 333.8118
3750.617, 332.2449
3752.545, 332.4244
3754.474, 333.7418
3756.402, 335.0332
3758.331, 335.9053
3760.259, 335.7526
3762.188, 335.9557
3764.116, 336.5703
3766.044, 337.0017
3767.973, 337.2867
3769.901, 337.6274
3771.830, 337.7529
3773.758, 337.3428
3775.687, 337.3756
3777.615, 337.8517
3779.544, 338.1900
3781.472, 338.5103
3783.401, 339.0698
3785.329, 339.3602
3787.258, 339.2886
3789.186, 337.8772
3791.115, 336.0120
3793.043, 337.5789
3794.971, 339.3175
3796.900, 338.0568
3798.828, 337.5943
3800.757, 339.1008
3802.685, 339.8867
3804.614, 340.2321
3806.542, 340.9200
3808.471, 341.1044
3810.399, 340.0737
3812.328, 339.6726
3814.256, 340.1114
3816.185, 340.6713
3818.113, 341.3830
3820.042, 341.4194
3821.970, 341.3884
3823.898, 341.6574
3825.827, 341.0284
3827.755, 341.3117
3829.684, 341.7997
3831.612, 342.4088
3833.541, 343.1659
3835.469, 343.7368
3837.398, 344.0807
3839.326, 344.4472
3841.255, 344.8559
3843.183, 345.3896
3845.112, 345.8389
3847.040, 346.2831
3848.969, 345.7745
3850.897, 344.6228
3852.825, 344.5282
3854.754, 345.0621
3856.682, 346.2088
3858.611, 346.6156
3860.539, 345.9369
3862.468, 345.8953
3864.396, 346.3673
3866.325, 347.4257
3868.253, 348.1442
3870.182, 348.1583
3872.110, 347.2039
3874.039, 348.0765
3875.967, 347.0441
3877.896, 348.6741
3879.824, 348.6667
3881.752, 348.5491
3883.681, 348.6111
3885.609, 349.4710
3887.538, 350.3233
3889.466, 349.7347
3891.395, 349.3344
3893.323, 349.6166
3895.252, 350.2873
3897.180, 351.3193
3899.109, 352.5352
3901.037, 353.1434
3902.966, 352.2186
3904.894, 352.1353
3906.823, 353.0335
3908.751, 353.6314
3910.679, 354.1274
3912.608, 355.0502
3914.536, 355.2724
3916.465, 354.5640
3918.393, 354.2511
3920.322, 354.5600
3922.250, 356.6735
3924.179, 358.2681
3926.107, 358.2961
3928.036, 357.9149
3929.964, 357.5387
3931.893, 357.8795
3933.821, 358.0914
3935.750, 357.6234
3937.678, 357.5586
3939.606, 357.8187
3941.535, 358.7997
3943.463, 359.8557
3945.392, 360.2600
3947.320, 360.2746
3949.249, 359.9792
3951.177, 360.1363
3953.106, 360.4984
3955.034, 361.2072
3956.963, 361.4928
3958.891, 360.6333
3960.820, 360.7037
3962.748, 361.4152
3964.677, 361.9344
3966.605, 362.5044
3968.533, 363.3379
3970.462, 363.3773
3972.390, 362.8228
3974.319, 362.8041
3976.247, 363.1553
3978.176, 363.9379
3980.104, 364.2332
3982.033, 364.2534
3983.961, 364.8061
3985.890, 365.3823
3987.818, 365.7948
3989.747, 366.1683
3991.675, 366.3835
3993.604, 365.7786
3995.532, 365.3670
3997.460, 367.2708
3999.389, 368.6577
4001.317, 368.3510
4003.246, 367.8133
4005.174, 367.6062
4007.103, 367.9152
4009.031, 368.1808
4010.960, 368.0328
4012.888, 368.6878
4014.817, 370.2867
4016.745, 369.3247
4018.674, 367.8548
4020.602, 368.4692
4022.531, 370.0595
4024.459, 371.3272
4026.387, 371.4766
4028.316, 371.4901
4030.244, 370.9029
4032.173, 371.0551
4034.101, 371.2163
4036.030, 371.2770
4037.958, 371.8860
4039.887, 371.8257
4041.815, 372.1505
4043.744, 372.3208
4045.672, 372.9768
4047.601, 373.2955
4049.529, 373.4950
4051.458, 374.2296
4053.386, 375.3569
4055.314, 375.6788
4057.243, 375.4341
4059.171, 376.0734
4061.100, 375.1495
4063.028, 376.2740
4064.957, 376.1583
4066.885, 375.7984
4068.814, 376.4607
4070.742, 378.2332
4072.671, 379.0130
4074.599, 378.5023
4076.528, 377.8607
4078.456, 377.8319
4080.385, 379.2078
4082.313, 380.6122
4084.241, 381.0785
4086.170, 381.7628
4088.098, 381.8969
4090.027, 381.8913
4091.955, 381.5972
4093.884, 380.7954
4095.812, 380.5464
4097.741, 380.4724
4099.669, 380.4940
4101.598, 381.6989
4103.526, 382.7178
4105.455, 381.8433
4107.383, 381.6031
4109.312, 382.8792
4111.240, 384.7679
4113.168, 385.5731
4115.097, 385.1108
4117.025, 384.9586
4118.954, 384.7919
4120.882, 384.7594
4122.811, 384.9485
4124.739, 385.0074
4126.668, 384.6313
4128.596, 384.3886
4130.525, 384.4431
4132.453, 384.9142
4134.382, 386.4870
4136.310, 387.8755
4138.239, 388.3941
4140.167, 389.0352
4142.096, 388.3644
4144.024, 389.1050
4145.953, 389.0334
4147.881, 388.4982
4149.810, 388.5401
4151.738, 389.0253
4153.667, 390.5870
4155.595, 391.4288
4157.523, 391.1811
4159.452, 391.6911
4161.380, 392.3758
4163.309, 393.4685
4165.237, 394.1299
4167.166, 393.5649
4169.094, 393.1750
4171.022, 393.2109
4172.951, 392.9798
4174.879, 392.8366
4176.808, 393.6079
4178.736, 393.5020
4180.665, 393.1423
4182.593, 394.5311
4184.522, 395.8206
4186.450, 396.3566
4188.379, 395.6939
4190.307, 395.1335
4192.236, 396.6294
4194.164, 397.6645
4196.093, 397.9103
4198.021, 397.5904
4199.950, 397.1852
4201.878, 396.9414
4203.807, 397.6540
4205.735, 397.8482
4207.664, 398.2934
4209.592, 399.1781
4211.521, 399.4976
4213.449, 400.1655
4215.377, 401.0513
4217.306, 401.5243
4219.234, 401.4997
4221.163, 400.8383
4223.091, 399.8401
4225.020, 398.8670
4226.948, 399.7772
4228.876, 401.0387
4230.805, 401.9174
4232.733, 401.7815
4234.662, 401.3042
4236.590, 403.3222
4238.519, 404.6715
4240.447, 403.7294
4242.376, 404.9413
4244.304, 406.6977
4246.233, 404.1693
4248.161, 403.2665
4250.090, 406.0307
4252.018, 406.0302
4253.947, 405.1944
4255.875, 406.6557
4257.804, 407.3043
4259.732, 406.5155
4261.661, 406.2319
4263.589, 406.0116
4265.518, 404.9621
4267.446, 406.1480
4269.375, 409.2392
4271.303, 409.3275
4273.231, 408.5410
4275.160, 407.8028
4277.088, 408.5994
4279.017, 410.1696
4280.945, 409.6322
4282.874, 409.5381
4284.802, 411.0431
4286.730, 410.7894
4288.659, 409.8591
4290.587, 410.0510
4292.516, 410.7310
4294.444, 411.7738
4296.373, 411.8614
4298.301, 411.9335
4300.230, 412.8425
4302.158, 413.9964
4304.087, 415.1708
4306.015, 415.7459
4307.944, 415.9561
4309.872, 415.9864
4311.801, 414.7288
4313.729, 413.2417
4315.658, 414.8220
4317.586, 414.8163
4319.515, 412.0143
4321.443, 412.7217
4323.372, 414.8073
4325.300, 416.0606
4327.229, 416.4335
4329.157, 416.2226
4331.085, 417.4500
4333.014, 418.3279
4334.942, 417.7165
4336.871, 417.7946
4338.799, 418.1855
4340.728, 417.3631
4342.656, 417.0247
4344.584, 417.6110
4346.513, 417.8838
4348.441, 418.0048
4350.370, 417.9495
4352.298, 418.6611
4354.227, 419.8047
4356.155, 419.2294
4358.084, 418.9504
4360.012, 420.3302
4361.941, 421.1483
4363.869, 421.3980
4365.798, 422.5145
4367.726, 421.2155
4369.655, 423.5291
4371.583, 422.9348
4373.512, 422.2587
4375.440, 425.2939
4377.369, 424.3091
4379.297, 420.9059
4381.226, 422.1720
4383.154, 423.2572
4385.083, 422.2460
4387.011, 422.3634
4388.939, 422.4953
4390.868, 420.5931
4392.796, 421.7386
4394.725, 425.6036
4396.653, 427.5280
4398.582, 426.9931
4400.510, 423.4935
4402.438, 423.4940
4404.367, 424.9194
4406.295, 423.7432
4408.224, 424.5082
4410.152, 423.9609
4412.081, 424.9518
4414.009, 422.8817
4415.938, 423.4825
4417.866, 423.3747
4419.795, 423.2968
4421.723, 425.1293
4423.652, 426.8997
4425.580, 428.0951
4427.509, 428.6088
4429.437, 426.9028
4431.366, 428.1695
4433.294, 427.1953
4435.223, 425.4228
4437.151, 426.0099
4439.080, 427.3843
4441.008, 429.1142
4442.937, 428.5800
4444.865, 427.6465
4446.793, 427.3763
4448.722, 426.9973
4450.650, 426.7180
4452.579, 427.3102
4454.507, 427.5857
4456.436, 427.3615
4458.364, 426.7033
4460.292, 426.2787
4462.221, 426.2792
4464.149, 428.8559
4466.078, 431.4333
4468.006, 428.2952
4469.935, 427.1266
4471.863, 428.8096
4473.792, 430.8480
4475.720, 431.3366
4477.649, 432.2483
4479.577, 430.5220
4481.506, 432.7547
4483.434, 430.7765
4485.363, 430.5753
4487.291, 432.0751
4489.220, 431.7467
4491.148, 431.8206
4493.077, 433.1787
4495.005, 433.6627
4496.934, 433.3874
4498.862, 432.0639
4500.791, 431.4974
4502.719, 431.6456
4504.647, 432.4425
4506.576, 432.7859
4508.504, 432.3877
4510.433, 432.6047
4512.361, 432.4214
4514.290, 432.0474
4516.218, 432.5846
4518.146, 432.1377
4520.075, 433.2975
4522.003, 433.8203
4523.932, 433.6427
4525.860, 434.7846
4527.789, 434.4336
4529.717, 435.1001
4531.646, 434.9019
4533.574, 435.6329
4535.503, 434.4077
4537.431, 433.5545
4539.360, 433.4869
4541.288, 434.3989
4543.217, 435.4091
4545.145, 436.1392
4547.074, 435.2135
4549.002, 435.1361
4550.931, 435.1429
4552.859, 435.1532
4554.788, 435.0459
4556.716, 435.5649
4558.645, 435.8471
4560.573, 435.4927
4562.501, 433.5054
4564.430, 432.4715
4566.358, 432.7347
4568.287, 432.6171
4570.215, 433.2656
4572.144, 435.3210
4574.072, 436.0685
4576.000, 436.7672
4577.929, 439.5512
4579.857, 440.5154
4581.786, 439.7961
4583.714, 437.5031
4585.643, 437.1802
4587.571, 438.8111
4589.500, 437.5511
4591.428, 436.8043
4593.357, 437.9379
4595.285, 436.6850
4597.214, 435.0542
4599.142, 434.7638
4601.071, 435.6976
4602.999, 437.1167
4604.928, 437.9201
4606.856, 438.6541
4608.785, 439.1181
4610.713, 439.1975
4612.642, 437.1301
4614.570, 438.7130
4616.499, 437.8913
4618.427, 437.0941
4620.355, 438.1880
4622.284, 438.3076
4624.212, 438.0326
4626.141, 437.7716
4628.069, 439.2612
4629.998, 440.8179
4631.926, 437.8614
4633.854, 436.9437
4635.783, 438.5866
4637.711, 440.4576
4639.640, 441.0441
4641.568, 439.8687
4643.497, 438.3946
4645.425, 438.5001
4647.354, 441.3084
4649.282, 441.1002
4651.211, 439.7114
4653.139, 438.9481
4655.068, 439.0248
4656.996, 439.5965
4658.925, 440.6386
4660.853, 439.7201
4662.782, 437.8053
4664.710, 439.7369
4666.639, 441.3513
4668.567, 441.5304
4670.496, 439.5924
4672.424, 438.3593
4674.353, 439.3635
4676.281, 439.5909
4678.209, 439.3566
4680.138, 438.8106
4682.066, 438.5840
4683.995, 438.7836
4685.923, 439.9171
4687.852, 439.2519
4689.780, 437.8456
4691.708, 437.7625
4693.637, 439.8241
4695.565, 442.7799
4697.494, 442.2108
4699.422, 439.8698
4701.351, 437.0156
4703.279, 437.5532
4705.208, 438.6877
4707.136, 439.2822
4709.065, 439.0155
4710.993, 438.7484
4712.922, 438.9171
4714.850, 440.3701
4716.779, 441.6449
4718.707, 441.5126
4720.636, 440.6226
4722.564, 439.7852
4724.493, 440.1969
4726.421, 439.3663
4728.350, 438.3852
4730.278, 440.4350
4732.207, 439.7231
4734.135, 437.6087
4736.063, 440.7645
4737.992, 441.8275
4739.920, 440.0910
4741.849, 439.2653
4743.777, 439.2576
4745.706, 439.8506
4747.634, 440.0425
4749.563, 440.3278
4751.491, 440.9324
4753.419, 439.6498
4755.348, 439.5425
4757.276, 442.0604
4759.205, 441.4315
4761.133, 440.1265
4763.062, 440.4164
4764.990, 439.8168
4766.919, 438.9833
4768.847, 438.5030
4770.776, 438.5606
4772.704, 438.7657
4774.633, 438.2648
4776.561, 439.5768
4778.490, 441.4318
4780.418, 441.3965
4782.347, 441.6709
4784.275, 442.1398
4786.204, 442.1570
4788.132, 440.9098
4790.061, 439.2496
4791.989, 440.0273
4793.917, 441.2115
4795.846, 441.9662
4797.774, 440.0279
4799.703, 439.0444
4801.631, 439.2956
4803.560, 437.5344
4805.488, 436.1601
4807.417, 435.9890
4809.345, 439.6000
4811.273, 441.0010
4813.202, 439.0815
4815.130, 439.9179
4817.059, 440.9000
4818.987, 440.8929
4820.916, 439.2987
4822.844, 437.5167
4824.773, 436.2455
4826.701, 437.8097
4828.630, 439.3332
4830.558, 439.2896
4832.487, 439.7331
4834.415, 439.3719
4836.344, 437.5601
4838.272, 438.4731
4840.201, 439.7699
4842.129, 439.8271
4844.058, 439.9088
4845.986, 439.3983
4847.915, 437.8098
4849.843, 438.9418
4851.771, 439.7978
4853.700, 437.6626
4855.628, 438.0825
4857.557, 439.1962
4859.485, 439.6624
4861.414, 436.8819
4863.342, 434.8692
4865.271, 437.4137
4867.199, 438.5693
4869.127, 438.0214
4871.056, 435.2615
4872.984, 437.7398
4874.913, 440.8885
4876.841, 440.4439
4878.770, 439.1720
4880.698, 438.0459
4882.627, 437.7431
4884.555, 437.5539
4886.484, 436.9677
4888.412, 435.5135
4890.341, 435.2906
4892.269, 435.9444
4894.198, 437.2791
4896.126, 437.6612
4898.055, 437.5162
4899.983, 437.1726
4901.912, 437.4948
4903.840, 437.3605
4905.769, 435.6974
4907.697, 433.6646
4909.625, 432.9677
4911.554, 434.7287
4913.482, 435.5886
4915.411, 436.2872
4917.339, 437.6576
4919.268, 437.6465
4921.196, 436.6631
4923.125, 435.0463
4925.053, 436.6395
4926.981, 438.0874
4928.910, 437.4501
4930.838, 437.0812
4932.767, 436.2354
4934.695, 434.6696
4936.624, 432.8959
4938.552, 432.8933
4940.481, 435.0944
4942.409, 434.8966
4944.338, 434.6484
4946.266, 435.0851
4948.195, 434.4663
4950.123, 434.2469
4952.052, 434.5251
4953.980, 433.5312
4955.909, 432.1297
4957.837, 430.9566
4959.766, 431.7990
4961.694, 433.1967
4963.623, 434.0389
4965.551, 431.3027
4967.479, 431.2316
4969.408, 433.0140
4971.336, 431.7694
4973.265, 431.3094
4975.193, 431.5722
4977.122, 431.4010
4979.050, 431.6969
4980.979, 431.9950
4982.907, 431.6811
4984.835, 429.8631
4986.764, 429.0457
4988.692, 432.1918
4990.621, 432.2863
4992.549, 430.9560
4994.478, 429.8517
4996.406, 429.4303
4998.335, 430.0749
5000.263, 431.9513
5002.192, 432.9030
5004.120, 432.9242
5006.049, 432.1001
5007.977, 430.1463
5009.906, 429.0321
5011.834, 429.4537
5013.763, 432.1985
5015.691, 431.7369
5017.620, 428.6642
5019.548, 430.1573
5021.477, 430.0432
5023.405, 428.2763
5025.333, 427.4123
5027.262, 428.1725
5029.190, 429.1661
5031.119, 427.7666
5033.047, 428.0369
5034.976, 428.5699
5036.904, 427.3224
5038.833, 425.9049
5040.761, 425.8051
5042.689, 427.9538
5044.618, 428.3265
5046.546, 427.3832
5048.475, 425.5781
5050.403, 426.1745
5052.332, 426.7262
5054.260, 426.5688
5056.189, 427.7754
5058.117, 426.1671
5060.046, 422.8432
5061.974, 423.5130
5063.903, 423.6877
5065.831, 423.4273
5067.760, 424.2917
5069.688, 423.9894
5071.617, 423.0740
5073.545, 422.3071
5075.474, 422.9921
5077.402, 423.6620
5079.331, 423.1837
5081.259, 423.1539
5083.188, 422.7598
5085.116, 422.0605
5087.044, 424.5745
5088.973, 425.2045
5090.901, 423.5693
5092.830, 423.3998
5094.758, 423.1250
5096.687, 422.6811
5098.615, 422.4190
5100.543, 421.9083
5102.472, 422.0618
5104.400, 424.1905
5106.329, 422.6633
5108.257, 421.1371
5110.186, 421.9798
5112.114, 421.9652
5114.043, 422.1677
5115.971, 422.5948
5117.900, 420.9441
5119.828, 420.6628
5121.757, 421.7545
5123.685, 422.5204
5125.614, 423.0934
5127.542, 423.2425
5129.471, 422.6911
5131.399, 421.1063
5133.328, 420.6310
5135.256, 422.7558
5137.185, 421.0653
5139.113, 420.9868
5141.042, 423.3466
5142.970, 419.6739
5144.898, 418.9057
5146.827, 420.7036
5148.755, 420.3387
5150.684, 420.6923
5152.612, 421.5001
5154.541, 422.4066
5156.469, 421.3742
5158.397, 419.2715
5160.326, 417.1074
5162.254, 419.7089
5164.183, 421.0057
5166.111, 420.1017
5168.040, 421.0349
5169.968, 421.5141
5171.897, 421.4384
5173.825, 421.2713
5175.754, 420.1066
5177.682, 419.6092
5179.611, 421.0110
5181.539, 420.6316
5183.468, 419.3628
5185.396, 418.1162
5187.325, 420.2983
5189.253, 420.4496
5191.182, 418.7297
5193.110, 417.1262
5195.039, 417.0214
5196.967, 417.5757
5198.896, 417.9509
5200.824, 418.7813
5202.752, 419.4207
5204.681, 419.3829
5206.609, 416.9318
5208.538, 416.7061
5210.466, 417.8719
5212.395, 417.4292
5214.323, 416.2271
5216.251, 415.3231
5218.180, 415.5333
5220.108, 415.2893
5222.037, 414.9614
5223.965, 414.6084
5225.894, 413.3359
5227.822, 414.0296
5229.751, 415.5304
5231.679, 415.1652
5233.608, 414.9345
5235.536, 414.0642
5237.465, 412.1127
5239.393, 411.9156
5241.322, 411.4221
5243.250, 410.5779
5245.179, 411.1161
5247.107, 412.9230
5249.036, 414.1549
5250.964, 412.5951
5252.893, 410.2138
5254.821, 409.0031
5256.750, 409.5587
5258.678, 410.0709
5260.606, 410.6155
5262.535, 411.2909
5264.463, 412.8033
5266.392, 410.5515
5268.320, 409.1788
5270.249, 411.9615
5272.177, 409.7210
5274.105, 409.4549
5276.034, 411.5282
5277.962, 410.5853
5279.891, 409.6464
5281.819, 409.3937
5283.748, 410.3274
5285.676, 411.2857
5287.605, 410.3171
5289.533, 407.8008
5291.462, 409.3036
5293.390, 409.2180
5295.319, 407.9334
5297.247, 407.1100
5299.176, 406.5812
5301.104, 406.3527
5303.033, 406.4260
5304.961, 406.8033
5306.890, 408.2978
5308.818, 409.4101
5310.747, 407.5153
5312.675, 405.2126
5314.604, 404.3962
5316.532, 405.6654
5318.460, 402.5729
5320.389, 404.2842
5322.317, 408.3321
5324.246, 405.9409
5326.174, 405.6403
5328.103, 405.0915
5330.031, 402.7929
5331.959, 403.3162
5333.888, 403.3056
5335.816, 402.7231
5337.745, 403.4621
5339.673, 403.0449
5341.602, 402.6098
5343.530, 402.7572
5345.459, 401.0714
5347.387, 400.5223
5349.316, 401.1739
5351.244, 402.5084
5353.173, 400.0208
5355.101, 397.9494
5357.030, 398.6869
5358.958, 399.1759
5360.887, 399.2037
5362.815, 398.7188
5364.744, 397.6134
5366.672, 398.4565
5368.601, 399.5660
5370.529, 399.7829
5372.458, 397.9313
5374.386, 396.9274
5376.314, 396.9025
5378.243, 397.4030
5380.171, 397.7397
5382.100, 396.9182
5384.028, 395.2565
5385.957, 395.4523
5387.885, 394.0506
5389.813, 393.7885
5391.742, 397.7108
5393.670, 395.6281
5395.599, 394.1955
5397.527, 394.3339
5399.456, 392.3290
5401.384, 393.6035
5403.313, 394.2515
5405.241, 392.1453
5407.170, 395.0629
5409.098, 393.2177
5411.027, 388.8063
5412.955, 388.6212
5414.884, 389.1374
5416.812, 389.0892
5418.741, 388.1731
5420.669, 387.0815
5422.598, 387.4146
5424.526, 388.0480
5426.455, 387.7511
5428.383, 386.3351
5430.312, 385.2094
5432.240, 384.8800
5434.168, 385.9285
5436.097, 384.8564
5438.025, 383.9626
5439.954, 384.4205
5441.882, 385.5527
5443.811, 385.7889
5445.739, 384.6256
5447.667, 382.0283
5449.596, 381.5294
5451.524, 383.2135
5453.453, 384.9108
5455.381, 381.1237
5457.310, 380.5322
5459.238, 379.7611
5461.167, 377.4389
5463.095, 378.7305
5465.024, 380.6113
5466.952, 381.6831
5468.881, 381.2109
5470.809, 379.7728
5472.738, 379.4458
5474.666, 379.7025
5476.595, 378.0822
5478.523, 377.4961
5480.452, 377.1007
5482.380, 376.5162
5484.309, 376.2310
5486.237, 376.8405
5488.166, 377.0320
5490.094, 376.0546
5492.022, 376.6542
5493.951, 377.5702
5495.879, 377.3305
5497.808, 374.0953
5499.736, 375.1101
##END=



