##NAMES=Kernite
##RRUFFID=R050661
##IDEAL CHEMISTRY=Na_2_B_4_O_6_(OH)_2_·3H_2_O
##LOCALITY=Boron, Kern County, California, USA
##OWNER=RRUFF
##SOURCE=Marcus Origlieri
##DESCRIPTION=Colorless cleavage fragment
##STATUS=The identification of this mineral has been confirmed by X-ray diffraction
##URL=https://www.rruff.net/odr/rruff_sample/R050661
##DIFFRACTION SAMPLE DESCRIPTION=Powder
##CELL PARAMETERS=a: 7.0165 b: 9.1556 c: 15.6778 alpha: 90 beta: 108.863 gamma: 90 volume: 953.06 crystal system: monoclinic
##FILETYPE=Raman Processed
##RAMAN WAVELENGTH=780

148.9450, 101.7014
150.8735, 102.5007
152.8020, 104.4496
154.7304, 107.1193
156.6589, 110.7469
158.5874, 114.7196
160.5158, 118.7878
162.4443, 123.2258
164.3728, 128.3341
166.3012, 134.0390
168.2297, 140.3615
170.1582, 148.8654
172.0866, 155.0087
174.0151, 158.9250
175.9436, 159.7180
177.8720, 155.8802
179.8005, 148.4089
181.7290, 138.7957
183.6574, 125.4598
185.5859, 114.0085
187.5144, 104.7098
189.4428, 97.46342
191.3713, 92.36761
193.2998, 89.37981
195.2282, 88.67244
197.1567, 90.73279
199.0852, 93.22078
201.0136, 95.05818
202.9421, 98.49630
204.8706, 104.5916
206.7990, 112.4701
208.7275, 121.6160
210.6560, 132.1349
212.5844, 141.5078
214.5129, 149.3924
216.4414, 156.7139
218.3698, 163.6733
220.2983, 169.9192
222.2268, 175.9458
224.1552, 181.1900
226.0837, 183.5491
228.0122, 182.1603
229.9406, 179.3226
231.8691, 174.2066
233.7976, 168.8523
235.7260, 163.3655
237.6545, 158.7655
239.5830, 156.5265
241.5114, 156.8160
243.4399, 157.6209
245.3684, 158.5649
247.2968, 160.8665
249.2253, 165.4501
251.1538, 170.8993
253.0822, 177.8265
255.0107, 184.7993
256.9392, 187.2267
258.8676, 185.2022
260.7961, 178.0110
262.7246, 163.6034
264.6530, 147.5660
266.5815, 130.5285
268.5100, 114.5760
270.4384, 101.7478
272.3669, 92.10757
274.2954, 85.14885
276.2238, 81.06616
278.1523, 78.24644
280.0808, 76.56169
282.0092, 75.78476
283.9377, 76.09231
285.8662, 77.04256
287.7946, 78.02368
289.7231, 79.01832
291.6516, 79.63176
293.5800, 79.69533
295.5085, 79.90681
297.4370, 80.83195
299.3654, 81.53316
301.2939, 81.58508
303.2224, 81.08154
305.1508, 79.91901
307.0793, 78.12956
309.0078, 76.66125
310.9362, 75.51994
312.8647, 75.03639
314.7932, 75.99216
316.7216, 76.89257
318.6501, 76.84042
320.5786, 75.77011
322.5070, 73.41398
324.4355, 69.73106
326.3640, 66.47508
328.2924, 63.83647
330.2209, 61.85122
332.1494, 60.37990
334.0778, 59.69226
336.0063, 60.42734
337.9348, 61.99685
339.8632, 63.24166
341.7917, 64.17237
343.7202, 64.62040
345.6486, 64.48483
347.5771, 63.90200
349.5056, 62.58408
351.4340, 61.11945
353.3625, 59.82432
355.2910, 58.77271
357.2194, 58.12227
359.1479, 57.89361
361.0764, 57.90484
363.0048, 58.28873
364.9333, 58.69007
366.8618, 58.82886
368.7902, 59.23236
370.7187, 60.07244
372.6472, 61.46571
374.5756, 63.59241
376.5041, 66.45087
378.4326, 70.12230
380.3610, 75.04880
382.2895, 80.19473
384.2180, 87.11757
386.1464, 92.30224
388.0749, 94.40827
390.0034, 93.44292
391.9318, 88.62653
393.8603, 80.31762
395.7888, 72.60433
397.7172, 65.09256
399.6457, 59.29424
401.5742, 55.49088
403.5026, 53.05132
405.4311, 52.14290
407.3596, 52.09544
409.2880, 52.28882
411.2165, 52.93467
413.1450, 54.56809
415.0734, 57.24424
417.0019, 60.81130
418.9304, 65.50661
420.8588, 70.48891
422.7873, 76.90219
424.7158, 81.50091
426.6442, 82.52967
428.5727, 80.93856
430.5012, 77.03784
432.4296, 71.04841
434.3581, 65.21964
436.2866, 59.30574
438.2150, 54.99870
440.1435, 52.48091
442.0720, 51.57335
444.0004, 52.62777
445.9289, 54.87260
447.8574, 58.18084
449.7858, 62.25602
451.7143, 67.06039
453.6428, 72.52832
455.5712, 76.29499
457.4997, 78.39404
459.4282, 78.48241
461.3566, 75.94624
463.2851, 72.48030
465.2136, 67.94704
467.1420, 63.58594
469.0705, 59.81041
470.9990, 57.03090
472.9274, 56.30951
474.8559, 57.36549
476.7844, 58.63706
478.7128, 59.86217
480.6413, 63.31532
482.5698, 69.77109
484.4982, 77.97671
486.4267, 87.67762
488.3552, 98.88821
490.2836, 113.6956
492.2121, 128.9531
494.1406, 140.2623
496.0690, 147.3557
497.9975, 146.9989
499.9260, 138.5656
501.8544, 126.1014
503.7829, 106.8463
505.7114, 89.39843
507.6398, 75.06251
509.5683, 63.76842
511.4968, 56.24782
513.4252, 51.17980
515.3537, 47.30911
517.2822, 44.43121
519.2106, 42.20414
521.1391, 40.64479
523.0676, 39.40371
524.9960, 38.41584
526.9245, 37.80983
528.8530, 37.99685
530.7814, 38.02185
532.7099, 37.18861
534.6384, 36.40796
536.5668, 36.44690
538.4953, 36.96598
540.4238, 37.56592
542.3522, 38.25407
544.2807, 39.02995
546.2092, 39.77161
548.1376, 40.96371
550.0661, 43.04775
551.9946, 44.86223
553.9230, 46.37606
555.8515, 47.38957
557.7800, 47.72688
559.7084, 47.53805
561.6369, 46.67622
563.5654, 45.56519
565.4938, 45.07938
567.4223, 45.22008
569.3508, 45.77794
571.2792, 46.97404
573.2077, 47.97793
575.1362, 48.78661
577.0646, 49.41534
578.9931, 50.04792
580.9216, 50.17519
582.8500, 49.39995
584.7785, 48.11523
586.7070, 46.39879
588.6354, 44.54688
590.5639, 43.05967
592.4924, 41.85796
594.4208, 40.57128
596.3493, 39.15758
598.2778, 38.19869
600.2062, 37.81280
602.1347, 37.50706
604.0632, 37.15802
605.9916, 36.88978
607.9201, 36.66229
609.8486, 36.65402
611.7770, 37.17288
613.7055, 37.81017
615.6340, 38.05285
617.5624, 37.98396
619.4909, 37.85488
621.4194, 37.65103
623.3478, 37.39555
625.2763, 37.09665
627.2048, 36.91403
629.1332, 36.89177
631.0617, 36.86723
632.9902, 36.79174
634.9186, 36.73836
636.8471, 36.83410
638.7756, 36.82284
640.7040, 36.50497
642.6325, 35.99102
644.5610, 35.38316
646.4894, 34.72719
648.4179, 34.04971
650.3464, 33.44349
652.2748, 33.42883
654.2033, 34.05779
656.1318, 34.17631
658.0602, 33.38422
659.9887, 32.90022
661.9172, 33.18843
663.8456, 33.42843
665.7741, 33.37385
667.7026, 33.33644
669.6310, 33.44014
671.5595, 33.62582
673.4880, 33.86747
675.4164, 34.19198
677.3449, 34.66526
679.2734, 35.19214
681.2018, 35.45480
683.1303, 35.47155
685.0588, 35.83970
686.9872, 36.71437
688.9157, 37.48812
690.8442, 37.96473
692.7726, 38.57043
694.7011, 39.05993
696.6296, 40.14048
698.5580, 42.41573
700.4865, 44.78035
702.4149, 46.63675
704.3434, 48.40707
706.2719, 50.40363
708.2003, 52.44342
710.1288, 54.13356
712.0573, 55.84835
713.9857, 58.43389
715.9142, 61.85904
717.8427, 65.93219
719.7711, 70.37636
721.6996, 77.26693
723.6281, 86.56971
725.5565, 98.35859
727.4850, 113.1694
729.4135, 129.3960
731.3419, 148.1571
733.2704, 165.3250
735.1989, 182.4828
737.1273, 192.7033
739.0558, 191.2839
740.9843, 181.4404
742.9127, 161.4976
744.8412, 137.5433
746.7697, 115.8573
748.6981, 96.90518
750.6266, 82.32944
752.5551, 71.91544
754.4835, 64.09034
756.4120, 58.91204
758.3405, 54.95669
760.2689, 52.26228
762.1974, 50.23784
764.1259, 48.95169
766.0543, 47.77633
767.9828, 46.56543
769.9113, 45.52049
771.8397, 44.67509
773.7682, 44.05550
775.6967, 43.86426
777.6251, 43.64127
779.5536, 43.03573
781.4821, 42.54342
783.4105, 42.46893
785.3390, 42.65876
787.2675, 43.07091
789.1959, 43.59949
791.1244, 44.02088
793.0529, 44.50286
794.9813, 45.46942
796.9098, 46.67875
798.8383, 47.58596
800.7667, 48.21691
802.6952, 48.51478
804.6237, 48.45812
806.5521, 47.81684
808.4806, 46.47626
810.4091, 45.20588
812.3375, 44.09913
814.2660, 43.04206
816.1945, 41.98981
818.1229, 41.07820
820.0514, 40.22819
821.9799, 39.64900
823.9083, 39.44872
825.8368, 39.51068
827.7653, 39.74413
829.6937, 40.20635
831.6222, 40.97753
833.5507, 41.97726
835.4791, 43.27663
837.4076, 44.65765
839.3361, 45.84080
841.2645, 46.96588
843.1930, 48.39425
845.1215, 49.82002
847.0499, 50.63805
848.9784, 50.86979
850.9069, 50.57537
852.8353, 49.73700
854.7638, 48.32050
856.6923, 46.31833
858.6207, 44.33434
860.5492, 42.28313
862.4777, 40.67639
864.4061, 39.68178
866.3346, 38.60580
868.2631, 37.25491
870.1915, 36.56351
872.1200, 36.83965
874.0485, 36.89059
875.9769, 36.43571
877.9054, 36.19739
879.8339, 36.44551
881.7623, 36.54254
883.6908, 36.19154
885.6193, 35.93048
887.5477, 35.95789
889.4762, 36.08157
891.4047, 36.07251
893.3331, 36.41278
895.2616, 37.49132
897.1901, 38.74403
899.1185, 39.69428
901.0470, 40.84336
902.9755, 42.68029
904.9039, 44.81004
906.8324, 46.34943
908.7609, 48.48444
910.6893, 52.50705
912.6178, 58.14819
914.5463, 65.08540
916.4747, 73.51775
918.4032, 83.62563
920.3317, 95.67661
922.2601, 111.5400
924.1886, 129.7056
926.1171, 146.3382
928.0455, 160.3757
929.9740, 167.2695
931.9025, 167.0528
933.8309, 158.7547
935.7594, 143.1780
937.6879, 125.6858
939.6163, 106.9245
941.5448, 90.81129
943.4733, 77.58103
945.4017, 66.79134
947.3302, 58.46492
949.2587, 52.06476
951.1871, 47.66243
953.1156, 44.29297
955.0441, 41.93728
956.9725, 40.03502
958.9010, 38.56895
960.8295, 37.57028
962.7579, 37.07085
964.6864, 36.87780
966.6149, 36.89680
968.5433, 37.43053
970.4718, 38.80281
972.4003, 40.15062
974.3287, 41.59280
976.2572, 42.62320
978.1857, 43.39211
980.1141, 43.42397
982.0426, 42.37665
983.9711, 41.01115
985.8995, 39.17029
987.8280, 37.64501
989.7565, 36.51168
991.6849, 35.96602
993.6134, 36.20263
995.5419, 36.71260
997.4703, 37.41749
999.3988, 38.21500
1001.327, 39.14038
1003.256, 40.05028
1005.184, 40.90712
1007.113, 41.70205
1009.041, 42.58023
1010.970, 43.03004
1012.898, 42.67617
1014.827, 42.24648
1016.755, 42.02658
1018.683, 41.81427
1020.612, 41.47867
1022.540, 41.20827
1024.469, 41.18188
1026.397, 41.09645
1028.326, 40.86069
1030.254, 40.47520
1032.183, 40.07871
1034.111, 39.18011
1036.040, 37.34299
1037.968, 35.41307
1039.897, 33.52677
1041.825, 32.01897
1043.754, 31.10695
1045.682, 30.37153
1047.610, 29.73656
1049.539, 29.22688
1051.467, 28.79532
1053.396, 28.44834
1055.324, 28.22450
1057.253, 28.17075
1059.181, 28.21774
1061.110, 28.42737
1063.038, 28.99268
1064.967, 29.57650
1066.895, 29.88494
1068.824, 30.40027
1070.752, 31.38135
1072.681, 32.47626
1074.609, 33.63508
1076.537, 34.79249
1078.466, 36.02179
1080.394, 37.08508
1082.323, 37.95150
1084.251, 38.63144
1086.180, 39.39008
1088.108, 39.37461
1090.037, 37.90595
1091.965, 36.67932
1093.894, 36.26194
1095.822, 35.50773
1097.751, 34.15356
1099.679, 32.71032
1101.608, 30.99977
1103.536, 29.63932
1105.464, 28.84436
1107.393, 28.10797
1109.321, 27.24957
1111.250, 26.79038
1113.178, 26.97869
1115.107, 26.92595
1117.035, 26.45938
1118.964, 26.23320
1120.892, 26.33962
1122.821, 26.47988
1124.749, 26.60663
1126.678, 26.85588
1128.606, 27.26905
1130.535, 27.50841
1132.463, 27.53562
1134.391, 27.72276
1136.320, 28.12076
1138.248, 28.39174
1140.177, 28.49764
1142.105, 28.45625
1144.034, 28.27913
1145.962, 27.87514
1147.891, 27.25390
1149.819, 26.53030
1151.748, 25.82369
1153.676, 25.45902
1155.605, 25.24176
1157.533, 24.73803
1159.462, 24.15530
1161.390, 23.89883
1163.318, 23.75873
1165.247, 23.38940
1167.175, 23.02912
1169.104, 22.94750
1171.032, 22.92502
1172.961, 22.82717
1174.889, 22.71830
1176.818, 22.58730
1178.746, 22.48228
1180.675, 22.39898
1182.603, 22.40235
1184.532, 22.65737
1186.460, 22.82992
1188.389, 22.68721
1190.317, 22.61902
1192.245, 22.80036
1194.174, 22.91860
1196.102, 22.85945
1198.031, 22.79343
1199.959, 22.80383
1201.888, 22.82832
1203.816, 22.82425
1205.745, 22.70374
1207.673, 22.47150
1209.602, 22.19335
1211.530, 21.90063
1213.459, 21.69123
1215.387, 21.51442
1217.316, 21.56391
1219.244, 21.83349
1221.172, 21.74725
1223.101, 21.38658
1225.029, 21.26776
1226.958, 21.30086
1228.886, 21.27559
1230.815, 21.22263
1232.743, 21.09698
1234.672, 20.97360
1236.600, 21.03461
1238.529, 21.11202
1240.457, 21.07024
1242.386, 21.03368
1244.314, 20.96217
1246.243, 20.92789
1248.171, 21.10574
1250.099, 21.25895
1252.028, 21.25511
1253.956, 21.19204
1255.885, 21.09520
1257.813, 20.98516
1259.742, 20.84089
1261.670, 20.86764
1263.599, 21.09498
1265.527, 21.15392
1267.456, 21.05478
1269.384, 21.25713
1271.313, 21.69476
1273.241, 21.79749
1275.170, 21.64615
1277.098, 21.63960
1279.026, 21.76488
1280.955, 21.97651
1282.883, 22.24183
1284.812, 22.44023
1286.740, 22.67785
1288.669, 23.13007
1290.597, 23.64750
1292.526, 24.06076
1294.454, 24.57328
1296.383, 25.28603
1298.311, 26.09156
1300.240, 26.98512
1302.168, 28.04979
1304.097, 29.28281
1306.025, 30.70526
1307.953, 32.29523
1309.882, 34.12361
1311.810, 36.19275
1313.739, 38.30365
1315.667, 40.44608
1317.596, 42.58096
1319.524, 44.28391
1321.453, 44.82265
1323.381, 44.50586
1325.310, 43.54493
1327.238, 41.93249
1329.167, 39.61657
1331.095, 37.09405
1333.024, 34.44211
1334.952, 32.09295
1336.880, 30.22697
1338.809, 28.65536
1340.737, 27.35959
1342.666, 26.53316
1344.594, 26.23563
1346.523, 25.77274
1348.451, 25.18208
1350.380, 24.92126
1352.308, 24.92730
1354.237, 25.07067
1356.165, 25.30647
1358.094, 25.24622
1360.022, 25.06551
1361.951, 25.31408
1363.879, 25.64602
1365.807, 25.71947
1367.736, 25.90277
1369.664, 26.29409
1371.593, 26.47914
1373.521, 26.50655
1375.450, 26.52097
1377.378, 26.37786
1379.307, 26.35366
1381.235, 26.57897
1383.164, 26.71051
1385.092, 26.62290
1387.021, 26.70066
1388.949, 27.06514
1390.878, 27.27298
1392.806, 27.20105
1394.734, 26.99507
1396.663, 26.71909
1398.591, 26.37248
1400.520, 25.96397
1402.448, 25.50480
1404.377, 25.07911
1406.305, 24.65018
1408.234, 24.63240
1410.162, 24.98782
1412.091, 24.87836
1414.019, 24.39797
1415.948, 23.90332
1417.876, 23.47431
1419.805, 23.28605
1421.733, 23.21668
1423.661, 23.20262
1425.590, 23.20072
1427.518, 23.17409
1429.447, 23.23175
1431.375, 23.38532
1433.304, 23.38614
1435.232, 23.24714
1437.161, 23.11268
1439.089, 23.01947
1441.018, 23.06772
1442.946, 23.13671
1444.875, 22.94976
1446.803, 22.65785
1448.731, 22.49951
1450.660, 22.54431
1452.588, 22.83907
1454.517, 22.88723
1456.445, 22.52175
1458.374, 22.32536
1460.302, 22.35972
1462.231, 22.39252
1464.159, 22.36471
1466.088, 22.14329
1468.016, 21.87716
1469.945, 21.80662
1471.873, 21.84613
1473.802, 21.89771
1475.730, 21.83112
1477.658, 21.57120
1479.587, 21.38158
1481.515, 21.39307
1483.444, 21.31619
1485.372, 21.01562
1487.301, 20.63790
1489.229, 20.37514
1491.158, 20.61580
1493.086, 20.95621
1495.015, 20.81848
1496.943, 20.54110
1498.872, 20.24399
1500.800, 20.07813
1502.729, 20.23332
1504.657, 20.32269
1506.585, 20.20987
1508.514, 20.14686
1510.442, 20.19847
1512.371, 20.10924
1514.299, 19.91254
1516.228, 19.73763
1518.156, 19.67108
1520.085, 19.80747
1522.013, 19.87967
1523.942, 19.92718
1525.870, 19.97876
1527.799, 19.77653
1529.727, 19.48112
1531.656, 19.29873
1533.584, 19.39349
1535.512, 19.59790
1537.441, 19.55943
1539.369, 19.32620
1541.298, 19.23781
1543.226, 19.39601
1545.155, 19.57095
1547.083, 19.58330
1549.012, 19.60791
1550.940, 19.66550
1552.869, 19.57404
1554.797, 19.54380
1556.726, 19.60844
1558.654, 19.38827
1560.583, 19.14968
1562.511, 19.45295
1564.439, 19.65549
1566.368, 19.27633
1568.296, 18.93811
1570.225, 18.78123
1572.153, 18.82360
1574.082, 19.01818
1576.010, 19.16528
1577.939, 19.25220
1579.867, 19.15231
1581.796, 19.08624
1583.724, 19.23551
1585.653, 19.30850
1587.581, 19.12680
1589.510, 18.86489
1591.438, 18.68190
1593.366, 18.72187
1595.295, 18.84271
1597.223, 18.94451
1599.152, 19.02308
1601.080, 18.93219
1603.009, 18.81004
1604.937, 18.72518
1606.866, 18.80944
1608.794, 18.99358
1610.723, 18.72266
1612.651, 18.27822
1614.580, 18.31642
1616.508, 18.55281
1618.437, 18.83950
1620.365, 19.00476
1622.293, 18.88672
1624.222, 18.72032
1626.150, 18.47111
1628.079, 18.20021
1630.007, 18.04940
1631.936, 18.19958
1633.864, 18.41741
1635.793, 18.51949
1637.721, 18.50028
1639.650, 18.37557
1641.578, 18.28531
1643.507, 18.04185
1645.435, 18.12730
1647.364, 18.51336
1649.292, 18.52320
1651.220, 18.32312
1653.149, 18.05606
1655.077, 17.90601
1657.006, 17.95243
1658.934, 18.02561
1660.863, 18.24351
1662.791, 18.24834
1664.720, 18.06471
1666.648, 17.97672
1668.577, 17.96352
1670.505, 18.06357
1672.434, 18.13521
1674.362, 18.17452
1676.291, 18.28819
1678.219, 18.35888
1680.147, 18.34207
1682.076, 18.46475
1684.004, 18.78838
1685.933, 19.06292
1687.861, 19.14424
1689.790, 19.15817
1691.718, 19.30765
1693.647, 19.52853
1695.575, 19.66584
1697.504, 19.97189
1699.432, 20.36849
1701.361, 20.61290
1703.289, 20.90451
1705.218, 21.26463
1707.146, 21.26266
1709.074, 20.94637
1711.003, 20.66738
1712.931, 20.39028
1714.860, 20.00446
1716.788, 19.59203
1718.717, 19.16559
1720.645, 18.63650
1722.574, 18.22015
1724.502, 17.99802
1726.431, 17.63871
1728.359, 17.16639
1730.288, 16.86139
1732.216, 16.60502
1734.145, 16.34477
1736.073, 16.36832
1738.001, 16.43023
1739.930, 16.19925
1741.858, 16.05106
1743.787, 16.05546
1745.715, 15.88127
1747.644, 15.74428
1749.572, 15.75563
1751.501, 15.59202
1753.429, 15.26787
1755.358, 15.31102
1757.286, 15.46661
1759.215, 15.34981
1761.143, 15.22136
1763.072, 15.25927
1765.000, 15.31295
1766.928, 15.28945
1768.857, 15.25633
1770.785, 15.27284
1772.714, 15.21086
1774.642, 15.03414
1776.571, 14.96849
1778.499, 14.92041
1780.428, 14.65999
1782.356, 14.57400
1784.285, 14.80200
1786.213, 14.93770
1788.142, 14.89090
1790.070, 14.73099
1791.999, 14.59818
1793.927, 14.44795
1795.855, 14.46012
1797.784, 14.60169
1799.712, 14.60097
1801.641, 14.56237
1803.569, 14.49565
1805.498, 14.42647
1807.426, 14.33562
1809.355, 14.32572
1811.283, 14.30980
1813.212, 14.13483
1815.140, 14.03681
1817.069, 14.17913
1818.997, 14.29222
1820.926, 14.14065
1822.854, 13.91410
1824.782, 13.84108
1826.711, 13.94530
1828.639, 13.98508
1830.568, 13.78551
1832.496, 13.70410
1834.425, 13.90600
1836.353, 13.95865
1838.282, 13.79940
1840.210, 13.52911
1842.139, 13.42694
1844.067, 13.63703
1845.996, 13.79108
1847.924, 13.70320
1849.853, 13.55906
1851.781, 13.57788
1853.709, 13.83276
1855.638, 13.96417
1857.566, 13.73389
1859.495, 13.29316
1861.423, 12.96230
1863.352, 13.28981
1865.280, 13.56571
1867.209, 13.34646
1869.137, 13.18891
1871.066, 13.11378
1872.994, 13.11608
1874.923, 13.16009
1876.851, 13.13554
1878.780, 13.09641
1880.708, 12.93993
1882.636, 12.87534
1884.565, 13.02229
1886.493, 13.05459
1888.422, 13.00137
1890.350, 12.85271
1892.279, 12.73549
1894.207, 12.77661
1896.136, 12.89187
1898.064, 12.81454
1899.993, 12.51052
1901.921, 12.41588
1903.850, 12.27681
1905.778, 12.19309
1907.707, 12.36031
1909.635, 12.50879
1911.563, 12.48345
1913.492, 12.43425
1915.420, 12.42202
1917.349, 12.33475
1919.277, 12.32622
1921.206, 12.26640
1923.134, 12.15662
1925.063, 12.26960
1926.991, 12.30467
1928.920, 12.30983
1930.848, 12.31768
1932.777, 12.15529
1934.705, 12.08799
1936.634, 12.18035
1938.562, 12.17716
1940.490, 12.06563
1942.419, 12.04666
1944.347, 12.05285
1946.276, 11.93187
1948.204, 11.73572
1950.133, 11.69854
1952.061, 11.79953
1953.990, 11.81241
1955.918, 11.89161
1957.847, 11.84128
1959.775, 11.67137
1961.704, 11.56170
1963.632, 11.44248
1965.561, 11.55072
1967.489, 11.74895
1969.417, 11.71542
1971.346, 11.46787
1973.274, 11.24693
1975.203, 11.46082
1977.131, 11.69086
1979.060, 11.59230
1980.988, 11.47026
1982.917, 11.44445
1984.845, 11.55273
1986.774, 11.57183
1988.702, 11.33952
1990.631, 11.22640
1992.559, 11.28169
1994.488, 11.40278
1996.416, 11.44417
1998.344, 11.13406
2000.273, 10.91632
2002.201, 10.99466
2004.130, 11.24722
2006.058, 11.37698
2007.987, 11.07621
2009.915, 10.96911
2011.844, 11.20966
2013.772, 11.26685
2015.701, 11.16653
2017.629, 11.08142
2019.558, 11.00652
2021.486, 10.93315
2023.415, 10.91762
2025.343, 10.96950
2027.271, 10.98515
2029.200, 10.90569
2031.128, 10.89314
2033.057, 10.88660
2034.985, 10.85462
2036.914, 11.09798
2038.842, 11.16825
2040.771, 10.85342
2042.699, 10.86711
2044.628, 11.17171
2046.556, 11.30927
2048.485, 11.20125
2050.413, 10.92103
2052.342, 10.56428
2054.270, 10.42239
2056.198, 10.61395
2058.127, 10.64992
2060.055, 10.36233
2061.984, 10.29640
2063.912, 10.52230
2065.841, 10.57649
2067.769, 10.48425
2069.698, 10.24123
2071.626, 10.11474
2073.555, 10.10846
2075.483, 10.11496
2077.412, 10.25140
2079.340, 10.41437
2081.269, 10.31740
2083.197, 10.13560
2085.125, 10.00173
2087.054, 9.986632
2088.982, 10.06504
2090.911, 9.972141
2092.839, 9.898535
2094.768, 10.02735
2096.696, 10.04279
2098.625, 9.902516
2100.553, 10.05445
2102.482, 10.25958
2104.410, 9.986604
2106.339, 9.859879
2108.267, 9.910028
2110.196, 9.824807
2112.124, 9.808441
2114.052, 10.02920
2115.981, 10.02429
2117.909, 9.887254
2119.838, 9.790523
2121.766, 9.688528
2123.695, 9.617780
2125.623, 9.506820
2127.552, 9.500240
2129.480, 9.682085
2131.409, 9.684805
2133.337, 9.442319
2135.266, 9.437144
2137.194, 9.537558
2139.123, 9.370361
2141.051, 9.160566
2142.979, 9.144461
2144.908, 9.328932
2146.836, 9.436212
2148.765, 9.190043
2150.693, 9.077813
2152.622, 9.227992
2154.550, 9.344315
2156.479, 9.414337
2158.407, 9.281305
2160.336, 9.129045
2162.264, 9.056152
2164.193, 9.130997
2166.121, 9.162316
2168.050, 8.939485
2169.978, 8.951992
2171.906, 9.144843
2173.835, 9.108500
2175.763, 9.066426
2177.692, 9.115663
2179.620, 9.103838
2181.549, 9.055331
2183.477, 8.959586
2185.406, 8.818858
2187.334, 8.756173
2189.263, 8.743887
2191.191, 8.797148
2193.120, 8.922181
2195.048, 9.059595
2196.977, 9.184820
2198.905, 8.934881
2200.833, 8.693651
2202.762, 8.621546
2204.690, 8.645867
2206.619, 8.682222
2208.547, 8.683755
2210.476, 8.643713
2212.404, 8.678761
2214.333, 8.414043
2216.261, 8.220091
2218.190, 8.502349
2220.118, 8.399766
2222.047, 8.136007
2223.975, 8.474802
2225.904, 8.698585
2227.832, 8.527432
2229.760, 8.335051
2231.689, 8.203555
2233.617, 8.243556
2235.546, 8.211286
2237.474, 8.155126
2239.403, 8.300207
2241.331, 8.341052
2243.260, 8.201094
2245.188, 8.055140
2247.117, 7.975114
2249.045, 8.135581
2250.974, 8.143760
2252.902, 7.948716
2254.831, 8.134754
2256.759, 8.291058
2258.688, 8.229940
2260.616, 8.141916
2262.544, 8.082792
2264.473, 8.139531
2266.401, 8.097867
2268.330, 7.983904
2270.258, 8.101385
2272.187, 8.139530
2274.115, 7.991094
2276.044, 7.959207
2277.972, 7.965770
2279.901, 7.982229
2281.829, 7.903925
2283.758, 7.783618
2285.686, 7.670867
2287.615, 7.711265
2289.543, 7.941421
2291.471, 7.880442
2293.400, 7.745095
2295.328, 7.673388
2297.257, 7.596448
2299.185, 7.558066
2301.114, 7.405550
2303.042, 7.404112
2304.971, 7.689721
2306.899, 7.564956
2308.828, 7.355842
2310.756, 7.414109
2312.685, 7.266391
2314.613, 7.024409
2316.542, 7.021939
2318.470, 7.144137
2320.398, 7.336004
2322.327, 7.204353
2324.255, 7.041038
2326.184, 7.153074
2328.112, 7.251184
2330.041, 7.185933
2331.969, 6.761084
2333.898, 6.763132
2335.826, 7.098490
2337.755, 6.947171
2339.683, 6.652335
2341.612, 6.356418
2343.540, 6.481836
2345.469, 6.599524
2347.397, 6.385786
2349.325, 6.292424
2351.254, 6.294625
2353.182, 6.231069
2355.111, 6.272134
2357.039, 6.386082
2358.968, 6.267505
2360.896, 6.196482
2362.825, 6.284227
2364.753, 6.237824
2366.682, 6.200457
2368.610, 6.402268
2370.539, 6.408762
2372.467, 6.283132
2374.396, 6.272995
2376.324, 6.134993
2378.252, 5.880214
2380.181, 5.881707
2382.109, 5.974000
2384.038, 6.120736
2385.966, 6.114095
2387.895, 6.010851
2389.823, 5.825564
2391.752, 5.823326
2393.680, 5.900171
2395.609, 5.853511
2397.537, 5.811829
2399.466, 5.787020
2401.394, 5.644285
2403.323, 5.561266
2405.251, 5.624541
2407.179, 5.783944
2409.108, 5.834783
2411.036, 5.657353
2412.965, 5.583548
2414.893, 5.541811
2416.822, 5.468123
2418.750, 5.535916
2420.679, 5.637959
2422.607, 5.546366
2424.536, 5.445956
2426.464, 5.375158
2428.393, 5.594573
2430.321, 5.667710
2432.250, 5.438375
2434.178, 5.359377
2436.106, 5.359422
2438.035, 5.353215
2439.963, 5.380306
2441.892, 5.413404
2443.820, 5.344969
2445.749, 5.344325
2447.677, 5.378584
2449.606, 5.329287
2451.534, 5.398057
2453.463, 5.481357
2455.391, 5.120918
2457.320, 5.034442
2459.248, 5.309172
2461.177, 5.137733
2463.105, 4.945471
2465.033, 4.918565
2466.962, 5.165998
2468.890, 5.279305
2470.819, 4.903939
2472.747, 4.890273
2474.676, 4.961829
2476.604, 4.959918
2478.533, 5.014324
2480.461, 5.043860
2482.390, 4.831337
2484.318, 4.674564
2486.247, 4.679845
2488.175, 4.763653
2490.104, 4.802118
2492.032, 4.801779
2493.960, 4.666892
2495.889, 4.896553
2497.817, 5.361372
2499.746, 5.148343
2501.674, 5.002017
2503.603, 4.780252
2505.531, 4.847680
2507.460, 4.854484
2509.388, 4.611153
2511.317, 4.518794
2513.245, 4.464687
2515.174, 4.509520
2517.102, 4.647089
2519.031, 4.705445
2520.959, 4.512639
2522.887, 4.492948
2524.816, 4.550512
2526.744, 4.514377
2528.673, 4.257783
2530.601, 4.040068
2532.530, 4.377270
2534.458, 4.388577
2536.387, 4.189844
2538.315, 4.346768
2540.244, 4.533191
2542.172, 4.646218
2544.101, 4.340520
2546.029, 4.305505
2547.958, 4.489681
2549.886, 4.222746
2551.814, 4.035997
2553.743, 4.193732
2555.671, 4.392565
2557.600, 4.267956
2559.528, 3.917679
2561.457, 4.168158
2563.385, 4.251949
2565.314, 3.987320
2567.242, 4.038814
2569.171, 4.110730
2571.099, 4.249858
2573.028, 4.301799
2574.956, 4.263758
2576.885, 4.107653
2578.813, 3.971873
2580.741, 3.888126
2582.670, 4.061715
2584.598, 3.975568
2586.527, 3.919998
2588.455, 4.066719
2590.384, 3.924194
2592.312, 3.793270
2594.241, 3.839102
2596.169, 3.798578
2598.098, 3.804960
2600.026, 3.785091
2601.955, 3.512441
2603.883, 3.436774
2605.812, 3.766338
2607.740, 3.833449
2609.668, 3.790623
2611.597, 3.839350
2613.525, 3.865136
2615.454, 3.691429
2617.382, 3.499729
2619.311, 3.573286
2621.239, 3.579209
2623.168, 3.303568
2625.096, 3.439564
2627.025, 3.592357
2628.953, 3.591904
2630.882, 3.656791
2632.810, 3.554105
2634.739, 3.314172
2636.667, 3.340018
2638.595, 3.384798
2640.524, 3.469256
2642.452, 3.684615
2644.381, 3.558910
2646.309, 3.341115
2648.238, 3.455239
2650.166, 3.479375
2652.095, 3.576191
2654.023, 3.237051
2655.952, 3.143220
2657.880, 3.360869
2659.809, 3.318537
2661.737, 3.437631
2663.666, 3.654882
2665.594, 3.186078
2667.522, 3.213099
2669.451, 3.764869
2671.379, 3.387284
2673.308, 2.973467
2675.236, 2.946796
2677.165, 3.089048
2679.093, 3.100662
2681.022, 3.073989
2682.950, 3.042221
2684.879, 3.169151
2686.807, 3.348101
2688.736, 3.229470
2690.664, 3.060135
2692.593, 2.930724
2694.521, 2.788747
2696.449, 2.766479
2698.378, 2.825965
2700.306, 2.990186
2702.235, 2.973169
2704.163, 2.878562
2706.092, 2.576339
2708.020, 2.739669
2709.949, 3.011608
2711.877, 2.866467
2713.806, 2.793637
2715.734, 2.734349
2717.663, 2.755644
2719.591, 2.818774
2721.520, 2.830038
2723.448, 2.888150
2725.376, 2.735193
2727.305, 2.721817
2729.233, 2.988613
2731.162, 3.071655
2733.090, 2.879572
2735.019, 2.602194
2736.947, 2.906170
2738.876, 2.898952
2740.804, 2.746511
2742.733, 2.646197
2744.661, 2.698486
2746.590, 2.860999
2748.518, 2.782026
2750.447, 2.896794
2752.375, 2.986635
2754.303, 2.765339
2756.232, 3.036339
2758.160, 3.132058
2760.089, 2.715887
2762.017, 2.973267
2763.946, 2.738936
2765.874, 2.270630
2767.803, 2.368200
2769.731, 2.417370
2771.660, 2.437548
2773.588, 2.683055
2775.517, 2.625142
2777.445, 2.505024
2779.374, 2.681188
2781.302, 2.554404
2783.230, 2.409713
2785.159, 2.311022
2787.087, 2.309755
2789.016, 2.451231
2790.944, 2.506810
2792.873, 2.381362
2794.801, 2.400062
2796.730, 2.456545
2798.658, 2.306265
2800.587, 2.268466
2802.515, 2.298468
2804.444, 2.512504
2806.372, 2.458380
2808.301, 2.346062
2810.229, 2.497945
2812.157, 2.418142
2814.086, 2.355359
2816.014, 2.386638
2817.943, 2.266397
2819.871, 2.182162
2821.800, 2.320399
2823.728, 2.227307
2825.657, 2.192467
2827.585, 2.261281
2829.514, 2.250267
2831.442, 2.194305
2833.371, 2.230664
2835.299, 2.500899
2837.228, 2.109967
2839.156, 1.849419
2841.084, 2.013563
2843.013, 2.321082
2844.941, 2.306175
2846.870, 2.200699
2848.798, 2.198073
2850.727, 2.339778
2852.655, 2.185615
2854.584, 1.936201
2856.512, 2.224569
2858.441, 2.336828
2860.369, 2.167372
2862.298, 2.117394
2864.226, 2.230760
2866.155, 2.302416
2868.083, 1.895628
2870.011, 2.005793
2871.940, 2.224383
2873.868, 2.253833
2875.797, 2.110117
2877.725, 2.155207
2879.654, 2.291388
2881.582, 2.074874
2883.511, 2.099639
2885.439, 2.094762
2887.368, 1.928375
2889.296, 1.911322
2891.225, 1.814550
2893.153, 1.770848
2895.082, 1.955800
2897.010, 2.015640
2898.938, 1.859719
2900.867, 1.716228
2902.795, 1.834953
2904.724, 2.153772
2906.652, 2.130558
2908.581, 2.003022
2910.509, 1.875149
2912.438, 1.886835
2914.366, 2.031758
2916.295, 2.163269
2918.223, 1.859684
2920.152, 1.561767
2922.080, 1.764324
2924.008, 1.925643
2925.937, 2.111547
2927.865, 1.903690
2929.794, 1.763593
2931.722, 1.749836
2933.651, 2.103683
2935.579, 2.756674
2937.508, 2.359545
2939.436, 1.826859
2941.365, 1.651003
2943.293, 1.863161
2945.221, 2.231913
2947.150, 2.402006
2949.078, 1.976968
2951.007, 1.710381
2952.935, 1.742307
2954.864, 1.443670
2956.792, 1.600686
2958.721, 1.945144
2960.649, 2.011034
2962.578, 1.877272
2964.506, 1.883512
2966.435, 2.044416
2968.363, 2.028655
2970.292, 1.896688
2972.220, 1.864304
2974.148, 1.985281
2976.077, 2.104660
2978.005, 2.037360
2979.934, 1.877442
2981.862, 2.003937
2983.791, 2.113886
2985.719, 2.214162
2987.648, 2.288979
2989.576, 2.164272
2991.505, 2.230865
2993.433, 2.391858
2995.362, 2.442375
2997.290, 2.394722
2999.219, 2.299023
3001.147, 2.126793
3003.075, 1.969546
3005.004, 2.051703
3006.932, 2.099972
3008.861, 1.847070
3010.789, 1.852572
3012.718, 1.989142
3014.646, 2.058320
3016.575, 2.244255
3018.503, 2.204269
3020.432, 1.878038
3022.360, 1.602984
3024.289, 2.088219
3026.217, 2.212207
3028.146, 1.960605
3030.074, 2.061949
3032.002, 2.219743
3033.931, 2.217172
3035.859, 1.947297
3037.788, 2.213179
3039.716, 2.079804
3041.645, 1.874637
3043.573, 2.051320
3045.502, 2.252228
3047.430, 2.330957
3049.359, 2.266282
3051.287, 1.977514
3053.216, 1.928276
3055.144, 2.064447
3057.073, 2.319410
3059.001, 1.914716
3060.929, 1.746957
3062.858, 1.938160
3064.786, 2.290489
3066.715, 2.091990
3068.643, 1.915021
3070.572, 2.008075
3072.500, 2.420325
3074.429, 2.469523
3076.357, 2.338258
3078.286, 2.278055
3080.214, 2.274828
3082.143, 2.531432
3084.071, 2.659507
3086.000, 2.502200
3087.928, 2.533113
3089.856, 2.592194
3091.785, 2.611214
3093.713, 2.419288
3095.642, 2.544497
3097.570, 2.631859
3099.499, 2.565458
3101.427, 2.520114
3103.356, 2.514221
3105.284, 2.647403
3107.213, 2.791977
3109.141, 2.615325
3111.070, 2.503643
3112.998, 2.440255
3114.927, 2.448804
3116.855, 2.860145
3118.783, 2.659728
3120.712, 2.396004
3122.640, 2.824120
3124.569, 3.106517
3126.497, 2.773400
3128.426, 2.715446
3130.354, 3.315482
3132.283, 2.691186
3134.211, 2.519076
3136.140, 2.812597
3138.068, 3.078197
3139.997, 3.172643
3141.925, 3.207799
3143.854, 3.390593
3145.782, 3.621641
3147.710, 3.130227
3149.639, 3.280127
3151.567, 3.932440
3153.496, 3.616126
3155.424, 3.587929
3157.353, 3.444484
3159.281, 3.355546
3161.210, 3.989120
3163.138, 3.766844
3165.067, 3.652033
3166.995, 3.795448
3168.924, 3.879228
3170.852, 3.898108
3172.781, 4.077475
3174.709, 4.314574
3176.637, 3.908752
3178.566, 4.000591
3180.494, 4.343875
3182.423, 4.561772
3184.351, 4.538037
3186.280, 4.430679
3188.208, 4.455099
3190.137, 4.589616
3192.065, 4.785319
3193.994, 4.826053
3195.922, 4.572277
3197.851, 4.315043
3199.779, 5.436221
3201.708, 5.289038
3203.636, 5.042857
3205.564, 5.235917
3207.493, 4.915948
3209.421, 4.938706
3211.350, 4.870786
3213.278, 4.708955
3215.207, 4.914200
3217.135, 5.412374
3219.064, 5.507080
3220.992, 5.260878
3222.921, 5.466658
3224.849, 5.850729
3226.778, 5.628342
3228.706, 5.053054
3230.635, 5.299661
3232.563, 5.534235
3234.491, 5.689595
3236.420, 5.707526
3238.348, 5.704120
3240.277, 5.528902
3242.205, 5.668442
3244.134, 5.892123
3246.062, 5.754600
3247.991, 6.103325
3249.919, 6.324437
3251.848, 6.179227
3253.776, 5.594814
3255.705, 5.973865
3257.633, 6.187476
3259.562, 6.078885
3261.490, 5.822858
3263.418, 6.135005
3265.347, 6.008371
3267.275, 5.923432
3269.204, 6.128211
3271.132, 6.093371
3273.061, 5.586165
3274.989, 5.587182
3276.918, 5.966346
3278.846, 5.667091
3280.775, 5.288245
3282.703, 5.385507
3284.632, 5.496666
3286.560, 5.102343
3288.489, 5.647011
3290.417, 5.554367
3292.345, 5.242868
3294.274, 5.417452
3296.202, 5.987806
3298.131, 5.766070
3300.059, 5.553478
3301.988, 5.650578
3303.916, 5.397591
3305.845, 5.587774
3307.773, 5.619009
3309.702, 5.601595
3311.630, 6.093357
3313.559, 5.725770
3315.487, 5.337500
3317.416, 5.071914
3319.344, 4.852832
3321.272, 4.883256
3323.201, 5.143459
3325.129, 5.345956
3327.058, 5.272467
3328.986, 4.792986
3330.915, 5.333878
3332.843, 5.334012
3334.772, 4.865523
3336.700, 4.743917
3338.629, 5.658058
3340.557, 5.293737
3342.486, 4.936927
3344.414, 5.311045
3346.343, 4.989547
3348.271, 4.725304
3350.199, 4.922112
3352.128, 5.206868
3354.056, 4.926459
3355.985, 4.802086
3357.913, 4.682531
3359.842, 4.471952
3361.770, 4.223705
3363.699, 4.302949
3365.627, 4.511220
3367.556, 4.538061
3369.484, 4.313269
3371.413, 3.871026
3373.341, 3.674942
3375.270, 3.961832
3377.198, 3.879523
3379.126, 3.201857
3381.055, 3.424054
3382.983, 3.564475
3384.912, 3.147080
3386.840, 2.783467
3388.769, 3.261563
3390.697, 3.163298
3392.626, 2.908401
3394.554, 2.744015
3396.483, 2.701056
3398.411, 2.608473
3400.340, 2.675180
3402.268, 2.783914
3404.197, 2.904856
3406.125, 2.961750
3408.053, 2.447713
3409.982, 2.464831
3411.910, 2.828058
3413.839, 3.048182
3415.767, 2.704926
3417.696, 2.711698
3419.624, 2.879801
3421.553, 2.821355
3423.481, 2.630126
3425.410, 3.063612
3427.338, 2.904155
3429.267, 2.704839
3431.195, 2.400363
3433.124, 2.048433
3435.052, 2.817085
3436.980, 2.409772
3438.909, 2.314457
3440.837, 2.504615
3442.766, 2.373991
3444.694, 2.298073
3446.623, 2.506741
3448.551, 2.281702
3450.480, 1.772682
3452.408, 1.683200
3454.337, 2.631575
3456.265, 2.433470
3458.194, 2.006199
3460.122, 1.890293
3462.051, 1.868135
3463.979, 1.703561
3465.907, 1.708492
3467.836, 1.875648
3469.764, 1.993013
3471.693, 1.758759
3473.621, 1.695658
3475.550, 1.720480
3477.478, 1.626908
3479.407, 1.463210
3481.335, 1.596485
3483.264, 1.628693
3485.192, 1.739895
3487.121, 1.871919
3489.049, 1.863787
3490.978, 1.403728
3492.906, 1.427665
3494.834, 1.701920
3496.763, 1.783044
3498.691, 1.525588
3500.620, 1.203962
3502.548, 1.941839
3504.477, 2.091279
3506.405, 1.837552
3508.334, 1.723187
3510.262, 2.056975
3512.191, 1.661333
3514.119, 1.583615
3516.048, 1.650252
3517.976, 1.935083
3519.905, 2.864133
3521.833, 2.072784
3523.761, 2.448853
3525.690, 2.601407
3527.618, 2.164725
3529.547, 2.178531
3531.475, 2.582585
3533.404, 3.014271
3535.332, 3.199561
3537.261, 3.544035
3539.189, 4.442830
3541.118, 4.386841
3543.046, 4.815233
3544.975, 5.145760
3546.903, 5.669592
3548.832, 6.637452
3550.760, 6.668995
3552.688, 6.169482
3554.617, 5.556968
3556.545, 4.997107
3558.474, 4.547574
3560.402, 4.254049
3562.331, 3.302705
3564.259, 2.744585
3566.188, 2.326393
3568.116, 2.073436
3570.045, 2.337842
3571.973, 2.063405
3573.902, 1.971832
3575.830, 1.919775
3577.759, 1.798800
3579.687, 1.657710
3581.615, 1.702166
3583.544, 1.701738
3585.472, 1.611202
3587.401, 1.378666
3589.329, 1.199089
3591.258, 1.432697
3593.186, 1.427204
3595.115, 1.085403
3597.043, 0.8998712
3598.972, 0.8693874
3600.900, 0.8197540
3602.829, 1.029750
3604.757, 1.133159
3606.686, 1.100202
3608.614, 1.195019
3610.542, 1.343568
3612.471, 1.061622
3614.399, 0.7748727
3616.328, 0.9956414
3618.256, 1.292026
3620.185, 1.318434
3622.113, 1.028471
3624.042, 0.6610762
3625.970, 0.9764786
3627.899, 0.8002617
3629.827, 0.7971029
3631.756, 0.9421930
3633.684, 0.7024807
3635.613, 0.9078436
3637.541, 0.6894409
3639.469, 0.2967428
3641.398, 0.4438310
3643.326, 0.9236228
3645.255, 0.7245104
3647.183, 0.1047484
3649.112, 5.7047378E-02
3651.040, 0.2259565
3652.969, 0.4254412
3654.897, 0.6233333
3656.826, 0.8035086
3658.754, 0.4060479
3660.683, 0.4763500
3662.611, 0.5512756
3664.540, 0.6351793
3666.468, 0.8021924
3668.396, 0.6099707
3670.325, 0.4898515
3672.253, 0.6636197
3674.182, 0.5235300
3676.110, 0.3111050
3678.039, 0.3699124
3679.967, 0.3527691
3681.896, 0.3995634
3683.824, 4.2753011E-02
3685.753, -2.7802469E-02
3687.681, 5.9637021E-02
3689.610, 0.1193670
3691.538, 0.6579845
3693.467, 0.2582081
3695.395, 0.4102133
3697.323, 0.4703560
3699.252, 0.3958957
3701.180, 0.2871970
3703.109, -0.1553401
3705.037, 0.1328449
3706.966, 0.5160826
3708.894, 0.2987347
3710.823, 0.1079134
3712.751, 0.2854862
3714.680, 0.2886698
3716.608, 0.2941502
3718.537, 0.3968814
3720.465, 0.5206794
3722.394, 0.6310167
3724.322, 0.5505713
3726.250, 0.1518815
3728.179, 7.3008128E-02
3730.107, 0.1979103
3732.036, 0.3769855
3733.964, 0.4209647
3735.893, 0.2282279
3737.821, -1.9135511E-02
3739.750, 0.1845094
3741.678, 0.3880065
3743.607, 0.4246928
3745.535, 0.4116965
3747.464, 0.2832981
3749.392, 2.0167779E-02
3751.321, -0.1877766
3753.249, 0.2078066
3755.177, 0.2803150
3757.106, 0.1454912
3759.034, 0.3158486
3760.963, 0.4319631
3762.891, 0.2811067
3764.820, 0.8601797
3766.748, 0.2673555
3768.677, 0.2398281
3770.605, 9.3425751E-02
3772.534, -6.0636438E-02
3774.462, 0.1290080
3776.391, 0.5393287
3778.319, 9.4781063E-02
3780.248, 0.6162369
3782.176, 0.4671456
3784.104, 0.4605035
3786.033, 0.5522220
3787.961, 0.4283801
3789.890, 0.2349993
3791.818, 0.3232918
3793.747, 0.2063305
3795.675, 0.4792403
3797.604, 0.5024333
3799.532, 0.2846566
3801.461, 8.0650859E-02
3803.389, -8.7306567E-02
3805.318, 0.1455149
3807.246, 0.2650067
3809.175, -7.2126679E-02
3811.103, 6.4249858E-02
3813.031, 0.3495321
3814.960, 0.3548511
3816.888, 0.3679382
3818.817, 0.2092224
3820.745, 0.5570688
3822.674, 6.6502623E-02
3824.602, 2.7943710E-02
3826.531, 0.2633046
3828.459, 0.3185805
3830.388, 0.3463829
3832.316, 0.1680261
3834.245, -0.1813330
3836.173, 7.4192442E-02
3838.102, 0.2196299
3840.030, -7.9889208E-02
3841.958, -7.5108610E-02
3843.887, 0.5920286
3845.815, 0.2099927
3847.744, 0.7823740
3849.672, 0.4114041
3851.601, 0.1639643
3853.529, 0.3112736
3855.458, 0.3335786
3857.386, 5.2289050E-02
3859.315, -1.1116890E-02
3861.243, 0.3557871
3863.172, 0.4768241
3865.100, -3.1880919E-02
3867.029, 0.2715176
3868.957, 0.5997435
3870.885, 0.3985320
3872.814, 9.0441763E-02
3874.742, -0.2426876
3876.671, 4.0245879E-02
3878.599, 0.2541527
3880.528, 0.1323009
3882.456, 0.1464670
3884.385, 0.1818671
3886.313, 1.7094070E-02
3888.242, -0.1721085
3890.170, 1.5496490E-02
3892.099, -0.2064661
3894.027, 8.2145728E-02
3895.956, 0.1809386
3897.884, 4.0877308E-03
3899.813, 0.2248460
3901.741, 0.3949597
3903.669, -0.2452975
3905.598, -3.2911699E-02
3907.526, -0.3051938
3909.455, 0.7418299
3911.383, 0.5004490
3913.312, 0.1597502
3915.240, 0.4220992
3917.169, 0.7470691
3919.097, 0.5685105
3921.026, -2.9842351E-02
3922.954, -0.3975068
3924.883, 0.3060754
3926.811, 0.6710340
3928.740, 0.1358847
3930.668, -2.8976779E-02
3932.596, 0.1288011
3934.525, 0.1525639
3936.453, 0.6546120
3938.382, -0.1893434
3940.310, 0.2160861
3942.239, -7.0061423E-02
3944.167, 2.9348880E-02
3946.096, 2.1263091E-02
3948.024, 0.2092175
3949.953, 0.5617508
3951.881, 0.4575092
3953.810, 0.1858416
3955.738, -0.1280111
3957.667, 3.5722639E-02
3959.595, -0.1743832
3961.523, 4.4297561E-02
3963.452, -4.7459129E-02
3965.380, -0.1052854
3967.309, 0.1653534
3969.237, 0.1016562
3971.166, -9.8357491E-02
3973.094, -0.1748582
3975.023, 0.2039594
3976.951, 0.1872394
3978.880, 0.2420242
3980.808, 0.3285348
3982.737, 7.8901038E-02
3984.665, 0.1901789
3986.594, 0.3318383
3988.522, 0.2059419
3990.450, 0.1276084
3992.379, 0.1019570
3994.307, 0.3528827
3996.236, 4.8286691E-02
3998.164, -0.2250034
4000.093, 0.1571822
4002.021, -1.4188740E-02
4003.950, 0.2009314
4005.878, 0.4885080
4007.807, 0.1624800
4009.735, -0.1722029
4011.664, 7.8400597E-02
4013.592, 0.3980381
4015.521, 6.3771836E-02
4017.449, 0.2969097
4019.377, 0.1810093
4021.306, 0.1060403
4023.234, -7.0134878E-02
4025.163, -3.9530870E-02
4027.091, 0.3284391
4029.020, 8.8980310E-02
4030.948, 0.2912840
4032.877, 0.5845007
4034.805, 6.1932880E-02
4036.734, -1.6101601E-02
4038.662, -0.2856729
4040.591, -0.2301914
4042.519, 3.6291771E-02
4044.448, 2.3311730E-02
4046.376, -9.3834899E-02
4048.304, 0.1263865
4050.233, -0.2970586
4052.161, -9.7364619E-02
4054.090, 0.2725954
4056.018, 0.1243944
4057.947, 0.2107664
4059.875, 8.0593348E-02
4061.804, -0.2555367
4063.732, -0.1732197
4065.661, 0.1884742
4067.589, -2.9008450E-02
4069.518, -0.1505205
4071.446, 0.1502444
4073.375, -1.2005630E-02
4075.303, 3.9169621E-02
4077.231, 6.4194053E-02
4079.160, 1.1815060E-02
4081.088, -0.1873369
4083.017, -0.2391766
4084.945, -0.2825035
4086.874, -0.3310925
4088.802, 0.2587448
4090.731, 0.1115812
4092.659, -0.1413389
4094.588, 4.8524652E-02
4096.516, 0.2215114
4098.444, 5.9783101E-02
4100.373, -0.2704557
4102.301, 6.6939183E-02
4104.230, 0.2178630
4106.158, -0.1002808
4108.087, -6.0018539E-02
4110.015, 0.2138945
4111.944, 0.1717293
4113.872, 0.4148459
4115.801, -0.1840070
4117.729, -0.3057357
4119.658, -4.9845401E-02
4121.586, 0.2814328
4123.515, 0.3260781
4125.443, 0.2419696
4127.372, 0.1228776
4129.300, 3.1962819E-02
4131.229, 1.3259130E-03
4133.157, -0.1177338
4135.085, -0.1355805
4137.014, -0.6475051
4138.942, 0.8795015
4140.871, -0.1430383
4142.799, -0.5803681
4144.728, 0.5206600
4146.656, 1.007963
4148.584, -2.059290
4150.513, -2.140502
4152.441, 0.1967571
4154.370, 0.1077991
4156.298, -0.2950132
4158.227, -5.1222902E-02
4160.155, 0.1215977
4162.084, 0.3713998
4164.012, 0.1583491
4165.941, 8.0975123E-02
4167.869, -0.2651875
4169.798, -0.4286198
4171.726, -0.4806524
4173.655, -0.1312496
4175.583, 8.3448157E-02
4177.512, 0.1479049
4179.440, 0.2713688
4181.369, 0.3581360
4183.297, 0.3686605
4185.226, -3.2313120E-02
4187.154, 0.3095193
4189.083, -7.7087589E-02
4191.011, -0.3424864
4192.939, -7.5606620E-03
4194.868, 0.1435289
4196.796, 0.5495198
4198.725, 0.4937730
4200.653, 0.2898745
4202.582, -5.2950379E-02
4204.510, -2.1574961E-03
4206.438, -7.4419767E-02
4208.367, -0.2271811
4210.295, 0.3197374
4212.224, 0.2956965
4214.152, -0.1144803
4216.081, 0.2868574
4218.009, -0.3086855
4219.938, -0.1681562
4221.866, -8.6006947E-02
4223.795, -0.2322176
4225.723, 1.1658710E-03
4227.652, 0.3765307
4229.580, 0.2457997
4231.509, -0.2168996
4233.437, -0.1670181
4235.366, 8.3404101E-02
4237.294, -0.8625310
4239.223, -1.235397
4241.151, 8.9228362E-02
4243.080, -0.1256223
4245.008, -0.1034681
4246.937, 0.1380864
4248.865, -0.1295723
4250.793, 4.7931910E-02
4252.722, 8.1215732E-02
4254.650, 0.1890225
4256.579, 3.4927730E-02
4258.507, -0.4582782
4260.436, -0.3908280
4262.364, 0.1407925
4264.292, 0.3981250
4266.221, -8.6196167E-03
4268.149, -0.1836995
4270.078, 4.6895910E-02
4272.006, -5.5564679E-02
4273.935, -0.2236705
4275.863, 0.2066206
4277.792, 0.4997999
4279.720, 6.4710140E-02
4281.649, 0.1738509
4283.577, -5.9121732E-02
4285.506, 0.2603282
4287.434, 3.7199270E-03
4289.363, -6.3507333E-02
4291.291, -6.1032139E-02
4293.220, -0.1403716
4295.148, -0.2539310
4297.077, 0.2712188
4299.005, 6.9124311E-02
4300.934, -0.1716645
4302.862, -5.6824539E-02
4304.791, 2.8346380E-02
4306.719, 9.9001728E-02
4308.647, 1.8059060E-02
4310.576, 8.5298188E-02
4312.504, 0.2734936
4314.433, 0.1821913
4316.361, 5.3283751E-02
4318.290, 9.6713617E-02
4320.218, 9.5065013E-02
4322.146, 0.1639297
4324.075, 0.1235728
4326.003, 0.3412817
4327.932, 0.6327211
4329.860, 4.8540700E-02
4331.789, 0.1948760
4333.717, 0.2955649
4335.646, -0.1096361
4337.574, -0.2259726
4339.503, -0.2230447
4341.431, 0.1492866
4343.360, -0.2828166
4345.288, -2.4083041E-02
4347.217, -0.1455223
4349.145, -6.9420487E-02
4351.074, 0.2129351
4353.002, 0.2656285
4354.931, -0.3713194
4356.859, -0.5106528
4358.788, -0.1808379
4360.716, 9.7310647E-02
4362.645, 7.0211537E-02
4364.573, 0.1178751
4366.501, 0.3531674
4368.430, 0.4587906
4370.358, 0.2315241
4372.287, 1.0493470E-03
4374.215, -0.1542664
4376.144, -0.3104493
4378.072, 0.1595817
4380.000, 0.1303748
4381.929, 0.1878551
##END=



