##NAMES=Kinoite
##RRUFFID=R040155
##IDEAL CHEMISTRY=Ca_2_Cu_2_Si_3_O_10_·2H_2_O
##LOCALITY=Christmas mine, Christmas, Gila County, Arizona, USA
##OWNER=RRUFF
##SOURCE=University of Arizona Mineral Museum
##DESCRIPTION=Pale blue crust
##STATUS=The identification of this mineral has been confirmed by X-ray diffraction and chemical analysis
##URL=https://www.rruff.net/odr/rruff_sample/R040155
##MEASURED CHEMISTRY=Ca_2.00_Cu_2.00_Si_3.00_O_10_·2H_2_O
##DIFFRACTION SAMPLE DESCRIPTION=Powder, using Mo radiation
##CELL PARAMETERS=a: 7.06 b: 12.907 c: 5.67 alpha: 90 beta: 96.16 gamma: 90 volume: 513.7 crystal system: monoclinic
##FILETYPE=Raman RAW
##RAMAN WAVELENGTH=532

146.9233, 2571.434
148.8518, 2693.209
150.7802, 2798.991
152.7087, 2909.851
154.6372, 3043.672
156.5656, 3180.989
158.4941, 3288.159
160.4226, 3353.294
162.3510, 3404.369
164.2795, 3455.819
166.2080, 3515.744
168.1364, 3551.704
170.0649, 3553.853
171.9934, 3534.667
173.9218, 3515.184
175.8503, 3499.250
177.7788, 3481.104
179.7072, 3457.631
181.6357, 3425.591
183.5642, 3395.312
185.4926, 3366.416
187.4211, 3338.906
189.3496, 3315.182
191.2780, 3295.716
193.2065, 3280.190
195.1350, 3270.183
197.0634, 3264.758
198.9919, 3260.886
200.9204, 3256.847
202.8488, 3253.833
204.7773, 3255.592
206.7058, 3264.385
208.6342, 3275.594
210.5627, 3285.255
212.4912, 3293.556
214.4196, 3311.223
216.3481, 3341.359
218.2766, 3380.142
220.2050, 3421.618
222.1335, 3463.692
224.0620, 3512.705
225.9904, 3570.254
227.9189, 3633.785
229.8474, 3705.881
231.7758, 3793.881
233.7043, 3887.534
235.6328, 3974.471
237.5612, 4056.936
239.4897, 4126.368
241.4182, 4175.680
243.3466, 4197.450
245.2751, 4234.646
247.2036, 4291.703
249.1320, 4364.375
251.0605, 4446.544
252.9890, 4557.929
254.9174, 4656.148
256.8459, 4726.059
258.7744, 4767.549
260.7029, 4814.726
262.6313, 4875.825
264.5598, 4941.583
266.4883, 5003.575
268.4167, 5055.916
270.3452, 5110.457
272.2737, 5172.036
274.2021, 5238.509
276.1306, 5298.534
278.0591, 5334.316
279.9875, 5373.000
281.9160, 5435.786
283.8445, 5533.334
285.7729, 5627.812
287.7014, 5718.074
289.6299, 5800.598
291.5583, 5862.853
293.4868, 5896.573
295.4153, 5917.608
297.3437, 5926.110
299.2722, 5920.816
301.2007, 5922.315
303.1291, 5945.559
305.0576, 5977.385
306.9861, 5991.637
308.9145, 5988.076
310.8430, 5970.250
312.7715, 5930.578
314.6999, 5870.234
316.6284, 5818.872
318.5569, 5781.875
320.4853, 5754.161
322.4138, 5733.179
324.3423, 5720.387
326.2707, 5706.652
328.1992, 5688.809
330.1277, 5667.587
332.0561, 5648.796
333.9846, 5629.921
335.9131, 5615.878
337.8415, 5611.283
339.7700, 5618.039
341.6985, 5612.388
343.6269, 5593.399
345.5554, 5562.523
347.4839, 5507.238
349.4123, 5413.479
351.3408, 5312.243
353.2693, 5217.282
355.1977, 5128.636
357.1262, 5028.545
359.0547, 4904.398
360.9831, 4770.462
362.9116, 4653.223
364.8401, 4556.184
366.7685, 4463.372
368.6970, 4364.692
370.6255, 4262.332
372.5539, 4179.305
374.4824, 4119.583
376.4109, 4074.523
378.3393, 4036.468
380.2678, 4002.043
382.1963, 3985.646
384.1247, 3989.323
386.0532, 4012.196
387.9817, 4060.682
389.9101, 4152.796
391.8386, 4248.057
393.7671, 4334.946
395.6955, 4415.147
397.6240, 4493.079
399.5525, 4560.808
401.4809, 4635.656
403.4094, 4722.926
405.3379, 4822.878
407.2663, 4918.513
409.1948, 5006.818
411.1233, 5092.116
413.0517, 5188.362
414.9802, 5296.464
416.9087, 5415.109
418.8371, 5552.484
420.7656, 5709.328
422.6941, 5873.069
424.6225, 6062.145
426.5510, 6247.261
428.4795, 6391.291
430.4079, 6472.357
432.3364, 6536.924
434.2649, 6575.581
436.1933, 6583.554
438.1218, 6578.611
440.0503, 6560.495
441.9787, 6527.819
443.9072, 6494.051
445.8357, 6461.614
447.7641, 6456.624
449.6926, 6486.589
451.6211, 6548.187
453.5495, 6624.373
455.4780, 6723.160
457.4065, 6823.903
459.3349, 6910.939
461.2634, 6985.976
463.1919, 7046.412
465.1203, 7083.665
467.0488, 7112.339
468.9773, 7150.633
470.9057, 7195.097
472.8342, 7258.831
474.7627, 7349.489
476.6911, 7463.131
478.6196, 7604.042
480.5481, 7768.918
482.4765, 7956.059
484.4050, 8193.221
486.3335, 8474.889
488.2619, 8763.949
490.1904, 9060.630
492.1189, 9319.146
494.0473, 9499.592
495.9758, 9613.580
497.9043, 9686.553
499.8327, 9727.278
501.7612, 9702.095
503.6897, 9611.209
505.6181, 9450.832
507.5466, 9262.357
509.4751, 9059.332
511.4035, 8827.597
513.3320, 8569.551
515.2604, 8276.506
517.1889, 8006.833
519.1174, 7783.008
521.0458, 7600.557
522.9743, 7448.178
524.9028, 7320.485
526.8312, 7227.661
528.7597, 7167.633
530.6882, 7137.685
532.6166, 7136.454
534.5451, 7161.521
536.4736, 7171.030
538.4020, 7129.776
540.3305, 7035.619
542.2590, 6914.166
544.1874, 6753.637
546.1159, 6560.138
548.0444, 6346.836
549.9728, 6141.071
551.9013, 5909.099
553.8298, 5656.932
555.7582, 5406.913
557.6867, 5173.767
559.6152, 4964.342
561.5436, 4766.670
563.4721, 4558.962
565.4006, 4350.585
567.3290, 4171.735
569.2575, 4026.365
571.1860, 3902.487
573.1144, 3797.860
575.0429, 3708.506
576.9714, 3627.411
578.8998, 3551.092
580.8283, 3479.484
582.7568, 3412.668
584.6852, 3353.815
586.6137, 3309.433
588.5422, 3275.433
590.4706, 3246.934
592.3991, 3222.770
594.3276, 3211.694
596.2560, 3206.969
598.1845, 3204.189
600.1130, 3204.487
602.0414, 3211.920
603.9699, 3225.383
605.8984, 3237.656
607.8268, 3249.855
609.7553, 3269.213
611.6838, 3302.949
613.6122, 3339.971
615.5407, 3377.168
617.4692, 3414.379
619.3976, 3462.020
621.3261, 3523.316
623.2546, 3591.834
625.1830, 3662.267
627.1115, 3735.365
629.0400, 3816.714
630.9684, 3900.401
632.8969, 3986.813
634.8254, 4071.813
636.7538, 4147.792
638.6823, 4222.848
640.6108, 4319.644
642.5392, 4456.545
644.4677, 4579.094
646.3962, 4666.281
648.3246, 4696.251
650.2531, 4692.794
652.1816, 4654.771
654.1100, 4598.804
656.0385, 4524.645
657.9670, 4435.535
659.8954, 4339.234
661.8239, 4241.314
663.7524, 4145.469
665.6808, 4040.336
667.6093, 3929.162
669.5378, 3828.836
671.4662, 3747.042
673.3947, 3669.046
675.3232, 3597.064
677.2516, 3534.068
679.1801, 3479.356
681.1086, 3433.176
683.0370, 3391.905
684.9655, 3354.903
686.8940, 3324.746
688.8224, 3303.283
690.7509, 3295.203
692.6794, 3288.728
694.6078, 3278.131
696.5363, 3268.973
698.4648, 3260.447
700.3932, 3246.658
702.3217, 3231.954
704.2502, 3231.680
706.1786, 3254.540
708.1071, 3276.475
710.0356, 3288.717
711.9641, 3295.677
713.8925, 3306.638
715.8210, 3320.516
717.7495, 3332.050
719.6779, 3334.991
721.6064, 3337.979
723.5349, 3351.480
725.4633, 3381.445
727.3918, 3414.417
729.3203, 3447.531
731.2487, 3482.325
733.1772, 3518.536
735.1057, 3556.013
737.0341, 3592.920
738.9626, 3628.079
740.8911, 3663.167
742.8195, 3699.983
744.7480, 3735.987
746.6765, 3776.239
748.6049, 3824.031
750.5334, 3878.100
752.4619, 3935.469
754.3903, 3999.491
756.3188, 4065.656
758.2473, 4132.601
760.1757, 4199.551
762.1042, 4260.752
764.0327, 4321.039
765.9611, 4370.460
767.8896, 4403.496
769.8181, 4418.667
771.7465, 4427.326
773.6750, 4433.404
775.6035, 4429.279
777.5319, 4408.288
779.4604, 4371.102
781.3889, 4333.437
783.3173, 4297.392
785.2458, 4261.086
787.1743, 4224.606
789.1027, 4187.598
791.0312, 4147.121
792.9597, 4094.498
794.8881, 4046.020
796.8166, 4012.080
798.7451, 3993.629
800.6735, 3980.437
802.6020, 3962.907
804.5305, 3955.089
806.4589, 3970.469
808.3874, 4016.410
810.3159, 4054.043
812.2443, 4071.924
814.1728, 4093.198
816.1013, 4131.296
818.0297, 4184.240
819.9582, 4242.507
821.8867, 4303.222
823.8151, 4372.450
825.7436, 4453.759
827.6721, 4547.934
829.6005, 4641.784
831.5290, 4727.487
833.4575, 4819.382
835.3859, 4936.877
837.3144, 5077.475
839.2429, 5197.906
841.1713, 5274.505
843.0998, 5344.531
845.0283, 5432.808
846.9567, 5542.454
848.8852, 5624.244
850.8137, 5672.213
852.7421, 5695.434
854.6706, 5699.735
856.5991, 5689.209
858.5275, 5656.677
860.4560, 5587.625
862.3845, 5505.729
864.3129, 5430.029
866.2414, 5357.899
868.1699, 5286.037
870.0983, 5216.229
872.0268, 5148.828
873.9553, 5080.071
875.8837, 5006.263
877.8122, 4932.005
879.7407, 4856.773
881.6691, 4790.515
883.5976, 4738.388
885.5261, 4689.396
887.4545, 4629.016
889.3830, 4550.914
891.3115, 4479.635
893.2399, 4420.401
895.1684, 4359.433
897.0969, 4305.795
899.0253, 4265.802
900.9538, 4234.820
902.8823, 4199.852
904.8107, 4159.022
906.7392, 4131.423
908.6677, 4128.104
910.5961, 4137.188
912.5246, 4150.735
914.4531, 4154.634
916.3815, 4155.210
918.3100, 4157.822
920.2385, 4173.888
922.1669, 4208.519
924.0954, 4255.861
926.0239, 4297.078
927.9523, 4332.343
929.8808, 4378.434
931.8093, 4446.750
933.7377, 4519.605
935.6662, 4588.708
937.5947, 4653.964
939.5231, 4739.176
941.4516, 4857.686
943.3801, 5008.391
945.3085, 5154.246
947.2370, 5276.168
949.1655, 5395.902
951.0939, 5536.693
953.0224, 5686.984
954.9509, 5808.276
956.8793, 5905.140
958.8078, 5965.926
960.7363, 5989.344
962.6647, 5980.630
964.5932, 5933.514
966.5217, 5840.167
968.4501, 5754.035
970.3786, 5678.333
972.3071, 5603.087
974.2355, 5541.059
976.1640, 5488.874
978.0925, 5445.516
980.0209, 5429.291
981.9494, 5447.466
983.8779, 5484.332
985.8063, 5527.708
987.7348, 5590.580
989.6633, 5687.567
991.5917, 5810.949
993.5202, 5945.648
995.4487, 6064.412
997.3771, 6207.046
999.3056, 6376.841
1001.234, 6537.896
1003.163, 6658.928
1005.091, 6744.422
1007.019, 6764.889
1008.948, 6717.368
1010.876, 6607.861
1012.805, 6455.292
1014.733, 6275.521
1016.662, 6096.095
1018.590, 5873.456
1020.519, 5647.724
1022.447, 5443.262
1024.376, 5265.953
1026.304, 5110.236
1028.233, 4982.605
1030.161, 4876.544
1032.090, 4794.695
1034.018, 4732.234
1035.947, 4680.122
1037.875, 4647.211
1039.803, 4634.757
1041.732, 4636.849
1043.660, 4643.133
1045.589, 4644.757
1047.517, 4640.738
1049.446, 4655.283
1051.374, 4675.360
1053.303, 4693.867
1055.231, 4708.463
1057.160, 4720.724
1059.088, 4726.899
1061.017, 4736.314
1062.945, 4739.400
1064.874, 4721.740
1066.802, 4686.173
1068.730, 4657.399
1070.659, 4639.876
1072.587, 4623.493
1074.516, 4606.398
1076.444, 4590.171
1078.373, 4581.450
1080.301, 4583.764
1082.230, 4593.272
1084.158, 4601.172
1086.087, 4597.925
1088.015, 4596.217
1089.944, 4608.988
1091.872, 4619.783
1093.801, 4608.232
1095.729, 4581.709
1097.657, 4562.540
1099.586, 4554.304
1101.514, 4536.995
1103.443, 4489.326
1105.371, 4447.690
1107.300, 4423.591
1109.228, 4408.666
1111.157, 4390.060
1113.085, 4365.580
1115.014, 4358.544
1116.942, 4375.688
1118.871, 4404.610
1120.799, 4413.423
1122.728, 4393.741
1124.656, 4371.442
1126.584, 4354.350
1128.513, 4350.697
1130.441, 4359.545
1132.370, 4382.403
1134.298, 4396.907
1136.227, 4389.754
1138.155, 4382.079
1140.084, 4387.276
1142.012, 4403.017
1143.941, 4414.376
1145.869, 4415.652
1147.798, 4422.588
1149.726, 4438.160
1151.655, 4452.574
1153.583, 4462.602
1155.511, 4470.928
1157.440, 4476.409
1159.368, 4466.868
1161.297, 4459.231
1163.225, 4469.803
1165.154, 4495.949
1167.082, 4523.313
1169.011, 4555.162
1170.939, 4582.840
1172.868, 4598.153
1174.796, 4604.069
1176.725, 4614.228
1178.653, 4634.670
1180.582, 4651.881
1182.510, 4660.960
1184.438, 4666.495
1186.367, 4673.403
1188.295, 4679.272
1190.224, 4694.272
1192.152, 4732.593
1194.081, 4766.301
1196.009, 4774.904
1197.938, 4767.835
1199.866, 4767.935
1201.795, 4780.961
1203.723, 4785.230
1205.652, 4763.235
1207.580, 4736.898
1209.509, 4729.134
1211.437, 4745.537
1213.365, 4756.858
1215.294, 4759.502
1217.222, 4757.927
1219.151, 4753.859
1221.079, 4747.870
1223.008, 4738.689
1224.936, 4718.071
1226.865, 4708.066
1228.793, 4717.531
1230.722, 4735.164
1232.650, 4752.244
1234.579, 4769.295
1236.507, 4782.460
1238.436, 4787.750
1240.364, 4794.200
1242.292, 4806.883
1244.221, 4823.062
1246.149, 4838.843
1248.078, 4856.525
1250.006, 4870.314
1251.935, 4873.728
1253.863, 4873.592
1255.792, 4881.202
1257.720, 4902.272
1259.649, 4913.554
1261.577, 4901.371
1263.506, 4894.511
1265.434, 4907.779
1267.363, 4934.162
1269.291, 4950.292
1271.219, 4951.925
1273.148, 4957.377
1275.076, 4974.443
1277.005, 4991.190
1278.933, 4998.355
1280.862, 4999.181
1282.790, 5004.360
1284.719, 5015.351
1286.647, 5025.894
1288.576, 5031.844
1290.504, 5043.242
1292.433, 5063.815
1294.361, 5087.967
1296.290, 5103.049
1298.218, 5098.457
1300.146, 5098.317
1302.075, 5116.388
1304.003, 5147.505
1305.932, 5163.663
1307.860, 5145.979
1309.789, 5146.098
1311.717, 5181.864
1313.646, 5215.956
1315.574, 5216.443
1317.503, 5194.659
1319.431, 5195.370
1321.360, 5223.727
1323.288, 5250.772
1325.217, 5275.076
1327.145, 5294.685
1329.073, 5296.948
1331.002, 5280.016
1332.930, 5273.326
1334.859, 5287.444
1336.787, 5302.698
1338.716, 5305.984
1340.644, 5307.285
1342.573, 5327.361
1344.501, 5370.662
1346.430, 5397.866
1348.358, 5397.367
1350.287, 5392.543
1352.215, 5393.111
1354.144, 5394.872
1356.072, 5393.393
1358.000, 5391.995
1359.929, 5400.714
1361.857, 5427.484
1363.786, 5449.948
1365.714, 5449.153
1367.643, 5431.972
1369.571, 5428.037
1371.500, 5444.944
1373.428, 5462.160
1375.357, 5465.248
1377.285, 5461.745
1379.214, 5465.284
1381.142, 5487.027
1383.071, 5514.055
1384.999, 5545.895
1386.927, 5564.262
1388.856, 5552.500
1390.784, 5531.946
1392.713, 5529.392
1394.641, 5546.874
1396.570, 5563.780
1398.498, 5568.083
1400.427, 5568.229
1402.355, 5574.218
1404.284, 5589.594
1406.212, 5606.626
1408.141, 5611.222
1410.069, 5617.103
1411.998, 5646.204
1413.926, 5670.585
1415.854, 5670.236
1417.783, 5653.669
1419.711, 5649.418
1421.640, 5658.212
1423.568, 5667.350
1425.497, 5687.974
1427.425, 5708.399
1429.354, 5717.459
1431.282, 5715.998
1433.211, 5715.480
1435.139, 5714.543
1437.068, 5716.557
1438.996, 5726.650
1440.925, 5737.248
1442.853, 5746.442
1444.781, 5756.145
1446.710, 5763.701
1448.638, 5761.933
1450.567, 5765.559
1452.495, 5789.790
1454.424, 5816.958
1456.352, 5831.245
1458.281, 5835.100
1460.209, 5839.595
1462.138, 5846.290
1464.066, 5852.057
1465.995, 5857.381
1467.923, 5870.691
1469.852, 5897.355
1471.780, 5927.354
1473.708, 5929.986
1475.637, 5894.335
1477.565, 5874.343
1479.494, 5893.232
1481.422, 5914.129
1483.351, 5918.208
1485.279, 5913.396
1487.208, 5921.359
1489.136, 5944.559
1491.065, 5964.605
1492.993, 5986.276
1494.922, 6007.234
1496.850, 6025.244
1498.779, 6039.722
1500.707, 6045.776
1502.635, 6030.757
1504.564, 6028.198
1506.492, 6059.310
1508.421, 6083.714
1510.349, 6072.707
1512.278, 6045.666
1514.206, 6043.275
1516.135, 6075.523
1518.063, 6100.220
1519.992, 6113.187
1521.920, 6122.657
1523.849, 6123.681
1525.777, 6123.800
1527.706, 6143.131
1529.634, 6185.811
1531.563, 6212.347
1533.491, 6206.057
1535.419, 6199.328
1537.348, 6206.637
1539.276, 6221.287
1541.205, 6237.748
1543.133, 6255.270
1545.062, 6261.532
1546.990, 6247.039
1548.919, 6240.909
1550.847, 6257.648
1552.776, 6283.254
1554.704, 6314.430
1556.633, 6346.052
1558.561, 6355.956
1560.490, 6336.966
1562.418, 6321.416
1564.346, 6316.046
1566.275, 6318.691
1568.203, 6329.840
1570.132, 6346.995
1572.060, 6365.297
1573.989, 6384.257
1575.917, 6400.204
1577.846, 6413.976
1579.774, 6424.531
1581.703, 6426.238
1583.631, 6425.941
1585.560, 6431.058
1587.488, 6441.111
1589.417, 6455.056
1591.345, 6478.610
1593.273, 6492.642
1595.202, 6481.164
1597.130, 6467.570
1599.059, 6464.387
1600.987, 6471.448
1602.916, 6491.463
1604.844, 6529.922
1606.773, 6562.008
1608.701, 6585.907
1610.630, 6598.468
1612.558, 6589.532
1614.487, 6572.557
1616.415, 6572.843
1618.344, 6592.799
1620.272, 6606.095
1622.200, 6604.273
1624.129, 6606.877
1626.057, 6624.642
1627.986, 6644.652
1629.914, 6655.329
1631.843, 6657.567
1633.771, 6660.479
1635.700, 6662.361
1637.628, 6669.495
1639.557, 6693.413
1641.485, 6711.304
1643.414, 6707.869
1645.342, 6694.542
1647.271, 6692.560
1649.199, 6702.783
1651.127, 6718.694
1653.056, 6749.811
1654.984, 6770.136
1656.913, 6762.080
1658.841, 6751.958
1660.770, 6761.450
1662.698, 6787.023
1664.627, 6811.071
1666.555, 6836.908
1668.484, 6850.752
1670.412, 6842.553
1672.341, 6832.213
1674.269, 6822.700
1676.198, 6817.188
1678.126, 6819.473
1680.054, 6829.625
1681.983, 6847.439
1683.911, 6880.394
1685.840, 6904.807
1687.768, 6916.921
1689.697, 6918.914
1691.625, 6901.409
1693.554, 6877.820
1695.482, 6879.343
1697.411, 6910.323
1699.339, 6932.854
1701.268, 6934.594
1703.196, 6946.067
1705.125, 6997.130
1707.053, 7039.086
1708.981, 7022.255
1710.910, 6968.025
1712.838, 6958.129
1714.767, 7002.441
1716.695, 7039.544
1718.624, 7065.987
1720.552, 7079.120
1722.481, 7058.489
1724.409, 7041.234
1726.338, 7069.867
1728.266, 7133.013
1730.195, 7168.054
1732.123, 7169.398
1734.052, 7165.479
1735.980, 7152.272
1737.908, 7147.764
1739.837, 7158.881
1741.765, 7182.323
1743.694, 7229.706
1745.622, 7290.165
1747.551, 7296.326
1749.479, 7228.549
1751.408, 7195.127
1753.336, 7238.349
1755.265, 7284.224
1757.193, 7295.910
1759.122, 7295.160
1761.050, 7307.458
1762.979, 7327.445
1764.907, 7324.771
1766.835, 7290.496
1768.764, 7276.419
1770.692, 7299.368
1772.621, 7333.850
1774.549, 7382.383
1776.478, 7425.610
1778.406, 7440.447
1780.335, 7433.056
1782.263, 7426.047
1784.192, 7418.908
1786.120, 7420.452
1788.049, 7437.126
1789.977, 7454.813
1791.906, 7471.724
1793.834, 7483.699
1795.762, 7483.136
1797.691, 7473.858
1799.619, 7469.585
1801.548, 7468.909
1803.476, 7481.326
1805.405, 7523.401
1807.333, 7555.958
1809.262, 7559.815
1811.190, 7556.909
1813.119, 7563.739
1815.047, 7578.146
1816.976, 7595.722
1818.904, 7619.743
1820.833, 7632.204
1822.761, 7623.267
1824.689, 7617.359
1826.618, 7617.792
1828.546, 7623.191
1830.475, 7633.534
1832.403, 7647.921
1834.332, 7665.901
1836.260, 7687.944
1838.189, 7706.810
1840.117, 7724.366
1842.046, 7735.004
1843.974, 7726.625
1845.903, 7725.952
1847.831, 7756.201
1849.760, 7790.261
1851.688, 7791.609
1853.616, 7766.500
1855.545, 7763.666
1857.473, 7788.851
1859.402, 7806.346
1861.330, 7807.397
1863.259, 7809.333
1865.187, 7817.034
1867.116, 7828.581
1869.044, 7848.034
1870.973, 7868.173
1872.901, 7872.125
1874.830, 7861.121
1876.758, 7857.891
1878.687, 7866.116
1880.615, 7874.734
1882.543, 7875.237
1884.472, 7884.154
1886.400, 7918.142
1888.329, 7957.913
1890.257, 7983.036
1892.186, 7996.482
1894.114, 8010.768
1896.043, 8027.091
1897.971, 8036.207
1899.900, 8029.641
1901.828, 8028.355
1903.757, 8041.748
1905.685, 8055.725
1907.614, 8059.667
1909.542, 8060.572
1911.470, 8069.682
1913.399, 8086.343
1915.327, 8100.166
1917.256, 8109.604
1919.184, 8119.979
1921.113, 8135.243
1923.041, 8146.016
1924.970, 8140.081
1926.898, 8139.754
1928.827, 8171.456
1930.755, 8212.551
1932.684, 8214.170
1934.612, 8182.003
1936.541, 8189.181
1938.469, 8251.033
1940.397, 8282.139
1942.326, 8253.974
1944.254, 8221.498
1946.183, 8189.293
1948.111, 8178.442
1950.040, 8222.969
1951.968, 8289.962
1953.897, 8324.076
1955.825, 8328.130
1957.754, 8326.573
1959.682, 8317.829
1961.611, 8311.643
1963.539, 8312.286
1965.468, 8311.166
1967.396, 8294.935
1969.324, 8288.112
1971.253, 8316.568
1973.181, 8360.267
1975.110, 8386.339
1977.038, 8395.846
1978.967, 8404.024
1980.895, 8405.172
1982.824, 8427.126
1984.752, 8499.639
1986.681, 8540.057
1988.609, 8501.340
1990.538, 8456.991
1992.466, 8443.765
1994.395, 8446.512
1996.323, 8448.554
1998.251, 8451.802
2000.180, 8465.459
2002.108, 8490.132
2004.037, 8502.606
2005.965, 8493.961
2007.894, 8492.605
2009.822, 8511.453
2011.751, 8530.933
2013.679, 8537.315
2015.608, 8546.285
2017.536, 8580.688
2019.465, 8624.836
2021.393, 8641.534
2023.322, 8630.075
2025.250, 8624.871
2027.178, 8625.613
2029.107, 8633.713
2031.035, 8653.753
2032.964, 8673.607
2034.892, 8695.163
2036.821, 8710.112
2038.749, 8715.396
2040.678, 8710.863
2042.606, 8688.508
2044.535, 8657.744
2046.463, 8643.363
2048.392, 8645.773
2050.320, 8662.744
2052.249, 8699.257
2054.177, 8731.110
2056.105, 8759.706
2058.034, 8774.257
2059.962, 8752.305
2061.891, 8736.889
2063.819, 8770.092
2065.748, 8817.382
2067.676, 8830.519
2069.605, 8815.637
2071.533, 8797.959
2073.462, 8773.711
2075.390, 8779.800
2077.319, 8833.445
2079.247, 8861.547
2081.176, 8830.869
2083.104, 8814.907
2085.032, 8860.902
2086.961, 8905.725
2088.889, 8900.983
2090.818, 8877.108
2092.746, 8865.806
2094.675, 8866.562
2096.603, 8881.442
2098.532, 8912.658
2100.460, 8930.498
2102.389, 8921.330
2104.317, 8925.672
2106.246, 8963.270
2108.174, 8986.362
2110.103, 8964.693
2112.031, 8951.087
2113.959, 8991.237
2115.888, 9034.684
2117.816, 9021.248
2119.745, 8979.358
2121.673, 8972.306
2123.602, 8994.448
2125.530, 9009.224
2127.459, 9014.490
2129.387, 9017.088
2131.316, 9013.072
2133.244, 9018.139
2135.173, 9048.127
2137.101, 9070.118
2139.030, 9067.245
2140.958, 9058.192
2142.886, 9052.323
2144.815, 9050.609
2146.743, 9052.640
2148.672, 9060.141
2150.600, 9083.706
2152.529, 9121.920
2154.457, 9144.555
2156.386, 9148.163
2158.314, 9154.034
2160.243, 9170.033
2162.171, 9174.640
2164.100, 9150.003
2166.028, 9129.431
2167.957, 9126.354
2169.885, 9131.984
2171.813, 9144.159
2173.742, 9158.065
2175.670, 9166.427
2177.599, 9171.271
2179.527, 9180.540
2181.456, 9194.121
2183.384, 9198.323
2185.313, 9190.597
2187.241, 9193.505
2189.170, 9210.561
2191.098, 9236.052
2193.027, 9281.590
2194.955, 9311.549
2196.884, 9298.498
2198.812, 9281.848
2200.740, 9295.728
2202.669, 9308.984
2204.597, 9270.167
2206.526, 9215.207
2208.454, 9230.589
2210.383, 9304.354
2212.311, 9332.572
2214.240, 9313.327
2216.168, 9308.142
2218.097, 9323.777
2220.025, 9334.219
2221.954, 9331.460
2223.882, 9333.354
2225.811, 9356.019
2227.739, 9369.233
2229.667, 9349.998
2231.596, 9330.078
2233.524, 9334.075
2235.453, 9346.730
2237.381, 9351.644
2239.310, 9351.403
2241.238, 9346.333
2243.167, 9340.265
2245.095, 9364.993
2247.024, 9419.388
2248.952, 9436.399
2250.881, 9403.365
2252.809, 9382.773
2254.738, 9387.603
2256.666, 9397.323
2258.594, 9400.949
2260.523, 9418.589
2262.451, 9488.125
2264.380, 9534.343
2266.308, 9480.631
2268.237, 9419.053
2270.165, 9450.350
2272.094, 9513.666
2274.022, 9505.430
2275.951, 9459.642
2277.879, 9476.712
2279.808, 9546.969
2281.736, 9569.937
2283.665, 9532.534
2285.593, 9511.645
2287.521, 9511.101
2289.450, 9523.218
2291.378, 9562.307
2293.307, 9587.432
2295.235, 9585.093
2297.164, 9579.521
2299.092, 9573.393
2301.021, 9574.505
2302.949, 9588.768
2304.878, 9610.757
2306.806, 9647.802
2308.735, 9680.767
2310.663, 9679.065
2312.592, 9654.449
2314.520, 9632.539
2316.448, 9614.135
2318.377, 9604.567
2320.305, 9603.722
2322.234, 9625.940
2324.162, 9675.581
2326.091, 9704.813
2328.019, 9704.518
2329.948, 9696.913
2331.876, 9676.742
2333.805, 9667.917
2335.733, 9688.407
2337.662, 9703.510
2339.590, 9697.447
2341.519, 9686.515
2343.447, 9682.117
2345.375, 9674.191
2347.304, 9649.630
2349.232, 9621.044
2351.161, 9594.441
2353.089, 9579.211
2355.018, 9604.097
2356.946, 9655.309
2358.875, 9679.851
2360.803, 9677.791
2362.732, 9650.592
2364.660, 9585.980
2366.589, 9586.002
2368.517, 9670.516
2370.446, 9712.407
2372.374, 9687.250
2374.302, 9656.509
2376.231, 9627.393
2378.159, 9607.407
2380.088, 9600.428
2382.016, 9600.434
2383.945, 9599.317
2385.873, 9612.460
2387.802, 9671.536
2389.730, 9721.198
2391.659, 9706.749
2393.587, 9676.029
2395.516, 9676.681
2397.444, 9690.802
2399.373, 9696.210
2401.301, 9693.589
2403.229, 9682.927
2405.158, 9665.529
2407.086, 9644.990
2409.015, 9621.195
2410.943, 9618.626
2412.872, 9637.666
2414.800, 9668.650
2416.729, 9714.423
2418.657, 9733.870
2420.586, 9717.736
2422.514, 9689.431
2424.443, 9623.753
2426.371, 9595.147
2428.300, 9643.398
2430.228, 9682.723
2432.156, 9694.203
2434.085, 9694.891
2436.013, 9684.165
2437.942, 9674.737
2439.870, 9681.023
2441.799, 9682.458
2443.727, 9647.681
2445.656, 9618.487
2447.584, 9652.170
2449.513, 9700.710
2451.441, 9700.337
2453.370, 9671.640
2455.298, 9638.801
2457.227, 9612.111
2459.155, 9624.265
2461.083, 9663.765
2463.012, 9682.287
2464.940, 9681.535
2466.869, 9688.582
2468.797, 9705.769
2470.726, 9701.373
2472.654, 9671.759
2474.583, 9662.845
2476.511, 9681.057
2478.440, 9685.105
2480.368, 9662.943
2482.297, 9653.089
2484.225, 9674.781
2486.154, 9686.456
2488.082, 9682.294
2490.010, 9668.801
2491.939, 9635.427
2493.867, 9615.293
2495.796, 9617.512
2497.724, 9636.714
2499.653, 9701.276
2501.581, 9739.511
2503.510, 9690.189
2505.438, 9633.450
2507.367, 9616.769
2509.295, 9618.361
2511.224, 9630.526
2513.152, 9643.026
2515.081, 9642.574
2517.009, 9640.994
2518.938, 9656.931
2520.866, 9676.400
2522.794, 9672.604
2524.723, 9659.841
2526.651, 9674.838
2528.580, 9702.155
2530.508, 9687.496
2532.437, 9649.345
2534.365, 9656.104
2536.294, 9695.822
2538.222, 9698.117
2540.151, 9665.627
2542.079, 9651.883
2544.008, 9658.761
2545.936, 9649.880
2547.865, 9624.325
2549.793, 9615.092
2551.721, 9624.656
2553.650, 9630.113
2555.578, 9628.251
2557.507, 9627.868
2559.435, 9625.297
2561.364, 9635.161
2563.292, 9666.136
2565.221, 9681.859
2567.149, 9674.993
2569.078, 9665.816
2571.006, 9654.955
2572.935, 9651.846
2574.863, 9668.066
2576.792, 9676.578
2578.720, 9667.456
2580.648, 9657.629
2582.577, 9648.653
2584.505, 9642.807
2586.434, 9635.559
2588.362, 9641.865
2590.291, 9690.326
2592.219, 9720.728
2594.148, 9691.229
2596.076, 9659.703
2598.005, 9652.700
2599.933, 9653.235
2601.862, 9661.292
2603.790, 9662.133
2605.719, 9633.594
2607.647, 9611.024
2609.575, 9631.442
2611.504, 9653.081
2613.432, 9630.412
2615.361, 9608.745
2617.289, 9641.806
2619.218, 9677.095
2621.146, 9656.961
2623.075, 9629.595
2625.003, 9659.692
2626.932, 9694.681
2628.860, 9656.983
2630.789, 9603.091
2632.717, 9608.178
2634.646, 9638.658
2636.574, 9659.261
2638.502, 9670.108
2640.431, 9665.004
2642.359, 9654.796
2644.288, 9661.034
2646.216, 9672.541
2648.145, 9668.185
2650.073, 9654.337
2652.002, 9635.841
2653.930, 9621.537
2655.859, 9639.651
2657.787, 9669.126
2659.716, 9653.386
2661.644, 9613.370
2663.573, 9605.792
2665.501, 9618.367
2667.429, 9622.214
2669.358, 9618.644
2671.286, 9608.481
2673.215, 9595.459
2675.143, 9591.217
2677.072, 9594.186
2679.000, 9600.053
2680.929, 9607.882
2682.857, 9614.185
2684.786, 9619.867
2686.714, 9628.710
2688.643, 9639.570
2690.571, 9649.603
2692.500, 9657.421
2694.428, 9651.997
2696.356, 9639.304
2698.285, 9647.624
2700.213, 9667.774
2702.142, 9659.940
2704.070, 9631.423
2705.999, 9613.952
2707.927, 9606.246
2709.856, 9603.119
2711.784, 9603.346
2713.713, 9600.681
2715.641, 9597.517
2717.570, 9604.816
2719.498, 9620.115
2721.427, 9635.063
2723.355, 9647.774
2725.283, 9646.920
2727.212, 9636.398
2729.140, 9625.576
2731.069, 9617.481
2732.997, 9627.982
2734.926, 9648.928
2736.854, 9647.558
2738.783, 9629.697
2740.711, 9608.385
2742.640, 9591.913
2744.568, 9612.331
2746.497, 9652.103
2748.425, 9659.566
2750.354, 9644.823
2752.282, 9629.249
2754.210, 9619.275
2756.139, 9640.739
2758.067, 9675.215
2759.996, 9683.402
2761.924, 9674.652
2763.853, 9664.111
2765.781, 9655.575
2767.710, 9658.887
2769.638, 9668.515
2771.567, 9672.592
2773.495, 9678.113
2775.424, 9706.309
2777.352, 9735.611
2779.281, 9721.959
2781.209, 9695.072
2783.137, 9705.004
2785.066, 9720.193
2786.994, 9695.490
2788.923, 9662.472
2790.851, 9660.863
2792.780, 9669.727
2794.708, 9670.491
2796.637, 9664.693
2798.565, 9642.457
2800.494, 9628.273
2802.422, 9657.075
2804.351, 9687.356
2806.279, 9677.725
2808.208, 9664.806
2810.136, 9671.898
2812.064, 9686.136
2813.993, 9706.485
2815.921, 9720.930
2817.850, 9722.890
2819.778, 9715.485
2821.707, 9689.398
2823.635, 9673.454
2825.564, 9679.101
2827.492, 9700.104
2829.421, 9757.918
2831.349, 9790.549
2833.278, 9761.338
2835.206, 9740.064
2837.135, 9748.408
2839.063, 9755.102
2840.991, 9744.785
2842.920, 9742.723
2844.848, 9762.699
2846.777, 9768.007
2848.705, 9749.882
2850.634, 9736.769
2852.562, 9729.382
2854.491, 9745.060
2856.419, 9805.588
2858.348, 9834.207
2860.276, 9826.357
2862.205, 9817.437
2864.133, 9809.369
2866.062, 9826.329
2867.990, 9874.784
2869.918, 9874.059
2871.847, 9824.792
2873.775, 9822.001
2875.704, 9856.954
2877.632, 9863.679
2879.561, 9848.572
2881.489, 9852.622
2883.418, 9868.543
2885.346, 9863.794
2887.275, 9850.929
2889.203, 9865.823
2891.132, 9890.507
2893.060, 9887.977
2894.989, 9877.773
2896.917, 9892.520
2898.845, 9915.303
2900.774, 9928.191
2902.702, 9937.520
2904.631, 9944.955
2906.559, 9956.832
2908.488, 9995.999
2910.416, 10015.41
2912.345, 9969.322
2914.273, 9930.694
2916.202, 9947.935
2918.130, 9965.407
2920.059, 9949.609
2921.987, 9952.370
2923.916, 9996.018
2925.844, 10028.52
2927.772, 10033.08
2929.701, 10030.11
2931.629, 10016.31
2933.558, 10011.96
2935.486, 10018.13
2937.415, 10038.72
2939.343, 10078.00
2941.272, 10093.03
2943.200, 10078.66
2945.129, 10089.36
2947.057, 10120.47
2948.986, 10122.98
2950.914, 10105.77
2952.843, 10121.67
2954.771, 10158.05
2956.699, 10178.54
2958.628, 10185.86
2960.556, 10181.89
2962.485, 10172.19
2964.413, 10149.17
2966.342, 10140.99
2968.270, 10188.37
2970.199, 10253.80
2972.127, 10330.68
2974.056, 10382.06
2975.984, 10355.33
2977.913, 10343.70
2979.841, 10405.23
2981.770, 10460.47
2983.698, 10493.42
2985.626, 10504.65
2987.555, 10470.42
2989.483, 10462.40
2991.412, 10485.83
2993.340, 10545.64
2995.269, 10649.14
2997.197, 10662.85
2999.126, 10567.41
3001.054, 10544.01
3002.983, 10586.79
3004.911, 10631.02
3006.840, 10670.00
3008.768, 10682.63
3010.697, 10675.86
3012.625, 10661.86
3014.553, 10642.25
3016.482, 10617.84
3018.410, 10590.96
3020.339, 10551.47
3022.267, 10526.71
3024.196, 10557.11
3026.124, 10579.50
3028.053, 10563.31
3029.981, 10536.90
3031.910, 10504.49
3033.838, 10477.16
3035.767, 10456.84
3037.695, 10443.27
3039.624, 10438.89
3041.552, 10421.88
3043.480, 10384.65
3045.409, 10364.63
3047.337, 10361.26
3049.266, 10368.32
3051.194, 10377.05
3053.123, 10343.20
3055.051, 10288.90
3056.980, 10267.36
3058.908, 10266.77
3060.837, 10285.51
3062.765, 10294.51
3064.694, 10245.35
3066.622, 10202.44
3068.551, 10237.33
3070.479, 10247.79
3072.407, 10166.82
3074.336, 10112.06
3076.264, 10140.80
3078.193, 10164.42
3080.121, 10172.68
3082.050, 10184.70
3083.978, 10203.36
3085.907, 10219.98
3087.835, 10234.33
3089.764, 10202.24
3091.692, 10137.82
3093.621, 10094.65
3095.549, 10067.75
3097.478, 10043.85
3099.406, 10031.95
3101.334, 10061.45
3103.263, 10087.12
3105.191, 10071.49
3107.120, 10042.92
3109.048, 10004.29
3110.977, 9980.580
3112.905, 9984.911
3114.834, 9983.169
3116.762, 9960.025
3118.691, 9953.140
3120.619, 9969.442
3122.548, 9930.514
3124.476, 9845.630
3126.405, 9859.342
3128.333, 9943.343
3130.261, 9994.094
3132.190, 10004.89
3134.118, 9928.246
3136.047, 9846.473
3137.975, 9862.651
3139.904, 9893.005
3141.832, 9881.201
3143.761, 9863.063
3145.689, 9855.450
3147.618, 9838.743
3149.546, 9796.634
3151.475, 9780.489
3153.403, 9797.449
3155.332, 9787.054
3157.260, 9744.732
3159.188, 9742.701
3161.117, 9769.854
3163.045, 9776.787
3164.974, 9765.106
3166.902, 9725.896
3168.831, 9684.752
3170.759, 9666.446
3172.688, 9664.811
3174.616, 9685.593
3176.545, 9704.473
3178.473, 9719.626
3180.402, 9712.251
3182.330, 9674.372
3184.259, 9651.202
3186.187, 9652.617
3188.115, 9626.716
3190.044, 9578.415
3191.972, 9581.200
3193.901, 9611.627
3195.829, 9620.137
3197.758, 9611.207
3199.686, 9579.990
3201.615, 9549.217
3203.543, 9539.580
3205.472, 9527.607
3207.400, 9488.894
3209.329, 9477.420
3211.257, 9509.800
3213.186, 9520.786
3215.114, 9495.718
3217.042, 9496.737
3218.971, 9518.040
3220.899, 9471.321
3222.828, 9397.010
3224.756, 9384.217
3226.685, 9405.377
3228.613, 9447.146
3230.542, 9474.895
3232.470, 9471.805
3234.399, 9439.624
3236.327, 9344.976
3238.256, 9292.692
3240.184, 9298.606
3242.113, 9320.488
3244.041, 9355.794
3245.969, 9346.623
3247.898, 9306.442
3249.826, 9298.893
3251.755, 9306.292
3253.683, 9304.935
3255.612, 9297.271
3257.540, 9278.912
3259.469, 9266.868
3261.397, 9286.927
3263.326, 9276.495
3265.254, 9205.199
3267.183, 9185.596
3269.111, 9228.450
3271.040, 9238.499
3272.968, 9219.716
3274.896, 9217.767
3276.825, 9223.961
3278.753, 9231.801
3280.682, 9225.975
3282.610, 9175.790
3284.539, 9131.403
3286.467, 9113.171
3288.396, 9109.187
3290.324, 9134.590
3292.253, 9124.181
3294.181, 9076.567
3296.110, 9061.046
3298.038, 9074.381
3299.967, 9095.838
3301.895, 9113.894
3303.823, 9101.328
3305.752, 9083.370
3307.680, 9076.964
3309.609, 9078.971
3311.537, 9097.813
3313.466, 9089.979
3315.394, 9031.973
3317.323, 9022.264
3319.251, 9063.829
3321.180, 9070.336
3323.108, 9055.033
3325.037, 9058.380
3326.965, 9065.331
3328.894, 9059.283
3330.822, 9042.957
3332.750, 9000.738
3334.679, 8983.133
3336.607, 9016.251
3338.536, 9025.490
3340.464, 9003.231
3342.393, 8992.158
3344.321, 8991.072
3346.250, 8983.176
3348.178, 8975.978
3350.107, 8981.384
3352.035, 8991.282
3353.964, 9004.354
3355.892, 9010.657
3357.821, 9008.255
3359.749, 8992.412
3361.677, 8955.368
3363.606, 8955.495
3365.534, 8980.455
3367.463, 8945.063
3369.391, 8897.886
3371.320, 8954.336
3373.248, 9014.895
3375.177, 8989.859
3377.105, 8967.384
3379.034, 8988.589
3380.962, 8999.146
3382.891, 8992.952
3384.819, 8985.315
3386.748, 8978.916
3388.676, 8999.703
3390.604, 9017.128
3392.533, 8956.183
3394.461, 8908.036
3396.390, 8981.174
3398.318, 9025.525
3400.247, 8984.370
3402.175, 8957.952
3404.104, 8959.910
3406.032, 8980.243
3407.961, 9005.264
3409.889, 8969.043
3411.818, 8921.937
3413.746, 8955.932
3415.675, 8987.322
3417.603, 8950.502
3419.531, 8930.373
3421.460, 8948.352
3423.388, 8975.426
3425.317, 9008.608
3427.245, 9039.265
3429.174, 9060.253
3431.102, 9036.385
3433.031, 9010.551
3434.959, 9035.297
3436.888, 9051.805
3438.816, 9034.279
3440.745, 9013.243
3442.673, 8992.623
3444.602, 8980.306
3446.530, 8975.789
3448.458, 8977.865
3450.387, 8982.719
3452.315, 8984.290
3454.244, 8987.949
3456.172, 9002.593
3458.101, 9004.462
3460.029, 8980.641
3461.958, 8953.244
3463.886, 8923.246
3465.815, 8886.532
3467.743, 8865.967
3469.672, 8940.704
3471.600, 9016.283
3473.529, 9002.477
3475.457, 8999.704
3477.385, 9040.739
3479.314, 9102.062
3481.242, 9181.446
3483.171, 9242.652
3485.099, 9306.494
3487.028, 9441.516
3488.956, 9613.172
3490.885, 9787.370
3492.813, 9991.516
3494.742, 10235.19
3496.670, 10499.90
3498.599, 10784.16
3500.527, 11085.28
3502.456, 11402.65
3504.384, 11718.86
3506.313, 12071.33
3508.241, 12512.12
3510.169, 12993.24
3512.098, 13524.84
3514.026, 13987.51
3515.955, 14361.33
3517.883, 14713.15
3519.812, 15004.09
3521.740, 15152.78
3523.669, 15174.39
3525.597, 15060.04
3527.526, 14863.58
3529.454, 14605.76
3531.383, 14243.57
3533.311, 13777.22
3535.240, 13307.72
3537.168, 12834.00
3539.096, 12316.45
3541.025, 11824.22
3542.953, 11428.45
3544.882, 11046.46
3546.810, 10627.10
3548.739, 10294.75
3550.667, 10053.85
3552.596, 9860.913
3554.524, 9700.472
3556.453, 9541.420
3558.381, 9404.497
3560.310, 9310.622
3562.238, 9231.711
3564.167, 9161.127
3566.095, 9105.676
3568.023, 9064.117
3569.952, 9021.174
3571.880, 8984.831
3573.809, 8976.462
3575.737, 8957.743
3577.666, 8890.370
3579.594, 8864.004
3581.523, 8897.188
3583.451, 8866.520
3585.380, 8796.267
3587.308, 8790.246
3589.237, 8800.589
3591.165, 8791.069
3593.094, 8766.317
3595.022, 8724.149
3596.950, 8693.281
3598.879, 8675.298
3600.807, 8625.702
3602.736, 8579.723
3604.664, 8624.371
3606.593, 8643.082
3608.521, 8556.392
3610.450, 8481.501
3612.378, 8447.237
3614.307, 8406.593
3616.235, 8366.050
3618.164, 8348.402
3620.092, 8338.358
3622.021, 8325.659
3623.949, 8305.425
3625.877, 8270.327
3627.806, 8257.142
3629.734, 8260.995
3631.663, 8215.464
3633.591, 8155.601
3635.520, 8137.391
3637.448, 8112.217
3639.377, 8043.474
3641.305, 8020.317
3643.234, 8052.754
3645.162, 8081.110
3647.091, 8096.800
3649.019, 8081.604
3650.948, 8050.373
3652.876, 8006.333
3654.804, 7971.993
3656.733, 7955.240
3658.661, 7924.428
3660.590, 7890.053
3662.518, 7889.972
3664.447, 7895.754
3666.375, 7880.284
3668.304, 7869.205
3670.232, 7878.255
3672.161, 7862.207
3674.089, 7829.670
3676.018, 7820.598
3677.946, 7819.875
3679.875, 7810.121
3681.803, 7802.891
3683.731, 7811.801
3685.660, 7794.679
3687.588, 7756.812
3689.517, 7732.907
3691.445, 7717.401
3693.374, 7696.794
3695.302, 7693.183
3697.231, 7742.000
3699.159, 7731.012
3701.088, 7667.882
3703.016, 7638.926
3704.945, 7634.373
3706.873, 7654.272
3708.802, 7665.634
3710.730, 7646.103
3712.658, 7640.682
3714.587, 7649.027
3716.515, 7643.383
3718.444, 7632.853
3720.372, 7641.508
3722.301, 7630.656
3724.229, 7563.726
3726.158, 7537.966
3728.086, 7553.621
3730.015, 7573.199
3731.943, 7582.384
3733.872, 7548.068
3735.800, 7518.925
3737.729, 7512.491
3739.657, 7528.290
3741.585, 7559.249
3743.514, 7551.565
3745.442, 7532.521
3747.371, 7538.739
3749.299, 7545.176
3751.228, 7550.156
3753.156, 7519.412
3755.085, 7460.954
3757.013, 7409.646
3758.942, 7385.345
3760.870, 7429.226
3762.799, 7477.958
3764.727, 7525.375
3766.656, 7503.351
3768.584, 7438.008
3770.512, 7439.012
3772.441, 7446.909
3774.369, 7390.065
3776.298, 7378.688
3778.226, 7459.003
3780.155, 7453.072
3782.083, 7396.089
3784.012, 7367.467
3785.940, 7362.126
3787.869, 7383.465
3789.797, 7405.082
3791.726, 7423.036
3793.654, 7409.722
3795.583, 7383.262
3797.511, 7359.539
3799.439, 7370.159
3801.368, 7445.377
3803.296, 7438.747
3805.225, 7351.109
3807.153, 7334.184
3809.082, 7343.980
3811.010, 7320.616
3812.939, 7339.239
3814.867, 7428.196
3816.796, 7389.861
3818.724, 7269.501
3820.653, 7238.619
3822.581, 7247.338
3824.510, 7277.586
3826.438, 7302.643
3828.366, 7317.532
3830.295, 7278.164
3832.223, 7230.604
3834.152, 7274.306
3836.080, 7310.104
3838.009, 7285.869
3839.937, 7264.786
3841.866, 7249.080
3843.794, 7229.002
3845.723, 7215.906
3847.651, 7224.072
3849.580, 7225.176
3851.508, 7221.187
3853.437, 7188.272
3855.365, 7150.251
3857.293, 7166.256
3859.222, 7185.430
3861.150, 7191.677
3863.079, 7146.511
3865.007, 7065.489
3866.936, 7075.407
3868.864, 7104.884
3870.793, 7076.285
3872.721, 7053.645
3874.650, 7049.664
3876.578, 7072.623
3878.507, 7101.754
3880.435, 7096.076
3882.364, 7072.372
3884.292, 7034.897
3886.220, 7011.246
3888.149, 7002.316
3890.077, 7000.021
3892.006, 6996.669
3893.934, 6992.957
3895.863, 6960.020
3897.791, 6895.330
3899.720, 6887.084
3901.648, 6909.859
3903.577, 6927.893
3905.505, 6927.301
3907.434, 6899.844
3909.362, 6856.340
3911.291, 6810.999
3913.219, 6818.789
3915.147, 6835.035
3917.076, 6832.030
3919.004, 6810.794
3920.933, 6778.283
3922.861, 6785.242
3924.790, 6800.459
3926.718, 6791.088
3928.647, 6770.174
3930.575, 6742.065
3932.504, 6735.800
3934.432, 6738.643
3936.361, 6741.586
3938.289, 6730.061
3940.218, 6696.188
3942.146, 6688.896
3944.074, 6705.521
3946.003, 6668.280
3947.931, 6627.504
3949.860, 6631.190
3951.788, 6630.033
3953.717, 6630.798
3955.645, 6626.828
3957.574, 6615.534
3959.502, 6612.547
3961.431, 6590.817
3963.359, 6547.713
3965.288, 6554.012
3967.216, 6575.650
3969.145, 6560.263
3971.073, 6548.621
3973.001, 6549.867
3974.930, 6519.361
3976.858, 6493.203
3978.787, 6480.940
3980.715, 6465.627
3982.644, 6485.124
3984.572, 6505.319
3986.501, 6496.675
3988.429, 6456.819
3990.358, 6443.447
3992.286, 6473.074
3994.215, 6464.630
3996.143, 6447.162
3998.072, 6430.649
4000.000, 6389.780
4001.928, 6377.238
4003.857, 6391.507
4005.785, 6405.247
4007.714, 6371.373
4009.642, 6334.286
4011.571, 6345.897
4013.499, 6349.586
4015.428, 6309.704
4017.356, 6296.730
4019.285, 6319.098
4021.213, 6344.974
4023.142, 6334.890
4025.070, 6307.236
4026.999, 6282.929
4028.927, 6271.044
4030.855, 6262.348
4032.784, 6247.511
4034.712, 6246.456
4036.641, 6215.635
4038.569, 6179.450
4040.498, 6187.957
4042.426, 6205.080
4044.355, 6200.374
4046.283, 6162.801
4048.212, 6142.684
4050.140, 6165.675
4052.069, 6189.753
4053.997, 6184.594
4055.926, 6141.542
4057.854, 6107.136
4059.782, 6094.622
4061.711, 6073.124
4063.639, 6054.168
4065.568, 6077.632
4067.496, 6112.618
4069.425, 6102.425
4071.353, 6093.852
4073.282, 6096.495
4075.210, 6071.445
4077.139, 6057.112
4079.067, 6074.142
4080.996, 6069.608
4082.924, 6054.361
4084.853, 6015.192
4086.781, 5979.694
4088.709, 5985.548
4090.638, 5979.942
4092.566, 5962.283
4094.495, 5986.231
4096.423, 6007.738
4098.352, 5989.599
4100.280, 5967.786
4102.208, 5948.491
4104.137, 5930.764
4106.065, 5930.753
4107.994, 5964.989
4109.922, 5964.517
4111.851, 5926.884
4113.779, 5908.518
4115.708, 5891.663
4117.636, 5848.119
4119.565, 5827.966
4121.493, 5838.937
4123.422, 5887.000
4125.350, 5926.779
4127.279, 5895.051
4129.207, 5872.441
4131.136, 5870.571
4133.064, 5836.775
4134.993, 5798.927
4136.921, 5770.940
4138.850, 5786.462
4140.778, 5854.838
4142.707, 5848.419
4144.635, 5811.478
4146.563, 5799.623
4148.492, 5809.911
4150.420, 5835.873
4152.349, 5801.894
4154.277, 5753.465
4156.206, 5762.779
4158.134, 5767.917
4160.063, 5749.301
4161.991, 5739.118
4163.919, 5737.389
4165.848, 5715.397
4167.776, 5706.041
4169.705, 5720.655
4171.633, 5712.144
4173.562, 5698.288
4175.490, 5719.608
4177.419, 5713.314
4179.347, 5668.184
4181.276, 5659.042
4183.204, 5666.354
4185.133, 5679.438
4187.061, 5675.078
4188.990, 5651.313
4190.918, 5678.697
4192.847, 5706.469
4194.775, 5653.997
4196.704, 5629.600
4198.632, 5659.169
4200.561, 5639.656
4202.489, 5608.653
4204.417, 5611.515
4206.346, 5602.500
4208.274, 5576.520
4210.203, 5567.454
4212.131, 5575.429
4214.060, 5588.066
4215.988, 5602.424
4217.917, 5625.390
4219.845, 5663.097
4221.773, 5684.443
4223.702, 5643.671
4225.630, 5596.138
4227.559, 5554.183
4229.487, 5529.090
4231.416, 5530.732
4233.344, 5599.479
4235.273, 5572.729
4237.201, 5619.205
4239.130, 5643.582
4241.058, 5647.049
4242.987, 5566.973
4244.915, 5594.775
4246.844, 5579.343
4248.772, 5562.141
4250.701, 5605.125
4252.629, 5537.201
4254.558, 5579.230
4256.486, 5577.371
4258.415, 5595.596
4260.343, 5597.729
4262.271, 5623.786
4264.200, 5613.002
4266.128, 5603.295
4268.057, 5679.009
4269.985, 5690.414
4271.914, 5607.730
4273.842, 5596.458
4275.771, 5618.694
4277.699, 5663.020
4279.627, 5639.665
4281.556, 5560.667
4283.484, 5582.354
4285.413, 5628.374
4287.341, 5665.498
4289.270, 5633.204
4291.198, 5564.213
4293.127, 5576.488
4295.055, 5592.347
4296.984, 5578.953
4298.912, 5539.589
4300.841, 5503.881
4302.769, 5539.309
4304.698, 5568.291
4306.626, 5571.521
4308.555, 5575.279
4310.483, 5576.886
4312.412, 5573.151
4314.340, 5566.400
4316.269, 5557.694
4318.197, 5552.024
4320.125, 5548.143
4322.054, 5546.098
4323.982, 5536.486
4325.911, 5529.517
4327.839, 5565.332
4329.768, 5589.101
4331.696, 5583.594
4333.625, 5555.050
4335.553, 5523.966
4337.481, 5512.820
4339.410, 5515.245
4341.338, 5527.113
4343.267, 5534.474
4345.195, 5535.340
4347.124, 5525.792
4349.052, 5530.227
4350.981, 5544.186
4352.909, 5554.733
4354.838, 5553.421
4356.766, 5537.480
4358.695, 5528.428
4360.623, 5525.377
4362.552, 5527.644
4364.480, 5529.593
4366.409, 5529.280
4368.337, 5527.812
4370.266, 5509.537
4372.194, 5434.454
4374.123, 5456.328
4376.051, 5523.799
4377.979, 5491.813
4379.908, 5480.460
4381.836, 5533.001
4383.765, 5492.890
4385.693, 5442.903
4387.622, 5471.327
4389.550, 5498.214
4391.479, 5511.939
4393.407, 5507.930
4395.335, 5479.317
4397.264, 5419.416
4399.192, 5419.440
4401.121, 5441.491
4403.049, 5416.260
4404.978, 5428.179
4406.906, 5478.102
4408.835, 5499.000
4410.763, 5491.150
4412.692, 5446.594
4414.620, 5445.118
4416.549, 5461.912
4418.477, 5438.763
4420.406, 5416.416
4422.334, 5404.821
4424.263, 5386.815
4426.191, 5387.194
4428.120, 5443.859
4430.048, 5452.614
4431.977, 5426.040
4433.905, 5405.795
4435.833, 5385.414
4437.762, 5363.978
4439.690, 5401.694
4441.619, 5433.776
4443.547, 5398.150
4445.476, 5406.126
4447.404, 5440.622
4449.333, 5423.373
4451.261, 5406.927
4453.189, 5407.475
4455.118, 5432.571
4457.046, 5450.162
4458.975, 5423.761
4460.903, 5392.807
4462.832, 5374.054
4464.760, 5432.783
4466.689, 5448.876
4468.617, 5383.685
4470.546, 5388.778
4472.474, 5398.915
4474.403, 5352.472
4476.331, 5384.934
4478.260, 5457.371
4480.188, 5462.736
4482.117, 5418.933
4484.045, 5342.877
4485.974, 5354.395
4487.902, 5394.788
4489.831, 5436.076
4491.759, 5407.570
4493.688, 5352.331
4495.616, 5364.421
4497.544, 5378.075
4499.473, 5379.543
4501.401, 5342.900
4503.330, 5327.763
4505.258, 5367.247
4507.187, 5392.565
4509.115, 5396.414
4511.043, 5367.324
4512.972, 5341.939
4514.900, 5328.635
4516.829, 5344.432
4518.757, 5351.714
4520.686, 5329.884
4522.614, 5336.251
4524.543, 5354.321
4526.471, 5374.440
4528.400, 5366.186
4530.328, 5345.388
4532.257, 5359.120
4534.185, 5370.479
4536.114, 5369.653
4538.042, 5334.171
4539.971, 5321.548
4541.899, 5388.768
4543.828, 5387.102
4545.756, 5354.809
4547.685, 5353.277
4549.613, 5326.527
4551.542, 5281.790
4553.470, 5265.326
4555.398, 5294.159
4557.327, 5364.068
4559.255, 5338.169
4561.184, 5305.753
4563.112, 5350.161
4565.041, 5352.604
4566.969, 5330.968
4568.897, 5325.781
4570.826, 5309.803
4572.754, 5285.190
4574.683, 5279.106
4576.611, 5298.259
4578.540, 5340.763
4580.468, 5331.705
4582.397, 5289.507
4584.325, 5210.845
4586.254, 5209.923
4588.182, 5246.516
4590.111, 5233.870
4592.039, 5257.775
4593.968, 5313.026
4595.896, 5323.580
4597.825, 5305.701
4599.753, 5268.305
4601.682, 5243.316
4603.610, 5235.406
4605.539, 5253.270
4607.467, 5255.662
4609.396, 5255.367
4611.324, 5278.118
4613.252, 5281.767
4615.181, 5270.590
4617.109, 5271.993
4619.038, 5280.192
4620.966, 5287.686
4622.895, 5239.901
4624.823, 5206.744
4626.751, 5236.228
4628.680, 5251.340
4630.608, 5258.506
4632.537, 5262.464
4634.465, 5268.410
4636.394, 5275.118
4638.322, 5280.113
4640.251, 5286.180
4642.179, 5288.215
4644.108, 5261.460
4646.036, 5236.622
4647.965, 5223.678
4649.893, 5232.225
4651.822, 5270.646
4653.750, 5345.707
4655.679, 5313.398
4657.607, 5247.304
4659.536, 5220.530
4661.464, 5219.723
4663.393, 5237.668
4665.321, 5277.703
4667.250, 5276.503
4669.178, 5240.347
4671.106, 5216.104
4673.035, 5206.433
4674.963, 5210.247
4676.892, 5218.665
4678.820, 5223.287
4680.749, 5221.298
4682.677, 5185.228
4684.605, 5167.077
4686.534, 5208.262
4688.462, 5211.275
4690.391, 5197.344
4692.319, 5209.412
4694.248, 5182.604
4696.176, 5142.386
4698.105, 5155.062
4700.033, 5182.996
4701.962, 5211.606
4703.890, 5220.419
4705.819, 5201.844
4707.747, 5158.828
4709.676, 5134.276
4711.604, 5133.813
4713.533, 5160.111
4715.461, 5181.023
4717.390, 5204.609
4719.318, 5240.389
4721.247, 5212.918
4723.175, 5161.267
4725.104, 5115.570
4727.032, 5137.063
4728.960, 5187.729
4730.889, 5215.940
4732.817, 5204.478
4734.746, 5169.298
4736.674, 5137.967
4738.603, 5139.275
4740.531, 5165.569
4742.459, 5173.800
4744.388, 5147.415
4746.316, 5098.245
4748.245, 5120.613
4750.173, 5133.362
4752.102, 5103.135
4754.030, 5098.198
4755.959, 5113.944
4757.887, 5147.405
4759.816, 5126.549
4761.744, 5101.322
4763.673, 5116.566
4765.601, 5122.905
4767.530, 5116.397
4769.458, 5087.571
4771.387, 5112.618
4773.315, 5152.038
4775.244, 5152.669
4777.172, 5119.000
4779.101, 5075.867
4781.029, 5066.966
4782.958, 5058.405
4784.886, 5055.136
4786.814, 5099.708
4788.743, 5086.464
4790.671, 5032.720
4792.600, 5087.111
4794.528, 5092.074
4796.457, 5039.037
4798.385, 5065.006
4800.313, 5085.818
4802.242, 5078.052
4804.170, 5071.672
4806.099, 5046.280
4808.027, 4999.859
4809.956, 4993.454
4811.884, 4998.523
4813.813, 5001.844
4815.741, 5025.564
4817.670, 5039.837
4819.598, 5029.516
4821.527, 5020.901
4823.455, 5033.874
4825.384, 5088.210
4827.312, 5083.740
4829.241, 5038.560
4831.169, 4962.142
4833.098, 4971.194
4835.026, 5004.431
4836.955, 5003.582
4838.883, 5013.103
4840.812, 5015.532
4842.740, 4990.810
4844.668, 4985.594
4846.597, 4981.548
4848.525, 4944.538
4850.454, 4947.278
4852.382, 4969.588
4854.311, 4984.823
4856.239, 5004.521
4858.167, 5018.737
4860.096, 5011.860
4862.024, 4999.492
4863.953, 4987.534
4865.881, 4984.520
4867.810, 4966.749
4869.738, 4943.134
4871.667, 4926.175
4873.595, 4936.624
4875.524, 4946.453
4877.452, 4891.419
4879.381, 4943.925
4881.309, 5021.495
4883.238, 4926.130
4885.166, 4901.264
4887.095, 4922.316
4889.023, 4910.439
4890.952, 4906.542
4892.880, 4912.296
4894.809, 4923.876
4896.737, 4939.314
4898.666, 4948.229
4900.594, 4931.322
4902.522, 4909.355
4904.451, 4897.180
4906.379, 4924.886
4908.308, 4885.841
4910.236, 4841.254
4912.165, 4921.192
4914.093, 4950.951
4916.021, 4933.601
4917.950, 4891.401
4919.878, 4853.351
4921.807, 4826.243
4923.735, 4813.402
4925.664, 4819.977
4927.592, 4835.635
4929.521, 4848.823
4931.449, 4861.989
4933.378, 4865.229
4935.306, 4843.218
4937.235, 4836.538
4939.163, 4838.993
4941.092, 4841.800
4943.020, 4852.531
4944.949, 4850.250
4946.877, 4813.506
4948.806, 4826.117
4950.734, 4849.917
4952.663, 4850.701
4954.591, 4826.611
4956.520, 4801.502
4958.448, 4790.678
4960.376, 4780.201
4962.305, 4783.773
4964.233, 4810.053
4966.162, 4793.021
4968.090, 4782.195
4970.019, 4803.023
4971.947, 4807.402
4973.875, 4819.694
4975.804, 4839.811
4977.732, 4772.546
4979.661, 4731.020
4981.589, 4747.406
4983.518, 4742.650
4985.446, 4741.813
4987.375, 4753.683
4989.303, 4794.730
4991.232, 4812.102
4993.160, 4799.262
4995.089, 4758.928
4997.017, 4756.707
4998.946, 4775.321
5000.874, 4745.352
5002.803, 4735.764
5004.731, 4742.663
5006.660, 4750.848
5008.588, 4715.639
5010.517, 4695.996
5012.445, 4788.614
5014.374, 4747.667
5016.302, 4683.014
5018.230, 4712.461
5020.159, 4740.016
5022.087, 4735.284
5024.016, 4667.793
5025.944, 4687.435
5027.873, 4702.904
5029.801, 4675.961
5031.729, 4675.743
5033.658, 4674.248
5035.586, 4662.194
5037.515, 4654.163
5039.443, 4650.443
5041.372, 4650.750
5043.300, 4656.101
5045.229, 4649.368
5047.157, 4647.084
5049.086, 4723.365
5051.014, 4665.426
5052.943, 4570.079
5054.871, 4630.591
5056.800, 4647.924
5058.728, 4641.160
5060.657, 4643.250
5062.585, 4645.960
5064.514, 4619.649
5066.442, 4537.425
5068.371, 4593.701
5070.299, 4644.805
5072.228, 4631.021
5074.156, 4607.351
5076.084, 4606.561
5078.013, 4624.202
5079.941, 4608.972
5081.870, 4601.061
5083.798, 4595.538
5085.727, 4544.567
5087.655, 4578.215
5089.583, 4634.044
5091.512, 4612.748
5093.440, 4588.862
5095.369, 4561.365
5097.297, 4517.726
5099.226, 4528.488
5101.154, 4544.660
5103.083, 4542.199
5105.011, 4528.293
5106.940, 4485.497
5108.868, 4441.563
5110.797, 4545.194
5112.725, 4582.278
5114.654, 4552.556
5116.582, 4543.153
5118.511, 4509.938
5120.439, 4488.941
5122.368, 4528.050
5124.296, 4541.206
5126.225, 4522.425
5128.153, 4469.551
5130.082, 4495.099
5132.010, 4515.626
5133.938, 4503.129
5135.867, 4495.160
5137.795, 4486.454
5139.724, 4479.924
5141.652, 4484.955
5143.581, 4504.270
5145.509, 4510.607
5147.438, 4452.829
5149.366, 4476.621
5151.294, 4490.684
5153.223, 4437.846
5155.151, 4469.476
5157.080, 4487.308
5159.008, 4461.913
5160.937, 4456.657
5162.865, 4460.406
5164.794, 4468.035
5166.722, 4476.458
5168.651, 4480.793
5170.579, 4469.214
5172.508, 4429.083
5174.436, 4416.280
5176.365, 4409.131
5178.293, 4393.937
5180.222, 4380.978
5182.150, 4383.257
5184.079, 4400.678
5186.007, 4426.966
5187.936, 4425.520
5189.864, 4419.072
5191.792, 4453.690
5193.721, 4439.920
5195.649, 4412.825
5197.578, 4398.412
5199.506, 4419.081
5201.435, 4404.753
5203.363, 4358.578
5205.292, 4397.886
5207.220, 4375.132
5209.148, 4328.666
5211.077, 4360.868
5213.005, 4384.892
5214.934, 4376.188
5216.862, 4322.306
5218.791, 4348.299
5220.719, 4353.081
5222.648, 4324.617
5224.576, 4362.243
5226.505, 4352.662
5228.433, 4326.207
5230.362, 4368.241
5232.290, 4368.993
5234.219, 4332.584
5236.147, 4271.836
5238.076, 4292.159
5240.004, 4302.739
5241.933, 4288.354
5243.861, 4290.468
5245.790, 4299.606
5247.718, 4311.802
5249.646, 4328.034
5251.575, 4323.131
5253.503, 4296.479
5255.432, 4256.571
5257.360, 4267.467
5259.289, 4255.593
5261.217, 4231.904
5263.146, 4258.344
5265.074, 4299.563
5267.002, 4312.018
5268.931, 4256.849
5270.859, 4294.685
5272.788, 4305.648
5274.716, 4269.931
5276.645, 4282.213
5278.573, 4252.503
5280.502, 4220.128
5282.430, 4258.486
5284.359, 4261.445
5286.287, 4246.469
5288.216, 4227.042
5290.144, 4222.482
5292.073, 4233.239
5294.001, 4246.704
5295.930, 4242.244
5297.858, 4224.954
5299.787, 4212.760
5301.715, 4217.044
5303.644, 4226.262
5305.572, 4221.360
5307.500, 4204.007
5309.429, 4189.201
5311.357, 4187.038
5313.286, 4189.760
5315.214, 4190.056
5317.143, 4190.038
5319.071, 4187.862
5321.000, 4182.302
5322.928, 4169.335
5324.856, 4158.132
5326.785, 4164.123
5328.713, 4200.388
5330.642, 4208.570
5332.570, 4180.869
5334.499, 4141.074
5336.427, 4181.036
5338.356, 4181.649
5340.284, 4156.562
5342.213, 4131.841
5344.141, 4126.100
5346.070, 4120.323
5347.998, 4109.121
5349.927, 4096.486
5351.855, 4106.769
5353.784, 4127.045
5355.712, 4141.035
5357.641, 4131.453
5359.569, 4122.548
5361.498, 4117.830
5363.426, 4089.796
5365.354, 4086.028
5367.283, 4096.743
5369.211, 4107.490
5371.140, 4119.676
5373.068, 4123.674
5374.997, 4123.345
5376.925, 4140.934
5378.854, 4137.853
5380.782, 4109.038
5382.710, 4053.164
5384.639, 4068.891
5386.567, 4081.034
5388.496, 4073.493
5390.424, 4057.397
5392.353, 4039.441
5394.281, 4049.139
5396.210, 4091.149
5398.138, 4088.879
5400.067, 4054.166
5401.995, 4020.260
5403.924, 4034.182
5405.852, 4052.035
5407.781, 4051.547
5409.709, 4028.732
5411.638, 3999.128
5413.566, 4014.764
5415.495, 4046.990
5417.423, 4059.687
5419.352, 4042.685
5421.280, 4025.246
5423.208, 4020.792
5425.137, 4047.953
5427.065, 4029.232
5428.994, 4003.865
5430.922, 3998.548
5432.851, 3984.339
5434.779, 3978.647
5436.708, 3987.479
5438.636, 4013.769
5440.564, 3978.741
5442.493, 3961.018
5444.421, 3979.970
5446.350, 3988.618
5448.278, 3987.945
5450.207, 3966.802
5452.135, 3918.609
5454.064, 3943.048
5455.992, 3957.236
5457.921, 3950.626
5459.849, 3938.925
5461.778, 3930.322
5463.706, 3922.531
5465.635, 3918.178
5467.563, 3936.693
5469.492, 3927.509
5471.420, 3914.573
5473.349, 3919.594
5475.277, 3928.451
5477.206, 3891.838
5479.134, 3842.825
5481.063, 3842.056
5482.991, 3880.758
5484.919, 3896.245
5486.848, 3880.542
5488.776, 3875.665
5490.705, 3867.735
5492.633, 3853.335
5494.562, 3837.528
5496.490, 3872.329
5498.418, 3899.197
5500.347, 3906.470
5502.275, 3892.422
5504.204, 3891.742
5506.132, 3884.163
5508.061, 3873.451
5509.989, 3877.706
5511.918, 3862.945
5513.846, 3833.480
5515.775, 3803.717
5517.703, 3808.654
5519.632, 3819.910
5521.560, 3837.392
5523.489, 3860.086
5525.417, 3854.701
5527.346, 3822.116
5529.274, 3797.366
5531.203, 3814.665
5533.131, 3799.689
5535.060, 3791.589
5536.988, 3786.925
5538.917, 3763.516
5540.845, 3772.377
5542.773, 3754.457
5544.702, 3719.099
5546.630, 3758.548
5548.559, 3789.770
5550.487, 3802.672
5552.416, 3794.339
5554.344, 3744.424
5556.272, 3766.722
5558.201, 3768.247
5560.129, 3695.583
5562.058, 3764.511
5563.986, 3777.215
5565.915, 3751.877
5567.843, 3740.159
5569.772, 3709.308
5571.700, 3709.689
5573.629, 3736.202
5575.557, 3770.363
5577.486, 3747.215
5579.414, 3694.562
5581.343, 3657.272
5583.271, 3708.107
5585.200, 3683.471
5587.128, 3689.567
5589.057, 3723.284
5590.985, 3686.945
5592.914, 3638.516
5594.842, 3665.325
5596.771, 3736.698
5598.699, 3656.731
5600.627, 3662.471
5602.556, 3675.701
5604.484, 3654.140
5606.413, 3647.488
5608.341, 3701.938
5610.270, 3713.245
5612.198, 3642.264
5614.126, 3631.427
5616.055, 3630.898
5617.983, 3628.525
5619.912, 3624.489
5621.840, 3644.935
5623.769, 3636.771
5625.697, 3607.724
5627.626, 3577.238
5629.554, 3581.279
5631.483, 3608.122
5633.411, 3619.304
5635.340, 3593.336
5637.268, 3613.865
5639.197, 3608.616
5641.125, 3586.708
5643.054, 3568.068
5644.982, 3516.225
5646.911, 3555.865
5648.839, 3616.965
5650.768, 3613.972
5652.696, 3566.646
5654.625, 3523.421
5656.553, 3511.856
5658.481, 3542.094
5660.410, 3584.509
5662.338, 3579.572
5664.267, 3557.317
5666.195, 3553.402
5668.124, 3578.440
5670.052, 3534.331
5671.980, 3502.508
5673.909, 3556.934
5675.837, 3536.170
5677.766, 3519.898
5679.694, 3524.764
5681.623, 3545.019
5683.551, 3510.102
5685.480, 3519.120
5687.408, 3546.632
5689.337, 3554.674
5691.265, 3509.150
5693.194, 3491.383
5695.122, 3482.084
5697.051, 3464.609
5698.979, 3466.368
5700.908, 3435.392
5702.836, 3453.063
5704.765, 3525.375
5706.693, 3450.802
5708.622, 3490.615
5710.550, 3498.448
5712.479, 3440.119
5714.407, 3492.898
5716.335, 3470.453
5718.264, 3473.781
5720.192, 3512.346
5722.121, 3500.192
5724.049, 3461.079
5725.978, 3463.335
5727.906, 3471.026
5729.834, 3395.219
5731.763, 3422.133
5733.691, 3435.120
5735.620, 3419.115
5737.548, 3403.336
5739.477, 3404.525
5741.405, 3450.066
5743.334, 3461.546
5745.262, 3380.115
5747.191, 3393.389
5749.119, 3425.172
5751.048, 3427.419
5752.976, 3385.558
5754.905, 3329.871
5756.833, 3370.455
5758.762, 3363.855
5760.690, 3289.329
5762.619, 3339.166
5764.547, 3344.047
5766.476, 3335.690
5768.404, 3344.456
5770.333, 3388.071
5772.261, 3333.969
5774.189, 3339.256
5776.118, 3380.536
5778.046, 3376.806
5779.975, 3349.869
5781.903, 3351.238
5783.832, 3346.872
5785.760, 3314.503
5787.688, 3332.324
5789.617, 3321.996
5791.545, 3309.806
5793.474, 3305.926
5795.402, 3266.403
5797.331, 3295.832
5799.259, 3331.370
5801.188, 3336.015
5803.116, 3282.366
5805.045, 3316.755
5806.973, 3308.888
5808.902, 3285.928
5810.830, 3299.681
5812.759, 3233.439
5814.687, 3271.312
5816.616, 3305.437
5818.544, 3276.527
5820.473, 3264.491
5822.401, 3250.061
5824.330, 3244.813
5826.258, 3254.071
5828.187, 3276.017
5830.115, 3271.449
5832.043, 3265.692
5833.972, 3259.404
5835.900, 3249.865
5837.829, 3256.923
5839.757, 3233.632
5841.686, 3208.512
5843.614, 3213.114
5845.542, 3299.382
5847.471, 3228.761
5849.399, 3181.713
5851.328, 3197.182
5853.256, 3242.884
5855.185, 3193.405
5857.113, 3205.341
5859.042, 3225.166
5860.970, 3205.775
5862.899, 3150.854
5864.827, 3175.776
5866.756, 3204.938
5868.684, 3215.338
5870.613, 3218.052
5872.541, 3196.049
5874.470, 3193.187
5876.398, 3199.941
5878.327, 3198.457
5880.255, 3174.007
5882.184, 3157.706
5884.112, 3186.170
5886.041, 3214.174
5887.969, 3174.004
5889.897, 3183.831
5891.826, 3169.362
5893.754, 3163.713
5895.683, 3178.570
5897.611, 3140.437
5899.540, 3160.159
5901.468, 3159.762
5903.396, 3147.867
5905.325, 3168.608
5907.253, 3139.621
5909.182, 3158.434
5911.110, 3170.449
5913.039, 3141.039
5914.967, 3085.324
5916.896, 3109.214
5918.824, 3126.204
5920.753, 3114.783
5922.681, 3089.226
5924.610, 3094.251
5926.538, 3146.008
5928.467, 3151.074
5930.395, 3101.677
5932.324, 3063.223
5934.252, 3081.093
5936.181, 3094.040
5938.109, 3092.108
5940.038, 3085.479
5941.966, 3096.065
5943.895, 3122.399
5945.823, 3119.045
5947.751, 3092.319
5949.680, 3067.753
5951.608, 3033.751
5953.537, 3051.537
5955.465, 3116.568
5957.394, 3156.160
5959.322, 3061.899
5961.250, 3073.824
5963.179, 3054.936
5965.107, 3027.936
5967.036, 3035.941
5968.964, 3090.483
5970.893, 3059.159
5972.821, 3055.578
5974.750, 3061.895
5976.678, 3041.350
5978.607, 3072.151
5980.535, 3041.159
5982.464, 3004.990
5984.392, 3002.045
5986.321, 3034.568
5988.249, 3032.722
5990.178, 2999.526
5992.106, 2992.043
5994.035, 3020.760
5995.963, 3052.147
5997.892, 3035.270
5999.820, 3012.487
6001.749, 3016.107
6003.677, 3034.579
6005.605, 3015.479
6007.534, 2959.397
6009.462, 2949.083
6011.391, 2964.445
6013.319, 2974.469
6015.248, 2974.154
6017.176, 2929.988
6019.104, 2940.851
6021.033, 2979.118
6022.961, 2999.002
6024.890, 3002.163
6026.818, 2941.563
6028.747, 2942.501
6030.675, 2945.972
6032.604, 2896.078
6034.532, 2951.060
6036.461, 2931.670
6038.389, 2944.729
6040.318, 2971.216
6042.246, 2960.195
6044.175, 2951.064
6046.103, 2911.686
6048.032, 2936.357
6049.960, 2974.219
6051.889, 2958.931
6053.817, 2999.531
6055.746, 2965.528
6057.674, 2944.522
6059.603, 2948.662
6061.531, 2949.674
6063.459, 2920.088
6065.388, 2973.963
6067.316, 2966.512
6069.245, 2936.316
6071.173, 2954.765
6073.102, 2932.213
6075.030, 2905.302
6076.958, 2885.930
6078.887, 2861.103
6080.815, 2830.684
6082.744, 2858.020
6084.672, 2899.512
6086.601, 2858.777
6088.529, 2817.879
6090.458, 2841.978
6092.386, 2858.052
6094.315, 2838.189
6096.243, 2852.868
6098.172, 2838.595
6100.100, 2800.808
6102.029, 2906.775
6103.957, 2832.785
6105.886, 2829.447
6107.814, 2852.574
6109.743, 2852.553
6111.671, 2852.527
6113.600, 2823.165
6115.528, 2795.318
6117.457, 2793.756
6119.385, 2820.355
6121.313, 2855.754
6123.242, 2829.473
6125.170, 2825.359
6127.099, 2818.157
6129.027, 2804.383
6130.956, 2798.074
6132.884, 2809.068
6134.813, 2841.752
6136.741, 2826.049
6138.669, 2786.770
6140.598, 2760.520
6142.526, 2744.610
6144.455, 2807.587
6146.383, 2797.178
6148.312, 2778.998
6150.240, 2786.476
6152.169, 2776.553
6154.097, 2768.979
6156.026, 2734.088
6157.954, 2725.441
6159.883, 2757.435
6161.811, 2796.075
6163.740, 2749.439
6165.668, 2743.448
6167.597, 2738.053
6169.525, 2761.190
6171.454, 2794.359
6173.382, 2733.619
6175.311, 2755.701
6177.239, 2744.417
6179.167, 2734.119
6181.096, 2733.039
6183.024, 2718.575
6184.953, 2727.549
6186.881, 2690.869
6188.810, 2726.577
6190.738, 2741.988
6192.667, 2688.442
6194.595, 2721.117
6196.523, 2721.697
6198.452, 2698.046
6200.380, 2703.720
6202.309, 2722.206
6204.237, 2701.116
6206.166, 2657.948
6208.094, 2684.662
6210.023, 2701.256
6211.951, 2712.898
6213.880, 2717.985
6215.808, 2654.259
6217.737, 2625.003
6219.665, 2660.108
6221.594, 2647.395
6223.522, 2614.259
6225.451, 2634.062
6227.379, 2647.104
6229.308, 2697.329
6231.236, 2652.435
6233.165, 2668.758
6235.093, 2728.198
6237.021, 2644.476
6238.950, 2640.000
6240.878, 2647.856
6242.807, 2635.819
6244.735, 2639.478
6246.664, 2660.260
6248.592, 2631.423
6250.521, 2630.373
6252.449, 2607.349
6254.377, 2599.485
6256.306, 2599.476
6258.234, 2589.924
6260.163, 2589.285
6262.091, 2539.558
6264.020, 2536.887
6265.948, 2539.547
6267.877, 2551.024
6269.805, 2584.382
6271.734, 2558.336
6273.662, 2616.718
6275.591, 2588.812
6277.519, 2577.240
6279.448, 2591.451
6281.376, 2562.903
6283.305, 2582.815
6285.233, 2538.177
6287.162, 2564.098
6289.090, 2560.107
6291.019, 2530.216
6292.947, 2570.359
6294.875, 2553.780
6296.804, 2553.808
6298.732, 2526.104
6300.661, 2518.063
6302.589, 2534.358
6304.518, 2534.978
6306.446, 2544.708
6308.375, 2583.565
6310.303, 2569.989
6312.231, 2567.635
6314.160, 2565.714
6316.088, 2445.826
6318.017, 2497.078
6319.945, 2526.231
6321.874, 2534.473
6323.802, 2459.173
6325.731, 2491.750
6327.659, 2481.095
6329.588, 2468.667
6331.516, 2516.427
6333.445, 2453.278
6335.373, 2500.084
6337.302, 2502.998
6339.230, 2526.000
6341.159, 2494.035
6343.087, 2460.960
6345.016, 2470.425
6346.944, 2463.572
6348.873, 2463.591
6350.801, 2490.593
6352.729, 2487.509
6354.658, 2476.731
6356.586, 2462.099
6358.515, 2473.938
6360.443, 2486.587
6362.372, 2466.537
6364.300, 2415.004
6366.229, 2473.344
6368.157, 2431.235
6370.085, 2441.011
6372.014, 2458.455
6373.942, 2445.284
6375.871, 2426.403
6377.799, 2442.235
6379.728, 2411.520
6381.656, 2428.120
6383.585, 2417.699
6385.513, 2421.609
6387.442, 2447.720
6389.370, 2403.308
6391.299, 2469.987
6393.227, 2441.386
6395.156, 2413.653
6397.084, 2420.275
6399.013, 2424.602
6400.941, 2394.857
6402.870, 2387.208
6404.798, 2352.917
6406.727, 2387.731
6408.655, 2400.798
6410.583, 2398.809
6412.512, 2390.014
6414.440, 2341.548
6416.369, 2350.112
6418.297, 2347.914
6420.226, 2359.478
6422.154, 2373.523
6424.083, 2367.044
6426.011, 2354.140
6427.939, 2391.522
6429.868, 2360.882
6431.796, 2327.061
6433.725, 2347.513
6435.653, 2396.664
6437.582, 2413.380
6439.510, 2378.004
6441.439, 2386.873
6443.367, 2381.031
6445.296, 2386.106
6447.224, 2343.770
6449.153, 2322.611
6451.081, 2339.961
6453.010, 2337.702
6454.938, 2314.446
6456.867, 2327.613
6458.795, 2365.012
6460.724, 2328.158
6462.652, 2293.756
6464.581, 2302.087
6466.509, 2298.778
6468.438, 2281.276
6470.366, 2305.141
6472.294, 2293.913
6474.223, 2312.531
6476.151, 2327.765
6478.080, 2329.196
6480.008, 2341.335
6481.937, 2255.476
6483.865, 2323.662
6485.793, 2299.017
6487.722, 2282.826
6489.650, 2294.135
6491.579, 2304.986
6493.507, 2304.488
6495.436, 2293.599
6497.364, 2215.041
6499.293, 2270.582
6501.221, 2298.625
6503.150, 2260.175
6505.078, 2239.929
6507.007, 2274.312
6508.935, 2252.776
6510.864, 2228.900
6512.792, 2221.180
6514.721, 2225.194
6516.649, 2230.407
6518.578, 2242.723
6520.506, 2269.609
6522.435, 2295.979
6524.363, 2269.266
6526.292, 2242.938
6528.220, 2244.233
6530.148, 2220.932
6532.077, 2222.418
6534.005, 2245.313
6535.934, 2237.073
6537.862, 2210.106
6539.791, 2242.922
6541.719, 2203.723
6543.647, 2203.217
6545.576, 2199.316
6547.504, 2187.619
6549.433, 2192.373
6551.361, 2199.519
6553.290, 2180.163
6555.218, 2136.036
6557.147, 2153.109
6559.075, 2159.758
6561.004, 2126.285
6562.932, 2124.111
6564.861, 2141.955
6566.789, 2075.164
6568.718, 2084.892
6570.646, 2092.920
6572.575, 2084.048
6574.503, 2066.760
6576.432, 2045.436
6578.360, 2045.198
6580.289, 2064.800
6582.217, 2050.062
6584.146, 2026.120
6586.074, 1982.537
6588.002, 1994.956
6589.931, 1974.464
6591.859, 1953.128
6593.788, 1926.502
6595.716, 1955.561
6597.645, 1921.274
6599.573, 1918.103
6601.501, 1914.914
6603.430, 1882.371
6605.358, 1856.080
6607.287, 1851.439
6609.215, 1868.798
6611.144, 1859.027
6613.072, 1841.162
6615.001, 1848.102
6616.929, 1830.184
6618.858, 1814.283
6620.786, 1810.274
6622.715, 1801.424
6624.643, 1798.285
6626.572, 1779.530
6628.500, 1811.856
6630.429, 1792.442
##END=



