##NAMES=Klyuchevskite
##RRUFFID=R070659
##IDEAL CHEMISTRY=K_3_Cu_3_Fe^3+^O_2_(SO_4_)_4_
##LOCALITY=Yadevitaya fumarole, Tolbachik volcano, Kamchatka Oblast', Far-Eastern Region, Russia
##OWNER=RRUFF
##SOURCE=Michael Scott
##DESCRIPTION=Clusters of dark green radiating prismatic crystals associated with langbeinite, co-type sample
##STATUS=The identification of this mineral has been confirmed by single-crystal X-ray diffraction
##URL=https://www.rruff.net/odr/rruff_sample/R070659
##DIFFRACTION SAMPLE DESCRIPTION=Single crystal, powder profile is calculated
##CELL PARAMETERS=a: 18.74 b: 4.941 c: 18.45 alpha: 90 beta: 101.61 gamma: 90 volume: 1673 crystal system: monoclinic
##FILETYPE=Raman RAW
##RAMAN WAVELENGTH=532

86.75568, 74.99558
88.68415, 90.94110
90.61262, 108.2138
92.54108, 141.5187
94.46955, 194.2153
96.39802, 264.1923
98.32648, 356.2589
100.2550, 490.1082
102.1834, 628.4831
104.1119, 751.2228
106.0404, 852.8287
107.9688, 966.0623
109.8973, 1104.816
111.8258, 1264.369
113.7542, 1409.698
115.6827, 1533.028
117.6112, 1647.992
119.5396, 1758.566
121.4681, 1761.683
123.3966, 1747.572
125.3250, 1711.929
127.2535, 1662.687
129.1820, 1621.701
131.1104, 1587.593
133.0389, 1559.856
134.9674, 1543.116
136.8958, 1552.478
138.8243, 1548.190
140.7528, 1513.597
142.6812, 1450.123
144.6097, 1403.319
146.5382, 1379.779
148.4666, 1366.826
150.3951, 1349.619
152.3236, 1325.788
154.2520, 1305.653
156.1805, 1291.124
158.1090, 1282.190
160.0374, 1275.404
161.9659, 1272.853
163.8944, 1273.965
165.8228, 1276.864
167.7513, 1278.811
169.6798, 1282.350
171.6082, 1288.556
173.5367, 1297.951
175.4652, 1309.277
177.3936, 1329.157
179.3221, 1349.368
181.2506, 1353.693
183.1790, 1324.144
185.1075, 1297.887
187.0360, 1290.143
188.9644, 1300.094
190.8929, 1317.029
192.8214, 1337.630
194.7498, 1360.992
196.6783, 1386.112
198.6068, 1408.246
200.5352, 1443.845
202.4637, 1498.150
204.3922, 1571.435
206.3206, 1655.510
208.2491, 1754.567
210.1776, 1864.829
212.1060, 1978.552
214.0345, 2100.965
215.9630, 2210.065
217.8914, 2301.793
219.8199, 2381.238
221.7484, 2422.682
223.6768, 2418.862
225.6053, 2373.865
227.5338, 2299.412
229.4622, 2181.433
231.3907, 2051.348
233.3192, 1910.938
235.2476, 1758.100
237.1761, 1623.005
239.1046, 1515.984
241.0330, 1429.552
242.9615, 1354.713
244.8900, 1295.819
246.8184, 1241.124
248.7469, 1186.001
250.6754, 1131.252
252.6038, 1087.005
254.5323, 1063.874
256.4608, 1047.561
258.3893, 1019.501
260.3177, 967.9818
262.2462, 923.0262
264.1747, 896.3046
266.1031, 885.8871
268.0316, 876.0249
269.9601, 866.3278
271.8885, 857.7778
273.8170, 851.1868
275.7455, 844.4629
277.6739, 836.8367
279.6024, 827.0873
281.5309, 817.5283
283.4593, 811.7941
285.3878, 811.0128
287.3163, 810.2000
289.2447, 806.4764
291.1732, 801.9895
293.1017, 797.4310
295.0301, 793.3989
296.9586, 786.1782
298.8871, 775.3706
300.8155, 760.2288
302.7440, 748.3878
304.6725, 742.0366
306.6009, 737.1975
308.5294, 733.7664
310.4579, 734.6406
312.3863, 738.0688
314.3148, 736.8263
316.2433, 727.1250
318.1717, 716.6909
320.1002, 709.2963
322.0287, 707.4834
323.9571, 702.7857
325.8856, 688.9962
327.8141, 676.7773
329.7425, 676.0712
331.6710, 693.5104
333.5995, 707.2241
335.5279, 711.1877
337.4564, 707.2825
339.3849, 702.1766
341.3133, 694.3920
343.2418, 686.1290
345.1703, 678.7662
347.0987, 671.5427
349.0272, 667.4653
350.9557, 669.9821
352.8841, 675.9576
354.8126, 676.5835
356.7411, 666.6219
358.6695, 657.6802
360.5980, 655.7092
362.5265, 665.4651
364.4549, 669.1302
366.3834, 658.2288
368.3119, 645.9622
370.2403, 644.8878
372.1688, 661.5334
374.0973, 677.7766
376.0257, 690.4893
377.9542, 701.3197
379.8827, 707.4601
381.8111, 701.0890
383.7396, 695.4243
385.6681, 698.4325
387.5965, 715.7368
389.5250, 732.7947
391.4535, 745.9152
393.3819, 757.3889
395.3104, 773.0769
397.2389, 792.5204
399.1673, 817.1365
401.0958, 847.7678
403.0243, 886.1949
404.9527, 923.0701
406.8812, 964.4141
408.8097, 1000.234
410.7381, 1023.910
412.6666, 1033.382
414.5951, 1039.005
416.5235, 1047.970
418.4520, 1055.320
420.3805, 1045.358
422.3089, 1005.717
424.2374, 966.8990
426.1659, 940.0471
428.0943, 924.6865
430.0228, 913.5007
431.9513, 906.9216
433.8797, 904.1877
435.8082, 903.5376
437.7367, 904.0560
439.6651, 908.3193
441.5936, 923.8412
443.5221, 943.9242
445.4505, 950.6615
447.3790, 928.3185
449.3075, 909.0121
451.2359, 903.5560
453.1644, 909.3762
455.0929, 916.5903
457.0213, 926.0418
458.9498, 935.3416
460.8783, 942.0448
462.8067, 943.7456
464.7352, 948.3228
466.6637, 959.1475
468.5921, 971.5154
470.5206, 981.6537
472.4491, 993.0858
474.3775, 999.1202
476.3060, 993.1822
478.2345, 973.4289
480.1629, 957.6358
482.0914, 951.5081
484.0199, 943.7142
485.9483, 928.4142
487.8768, 900.4390
489.8053, 879.0934
491.7337, 868.4792
493.6622, 862.9630
495.5907, 856.6766
497.5191, 850.5175
499.4476, 844.3299
501.3761, 835.5022
503.3045, 822.9116
505.2330, 813.1389
507.1615, 806.3916
509.0899, 805.0748
511.0184, 809.0463
512.9469, 817.7359
514.8754, 823.3235
516.8038, 821.4607
518.7323, 817.0634
520.6608, 815.6200
522.5892, 821.1954
524.5177, 824.0497
526.4462, 820.4271
528.3746, 807.4924
530.3031, 794.7764
532.2316, 781.1702
534.1600, 776.1288
536.0885, 778.5070
538.0170, 785.4377
539.9454, 787.7735
541.8739, 784.4484
543.8024, 776.3990
545.7308, 772.5239
547.6593, 777.8856
549.5878, 782.7409
551.5162, 775.8040
553.4447, 761.8676
555.3732, 756.7327
557.3016, 763.2988
559.2301, 768.7072
561.1586, 767.8488
563.0870, 764.5757
565.0155, 760.9226
566.9440, 752.9974
568.8724, 747.3289
570.8009, 746.9283
572.7294, 754.1439
574.6578, 764.5674
576.5863, 777.5398
578.5148, 786.8006
580.4432, 794.3220
582.3717, 798.0674
584.3002, 803.3611
586.2286, 814.1633
588.1571, 835.5322
590.0856, 857.5540
592.0140, 877.5612
593.9425, 889.5412
595.8710, 895.4550
597.7994, 896.8465
599.7279, 894.3146
601.6564, 885.8372
603.5848, 874.8087
605.5133, 866.6494
607.4418, 866.3273
609.3702, 866.9863
611.2987, 861.2403
613.2272, 841.9980
615.1556, 826.6912
617.0841, 820.6048
619.0126, 819.7086
620.9410, 814.1234
622.8695, 814.3515
624.7980, 825.3458
626.7264, 844.8646
628.6549, 856.4691
630.5834, 857.1785
632.5118, 860.3644
634.4403, 866.6398
636.3688, 873.6543
638.2972, 882.0766
640.2257, 904.5654
642.1542, 927.0093
644.0826, 938.1375
646.0111, 932.2531
647.9396, 926.2304
649.8680, 911.8737
651.7965, 891.2066
653.7250, 873.3935
655.6534, 864.2198
657.5819, 854.5298
659.5104, 836.5734
661.4388, 817.7175
663.3673, 807.2433
665.2958, 816.5638
667.2242, 820.1995
669.1527, 810.2729
671.0812, 794.4405
673.0096, 786.0837
674.9381, 789.0151
676.8666, 793.0632
678.7950, 791.7590
680.7235, 783.5954
682.6520, 768.6436
684.5804, 753.5905
686.5089, 743.7092
688.4374, 740.7221
690.3658, 744.8948
692.2943, 757.0820
694.2228, 772.1206
696.1512, 779.7645
698.0797, 779.8312
700.0082, 774.2511
701.9366, 755.6264
703.8651, 724.3695
705.7936, 703.9968
707.7220, 705.5217
709.6505, 723.5545
711.5790, 742.7460
713.5074, 746.9451
715.4359, 741.9008
717.3644, 731.9799
719.2928, 729.1849
721.2213, 734.6648
723.1498, 743.4863
725.0782, 745.0970
727.0067, 736.3156
728.9352, 722.7891
730.8636, 711.7672
732.7921, 703.4023
734.7206, 695.7411
736.6490, 687.5837
738.5775, 679.5269
740.5060, 674.0129
742.4344, 670.3107
744.3629, 666.2504
746.2914, 661.5194
748.2198, 658.2060
750.1483, 654.4169
752.0768, 646.0516
754.0052, 634.3343
755.9337, 620.1494
757.8622, 608.5933
759.7906, 600.1070
761.7191, 594.2585
763.6476, 588.8987
765.5760, 582.9819
767.5045, 578.0924
769.4330, 575.3025
771.3615, 573.7747
773.2899, 573.1200
775.2184, 574.7524
777.1469, 577.6164
779.0753, 578.6387
781.0038, 578.4486
782.9323, 578.6971
784.8607, 580.5948
786.7892, 579.8608
788.7177, 574.0414
790.6461, 562.7115
792.5746, 551.7470
794.5031, 543.7658
796.4315, 538.5740
798.3600, 536.1624
800.2885, 536.7775
802.2169, 540.4595
804.1454, 551.0570
806.0739, 562.7949
808.0023, 565.4141
809.9308, 558.8246
811.8593, 553.6703
813.7877, 554.3271
815.7162, 558.3170
817.6447, 561.4792
819.5731, 561.6047
821.5016, 561.2836
823.4301, 565.3920
825.3585, 572.8452
827.2870, 573.1912
829.2155, 562.5071
831.1439, 554.5528
833.0724, 562.4272
835.0009, 576.7625
836.9293, 578.6118
838.8578, 556.4235
840.7863, 541.8802
842.7147, 548.2568
844.6432, 567.1320
846.5717, 575.9636
848.5001, 571.1703
850.4286, 566.5429
852.3571, 568.7029
854.2855, 572.0403
856.2140, 570.9718
858.1425, 562.4108
860.0709, 557.8799
861.9994, 562.1719
863.9279, 571.8315
865.8563, 579.8940
867.7848, 587.3244
869.7133, 589.8445
871.6417, 580.0690
873.5702, 567.5316
875.4987, 566.3656
877.4271, 578.9804
879.3556, 590.9361
881.2841, 598.5503
883.2125, 604.4164
885.1410, 609.6843
887.0695, 614.5012
888.9979, 615.4764
890.9264, 608.2513
892.8549, 601.0641
894.7833, 601.1472
896.7118, 610.0121
898.6403, 615.6020
900.5687, 612.4377
902.4972, 605.7288
904.4257, 601.8851
906.3541, 601.7966
908.2826, 604.5948
910.2111, 611.4761
912.1395, 618.6909
914.0680, 624.5480
915.9965, 628.0132
917.9249, 627.1260
919.8534, 614.6330
921.7819, 605.7209
923.7103, 609.9108
925.6388, 627.0701
927.5673, 642.3782
929.4957, 656.5981
931.4242, 666.7103
933.3527, 668.2404
935.2811, 661.7020
937.2096, 664.3596
939.1381, 682.5175
941.0665, 702.1923
942.9950, 715.2739
944.9235, 725.6298
946.8519, 744.6200
948.7804, 774.6084
950.7089, 811.1134
952.6373, 852.3315
954.5658, 898.5279
956.4943, 951.3683
958.4227, 1016.031
960.3512, 1080.802
962.2797, 1148.518
964.2081, 1214.115
966.1366, 1267.828
968.0651, 1306.573
969.9935, 1338.327
971.9220, 1365.354
973.8505, 1389.160
975.7789, 1402.240
977.7074, 1391.325
979.6359, 1400.782
981.5643, 1452.230
983.4928, 1515.534
985.4213, 1563.598
987.3497, 1591.573
989.2782, 1606.713
991.2067, 1609.354
993.1351, 1599.239
995.0636, 1568.841
996.9921, 1523.403
998.9205, 1488.519
1000.849, 1467.139
1002.777, 1454.855
1004.706, 1458.162
1006.634, 1473.890
1008.563, 1477.110
1010.491, 1459.815
1012.420, 1449.801
1014.348, 1464.786
1016.277, 1487.186
1018.205, 1490.840
1020.134, 1468.675
1022.062, 1448.043
1023.991, 1442.874
1025.919, 1444.703
1027.848, 1429.657
1029.776, 1387.478
1031.704, 1361.653
1033.633, 1364.880
1035.561, 1378.805
1037.490, 1391.335
1039.418, 1402.536
1041.347, 1414.941
1043.275, 1430.038
1045.204, 1445.506
1047.132, 1460.382
1049.061, 1477.420
1050.989, 1487.319
1052.918, 1478.623
1054.846, 1468.910
1056.775, 1466.344
1058.703, 1480.939
1060.631, 1504.350
1062.560, 1536.903
1064.488, 1558.890
1066.417, 1565.521
1068.345, 1559.446
1070.274, 1548.526
1072.202, 1532.281
1074.131, 1509.034
1076.059, 1484.008
1077.988, 1450.897
1079.916, 1389.825
1081.845, 1304.073
1083.773, 1236.355
1085.702, 1198.690
1087.630, 1172.791
1089.558, 1151.889
1091.487, 1142.121
1093.415, 1135.419
1095.344, 1122.938
1097.272, 1102.175
1099.201, 1070.282
1101.129, 1045.021
1103.058, 1037.451
1104.986, 1044.942
1106.915, 1051.507
1108.843, 1052.016
1110.772, 1049.213
1112.700, 1048.385
1114.629, 1050.450
1116.557, 1047.362
1118.485, 1037.258
1120.414, 1025.844
1122.342, 1017.248
1124.271, 1011.064
1126.199, 992.4309
1128.128, 953.0295
1130.056, 921.2813
1131.985, 913.8367
1133.913, 920.2607
1135.842, 913.4331
1137.770, 901.3725
1139.699, 899.1414
1141.627, 909.3039
1143.556, 917.5582
1145.484, 914.8921
1147.412, 898.8370
1149.341, 881.9162
1151.269, 877.9813
1153.198, 878.0138
1155.126, 873.6981
1157.055, 862.5491
1158.983, 851.4129
1160.912, 823.3651
1162.840, 795.3054
1164.769, 784.1720
1166.697, 790.4655
1168.626, 789.6223
1170.554, 772.2728
1172.483, 753.5572
1174.411, 734.2317
1176.339, 720.0776
1178.268, 715.9774
1180.196, 719.0840
1182.125, 716.6021
1184.053, 719.5020
1185.982, 724.2027
1187.910, 718.7925
1189.839, 700.2561
1191.767, 693.4228
1193.696, 715.3817
1195.624, 731.4601
1197.553, 730.0411
1199.481, 718.1939
1201.410, 711.4633
1203.338, 719.8746
1205.266, 738.2076
1207.195, 749.7578
1209.123, 755.1962
1211.052, 767.5536
1212.980, 791.0979
1214.909, 815.7176
1216.837, 833.9936
1218.766, 849.7172
1220.694, 865.1668
1222.623, 880.3102
1224.551, 896.0636
1226.480, 915.4604
1228.408, 930.9384
1230.337, 932.4088
1232.265, 931.1216
1234.193, 938.5107
1236.122, 955.8013
1238.050, 968.0782
1239.979, 965.3144
1241.907, 966.3490
1243.836, 985.9420
1245.764, 1010.211
1247.693, 1014.583
1249.621, 996.2569
1251.550, 977.0056
1253.478, 957.2079
1255.407, 930.7808
1257.335, 910.3307
1259.264, 900.1462
1261.192, 892.4665
1263.120, 878.4313
1265.049, 861.5606
1266.977, 848.4744
1268.906, 843.3661
1270.834, 846.9788
1272.763, 861.5072
1274.691, 873.8494
1276.620, 883.5558
1278.548, 886.7101
1280.477, 880.7742
1282.405, 861.7800
1284.334, 833.8369
1286.262, 799.3706
1288.191, 767.3150
1290.119, 731.6360
1292.047, 701.3234
1293.976, 683.4681
1295.904, 676.8977
1297.833, 675.4180
1299.761, 681.9021
1301.690, 683.8416
1303.618, 677.2381
1305.547, 668.9235
1307.475, 662.5074
1309.404, 656.4462
1311.332, 652.2983
1313.261, 654.7418
1315.189, 658.0735
1317.118, 657.9006
1319.046, 654.4528
1320.974, 649.6371
1322.903, 641.7300
1324.831, 635.7202
1326.760, 630.0142
1328.688, 625.2374
1330.617, 626.5448
1332.545, 636.3662
1334.474, 645.7438
1336.402, 654.4169
1338.331, 655.6677
1340.259, 647.4010
1342.188, 641.7807
1344.116, 641.0628
1346.045, 643.1861
1347.973, 644.0786
1349.901, 646.0422
1351.830, 647.4231
1353.758, 643.3627
1355.687, 635.4907
1357.615, 629.1221
1359.544, 623.5529
1361.472, 625.0762
1363.401, 646.0593
1365.329, 662.4393
1367.258, 657.7818
1369.186, 636.7291
1371.115, 623.4489
1373.043, 623.6344
1374.972, 623.3427
1376.900, 620.1373
1378.828, 620.0042
1380.757, 628.0491
1382.685, 641.3331
1384.614, 639.9313
1386.542, 609.4338
1388.471, 590.8961
1390.399, 597.4825
1392.328, 615.4507
1394.256, 638.5124
1396.185, 664.6799
1398.113, 672.5696
1400.042, 652.5289
1401.970, 630.8218
1403.899, 608.2520
1405.827, 593.1277
1407.755, 602.7302
1409.684, 637.9457
1411.612, 658.9396
1413.541, 653.8961
1415.469, 644.3452
1417.398, 637.7559
1419.326, 632.2020
1421.255, 624.0201
1423.183, 611.1424
1425.112, 606.4958
1427.040, 620.3994
1428.969, 632.7533
1430.897, 633.3754
1432.826, 628.3215
1434.754, 631.7589
1436.682, 652.3140
1438.611, 659.9778
1440.539, 643.8592
1442.468, 627.9272
1444.396, 623.8407
1446.325, 626.0590
1448.253, 622.0173
1450.182, 607.6534
1452.110, 600.9046
1454.039, 612.2098
1455.967, 620.2868
1457.896, 607.0343
1459.824, 586.3737
1461.753, 591.8651
1463.681, 629.0977
1465.609, 653.1985
1467.538, 655.0751
1469.466, 646.5945
1471.395, 623.5266
1473.323, 596.5740
1475.252, 586.4603
1477.180, 595.0710
1479.109, 604.9890
1481.037, 616.3374
1482.966, 623.5239
1484.894, 620.2848
1486.823, 613.5391
1488.751, 612.8536
1490.680, 618.8009
1492.608, 622.1231
1494.536, 620.0947
1496.465, 616.7496
1498.393, 610.3870
1500.322, 606.0029
1502.250, 613.3453
1504.179, 635.4383
1506.107, 646.1950
1508.036, 631.9868
1509.964, 623.4181
1511.893, 632.2562
1513.821, 648.4072
1515.750, 662.9598
1517.678, 677.7025
1519.607, 681.7007
1521.535, 667.5684
1523.464, 652.3609
1525.392, 634.6553
1527.320, 620.1109
1529.249, 616.6263
1531.177, 625.4432
1533.106, 632.4858
1535.034, 636.5974
1536.963, 640.6810
1538.891, 647.3992
1540.820, 651.2504
1542.748, 646.3466
1544.677, 635.9887
1546.605, 630.0580
1548.534, 621.5059
1550.462, 624.0347
1552.391, 657.2090
1554.319, 686.0175
1556.247, 680.7736
1558.176, 654.4073
1560.104, 646.6853
1562.033, 661.7505
1563.961, 676.1696
1565.890, 691.3055
1567.818, 700.6264
1569.747, 699.5230
1571.675, 691.4727
1573.604, 680.9320
1575.532, 668.5197
1577.461, 660.6733
1579.389, 657.9258
1581.318, 660.1833
1583.246, 674.2227
1585.174, 687.8271
1587.103, 686.0433
1589.031, 672.7343
1590.960, 666.8737
1592.888, 672.1392
1594.817, 674.0661
1596.745, 665.0305
1598.674, 656.2480
1600.602, 651.7252
1602.531, 653.0253
1604.459, 671.0047
1606.388, 711.1104
1608.316, 727.8349
1610.245, 697.9351
1612.173, 665.9527
1614.101, 651.6901
1616.030, 648.7725
1617.958, 650.9939
1619.887, 657.7700
1621.815, 663.3713
1623.744, 666.8720
1625.672, 668.8523
1627.601, 669.7581
1629.529, 669.6094
1631.458, 668.8288
1633.386, 666.8013
1635.315, 660.7014
1637.243, 649.1627
1639.172, 643.7159
1641.100, 651.7961
1643.028, 658.4709
1644.957, 653.8640
1646.885, 644.9947
1648.814, 639.8669
1650.742, 638.4169
1652.671, 640.6497
1654.599, 648.5959
1656.528, 654.8439
1658.456, 660.9272
1660.385, 660.4189
1662.313, 637.2753
1664.242, 606.7584
1666.170, 615.5460
1668.099, 671.1038
1670.027, 706.6683
1671.955, 702.7859
1673.884, 693.9155
1675.812, 694.4489
1677.741, 696.7306
1679.669, 692.0938
1681.598, 682.0266
1683.526, 676.2695
1685.455, 676.5986
1687.383, 676.1926
1689.312, 672.7925
1691.240, 669.3868
1693.169, 669.2213
1695.097, 669.2944
1697.026, 663.1588
1698.954, 651.1761
1700.882, 644.6105
1702.811, 643.7973
1704.739, 650.3025
1706.668, 673.7172
1708.596, 694.5504
1710.525, 698.5093
1712.453, 691.1187
1714.382, 683.5154
1716.310, 675.9080
1718.239, 667.4878
1720.167, 654.9445
1722.096, 648.6343
1724.024, 657.4626
1725.953, 669.5697
1727.881, 676.9438
1729.809, 679.8495
1731.738, 676.9468
1733.666, 666.7584
1735.595, 664.6005
1737.523, 680.1984
1739.452, 690.9387
1741.380, 682.1188
1743.309, 667.8587
1745.237, 658.8600
1747.166, 655.4501
1749.094, 661.6392
1751.023, 680.2877
1752.951, 691.3764
1754.880, 686.6638
1756.808, 681.7321
1758.736, 689.1503
1760.665, 695.3740
1762.593, 677.7045
1764.522, 645.3021
1766.450, 642.2460
1768.379, 678.8641
1770.307, 699.9199
1772.236, 684.9541
1774.164, 668.8701
1776.093, 664.2225
1778.021, 665.8831
1779.950, 669.4101
1781.878, 674.8565
1783.807, 683.2552
1785.735, 697.9518
1787.663, 703.6378
1789.592, 694.4823
1791.520, 681.6182
1793.449, 660.0898
1795.377, 643.4659
1797.306, 651.4528
1799.234, 676.5945
1801.163, 684.4031
1803.091, 665.6229
1805.020, 654.1260
1806.948, 650.8672
1808.877, 653.7068
1810.805, 668.1596
1812.734, 682.9015
1814.662, 691.3109
1816.590, 692.5367
1818.519, 680.7249
1820.447, 646.0839
1822.376, 634.0854
1824.304, 665.8854
1826.233, 689.1993
1828.161, 690.9623
1830.090, 686.9756
1832.018, 685.6806
1833.947, 685.3751
1835.875, 681.9761
1837.804, 675.0804
1839.732, 673.9616
1841.661, 683.8889
1843.589, 685.9007
1845.517, 669.7101
1847.446, 654.3112
1849.374, 646.1018
1851.303, 644.4657
1853.231, 651.1500
1855.160, 664.1939
1857.088, 676.1471
1859.017, 687.9388
1860.945, 687.0775
1862.874, 661.1333
1864.802, 643.1716
1866.731, 651.7541
1868.659, 667.5892
1870.588, 679.7025
1872.516, 687.0704
1874.444, 683.3837
1876.373, 669.1561
1878.301, 672.5549
1880.230, 706.9507
1882.158, 729.0342
1884.087, 726.0281
1886.015, 712.3757
1887.944, 681.9838
1889.872, 653.6147
1891.801, 653.1519
1893.729, 675.8748
1895.658, 694.7054
1897.586, 712.8486
1899.515, 717.6254
1901.443, 697.0310
1903.371, 680.9746
1905.300, 680.6531
1907.228, 681.4115
1909.157, 670.6080
1911.085, 656.4947
1913.014, 655.2930
1914.942, 667.2067
1916.871, 669.8013
1918.799, 658.8429
1920.728, 652.1670
1922.656, 654.7499
1924.585, 657.2264
1926.513, 658.1120
1928.442, 655.8414
1930.370, 642.8812
1932.298, 628.6773
1934.227, 636.3203
1936.155, 663.4528
1938.084, 678.5247
1940.012, 676.7777
1941.941, 674.1104
1943.869, 674.3605
1945.798, 673.3609
1947.726, 668.3561
1949.655, 662.2603
1951.583, 655.9541
1953.512, 650.9393
1955.440, 650.2876
1957.369, 654.0547
1959.297, 663.0366
1961.226, 690.3331
1963.154, 698.7439
1965.083, 664.7944
1967.011, 640.5888
1968.939, 651.7549
1970.868, 671.0314
1972.796, 677.0605
1974.725, 674.7899
1976.653, 674.6773
1978.582, 676.8339
1980.510, 677.9393
1982.439, 676.8388
1984.367, 679.6461
1986.296, 690.5226
1988.224, 698.9821
1990.153, 702.8261
1992.081, 700.7903
1994.010, 687.1977
1995.938, 669.9171
1997.866, 659.7697
1999.795, 656.2932
2001.723, 657.3807
2003.652, 663.8765
2005.580, 670.2076
2007.509, 677.8333
2009.437, 681.9273
2011.366, 677.2512
2013.294, 673.7174
2015.223, 679.0279
2017.151, 686.1995
2019.080, 686.0768
2021.008, 680.8688
2022.937, 680.3662
2024.865, 686.3952
2026.793, 683.7529
2028.722, 666.8182
2030.650, 656.9803
2032.579, 660.1368
2034.507, 666.9869
2036.436, 677.9498
2038.364, 687.0582
2040.293, 688.9573
2042.221, 686.7141
2044.150, 683.5753
2046.078, 680.0463
2048.007, 678.6682
2049.935, 679.2805
2051.864, 683.8532
2053.792, 701.1167
2055.720, 706.4673
2057.649, 679.2340
2059.577, 660.5770
2061.506, 677.2998
2063.434, 701.6603
2065.363, 710.5964
2067.291, 708.0037
2069.220, 701.4277
2071.148, 690.8726
2073.077, 672.8913
2075.005, 642.8662
2076.934, 638.1358
2078.862, 676.5787
2080.791, 702.7678
2082.719, 691.9726
2084.647, 679.3085
2086.576, 681.2982
2088.504, 690.8546
2090.433, 709.5722
2092.361, 727.8359
2094.290, 720.0009
2096.218, 689.1577
2098.147, 683.0992
2100.075, 717.0219
2102.004, 731.7743
2103.932, 712.5884
2105.861, 697.7854
2107.789, 692.9092
2109.718, 691.1380
2111.646, 694.2268
2113.574, 695.1116
2115.503, 683.7239
2117.431, 669.9688
2119.360, 670.7554
2121.288, 682.0690
2123.217, 688.3483
2125.145, 689.0798
2127.074, 696.1896
2129.002, 716.9383
2130.931, 724.9343
2132.859, 704.8314
2134.788, 688.0089
2136.716, 684.3914
2138.645, 684.4637
2140.573, 682.1288
2142.501, 681.3318
2144.430, 688.0224
2146.358, 698.8846
2148.287, 706.0248
2150.215, 709.7464
2152.144, 714.1030
2154.072, 719.8719
2156.001, 715.1958
2157.929, 692.4161
2159.858, 680.8286
2161.786, 697.3209
2163.715, 711.1567
2165.643, 704.3156
2167.572, 699.4407
2169.500, 715.9583
2171.428, 738.5325
2173.357, 749.6893
2175.285, 752.0471
2177.214, 752.0878
2179.142, 749.7820
2181.071, 746.2259
2182.999, 741.1691
2184.928, 735.9438
2186.856, 727.9757
2188.785, 731.5416
2190.713, 764.1199
2192.642, 781.4821
2194.570, 751.1488
2196.499, 720.2902
2198.427, 719.3209
2200.355, 728.7499
2202.284, 731.1113
2204.212, 728.3013
2206.141, 723.1214
2208.069, 715.9103
2209.998, 708.2530
2211.926, 699.6845
2213.855, 702.3110
2215.783, 719.6178
2217.712, 732.6787
2219.640, 740.1669
2221.569, 738.4973
2223.497, 710.8865
2225.426, 695.7883
2227.354, 725.0241
2229.282, 754.4856
2231.211, 747.8178
2233.139, 727.3460
2235.068, 719.9258
2236.996, 720.3347
2238.925, 713.0609
2240.853, 700.3152
2242.782, 703.8467
2244.710, 724.2686
2246.639, 733.5237
2248.567, 725.8461
2250.496, 725.5039
2252.424, 741.9379
2254.353, 754.8295
2256.281, 761.5510
2258.209, 760.2676
2260.138, 742.4019
2262.066, 725.6521
2263.995, 723.4929
2265.923, 726.4884
2267.852, 725.7262
2269.780, 722.5670
2271.709, 718.4447
2273.637, 714.2615
2275.566, 714.2730
2277.494, 718.1088
2279.423, 716.1884
2281.351, 704.9077
2283.280, 702.6898
2285.208, 719.8064
2287.136, 730.3719
2289.065, 728.8700
2290.993, 726.2798
2292.922, 727.3674
2294.850, 724.2797
2296.779, 708.6722
2298.707, 694.0929
2300.636, 687.9870
2302.564, 689.1979
2304.493, 701.5175
2306.421, 717.5277
2308.350, 722.3766
2310.278, 719.0223
2312.207, 720.0754
2314.135, 725.7408
2316.063, 728.8165
2317.992, 728.1500
2319.920, 733.0184
2321.849, 744.7991
2323.777, 759.3333
2325.706, 782.5355
2327.634, 788.7548
2329.563, 754.1113
2331.491, 727.3749
2333.420, 732.2282
2335.348, 741.4029
2337.277, 744.1267
2339.205, 740.8791
2341.134, 725.0660
2343.062, 709.3779
2344.990, 713.7794
2346.919, 727.3265
2348.847, 727.2997
2350.776, 718.5547
2352.704, 718.0110
2354.633, 725.3638
2356.561, 728.0380
2358.490, 725.2450
2360.418, 721.0881
2362.347, 714.5359
2364.275, 708.3436
2366.204, 699.7294
2368.132, 700.4072
2370.061, 720.7798
2371.989, 729.9827
2373.917, 705.7626
2375.846, 688.9327
2377.774, 710.1948
2379.703, 728.8672
2381.631, 710.4120
2383.560, 689.4401
2385.488, 699.1527
2387.417, 720.6671
2389.345, 735.2165
2391.274, 741.7678
2393.202, 731.9803
2395.131, 714.2994
2397.059, 717.4681
2398.988, 737.3768
2400.916, 735.2520
2402.844, 708.2687
2404.773, 692.4036
2406.701, 687.1097
2408.630, 697.8604
2410.558, 733.0836
2412.487, 749.8171
2414.415, 736.5481
2416.344, 726.2697
2418.272, 732.5090
2420.201, 729.8313
2422.129, 696.6195
2424.058, 672.8091
2425.986, 682.1098
2427.915, 693.4172
2429.843, 685.3055
2431.771, 679.0189
2433.700, 692.6078
2435.628, 712.2370
2437.557, 732.5887
2439.485, 745.5323
2441.414, 731.3049
2443.342, 707.2885
2445.271, 709.3995
2447.199, 730.2477
2449.128, 749.6024
2451.056, 765.5947
2452.985, 754.8997
2454.913, 721.0245
2456.842, 711.1089
2458.770, 727.3858
2460.698, 733.3246
2462.627, 722.3235
2464.555, 719.1686
2466.484, 735.6511
2468.412, 739.7985
2470.341, 721.8693
2472.269, 715.0207
2474.198, 730.6705
2476.126, 739.8101
2478.055, 730.8723
2479.983, 721.8505
2481.912, 717.8660
2483.840, 717.6669
2485.769, 724.8408
2487.697, 730.0823
2489.625, 725.4600
2491.554, 720.2878
2493.482, 721.7042
2495.411, 724.5816
2497.339, 724.0574
2499.268, 723.4086
2501.196, 727.1013
2503.125, 732.2895
2505.053, 739.3293
2506.982, 742.1738
2508.910, 721.5602
2510.839, 688.6698
2512.767, 675.8193
2514.696, 679.9658
2516.624, 695.3663
2518.552, 719.0229
2520.481, 730.5060
2522.409, 729.7002
2524.338, 722.9157
2526.266, 707.9198
2528.195, 702.6064
2530.123, 707.3613
2532.052, 721.2464
2533.980, 747.0633
2535.909, 753.1472
2537.837, 724.6983
2539.766, 713.5798
2541.694, 742.7356
2543.623, 758.4373
2545.551, 754.5750
2547.479, 743.5976
2549.408, 722.5294
2551.336, 708.1940
2553.265, 704.6917
2555.193, 710.4971
2557.122, 737.7683
2559.050, 755.0211
2560.979, 743.1337
2562.907, 730.3227
2564.836, 726.6035
2566.764, 726.5827
2568.693, 732.0228
2570.621, 734.2538
2572.550, 721.7121
2574.478, 711.8248
2576.406, 722.5485
2578.335, 735.1198
2580.263, 732.8904
2582.192, 725.8139
2584.120, 717.4700
2586.049, 715.1743
2587.977, 731.9781
2589.906, 753.8248
2591.834, 765.7712
2593.763, 769.2926
2595.691, 764.4049
2597.620, 754.1626
2599.548, 740.7557
2601.477, 728.0901
2603.405, 724.2971
2605.333, 727.7015
2607.262, 740.0715
2609.190, 754.6307
2611.119, 743.8375
2613.047, 717.2061
2614.976, 720.3976
2616.904, 744.9219
2618.833, 751.0131
2620.761, 741.2166
2622.690, 728.2965
2624.618, 713.7402
2626.547, 711.7042
2628.475, 722.0898
2630.404, 730.8399
2632.332, 737.6609
2634.260, 726.9991
2636.189, 700.3187
2638.117, 696.7723
2640.046, 720.4551
2641.974, 740.0686
2643.903, 755.3109
2645.831, 766.4651
2647.760, 774.6445
2649.688, 761.1395
2651.617, 723.0527
2653.545, 710.5610
2655.474, 733.8711
2657.402, 749.1783
2659.331, 750.7305
2661.259, 754.3906
2663.188, 761.5536
2665.116, 762.1013
2667.044, 753.6920
2668.973, 750.6794
2670.901, 757.4829
2672.830, 758.9121
2674.758, 745.5640
2676.687, 745.5939
2678.615, 766.7516
2680.544, 770.7266
2682.472, 749.3546
2684.401, 731.7755
2686.329, 720.2807
2688.258, 721.2830
2690.186, 750.2865
2692.115, 761.6093
2694.043, 746.0673
2695.971, 738.9897
2697.900, 747.0588
2699.828, 755.6537
2701.757, 764.0823
2703.685, 767.0205
2705.614, 762.7042
2707.542, 753.3321
2709.471, 733.6166
2711.399, 728.8074
2713.328, 747.3642
2715.256, 763.5083
2717.185, 773.3506
2719.113, 777.0128
2721.042, 770.4617
2722.970, 767.1631
2724.898, 769.8024
2726.827, 770.6230
2728.755, 770.1743
2730.684, 760.4862
2732.612, 722.4494
2734.541, 712.1085
2736.469, 749.7069
2738.398, 769.4391
2740.326, 761.3000
2742.255, 749.2321
2744.183, 733.0793
2746.112, 729.0277
2748.040, 754.9045
2749.969, 761.1805
2751.897, 736.0176
2753.825, 730.9988
2755.754, 757.0864
2757.682, 770.8723
2759.611, 760.9344
2761.539, 754.7760
2763.468, 757.5870
2765.396, 756.9336
2767.325, 751.0471
2769.253, 751.4968
2771.182, 761.0187
2773.110, 764.4293
2775.039, 757.8936
2776.967, 752.3679
2778.896, 750.3080
2780.824, 732.5475
2782.752, 695.6744
2784.681, 695.6054
2786.609, 742.3547
2788.538, 763.8598
2790.466, 753.0111
2792.395, 740.3435
2794.323, 725.6281
2796.252, 715.7516
2798.180, 711.2058
2800.109, 719.6373
2802.037, 741.6125
2803.966, 750.8219
2805.894, 747.1824
2807.823, 752.0425
2809.751, 764.4584
2811.679, 780.7633
2813.608, 798.3084
2815.536, 799.1423
2817.465, 787.1548
2819.393, 788.2848
2821.322, 797.5766
2823.250, 786.0190
2825.179, 764.4680
2827.107, 769.0649
2829.036, 787.2457
2830.964, 782.9686
2832.893, 767.6257
2834.821, 771.0126
2836.750, 781.1345
2838.678, 775.3714
2840.606, 762.2234
2842.535, 746.0610
2844.463, 738.4374
2846.392, 769.5747
2848.320, 805.0656
2850.249, 802.8310
2852.177, 786.6155
2854.106, 772.5399
2856.034, 763.3405
2857.963, 761.3935
2859.891, 765.7663
2861.820, 785.2541
2863.748, 796.8348
2865.677, 779.0466
2867.605, 758.7441
2869.533, 748.9617
2871.462, 744.3556
2873.390, 742.3342
2875.319, 745.4396
2877.247, 759.7069
2879.176, 769.0839
2881.104, 761.1519
2883.033, 759.9255
2884.961, 775.1047
2886.890, 784.5192
2888.818, 782.4278
2890.747, 780.7681
2892.675, 785.6467
2894.604, 781.6246
2896.532, 762.6148
2898.460, 756.2259
2900.389, 765.3768
2902.317, 773.9202
2904.246, 780.8782
2906.174, 779.2874
2908.103, 767.4774
2910.031, 766.3986
2911.960, 774.3897
2913.888, 775.5247
2915.817, 769.9383
2917.745, 759.5501
2919.674, 747.5474
2921.602, 749.3583
2923.531, 759.9725
2925.459, 767.8203
2927.387, 772.8665
2929.316, 770.1852
2931.244, 769.0824
2933.173, 795.6225
2935.101, 818.9072
2937.030, 796.1717
2938.958, 765.0045
2940.887, 756.4765
2942.815, 754.0060
2944.744, 747.7637
2946.672, 740.4842
2948.601, 730.8992
2950.529, 725.7274
2952.458, 730.0283
2954.386, 736.0847
2956.314, 743.7821
2958.243, 747.8023
2960.171, 744.2606
2962.100, 748.8784
2964.028, 772.4911
2965.957, 781.7367
2967.885, 772.2870
2969.814, 755.5046
2971.742, 731.4334
2973.671, 726.9996
2975.599, 744.3771
2977.528, 744.0501
2979.456, 729.8704
2981.385, 758.0217
2983.313, 806.9370
2985.241, 793.3755
2987.170, 748.9964
2989.098, 742.7465
2991.027, 755.7700
2992.955, 760.5498
2994.884, 762.2457
2996.812, 767.9296
2998.741, 771.1957
3000.669, 761.6475
3002.598, 754.8597
3004.526, 765.0494
3006.455, 771.7877
3008.383, 761.2112
3010.312, 753.8030
3012.240, 755.0290
3014.168, 764.6332
3016.097, 789.0151
3018.025, 791.6923
3019.954, 758.7747
3021.882, 741.5062
3023.811, 746.4908
3025.739, 748.0211
3027.668, 747.1177
3029.596, 765.1770
3031.525, 796.6437
3033.453, 806.2355
3035.382, 797.6459
3037.310, 774.2636
3039.239, 748.7504
3041.167, 742.2567
3043.095, 746.6326
3045.024, 755.5667
3046.952, 766.1776
3048.881, 780.0581
3050.809, 788.3858
3052.738, 785.0242
3054.666, 776.3281
3056.595, 758.0128
3058.523, 747.4360
3060.452, 748.2458
3062.380, 756.1503
3064.309, 775.6527
3066.237, 783.8958
3068.166, 779.6194
3070.094, 760.8049
3072.022, 730.3690
3073.951, 729.0704
3075.879, 750.9979
3077.808, 766.8037
3079.736, 775.5982
3081.665, 771.3032
3083.593, 761.5328
3085.522, 751.9051
3087.450, 748.3792
3089.379, 765.1768
3091.307, 778.7849
3093.236, 774.3701
3095.164, 765.3554
3097.093, 750.3582
3099.021, 747.0173
3100.949, 764.1912
3102.878, 771.4532
3104.806, 760.6823
3106.735, 761.2941
3108.663, 780.2433
3110.592, 774.2576
3112.520, 748.3532
3114.449, 743.4740
3116.377, 753.5970
3118.306, 760.2338
3120.234, 762.4872
3122.163, 750.4780
3124.091, 742.8912
3126.020, 772.7739
3127.948, 795.0894
3129.876, 761.9136
3131.805, 737.4496
3133.733, 751.1007
3135.662, 762.3467
3137.590, 752.2195
3139.519, 750.8102
3141.447, 760.5975
3143.376, 780.4811
3145.304, 809.3644
3147.233, 798.7166
3149.161, 757.7587
3151.090, 763.3737
3153.018, 789.4335
3154.947, 764.6748
3156.875, 727.6638
3158.803, 732.7456
3160.732, 744.4640
3162.660, 725.6324
3164.589, 718.6371
3166.517, 760.4409
3168.446, 789.0520
3170.374, 783.8820
3172.303, 776.1671
3174.231, 768.9037
3176.160, 764.0939
3178.088, 762.3534
3180.017, 749.0932
3181.945, 730.9133
3183.874, 752.3346
3185.802, 790.2097
3187.730, 803.9713
3189.659, 798.6227
3191.587, 763.6981
3193.516, 735.6071
3195.444, 743.3541
3197.373, 755.6453
3199.301, 766.9128
3201.230, 762.4156
3203.158, 733.0521
3205.087, 727.6614
3207.015, 759.5724
3208.944, 771.5072
3210.872, 766.5599
3212.801, 773.2333
3214.729, 781.2064
3216.657, 755.9471
3218.586, 723.6024
3220.514, 714.9191
3222.443, 724.5050
3224.371, 765.8973
3226.300, 796.0779
3228.228, 792.7369
3230.157, 784.7313
3232.085, 777.5691
3234.014, 759.6057
3235.942, 724.2225
3237.871, 720.3284
3239.799, 742.7585
3241.728, 770.6750
3243.656, 793.6364
3245.584, 786.2335
3247.513, 765.6215
3249.441, 742.4545
3251.370, 729.1584
3253.298, 740.5875
3255.227, 751.3846
3257.155, 752.8134
3259.084, 759.2480
3261.012, 775.4078
3262.941, 778.0996
3264.869, 766.2930
3266.798, 750.3107
3268.726, 737.0883
3270.655, 752.7737
3272.583, 776.2919
3274.511, 779.3864
3276.440, 771.3712
3278.368, 747.3389
3280.297, 735.8318
3282.225, 767.4869
3284.154, 771.1508
3286.082, 732.2286
3288.011, 718.6135
3289.939, 737.8679
3291.868, 727.8367
3293.796, 702.3546
3295.725, 727.7441
3297.653, 766.3270
3299.582, 764.1564
3301.510, 753.2172
3303.438, 754.7380
3305.367, 760.1122
3307.295, 773.3509
3309.224, 770.2961
3311.152, 742.0844
3313.081, 750.3348
3315.009, 794.5032
3316.938, 799.4986
3318.866, 778.5961
3320.795, 774.0326
3322.723, 773.1954
3324.652, 755.7673
3326.580, 744.3126
3328.509, 759.9305
3330.437, 772.6129
3332.365, 774.0969
3334.294, 774.1586
3336.222, 774.5239
3338.151, 769.4820
3340.079, 760.4814
3342.008, 752.3553
3343.936, 748.5982
3345.865, 765.1378
3347.793, 776.8207
3349.722, 752.7189
3351.650, 736.0976
3353.579, 756.6282
3355.507, 762.7825
3357.436, 745.6276
3359.364, 744.9475
3361.292, 761.6013
3363.221, 756.8726
3365.149, 741.2573
3367.078, 736.6586
3369.006, 738.9048
3370.935, 749.0031
3372.863, 755.4336
3374.792, 752.6588
3376.720, 746.3201
3378.649, 733.9976
3380.577, 732.2343
3382.506, 740.4586
3384.434, 746.5069
3386.363, 751.7454
3388.291, 758.8999
3390.219, 770.9174
3392.148, 806.0041
3394.076, 820.9844
3396.005, 773.5626
3397.933, 738.4714
3399.862, 727.4863
3401.790, 726.0038
3403.719, 732.0552
3405.647, 733.9414
3407.576, 733.3616
3409.504, 732.9905
3411.433, 734.1584
3413.361, 734.8622
3415.290, 744.7486
3417.218, 779.8255
3419.146, 788.6215
3421.075, 755.2509
3423.003, 744.3193
3424.932, 752.6232
3426.860, 740.6691
3428.789, 725.7804
3430.717, 755.5141
3432.646, 780.6096
3434.574, 754.4452
3436.503, 731.6367
3438.431, 726.2667
3440.360, 738.6403
3442.288, 770.4095
3444.217, 776.1456
3446.145, 762.8987
3448.073, 761.2935
3450.002, 762.8654
3451.930, 755.9671
3453.859, 751.3081
3455.787, 754.0372
3457.716, 759.9596
3459.644, 771.0849
3461.573, 772.6859
3463.501, 766.9509
3465.430, 777.1848
3467.358, 788.8373
3469.287, 766.4420
3471.215, 745.7662
3473.144, 754.8409
3475.072, 764.9310
3477.000, 769.3948
3478.929, 762.2206
3480.857, 744.4268
3482.786, 741.0637
3484.714, 746.7057
3486.643, 746.4165
3488.571, 744.6185
3490.500, 746.5283
3492.428, 745.2141
3494.357, 733.4285
3496.285, 738.6785
3498.214, 766.6449
3500.142, 780.1673
3502.071, 781.0591
3503.999, 771.5935
3505.927, 763.1449
3507.856, 771.6802
3509.784, 778.9540
3511.713, 777.7051
3513.641, 775.2033
3515.570, 773.2617
3517.498, 763.6064
3519.427, 751.6202
3521.355, 760.8445
3523.284, 772.2196
3525.212, 754.4802
3527.141, 743.8134
3529.069, 758.2346
3530.998, 781.4340
3532.926, 814.0331
3534.854, 788.7211
3536.783, 729.7061
3538.711, 729.7463
3540.640, 751.8510
3542.568, 763.2326
3544.497, 765.3281
3546.425, 745.3357
3548.354, 753.6215
3550.282, 792.9483
3552.211, 784.8510
3554.139, 749.1885
3556.068, 753.2197
3557.996, 769.9366
3559.925, 781.6788
3561.853, 782.8981
3563.781, 769.8961
3565.710, 757.8693
3567.638, 749.0496
3569.567, 760.2341
3571.495, 782.0731
3573.424, 805.9474
3575.352, 810.5806
3577.281, 755.1277
3579.209, 723.8806
3581.138, 740.0401
3583.066, 749.2544
3584.995, 749.2178
3586.923, 751.8759
3588.852, 758.1509
3590.780, 773.2849
3592.708, 786.2900
3594.637, 795.6580
3596.565, 787.5337
3598.494, 752.2413
3600.422, 746.8251
3602.351, 761.9438
3604.279, 770.4541
3606.208, 777.4254
3608.136, 791.7413
3610.065, 797.9853
3611.993, 781.4350
3613.922, 786.9554
3615.850, 811.0450
3617.779, 798.1934
3619.707, 773.5978
3621.635, 786.3303
3623.564, 797.2495
3625.492, 780.3719
3627.421, 766.0195
3629.349, 757.8210
3631.278, 762.4589
3633.206, 776.2555
3635.135, 792.8761
3637.063, 803.6016
3638.992, 804.3661
3640.920, 789.8974
3642.849, 749.4778
3644.777, 739.1685
3646.706, 756.8229
3648.634, 766.6873
3650.563, 768.5700
3652.491, 752.2650
3654.419, 747.6003
3656.348, 784.8842
3658.276, 797.3613
3660.205, 782.3945
3662.133, 777.5168
3664.062, 776.7672
3665.990, 762.2488
3667.919, 749.9066
3669.847, 750.0356
3671.776, 755.4356
3673.704, 765.1692
3675.633, 771.6343
3677.561, 775.6767
3679.490, 780.8423
3681.418, 785.2243
3683.346, 787.3813
3685.275, 787.0989
3687.203, 783.4333
3689.132, 796.2811
3691.060, 818.1248
3692.989, 815.1479
3694.917, 797.4916
3696.846, 759.9680
3698.774, 745.6336
3700.703, 768.4108
3702.631, 771.0592
3704.560, 756.4653
3706.488, 775.7551
3708.417, 795.5148
3710.345, 769.0073
3712.273, 756.0421
3714.202, 780.5346
3716.130, 767.0447
3718.059, 719.8186
3719.987, 714.5093
3721.916, 730.6225
3723.844, 746.9787
3725.773, 768.4492
3727.701, 800.8552
3729.630, 804.8082
3731.558, 783.5975
3733.487, 795.1435
3735.415, 813.6865
3737.344, 805.5686
3739.272, 801.1466
3741.200, 812.9840
3743.129, 808.3298
3745.057, 788.3395
3746.986, 777.6777
3748.914, 779.4781
3750.843, 809.0505
3752.771, 822.8998
3754.700, 804.6169
3756.628, 809.0358
3758.557, 830.4886
3760.485, 796.5176
3762.414, 766.5719
3764.342, 827.7043
3766.271, 848.6101
3768.199, 792.8444
3770.127, 765.6998
3772.056, 767.3268
3773.984, 777.5523
3775.913, 783.9221
3777.841, 770.7811
3779.770, 762.3204
3781.698, 763.3876
3783.627, 757.9471
3785.555, 751.2101
3787.484, 764.4635
3789.412, 779.6443
3791.341, 782.1324
3793.269, 788.2314
3795.198, 799.8240
3797.126, 815.4771
3799.054, 826.7336
3800.983, 805.8196
3802.911, 790.0534
3804.840, 810.9984
3806.768, 806.3613
3808.697, 778.2098
3810.625, 784.4889
3812.554, 802.7216
3814.482, 804.4150
3816.411, 798.1716
3818.339, 782.2700
3820.268, 775.3497
3822.196, 777.7857
3824.125, 793.5779
3826.053, 803.0613
3827.981, 784.5369
3829.910, 771.1403
3831.838, 770.7134
3833.767, 770.7787
3835.695, 773.2658
3837.624, 787.4893
3839.552, 798.5678
3841.481, 801.5372
3843.409, 783.2907
3845.338, 747.6027
3847.266, 760.8055
3849.195, 788.0834
3851.123, 780.6163
3853.052, 783.5986
3854.980, 821.7916
3856.908, 798.9289
3858.837, 744.2524
3860.765, 765.9501
3862.694, 800.3648
3864.622, 805.4418
3866.551, 800.8828
3868.479, 789.6579
3870.408, 783.8290
3872.336, 783.9592
3874.265, 795.5466
3876.193, 803.6747
3878.122, 805.6995
3880.050, 810.8037
3881.979, 811.2979
3883.907, 799.8522
3885.835, 792.3492
3887.764, 787.3559
3889.692, 783.4606
3891.621, 787.6245
3893.549, 786.0947
3895.478, 779.6262
3897.406, 783.7059
3899.335, 790.0981
3901.263, 796.2970
3903.192, 794.6625
3905.120, 783.9687
3907.049, 780.3174
3908.977, 783.4880
3910.906, 787.6397
3912.834, 789.9856
3914.762, 796.9973
3916.691, 787.9274
3918.619, 771.2064
3920.548, 788.9585
3922.476, 807.2125
3924.405, 795.4402
3926.333, 777.6336
3928.262, 775.4048
3930.190, 791.5847
3932.119, 810.6576
3934.047, 839.8394
3935.976, 834.1987
3937.904, 804.4308
3939.833, 805.8927
3941.761, 814.0349
3943.689, 823.0375
3945.618, 815.8140
3947.546, 791.9505
3949.475, 810.1881
3951.403, 827.8436
3953.332, 812.1315
3955.260, 807.8843
3957.189, 807.4913
3959.117, 812.7529
3961.046, 812.5140
3962.974, 808.3553
3964.903, 812.8887
3966.831, 804.7151
3968.760, 775.4214
3970.688, 750.3361
3972.616, 790.1655
3974.545, 832.2520
3976.473, 816.5002
3978.402, 799.3757
3980.330, 800.6607
3982.259, 828.8615
3984.187, 840.6006
3986.116, 824.2152
3988.044, 813.4065
3989.973, 805.7405
3991.901, 818.8018
3993.830, 823.9101
3995.758, 815.7023
3997.687, 813.4740
3999.615, 808.8058
4001.543, 797.1621
4003.472, 799.9505
4005.400, 816.4833
4007.329, 811.3123
4009.257, 792.7100
4011.186, 801.1017
4013.114, 819.2035
4015.043, 832.9367
4016.971, 833.3753
4018.900, 818.6184
4020.828, 807.8759
4022.757, 802.4446
4024.685, 820.0469
4026.614, 823.2043
4028.542, 792.8110
4030.470, 807.3148
4032.399, 843.3082
4034.327, 815.5728
4036.256, 794.9943
4038.184, 819.3707
4040.113, 821.0512
4042.041, 807.4104
4043.970, 822.1674
4045.898, 838.2771
4047.827, 837.4021
4049.755, 827.1969
4051.684, 812.4162
4053.612, 815.8271
4055.541, 827.4484
4057.469, 845.6009
4059.397, 844.4503
4061.326, 821.5546
4063.254, 816.4830
4065.183, 820.9532
4067.111, 829.1975
4069.040, 827.9097
4070.968, 810.8220
4072.897, 824.3921
4074.825, 846.0850
4076.754, 822.3252
4078.682, 813.7908
4080.611, 842.7955
4082.539, 852.4832
4084.468, 843.9871
4086.396, 829.9194
4088.324, 825.4105
4090.253, 833.4477
4092.181, 833.2291
4094.110, 820.3467
4096.039, 833.3287
4097.967, 857.2508
4099.896, 847.8851
4101.824, 849.6141
4103.752, 873.0970
4105.681, 869.0231
4107.609, 844.6653
4109.538, 814.5954
4111.466, 813.8693
4113.395, 842.4554
4115.323, 851.1620
4117.251, 852.7911
4119.180, 852.5647
4121.108, 839.4084
4123.037, 829.7087
4124.965, 839.9944
4126.894, 852.4822
4128.822, 837.3245
4130.751, 821.4747
4132.679, 819.0911
4134.608, 827.4968
4136.536, 834.4500
4138.465, 816.2321
4140.393, 811.5960
4142.322, 812.9657
4144.250, 814.3806
4146.179, 834.3997
4148.107, 842.1884
4150.036, 829.6082
4151.964, 807.9718
4153.893, 822.5183
4155.821, 859.3048
4157.750, 859.7264
4159.678, 853.0998
4161.606, 887.1908
4163.535, 890.9284
4165.463, 853.2927
4167.392, 828.8524
4169.320, 831.9034
4171.249, 860.9364
4173.177, 877.2648
4175.105, 876.0189
4177.034, 857.1284
4178.962, 849.4986
4180.891, 844.9781
4182.819, 846.3098
4184.748, 858.4954
4186.676, 827.5339
4188.605, 806.3586
4190.533, 857.5707
4192.462, 892.2025
4194.390, 892.4151
4196.319, 873.1027
4198.247, 865.6494
4200.176, 893.2407
4202.104, 886.4099
4204.033, 858.9931
4205.961, 869.7448
4207.890, 883.9775
4209.818, 889.9130
4211.747, 882.8885
4213.675, 864.7567
4215.604, 854.2822
4217.532, 854.5204
4219.460, 878.0621
4221.389, 873.0228
4223.317, 855.3034
4225.246, 875.9133
4227.174, 902.0507
4229.103, 927.3315
4231.031, 901.5825
4232.959, 858.5164
4234.888, 859.0079
4236.816, 883.8902
4238.745, 935.3260
4240.673, 938.5505
4242.602, 913.3512
4244.530, 881.3077
4246.459, 863.9792
4248.387, 868.3608
4250.316, 912.0015
4252.244, 951.3295
4254.173, 918.1594
4256.101, 904.1299
4258.030, 921.5320
4259.958, 894.2187
4261.887, 856.2812
4263.815, 839.2392
4265.744, 823.5319
4267.672, 811.7831
4269.601, 837.8028
4271.529, 866.6825
4273.458, 871.1467
4275.386, 876.9144
4277.314, 883.8755
4279.243, 885.3489
4281.171, 887.0300
4283.100, 892.4603
4285.028, 899.0007
4286.957, 903.1205
4288.885, 893.4117
4290.813, 888.7444
4292.742, 898.0056
4294.670, 891.7523
4296.599, 882.2859
4298.527, 889.4591
4300.456, 891.9503
4302.384, 886.6189
4304.313, 906.2725
4306.241, 925.0547
4308.170, 906.7222
4310.098, 922.9697
4312.027, 963.7849
4313.955, 933.8384
4315.884, 897.9687
4317.812, 893.2761
4319.741, 889.8846
4321.669, 892.9860
4323.598, 933.8234
4325.526, 953.6432
4327.455, 929.4847
4329.383, 930.6806
4331.312, 931.9941
4333.240, 886.0269
4335.168, 883.0794
4337.097, 931.5504
4339.025, 906.9114
4340.954, 881.3921
4342.882, 911.8261
4344.811, 898.2482
4346.739, 857.1318
4348.667, 867.3824
4350.596, 892.0518
4352.524, 918.2914
4354.453, 918.4018
4356.381, 913.0312
4358.310, 940.6864
4360.238, 949.7975
4362.167, 936.8624
4364.095, 948.9061
4366.024, 960.6729
4367.952, 951.7474
4369.881, 936.7133
4371.809, 927.1019
4373.738, 966.5219
4375.666, 976.3466
4377.595, 917.2063
4379.523, 914.5474
4381.452, 932.6665
4383.380, 924.9877
4385.309, 903.4396
4387.237, 874.9072
4389.166, 885.0443
4391.094, 903.9722
4393.022, 917.0453
4394.951, 909.2917
4396.879, 892.5011
4398.808, 891.2647
4400.736, 901.3468
4402.665, 920.8565
4404.593, 892.4851
4406.521, 870.1313
4408.450, 904.0967
4410.378, 942.3116
4412.307, 970.6422
4414.235, 962.4940
4416.164, 942.6554
4418.092, 920.3452
4420.021, 916.0003
4421.949, 915.0142
4423.878, 892.3195
4425.806, 885.0461
4427.735, 897.6888
4429.663, 935.3006
4431.592, 958.3900
4433.520, 938.7770
4435.449, 917.3582
4437.377, 906.0038
4439.306, 932.1609
4441.234, 947.0028
4443.163, 941.9514
4445.091, 904.1709
4447.020, 889.1428
4448.948, 933.3762
4450.876, 908.4676
4452.805, 869.0496
4454.733, 947.8123
4456.662, 969.9794
4458.590, 917.5699
4460.519, 905.3351
4462.447, 909.3992
4464.375, 916.9652
4466.304, 911.0148
4468.232, 909.4220
4470.161, 969.0449
4472.089, 978.8298
4474.018, 924.5624
4475.946, 916.7068
4477.875, 915.5380
4479.803, 897.9938
4481.732, 896.1411
4483.660, 905.6903
4485.589, 921.6397
4487.517, 928.8322
4489.446, 928.2090
4491.374, 937.0041
4493.303, 953.0805
4495.231, 984.7661
4497.160, 954.7699
4499.088, 909.2830
4501.017, 926.5975
4502.945, 925.2250
4504.874, 903.4895
4506.802, 918.7184
4508.730, 923.3401
4510.659, 898.8315
4512.587, 913.2880
4514.516, 935.0639
4516.444, 926.1091
4518.373, 927.9214
4520.301, 932.2017
4522.229, 896.1885
4524.158, 870.1514
4526.086, 870.5549
4528.015, 854.7548
4529.943, 860.3448
4531.872, 929.3743
4533.800, 941.1357
4535.729, 913.7651
4537.657, 875.1675
4539.586, 887.0666
4541.514, 934.6380
4543.443, 860.0718
4545.371, 820.5162
4547.300, 909.5400
4549.228, 957.1364
4551.157, 957.7143
4553.085, 871.7748
4555.014, 882.9481
4556.942, 959.1785
4558.871, 961.8782
4560.799, 936.7792
4562.728, 901.1899
4564.656, 895.5000
4566.584, 899.8074
4568.513, 899.6804
4570.441, 921.2185
4572.370, 938.1996
4574.298, 894.7224
4576.227, 882.4113
4578.155, 903.1573
4580.083, 932.6235
4582.012, 940.7430
4583.940, 921.2675
4585.869, 899.2107
4587.797, 888.6381
4589.726, 899.3882
4591.654, 929.6987
4593.583, 945.6754
4595.511, 861.9211
4597.440, 867.3237
4599.368, 938.6079
4601.297, 886.4579
4603.225, 838.2982
4605.154, 831.8691
4607.082, 893.4958
4609.011, 934.0793
4610.939, 881.0281
4612.868, 885.2610
4614.796, 902.0544
4616.725, 854.2361
4618.653, 850.5276
4620.582, 878.9294
4622.510, 869.2182
4624.438, 877.0596
4626.367, 905.2253
4628.295, 884.8449
4630.224, 861.3079
4632.152, 851.9242
4634.081, 937.4149
4636.009, 998.2314
4637.938, 905.2888
4639.866, 898.8420
4641.794, 937.2496
4643.723, 917.0244
4645.651, 894.6077
4647.580, 880.3947
4649.508, 880.0472
4651.437, 872.4137
4653.365, 851.6236
4655.294, 877.6028
4657.222, 900.2986
4659.151, 894.4036
4661.079, 870.1935
4663.008, 854.3635
4664.936, 878.2573
4666.865, 897.7267
4668.793, 907.8349
4670.722, 904.7833
4672.650, 885.8156
4674.579, 866.1592
4676.507, 924.8170
4678.436, 936.6505
4680.364, 880.5743
4682.292, 879.3190
4684.221, 876.3380
4686.149, 835.2606
4688.078, 872.5650
4690.006, 910.4495
4691.935, 886.5322
4693.863, 890.1204
4695.792, 913.2576
4697.720, 949.2852
4699.648, 947.8249
4701.577, 911.3968
4703.505, 831.0034
4705.434, 824.1985
4707.362, 884.0464
4709.291, 908.9541
4711.219, 910.7290
4713.148, 894.3907
4715.076, 862.5348
4717.005, 857.9875
4718.933, 902.6605
4720.862, 905.9958
4722.790, 902.6620
4724.719, 919.6146
4726.647, 938.8488
4728.576, 946.6942
4730.504, 922.5238
4732.433, 906.6168
4734.361, 894.2247
4736.290, 866.3969
4738.218, 853.5046
4740.146, 863.1025
4742.075, 921.2612
4744.003, 937.1648
4745.932, 900.2933
4747.860, 844.9728
4749.789, 821.5141
4751.717, 838.2970
4753.646, 862.9026
4755.574, 869.0372
4757.502, 840.2261
4759.431, 858.9673
4761.359, 872.4833
4763.288, 848.9193
4765.216, 842.2391
4767.145, 850.2599
4769.073, 876.9010
4771.002, 875.6528
4772.930, 861.5621
4774.859, 848.1064
4776.787, 884.7007
4778.716, 929.3943
4780.644, 904.6748
4782.573, 872.7798
4784.501, 850.7634
4786.430, 866.3751
4788.358, 860.6318
4790.287, 845.4038
4792.215, 910.9282
4794.144, 925.5158
4796.072, 875.7200
4798.000, 847.2133
4799.929, 855.4401
4801.857, 892.0839
4803.786, 863.7841
4805.714, 847.9028
4807.643, 874.4177
4809.571, 912.7153
4811.500, 926.3610
4813.428, 900.5417
4815.356, 869.6343
4817.285, 852.8578
4819.213, 860.5361
4821.142, 911.4175
4823.070, 939.1419
4824.999, 896.7260
4826.927, 889.4008
4828.856, 888.3932
4830.784, 858.6936
4832.713, 831.3511
4834.641, 837.8806
4836.570, 918.5491
4838.498, 917.6485
4840.427, 881.1563
4842.355, 875.5651
4844.284, 865.0746
4846.212, 852.1659
4848.141, 840.6680
4850.069, 844.5737
4851.998, 864.1664
4853.926, 915.8064
4855.854, 901.5593
4857.783, 857.9670
4859.711, 864.0911
4861.640, 859.2135
4863.568, 845.8379
4865.497, 843.2632
4867.425, 845.1074
4869.354, 851.3773
4871.282, 871.4700
4873.210, 859.1705
4875.139, 834.9736
4877.067, 868.0336
4878.996, 879.9846
4880.924, 874.4754
4882.853, 895.1826
4884.781, 896.5085
4886.710, 878.5187
4888.638, 851.4672
4890.567, 852.4835
4892.495, 870.7351
4894.424, 866.4290
4896.352, 840.5408
4898.281, 810.4470
4900.209, 821.8141
4902.138, 849.7215
4904.066, 877.0148
4905.995, 873.8147
4907.923, 855.1157
4909.852, 831.5856
4911.780, 817.9053
4913.708, 833.9666
4915.637, 863.7905
4917.565, 867.6602
4919.494, 842.0773
4921.422, 809.3914
4923.351, 830.6448
4925.279, 846.2321
4927.208, 849.6010
4929.136, 838.8257
4931.064, 860.4919
4932.993, 899.1783
4934.921, 920.5165
4936.850, 895.4961
4938.778, 850.2710
4940.707, 834.7380
4942.635, 859.2582
4944.564, 886.3170
4946.492, 844.3599
4948.421, 823.4456
4950.349, 820.9694
4952.278, 815.9122
4954.206, 854.5282
4956.135, 893.9853
4958.063, 860.3693
4959.992, 855.1168
4961.920, 866.4297
4963.849, 877.7933
4965.777, 869.1888
4967.706, 845.6964
4969.634, 808.7078
4971.563, 835.6161
4973.491, 877.6356
4975.419, 890.3071
4977.348, 874.6490
4979.276, 869.4360
4981.205, 899.6163
4983.133, 889.7786
4985.062, 874.6663
4986.990, 876.9507
4988.918, 879.1633
4990.847, 871.7800
4992.775, 850.7482
4994.704, 819.8945
4996.632, 806.0455
4998.561, 817.5239
5000.489, 849.6574
5002.418, 877.5801
5004.346, 888.0427
5006.275, 836.4099
5008.203, 807.4378
5010.132, 816.9977
5012.060, 858.8250
5013.989, 877.9694
5015.917, 880.8926
5017.846, 916.8036
5019.774, 912.9767
5021.703, 880.8162
5023.631, 851.9579
5025.560, 846.2770
5027.488, 859.1184
5029.417, 890.2662
5031.345, 886.9362
5033.273, 875.0468
5035.202, 883.7730
5037.130, 846.6861
5039.059, 818.3655
5040.987, 833.9996
5042.916, 818.8577
5044.844, 810.6213
5046.772, 829.3849
5048.701, 840.6694
5050.629, 828.5421
5052.558, 799.3749
5054.486, 826.5593
5056.415, 850.5230
5058.343, 857.1305
5060.272, 843.2976
5062.200, 842.7062
5064.129, 845.0248
5066.057, 808.9965
5067.986, 816.9045
5069.914, 843.5057
5071.843, 845.6188
5073.771, 824.9771
5075.700, 812.5939
5077.628, 843.9124
5079.557, 853.3303
5081.485, 852.3896
5083.414, 848.7223
5085.342, 859.8389
5087.271, 876.2379
5089.199, 888.8348
5091.127, 866.2692
5093.056, 830.0545
5094.984, 800.6841
5096.913, 829.1436
5098.841, 844.2010
5100.770, 842.3369
5102.698, 834.1403
5104.626, 838.6177
5106.555, 849.9895
5108.483, 864.1001
5110.412, 862.5969
5112.340, 854.6729
5114.269, 846.8356
5116.197, 855.8046
5118.126, 847.2839
5120.054, 817.6566
5121.983, 826.3880
5123.911, 827.0341
5125.840, 822.6648
5127.768, 863.1190
5129.697, 879.7145
5131.625, 867.8890
5133.554, 829.9973
5135.482, 825.6184
5137.411, 844.1535
5139.339, 878.7662
5141.268, 880.4123
5143.196, 856.2527
5145.125, 814.4623
5147.053, 787.4658
5148.981, 792.5610
5150.910, 818.8417
5152.838, 820.7653
5154.767, 828.2603
5156.695, 847.7274
5158.624, 897.6414
5160.552, 855.5469
5162.480, 816.0590
5164.409, 857.9274
5166.337, 833.8532
5168.266, 823.8103
5170.194, 856.4871
5172.123, 818.7353
5174.051, 782.0491
5175.980, 772.3329
5177.908, 814.0674
5179.837, 834.7613
5181.765, 839.0634
5183.694, 845.8016
5185.622, 843.3054
5187.551, 829.2729
5189.479, 802.2477
5191.408, 776.8641
5193.336, 786.2752
5195.265, 825.7369
5197.193, 836.5732
5199.122, 830.7559
5201.050, 822.2328
5202.979, 830.0185
5204.907, 836.9380
5206.835, 840.3198
5208.764, 838.3381
5210.692, 839.7266
5212.621, 845.9238
5214.549, 854.3807
5216.478, 849.1299
5218.406, 850.1412
5220.334, 855.4324
5222.263, 849.1146
5224.191, 880.3362
5226.120, 894.4414
5228.048, 843.0538
5229.977, 851.3394
5231.905, 881.2331
5233.834, 903.9927
5235.762, 863.7291
5237.691, 826.1776
5239.619, 809.4287
5241.548, 828.8956
5243.476, 832.3854
5245.405, 836.2646
5247.333, 853.7896
5249.262, 859.4573
5251.190, 842.3679
5253.119, 817.8844
5255.047, 855.7715
5256.976, 875.8699
5258.904, 872.0154
5260.833, 845.2948
5262.761, 834.3394
5264.689, 848.2504
5266.618, 884.9402
5268.546, 884.7586
5270.475, 885.5836
5272.403, 880.6899
5274.332, 815.3862
5276.260, 806.4478
5278.188, 826.7380
5280.117, 846.2303
5282.045, 843.7809
5283.974, 819.1848
5285.902, 789.0001
5287.831, 824.8060
5289.759, 862.9066
5291.688, 879.0775
5293.616, 851.5408
5295.545, 835.7678
5297.473, 832.2742
5299.402, 839.1943
5301.330, 858.0009
5303.259, 854.1407
5305.187, 839.8864
5307.116, 855.0217
5309.044, 839.2966
5310.973, 818.7689
5312.901, 815.5835
5314.830, 821.1151
5316.758, 802.5279
5318.687, 775.7955
5320.615, 819.7505
5322.543, 808.4905
5324.472, 793.6006
5326.400, 827.8687
5328.329, 850.3482
5330.257, 860.8345
5332.186, 859.2143
5334.114, 827.1802
5336.042, 864.8002
5337.971, 890.2774
5339.899, 803.9591
5341.828, 816.5280
5343.756, 834.1403
5345.685, 824.9608
5347.613, 797.8078
5349.542, 815.7064
5351.470, 835.1641
5353.399, 802.0031
5355.327, 803.5215
5357.256, 827.9458
5359.184, 854.6945
5361.113, 819.7000
5363.041, 832.1959
5364.970, 852.7333
5366.898, 829.7002
5368.827, 801.1343
5370.755, 838.5532
5372.684, 916.9437
5374.612, 878.7563
5376.541, 823.7402
5378.469, 786.9428
5380.397, 789.2140
5382.326, 804.4078
5384.254, 780.9974
5386.183, 744.5180
5388.111, 804.2462
5390.040, 813.6843
5391.968, 798.2942
5393.896, 793.1105
5395.825, 844.9250
5397.753, 865.4849
5399.682, 848.8646
5401.610, 822.6926
5403.539, 847.1274
5405.467, 847.4886
5407.396, 797.0141
5409.324, 846.2436
5411.253, 853.8046
5413.181, 830.6688
5415.110, 826.7982
5417.038, 844.4744
5418.967, 833.0873
5420.895, 790.5060
5422.824, 809.2242
5424.752, 805.7296
5426.681, 788.9873
5428.609, 779.3213
5430.538, 805.5175
5432.466, 821.6533
5434.395, 822.0083
5436.323, 825.8412
5438.251, 806.0248
5440.180, 781.0887
5442.108, 767.1730
5444.037, 814.7847
5445.965, 800.3778
5447.894, 758.9164
5449.822, 761.8781
5451.750, 818.6326
5453.679, 837.3842
5455.607, 813.2087
5457.536, 824.3162
5459.464, 818.3358
5461.393, 824.8773
5463.321, 859.0966
5465.250, 799.8021
5467.178, 797.1533
5469.107, 832.3229
5471.035, 834.1725
5472.964, 805.2822
5474.892, 807.4316
5476.821, 841.2155
5478.749, 848.5303
5480.678, 809.6622
5482.606, 787.6785
5484.535, 816.3918
5486.463, 823.8256
5488.392, 817.1108
5490.320, 818.3890
5492.249, 858.8998
5494.177, 876.6100
5496.105, 864.5651
5498.034, 829.1901
5499.962, 782.7599
5501.891, 790.1484
5503.819, 821.6511
5505.748, 844.6477
5507.676, 786.3475
5509.604, 817.9917
5511.533, 862.2054
5513.461, 831.7104
5515.390, 787.4313
5517.318, 786.6837
5519.247, 811.5463
5521.175, 812.8453
5523.104, 814.5684
5525.032, 796.4390
5526.961, 777.3992
5528.889, 830.0983
5530.818, 836.8120
5532.746, 800.5696
5534.675, 751.4931
5536.603, 781.2465
5538.532, 818.8022
5540.460, 837.1956
5542.389, 824.5535
5544.317, 810.6559
5546.246, 808.3281
5548.174, 805.2567
5550.103, 781.0380
5552.031, 780.1041
5553.959, 778.5828
5555.888, 777.3068
5557.816, 793.8613
5559.745, 785.3671
5561.673, 768.5475
5563.602, 757.6486
5565.530, 761.4454
5567.458, 814.5689
5569.387, 834.0260
5571.315, 785.9596
5573.244, 753.7825
5575.172, 778.2710
5577.101, 802.9515
5579.029, 784.7765
5580.958, 780.4816
5582.886, 791.3948
5584.815, 809.3173
5586.743, 821.8326
5588.672, 759.0702
5590.600, 756.5640
5592.529, 787.3986
5594.457, 779.1110
5596.386, 736.5593
5598.314, 742.5164
5600.243, 782.4167
5602.171, 786.9504
5604.100, 794.4102
5606.028, 806.0714
5607.957, 808.7267
5609.885, 771.7725
5611.813, 772.8516
5613.742, 788.1832
5615.670, 792.5814
5617.599, 754.7250
5619.527, 773.5746
5621.456, 747.9799
5623.384, 679.0596
5625.313, 751.9301
5627.241, 782.4562
5629.169, 759.4120
5631.098, 704.7664
5633.026, 681.9067
5634.955, 727.1316
5636.883, 754.8884
5638.812, 738.6795
5640.740, 801.1906
5642.669, 810.1295
5644.597, 808.1558
5646.526, 817.8876
5648.454, 753.8348
5650.383, 757.1790
5652.311, 784.6263
5654.240, 792.9567
5656.168, 776.9385
5658.097, 785.3545
5660.025, 788.5651
5661.954, 765.4254
5663.882, 714.8552
5665.811, 772.8693
5667.739, 832.4355
5669.667, 822.5489
5671.596, 809.6278
5673.524, 778.9139
5675.453, 754.2980
5677.381, 751.0826
5679.310, 763.5617
5681.238, 752.9244
5683.167, 732.4611
5685.095, 719.8188
5687.023, 737.1415
5688.952, 743.7407
5690.880, 754.1939
5692.809, 774.9434
5694.737, 790.7078
5696.666, 782.8534
5698.594, 754.5802
5700.523, 721.3558
5702.451, 725.4987
5704.380, 754.9262
5706.308, 772.8062
5708.237, 770.4379
5710.165, 771.0670
5712.094, 756.7448
5714.022, 739.4500
5715.951, 735.3925
5717.879, 766.2314
5719.808, 798.4826
5721.736, 767.9059
5723.665, 729.7548
5725.593, 802.6201
5727.521, 777.1064
5729.450, 751.2869
5731.378, 734.8443
5733.307, 694.8873
5735.235, 694.6254
5737.164, 702.8182
5739.092, 709.7111
5741.021, 715.0743
5742.949, 757.8198
5744.877, 763.1349
5746.806, 752.2201
5748.734, 750.7632
5750.663, 702.3506
5752.591, 694.3621
5754.520, 709.1546
5756.448, 729.1967
5758.377, 776.7390
5760.305, 739.0721
5762.234, 720.6313
5764.162, 743.6537
5766.091, 720.0143
5768.019, 733.2911
5769.948, 734.7679
5771.876, 718.9343
5773.805, 710.7512
5775.733, 693.7834
5777.662, 703.8135
5779.590, 740.8697
5781.519, 788.9405
5783.447, 754.6387
5785.375, 703.5811
5787.304, 683.4576
5789.232, 710.3608
5791.161, 739.5292
5793.089, 759.3063
5795.018, 757.3729
5796.946, 733.2166
5798.875, 687.6180
5800.803, 752.0775
5802.731, 795.3923
5804.660, 790.9341
5806.588, 776.8930
5808.517, 711.2079
5810.445, 681.6974
5812.374, 713.3561
5814.302, 784.8474
5816.231, 739.6190
5818.159, 700.2541
5820.088, 742.2867
5822.016, 828.9766
5823.945, 744.9219
5825.873, 731.2002
5827.802, 739.5543
5829.730, 745.9799
5831.659, 758.9062
5833.587, 748.2227
5835.516, 701.5170
5837.444, 681.7073
5839.373, 733.3638
5841.301, 735.2998
5843.229, 756.2123
5845.158, 743.6544
5847.086, 698.6380
5849.015, 717.2830
5850.943, 741.5086
5852.872, 743.0003
5854.800, 739.2144
5856.729, 759.2300
5858.657, 684.7121
5860.585, 691.3855
5862.514, 720.6021
5864.442, 722.2876
5866.371, 759.5762
5868.299, 769.1411
5870.228, 741.5674
5872.156, 725.2712
5874.085, 779.1741
5876.013, 696.8120
5877.942, 672.3577
5879.870, 683.7681
5881.799, 690.2339
5883.727, 753.4493
5885.656, 753.6320
5887.584, 729.4451
5889.513, 698.4903
5891.441, 653.2995
5893.370, 684.1609
5895.298, 714.6077
5897.227, 732.9757
5899.155, 739.7410
5901.083, 695.7563
5903.012, 701.0692
5904.940, 717.8445
5906.869, 721.3257
5908.797, 702.4590
5910.726, 742.0857
5912.654, 714.3433
5914.583, 700.4593
5916.511, 743.9016
5918.439, 715.0025
5920.368, 722.8203
5922.296, 741.9643
5924.225, 754.9811
5926.153, 755.0828
5928.082, 736.3993
5930.010, 730.5319
5931.939, 716.1402
5933.867, 702.7097
5935.796, 750.0606
5937.724, 773.1646
5939.653, 731.1110
5941.581, 704.6588
5943.510, 753.3651
5945.438, 736.0732
5947.367, 779.6072
5949.295, 769.0066
5951.224, 710.2200
5953.152, 690.5871
5955.081, 755.6930
5957.009, 724.8464
5958.938, 689.2449
5960.866, 707.0210
5962.794, 723.2213
5964.723, 736.5017
5966.651, 729.7690
5968.580, 703.2972
5970.508, 673.8018
5972.437, 690.8219
5974.365, 738.4497
5976.293, 776.1826
5978.222, 789.5020
5980.150, 780.3203
5982.079, 732.1695
5984.007, 766.3046
5985.936, 785.0413
5987.864, 759.0198
5989.793, 744.1130
5991.721, 736.6666
5993.650, 743.6796
5995.578, 745.4982
5997.507, 730.4645
5999.435, 701.5677
6001.364, 710.8040
6003.292, 722.5319
6005.221, 731.4451
6007.149, 733.7455
6009.078, 682.3248
6011.006, 702.3282
6012.935, 724.2544
6014.863, 720.9446
6016.792, 701.2264
6018.720, 718.5264
6020.648, 703.3014
6022.577, 697.9850
6024.505, 704.6677
6026.434, 702.5278
6028.362, 676.5320
6030.291, 716.7278
6032.219, 734.8232
6034.147, 719.8993
6036.076, 717.7214
6038.004, 768.4072
6039.933, 731.0529
6041.861, 683.8975
6043.790, 671.1531
6045.718, 688.2010
6047.647, 678.0825
6049.575, 687.4565
6051.504, 702.2915
6053.432, 710.8560
6055.361, 710.7451
6057.289, 768.7753
6059.218, 754.2115
6061.146, 717.7958
6063.075, 705.2911
6065.003, 732.1490
6066.932, 714.8550
6068.860, 706.0385
6070.789, 731.7527
6072.717, 763.6119
6074.646, 742.3262
6076.574, 699.4748
6078.502, 690.3793
6080.431, 666.5320
6082.359, 647.7656
6084.288, 703.3156
6086.216, 711.6054
6088.145, 756.3183
6090.073, 739.0331
6092.001, 692.3309
6093.930, 719.6794
6095.858, 746.0706
6097.787, 708.7197
6099.715, 661.0961
6101.644, 655.9007
6103.572, 708.7079
6105.501, 698.7504
6107.429, 711.7892
6109.358, 734.3629
6111.286, 760.9647
6113.215, 781.7845
6115.143, 722.7194
6117.072, 730.7104
6119.000, 754.1692
6120.929, 756.7079
6122.857, 735.6176
6124.786, 714.1649
6126.714, 769.8776
6128.643, 761.7731
6130.571, 728.1613
6132.500, 727.4423
6134.428, 785.3796
6136.356, 743.2869
6138.285, 722.0138
6140.213, 731.9627
6142.142, 745.0980
6144.070, 736.3607
6145.999, 766.3052
6147.927, 723.8950
6149.855, 718.0374
6151.784, 749.1616
6153.712, 767.5413
6155.641, 754.9507
6157.569, 764.2764
6159.498, 768.3751
6161.426, 797.5422
6163.355, 814.4782
6165.283, 690.6732
6167.212, 699.0511
6169.140, 751.6900
6171.069, 752.4271
6172.997, 736.5931
6174.926, 782.8555
6176.854, 779.5107
6178.783, 776.1727
6180.711, 789.8777
6182.640, 807.3729
6184.568, 813.9339
6186.497, 810.4385
6188.425, 810.2224
6190.354, 762.2436
6192.282, 746.9000
6194.210, 780.4103
6196.139, 803.9308
6198.067, 802.3451
6199.996, 782.9299
6201.924, 797.0241
6203.853, 823.6247
6205.781, 821.0402
6207.709, 776.1241
6209.638, 767.6240
6211.566, 762.2150
6213.495, 774.0867
6215.423, 802.5055
6217.352, 828.4680
6219.280, 848.2215
6221.209, 810.5500
6223.137, 809.5653
6225.066, 821.8313
6226.994, 813.3185
6228.923, 811.1888
6230.851, 813.3539
6232.780, 814.8339
6234.708, 830.5120
6236.637, 853.8301
6238.565, 864.4565
6240.494, 826.8422
6242.422, 858.1128
6244.351, 884.6684
6246.279, 849.6632
6248.208, 801.2852
6250.136, 838.1880
6252.064, 826.1520
6253.993, 807.5957
6255.921, 802.8764
6257.850, 855.6007
6259.778, 911.9239
6261.707, 810.4867
6263.635, 812.6141
6265.563, 861.2737
6267.492, 895.4403
6269.420, 888.1042
6271.349, 863.8158
6273.277, 895.5264
6275.206, 866.5142
6277.134, 874.6916
6279.063, 888.2342
6280.991, 866.7364
6282.920, 826.2200
6284.848, 868.2746
6286.777, 836.7504
6288.705, 848.7131
6290.634, 854.6390
6292.562, 871.6746
6294.491, 929.2349
6296.419, 878.9265
6298.348, 849.9256
6300.276, 888.8211
6302.205, 901.7639
6304.133, 887.6876
6306.062, 896.4782
6307.990, 848.0331
6309.918, 859.2433
6311.847, 836.8094
6313.775, 818.7479
6315.704, 845.8946
6317.632, 907.5205
6319.561, 895.5294
6321.489, 903.9847
6323.417, 842.2280
6325.346, 844.6709
6327.274, 885.3008
6329.203, 868.9562
6331.131, 861.8605
6333.060, 840.1392
6334.988, 850.4675
6336.917, 862.3594
6338.845, 861.7720
6340.774, 856.8757
6342.702, 858.2097
6344.631, 871.7553
6346.559, 843.2529
6348.488, 851.9003
6350.416, 874.7087
6352.345, 861.3718
6354.273, 816.2288
6356.202, 877.3030
6358.130, 820.0862
6360.059, 825.3044
6361.987, 853.4208
6363.916, 841.5598
6365.844, 812.4667
6367.772, 762.8608
6369.701, 833.7485
6371.629, 859.2690
6373.558, 815.7422
6375.486, 771.8497
6377.415, 784.2346
6379.343, 822.3360
6381.271, 826.0689
6383.200, 802.0485
6385.128, 759.3447
6387.057, 776.2715
6388.985, 839.8249
6390.914, 801.1322
6392.842, 808.2731
6394.771, 795.0135
6396.699, 797.2842
6398.628, 802.6668
6400.556, 801.4796
6402.485, 801.6688
6404.413, 802.9877
6406.342, 794.4463
6408.270, 774.8694
6410.199, 805.5526
6412.127, 811.5952
6414.056, 773.6525
6415.984, 817.8493
6417.913, 802.6196
6419.841, 757.3864
6421.770, 804.3627
6423.698, 832.1044
6425.626, 797.7877
6427.555, 764.3392
6429.483, 782.2356
6431.412, 763.0496
6433.340, 771.3201
6435.269, 715.9943
6437.197, 744.8279
6439.125, 816.7001
6441.054, 738.0382
6442.982, 800.8511
6444.911, 787.4425
6446.839, 782.8285
6448.768, 782.6061
6450.696, 757.7396
6452.625, 735.2452
6454.553, 771.4529
6456.482, 761.0760
6458.410, 753.3833
6460.339, 710.3764
6462.267, 699.7667
6464.196, 718.8987
6466.124, 751.7308
6468.053, 809.7260
6469.981, 806.8961
6471.910, 764.8181
6473.838, 823.8972
6475.767, 781.1846
6477.695, 733.2908
6479.624, 774.9010
6481.552, 751.3474
6483.480, 699.8066
6485.409, 786.9221
6487.337, 766.9158
6489.266, 769.3243
6491.194, 781.9505
6493.123, 764.6444
6495.051, 775.9380
6496.979, 787.8482
6498.908, 730.1184
6500.836, 779.5922
6502.765, 807.5652
6504.693, 780.8364
6506.622, 748.6487
6508.550, 746.2738
6510.479, 761.6713
6512.407, 766.4135
6514.336, 757.3523
6516.264, 781.8145
6518.193, 758.8922
6520.121, 746.6406
6522.050, 804.1324
6523.978, 738.9823
6525.907, 814.1815
6527.835, 749.1060
6529.764, 754.8225
6531.692, 742.2383
6533.621, 725.7584
6535.549, 751.7318
6537.478, 747.5195
6539.406, 680.7513
6541.334, 641.0497
6543.263, 695.1316
6545.191, 707.8842
6547.120, 720.1290
6549.048, 724.1949
6550.977, 671.3763
6552.905, 665.1697
6554.833, 734.4052
6556.762, 717.4544
6558.690, 713.3652
6560.619, 688.7625
6562.547, 658.7538
6564.476, 674.4029
6566.404, 733.4327
6568.333, 666.0341
6570.261, 732.5184
6572.190, 687.0193
6574.118, 654.5422
6576.047, 677.3895
6577.975, 691.3480
6579.904, 688.7610
6581.832, 739.9677
6583.761, 744.5799
6585.689, 714.6912
6587.618, 675.0848
6589.546, 690.7618
6591.475, 685.3328
6593.403, 658.6215
6595.332, 659.5859
6597.260, 674.9475
6599.188, 660.1489
6601.117, 699.7038
6603.045, 754.1801
6604.974, 702.5707
6606.902, 676.7341
6608.831, 694.2268
6610.759, 693.6531
6612.688, 691.8820
6614.616, 664.8744
6616.544, 718.2050
6618.473, 714.6901
6620.401, 727.5580
6622.330, 754.7819
6624.258, 708.1400
6626.187, 611.2716
6628.115, 595.4462
6630.044, 650.5038
##END=



