##NAMES=Kobellite
##RRUFFID=R070669
##IDEAL CHEMISTRY=Pb_11_(Cu,Fe)_2_(Bi,Sb)_15_S_35_
##LOCALITY=Jedlovec (Fichtenhubel) deposit, Smolník ore belt, Slovenske Rudohorie Mts, Koický Kraj, Slovak Republic
##OWNER=RRUFF
##SOURCE=Michael Scott
##DESCRIPTION=Steel gray metallic massive associated with chalcopyrite and siderite
##STATUS=The identification of this mineral is confirmed by single-crystal X-ray diffraction and chemical analysis
##URL=https://www.rruff.net/odr/rruff_sample/R070669
##MEASURED CHEMISTRY=(Pb_9.66_Ag_0.25_Bi_0.94_)(Cu_1.40_Fe_0.61_)(Sb_7.71_Bi_7.29_)S_35_
##DIFFRACTION SAMPLE DESCRIPTION=Single crystal, powder profile is calculated
##CELL PARAMETERS=a: 34.053 b: 22.503 c: 4.024 alpha: 90 beta: 90.053 gamma: 90 volume: 3083.4 crystal system: orthorhombic
##FILETYPE=Raman RAW
##RAMAN WAVELENGTH=780

136.9114, 1891.423
138.8398, 1886.082
140.7683, 1878.163
142.6968, 1862.710
144.6252, 1848.805
146.5537, 1855.263
148.4822, 1885.602
150.4106, 1899.765
152.3391, 1886.924
154.2676, 1874.397
156.1960, 1870.816
158.1245, 1874.718
160.0530, 1889.137
161.9814, 1915.441
163.9099, 1926.660
165.8384, 1914.511
167.7668, 1902.895
169.6953, 1902.476
171.6238, 1906.213
173.5522, 1907.267
175.4807, 1905.713
177.4092, 1905.388
179.3376, 1906.693
181.2661, 1907.768
183.1946, 1909.583
185.1230, 1908.586
187.0515, 1900.519
188.9800, 1887.343
190.9084, 1879.180
192.8369, 1876.885
194.7654, 1870.641
196.6938, 1851.184
198.6223, 1834.816
200.5508, 1830.087
202.4792, 1834.813
204.4077, 1844.786
206.3362, 1860.120
208.2646, 1867.537
210.1931, 1860.266
212.1216, 1853.202
214.0500, 1851.371
215.9785, 1851.463
217.9070, 1850.905
219.8354, 1850.784
221.7639, 1846.668
223.6924, 1833.492
225.6208, 1825.594
227.5493, 1832.736
229.4778, 1841.737
231.4063, 1837.211
233.3347, 1824.015
235.2632, 1825.168
237.1917, 1845.336
239.1201, 1857.932
241.0486, 1847.949
242.9771, 1837.130
244.9055, 1838.101
246.8340, 1845.158
248.7625, 1846.287
250.6909, 1840.971
252.6194, 1831.446
254.5479, 1815.471
256.4763, 1800.595
258.4048, 1788.619
260.3333, 1778.303
262.2617, 1772.093
264.1902, 1767.852
266.1187, 1753.740
268.0471, 1725.172
269.9756, 1697.534
271.9041, 1677.766
273.8325, 1655.945
275.7610, 1627.009
277.6895, 1593.917
279.6179, 1560.563
281.5464, 1526.777
283.4749, 1493.815
285.4033, 1463.511
287.3318, 1432.104
289.2603, 1399.439
291.1887, 1369.931
293.1172, 1343.272
295.0457, 1314.142
296.9741, 1286.250
298.9026, 1265.775
300.8311, 1240.010
302.7595, 1197.453
304.6880, 1163.216
306.6165, 1147.019
308.5449, 1137.081
310.4734, 1121.302
312.4019, 1103.334
314.3303, 1093.988
316.2588, 1096.576
318.1873, 1095.774
320.1157, 1095.075
322.0442, 1085.525
323.9727, 1058.969
325.9011, 1023.874
327.8296, 990.1092
329.7581, 957.2613
331.6865, 921.7548
333.6150, 880.2056
335.5435, 845.8681
337.4719, 823.1465
339.4004, 802.7867
341.3289, 780.9261
343.2573, 760.5515
345.1858, 744.1068
347.1143, 729.6582
349.0427, 714.9440
350.9712, 703.7396
352.8997, 688.8369
354.8281, 660.9332
356.7566, 638.7034
358.6851, 635.2294
360.6135, 639.1169
362.5420, 636.8024
364.4705, 629.5383
366.3989, 628.3666
368.3274, 641.2220
370.2559, 642.9224
372.1843, 624.7562
374.1128, 608.1368
376.0413, 603.7723
377.9697, 601.3390
379.8982, 589.1800
381.8267, 570.9037
383.7551, 565.4929
385.6836, 582.9682
387.6121, 588.3359
389.5405, 571.2532
391.4690, 558.9334
393.3975, 564.7194
395.3259, 572.9103
397.2544, 570.1851
399.1829, 560.4832
401.1113, 557.1531
403.0398, 563.6955
404.9683, 566.0776
406.8967, 560.9928
408.8252, 556.1017
410.7537, 552.2865
412.6821, 551.6782
414.6106, 559.7514
416.5391, 568.6067
418.4675, 563.6380
420.3960, 543.6929
422.3245, 534.9910
424.2529, 542.2842
426.1814, 546.8638
428.1099, 546.2215
430.0383, 545.2085
431.9668, 545.8082
433.8953, 546.5114
435.8237, 546.3254
437.7522, 545.3696
439.6807, 544.5724
441.6091, 545.6189
443.5376, 542.6361
445.4661, 530.6151
447.3945, 522.6979
449.3230, 527.0463
451.2515, 533.1570
453.1799, 533.8524
455.1084, 531.4486
457.0369, 530.2228
458.9653, 530.3126
460.8938, 528.4011
462.8223, 524.2570
464.7507, 520.7023
466.6792, 517.1241
468.6077, 515.2878
470.5361, 518.9601
472.4646, 519.9745
474.3931, 511.0333
476.3215, 498.6335
478.2500, 491.8460
480.1785, 489.8996
482.1069, 494.8210
484.0354, 510.0572
485.9639, 516.2591
487.8923, 506.3398
489.8208, 496.3969
491.7493, 494.0343
493.6777, 493.3571
495.6062, 489.6025
497.5347, 483.9316
499.4631, 480.3731
501.3916, 481.8275
503.3201, 487.2170
505.2485, 493.8609
507.1770, 495.8958
509.1055, 492.3802
511.0339, 488.5076
512.9624, 485.2852
514.8909, 484.5214
516.8193, 489.7260
518.7478, 495.0796
520.6763, 491.9390
522.6047, 481.8347
524.5332, 475.0272
526.4617, 472.3427
528.3901, 467.7975
530.3186, 457.8608
532.2471, 453.3374
534.1755, 465.8591
536.1040, 473.1601
538.0325, 459.3143
539.9609, 442.6232
541.8894, 443.4870
543.8179, 454.5708
545.7463, 455.3577
547.6748, 448.3504
549.6033, 444.6832
551.5317, 443.8864
553.4602, 444.7465
555.3887, 449.2509
557.3171, 450.4360
559.2456, 444.4683
561.1741, 438.8629
563.1025, 437.3248
565.0310, 438.2071
566.9595, 442.0643
568.8879, 445.6216
570.8164, 440.5411
572.7449, 429.2289
574.6733, 423.1173
576.6018, 422.8933
578.5303, 423.6431
580.4587, 426.0154
582.3872, 428.1244
584.3157, 430.5201
586.2441, 431.4170
588.1726, 427.5975
590.1011, 421.6913
592.0295, 419.2267
593.9580, 420.5988
595.8865, 419.0884
597.8149, 412.8275
599.7434, 409.2375
601.6719, 412.0282
603.6003, 414.8859
605.5288, 413.5673
607.4573, 411.1057
609.3857, 409.8395
611.3142, 408.9804
613.2427, 407.6118
615.1711, 404.1441
617.0996, 396.0491
619.0281, 388.5131
620.9565, 388.4512
622.8850, 392.3811
624.8135, 389.6996
626.7419, 379.5905
628.6704, 378.6120
630.5989, 395.0632
632.5273, 402.3873
634.4558, 393.2169
636.3843, 385.6380
638.3127, 384.2860
640.2412, 383.9928
642.1697, 384.2578
644.0981, 384.3375
646.0266, 379.8879
647.9551, 374.2320
649.8835, 375.5111
651.8120, 382.7665
653.7405, 384.5824
655.6689, 378.1085
657.5974, 374.7313
659.5259, 379.1799
661.4543, 383.4579
663.3828, 384.1675
665.3113, 384.9644
667.2397, 391.1500
669.1682, 393.9599
671.0967, 385.1023
673.0251, 373.6920
674.9536, 365.2059
676.8821, 359.7932
678.8105, 360.8495
680.7390, 367.8337
682.6675, 370.0424
684.5959, 363.0240
686.5244, 363.3484
688.4529, 382.5609
690.3813, 390.3837
692.3098, 378.6135
694.2383, 371.5673
696.1667, 377.7501
698.0952, 379.8615
700.0237, 366.9868
701.9521, 355.5096
703.8806, 357.8313
705.8091, 363.4379
707.7375, 362.2832
709.6660, 352.0757
711.5945, 359.9522
713.5229, 364.2754
715.4514, 365.2364
717.3799, 352.7644
719.3083, 357.6382
721.2368, 355.5607
723.1653, 353.1981
725.0938, 360.5132
727.0222, 349.9951
728.9507, 357.1568
730.8792, 357.2610
732.8076, 360.5952
734.7361, 356.9352
736.6646, 355.4354
738.5930, 360.9322
740.5215, 362.5550
742.4500, 358.0897
744.3784, 361.6293
746.3069, 350.8668
748.2354, 352.6546
750.1638, 359.8572
752.0923, 355.7437
754.0208, 359.4111
755.9492, 360.1151
757.8777, 347.3515
759.8062, 358.0094
761.7346, 358.5383
763.6631, 348.6669
765.5916, 358.5223
767.5200, 350.0847
769.4485, 348.1765
771.3770, 351.1823
773.3054, 349.0655
775.2339, 355.0249
777.1624, 353.2039
779.0908, 350.6878
781.0193, 351.2054
782.9478, 343.1264
784.8762, 350.9956
786.8047, 347.9709
788.7332, 350.3614
790.6616, 353.9792
792.5901, 348.1988
794.5186, 352.3681
796.4470, 341.1077
798.3755, 342.7579
800.3040, 343.0179
802.2324, 351.5300
804.1609, 346.7380
806.0894, 345.6870
808.0178, 344.7647
809.9463, 344.4599
811.8748, 344.9092
813.8032, 347.3448
815.7317, 347.1084
817.6602, 341.3740
819.5886, 337.6009
821.5171, 339.6974
823.4456, 340.6629
825.3740, 335.5046
827.3025, 331.1158
829.2310, 333.0670
831.1594, 337.0484
833.0879, 340.3227
835.0164, 343.6678
836.9448, 344.3986
838.8733, 340.3152
840.8018, 333.1934
842.7302, 327.1406
844.6587, 329.6771
846.5872, 338.6193
848.5156, 340.3530
850.4441, 334.2182
852.3726, 334.1425
854.3010, 342.4569
856.2295, 344.0723
858.1580, 336.1718
860.0864, 332.8719
862.0149, 336.3289
863.9434, 336.0913
865.8718, 328.9440
867.8003, 326.3553
869.7288, 332.7989
871.6572, 337.6383
873.5857, 338.1095
875.5142, 338.5013
877.4426, 340.5705
879.3711, 340.3161
881.2996, 334.6147
883.2280, 328.0693
885.1565, 323.1713
887.0850, 320.5953
889.0134, 321.1112
890.9419, 322.3655
892.8704, 324.0269
894.7988, 328.0880
896.7273, 332.3542
898.6558, 334.4780
900.5842, 337.4490
902.5127, 340.8203
904.4412, 338.4341
906.3696, 333.4022
908.2981, 334.2409
910.2266, 337.7329
912.1550, 336.3318
914.0835, 331.7382
916.0120, 330.5484
917.9404, 332.6307
919.8689, 330.3642
921.7974, 321.5241
923.7258, 318.6333
925.6543, 324.3725
927.5828, 328.2399
929.5112, 330.3006
931.4397, 327.5715
933.3682, 316.9669
935.2966, 312.7093
937.2251, 319.5519
939.1536, 324.1734
941.0820, 322.0956
943.0105, 321.2403
944.9390, 327.0900
946.8674, 328.2070
948.7959, 316.3188
950.7244, 306.4635
952.6528, 305.7056
954.5813, 308.2729
956.5098, 312.0630
958.4382, 315.7254
960.3667, 319.3964
962.2952, 322.2415
964.2236, 323.8086
966.1521, 325.5402
968.0806, 328.8421
970.0090, 329.5638
971.9375, 323.4365
973.8660, 317.5002
975.7944, 316.0839
977.7229, 316.0043
979.6514, 317.0035
981.5798, 318.9339
983.5083, 319.9776
985.4368, 320.4469
987.3652, 322.9932
989.2937, 325.1619
991.2222, 321.4438
993.1506, 316.1573
995.0791, 314.9708
997.0076, 315.0511
998.9360, 314.1573
1000.865, 312.9141
1002.793, 310.8849
1004.721, 309.7607
1006.650, 314.2185
1008.578, 318.6001
1010.507, 309.4485
1012.435, 297.5709
1014.364, 304.2936
1016.292, 318.1182
1018.221, 319.3982
1020.149, 315.4006
1022.078, 318.5046
1024.006, 323.5707
1025.935, 319.7318
1027.863, 311.4791
1029.792, 308.1422
1031.720, 307.2872
1033.648, 305.7529
1035.577, 305.3854
1037.505, 307.7110
1039.434, 310.5506
1041.362, 311.6453
1043.291, 311.7438
1045.219, 308.8141
1047.148, 304.6384
1049.076, 309.5270
1051.005, 318.1899
1052.933, 311.5938
1054.862, 297.9900
1056.790, 299.2728
1058.719, 308.8469
1060.647, 311.1648
1062.575, 306.8178
1064.504, 296.6589
1066.432, 286.3900
1068.361, 288.8596
1070.289, 297.3988
1072.218, 299.8572
1074.146, 299.7081
1076.075, 302.1797
1078.003, 305.2610
1079.932, 304.9415
1081.860, 303.4912
1083.789, 305.1243
1085.717, 306.7228
1087.646, 306.0341
1089.574, 306.6359
1091.502, 309.2324
1093.431, 309.7665
1095.359, 307.2360
1097.288, 304.2729
1099.216, 300.3311
1101.145, 297.0927
1103.073, 297.6322
1105.002, 299.8124
1106.930, 300.9411
1108.859, 301.6732
1110.787, 304.6979
1112.716, 307.3254
1114.644, 305.7962
1116.573, 303.9519
1118.501, 305.3797
1120.429, 305.8969
1122.358, 301.3307
1124.286, 296.8709
1126.215, 296.8711
1128.143, 297.3801
1130.072, 293.9490
1132.000, 292.7773
1133.929, 300.5764
1135.857, 307.8759
1137.786, 308.5826
1139.714, 307.2693
1141.643, 306.1434
1143.571, 306.3692
1145.500, 307.6741
1147.428, 306.1311
1149.356, 300.7914
1151.285, 298.7690
1153.213, 302.5089
1155.142, 305.6114
1157.070, 306.2620
1158.999, 305.3434
1160.927, 302.9251
1162.856, 303.4163
1164.784, 307.4232
1166.713, 309.4726
1168.641, 309.3091
1170.570, 310.6270
1172.498, 312.9856
1174.427, 311.1368
1176.355, 306.3356
1178.283, 308.8395
1180.212, 317.0942
1182.140, 317.3305
1184.069, 310.3847
1185.997, 306.0951
1187.926, 304.8172
1189.854, 308.8390
1191.783, 316.6487
1193.711, 317.6934
1195.640, 312.8063
1197.568, 306.6346
1199.497, 302.5919
1201.425, 307.4505
1203.354, 314.4333
1205.282, 310.7578
1207.210, 303.9940
1209.139, 307.6161
1211.067, 314.3960
1212.996, 313.5433
1214.924, 310.1807
1216.853, 309.9660
1218.781, 312.1331
1220.710, 316.3546
1222.638, 318.4818
1224.567, 317.2120
1226.495, 315.9022
1228.424, 312.5996
1230.352, 310.0198
1232.281, 311.7238
1234.209, 313.3858
1236.137, 312.8007
1238.066, 314.2508
1239.994, 320.1077
1241.923, 322.3267
1243.851, 318.3206
1245.780, 316.3949
1247.708, 318.0752
1249.637, 322.8220
1251.565, 329.7100
1253.494, 330.4116
1255.422, 324.8492
1257.351, 317.4624
1259.279, 311.5546
1261.208, 311.7797
1263.136, 314.8324
1265.064, 317.0031
1266.993, 318.5429
1268.921, 319.8817
1270.850, 320.2559
1272.778, 317.8695
1274.707, 316.7847
1276.635, 321.9304
1278.564, 326.2007
1280.492, 324.5458
1282.421, 321.9964
1284.349, 320.3177
1286.278, 320.4802
1288.206, 322.4121
1290.135, 322.3417
1292.063, 319.2552
1293.991, 319.4355
1295.920, 325.0859
1297.848, 324.0898
1299.777, 316.4434
1301.705, 321.2367
1303.634, 334.3288
1305.562, 333.1309
1307.491, 323.6989
1309.419, 325.1501
1311.348, 331.5443
1313.276, 328.3418
1315.205, 323.5934
1317.133, 328.9918
1319.062, 333.7138
1320.990, 330.9333
1322.918, 329.1210
1324.847, 330.9238
1326.775, 331.8559
1328.704, 332.5947
1330.632, 328.8776
1332.561, 317.7141
1334.489, 314.6385
1336.418, 321.6473
1338.346, 324.2342
1340.275, 322.6089
1342.203, 321.0490
1344.132, 319.9885
1346.060, 326.4608
1347.989, 334.6209
1349.917, 328.1945
1351.845, 317.4513
1353.774, 313.9491
1355.702, 314.8937
1357.631, 324.6725
1359.559, 330.0847
1361.488, 319.8874
1363.416, 312.1394
1365.345, 313.0201
1367.273, 314.1462
1369.202, 313.5883
1371.130, 310.2982
1373.059, 304.9313
1374.987, 305.0163
1376.916, 309.3372
1378.844, 309.8898
1380.772, 308.4395
1382.701, 309.6368
1384.629, 310.6976
1386.558, 306.7224
1388.486, 303.3765
1390.415, 306.7939
1392.343, 309.3916
1394.272, 306.0657
1396.200, 303.5462
1398.129, 303.9675
1400.057, 303.4932
1401.986, 301.3332
1403.914, 305.7906
1405.843, 316.0887
1407.771, 314.3864
1409.699, 304.1251
1411.628, 299.9308
1413.556, 299.9959
1415.485, 293.7858
1417.413, 301.0673
1419.342, 304.7951
1421.270, 305.1611
1423.199, 292.0938
1425.127, 296.3726
1427.056, 293.6996
1428.984, 290.7420
1430.913, 297.4617
1432.841, 286.3486
1434.770, 292.9149
1436.698, 292.4241
1438.626, 295.1634
1440.555, 290.9078
1442.483, 288.8131
1444.412, 293.7145
1446.340, 294.7423
1448.269, 289.6816
1450.197, 292.6262
1452.126, 281.2683
1454.054, 282.4611
1455.983, 289.0682
1457.911, 284.3597
1459.840, 287.4318
1461.768, 287.5408
1463.697, 274.1818
1465.625, 284.2447
1467.553, 284.1786
1469.482, 273.7117
1471.410, 282.9721
1473.339, 273.9391
1475.267, 271.4360
1477.196, 273.8462
1479.124, 271.1345
1481.053, 276.4985
1482.981, 274.0825
1484.910, 270.9709
1486.838, 270.8935
1488.767, 262.2192
1490.695, 269.4934
1492.624, 265.8732
1494.552, 267.6686
1496.480, 266.1739
1498.409, 271.9496
1500.337, 277.4334
1502.266, 280.2786
1504.194, 283.4218
1506.123, 287.8391
1508.051, 284.5853
1509.980, 272.8860
1511.908, 267.0370
1513.837, 266.9760
1515.765, 268.1496
1517.694, 270.0103
1519.622, 274.0692
1521.551, 275.4800
1523.479, 268.5753
1525.407, 265.3358
1527.336, 269.2639
1529.264, 272.1033
1531.193, 273.2313
1533.121, 273.7801
1535.050, 272.7134
1536.978, 272.9913
1538.907, 274.8805
1540.835, 277.6043
1542.764, 278.4966
1544.692, 273.2902
1546.621, 270.1328
1548.549, 273.3371
1550.478, 273.3466
1552.406, 269.4323
1554.334, 269.3535
1556.263, 273.0020
1558.191, 267.9276
1560.120, 275.2791
1562.048, 279.0777
1563.977, 279.5135
1565.905, 266.5169
1567.834, 270.8657
1569.762, 268.2635
1571.691, 265.3757
1573.619, 272.1662
1575.548, 261.1230
1577.476, 267.7600
1579.405, 267.3392
1581.333, 270.1487
1583.261, 265.9640
1585.190, 263.9392
1587.118, 268.9113
1589.047, 270.0090
1590.975, 265.0191
1592.904, 268.0336
1594.832, 256.7464
1596.761, 258.0092
1598.689, 264.6871
1600.618, 260.0484
1602.546, 263.1912
1604.475, 263.3702
1606.403, 250.0819
1608.332, 260.2147
1610.260, 260.2190
1612.188, 249.8229
1614.117, 259.1532
1616.045, 250.1909
1617.974, 247.7577
1619.902, 250.2387
1621.831, 247.5968
1623.759, 253.0316
1625.688, 250.6856
1627.616, 247.6448
1629.545, 247.6372
1631.473, 239.0336
1633.402, 246.3778
1635.330, 246.2026
1637.259, 243.9972
1639.187, 240.1929
1641.115, 237.5605
1643.044, 234.4912
1644.972, 234.1652
1646.901, 234.9481
1648.829, 236.9935
1650.758, 241.2320
1652.686, 239.7877
1654.615, 235.8946
1656.543, 233.8027
1658.472, 232.9995
1660.400, 233.6255
1662.329, 232.6029
1664.257, 229.1546
1666.186, 226.1586
1668.114, 225.6537
1670.042, 224.0867
1671.971, 220.8579
1673.899, 220.6344
1675.828, 225.4205
1677.756, 235.0547
1679.685, 236.1745
1681.613, 231.5189
1683.542, 225.6421
1685.470, 218.4893
1687.399, 218.8187
1689.327, 220.1459
1691.256, 221.0856
1693.184, 221.5086
1695.113, 216.2881
1697.041, 215.8340
1698.969, 221.2252
1700.898, 218.4368
1702.826, 210.3856
1704.755, 209.8311
1706.683, 213.1200
1708.612, 213.0876
1710.540, 211.7219
1712.469, 215.2980
1714.397, 219.7944
1716.326, 217.9474
1718.254, 211.3423
1720.183, 206.3887
1722.111, 205.9918
1724.040, 206.0122
1725.968, 207.5874
1727.896, 210.2827
1729.825, 210.9460
1731.753, 208.6425
1733.682, 207.5173
1735.610, 208.5948
1737.539, 206.4161
1739.467, 201.4868
1741.396, 200.0652
1743.324, 204.9962
1745.253, 210.9168
1747.181, 212.0570
1749.110, 207.8403
1751.038, 204.4639
1752.967, 206.2325
1754.895, 210.0357
1756.823, 206.4506
1758.752, 201.6964
1760.680, 203.0150
1762.609, 203.9727
1764.537, 205.2729
1766.466, 204.7342
1768.394, 201.7944
1770.323, 204.3273
1772.251, 205.5230
1774.180, 201.8088
1776.108, 201.9922
1778.037, 205.2562
1779.965, 201.1564
1781.894, 194.7080
1783.822, 195.4010
1785.750, 197.3980
1787.679, 198.0633
1789.607, 197.6042
1791.536, 195.4329
1793.464, 198.4124
1795.393, 199.0876
1797.321, 194.9348
1799.250, 194.5820
1801.178, 194.3496
1803.107, 195.0181
1805.035, 196.4400
1806.964, 187.7845
1808.892, 181.2778
1810.821, 179.9019
1812.749, 187.8430
1814.677, 192.2309
1816.606, 193.2564
1818.534, 180.8491
1820.463, 185.7875
1822.391, 183.7746
1824.320, 181.4765
1826.248, 188.8563
1828.177, 178.4027
1830.105, 185.6290
1832.034, 185.7978
1833.962, 189.1967
1835.891, 185.6012
1837.819, 184.1660
1839.748, 189.7274
1841.676, 191.4148
1843.604, 187.0142
1845.533, 190.6183
1847.461, 179.9205
1849.390, 181.7728
1851.318, 189.0400
1853.247, 184.9910
1855.175, 188.7231
1857.104, 189.4917
1859.032, 176.7927
1860.961, 187.5152
1862.889, 184.1175
1864.818, 184.7836
1866.746, 183.3686
1868.675, 176.2859
1870.603, 172.5054
1872.531, 176.4807
1874.460, 181.9727
1876.388, 177.7887
1878.317, 166.2214
1880.245, 163.6925
1882.174, 169.2449
1884.102, 168.1265
1886.031, 167.0108
1887.959, 168.5852
1889.888, 170.6012
1891.816, 172.8578
1893.745, 169.9700
1895.673, 167.7313
1897.602, 173.9384
1899.530, 176.3468
1901.458, 169.8191
1903.387, 168.0100
1905.315, 173.2347
1907.244, 171.0665
1909.172, 163.4783
1911.101, 165.3989
1913.029, 165.4817
1914.958, 158.2227
1916.886, 158.8006
1918.815, 162.1692
1920.743, 161.8535
1922.672, 162.8816
1924.600, 164.1763
1926.529, 164.7157
1928.457, 165.9820
1930.385, 163.4926
1932.314, 158.3428
1934.242, 159.7289
1936.171, 162.0085
1938.099, 161.2270
1940.028, 161.8070
1941.956, 160.9591
1943.885, 160.3167
1945.813, 162.0750
1947.742, 160.6468
1949.670, 156.2214
1951.599, 152.8789
1953.527, 150.1946
1955.456, 150.7309
1957.384, 155.7924
1959.313, 158.9220
1961.241, 160.6384
1963.169, 157.5737
1965.098, 151.6559
1967.026, 150.8862
1968.955, 151.6621
1970.883, 152.3202
1972.812, 154.1069
1974.740, 149.6714
1976.669, 143.3249
1978.597, 140.8345
1980.526, 148.4951
1982.454, 152.6025
1984.383, 153.3474
1986.311, 140.6597
1988.240, 145.3175
1990.168, 143.0242
1992.096, 140.4458
1994.025, 147.5449
1995.953, 136.8110
1997.882, 143.7566
1999.810, 143.6451
2001.739, 146.7633
2003.667, 142.8874
2005.596, 141.1717
2007.524, 146.4527
2009.453, 147.8594
2011.381, 143.1784
2013.310, 146.5019
2015.238, 135.5237
2017.167, 137.0954
2019.095, 144.0823
2021.023, 139.7529
2022.952, 143.2043
2024.880, 143.6926
2026.809, 130.7130
2028.737, 141.1551
2030.666, 141.4679
2032.594, 131.3807
2034.523, 141.0201
2036.451, 132.3667
2038.380, 130.2425
2040.308, 133.0325
2042.237, 130.6996
2044.165, 136.4433
2046.094, 134.4063
2048.022, 131.6744
2049.950, 131.9761
2051.879, 123.6812
2053.807, 131.3346
2055.736, 128.0939
2057.664, 130.2685
2059.593, 133.6703
2061.521, 127.6741
2063.450, 127.2353
2065.378, 128.4565
2067.307, 134.9213
2069.235, 132.7563
2071.164, 130.2076
2073.092, 134.2486
2075.021, 134.9360
2076.949, 130.4971
2078.877, 128.3359
2080.806, 125.3049
2082.734, 122.8371
2084.663, 120.3074
2086.591, 121.3503
2088.520, 125.0721
2090.448, 121.3744
2092.377, 121.7219
2094.305, 122.6820
2096.234, 125.0726
2098.162, 127.3366
2100.091, 122.9498
2102.019, 120.7363
2103.948, 120.3820
2105.876, 115.7125
2107.804, 118.3601
2109.733, 123.2707
2111.661, 123.7311
2113.590, 123.2443
2115.518, 124.8004
2117.447, 125.0200
2119.375, 121.7273
2121.304, 113.3812
2123.232, 112.7934
2125.161, 122.2882
2127.089, 124.9839
2129.018, 123.8315
2130.946, 119.7152
2132.875, 117.5704
2134.803, 118.3799
2136.731, 120.5282
2138.660, 119.4081
2140.588, 116.8612
2142.517, 115.5197
2144.445, 114.4061
2146.374, 112.9688
2148.302, 109.8420
2150.231, 111.0264
2152.159, 117.3978
2154.088, 115.4322
2156.016, 109.7693
2157.945, 113.3916
2159.873, 115.2376
2161.802, 115.4021
2163.730, 108.8505
2165.658, 110.9717
2167.587, 109.6170
2169.515, 108.1200
2171.444, 111.4617
2173.372, 105.8869
2175.301, 109.1518
2177.229, 108.8883
2179.158, 110.2395
2181.086, 108.0938
2183.015, 107.0280
2184.943, 109.4606
2186.872, 109.9561
2188.800, 107.4078
2190.729, 108.8617
2192.657, 103.1648
2194.585, 103.7430
2196.514, 107.0284
2198.442, 104.6559
2200.371, 106.1737
2202.299, 106.2100
2204.228, 99.51230
2206.156, 104.5256
2208.085, 104.4741
2210.013, 99.22271
2211.942, 103.8345
2213.870, 99.29995
2215.799, 98.02998
2217.727, 99.21715
2219.656, 97.84285
2221.584, 100.5069
2223.512, 99.28071
2225.441, 97.70674
2227.369, 97.64982
2229.298, 93.29440
2231.226, 96.91331
2233.155, 95.08506
2235.083, 95.96458
2237.012, 97.45758
2238.940, 94.25169
2240.869, 96.02044
2242.797, 90.07452
2244.726, 90.58372
2246.654, 90.39802
2248.583, 94.33817
2250.511, 88.42992
2252.439, 88.75998
2254.368, 91.74601
2256.296, 91.01564
2258.225, 91.83894
2260.153, 88.06220
2262.082, 88.60688
2264.010, 90.50097
2265.939, 89.70670
2267.867, 82.29898
2269.796, 77.14538
2271.724, 85.53397
2273.653, 91.96516
2275.581, 91.55523
2277.510, 88.64636
2279.438, 85.26685
2281.366, 83.99942
2283.295, 82.07751
2285.223, 82.83497
2287.152, 84.59680
2289.080, 83.54409
2291.009, 82.44102
2292.937, 78.70390
2294.866, 79.53602
2296.794, 84.42162
2298.723, 84.87180
2300.651, 82.98388
2302.580, 80.34896
2304.508, 77.98987
2306.437, 76.72667
2308.365, 71.87392
2310.293, 75.77671
2312.222, 77.90280
2314.150, 78.34780
2316.079, 72.07628
2318.007, 74.47773
2319.936, 73.40341
2321.864, 72.18665
2323.793, 75.80869
2325.721, 70.51415
2327.650, 74.05946
2329.578, 74.07610
2331.507, 75.70766
2333.435, 73.84217
2335.364, 73.05676
2337.292, 75.76970
2339.220, 76.54562
2341.149, 74.27746
2343.077, 76.01178
2345.006, 70.59499
2346.934, 71.45341
2348.863, 75.01918
2350.791, 72.92694
2352.720, 74.72513
2354.648, 75.04167
2356.577, 68.62435
2358.505, 73.91784
2360.434, 74.14672
2362.362, 69.17556
2364.291, 74.06770
2366.219, 69.81344
2368.147, 68.82391
2370.076, 70.29124
2372.004, 69.19738
2373.933, 72.14154
2375.861, 71.19559
2377.790, 69.90199
2379.718, 70.12529
2381.647, 66.05031
2383.575, 69.94944
2385.504, 68.40155
2387.432, 69.56130
2389.361, 71.33465
2391.289, 68.40898
2393.218, 70.45810
2395.146, 64.79247
2397.074, 65.58211
2399.003, 65.67655
2400.931, 69.89716
2402.860, 64.26903
2404.788, 64.87932
2406.717, 68.14571
2408.645, 67.69557
2410.574, 68.79929
2412.502, 65.30278
2414.431, 66.12783
2416.359, 65.76176
2418.288, 69.51186
2420.216, 70.01244
2422.145, 66.59392
2424.073, 61.42184
2426.001, 54.88730
2427.930, 50.57448
2429.858, 59.28807
2431.787, 62.69099
2433.715, 61.61514
2435.644, 67.48426
2437.572, 68.92433
2439.501, 59.99053
2441.429, 58.67928
2443.358, 62.81967
2445.286, 64.88633
2447.215, 60.48403
2449.143, 54.81747
2451.072, 50.26959
2453.000, 45.65891
2454.928, 44.06936
2456.857, 49.84777
2458.785, 54.31332
2460.714, 56.23791
2462.642, 54.50836
2464.571, 51.05095
2466.499, 48.15255
2468.428, 53.55021
2470.356, 54.81170
2472.285, 47.39522
2474.213, 50.89837
2476.142, 55.27325
2478.070, 54.18352
2479.999, 49.67536
2481.927, 46.28420
2483.855, 52.31722
2485.784, 61.91195
2487.712, 67.79603
2489.641, 57.89729
2491.569, 52.73838
2493.498, 52.79666
2495.426, 50.05941
2497.355, 49.28590
2499.283, 50.78585
2501.212, 49.14317
2503.140, 47.44931
2505.069, 46.86800
2506.997, 50.25458
2508.926, 50.14186
2510.854, 44.01444
2512.782, 50.75333
2514.711, 52.76276
2516.639, 42.42003
2518.568, 42.35364
2520.496, 45.91193
2522.425, 49.74845
2524.353, 52.41496
2526.282, 54.34077
2528.210, 54.35113
2530.139, 50.00698
2532.067, 47.46575
2533.996, 50.03421
2535.924, 51.61510
2537.853, 52.97494
2539.781, 48.73583
2541.709, 45.14778
2543.638, 45.31258
2545.566, 46.41704
2547.495, 53.09856
2549.423, 60.08288
2551.352, 46.79841
2553.280, 35.46189
2555.209, 29.81718
2557.137, 35.21243
2559.066, 42.98657
2560.994, 46.88436
2562.923, 40.34655
2564.851, 37.18181
2566.780, 38.77541
2568.708, 36.24368
2570.636, 37.03123
2572.565, 40.64624
2574.493, 40.84724
2576.422, 42.12614
2578.350, 47.56073
2580.279, 52.13769
2582.207, 48.76294
2584.136, 35.36799
2586.064, 35.16898
2587.993, 36.94207
2589.921, 36.91541
2591.850, 37.77374
2593.778, 38.80827
2595.707, 34.00529
2597.635, 36.45021
2599.563, 40.30897
2601.492, 36.30086
2603.420, 33.71072
2605.349, 33.60200
2607.277, 39.24641
2609.206, 37.17297
2611.134, 33.40031
2613.063, 31.94250
2614.991, 35.98067
2616.920, 39.68321
2618.848, 34.55132
2620.777, 34.69737
2622.705, 35.91179
2624.634, 32.16548
2626.562, 35.07903
2628.490, 32.31838
2630.419, 23.05838
2632.347, 22.00310
2634.276, 26.05847
2636.204, 34.37846
2638.133, 39.08699
2640.061, 36.16550
2641.990, 29.03096
2643.918, 28.83227
2645.847, 28.79522
2647.775, 30.97253
2649.704, 30.21554
2651.632, 31.97180
2653.561, 36.30305
2655.489, 31.58188
2657.417, 30.57427
2659.346, 33.88951
2661.274, 27.92092
2663.203, 25.65775
2665.131, 31.23368
2667.060, 31.66542
2668.988, 26.20499
2670.917, 19.24992
2672.845, 23.90347
2674.774, 27.25035
2676.702, 21.93082
2678.631, 28.88914
2680.559, 33.15111
2682.488, 29.08393
2684.416, 24.64627
2686.344, 21.28642
2688.273, 24.49834
2690.201, 24.86490
2692.130, 22.62929
2694.058, 22.13726
2695.987, 19.93819
2697.915, 24.18638
2699.844, 28.33200
2701.772, 14.25460
2703.701, 17.56410
2705.629, 28.41447
2707.558, 36.01481
2709.486, 39.95686
2711.415, 33.88998
2713.343, 21.00238
2715.271, 28.12900
2717.200, 37.01054
2719.128, 26.15576
2721.057, 20.65946
2722.985, 21.68604
2724.914, 23.81342
2726.842, 25.10390
2728.771, 26.43617
2730.699, 31.10782
2732.628, 27.17909
2734.556, 22.81420
2736.485, 23.55900
2738.413, 23.55392
2740.342, 23.70721
2742.270, 23.73010
2744.198, 17.32438
2746.127, 16.74503
2748.055, 21.12713
2749.984, 18.56767
2751.912, 14.34604
2753.841, 17.92486
2755.769, 28.58816
2757.698, 24.96805
2759.626, 19.64360
2761.555, 26.01509
2763.483, 19.01520
2765.412, 18.87780
2767.340, 26.31596
2769.269, 18.75470
2771.197, 19.40065
2773.125, 32.11347
2775.054, 30.46791
2776.982, 22.86544
2778.911, 18.66439
2780.839, 17.06787
2782.768, 9.965774
2784.696, 7.390639
2786.625, 20.72476
2788.553, 23.70348
2790.482, 23.14489
2792.410, 20.00303
2794.339, 16.14489
2796.267, 14.92126
2798.196, 14.24691
2800.124, 13.64535
2802.052, 16.85599
2803.981, 17.29935
2805.909, 17.46190
2807.838, 11.59251
2809.766, 6.594847
2811.695, 12.15958
2813.623, 19.64232
2815.552, 21.69937
2817.480, 8.965003
2819.409, 7.527609
2821.337, 13.05955
2823.266, 18.74760
2825.194, 25.82946
2827.123, 28.91483
2829.051, 26.15587
2830.979, 14.97764
2832.908, 14.73144
2834.836, 22.22964
2836.765, 13.72326
2838.693, 13.13208
2840.622, 16.32773
2842.550, 16.37273
2844.479, 14.34882
2846.407, 18.32882
2848.336, 20.53216
2850.264, 21.05437
2852.193, 14.86010
2854.121, 17.33876
2856.050, 16.34168
2857.978, 15.20212
2859.906, 18.90145
2861.835, 13.68408
2863.763, 17.30667
2865.692, 17.40049
2867.620, 19.10935
2869.549, 17.32102
2871.477, 16.61289
2873.406, 19.40300
2875.334, 20.25612
2877.263, 18.06521
2879.191, 19.87674
2881.120, 14.53720
2883.048, 15.47283
2884.977, 19.11585
2886.905, 17.10082
2888.833, 18.97628
2890.762, 19.36999
2892.690, 13.02996
2894.619, 18.40061
2896.547, 18.70679
2898.476, 13.81279
2900.404, 18.78223
2902.333, 14.60513
2904.261, 13.69281
2906.190, 15.23737
2908.118, 14.22072
2910.047, 17.24214
2911.975, 12.77099
2913.904, 9.894286
2915.832, 9.214896
2917.760, 8.413310
2919.689, 8.778285
2921.617, 8.945721
2923.546, 11.03134
2925.474, 10.56186
2927.403, 7.133073
2929.331, 7.530344
2931.260, 7.668301
2933.188, 15.22536
2935.117, 17.25261
2937.045, 15.41503
2938.974, 10.67926
2940.902, 13.27329
2942.831, 6.634102
2944.759, 1.757659
2946.688, 2.155924
2948.616, -0.6742005
2950.544, 1.274350
2952.473, 5.953939
2954.401, 4.023370
2956.330, 1.444269
2958.258, 2.055946
2960.187, 10.06645
2962.115, 9.386563
2964.044, 4.515427
2965.972, -1.170966
2967.901, -4.381488
2969.829, -4.941070
2971.758, -2.354367
2973.686, 4.723223
2975.615, 13.76661
2977.543, 15.29925
2979.471, 12.56361
2981.400, 13.68033
2983.328, 19.93663
2985.257, 17.60240
2987.185, 9.949519
2989.114, 6.287296
2991.042, 7.851607
2992.971, 15.32114
2994.899, 13.37846
2996.828, 13.38409
2998.756, 12.99390
3000.685, 2.180228
3002.613, 6.250829
3004.542, 8.544807
3006.470, 9.157617
3008.398, 3.053999
3010.327, 5.623260
3012.255, 4.716822
3014.184, 3.667870
3016.112, 7.457794
3018.041, 2.331073
3019.969, 6.044260
3021.898, 6.228721
3023.826, 8.028189
3025.755, 6.330504
3027.683, 5.712976
3029.612, 8.593732
3031.540, 9.537457
3033.469, 7.437192
3035.397, 9.339321
3037.325, 4.090429
3039.254, 5.116664
3041.182, 8.850322
3043.111, 6.925897
3045.039, 8.891965
3046.968, 9.376320
3048.896, 3.126884
3050.825, 8.588184
3052.753, 8.984971
3054.682, 4.181621
3056.610, 9.241657
3058.539, 5.155205
3060.467, 4.333485
3062.396, 5.968698
3064.324, 5.042646
3066.252, 8.154716
3068.181, 7.376577
3070.109, 6.250863
3072.038, 6.641978
3073.966, 5.461560
3075.895, -1.083304
3077.823, -11.54979
3079.752, 4.201168
3081.680, 9.671324
3083.609, 9.587164
3085.537, 9.296981
3087.466, -5.644950
3089.394, -4.718499
3091.323, 7.591981
3093.251, 3.665436
3095.179, 9.619917
3097.108, 5.781332
3099.036, -5.987827
3100.965, -1.119273
3102.893, 0.7255578
3104.822, -0.6396353
3106.750, -0.5568716
3108.679, 3.539431
3110.607, -8.240093
3112.536, -12.16111
3114.464, 4.902257
3116.393, 6.577457
3118.321, 1.830691
3120.250, -0.1562450
3122.178, 10.43157
3124.106, -0.3740199
3126.035, 0.2647771
3127.963, 8.501404
3129.892, 10.82615
3131.820, 1.111385
3133.749, 1.097097
3135.677, 6.490046
3137.606, -1.155124
3139.534, -0.6939473
3141.463, -0.2717834
3143.391, -2.193006
3145.320, 0.2402692
3147.248, 6.292928
3149.177, 5.769045
3151.105, -3.749478
3153.033, 0.5223845
3154.962, 4.643669
3156.890, 7.944728
3158.819, 9.718862
3160.747, -2.368117
3162.676, 5.447345
3164.604, 10.88466
3166.533, 0.6461560
3168.461, -1.308809
3170.390, -5.537346
3172.318, -4.611645
3174.247, 4.024004
3176.175, 6.357209
3178.104, 3.687489
3180.032, 1.003012
3181.960, 4.929916
3183.889, 11.19030
3185.817, 3.737472
3187.746, -7.512856
3189.674, -12.14063
3191.603, 0.7706754
3193.531, 2.170015
3195.460, 0.6845108
3197.388, 7.667384
3199.317, -6.699616
3201.245, -2.185188
3203.174, 7.781961
3205.102, 5.987693
3207.031, 5.331291
3208.959, 0.4940138
3210.887, -2.772868
3212.816, -1.849467
3214.744, -7.579773
3216.673, -6.856645
3218.601, -1.529745
3220.530, 3.837663
3222.458, -6.135342
3224.387, -1.517108
3226.315, 4.280289
3228.244, -0.4549802
3230.172, -4.483697
3232.101, 0.1028824
3234.029, 4.855029
3235.958, 4.181079
3237.886, -1.037732
3239.814, -3.704102
3241.743, -4.752869
3243.671, -4.294924
3245.600, 3.087922
3247.528, -3.540573
3249.457, -9.136611
3251.385, -6.711904
3253.314, 5.212110
3255.242, -4.235303
3257.171, -10.66077
3259.099, -8.948629
3261.028, -6.393119
3262.956, 1.081033
3264.885, -1.487979
3266.813, -7.089218
3268.741, -3.065325
3270.670, 5.355100
3272.598, 5.005711
3274.527, 3.992142
3276.455, 9.855489
3278.384, -2.250378
3280.312, -0.3467138
3282.241, 3.659773
3284.169, -0.1289884
3286.098, -6.250405
3288.026, -6.193292
3289.955, -5.825742
3291.883, -5.324272
3293.812, -0.1890813
3295.740, 28.56037
3297.668, 27.06271
3299.597, 7.483015
3301.525, 6.963253
3303.454, 6.243677
3305.382, -5.514259
3307.311, -10.04810
3309.239, 0.8386483
3311.168, -5.506398
3313.096, -9.236766
3315.025, -3.687672
3316.953, 7.192265
3318.882, 7.992841
3320.810, 13.56663
3322.739, 3.505984
3324.667, -6.331184
3326.595, 12.73388
3328.524, 5.725068
3330.452, -1.311374
3332.381, 0.1989684
3334.309, 6.918213
3336.238, -1.653506
3338.166, 2.262910
3340.095, 4.945666
3342.023, 1.124236
3343.952, 1.256799
3345.880, 25.06232
3347.809, 11.86786
3349.737, -1.375909
3351.666, -1.843695
3353.594, -0.3839890
3355.522, 0.9137116
3357.451, 3.460408
3359.379, 7.188838
3361.308, 12.72505
3363.236, 3.509449
3365.165, -3.500133
3367.093, -2.376915
3369.022, 5.077658
3370.950, 1.237698
3372.879, -0.1202452
3374.807, 3.334876
3376.736, 5.840587
3378.664, 0.1175265
3380.593, -2.052781
3382.521, -0.7218021
3384.449, -4.931628
3386.378, -19.34730
3388.306, -17.30594
3390.235, -10.14787
3392.163, -10.31685
3394.092, -14.69027
3396.020, -7.680433
3397.949, 7.152412
3399.877, 7.422011
3401.806, 1.253840
3403.734, -3.132586
3405.663, -12.45594
3407.591, -2.414462
3409.520, 5.151921
3411.448, 1.191500
3413.376, -9.911254
3415.305, -4.702495
3417.233, -3.821735
3419.162, -5.062340
3421.090, -6.687063
3423.019, -11.66141
3424.947, -6.597985
3426.876, -4.390886
3428.804, -3.093337
3430.733, -0.2302136
3432.661, -2.876369
3434.590, -9.489129
3436.518, -6.166205
3438.447, 0.8438845
3440.375, 1.002403
3442.303, -2.316281
3444.232, 3.154686
3446.160, 12.74356
3448.089, 12.77322
3450.017, -7.514855
3451.946, -9.235395
3453.874, -2.554870
3455.803, -2.731389
3457.731, -8.317262
3459.660, -5.340299
3461.588, -0.5854051
3463.517, -5.487782
3465.445, 0.5696622
3467.374, 9.977035
3469.302, -19.50694
3471.230, -17.08520
3473.159, -6.505749
3475.087, 1.306673
3477.016, 2.089892
3478.944, -9.809936
3480.873, -1.449868
3482.801, 7.335926
3484.730, 10.40093
3486.658, 7.633274
3488.587, -4.135065
3490.515, 12.69640
3492.444, 0.5698535
3494.372, -16.36383
3496.301, -11.02900
3498.229, 2.984843
3500.157, -5.297911
3502.086, -6.006894
3504.014, 2.776357
3505.943, 11.51908
3507.871, 7.218173
3509.800, -9.714996
3511.728, -7.833480
3513.657, -1.425965
3515.585, -3.036311
3517.514, -4.354984
3519.442, -11.23677
3521.371, -16.97514
3523.299, -10.88519
3525.228, 5.549105
3527.156, 16.19170
3529.084, 5.504347
3531.013, -2.895463
3532.941, -7.698040
3534.870, -11.50207
3536.798, -13.32319
3538.727, 7.051162
3540.655, 4.782198
3542.584, 0.4149652
3544.512, 4.419592
3546.441, 10.60268
3548.369, -1.176820
3550.298, -1.754040
3552.226, -6.120365
3554.155, -10.77903
3556.083, -7.549360
3558.011, -7.178755
3559.940, -0.3377531
3561.868, -3.052784
3563.797, -10.08894
3565.725, -10.44393
3567.654, 6.460454
3569.582, -14.52247
3571.511, -9.159981
3573.439, -3.903170
3575.368, -9.463393
3577.296, -9.175550
3579.225, -35.93747
3581.153, -10.78561
3583.082, -6.297978
3585.010, -13.71443
3586.938, 1.552394
3588.867, 12.52386
3590.795, -1.843622
3592.724, 8.557899
3594.652, 15.15232
3596.581, 4.499208
3598.509, -1.525767
3600.438, -2.385642
3602.366, -9.058887
3604.295, -2.928200
3606.223, -0.6043777
3608.152, -15.96838
3610.080, -13.03910
3612.009, -8.345383
3613.937, -9.530489
3615.865, -11.50261
3617.794, -11.40076
3619.722, -10.70946
3621.651, -1.728818
3623.579, -3.999096
3625.508, 2.041621
3627.436, 5.827327
3629.365, 0.4053443
3631.293, 8.883589
3633.222, 2.273523
3635.150, -3.551526
3637.079, -7.460550
3639.007, -12.10124
3640.936, -15.79469
3642.864, -3.796392
3644.792, -8.069901
3646.721, -7.814301
3648.649, -9.562648
3650.578, -8.543620
3652.506, 4.219958
3654.435, -17.81642
3656.363, -1.974727
3658.292, 7.788239
3660.220, 4.517867
3662.149, 2.294376
3664.077, 11.85294
3666.006, 18.88197
3667.934, 13.91231
3669.863, 4.590435
3671.791, 5.374268
3673.719, 8.805518
3675.648, -8.465549
3677.576, 3.563472
3679.505, -1.783888
3681.433, 8.563389
3683.362, 12.83876
3685.290, -0.1207040
3687.219, -4.675284
3689.147, -12.54610
3691.076, -6.792795
3693.004, -1.798061
3694.933, -4.577366
3696.861, -11.27669
3698.790, -11.56725
3700.718, 3.333287
3702.646, 7.290462
3704.575, -0.1390149
3706.503, -4.246229
3708.432, -5.923656
3710.360, -17.69279
3712.289, -26.73643
3714.217, -6.099605
3716.146, -8.850665
3718.074, -10.16199
3720.003, -5.162009
3721.931, -5.645112
3723.860, 14.06483
3725.788, 8.360324
3727.717, 0.6597329
3729.645, -1.943332
3731.573, -5.469328
3733.502, -10.89059
3735.430, -6.828081
3737.359, -14.80102
3739.287, 5.183899
3741.216, 6.254064
3743.144, -8.229173
3745.073, -16.79201
3747.001, -10.15450
3748.930, 1.649674
3750.858, -7.870896
3752.787, -13.67678
3754.715, -16.16306
3756.644, -14.37694
3758.572, -7.797819
3760.500, -4.749210
3762.429, -13.27179
3764.357, -5.664134
3766.286, -4.965732
3768.214, -3.836039
3770.143, 1.410540
3772.071, -3.2108970E-02
3774.000, -10.74381
3775.928, -14.86370
3777.857, -6.583927
3779.785, -12.60301
3781.714, 0.6167477
3783.642, 26.29584
3785.571, 2.244308
3787.499, -16.17751
3789.427, 16.15355
3791.356, 11.36215
3793.284, -10.03298
3795.213, -16.71146
3797.141, -7.072082
3799.070, -0.9754655
3800.998, -18.76145
3802.927, 2.134301
3804.855, -3.788561
3806.784, -8.621552
3808.712, -9.471589
3810.641, -17.50996
3812.569, -20.31511
3814.498, -1.669601
3816.426, 6.042061
3818.354, 4.659806
3820.283, -3.694836
3822.211, -11.04995
3824.140, -10.94839
3826.068, -5.240930
3827.997, -7.364747
3829.925, -6.650923
3831.854, -9.346347
3833.782, -7.439332
3835.711, -1.069117
3837.639, 7.326498
3839.568, 11.47150
3841.496, -19.18258
3843.425, -0.6069418
3845.353, 0.1895533
3847.281, -0.5048093
3849.210, -13.84139
3851.138, -16.39363
3853.067, 7.559326
3854.995, -16.32013
3856.924, 9.959002
3858.852, 0.8345283
3860.781, 2.775159
3862.709, 17.48833
3864.638, 16.62860
3866.566, -1.285556
3868.495, -5.847257
3870.423, 8.850629
3872.352, -5.825331
3874.280, 11.36507
3876.208, 17.44600
3878.137, 1.973168
3880.065, -4.145324
3881.994, 1.856752
3883.922, -16.46241
3885.851, -4.675858
3887.779, -12.49052
3889.708, -11.96951
3891.636, -5.742879
3893.565, 1.336001
3895.493, 6.365819
3897.422, 5.849114
3899.350, -0.9938928
3901.279, 7.158590
3903.207, -7.008118
3905.135, -9.083405
3907.064, 2.786237
3908.992, -3.484262
3910.921, -11.56571
3912.849, -2.040531
3914.778, -7.510075
3916.706, 5.119263
3918.635, 4.452551
3920.563, -4.819211
3922.492, -4.435116
3924.420, -13.45857
3926.349, -14.69893
3928.277, -5.160801
3930.206, -11.86644
3932.134, -7.364866
3934.063, 4.914404
3935.991, 10.02735
3937.919, -9.834246
3939.848, -8.176701
3941.776, 4.632915
3943.705, -1.578503
3945.633, -15.81539
3947.562, -3.444091
3949.490, -16.14133
3951.419, 7.477335
3953.347, 6.622576
3955.276, 1.741080
3957.204, -0.3561601
3959.133, -2.872754
3961.061, -7.428743
3962.990, -10.52073
3964.918, -3.360859
3966.846, -2.539661
3968.775, 0.1612857
3970.703, -11.53017
3972.632, -20.95262
3974.560, -8.688252
3976.489, 2.431803
3978.417, -3.829149
3980.346, -10.60895
3982.274, -4.965439
3984.203, -2.361081
3986.131, 3.243730
3988.060, -7.069606
3989.988, -5.965805
3991.917, -1.519092
3993.845, -5.376660
3995.773, -9.292135
3997.702, 10.15348
3999.630, 7.950765
4001.559, -11.84263
4003.487, -8.946352
4005.416, -9.954121
4007.344, -5.328568
4009.273, 1.800181
4011.201, 2.958420
4013.130, 0.7900181
4015.058, -10.81297
4016.987, -10.55561
4018.915, -8.666417
4020.844, -13.06555
4022.772, -18.68521
4024.700, -23.87263
4026.629, -6.682612
4028.557, -1.624467
4030.486, -16.65003
4032.414, 8.004051
4034.343, 2.278001
4036.271, -17.91490
4038.200, 8.242579
4040.128, -8.0460884E-02
4042.057, -9.151993
4043.985, -13.63481
4045.914, -16.81474
4047.842, -12.95988
4049.771, -0.3179936
4051.699, 6.791555
4053.627, -8.745044
4055.556, -24.20984
4057.484, 5.293519
4059.413, -9.2598423E-02
4061.341, -8.692648
4063.270, -14.83677
4065.198, -17.70130
4067.127, -6.391161
4069.055, -3.592465
4070.984, -19.73265
4072.912, 8.640517
4074.841, -8.510007
4076.769, -16.18677
4078.698, 23.40108
4080.626, -7.359255
4082.554, -14.07740
4084.483, -9.309132
4086.411, -0.3241431
4088.340, 5.006004
4090.268, -5.423944
4092.197, -16.96076
4094.125, -10.75491
4096.054, 4.425018
4097.982, -5.445348
4099.911, -13.43794
4101.839, -11.66038
4103.768, -10.84496
4105.696, -8.665154
4107.625, -8.948713
4109.553, -15.14106
4111.481, -16.06644
4113.410, -6.306769
4115.338, -0.9752011
4117.267, 7.492247
4119.195, 8.920033
4121.124, -4.080127
4123.052, -9.164454
4124.981, 3.042388
4126.909, 5.317132
4128.838, -16.02065
4130.766, -11.59726
4132.695, 4.663825
4134.623, 5.380761
4136.552, 2.130301
4138.480, -10.44655
4140.409, -29.74838
4142.337, 3.137517
4144.266, -8.078740
4146.194, -15.18433
4148.123, -4.064846
4150.051, -4.833066
4151.979, -12.25006
4153.908, -18.77896
4155.836, -17.29274
4157.765, -12.87650
4159.693, -12.09305
4161.622, -11.92003
4163.550, -10.45677
4165.479, -7.955777
4167.407, -14.85197
4169.335, -1.222210
4171.264, -6.628522
4173.192, -6.761840
4175.121, -19.24020
4177.049, -4.646751
4178.978, 4.953537
4180.906, 0.5640163
4182.835, -4.409984
4184.763, -12.68861
4186.692, -17.72801
4188.620, -11.88010
4190.549, -13.68039
4192.477, -0.8793804
4194.406, -6.5498082E-03
4196.334, 11.28524
4198.263, -9.465903
4200.191, -3.571602
4202.120, 0.7891195
4204.048, -17.72569
4205.977, 0.7222619
4207.905, -4.441154
4209.833, -6.508770
4211.762, -11.95052
4213.690, -5.936073
4215.619, 12.28742
4217.547, 2.537681
4219.476, -6.501898
4221.404, -20.08873
4223.333, -8.630077
4225.261, -20.74087
4227.189, 4.556953
4229.118, -6.668440
4231.046, 2.533293
4232.975, -12.01495
4234.903, -13.92971
4236.832, -0.5041751
4238.760, -12.14993
4240.689, -16.40180
4242.617, -17.27899
4244.546, -9.545638
4246.474, -4.370890
4248.403, -14.32810
4250.331, -11.96159
4252.260, -2.451802
4254.188, 1.596802
4256.117, 5.205813
4258.045, -21.94841
4259.974, 5.952937
4261.902, -6.474400
4263.831, -4.272336
4265.759, -8.571507
4267.688, -7.514950
4269.616, -16.27778
4271.544, -9.849193
4273.473, -9.864060
4275.401, -14.64371
4277.330, -11.75043
4279.258, -9.899427
4281.187, 2.115371
4283.115, 11.20150
4285.043, 6.237224
4286.972, -2.756740
4288.900, -15.75071
4290.829, 2.837983
4292.757, 13.03219
4294.686, -9.775725
4296.614, 10.10924
4298.543, -19.44423
4300.471, -3.074499
4302.400, -4.962605
4304.328, -5.034980
4306.257, -9.831624
4308.185, -13.16821
4310.114, -4.711019
4312.042, -6.603132
4313.971, -8.936263
4315.899, -4.368723
4317.828, -6.218110
4319.756, 0.2949002
4321.685, -10.47791
4323.613, -22.22647
4325.542, -14.78705
4327.470, -5.958014
4329.398, 0.5178833
4331.327, -3.637869
4333.255, -9.223873
4335.184, 4.794707
4337.112, -7.390996
4339.041, 1.963745
4340.969, -17.81585
4342.897, 11.27149
4344.826, -0.5680062
4346.754, -6.568121
4348.683, -18.98240
4350.611, -9.000997
4352.540, 7.059855
4354.468, 3.904628
4356.397, 0.6289507
##END=



