##NAMES=Koritnigite
##RRUFFID=R060654
##IDEAL CHEMISTRY=Zn(AsO_3_OH)·H_2_O
##LOCALITY=Jachymov, Czech Republic
##OWNER=RRUFF
##SOURCE=Michael Scott
##DESCRIPTION=Reddish-pink spherical aggregates
##STATUS=The identification of this mineral is confirmed by single-crystal X-ray diffraction and chemical analysis
##URL=https://www.rruff.net/odr/rruff_sample/R060654
##MEASURED CHEMISTRY=(Zn_0.83_Co_0.13_Ni_0.03_Fe_0.01_)(As_1.00_O_3_OH)·H_2_O ; OH estimated by stoichiometry and charge balance
##DIFFRACTION SAMPLE DESCRIPTION=Single crystal, powder profile is calculated
##CELL PARAMETERS=a: 7.895 b: 15.75 c: 6.63 alpha: 90.51 beta: 96.57 gamma: 89.99 volume: 819 crystal system: triclinic
##FILETYPE=Raman Processed
##RAMAN WAVELENGTH=785

167.778, 80874.141
169.706, 83114.227
171.635, 84449.180
173.564, 85071.273
175.492, 84782.641
177.420, 84309.602
179.349, 83666.617
181.277, 83120.641
183.206, 82851.219
185.134, 82838.539
187.063, 83006.203
188.991, 83401.656
190.920, 83799.789
192.848, 84149.297
194.777, 84542.844
196.705, 85080.898
198.633, 85652.789
200.562, 86131.352
202.490, 86514.570
204.419, 86745.102
206.347, 86757.297
208.276, 86814.000
210.204, 86992.461
212.133, 87242.547
214.061, 87526.117
215.990, 87855.953
217.918, 88292.547
219.847, 88871.273
221.775, 89351.461
223.704, 89677.820
225.632, 89994.656
227.561, 90355.094
229.489, 90739.656
231.417, 91141.891
233.346, 91556.070
235.274, 91960.156
237.203, 92372.070
239.131, 92667.609
241.060, 92786.617
242.988, 92840.992
244.917, 92892.242
246.845, 92907.992
248.774, 92816.656
250.702, 92630.422
252.631, 92558.750
254.559, 92623.547
256.487, 92701.750
258.416, 92746.883
260.345, 92825.469
262.273, 92979.227
264.201, 93172.281
266.130, 93388.789
268.058, 93619.352
269.987, 93665.117
271.915, 93465.438
273.844, 93330.000
275.772, 93345.719
277.701, 93453.398
279.629, 93676.523
281.558, 93945.570
283.486, 94158.953
285.415, 94315.812
287.343, 94454.117
289.272, 94588.047
291.200, 94639.023
293.128, 94490.211
295.057, 94379.094
296.985, 94391.883
298.914, 94515.031
300.842, 94744.383
302.771, 95078.789
304.699, 95488.539
306.628, 96010.797
308.556, 96394.844
310.485, 96535.594
312.413, 96581.789
314.342, 96486.867
316.270, 96411.172
318.198, 96529.141
320.127, 96834.477
322.055, 97256.906
323.984, 97806.977
325.912, 98385.656
327.841, 99123.297
329.769, 99594.562
331.698, 99567.062
333.626, 99323.000
335.555, 99028.203
337.483, 98701.344
339.412, 98387.172
341.340, 98085.828
343.269, 97837.938
345.197, 97640.117
347.125, 97537.547
349.054, 97539.172
350.983, 97653.773
352.911, 97995.156
354.839, 98401.727
356.768, 98580.828
358.696, 98590.594
360.625, 98682.141
362.553, 98863.719
364.482, 99119.656
366.410, 99540.867
368.339, 99882.477
370.267, 100080.102
372.196, 100160.500
374.124, 100148.500
376.052, 100034.703
377.981, 99782.273
379.909, 99404.648
381.838, 99045.328
383.766, 98684.000
385.695, 98449.188
387.623, 98404.680
389.552, 98433.461
391.480, 98536.227
393.409, 98654.406
395.337, 98786.656
397.266, 98873.070
399.194, 98705.922
401.123, 98270.227
403.051, 97933.328
404.979, 97757.977
406.908, 97646.422
408.836, 97519.797
410.765, 97504.406
412.693, 97732.438
414.622, 98048.953
416.550, 98295.641
418.479, 98480.898
420.407, 98631.797
422.336, 98760.203
424.264, 98757.203
426.193, 98551.633
428.121, 98323.828
430.050, 98106.156
431.978, 97866.203
433.906, 97536.633
435.835, 97213.453
437.763, 96995.602
439.692, 96867.203
441.620, 96814.523
443.549, 96840.906
445.477, 96883.031
447.406, 96954.812
449.334, 97012.883
451.263, 97059.703
453.191, 97088.023
455.120, 97086.406
457.048, 97068.953
458.977, 97034.820
460.905, 96991.430
462.833, 96984.391
464.762, 96997.094
466.690, 96852.047
468.619, 96498.344
470.547, 96095.227
472.476, 95619.977
474.404, 95169.148
476.333, 94762.391
478.261, 94405.102
480.190, 94111.562
482.118, 93869.172
484.047, 93654.758
485.975, 93470.961
487.904, 93351.203
489.832, 93309.523
491.760, 93154.156
493.689, 92784.438
495.617, 92438.430
497.546, 92103.367
499.474, 91827.289
501.403, 91681.203
503.331, 91553.320
505.260, 91338.523
507.188, 91130.094
509.117, 91077.141
511.045, 91134.680
512.974, 91054.242
514.902, 90787.406
516.831, 90587.383
518.759, 90485.438
520.688, 90373.406
522.616, 90235.852
524.544, 90093.672
526.473, 89937.430
528.401, 89802.359
530.330, 89728.719
532.258, 89685.867
534.187, 89669.094
536.115, 89655.180
538.044, 89533.367
539.972, 89283.008
541.901, 89148.367
543.829, 89200.102
545.758, 89170.523
547.686, 89009.031
549.615, 88837.070
551.543, 88659.383
553.471, 88515.211
555.400, 88452.969
557.328, 88407.227
559.257, 88333.062
561.185, 88238.906
563.114, 88150.242
565.042, 88060.078
566.971, 87891.109
568.899, 87617.227
570.828, 87425.047
572.756, 87343.844
574.685, 87236.781
576.613, 87053.320
578.542, 86923.758
580.470, 86952.781
582.398, 86956.156
584.327, 86820.203
586.255, 86626.406
588.184, 86391.469
590.112, 86169.633
592.041, 86072.039
593.969, 86074.344
595.898, 86051.281
597.826, 85998.312
599.755, 85908.977
601.683, 85774.898
603.612, 85628.461
605.540, 85467.797
607.469, 85323.844
609.397, 85253.219
611.326, 85129.047
613.254, 84831.977
615.182, 84538.406
617.111, 84324.508
619.039, 84200.906
620.968, 84217.328
622.896, 84316.273
624.825, 84378.883
626.753, 84398.148
628.682, 84308.070
630.610, 84103.008
632.539, 83972.906
634.467, 83942.406
636.396, 83893.094
638.324, 83811.820
640.253, 83681.906
642.181, 83464.383
644.109, 83250.844
646.038, 83061.156
647.966, 82908.859
649.895, 82843.531
651.823, 82788.570
653.752, 82674.156
655.680, 82514.023
657.609, 82298.977
659.537, 82058.492
661.466, 81923.438
663.394, 81879.047
665.323, 81811.609
667.251, 81710.578
669.180, 81639.219
671.108, 81618.391
673.036, 81539.883
674.965, 81357.156
676.893, 81180.992
678.822, 81060.539
680.750, 80940.820
682.679, 80806.117
684.607, 80667.500
686.536, 80503.773
688.464, 80362.297
690.393, 80303.047
692.321, 80281.570
694.250, 80248.820
696.178, 80194.062
698.107, 80076.070
700.035, 79913.859
701.963, 79781.609
703.892, 79682.398
705.820, 79604.719
707.749, 79555.172
709.677, 79418.953
711.606, 79120.922
713.534, 78954.953
715.463, 79068.250
717.391, 79128.078
719.320, 79028.859
721.248, 78910.047
723.177, 78803.969
725.105, 78705.250
727.034, 78615.219
728.962, 78531.258
730.890, 78467.891
732.819, 78400.797
734.747, 78284.906
736.676, 78159.406
738.604, 78080.383
740.533, 78043.977
742.461, 78060.172
744.390, 78108.250
746.318, 78094.797
748.247, 78022.688
750.175, 78037.547
752.104, 78165.094
754.032, 78141.562
755.961, 77874.250
757.889, 77740.727
759.817, 77884.828
761.746, 77960.023
763.674, 77896.070
765.603, 77813.141
767.531, 77703.508
769.460, 77609.094
771.388, 77568.609
773.317, 77498.570
775.245, 77306.883
777.174, 77135.859
779.102, 77076.852
781.031, 77096.688
782.959, 77171.727
784.888, 77315.133
786.816, 77527.844
788.744, 77829.930
790.673, 78249.273
792.601, 78775.438
794.530, 79361.523
796.458, 80037.359
798.387, 80963.438
800.315, 82109.148
802.244, 83195.852
804.172, 84219.609
806.101, 85279.961
808.029, 86474.391
809.958, 87206.219
811.886, 87403.258
813.815, 87295.547
815.743, 86803.031
817.671, 86135.297
819.600, 85137.742
821.528, 84271.992
823.457, 83595.133
825.385, 83048.273
827.314, 82590.023
829.242, 82348.320
831.171, 82447.812
833.099, 82621.844
835.028, 82814.711
836.956, 82979.656
838.885, 83164.102
840.813, 83194.578
842.742, 82942.047
844.670, 82531.703
846.598, 81973.812
848.527, 81384.438
850.455, 80836.602
852.384, 80315.398
854.312, 79734.680
856.241, 79231.938
858.169, 78980.070
860.098, 78898.750
862.026, 78887.680
863.955, 78954.023
865.883, 79156.312
867.812, 79432.203
869.740, 79618.211
871.669, 79749.383
873.597, 79965.422
875.526, 80223.641
877.454, 80283.930
879.382, 80175.156
881.311, 80123.930
883.239, 80119.992
885.168, 80050.047
887.096, 79909.727
889.025, 79577.781
890.953, 79041.898
892.882, 78419.156
894.810, 77710.281
896.739, 76861.578
898.667, 75863.469
900.596, 74868.031
902.524, 73884.367
904.453, 72951.609
906.381, 72068.219
908.309, 71335.797
910.238, 70775.703
912.166, 70280.078
914.095, 69826.156
916.023, 69469.188
917.952, 69229.859
919.880, 68974.133
921.809, 68674.453
923.737, 68358.523
925.666, 68020.273
927.594, 67728.398
929.523, 67513.148
931.451, 67292.703
933.380, 67034.250
935.308, 66850.773
937.236, 66819.211
939.165, 66719.750
941.093, 66468.883
943.022, 66237.562
944.950, 66061.641
946.879, 65933.406
948.807, 65861.406
950.736, 65794.977
952.664, 65668.094
954.593, 65537.117
956.521, 65500.934
958.450, 65441.742
960.378, 65360.777
962.307, 65192.812
964.235, 65137.188
966.163, 65036.543
968.092, 64934.051
970.020, 64869.449
971.949, 64733.930
973.877, 64601.461
975.806, 64434.121
977.734, 64310.309
979.663, 64298.078
981.591, 64255.539
983.520, 64117.570
985.448, 63980.891
987.377, 63897.621
989.305, 63775.148
991.234, 63520.379
993.162, 63334.500
995.090, 63333.109
997.019, 63310.070
998.947, 63159.488
1000.876, 63066.012
1002.804, 63145.141
1004.733, 63167.398
1006.661, 63024.980
1008.590, 62897.500
1010.518, 62859.410
1012.447, 62782.602
1014.375, 62613.430
1016.304, 62454.691
1018.232, 62312.051
1020.160, 62221.449
1022.089, 62211.051
1024.017, 62218.379
1025.946, 62274.309
1027.874, 62263.281
1029.803, 62138.641
1031.731, 61989.031
1033.660, 61772.539
1035.588, 61626.941
1037.517, 61627.879
1039.445, 61590.762
1041.374, 61491.781
1043.302, 61387.039
1045.230, 61266.711
1047.159, 61160.121
1049.087, 61051.031
1051.016, 60981.629
1052.944, 60973.059
1054.873, 60939.801
1056.801, 60901.121
1058.730, 60775.020
1060.658, 60523.398
1062.587, 60367.340
1064.515, 60338.781
1066.444, 60257.129
1068.372, 60108.230
1070.301, 60039.379
1072.229, 60053.871
1074.158, 60043.469
1076.086, 60006.020
1078.015, 59949.898
1079.943, 59873.180
1081.871, 59751.949
1083.800, 59600.520
1085.728, 59515.469
1087.657, 59477.898
1089.585, 59408.281
1091.514, 59323.559
1093.442, 59272.828
1095.371, 59247.680
1097.299, 59250.680
1099.228, 59251.172
1101.156, 59221.449
1103.085, 59132.941
1105.013, 58881.840
1106.942, 58618.910
1108.870, 58527.070
1110.798, 58498.469
1112.727, 58430.980
1114.655, 58382.129
1116.584, 58419.480
1118.512, 58445.391
1120.441, 58391.230
1122.369, 58318.230
1124.298, 58245.141
1126.226, 58183.609
1128.155, 58160.539
1130.083, 58108.230
1132.012, 58006.180
1133.940, 57888.410
1135.869, 57775.699
1137.797, 57609.871
1139.725, 57342.238
1141.654, 57225.828
1143.582, 57331.379
1145.511, 57342.281
1147.439, 57203.879
1149.368, 57122.352
1151.296, 57113.750
1153.225, 57065.109
1155.153, 56973.801
1157.082, 56913.820
1159.010, 56878.090
1160.939, 56785.969
1162.867, 56656.000
1164.796, 56554.719
1166.724, 56470.309
1168.652, 56360.602
1170.581, 56253.281
1172.509, 56200.230
1174.438, 56173.422
1176.366, 56140.859
1178.295, 56105.488
1180.223, 56081.570
1182.152, 56035.750
1184.080, 55908.480
1186.009, 55804.320
1187.937, 55801.512
1189.866, 55794.809
1191.794, 55766.891
1193.723, 55693.379
1195.651, 55538.719
1197.579, 55431.648
1199.508, 55411.191
1201.436, 55347.871
1203.365, 55224.680
1205.293, 55116.410
1207.222, 55031.961
1209.150, 54987.359
1211.079, 54971.102
1213.007, 54884.961
1214.936, 54752.539
1216.864, 54669.820
1218.793, 54614.262
1220.721, 54542.340
1222.650, 54457.719
1224.578, 54348.191
1226.506, 54251.840
1228.435, 54231.039
1230.363, 54208.828
1232.292, 54138.629
1234.220, 54036.449
1236.149, 53876.391
1238.077, 53748.922
1240.006, 53697.270
1241.934, 53661.180
1243.863, 53659.391
1245.791, 53604.281
1247.720, 53466.148
1249.648, 53402.840
1251.577, 53422.199
1253.505, 53353.281
1255.433, 53207.961
1257.362, 53098.520
1259.290, 53030.141
1261.219, 53046.070
1263.147, 53086.078
1265.076, 53078.891
1267.004, 53012.129
1268.933, 52796.051
1270.861, 52626.461
1272.790, 52686.012
1274.718, 52737.328
1276.647, 52676.301
1278.575, 52577.090
1280.504, 52431.488
1282.432, 52324.078
1284.360, 52277.250
1286.289, 52259.961
1288.217, 52287.809
1290.146, 52209.430
1292.074, 52042.000
1294.003, 51946.199
1295.931, 51913.461
1297.860, 51973.898
1299.788, 52029.781
1301.717, 51877.629
1303.645, 51716.691
1305.574, 51748.781
1307.502, 51768.980
1309.431, 51665.629
1311.359, 51537.039
1313.287, 51399.641
1315.216, 51310.480
1317.144, 51298.031
1319.073, 51236.922
1321.001, 51113.621
1322.930, 50964.859
1324.858, 50804.801
1326.787, 50743.719
1328.715, 50735.711
1330.644, 50649.609
1332.572, 50537.141
1334.501, 50454.590
1336.429, 50394.711
1338.358, 50369.590
1340.286, 50326.840
1342.214, 50243.781
1344.143, 50135.250
1346.071, 49994.879
1348.000, 49895.469
1349.928, 49850.910
1351.857, 49764.859
1353.785, 49645.711
1355.714, 49648.301
1357.642, 49707.672
1359.571, 49619.230
1361.499, 49482.309
1363.428, 49450.488
1365.356, 49422.359
1367.285, 49307.309
1369.213, 49191.070
1371.141, 49106.699
1373.070, 49043.230
1374.998, 49011.551
1376.927, 48932.730
1378.855, 48800.398
1380.784, 48650.250
1382.712, 48507.430
1384.641, 48513.699
1386.569, 48570.691
1388.498, 48475.090
1390.426, 48351.469
1392.355, 48363.320
1394.283, 48347.422
1396.212, 48193.859
1398.140, 48032.488
1400.068, 47879.680
1401.997, 47776.512
1403.925, 47728.629
1405.854, 47723.730
1407.782, 47739.559
1409.711, 47662.199
1411.639, 47531.590
1413.568, 47409.309
1415.496, 47309.422
1417.425, 47269.520
1419.353, 47219.480
1421.282, 47071.238
1423.210, 47004.449
1425.139, 47111.000
1427.067, 47134.070
1428.995, 47055.359
1430.924, 46947.340
1432.852, 46833.711
1434.781, 46849.641
1436.709, 46883.711
1438.638, 46746.250
1440.566, 46588.461
1442.495, 46554.648
1444.423, 46491.121
1446.352, 46287.961
1448.280, 46152.191
1450.209, 46143.078
1452.137, 46069.469
1454.066, 45937.512
1455.994, 45818.539
1457.922, 45714.211
1459.851, 45643.449
1461.779, 45565.262
1463.708, 45422.949
1465.636, 45293.359
1467.565, 45197.430
1469.493, 45153.641
1471.422, 45200.191
1473.350, 45140.680
1475.279, 44975.031
1477.207, 44838.781
1479.136, 44730.359
1481.064, 44649.660
1482.993, 44594.148
1484.921, 44598.359
1486.849, 44544.730
1488.778, 44333.121
1490.706, 44242.141
1492.635, 44361.859
1494.563, 44385.340
1496.492, 44304.660
1498.420, 44183.781
1500.349, 44053.031
1502.277, 44001.500
1504.206, 43946.441
1506.134, 43806.191
1508.063, 43682.570
1509.991, 43622.859
1511.920, 43528.391
1513.848, 43380.629
1515.776, 43281.121
1517.705, 43219.910
1519.633, 43153.621
1521.562, 43084.320
1523.490, 43003.469
1525.419, 42945.379
1527.347, 42965.121
1529.276, 42907.609
1531.204, 42730.590
1533.133, 42567.941
1535.061, 42438.559
1536.990, 42409.109
1538.918, 42408.922
1540.847, 42274.230
1542.775, 42122.141
1544.703, 42067.270
1546.632, 42000.230
1548.560, 41885.102
1550.489, 41796.609
1552.417, 41740.660
1554.346, 41658.602
1556.274, 41564.359
1558.203, 41520.172
1560.131, 41462.590
1562.060, 41284.141
1563.988, 41147.941
1565.917, 41148.660
1567.845, 41090.160
1569.774, 40954.500
1571.702, 40826.629
1573.630, 40714.648
1575.559, 40610.738
1577.487, 40543.398
1579.416, 40587.328
1581.344, 40598.520
1583.273, 40477.410
1585.201, 40388.871
1587.130, 40341.180
1589.058, 40177.828
1590.987, 39960.738
1592.915, 39917.941
1594.844, 39885.430
1596.772, 39664.289
1598.701, 39491.230
1600.629, 39518.949
1602.557, 39482.250
1604.486, 39367.129
1606.414, 39287.828
1608.343, 39217.570
1610.271, 39074.121
1612.200, 38929.250
1614.128, 38818.070
1616.057, 38762.980
1617.985, 38821.871
1619.914, 38767.711
1621.842, 38618.820
1623.771, 38531.945
1625.699, 38518.887
1627.628, 38487.887
1629.556, 38402.891
1631.484, 38272.148
1633.413, 38112.941
1635.341, 37855.820
1637.270, 37751.289
1639.198, 37748.590
1641.127, 37640.961
1643.055, 37505.699
1644.984, 37402.930
1646.912, 37329.461
1648.841, 37295.629
1650.769, 37209.102
1652.698, 37066.891
1654.626, 36979.809
1656.555, 36917.262
1658.483, 36810.000
1660.411, 36730.340
1662.340, 36743.871
1664.268, 36657.762
1666.197, 36424.910
1668.125, 36300.961
1670.054, 36252.910
1671.982, 36179.789
1673.911, 36101.699
1675.839, 36064.871
1677.768, 35950.230
1679.696, 35720.391
1681.625, 35576.051
1683.553, 35512.078
1685.482, 35415.320
1687.410, 35303.930
1689.339, 35170.211
1691.267, 35090.980
1693.195, 35103.090
1695.124, 35050.801
1697.052, 34925.590
1698.981, 34789.879
1700.909, 34671.488
1702.838, 34644.020
1704.766, 34587.141
1706.695, 34432.070
1708.623, 34326.859
1710.552, 34277.879
1712.480, 34192.461
1714.409, 34083.980
1716.337, 33972.699
1718.266, 33859.461
1720.194, 33759.262
1722.122, 33607.551
1724.051, 33410.570
1725.979, 33309.922
1727.908, 33269.219
1729.836, 33237.500
1731.765, 33189.629
1733.693, 33101.391
1735.622, 33004.090
1737.550, 32897.512
1739.479, 32775.328
1741.407, 32677.250
1743.336, 32711.051
1745.264, 32716.359
1747.193, 32605.061
1749.121, 32430.730
1751.049, 32206.279
1752.978, 32087.330
1754.906, 32033.270
1756.835, 32000.020
1758.763, 31950.920
1760.692, 31850.289
1762.620, 31775.551
1764.549, 31723.971
1766.477, 31599.221
1768.406, 31464.980
1770.334, 31412.500
1772.263, 31346.830
1774.191, 31229.221
1776.120, 31095.680
1778.048, 30961.660
1779.976, 30940.939
1781.905, 30908.949
1783.833, 30717.100
1785.762, 30597.711
1787.690, 30635.480
1789.619, 30647.410
1791.547, 30621.410
1793.476, 30524.020
1795.404, 30382.500
1797.333, 30184.830
1799.261, 30075.240
1801.190, 30083.570
1803.118, 30030.750
1805.047, 29940.779
1806.975, 29851.561
1808.903, 29754.320
1810.832, 29646.850
1812.760, 29546.580
1814.689, 29449.391
1816.617, 29281.471
1818.546, 29129.230
1820.474, 29097.881
1822.403, 29055.189
1824.331, 28970.061
1826.260, 28977.279
1828.188, 29006.891
1830.117, 28877.000
1832.045, 28721.930
1833.974, 28606.471
1835.902, 28525.570
1837.830, 28468.660
1839.759, 28355.721
1841.687, 28221.740
1843.616, 28082.910
1845.544, 27989.471
1847.473, 27950.109
1849.401, 27922.510
1851.330, 27881.949
1853.258, 27775.600
1855.187, 27655.641
1857.115, 27554.680
1859.044, 27438.051
1860.972, 27319.850
1862.901, 27315.061
1864.829, 27306.311
1866.757, 27131.180
1868.686, 27009.420
1870.614, 26976.859
1872.543, 26933.760
1874.471, 26870.711
1876.400, 26773.631
1878.328, 26681.100
1880.257, 26633.840
1882.185, 26500.410
1884.114, 26326.670
1886.042, 26307.330
1887.971, 26298.330
1889.899, 26209.609
1891.828, 26042.881
1893.756, 25812.289
1895.684, 25786.369
1897.613, 25817.410
1899.541, 25750.711
1901.470, 25695.891
1903.398, 25690.891
1905.327, 25545.090
1907.255, 25384.311
1909.184, 25482.971
1911.112, 25487.369
1913.041, 25219.840
1914.969, 25026.461
1916.898, 24909.699
1918.826, 24891.699
1920.755, 24853.961
1922.683, 24727.900
1924.611, 24615.990
1926.540, 24525.660
1928.468, 24457.561
1930.397, 24399.449
1932.325, 24349.061
1934.254, 24280.260
1936.182, 24192.561
1938.111, 24114.670
1940.039, 24021.289
1941.968, 23866.180
1943.896, 23790.109
1945.825, 23812.369
1947.753, 23766.020
1949.682, 23683.699
1951.610, 23609.180
1953.538, 23495.670
1955.467, 23337.930
1957.395, 23248.670
1959.324, 23181.221
1961.252, 23052.971
1963.181, 22951.770
1965.109, 22897.119
1967.038, 22830.930
1968.966, 22750.359
1970.895, 22635.301
1972.823, 22549.010
1974.752, 22505.990
1976.680, 22474.330
1978.609, 22424.680
1980.537, 22311.141
1982.465, 22151.980
1984.394, 21948.740
1986.322, 21931.711
1988.251, 21973.900
1990.179, 21809.539
1992.108, 21650.410
1994.036, 21562.400
1995.965, 21461.910
1997.893, 21374.850
1999.822, 21376.260
2001.750, 21359.330
2003.679, 21293.721
2005.607, 21171.650
2007.536, 21031.270
2009.464, 20932.600
2011.392, 20834.439
2013.321, 20711.961
2015.249, 20715.381
2017.178, 20734.400
2019.106, 20587.770
2021.035, 20450.590
2022.963, 20373.391
2024.892, 20352.779
2026.820, 20316.600
2028.749, 20154.170
2030.677, 20008.449
2032.606, 19912.820
2034.534, 19810.869
2036.463, 19736.789
2038.391, 19738.439
2040.319, 19725.119
2042.248, 19677.789
2044.176, 19548.311
2046.105, 19442.100
2048.033, 19470.211
2049.962, 19387.461
2051.890, 19195.859
2053.819, 19141.131
2055.747, 19115.230
2057.676, 19056.930
2059.604, 18968.631
2061.533, 18860.301
2063.461, 18746.439
2065.390, 18664.961
2067.318, 18635.449
2069.247, 18605.580
2071.175, 18544.971
2073.104, 18344.689
2075.032, 18204.340
2076.960, 18180.109
2078.889, 18177.430
2080.817, 18160.881
2082.746, 18068.369
2084.674, 17991.381
2086.603, 17941.561
2088.531, 17888.240
2090.460, 17822.500
2092.388, 17735.359
2094.317, 17641.131
2096.245, 17548.850
2098.174, 17473.580
2100.102, 17426.850
2102.031, 17422.199
2103.959, 17370.891
2105.887, 17288.240
2107.816, 17230.230
2109.744, 17137.789
2111.673, 16998.131
2113.601, 16918.881
2115.530, 16863.400
2117.458, 16780.811
2119.387, 16708.160
2121.315, 16647.320
2123.244, 16599.141
2125.172, 16539.631
2127.101, 16477.449
2129.029, 16270.210
2130.958, 16029.360
2132.886, 16052.660
2134.814, 16075.560
2136.743, 16006.490
2138.671, 15950.500
2140.600, 15873.380
2142.528, 15717.370
2144.457, 15593.430
2146.385, 15518.500
2148.314, 15556.320
2150.242, 15581.150
2152.171, 15512.070
2154.099, 15491.310
2156.028, 15476.930
2157.956, 15378.780
2159.885, 15259.210
2161.813, 15137.330
2163.741, 15093.060
2165.670, 15049.210
2167.598, 14934.870
2169.527, 14925.960
2171.455, 14964.520
2173.384, 14814.210
2175.312, 14680.100
2177.241, 14626.630
2179.169, 14583.620
2181.098, 14537.130
2183.026, 14472.260
2184.955, 14422.460
2186.883, 14383.990
2188.812, 14326.780
2190.740, 14263.020
2192.668, 14196.460
2194.597, 14100.380
2196.525, 14045.320
2198.454, 14196.540
2200.382, 14164.850
2202.311, 13959.870
2204.239, 13817.320
2206.168, 13716.460
2208.096, 13644.530
2210.025, 13649.480
2211.953, 13649.800
2213.882, 13510.300
2215.810, 13435.060
2217.739, 13416.820
2219.667, 13346.620
2221.595, 13266.080
2223.524, 13194.360
2225.452, 13123.620
2227.381, 13045.540
2229.309, 12935.450
2231.238, 12870.570
2233.166, 12830.190
2235.095, 12715.190
2237.023, 12631.090
2238.952, 12615.820
2240.880, 12534.310
2242.809, 12457.820
2244.737, 12470.270
2246.666, 12443.550
2248.594, 12385.190
2250.522, 12315.200
2252.451, 12283.470
2254.379, 12294.480
2256.308, 12215.170
2258.236, 12114.750
2260.165, 12031.290
2262.093, 11988.890
2264.022, 11959.970
2265.950, 11907.680
2267.879, 11838.670
2269.807, 11757.890
2271.736, 11662.020
2273.664, 11618.170
2275.593, 11653.140
2277.521, 11578.510
2279.449, 11487.530
2281.378, 11459.450
2283.306, 11397.330
2285.235, 11323.170
2287.163, 11313.200
2289.092, 11270.430
2291.020, 11188.430
2292.949, 11143.200
2294.877, 11119.660
2296.806, 11109.640
2298.734, 11065.440
2300.663, 10999.260
2302.591, 10921.480
2304.520, 10840.860
2306.448, 10765.900
2308.376, 10710.890
2310.305, 10660.400
2312.233, 10615.920
2314.162, 10610.080
2316.090, 10591.800
2318.019, 10542.590
2319.947, 10474.650
2321.876, 10389.410
2323.804, 10268.040
2325.733, 10228.000
2327.661, 10231.740
2329.590, 10220.610
2331.518, 10172.730
2333.447, 10094.630
2335.375, 10011.680
2337.303, 9940.103
2339.232, 9884.813
2341.160, 9837.981
2343.089, 9805.484
2345.017, 9802.215
2346.946, 9764.877
2348.874, 9705.597
2350.803, 9629.371
2352.731, 9554.682
2354.660, 9500.271
2356.588, 9521.433
2358.517, 9480.924
2360.445, 9381.687
2362.374, 9319.222
2364.302, 9264.700
2366.230, 9209.521
2368.159, 9181.602
2370.087, 9164.696
2372.016, 9150.556
2373.944, 9144.476
2375.873, 9097.076
2377.801, 8963.281
2379.730, 8909.253
2381.658, 8889.255
2383.587, 8819.291
2385.515, 8759.542
2387.444, 8713.651
2389.372, 8671.583
2391.301, 8618.165
2393.229, 8558.716
2395.157, 8555.487
2397.086, 8513.193
2399.014, 8416.663
2400.943, 8410.835
2402.871, 8411.080
2404.800, 8378.982
2406.728, 8353.274
2408.657, 8306.786
2410.585, 8208.987
2412.514, 8182.613
2414.442, 8180.533
2416.371, 8136.413
2418.299, 8102.671
2420.228, 8074.060
2422.156, 8037.298
2424.084, 7991.285
2426.013, 7938.431
2427.941, 7878.425
2429.870, 7843.346
2431.798, 7826.004
2433.727, 7776.187
2435.655, 7733.558
2437.584, 7707.835
2439.512, 7650.443
2441.441, 7627.297
2443.369, 7595.854
2445.298, 7556.513
2447.226, 7485.755
2449.155, 7455.029
2451.083, 7383.539
2453.011, 7365.143
2454.940, 7386.146
2456.868, 7324.371
2458.797, 7247.663
2460.725, 7211.417
2462.654, 7195.743
2464.582, 7196.123
2466.511, 7214.870
2468.439, 7176.369
2470.368, 7103.774
2472.296, 7035.933
2474.225, 6948.057
2476.153, 6865.566
2478.082, 6833.384
2480.010, 6816.025
2481.938, 6801.514
2483.867, 6776.759
2485.795, 6734.381
2487.724, 6687.489
2489.652, 6688.422
2491.581, 6644.694
2493.509, 6575.860
2495.438, 6607.496
2497.366, 6581.542
2499.295, 6497.307
2501.223, 6464.768
2503.152, 6419.695
2505.080, 6358.869
2507.009, 6334.417
2508.937, 6285.404
2510.865, 6214.196
2512.794, 6160.923
2514.722, 6213.996
2516.651, 6325.967
2518.579, 6174.474
2520.508, 6074.203
2522.436, 6079.511
2524.365, 6029.010
2526.293, 5962.653
2528.222, 5901.385
2530.150, 5896.408
2532.079, 5896.420
2534.007, 5880.643
2535.936, 5788.121
2537.864, 5736.512
2539.792, 5747.677
2541.721, 5714.269
2543.649, 5674.329
2545.578, 5639.867
2547.506, 5614.010
2549.435, 5599.214
2551.363, 5591.422
2553.292, 5557.373
2555.220, 5509.832
2557.149, 5456.266
2559.077, 5423.097
2561.006, 5385.185
2562.934, 5340.021
2564.863, 5306.875
2566.791, 5267.338
2568.719, 5227.830
2570.648, 5244.139
2572.576, 5223.739
2574.505, 5168.854
2576.433, 5159.015
2578.362, 5144.139
2580.290, 5114.959
2582.219, 5069.976
2584.147, 5015.587
2586.076, 4974.983
2588.004, 5027.453
2589.933, 4985.141
2591.861, 4887.063
2593.790, 4847.699
2595.718, 4830.709
2597.646, 4814.810
2599.575, 4768.189
2601.503, 4727.451
2603.432, 4698.757
2605.360, 4696.112
2607.289, 4662.993
2609.217, 4625.725
2611.146, 4621.742
2613.074, 4568.763
2615.003, 4516.540
2616.931, 4512.149
2618.860, 4481.439
2620.788, 4442.122
2622.717, 4403.431
2624.645, 4405.929
2626.573, 4417.825
2628.502, 4422.335
2630.430, 4357.378
2632.359, 4300.610
2634.287, 4275.028
2636.216, 4258.176
2638.144, 4251.336
2640.073, 4238.179
2642.001, 4140.467
2643.930, 4103.169
2645.858, 4119.342
2647.787, 4128.122
2649.715, 4093.193
2651.644, 4052.641
2653.572, 4065.464
2655.500, 4064.751
2657.429, 4035.709
2659.357, 3970.068
2661.286, 3959.947
2663.214, 3950.625
2665.143, 3908.942
2667.071, 3893.436
2669.000, 3879.674
2670.928, 3857.416
2672.857, 3841.702
2674.785, 3817.149
2676.714, 3780.055
2678.642, 3736.862
2680.571, 3694.885
2682.499, 3663.632
2684.427, 3661.401
2686.356, 3675.423
2688.284, 3673.434
2690.213, 3644.398
2692.141, 3626.885
2694.070, 3606.568
2695.998, 3583.618
2697.927, 3550.089
2699.855, 3530.031
2701.784, 3470.230
2703.712, 3407.584
2705.641, 3371.708
2707.569, 3363.933
2709.498, 3353.047
2711.426, 3314.370
2713.354, 3281.182
2715.283, 3329.519
2717.211, 3304.982
2719.140, 3256.785
2721.068, 3249.146
2722.997, 3220.142
2724.925, 3190.607
2726.854, 3174.597
2728.782, 3151.327
2730.711, 3121.378
2732.639, 3088.809
2734.568, 3034.887
2736.496, 3019.924
2738.425, 3029.991
2740.353, 3033.984
2742.281, 3032.227
2744.210, 3015.838
2746.138, 2955.257
2748.067, 2923.338
2749.995, 2908.868
2751.924, 2911.588
2753.852, 2890.256
2755.781, 2864.503
2757.709, 2841.748
2759.638, 2829.773
2761.566, 2793.458
2763.495, 2761.173
2765.423, 2779.650
2767.352, 2735.138
2769.280, 2696.908
2771.208, 2701.858
2773.137, 2689.352
2775.065, 2680.941
2776.994, 2671.437
2778.922, 2620.416
2780.851, 2588.364
2782.779, 2568.189
2784.708, 2534.808
2786.636, 2547.653
2788.565, 2542.556
2790.493, 2485.167
2792.422, 2498.841
2794.350, 2499.253
2796.279, 2472.563
2798.207, 2437.209
2800.135, 2431.526
2802.064, 2435.461
2803.992, 2426.738
2805.921, 2389.217
2807.849, 2346.441
2809.778, 2310.615
2811.706, 2272.632
2813.635, 2266.197
2815.563, 2269.054
2817.492, 2226.753
2819.420, 2211.888
2821.349, 2220.880
2823.277, 2241.081
2825.206, 2218.075
2827.134, 2184.866
2829.063, 2156.022
2830.991, 2137.491
2832.919, 2129.192
2834.848, 2120.925
2836.776, 2103.665
2838.705, 2036.215
2840.633, 2019.005
2842.562, 2064.563
2844.490, 2070.274
2846.419, 2034.336
2848.347, 1992.306
2850.276, 2002.146
2852.204, 1988.108
2854.133, 1975.068
2856.061, 1972.322
2857.990, 1925.083
2859.918, 1898.094
2861.846, 1892.975
2863.775, 1893.144
2865.703, 1890.735
2867.632, 1870.424
2869.560, 1828.557
2871.489, 1839.253
2873.417, 1805.738
2875.346, 1750.071
2877.274, 1743.509
2879.203, 1730.924
2881.131, 1716.568
2883.060, 1704.559
2884.988, 1671.211
2886.917, 1650.445
2888.845, 1643.433
2890.773, 1638.949
2892.702, 1665.784
2894.630, 1658.062
2896.559, 1601.295
2898.487, 1622.003
2900.416, 1607.941
2902.344, 1570.668
2904.273, 1558.982
2906.201, 1535.741
2908.130, 1528.321
2910.058, 1517.064
2911.987, 1502.166
2913.915, 1472.750
2915.844, 1462.083
2917.772, 1443.908
2919.700, 1429.454
2921.629, 1411.826
2923.557, 1427.688
2925.486, 1414.034
2927.414, 1406.184
2929.343, 1399.547
2931.271, 1387.335
2933.200, 1376.395
2935.128, 1359.102
2937.057, 1337.336
2938.985, 1315.976
2940.914, 1296.556
2942.842, 1292.590
2944.771, 1300.104
2946.699, 1276.269
2948.627, 1277.537
2950.556, 1272.705
2952.484, 1262.113
2954.413, 1228.477
2956.341, 1224.595
2958.270, 1208.786
2960.198, 1192.495
2962.127, 1186.229
2964.055, 1177.889
2965.984, 1176.090
2967.912, 1169.692
2969.841, 1166.179
2971.769, 1163.511
2973.698, 1158.143
2975.626, 1148.151
2977.554, 1138.952
2979.483, 1123.934
2981.411, 1079.466
2983.340, 1074.525
2985.268, 1067.932
2987.197, 1047.319
2989.125, 1051.979
2991.054, 1054.144
2992.982, 1045.441
2994.911, 1024.764
2996.839, 1047.751
2998.768, 1036.786
3000.696, 1004.715
3002.625, 994.813
3004.553, 982.693
3006.481, 966.218
3008.410, 952.326
3010.338, 961.292
3012.267, 955.417
3014.195, 935.488
3016.124, 895.562
3018.052, 887.130
3019.981, 900.725
3021.909, 908.972
3023.838, 912.161
3025.766, 895.136
3027.695, 903.858
3029.623, 898.617
3031.552, 875.988
3033.480, 860.458
3035.408, 829.201
3037.337, 804.282
3039.265, 830.286
3041.194, 830.778
3043.122, 812.336
3045.051, 789.747
3046.979, 786.971
3048.908, 767.983
3050.836, 761.855
3052.765, 770.743
3054.693, 754.353
3056.622, 766.479
3058.550, 753.524
3060.479, 703.211
3062.407, 721.864
3064.335, 719.883
3066.264, 708.810
3068.192, 705.489
3070.121, 694.948
3072.049, 677.508
3073.978, 661.971
3075.906, 655.840
3077.835, 654.282
3079.763, 654.778
3081.692, 654.781
3083.620, 651.734
3085.549, 631.685
3087.477, 639.215
3089.406, 647.948
3091.334, 623.960
3093.262, 615.926
3095.191, 611.717
3097.119, 603.563
3099.048, 587.960
3100.976, 582.351
3102.905, 564.505
3104.833, 546.568
3106.762, 548.589
3108.690, 545.029
3110.619, 546.548
3112.547, 543.376
3114.476, 521.889
3116.404, 529.929
3118.333, 525.837
3120.261, 515.204
3122.189, 518.015
3124.118, 493.931
3126.046, 500.392
3127.975, 513.619
3129.903, 490.311
3131.832, 488.793
3133.760, 470.889
3135.689, 452.207
3137.617, 457.239
3139.546, 457.549
3141.474, 453.081
3143.403, 453.379
3145.331, 465.383
3147.260, 467.331
3149.188, 465.006
3151.116, 459.193
3153.045, 449.462
3154.973, 431.205
3156.902, 417.866
3158.830, 412.312
3160.759, 412.905
3162.687, 410.330
3164.616, 411.538
3166.544, 402.883
3168.473, 388.202
3170.401, 406.048
3172.330, 392.089
3174.258, 389.436
3176.187, 404.316
3178.115, 388.193
3180.043, 336.370
3181.972, 393.693
3183.900, 424.522
3185.829, 375.435
3187.757, 392.008
3189.686, 378.262
3191.614, 360.232
3193.543, 380.270
3195.471, 356.510
3197.400, 359.282
3199.328, 367.023
3201.257, 355.971
3203.185, 338.205
3205.114, 336.113
3207.042, 333.319
3208.970, 326.067
3210.899, 331.963
3212.827, 336.205
3214.756, 322.487
3216.684, 305.506
3218.613, 313.770
3220.541, 323.259
3222.470, 338.712
3224.398, 346.210
3226.327, 334.593
3228.255, 313.350
3230.184, 328.058
3232.112, 342.018
3234.041, 335.143
3235.969, 320.522
3237.897, 315.151
3239.826, 305.809
3241.754, 293.981
3243.683, 289.599
3245.611, 295.177
3247.540, 299.313
3249.468, 286.468
3251.397, 256.709
3253.325, 276.383
3255.254, 291.682
3257.182, 288.351
3259.111, 276.845
3261.039, 288.109
3262.968, 299.244
3264.896, 285.079
3266.824, 273.748
3268.753, 294.553
3270.681, 270.698
3272.610, 248.766
3274.538, 240.943
3276.467, 247.667
3278.395, 263.475
3280.324, 240.553
3282.252, 233.390
3284.181, 246.394
3286.109, 259.644
3288.038, 250.402
3289.966, 248.324
3291.895, 241.102
3293.823, 228.602
3295.751, 232.270
3297.680, 224.918
3299.608, 227.377
3301.537, 229.887
3303.465, 220.575
3305.394, 224.391
3307.322, 225.443
3309.251, 227.753
3311.179, 230.530
3313.108, 226.646
3315.036, 220.227
3316.965, 212.457
3318.893, 209.469
3320.822, 212.122
3322.750, 206.255
3324.678, 202.674
3326.607, 201.686
3328.535, 209.682
3330.464, 229.620
3332.392, 200.247
3334.321, 198.441
3336.249, 201.603
3338.178, 197.622
3340.106, 198.557
3342.035, 210.792
3343.963, 197.855
3345.892, 189.197
3347.820, 203.652
3349.749, 216.804
3351.677, 204.068
3353.605, 198.518
3355.534, 196.505
3357.462, 186.980
3359.391, 188.757
3361.319, 180.125
3363.248, 182.854
3365.176, 196.413
3367.105, 208.471
3369.033, 209.699
3370.962, 207.468
3372.890, 193.531
3374.819, 175.574
3376.747, 174.224
3378.676, 164.557
3380.604, 189.851
3382.532, 193.846
3384.461, 165.875
3386.389, 157.745
3388.318, 174.238
3390.246, 182.321
3392.175, 193.511
3394.103, 200.240
##END=



