##NAMES=Kovdorskite
##RRUFFID=R050505
##IDEAL CHEMISTRY=Mg_2_(PO_4_)(OH)·3H_2_O
##LOCALITY=Kovdor Massif, Kola Peninsula, Russia
##OWNER=RRUFF
##SOURCE=Bob Downs
##DESCRIPTION=Colorless prismatic crystals, slightly pink in color when viewed in bulk. This sample was used in the structural study by Morrison et al (2012)
##STATUS=The identification of this mineral has been confirmed by X-ray diffraction and chemical analysis
##URL=https://www.rruff.net/odr/rruff_sample/R050505
##MEASURED CHEMISTRY=Mg_2.00_P_1.00_O_4_(OH)·2.67H_2_O ; trace amounts of Mn  H_2_O estimated by difference
##DIFFRACTION SAMPLE DESCRIPTION=Powder
##CELL PARAMETERS=a: 10.3189 b: 12.9374 c: 4.7294 alpha: 90 beta: 101.199 gamma: 90 volume: 619.35 crystal system: monoclinic
##FILETYPE=Raman RAW
##RAMAN WAVELENGTH=532

87.21906, 54.40411
89.14753, 54.41478
91.07600, 54.93593
93.00446, 56.38747
94.93293, 58.26448
96.86140, 59.88176
98.78986, 59.92707
100.7183, 60.75452
102.6468, 62.66083
104.5753, 64.88436
106.5037, 70.99915
108.4322, 79.61333
110.3607, 91.70187
112.2891, 115.1175
114.2176, 146.8261
116.1461, 190.4445
118.0745, 247.3075
120.0030, 317.8646
121.9315, 399.3313
123.8599, 491.8635
125.7884, 595.3204
127.7169, 703.5193
129.6453, 826.7239
131.5738, 945.9120
133.5023, 1050.606
135.4307, 1123.335
137.3592, 1196.717
139.2877, 1264.044
141.2161, 1328.412
143.1446, 1364.715
145.0731, 1398.311
147.0015, 1446.980
148.9300, 1510.816
150.8585, 1601.931
152.7869, 1677.911
154.7154, 1737.804
156.6439, 1786.220
158.5723, 1794.809
160.5008, 1758.552
162.4293, 1696.502
164.3577, 1625.395
166.2862, 1540.846
168.2147, 1459.240
170.1431, 1380.295
172.0716, 1304.055
174.0001, 1240.479
175.9285, 1189.271
177.8570, 1149.760
179.7855, 1120.402
181.7139, 1106.281
183.6424, 1096.812
185.5709, 1091.437
187.4993, 1089.669
189.4278, 1089.403
191.3563, 1088.726
193.2847, 1089.913
195.2132, 1096.014
197.1417, 1111.362
199.0701, 1125.170
200.9986, 1133.349
202.9271, 1136.508
204.8555, 1142.330
206.7840, 1150.271
208.7125, 1161.680
210.6409, 1178.094
212.5694, 1200.150
214.4979, 1224.574
216.4263, 1251.328
218.3548, 1280.698
220.2833, 1307.248
222.2117, 1334.991
224.1402, 1357.311
226.0687, 1370.558
227.9971, 1374.689
229.9256, 1368.301
231.8541, 1348.278
233.7825, 1314.379
235.7110, 1283.514
237.6395, 1253.538
239.5679, 1228.857
241.4964, 1211.636
243.4249, 1205.746
245.3533, 1204.004
247.2818, 1207.228
249.2103, 1214.793
251.1387, 1223.911
253.0672, 1239.201
254.9957, 1252.473
256.9242, 1258.256
258.8526, 1252.282
260.7811, 1246.456
262.7096, 1240.987
264.6380, 1236.283
266.5665, 1234.329
268.4950, 1236.158
270.4234, 1239.954
272.3519, 1245.578
274.2804, 1253.203
276.2088, 1261.388
278.1373, 1270.169
280.0658, 1279.316
281.9942, 1288.682
283.9227, 1295.266
285.8512, 1304.971
287.7796, 1320.315
289.7081, 1340.752
291.6366, 1364.388
293.5650, 1392.426
295.4935, 1422.495
297.4220, 1452.986
299.3504, 1489.406
301.2789, 1517.930
303.2074, 1532.124
305.1358, 1532.209
307.0643, 1531.311
308.9928, 1527.881
310.9212, 1523.883
312.8497, 1523.142
314.7782, 1525.693
316.7066, 1529.284
318.6351, 1532.515
320.5636, 1536.513
322.4920, 1543.107
324.4205, 1548.976
326.3490, 1559.407
328.2774, 1576.944
330.2059, 1601.665
332.1344, 1632.114
334.0628, 1669.915
335.9913, 1712.536
337.9198, 1756.831
339.8482, 1809.311
341.7767, 1854.271
343.7052, 1887.167
345.6336, 1909.205
347.5621, 1913.846
349.4906, 1894.676
351.4190, 1860.933
353.3475, 1822.224
355.2760, 1773.920
357.2044, 1728.293
359.1329, 1687.911
361.0614, 1654.517
362.9898, 1630.651
364.9183, 1618.130
366.8468, 1612.103
368.7752, 1611.470
370.7037, 1618.913
372.6322, 1622.699
374.5606, 1621.097
376.4891, 1615.618
378.4176, 1605.584
380.3460, 1589.819
382.2745, 1571.190
384.2030, 1550.740
386.1314, 1528.365
388.0599, 1509.649
389.9884, 1494.828
391.9168, 1482.940
393.8453, 1474.641
395.7738, 1469.841
397.7022, 1468.629
399.6307, 1470.784
401.5592, 1475.922
403.4876, 1483.753
405.4161, 1495.103
407.3446, 1507.852
409.2730, 1521.544
411.2015, 1536.338
413.1300, 1546.053
415.0584, 1543.952
416.9869, 1540.992
418.9154, 1546.109
420.8438, 1559.089
422.7723, 1574.318
424.7008, 1591.036
426.6292, 1610.718
428.5577, 1634.960
430.4862, 1663.072
432.4146, 1696.641
434.3431, 1730.854
436.2716, 1769.266
438.2000, 1812.432
440.1285, 1863.145
442.0570, 1913.935
443.9854, 1962.454
445.9139, 2010.052
447.8424, 2053.398
449.7708, 2090.705
451.6993, 2120.938
453.6278, 2141.534
455.5562, 2152.424
457.4847, 2150.668
459.4132, 2132.256
461.3416, 2096.992
463.2701, 2059.863
465.1986, 2024.051
467.1270, 1987.993
469.0555, 1952.162
470.9840, 1915.336
472.9124, 1882.565
474.8409, 1855.278
476.7694, 1834.268
478.6978, 1817.361
480.6263, 1805.150
482.5548, 1790.596
484.4832, 1771.026
486.4117, 1749.273
488.3402, 1733.037
490.2686, 1723.871
492.1971, 1716.261
494.1256, 1707.863
496.0540, 1698.709
497.9825, 1691.692
499.9110, 1688.236
501.8394, 1685.733
503.7679, 1681.998
505.6964, 1676.135
507.6248, 1671.509
509.5533, 1671.400
511.4818, 1676.059
513.4103, 1684.229
515.3387, 1694.857
517.2672, 1707.236
519.1957, 1722.872
521.1241, 1742.993
523.0526, 1767.958
524.9811, 1798.621
526.9095, 1832.509
528.8380, 1867.157
530.7665, 1902.063
532.6949, 1933.145
534.6234, 1962.038
536.5519, 1985.851
538.4803, 2001.044
540.4088, 2006.073
542.3373, 2003.771
544.2657, 1996.183
546.1942, 1984.725
548.1227, 1971.362
550.0511, 1957.112
551.9796, 1942.619
553.9081, 1929.917
555.8365, 1919.007
557.7650, 1909.254
559.6935, 1900.204
561.6219, 1890.034
563.5504, 1876.992
565.4789, 1860.473
567.4073, 1842.710
569.3358, 1825.784
571.2643, 1808.361
573.1927, 1789.437
575.1212, 1768.117
577.0497, 1748.979
578.9781, 1729.805
580.9066, 1709.946
582.8351, 1690.815
584.7635, 1675.087
586.6920, 1660.445
588.6205, 1644.219
590.5490, 1629.024
592.4774, 1619.011
594.4059, 1615.259
596.3344, 1611.456
598.2628, 1606.961
600.1913, 1602.783
602.1198, 1600.068
604.0482, 1596.900
605.9767, 1593.581
607.9052, 1592.208
609.8336, 1594.299
611.7621, 1597.522
613.6906, 1598.543
615.6190, 1599.309
617.5475, 1600.621
619.4760, 1601.725
621.4044, 1600.511
623.3329, 1597.876
625.2614, 1596.255
627.1898, 1596.842
629.1183, 1598.057
631.0468, 1598.052
632.9752, 1599.788
634.9037, 1603.388
636.8322, 1607.798
638.7606, 1608.672
640.6891, 1608.273
642.6176, 1608.632
644.5460, 1610.021
646.4745, 1611.692
648.4030, 1611.418
650.3314, 1610.620
652.2599, 1610.966
654.1884, 1613.004
656.1168, 1616.058
658.0453, 1618.516
659.9738, 1621.414
661.9022, 1625.481
663.8307, 1630.443
665.7592, 1635.074
667.6876, 1639.028
669.6161, 1641.867
671.5446, 1642.682
673.4730, 1641.336
675.4015, 1641.190
677.3300, 1645.630
679.2584, 1649.896
681.1869, 1651.790
683.1154, 1651.754
685.0438, 1652.066
686.9723, 1651.775
688.9008, 1652.668
690.8292, 1656.247
692.7577, 1662.480
694.6862, 1665.835
696.6146, 1665.399
698.5431, 1664.729
700.4716, 1665.604
702.4000, 1667.107
704.3285, 1668.900
706.2570, 1671.936
708.1854, 1675.716
710.1139, 1679.780
712.0424, 1682.831
713.9708, 1685.659
715.8993, 1688.494
717.8278, 1692.580
719.7562, 1698.997
721.6847, 1705.213
723.6132, 1708.869
725.5416, 1710.338
727.4701, 1712.300
729.3986, 1716.234
731.3270, 1720.377
733.2555, 1724.065
735.1840, 1727.609
737.1124, 1731.071
739.0409, 1733.647
740.9694, 1735.839
742.8978, 1738.414
744.8263, 1740.698
746.7548, 1743.873
748.6832, 1750.297
750.6117, 1758.437
752.5402, 1764.772
754.4686, 1766.737
756.3971, 1769.292
758.3256, 1774.350
760.2540, 1782.087
762.1825, 1788.800
764.1110, 1794.532
766.0394, 1798.092
767.9679, 1797.681
769.8964, 1794.941
771.8248, 1794.632
773.7533, 1800.013
775.6818, 1805.563
777.6102, 1809.352
779.5387, 1813.291
781.4672, 1816.439
783.3956, 1817.330
785.3241, 1816.954
787.2526, 1817.600
789.1810, 1820.492
791.1095, 1824.542
793.0380, 1830.835
794.9664, 1836.373
796.8949, 1839.353
798.8234, 1837.051
800.7518, 1836.981
802.6803, 1840.597
804.6088, 1845.785
806.5372, 1850.494
808.4657, 1854.729
810.3942, 1859.148
812.3226, 1864.346
814.2511, 1869.232
816.1796, 1873.358
818.1080, 1877.377
820.0365, 1882.504
821.9650, 1888.882
823.8934, 1896.216
825.8219, 1904.990
827.7504, 1914.603
829.6788, 1922.424
831.6073, 1926.758
833.5358, 1930.764
835.4642, 1935.219
837.3927, 1940.647
839.3212, 1947.508
841.2496, 1956.231
843.1781, 1965.944
845.1066, 1976.946
847.0350, 1988.948
848.9635, 1999.688
850.8920, 2007.407
852.8204, 2015.005
854.7489, 2024.354
856.6774, 2035.551
858.6058, 2044.514
860.5343, 2049.896
862.4628, 2054.450
864.3912, 2058.732
866.3197, 2063.346
868.2482, 2069.188
870.1766, 2079.362
872.1051, 2086.182
874.0336, 2086.119
875.9620, 2081.009
877.8905, 2078.119
879.8190, 2078.841
881.7474, 2079.720
883.6759, 2080.545
885.6044, 2080.567
887.5328, 2078.350
889.4613, 2072.339
891.3898, 2066.940
893.3182, 2063.148
895.2467, 2060.764
897.1752, 2059.617
899.1036, 2060.585
901.0321, 2062.075
902.9606, 2062.367
904.8890, 2064.315
906.8175, 2071.211
908.7460, 2083.204
910.6744, 2098.011
912.6029, 2114.401
914.5314, 2134.104
916.4598, 2158.565
918.3883, 2188.782
920.3168, 2221.455
922.2452, 2254.133
924.1737, 2291.181
926.1022, 2334.857
928.0306, 2383.974
929.9591, 2437.718
931.8876, 2494.126
933.8160, 2558.635
935.7445, 2632.169
937.6730, 2713.422
939.6014, 2807.572
941.5299, 2916.093
943.4584, 3038.141
945.3868, 3169.101
947.3153, 3310.587
949.2438, 3473.869
951.1722, 3665.627
953.1007, 3870.646
955.0292, 4097.042
956.9576, 4326.913
958.8861, 4536.177
960.8146, 4749.409
962.7430, 4895.716
964.6715, 4968.500
966.6000, 4971.647
968.5284, 4874.483
970.4569, 4651.710
972.3854, 4392.859
974.3138, 4087.992
976.2423, 3771.825
978.1708, 3485.485
980.0992, 3228.139
982.0277, 3006.265
983.9562, 2826.578
985.8846, 2681.242
987.8131, 2568.046
989.7416, 2491.031
991.6700, 2424.205
993.5985, 2365.544
995.5270, 2313.959
997.4554, 2269.826
999.3839, 2236.886
1001.312, 2210.011
1003.241, 2188.211
1005.169, 2171.737
1007.098, 2161.911
1009.026, 2156.942
1010.955, 2156.064
1012.883, 2161.081
1014.812, 2167.680
1016.740, 2175.445
1018.669, 2182.370
1020.597, 2187.975
1022.526, 2192.632
1024.454, 2195.929
1026.382, 2196.400
1028.311, 2195.923
1030.239, 2196.687
1032.168, 2199.734
1034.096, 2204.743
1036.025, 2210.985
1037.953, 2219.162
1039.882, 2230.628
1041.810, 2245.621
1043.739, 2265.396
1045.667, 2290.709
1047.596, 2320.814
1049.524, 2357.978
1051.453, 2395.344
1053.381, 2427.854
1055.309, 2462.030
1057.238, 2485.696
1059.166, 2489.542
1061.095, 2477.310
1063.023, 2457.401
1064.952, 2428.725
1066.880, 2399.309
1068.809, 2369.455
1070.737, 2345.000
1072.666, 2331.493
1074.594, 2330.157
1076.523, 2332.203
1078.451, 2338.583
1080.380, 2346.598
1082.308, 2355.829
1084.236, 2362.237
1086.165, 2365.501
1088.093, 2367.265
1090.022, 2367.824
1091.950, 2367.242
1093.879, 2364.817
1095.807, 2357.167
1097.736, 2344.635
1099.664, 2333.744
1101.593, 2324.665
1103.521, 2315.410
1105.450, 2307.290
1107.378, 2301.077
1109.307, 2295.758
1111.235, 2293.018
1113.163, 2292.325
1115.092, 2292.329
1117.020, 2291.001
1118.949, 2289.601
1120.877, 2288.406
1122.806, 2288.113
1124.734, 2288.914
1126.663, 2291.154
1128.591, 2294.637
1130.520, 2300.029
1132.448, 2305.277
1134.377, 2309.243
1136.305, 2312.691
1138.234, 2318.153
1140.162, 2325.308
1142.090, 2329.881
1144.019, 2330.854
1145.947, 2332.022
1147.876, 2335.797
1149.804, 2341.216
1151.733, 2345.892
1153.661, 2350.043
1155.590, 2353.762
1157.518, 2356.648
1159.447, 2359.478
1161.375, 2364.120
1163.304, 2371.373
1165.232, 2379.300
1167.161, 2386.907
1169.089, 2392.860
1171.017, 2396.028
1172.946, 2397.314
1174.874, 2400.681
1176.803, 2409.707
1178.731, 2420.636
1180.660, 2430.297
1182.588, 2438.411
1184.517, 2446.419
1186.445, 2453.272
1188.374, 2456.967
1190.302, 2459.231
1192.231, 2463.026
1194.159, 2469.510
1196.088, 2477.195
1198.016, 2481.391
1199.944, 2482.973
1201.873, 2486.075
1203.801, 2493.520
1205.730, 2504.725
1207.658, 2514.973
1209.587, 2521.814
1211.515, 2528.989
1213.444, 2539.310
1215.372, 2549.749
1217.301, 2556.737
1219.229, 2559.952
1221.158, 2564.775
1223.086, 2573.503
1225.015, 2583.264
1226.943, 2593.812
1228.871, 2604.989
1230.800, 2614.397
1232.728, 2618.381
1234.657, 2621.150
1236.585, 2626.869
1238.514, 2635.948
1240.442, 2645.515
1242.371, 2653.730
1244.299, 2662.311
1246.228, 2673.169
1248.156, 2680.483
1250.085, 2682.853
1252.013, 2684.250
1253.942, 2689.256
1255.870, 2698.141
1257.798, 2705.531
1259.727, 2708.825
1261.655, 2710.999
1263.584, 2714.081
1265.512, 2718.341
1267.441, 2724.404
1269.369, 2733.361
1271.298, 2742.360
1273.226, 2750.781
1275.155, 2759.550
1277.083, 2768.651
1279.012, 2777.071
1280.940, 2785.549
1282.869, 2795.698
1284.797, 2806.551
1286.725, 2817.349
1288.654, 2826.315
1290.582, 2832.443
1292.511, 2836.349
1294.439, 2841.869
1296.368, 2846.614
1298.296, 2849.455
1300.225, 2854.341
1302.153, 2862.480
1304.082, 2869.956
1306.010, 2872.558
1307.939, 2876.588
1309.867, 2888.360
1311.796, 2901.313
1313.724, 2908.448
1315.652, 2907.820
1317.581, 2910.425
1319.509, 2915.591
1321.438, 2923.640
1323.366, 2936.097
1325.295, 2950.061
1327.223, 2959.842
1329.152, 2964.229
1331.080, 2969.599
1333.009, 2977.362
1334.937, 2987.955
1336.866, 3000.137
1338.794, 3011.903
1340.723, 3019.962
1342.651, 3023.934
1344.579, 3026.197
1346.508, 3025.486
1348.436, 3025.707
1350.365, 3030.004
1352.293, 3038.622
1354.222, 3047.545
1356.150, 3056.953
1358.079, 3066.303
1360.007, 3077.423
1361.936, 3088.802
1363.864, 3096.681
1365.793, 3099.300
1367.721, 3105.145
1369.650, 3116.203
1371.578, 3127.742
1373.506, 3137.136
1375.435, 3144.863
1377.363, 3153.489
1379.292, 3163.441
1381.220, 3172.150
1383.149, 3178.587
1385.077, 3185.243
1387.006, 3194.575
1388.934, 3204.146
1390.863, 3210.773
1392.791, 3214.145
1394.720, 3219.915
1396.648, 3230.037
1398.577, 3240.577
1400.505, 3249.702
1402.433, 3257.928
1404.362, 3266.773
1406.290, 3276.807
1408.219, 3285.273
1410.147, 3290.047
1412.076, 3295.254
1414.004, 3303.431
1415.933, 3313.555
1417.861, 3323.206
1419.790, 3332.847
1421.718, 3341.805
1423.647, 3347.228
1425.575, 3353.951
1427.504, 3365.815
1429.432, 3380.387
1431.360, 3392.829
1433.289, 3402.254
1435.217, 3413.033
1437.146, 3428.670
1439.074, 3442.287
1441.003, 3447.772
1442.931, 3448.408
1444.860, 3454.567
1446.788, 3467.897
1448.717, 3481.332
1450.645, 3494.706
1452.574, 3506.142
1454.502, 3512.918
1456.431, 3516.550
1458.359, 3521.380
1460.287, 3527.924
1462.216, 3533.069
1464.144, 3534.338
1466.073, 3536.448
1468.001, 3543.633
1469.930, 3553.723
1471.858, 3559.383
1473.787, 3558.406
1475.715, 3561.030
1477.644, 3570.546
1479.572, 3581.200
1481.501, 3590.388
1483.429, 3598.671
1485.358, 3607.573
1487.286, 3618.384
1489.214, 3625.379
1491.143, 3626.597
1493.071, 3626.539
1495.000, 3627.055
1496.928, 3627.914
1498.857, 3628.395
1500.785, 3628.568
1502.714, 3630.869
1504.642, 3636.000
1506.571, 3642.828
1508.499, 3652.698
1510.428, 3662.755
1512.356, 3668.804
1514.285, 3670.415
1516.213, 3670.857
1518.141, 3669.282
1520.070, 3667.966
1521.998, 3667.910
1523.927, 3668.480
1525.855, 3670.422
1527.784, 3673.233
1529.712, 3672.658
1531.641, 3666.985
1533.569, 3663.180
1535.498, 3664.133
1537.426, 3666.745
1539.355, 3668.991
1541.283, 3670.746
1543.212, 3672.100
1545.140, 3672.837
1547.068, 3674.276
1548.997, 3679.499
1550.925, 3681.805
1552.854, 3675.329
1554.782, 3664.508
1556.711, 3658.028
1558.639, 3656.293
1560.568, 3653.996
1562.496, 3651.014
1564.425, 3646.795
1566.353, 3639.661
1568.282, 3633.316
1570.210, 3632.277
1572.139, 3636.718
1574.067, 3636.936
1575.995, 3629.208
1577.924, 3623.432
1579.852, 3623.875
1581.781, 3623.598
1583.709, 3614.789
1585.638, 3600.276
1587.566, 3593.716
1589.495, 3601.973
1591.423, 3603.834
1593.352, 3592.021
1595.280, 3582.983
1597.209, 3584.758
1599.137, 3592.390
1601.066, 3599.222
1602.994, 3605.469
1604.922, 3607.062
1606.851, 3602.374
1608.779, 3594.457
1610.708, 3583.165
1612.636, 3569.305
1614.565, 3553.620
1616.493, 3537.092
1618.422, 3520.541
1620.350, 3502.411
1622.279, 3488.601
1624.207, 3483.356
1626.136, 3477.830
1628.064, 3465.526
1629.993, 3459.178
1631.921, 3441.977
1633.849, 3439.338
1635.778, 3432.155
1637.706, 3418.673
1639.635, 3403.603
1641.563, 3386.980
1643.492, 3370.847
1645.420, 3356.788
1647.349, 3344.713
1649.277, 3334.385
1651.206, 3326.398
1653.134, 3316.806
1655.063, 3304.569
1656.991, 3291.033
1658.920, 3276.223
1660.848, 3260.692
1662.776, 3244.571
1664.705, 3228.290
1666.633, 3214.745
1668.562, 3204.859
1670.490, 3195.167
1672.419, 3185.709
1674.347, 3174.753
1676.276, 3158.659
1678.204, 3140.994
1680.133, 3129.136
1682.061, 3122.944
1683.990, 3113.331
1685.918, 3097.911
1687.847, 3084.239
1689.775, 3076.976
1691.703, 3070.181
1693.632, 3058.789
1695.560, 3045.232
1697.489, 3035.218
1699.417, 3028.848
1701.346, 3022.896
1703.274, 3016.630
1705.203, 3011.244
1707.131, 3009.043
1709.060, 3006.247
1710.988, 2998.778
1712.917, 2988.133
1714.845, 2978.741
1716.774, 2970.002
1718.702, 2964.927
1720.630, 2965.646
1722.559, 2966.836
1724.487, 2968.017
1726.416, 2967.698
1728.344, 2963.758
1730.273, 2957.232
1732.201, 2952.630
1734.130, 2951.066
1736.058, 2947.431
1737.987, 2938.586
1739.915, 2931.152
1741.844, 2928.052
1743.772, 2926.840
1745.701, 2925.908
1747.629, 2924.935
1749.557, 2921.784
1751.486, 2915.308
1753.414, 2911.134
1755.343, 2910.570
1757.271, 2911.117
1759.200, 2912.991
1761.128, 2914.403
1763.057, 2913.228
1764.985, 2909.944
1766.914, 2907.135
1768.842, 2905.009
1770.771, 2903.549
1772.699, 2903.327
1774.628, 2903.658
1776.556, 2904.256
1778.484, 2905.344
1780.413, 2907.575
1782.341, 2909.996
1784.270, 2909.478
1786.198, 2903.612
1788.127, 2901.443
1790.055, 2907.806
1791.984, 2911.359
1793.912, 2907.560
1795.841, 2903.489
1797.769, 2905.319
1799.698, 2910.796
1801.626, 2913.584
1803.555, 2912.414
1805.483, 2913.826
1807.411, 2919.125
1809.340, 2923.679
1811.268, 2926.011
1813.197, 2927.675
1815.125, 2930.053
1817.054, 2932.125
1818.982, 2932.453
1820.911, 2931.326
1822.839, 2929.246
1824.768, 2924.766
1826.696, 2923.860
1828.625, 2931.455
1830.553, 2937.315
1832.482, 2936.247
1834.410, 2932.814
1836.339, 2930.666
1838.267, 2929.820
1840.195, 2931.383
1842.124, 2935.995
1844.052, 2938.835
1845.981, 2938.375
1847.909, 2938.781
1849.838, 2941.943
1851.766, 2945.840
1853.695, 2949.176
1855.623, 2952.216
1857.552, 2956.080
1859.480, 2960.314
1861.409, 2961.165
1863.337, 2957.496
1865.266, 2954.148
1867.194, 2951.399
1869.122, 2950.681
1871.051, 2954.638
1872.979, 2959.433
1874.908, 2961.737
1876.836, 2961.905
1878.765, 2960.149
1880.693, 2956.124
1882.622, 2955.189
1884.550, 2959.614
1886.479, 2963.229
1888.407, 2963.740
1890.336, 2964.135
1892.264, 2965.883
1894.193, 2968.716
1896.121, 2973.134
1898.049, 2978.706
1899.978, 2981.292
1901.906, 2978.563
1903.835, 2978.577
1905.763, 2982.510
1907.692, 2987.051
1909.620, 2993.253
1911.549, 2997.683
1913.477, 2997.128
1915.406, 2994.007
1917.334, 2992.244
1919.263, 2991.835
1921.191, 2990.220
1923.120, 2992.260
1925.048, 2996.628
1926.976, 2997.653
1928.905, 3007.528
1930.833, 3012.314
1932.762, 3014.970
1934.690, 3016.782
1936.619, 3017.766
1938.547, 3018.366
1940.476, 3018.331
1942.404, 3015.100
1944.333, 3007.715
1946.261, 3005.399
1948.190, 3012.921
1950.118, 3019.296
1952.047, 3020.353
1953.975, 3019.431
1955.904, 3016.233
1957.832, 3013.577
1959.760, 3016.641
1961.689, 3024.292
1963.617, 3029.008
1965.546, 3029.556
1967.474, 3031.386
1969.403, 3037.654
1971.331, 3040.969
1973.260, 3037.388
1975.188, 3033.834
1977.117, 3033.533
1979.045, 3035.632
1980.974, 3040.202
1982.902, 3046.283
1984.831, 3049.598
1986.759, 3049.875
1988.688, 3049.577
1990.616, 3048.323
1992.544, 3048.463
1994.473, 3051.888
1996.401, 3054.883
1998.330, 3053.411
2000.258, 3053.250
2002.187, 3060.184
2004.115, 3070.610
2006.044, 3078.623
2007.972, 3083.992
2009.901, 3086.772
2011.829, 3086.623
2013.758, 3085.676
2015.686, 3083.178
2017.615, 3082.631
2019.543, 3086.464
2021.471, 3091.607
2023.400, 3097.990
2025.328, 3103.608
2027.257, 3104.931
2029.185, 3103.106
2031.114, 3102.532
2033.042, 3102.662
2034.971, 3105.004
2036.899, 3111.800
2038.828, 3114.447
2040.756, 3109.000
2042.685, 3104.472
2044.613, 3107.209
2046.542, 3108.688
2048.470, 3100.671
2050.398, 3091.363
2052.327, 3092.891
2054.255, 3101.736
2056.184, 3106.345
2058.112, 3106.209
2060.041, 3105.880
2061.969, 3104.324
2063.898, 3106.111
2065.826, 3115.237
2067.755, 3123.185
2069.683, 3127.401
2071.612, 3129.776
2073.540, 3131.175
2075.469, 3131.928
2077.397, 3132.339
2079.325, 3132.399
2081.254, 3132.102
2083.182, 3131.391
2085.111, 3130.310
2087.039, 3128.238
2088.968, 3128.181
2090.896, 3131.862
2092.825, 3134.938
2094.753, 3135.770
2096.682, 3135.766
2098.610, 3133.918
2100.539, 3133.015
2102.467, 3139.150
2104.396, 3134.213
2106.324, 3144.318
2108.252, 3130.866
2110.181, 3123.700
2112.109, 3125.291
2114.038, 3126.051
2115.966, 3124.909
2117.895, 3124.862
2119.823, 3127.002
2121.752, 3129.547
2123.680, 3129.694
2125.609, 3132.129
2127.537, 3144.093
2129.466, 3157.277
2131.394, 3158.283
2133.323, 3150.736
2135.251, 3146.706
2137.179, 3146.093
2139.108, 3144.391
2141.036, 3141.094
2142.965, 3138.638
2144.893, 3137.797
2146.822, 3137.654
2148.750, 3140.904
2150.679, 3141.340
2152.607, 3130.568
2154.536, 3122.062
2156.464, 3130.499
2158.393, 3145.588
2160.321, 3151.531
2162.250, 3150.310
2164.178, 3150.544
2166.106, 3152.075
2168.035, 3152.722
2169.963, 3152.016
2171.892, 3152.794
2173.820, 3156.501
2175.749, 3158.465
2177.677, 3154.702
2179.606, 3152.867
2181.534, 3159.060
2183.463, 3164.760
2185.391, 3162.411
2187.320, 3157.429
2189.248, 3156.536
2191.177, 3158.270
2193.105, 3159.376
2195.033, 3159.764
2196.962, 3158.138
2198.890, 3154.569
2200.819, 3148.733
2202.747, 3139.582
2204.676, 3135.295
2206.604, 3141.026
2208.533, 3144.541
2210.461, 3136.850
2212.390, 3132.526
2214.318, 3141.744
2216.247, 3152.888
2218.175, 3155.326
2220.104, 3160.901
2222.032, 3157.215
2223.960, 3162.351
2225.889, 3161.448
2227.817, 3155.191
2229.746, 3155.339
2231.674, 3162.987
2233.603, 3166.142
2235.531, 3162.916
2237.460, 3160.294
2239.388, 3159.211
2241.317, 3159.435
2243.245, 3160.330
2245.174, 3162.714
2247.102, 3168.719
2249.031, 3174.158
2250.959, 3176.594
2252.887, 3176.662
2254.816, 3172.460
2256.744, 3167.721
2258.673, 3172.255
2260.601, 3183.245
2262.530, 3187.633
2264.458, 3185.479
2266.387, 3183.119
2268.315, 3180.918
2270.244, 3179.322
2272.172, 3178.806
2274.101, 3178.836
2276.029, 3178.450
2277.958, 3180.521
2279.886, 3189.928
2281.814, 3196.175
2283.743, 3189.421
2285.671, 3183.372
2287.600, 3189.958
2289.528, 3199.686
2291.457, 3201.459
2293.385, 3207.078
2295.314, 3211.611
2297.242, 3212.472
2299.171, 3216.808
2301.099, 3217.425
2303.028, 3215.244
2304.956, 3208.978
2306.885, 3205.371
2308.813, 3205.177
2310.741, 3206.101
2312.670, 3207.743
2314.598, 3211.392
2316.527, 3217.974
2318.455, 3225.144
2320.384, 3232.248
2322.312, 3239.042
2324.241, 3247.379
2326.169, 3252.980
2328.098, 3251.503
2330.026, 3246.334
2331.955, 3239.267
2333.883, 3232.464
2335.812, 3230.380
2337.740, 3232.084
2339.668, 3234.510
2341.597, 3237.605
2343.525, 3240.512
2345.454, 3243.394
2347.382, 3246.697
2349.311, 3252.020
2351.239, 3250.239
2353.168, 3233.235
2355.096, 3222.257
2357.025, 3220.878
2358.953, 3222.576
2360.882, 3229.318
2362.810, 3234.018
2364.739, 3232.119
2366.667, 3230.957
2368.595, 3236.469
2370.524, 3241.744
2372.452, 3240.584
2374.381, 3237.186
2376.309, 3236.341
2378.238, 3236.384
2380.166, 3233.871
2382.095, 3235.242
2384.023, 3235.747
2385.952, 3236.780
2387.880, 3239.292
2389.809, 3239.680
2391.737, 3242.641
2393.666, 3243.960
2395.594, 3244.559
2397.522, 3247.550
2399.451, 3246.327
2401.379, 3248.355
2403.308, 3250.789
2405.236, 3254.774
2407.165, 3256.968
2409.093, 3257.101
2411.022, 3255.233
2412.950, 3248.778
2414.879, 3245.306
2416.807, 3252.188
2418.736, 3258.761
2420.664, 3258.271
2422.593, 3254.964
2424.521, 3248.404
2426.449, 3244.362
2428.378, 3253.321
2430.306, 3266.130
2432.235, 3267.073
2434.163, 3261.641
2436.092, 3262.454
2438.020, 3266.903
2439.949, 3265.859
2441.877, 3260.302
2443.806, 3256.295
2445.734, 3253.855
2447.663, 3257.679
2449.591, 3269.435
2451.520, 3275.868
2453.448, 3275.491
2455.376, 3275.413
2457.305, 3275.699
2459.233, 3277.735
2461.162, 3283.479
2463.090, 3286.514
2465.019, 3285.947
2466.947, 3283.327
2468.876, 3275.842
2470.804, 3272.636
2472.733, 3280.093
2474.661, 3285.516
2476.590, 3279.602
2478.518, 3275.379
2480.447, 3282.137
2482.375, 3289.996
2484.303, 3293.673
2486.232, 3293.985
2488.160, 3289.456
2490.089, 3284.921
2492.017, 3286.351
2493.946, 3290.974
2495.874, 3295.438
2497.803, 3299.756
2499.731, 3304.747
2501.660, 3308.779
2503.588, 3306.669
2505.517, 3300.504
2507.445, 3299.521
2509.374, 3302.786
2511.302, 3304.189
2513.230, 3303.892
2515.159, 3302.708
2517.087, 3301.055
2519.016, 3302.644
2520.944, 3308.630
2522.873, 3309.355
2524.801, 3311.163
2526.730, 3315.091
2528.658, 3312.695
2530.587, 3320.256
2532.515, 3321.448
2534.444, 3322.171
2536.372, 3322.362
2538.301, 3324.523
2540.229, 3333.113
2542.157, 3335.408
2544.086, 3324.320
2546.014, 3315.516
2547.943, 3311.738
2549.871, 3311.802
2551.800, 3316.761
2553.728, 3322.853
2555.657, 3328.447
2557.585, 3334.401
2559.514, 3342.821
2561.442, 3348.664
2563.371, 3348.208
2565.299, 3346.117
2567.228, 3345.091
2569.156, 3343.479
2571.084, 3337.535
2573.013, 3334.399
2574.941, 3341.599
2576.870, 3351.208
2578.798, 3358.206
2580.727, 3362.338
2582.655, 3361.469
2584.584, 3359.600
2586.512, 3361.281
2588.441, 3364.660
2590.369, 3368.115
2592.298, 3371.125
2594.226, 3371.963
2596.155, 3372.351
2598.083, 3376.523
2600.011, 3381.790
2601.940, 3381.127
2603.868, 3387.064
2605.797, 3384.311
2607.725, 3394.767
2609.654, 3400.625
2611.582, 3403.156
2613.511, 3404.118
2615.439, 3405.004
2617.368, 3415.534
2619.296, 3432.045
2621.225, 3434.398
2623.153, 3426.062
2625.082, 3422.002
2627.010, 3422.190
2628.938, 3424.782
2630.867, 3429.517
2632.795, 3428.085
2634.724, 3431.098
2636.652, 3431.872
2638.581, 3431.519
2640.509, 3433.911
2642.438, 3435.711
2644.366, 3432.100
2646.295, 3440.994
2648.223, 3446.883
2650.152, 3449.480
2652.080, 3449.097
2654.009, 3445.869
2655.937, 3445.382
2657.865, 3448.245
2659.794, 3455.424
2661.722, 3468.589
2663.651, 3474.651
2665.579, 3470.805
2667.508, 3471.668
2669.436, 3477.307
2671.365, 3480.665
2673.293, 3480.942
2675.222, 3486.253
2677.150, 3499.542
2679.079, 3504.539
2681.007, 3498.038
2682.936, 3494.642
2684.864, 3494.075
2686.792, 3501.766
2688.721, 3519.024
2690.649, 3527.123
2692.578, 3521.993
2694.506, 3518.983
2696.435, 3517.692
2698.363, 3523.239
2700.292, 3537.225
2702.220, 3545.692
2704.149, 3547.126
2706.077, 3551.364
2708.006, 3559.737
2709.934, 3569.456
2711.863, 3583.094
2713.791, 3586.429
2715.719, 3577.145
2717.648, 3578.422
2719.576, 3592.561
2721.505, 3602.377
2723.433, 3606.078
2725.362, 3605.855
2727.290, 3599.995
2729.219, 3599.801
2731.147, 3605.972
2733.076, 3610.271
2735.004, 3612.103
2736.933, 3616.230
2738.861, 3623.234
2740.790, 3630.360
2742.718, 3637.990
2744.646, 3641.974
2746.575, 3642.405
2748.503, 3646.158
2750.432, 3653.549
2752.360, 3661.856
2754.289, 3670.943
2756.217, 3674.966
2758.146, 3673.083
2760.074, 3679.777
2762.003, 3681.400
2763.931, 3682.073
2765.860, 3688.318
2767.788, 3686.297
2769.717, 3690.109
2771.645, 3697.680
2773.573, 3708.431
2775.502, 3714.135
2777.430, 3716.216
2779.359, 3723.561
2781.287, 3733.435
2783.216, 3731.306
2785.144, 3721.828
2787.073, 3725.567
2789.001, 3738.875
2790.930, 3749.935
2792.858, 3758.989
2794.787, 3764.710
2796.715, 3769.392
2798.644, 3781.301
2800.572, 3794.224
2802.500, 3792.007
2804.429, 3784.242
2806.357, 3788.490
2808.286, 3797.791
2810.214, 3802.157
2812.143, 3805.934
2814.071, 3817.219
2816.000, 3828.979
2817.928, 3829.252
2819.857, 3829.021
2821.785, 3840.948
2823.714, 3854.073
2825.642, 3854.806
2827.571, 3856.445
2829.499, 3875.241
2831.427, 3892.384
2833.356, 3892.624
2835.284, 3892.856
2837.213, 3904.118
2839.141, 3917.493
2841.070, 3929.085
2842.998, 3940.441
2844.927, 3951.614
2846.855, 3962.954
2848.784, 3974.483
2850.712, 3985.825
2852.641, 3996.403
2854.569, 4007.442
2856.498, 4019.292
2858.426, 4031.011
2860.354, 4046.329
2862.283, 4055.510
2864.211, 4078.683
2866.140, 4098.864
2868.068, 4116.239
2869.997, 4127.510
2871.925, 4139.586
2873.854, 4148.204
2875.782, 4152.765
2877.711, 4160.126
2879.639, 4159.678
2881.568, 4162.536
2883.496, 4168.277
2885.425, 4174.491
2887.353, 4180.795
2889.281, 4184.018
2891.210, 4185.579
2893.138, 4190.812
2895.067, 4200.005
2896.995, 4215.081
2898.924, 4232.902
2900.852, 4246.110
2902.781, 4257.455
2904.709, 4273.221
2906.638, 4283.870
2908.566, 4298.686
2910.495, 4305.954
2912.423, 4315.224
2914.352, 4323.776
2916.280, 4324.109
2918.208, 4329.746
2920.137, 4355.786
2922.065, 4379.176
2923.994, 4383.750
2925.922, 4390.108
2927.851, 4410.786
2929.779, 4428.504
2931.708, 4440.653
2933.636, 4446.318
2935.565, 4442.589
2937.493, 4443.711
2939.422, 4454.814
2941.350, 4466.523
2943.279, 4478.575
2945.207, 4486.977
2947.135, 4491.016
2949.064, 4492.692
2950.992, 4492.132
2952.921, 4495.744
2954.849, 4503.883
2956.778, 4516.571
2958.706, 4531.931
2960.635, 4541.462
2962.563, 4547.006
2964.492, 4552.456
2966.420, 4556.441
2968.349, 4556.542
2970.277, 4553.195
2972.206, 4544.433
2974.134, 4536.264
2976.063, 4534.555
2977.991, 4536.471
2979.919, 4547.955
2981.848, 4551.219
2983.776, 4529.360
2985.705, 4513.952
2987.633, 4519.602
2989.562, 4528.580
2991.490, 4540.188
2993.419, 4542.207
2995.347, 4529.574
2997.276, 4522.014
2999.204, 4524.907
3001.133, 4526.946
3003.061, 4528.720
3004.990, 4524.944
3006.918, 4523.124
3008.846, 4513.607
3010.775, 4514.014
3012.703, 4510.361
3014.632, 4505.278
3016.560, 4507.817
3018.489, 4512.200
3020.417, 4508.479
3022.346, 4505.002
3024.274, 4515.814
3026.203, 4523.949
3028.131, 4514.838
3030.060, 4505.325
3031.988, 4502.973
3033.917, 4504.103
3035.845, 4510.453
3037.773, 4512.479
3039.702, 4507.182
3041.630, 4503.349
3043.559, 4502.683
3045.487, 4505.510
3047.416, 4505.621
3049.344, 4514.874
3051.273, 4513.500
3053.201, 4519.188
3055.130, 4529.304
3057.058, 4532.680
3058.987, 4531.864
3060.915, 4530.972
3062.844, 4531.908
3064.772, 4540.578
3066.700, 4548.121
3068.629, 4545.851
3070.557, 4539.632
3072.486, 4530.782
3074.414, 4521.914
3076.343, 4515.071
3078.271, 4506.002
3080.200, 4493.917
3082.128, 4479.978
3084.057, 4463.541
3085.985, 4456.243
3087.914, 4447.641
3089.842, 4441.660
3091.771, 4439.902
3093.699, 4435.020
3095.627, 4436.264
3097.556, 4433.014
3099.484, 4425.440
3101.413, 4409.953
3103.341, 4395.167
3105.270, 4388.935
3107.198, 4387.102
3109.127, 4390.582
3111.055, 4391.683
3112.984, 4386.002
3114.912, 4383.311
3116.841, 4387.752
3118.769, 4391.354
3120.698, 4392.509
3122.626, 4394.116
3124.554, 4396.132
3126.483, 4400.935
3128.411, 4408.509
3130.340, 4420.936
3132.268, 4427.023
3134.197, 4441.280
3136.125, 4445.747
3138.054, 4457.144
3139.982, 4469.916
3141.911, 4477.527
3143.839, 4487.735
3145.768, 4504.893
3147.696, 4523.430
3149.625, 4545.982
3151.553, 4560.158
3153.481, 4562.506
3155.410, 4575.202
3157.338, 4599.805
3159.267, 4627.961
3161.195, 4658.521
3163.124, 4689.787
3165.052, 4720.307
3166.981, 4745.452
3168.909, 4770.659
3170.838, 4801.189
3172.766, 4837.609
3174.695, 4882.696
3176.623, 4929.552
3178.552, 4972.638
3180.480, 5022.087
3182.408, 5082.463
3184.337, 5140.158
3186.265, 5194.132
3188.194, 5242.283
3190.122, 5285.274
3192.051, 5333.539
3193.979, 5386.260
3195.908, 5444.239
3197.836, 5500.107
3199.765, 5538.929
3201.693, 5575.826
3203.622, 5626.769
3205.550, 5673.492
3207.479, 5707.400
3209.407, 5732.415
3211.335, 5747.730
3213.264, 5757.007
3215.192, 5761.043
3217.121, 5762.430
3219.049, 5755.034
3220.978, 5748.766
3222.906, 5726.914
3224.835, 5700.564
3226.763, 5674.592
3228.692, 5655.676
3230.620, 5637.574
3232.549, 5617.748
3234.477, 5591.920
3236.406, 5556.120
3238.334, 5519.511
3240.262, 5484.327
3242.191, 5447.552
3244.119, 5409.462
3246.048, 5385.125
3247.976, 5369.983
3249.905, 5341.185
3251.833, 5305.640
3253.762, 5275.192
3255.690, 5246.972
3257.619, 5220.678
3259.547, 5193.033
3261.476, 5168.092
3263.404, 5143.629
3265.333, 5118.737
3267.261, 5100.216
3269.189, 5075.825
3271.118, 5061.755
3273.046, 5042.162
3274.975, 5026.633
3276.903, 5011.153
3278.832, 4998.946
3280.760, 4990.785
3282.689, 4979.466
3284.617, 4969.478
3286.546, 4964.829
3288.474, 4956.863
3290.403, 4952.920
3292.331, 4952.300
3294.260, 4946.444
3296.188, 4950.037
3298.116, 4947.642
3300.045, 4938.440
3301.973, 4926.579
3303.902, 4917.345
3305.830, 4910.048
3307.759, 4902.322
3309.687, 4899.770
3311.616, 4900.229
3313.544, 4915.085
3315.473, 4910.264
3317.401, 4914.065
3319.330, 4926.619
3321.258, 4925.881
3323.187, 4934.809
3325.115, 4930.720
3327.043, 4946.510
3328.972, 4943.315
3330.900, 4945.685
3332.829, 4975.567
3334.757, 5001.747
3336.686, 5016.148
3338.614, 5030.163
3340.543, 5043.996
3342.471, 5065.213
3344.400, 5092.570
3346.328, 5123.070
3348.257, 5155.011
3350.185, 5185.815
3352.114, 5217.517
3354.042, 5250.124
3355.970, 5286.863
3357.899, 5331.036
3359.827, 5374.911
3361.756, 5417.830
3363.684, 5460.679
3365.613, 5503.331
3367.541, 5546.486
3369.470, 5588.695
3371.398, 5632.479
3373.327, 5667.343
3375.255, 5682.377
3377.184, 5689.813
3379.112, 5692.128
3381.041, 5694.964
3382.969, 5700.814
3384.897, 5700.287
3386.826, 5694.071
3388.754, 5682.719
3390.683, 5670.293
3392.611, 5661.646
3394.540, 5657.627
3396.468, 5663.500
3398.397, 5663.744
3400.325, 5654.067
3402.254, 5633.107
3404.182, 5601.217
3406.111, 5583.439
3408.039, 5574.662
3409.968, 5558.698
3411.896, 5533.361
3413.824, 5488.479
3415.753, 5448.071
3417.681, 5434.141
3419.610, 5411.571
3421.538, 5371.925
3423.467, 5345.174
3425.395, 5332.876
3427.324, 5323.057
3429.252, 5308.292
3431.181, 5268.905
3433.109, 5223.696
3435.038, 5186.785
3436.966, 5157.345
3438.895, 5139.865
3440.823, 5111.066
3442.751, 5065.065
3444.680, 5027.399
3446.608, 4997.474
3448.537, 4971.798
3450.465, 4948.861
3452.394, 4926.321
3454.322, 4905.826
3456.251, 4892.584
3458.179, 4869.635
3460.108, 4832.096
3462.036, 4797.086
3463.965, 4764.854
3465.893, 4727.057
3467.822, 4688.031
3469.750, 4656.648
3471.678, 4626.602
3473.607, 4590.576
3475.535, 4561.133
3477.464, 4528.739
3479.392, 4498.287
3481.321, 4469.489
3483.249, 4440.124
3485.178, 4418.663
3487.106, 4391.946
3489.035, 4362.428
3490.963, 4330.025
3492.892, 4300.005
3494.820, 4274.525
3496.749, 4248.127
3498.677, 4220.151
3500.605, 4190.745
3502.534, 4161.963
3504.462, 4139.325
3506.391, 4118.027
3508.319, 4092.292
3510.248, 4068.681
3512.176, 4050.446
3514.105, 4031.710
3516.033, 4012.239
3517.962, 3976.754
3519.890, 3934.909
3521.819, 3908.187
3523.747, 3889.543
3525.676, 3875.662
3527.604, 3860.445
3529.532, 3841.527
3531.461, 3818.528
3533.389, 3801.696
3535.318, 3775.144
3537.246, 3761.953
3539.175, 3738.195
3541.103, 3715.540
3543.032, 3703.903
3544.960, 3693.457
3546.889, 3682.172
3548.817, 3668.859
3550.746, 3653.058
3552.674, 3633.687
3554.603, 3613.307
3556.531, 3596.187
3558.459, 3581.349
3560.388, 3569.676
3562.316, 3558.230
3564.245, 3546.710
3566.173, 3533.569
3568.102, 3519.524
3570.030, 3509.517
3571.959, 3500.878
3573.887, 3493.019
3575.816, 3480.607
3577.744, 3459.538
3579.673, 3443.071
3581.601, 3433.702
3583.530, 3426.093
3585.458, 3419.306
3587.386, 3409.688
3589.315, 3400.098
3591.243, 3392.631
3593.172, 3385.522
3595.100, 3378.097
3597.029, 3370.941
3598.957, 3363.925
3600.886, 3358.716
3602.814, 3352.294
3604.743, 3339.887
3606.671, 3326.008
3608.600, 3311.516
3610.528, 3303.058
3612.457, 3292.447
3614.385, 3285.016
3616.313, 3278.539
3618.242, 3273.725
3620.170, 3271.910
3622.099, 3268.504
3624.027, 3262.967
3625.956, 3258.510
3627.884, 3248.576
3629.813, 3246.934
3631.741, 3240.648
3633.670, 3235.339
3635.598, 3238.801
3637.527, 3244.857
3639.455, 3253.717
3641.384, 3252.891
3643.312, 3241.823
3645.240, 3235.620
3647.169, 3239.381
3649.097, 3258.401
3651.026, 3292.464
3652.954, 3316.912
3654.883, 3439.384
3656.811, 3677.708
3658.740, 4108.662
3660.668, 4593.422
3662.597, 4837.474
3664.525, 4945.944
3666.454, 4856.253
3668.382, 5049.917
3670.311, 5621.588
3672.239, 6730.075
3674.167, 8373.456
3676.096, 10832.72
3678.024, 13241.52
3679.953, 15246.31
3681.881, 15831.98
3683.810, 14411.06
3685.738, 12473.90
3687.667, 10251.16
3689.595, 8394.001
3691.524, 6966.773
3693.452, 6153.726
3695.381, 5699.551
3697.309, 5676.714
3699.238, 5236.329
3701.166, 4436.462
3703.094, 3851.471
3705.023, 3454.634
3706.951, 3292.705
3708.880, 3206.641
3710.808, 3158.411
3712.737, 3123.432
3714.665, 3098.721
3716.594, 3084.797
3718.522, 3076.070
3720.451, 3069.454
3722.379, 3059.586
3724.308, 3051.039
3726.236, 3043.620
3728.165, 3035.746
3730.093, 3028.735
3732.021, 3022.622
3733.950, 3016.426
3735.878, 3011.497
3737.807, 3007.758
3739.735, 3008.784
3741.664, 3012.575
3743.592, 3004.700
3745.521, 2996.121
3747.449, 3000.637
3749.378, 3002.370
3751.306, 2996.896
3753.235, 2996.010
3755.163, 2997.837
3757.092, 2989.514
3759.020, 2979.539
3760.948, 2975.638
3762.877, 2971.746
3764.805, 2966.753
3766.734, 2958.607
3768.662, 2956.528
3770.591, 2949.719
3772.519, 2950.483
3774.448, 2945.146
3776.376, 2942.892
3778.305, 2945.062
3780.233, 2946.391
3782.162, 2946.111
3784.090, 2941.418
3786.019, 2936.556
3787.947, 2934.397
3789.875, 2929.438
3791.804, 2922.137
3793.732, 2924.412
3795.661, 2928.918
3797.589, 2922.265
3799.518, 2920.633
3801.446, 2934.675
3803.375, 2939.429
3805.303, 2935.325
3807.232, 2929.901
3809.160, 2925.048
3811.089, 2923.904
3813.017, 2918.475
3814.946, 2916.620
3816.874, 2914.931
3818.802, 2911.317
3820.731, 2910.237
3822.659, 2906.150
3824.588, 2899.171
3826.516, 2900.933
3828.445, 2911.589
3830.373, 2909.430
3832.302, 2901.447
3834.230, 2893.591
3836.159, 2892.440
3838.087, 2889.778
3840.016, 2889.792
3841.944, 2892.584
3843.873, 2894.030
3845.801, 2899.296
3847.729, 2902.901
3849.658, 2910.429
3851.586, 2923.604
3853.515, 2923.253
3855.443, 2914.497
3857.372, 2901.844
3859.300, 2895.035
3861.229, 2899.298
3863.157, 2899.255
3865.086, 2894.107
3867.014, 2884.113
3868.943, 2875.976
3870.871, 2877.847
3872.800, 2877.673
3874.728, 2874.323
3876.656, 2877.599
3878.585, 2883.963
3880.513, 2888.584
3882.442, 2891.445
3884.370, 2892.531
3886.299, 2891.776
3888.227, 2889.406
3890.156, 2885.792
3892.084, 2883.831
3894.013, 2886.603
3895.941, 2891.241
3897.870, 2897.319
3899.798, 2890.667
3901.727, 2879.369
3903.655, 2872.072
3905.583, 2875.205
3907.512, 2872.019
3909.440, 2870.240
3911.369, 2876.204
3913.297, 2870.964
3915.226, 2870.528
3917.154, 2877.911
3919.083, 2882.926
3921.011, 2882.655
3922.940, 2877.630
3924.868, 2870.935
3926.797, 2865.820
3928.725, 2862.895
3930.654, 2861.630
3932.582, 2864.347
3934.510, 2868.723
3936.439, 2870.367
3938.367, 2870.311
3940.296, 2870.012
3942.224, 2871.115
3944.153, 2871.718
3946.081, 2867.140
3948.010, 2863.200
3949.938, 2865.229
3951.867, 2866.438
3953.795, 2864.853
3955.724, 2868.660
3957.652, 2870.890
3959.581, 2863.952
3961.509, 2857.641
3963.438, 2853.221
3965.366, 2854.577
3967.294, 2857.862
3969.223, 2859.366
3971.151, 2862.561
3973.080, 2867.547
3975.008, 2870.441
3976.937, 2872.542
3978.865, 2874.233
3980.794, 2871.906
3982.722, 2863.731
3984.651, 2859.212
3986.579, 2858.548
3988.508, 2856.535
3990.436, 2867.104
3992.365, 2860.558
3994.293, 2861.922
3996.221, 2868.513
3998.150, 2861.022
4000.078, 2854.974
4002.007, 2862.269
4003.935, 2866.618
4005.864, 2866.058
4007.792, 2862.086
4009.721, 2859.984
4011.649, 2867.522
4013.578, 2867.146
4015.506, 2868.748
4017.435, 2862.791
4019.363, 2871.789
4021.292, 2872.320
4023.220, 2875.439
4025.148, 2881.636
4027.077, 2879.031
4029.005, 2873.268
4030.934, 2866.324
4032.862, 2862.397
4034.791, 2861.325
4036.719, 2864.289
4038.648, 2871.698
4040.576, 2872.462
4042.505, 2869.819
4044.433, 2867.269
4046.362, 2864.204
4048.290, 2862.131
4050.219, 2869.612
4052.147, 2870.366
4054.075, 2870.629
4056.004, 2871.376
4057.932, 2869.782
4059.861, 2868.292
4061.789, 2865.733
4063.718, 2864.690
4065.646, 2862.660
4067.575, 2858.020
4069.503, 2856.847
4071.432, 2854.093
4073.360, 2851.503
4075.289, 2849.012
4077.217, 2844.986
4079.146, 2840.399
4081.074, 2837.445
4083.002, 2839.170
4084.931, 2843.095
4086.859, 2845.829
4088.788, 2844.235
4090.716, 2842.653
4092.645, 2845.021
4094.573, 2841.113
4096.502, 2843.882
4098.430, 2836.650
4100.359, 2833.304
4102.287, 2833.179
4104.216, 2830.160
4106.144, 2827.510
4108.073, 2833.209
4110.001, 2841.493
4111.930, 2832.250
4113.858, 2822.663
4115.787, 2829.452
4117.715, 2832.855
4119.644, 2834.269
4121.572, 2830.751
4123.500, 2823.746
4125.429, 2824.828
4127.357, 2824.761
4129.286, 2827.167
4131.214, 2833.356
4133.143, 2833.350
4135.071, 2834.928
4137.000, 2826.639
4138.928, 2833.376
4140.856, 2833.497
4142.785, 2829.567
4144.713, 2834.317
4146.642, 2817.149
4148.570, 2834.128
4150.499, 2828.641
4152.427, 2820.548
4154.356, 2825.028
4156.284, 2824.648
4158.213, 2821.323
4160.141, 2817.258
4162.070, 2816.071
4163.998, 2820.534
4165.927, 2821.786
4167.855, 2819.722
4169.784, 2818.486
4171.712, 2812.718
4173.641, 2813.565
4175.569, 2814.270
4177.498, 2805.147
4179.426, 2813.392
4181.354, 2825.751
4183.283, 2818.321
4185.211, 2811.804
4187.140, 2811.225
4189.068, 2804.260
4190.997, 2799.623
4192.925, 2807.482
4194.854, 2812.930
4196.782, 2816.921
4198.710, 2814.587
4200.639, 2810.185
4202.567, 2816.695
4204.496, 2817.986
4206.424, 2810.385
4208.353, 2813.448
4210.281, 2821.548
4212.210, 2829.163
4214.138, 2830.296
4216.067, 2827.036
4217.995, 2824.965
4219.924, 2823.274
4221.852, 2822.813
4223.781, 2817.690
4225.709, 2810.661
4227.638, 2808.882
4229.566, 2809.124
4231.495, 2811.661
4233.423, 2807.003
4235.352, 2800.032
4237.280, 2801.556
4239.208, 2799.479
4241.137, 2789.646
4243.065, 2789.179
4244.994, 2792.448
4246.922, 2793.574
4248.851, 2790.804
4250.779, 2784.163
4252.708, 2776.984
4254.636, 2773.103
4256.564, 2770.254
4258.493, 2776.752
4260.421, 2768.043
4262.350, 2768.056
4264.278, 2767.718
4266.207, 2761.320
4268.135, 2755.615
4270.064, 2752.741
4271.992, 2760.527
4273.921, 2766.060
4275.849, 2764.171
4277.778, 2761.202
4279.706, 2755.708
4281.635, 2752.963
4283.563, 2748.742
4285.492, 2745.277
4287.420, 2744.243
4289.349, 2741.361
4291.277, 2739.713
4293.206, 2740.192
4295.134, 2738.501
4297.063, 2741.698
4298.991, 2745.745
4300.919, 2746.810
4302.848, 2740.149
4304.776, 2730.027
4306.705, 2725.213
4308.633, 2724.740
4310.562, 2728.569
4312.490, 2732.917
4314.418, 2734.251
4316.347, 2725.947
4318.275, 2722.439
4320.204, 2725.695
4322.132, 2725.046
4324.061, 2741.210
4325.989, 2735.181
4327.918, 2739.738
4329.846, 2750.228
4331.775, 2751.257
4333.703, 2751.366
4335.632, 2753.355
4337.560, 2752.530
4339.489, 2755.962
4341.417, 2775.390
4343.346, 2788.180
4345.274, 2793.274
4347.203, 2802.326
4349.131, 2812.867
4351.060, 2821.794
4352.988, 2845.649
4354.917, 2875.251
4356.845, 2886.162
4358.773, 2907.210
4360.702, 2945.152
4362.630, 2978.683
4364.559, 3009.481
4366.487, 3042.962
4368.416, 3063.643
4370.344, 3071.063
4372.272, 3067.902
4374.201, 3065.662
4376.129, 3072.865
4378.058, 3060.394
4379.986, 3042.169
4381.915, 3033.979
4383.843, 3041.427
4385.772, 3063.333
4387.700, 3079.422
4389.629, 3099.078
4391.557, 3128.752
4393.486, 3161.774
4395.414, 3190.905
4397.343, 3203.101
4399.271, 3207.123
4401.200, 3204.667
4403.128, 3187.540
4405.057, 3159.499
4406.985, 3121.325
4408.914, 3088.582
4410.842, 3057.378
4412.771, 3011.538
4414.699, 2972.711
4416.627, 2945.290
4418.556, 2914.647
4420.484, 2880.597
4422.413, 2837.349
4424.341, 2812.983
4426.270, 2803.229
4428.198, 2797.817
4430.126, 2782.039
4432.055, 2750.297
4433.983, 2730.110
4435.912, 2714.798
4437.840, 2697.546
4439.769, 2686.202
4441.697, 2679.805
4443.626, 2676.269
4445.554, 2670.817
4447.483, 2662.202
4449.411, 2650.090
4451.340, 2640.206
4453.268, 2636.866
4455.197, 2637.971
4457.125, 2639.823
4459.054, 2633.191
4460.982, 2630.282
4462.911, 2633.637
4464.839, 2631.055
4466.768, 2629.051
4468.696, 2625.507
4470.625, 2619.571
4472.553, 2615.515
4474.481, 2608.164
4476.410, 2604.863
4478.338, 2604.199
4480.267, 2601.728
4482.195, 2601.903
4484.124, 2597.735
4486.052, 2594.263
4487.980, 2590.403
4489.909, 2583.801
4491.837, 2575.921
4493.766, 2567.962
4495.694, 2567.967
4497.623, 2569.421
4499.551, 2569.655
4501.480, 2563.342
4503.408, 2558.785
4505.337, 2569.901
4507.265, 2568.352
4509.194, 2557.458
4511.122, 2552.255
4513.051, 2546.837
4514.979, 2540.339
4516.908, 2540.767
4518.836, 2542.344
4520.765, 2541.734
4522.693, 2537.417
4524.622, 2532.204
4526.550, 2528.670
4528.479, 2531.293
4530.407, 2538.168
4532.335, 2539.062
4534.264, 2537.451
4536.192, 2534.373
4538.121, 2533.126
4540.049, 2528.878
4541.978, 2528.123
4543.906, 2517.172
4545.834, 2524.144
4547.763, 2514.796
4549.691, 2508.703
4551.620, 2509.161
4553.548, 2501.996
4555.477, 2498.120
4557.405, 2496.841
4559.334, 2491.467
4561.262, 2493.953
4563.191, 2491.381
4565.119, 2496.294
4567.048, 2490.826
4568.976, 2491.604
4570.905, 2493.133
4572.833, 2493.356
4574.762, 2486.977
4576.690, 2481.651
4578.619, 2481.034
4580.547, 2477.398
4582.476, 2473.703
4584.404, 2473.106
4586.333, 2472.054
4588.261, 2468.905
4590.189, 2472.418
4592.118, 2459.954
4594.046, 2475.733
4595.975, 2486.934
4597.903, 2482.815
4599.832, 2460.423
4601.760, 2453.288
4603.688, 2451.915
4605.617, 2450.720
4607.545, 2452.408
4609.474, 2452.940
4611.402, 2446.532
4613.331, 2443.294
4615.259, 2442.739
4617.188, 2439.385
4619.116, 2441.976
4621.045, 2449.719
4622.973, 2447.141
4624.902, 2440.145
4626.830, 2430.859
4628.759, 2428.645
4630.687, 2428.302
4632.616, 2426.450
4634.544, 2424.670
4636.473, 2422.943
4638.401, 2418.281
4640.330, 2416.440
4642.258, 2407.726
4644.187, 2402.779
4646.115, 2396.246
4648.043, 2389.415
4649.972, 2399.528
4651.900, 2410.194
4653.829, 2415.387
4655.757, 2416.052
4657.686, 2410.489
4659.614, 2393.401
4661.542, 2389.822
4663.471, 2391.012
4665.399, 2388.094
4667.328, 2388.509
4669.256, 2389.790
4671.185, 2385.423
4673.113, 2381.447
4675.042, 2380.139
4676.970, 2379.674
4678.899, 2390.571
4680.827, 2381.360
4682.756, 2384.779
4684.684, 2384.723
4686.613, 2375.998
4688.541, 2372.778
4690.470, 2371.378
4692.398, 2368.054
4694.327, 2372.626
4696.255, 2375.395
4698.184, 2365.817
4700.112, 2361.714
4702.041, 2359.507
4703.969, 2351.090
4705.897, 2342.820
4707.826, 2336.730
4709.754, 2336.573
4711.683, 2337.547
4713.611, 2337.894
4715.540, 2332.245
4717.468, 2328.756
4719.396, 2328.253
4721.325, 2320.411
4723.253, 2316.432
4725.182, 2321.943
4727.110, 2322.126
4729.039, 2315.998
4730.967, 2302.770
4732.896, 2307.348
4734.824, 2312.131
4736.753, 2297.371
4738.681, 2297.348
4740.610, 2301.637
4742.538, 2295.881
4744.467, 2291.420
4746.395, 2289.809
4748.324, 2292.840
4750.252, 2295.829
4752.181, 2297.575
4754.109, 2296.954
4756.038, 2294.319
4757.966, 2290.589
4759.895, 2287.812
4761.823, 2288.578
4763.751, 2290.878
4765.680, 2287.561
4767.608, 2287.718
4769.537, 2282.577
4771.465, 2282.625
4773.394, 2278.570
4775.322, 2272.110
4777.250, 2268.696
4779.179, 2264.664
4781.107, 2256.976
4783.036, 2261.255
4784.964, 2264.104
4786.893, 2257.453
4788.821, 2261.566
4790.750, 2264.575
4792.678, 2251.350
4794.607, 2253.540
4796.535, 2258.216
4798.464, 2252.329
4800.392, 2250.835
4802.321, 2249.595
4804.249, 2242.554
4806.178, 2232.430
4808.106, 2225.188
4810.035, 2230.115
4811.963, 2230.043
4813.892, 2228.919
4815.820, 2241.832
4817.749, 2229.947
4819.677, 2234.924
4821.605, 2221.202
4823.534, 2231.992
4825.462, 2235.969
4827.391, 2230.848
4829.319, 2220.021
4831.248, 2210.535
4833.176, 2223.915
4835.104, 2223.699
4837.033, 2211.593
4838.961, 2211.712
4840.890, 2207.860
4842.818, 2199.175
4844.747, 2192.656
4846.675, 2192.146
4848.604, 2196.389
4850.532, 2202.407
4852.461, 2193.099
4854.389, 2195.660
4856.318, 2185.053
4858.246, 2189.650
4860.175, 2182.260
4862.103, 2178.671
4864.032, 2174.938
4865.960, 2170.788
4867.889, 2171.812
4869.817, 2170.865
4871.746, 2166.291
4873.674, 2155.757
4875.603, 2150.755
4877.531, 2153.321
4879.459, 2159.955
4881.388, 2162.303
4883.316, 2158.779
4885.245, 2150.666
4887.173, 2139.978
4889.102, 2130.125
4891.030, 2138.952
4892.958, 2144.477
4894.887, 2141.504
4896.815, 2125.714
4898.744, 2120.090
4900.672, 2126.803
4902.601, 2133.313
4904.529, 2133.278
4906.458, 2126.815
4908.386, 2130.442
4910.315, 2116.386
4912.243, 2128.693
4914.172, 2120.392
4916.100, 2117.117
4918.029, 2118.858
4919.957, 2109.312
4921.886, 2100.628
4923.814, 2095.614
4925.743, 2098.141
4927.671, 2095.889
4929.600, 2091.706
4931.528, 2098.058
4933.457, 2098.224
4935.385, 2092.186
4937.313, 2081.038
4939.242, 2076.015
4941.170, 2078.173
4943.099, 2089.078
4945.027, 2092.862
4946.956, 2090.459
4948.884, 2084.203
4950.813, 2080.557
4952.741, 2077.260
4954.669, 2070.987
4956.598, 2069.547
4958.526, 2069.876
4960.455, 2068.796
4962.383, 2064.382
4964.312, 2058.521
4966.240, 2052.509
4968.169, 2045.286
4970.097, 2044.189
4972.026, 2053.375
4973.954, 2052.293
4975.883, 2049.977
4977.811, 2051.528
4979.740, 2049.984
4981.668, 2041.828
4983.597, 2048.591
4985.525, 2044.646
4987.454, 2042.491
4989.382, 2044.445
4991.311, 2037.567
4993.239, 2024.115
4995.167, 2011.358
4997.096, 2026.433
4999.024, 2032.591
5000.953, 2026.032
5002.881, 2008.592
5004.810, 2004.410
5006.738, 2007.378
5008.667, 2001.176
5010.595, 2005.531
5012.523, 2011.755
5014.452, 2004.445
5016.380, 2005.832
5018.309, 2005.517
5020.237, 1993.573
5022.166, 1987.576
5024.094, 1982.886
5026.023, 1976.205
5027.951, 1972.162
5029.880, 1971.663
5031.808, 1974.705
5033.737, 1980.731
5035.665, 1979.705
5037.594, 1971.782
5039.522, 1967.620
5041.451, 1970.473
5043.379, 1975.962
5045.308, 1970.370
5047.236, 1959.872
5049.165, 1951.070
5051.093, 1953.017
5053.021, 1956.895
5054.950, 1959.723
5056.878, 1960.343
5058.807, 1953.431
5060.735, 1944.826
5062.664, 1938.908
5064.592, 1945.823
5066.521, 1948.082
5068.449, 1939.289
5070.377, 1941.389
5072.306, 1935.801
5074.234, 1922.997
5076.163, 1936.195
5078.091, 1942.043
5080.020, 1936.040
5081.948, 1918.109
5083.877, 1913.604
5085.805, 1916.350
5087.734, 1915.189
5089.662, 1917.024
5091.591, 1917.829
5093.519, 1914.565
5095.448, 1917.917
5097.376, 1918.799
5099.305, 1912.627
5101.233, 1902.272
5103.162, 1899.875
5105.090, 1905.476
5107.019, 1906.724
5108.947, 1901.731
5110.875, 1895.852
5112.804, 1899.987
5114.732, 1901.760
5116.661, 1899.962
5118.589, 1893.760
5120.518, 1899.836
5122.446, 1896.691
5124.375, 1893.606
5126.303, 1893.949
5128.231, 1888.083
5130.160, 1887.971
5132.088, 1888.928
5134.017, 1883.113
5135.945, 1872.942
5137.874, 1864.251
5139.802, 1866.033
5141.731, 1871.334
5143.659, 1872.202
5145.588, 1870.299
5147.516, 1869.967
5149.445, 1873.084
5151.373, 1867.605
5153.302, 1867.802
5155.230, 1872.372
5157.159, 1859.932
5159.087, 1858.761
5161.016, 1863.895
5162.944, 1860.463
5164.873, 1854.316
5166.801, 1851.372
5168.729, 1855.280
5170.658, 1856.732
5172.586, 1853.920
5174.515, 1847.675
5176.443, 1847.441
5178.372, 1846.805
5180.300, 1845.298
5182.229, 1845.553
5184.157, 1837.760
5186.085, 1831.339
5188.014, 1837.094
5189.942, 1828.740
5191.871, 1828.499
5193.799, 1825.588
5195.728, 1830.980
5197.656, 1820.096
5199.585, 1817.051
5201.513, 1819.419
5203.442, 1814.816
5205.370, 1808.541
5207.299, 1806.388
5209.227, 1800.895
5211.156, 1801.798
5213.084, 1793.574
5215.013, 1801.554
5216.941, 1802.216
5218.870, 1795.386
5220.798, 1802.501
5222.727, 1799.604
5224.655, 1791.473
5226.583, 1783.366
5228.512, 1787.245
5230.440, 1792.322
5232.369, 1792.929
5234.297, 1782.767
5236.226, 1779.618
5238.154, 1780.442
5240.083, 1772.033
5242.011, 1775.270
5243.939, 1779.182
5245.868, 1775.481
5247.796, 1770.343
5249.725, 1765.687
5251.653, 1763.325
5253.582, 1770.825
5255.510, 1762.318
5257.439, 1751.430
5259.367, 1760.967
5261.296, 1749.781
5263.224, 1744.494
5265.153, 1753.692
5267.081, 1746.954
5269.010, 1747.393
5270.938, 1751.336
5272.867, 1741.568
5274.795, 1737.852
5276.724, 1737.661
5278.652, 1738.086
5280.581, 1727.676
5282.509, 1724.809
5284.438, 1729.310
5286.366, 1726.436
5288.294, 1731.062
5290.223, 1735.389
5292.151, 1730.232
5294.080, 1725.573
5296.008, 1726.715
5297.937, 1730.659
5299.865, 1717.646
5301.793, 1712.467
5303.722, 1713.974
5305.650, 1717.114
5307.579, 1715.010
5309.507, 1711.197
5311.436, 1707.372
5313.364, 1702.677
5315.293, 1700.292
5317.221, 1697.832
5319.150, 1691.517
5321.078, 1692.642
5323.007, 1693.821
5324.935, 1691.782
5326.864, 1694.786
5328.792, 1685.964
5330.721, 1673.111
5332.649, 1671.319
5334.578, 1673.177
5336.506, 1676.225
5338.435, 1678.510
5340.363, 1673.587
5342.292, 1675.481
5344.220, 1677.962
5346.148, 1665.701
5348.077, 1664.439
5350.005, 1666.680
5351.934, 1667.132
5353.862, 1656.980
5355.791, 1654.732
5357.719, 1655.871
5359.647, 1650.741
5361.576, 1654.096
5363.504, 1652.614
5365.433, 1643.373
5367.361, 1640.884
5369.290, 1641.765
5371.218, 1641.614
5373.147, 1636.673
5375.075, 1627.365
5377.004, 1623.785
5378.932, 1626.614
5380.861, 1628.727
5382.789, 1626.767
5384.718, 1621.918
5386.646, 1615.082
5388.575, 1618.515
5390.503, 1625.334
5392.432, 1627.753
5394.360, 1613.484
5396.289, 1615.003
5398.217, 1611.332
5400.146, 1592.766
5402.074, 1599.858
5404.002, 1605.881
5405.931, 1604.318
5407.859, 1592.712
5409.788, 1598.083
5411.716, 1593.689
5413.645, 1576.944
5415.573, 1580.016
5417.501, 1585.348
5419.430, 1588.807
5421.358, 1588.917
5423.287, 1588.944
5425.215, 1574.710
5427.144, 1582.553
5429.072, 1572.764
5431.001, 1564.969
5432.929, 1567.217
5434.858, 1562.632
5436.786, 1564.108
5438.715, 1561.493
5440.643, 1563.838
5442.572, 1560.137
5444.500, 1562.653
5446.429, 1564.868
5448.357, 1561.373
5450.286, 1542.722
5452.214, 1536.930
5454.143, 1539.480
5456.071, 1544.383
5458.000, 1543.173
5459.928, 1545.060
5461.856, 1543.169
5463.785, 1542.334
5465.713, 1537.365
5467.642, 1529.621
5469.570, 1526.164
5471.499, 1521.755
5473.427, 1524.924
5475.355, 1517.000
5477.284, 1523.826
5479.212, 1526.359
5481.141, 1516.612
5483.069, 1510.061
5484.998, 1519.131
5486.926, 1510.560
5488.855, 1510.455
5490.783, 1513.075
5492.712, 1496.364
5494.640, 1499.864
5496.569, 1504.292
5498.497, 1502.193
5500.426, 1495.111
5502.354, 1493.291
5504.283, 1490.096
5506.211, 1483.186
5508.140, 1488.139
5510.068, 1489.689
5511.997, 1487.521
5513.925, 1483.839
5515.854, 1481.429
5517.782, 1482.693
5519.710, 1484.154
5521.639, 1479.969
5523.567, 1473.836
5525.496, 1472.243
5527.424, 1474.247
5529.353, 1472.249
5531.281, 1473.190
5533.209, 1468.477
5535.138, 1465.519
5537.066, 1463.247
5538.995, 1457.837
5540.923, 1450.254
5542.852, 1449.250
5544.780, 1446.300
5546.709, 1446.215
5548.637, 1447.415
5550.566, 1447.906
5552.494, 1449.636
5554.423, 1447.676
5556.351, 1444.043
5558.280, 1435.956
5560.208, 1433.121
5562.137, 1429.555
5564.065, 1424.119
5565.994, 1417.830
5567.922, 1423.795
5569.851, 1426.024
5571.779, 1420.287
5573.708, 1413.346
5575.636, 1418.742
5577.564, 1416.042
5579.493, 1401.380
5581.421, 1406.303
5583.350, 1405.476
5585.278, 1402.202
5587.207, 1400.091
5589.135, 1394.868
5591.063, 1395.795
5592.992, 1395.877
5594.920, 1389.632
5596.849, 1388.232
5598.777, 1381.100
5600.706, 1377.493
5602.634, 1385.691
5604.563, 1392.292
5606.491, 1387.581
5608.420, 1389.964
5610.348, 1386.432
5612.277, 1380.677
5614.205, 1378.285
5616.134, 1373.866
5618.062, 1363.304
5619.991, 1364.996
5621.919, 1363.571
5623.848, 1356.377
5625.776, 1343.316
5627.705, 1342.128
5629.633, 1347.111
5631.562, 1351.166
5633.490, 1348.051
5635.418, 1348.170
5637.347, 1350.611
5639.275, 1350.925
5641.204, 1342.040
5643.132, 1339.129
5645.061, 1340.262
5646.989, 1339.955
5648.917, 1330.865
5650.846, 1333.032
5652.774, 1325.855
5654.703, 1318.191
5656.631, 1330.098
5658.560, 1320.168
5660.488, 1316.678
5662.417, 1318.592
5664.345, 1312.199
5666.274, 1308.318
5668.202, 1306.505
5670.131, 1309.172
5672.059, 1309.319
5673.988, 1309.904
5675.916, 1312.686
5677.845, 1310.662
5679.773, 1307.404
5681.702, 1305.279
5683.630, 1296.696
5685.559, 1286.766
5687.487, 1283.501
5689.416, 1281.905
5691.344, 1281.055
5693.272, 1287.850
5695.201, 1284.416
5697.129, 1293.382
5699.058, 1292.994
5700.986, 1286.036
5702.915, 1278.934
5704.843, 1281.560
5706.771, 1270.352
5708.700, 1263.774
5710.628, 1271.655
5712.557, 1264.458
5714.485, 1274.204
5716.414, 1277.055
5718.342, 1264.195
5720.271, 1260.814
5722.199, 1256.175
5724.128, 1252.774
5726.056, 1253.720
5727.985, 1263.863
5729.913, 1243.969
5731.842, 1236.272
5733.770, 1244.940
5735.699, 1245.202
5737.627, 1243.199
5739.556, 1244.146
5741.484, 1245.850
5743.413, 1243.439
5745.341, 1235.810
5747.270, 1230.384
5749.198, 1230.105
5751.126, 1235.063
5753.055, 1237.827
5754.983, 1230.318
5756.912, 1225.891
5758.840, 1230.399
5760.769, 1226.506
5762.697, 1220.710
5764.625, 1212.403
5766.554, 1203.589
5768.482, 1201.196
5770.411, 1196.672
5772.339, 1195.089
5774.268, 1196.600
5776.196, 1197.952
5778.125, 1202.356
5780.053, 1197.777
5781.982, 1192.041
5783.910, 1195.329
5785.839, 1184.789
5787.767, 1177.681
5789.696, 1177.624
5791.624, 1181.240
5793.553, 1173.975
5795.481, 1183.015
5797.410, 1189.164
5799.338, 1186.547
5801.267, 1184.174
5803.195, 1174.250
5805.124, 1171.530
5807.052, 1170.295
5808.980, 1160.860
5810.909, 1167.129
5812.837, 1166.692
5814.766, 1160.405
5816.694, 1154.329
5818.623, 1160.984
5820.551, 1165.756
5822.479, 1165.713
5824.408, 1162.112
5826.336, 1159.254
5828.265, 1147.441
5830.193, 1142.324
5832.122, 1140.392
5834.050, 1134.837
5835.979, 1144.063
5837.907, 1143.403
5839.836, 1143.889
5841.764, 1149.444
5843.693, 1145.538
5845.621, 1126.758
5847.550, 1121.134
5849.478, 1125.578
5851.407, 1123.240
5853.335, 1118.565
5855.264, 1115.159
5857.192, 1113.808
5859.121, 1114.583
5861.049, 1118.619
5862.978, 1118.605
5864.906, 1114.202
5866.834, 1108.347
5868.763, 1105.264
5870.691, 1105.024
5872.620, 1100.716
5874.548, 1100.508
5876.477, 1098.005
5878.405, 1098.375
5880.333, 1102.104
5882.262, 1100.109
5884.190, 1095.375
5886.119, 1097.591
5888.047, 1091.372
5889.976, 1085.319
5891.904, 1081.916
5893.833, 1082.340
5895.761, 1089.906
5897.690, 1087.270
5899.618, 1084.208
5901.547, 1082.357
5903.475, 1077.687
5905.404, 1068.550
5907.332, 1065.160
5909.261, 1065.849
5911.189, 1067.201
5913.118, 1066.142
5915.046, 1071.792
5916.975, 1073.687
5918.903, 1069.311
5920.832, 1060.779
5922.760, 1050.369
5924.688, 1051.215
5926.617, 1054.181
5928.545, 1054.079
5930.474, 1051.224
5932.402, 1052.669
5934.331, 1047.498
5936.259, 1043.381
5938.188, 1045.798
5940.116, 1032.051
5942.044, 1042.073
5943.973, 1046.854
5945.901, 1046.679
5947.830, 1026.695
5949.758, 1032.290
5951.687, 1027.633
5953.615, 1022.557
5955.544, 1031.750
5957.472, 1014.648
5959.401, 1023.615
5961.329, 1022.176
5963.258, 1025.499
5965.186, 1018.509
5967.115, 1014.704
5969.043, 1021.217
5970.972, 1022.016
5972.900, 1013.840
5974.829, 1017.466
5976.757, 1000.004
5978.686, 1001.047
5980.614, 1010.075
5982.542, 1002.417
5984.471, 1006.231
5986.399, 1005.677
5988.328, 985.2631
5990.256, 999.3859
5992.185, 998.5720
5994.113, 982.4246
5996.042, 995.3625
5997.970, 981.3287
5999.898, 976.9230
6001.827, 979.7612
6003.755, 975.0478
6005.684, 982.2413
6007.612, 980.0911
6009.541, 977.9424
6011.469, 970.5992
6013.398, 963.6943
6015.326, 965.9814
6017.255, 962.4015
6019.183, 961.4841
6021.112, 960.5482
6023.040, 958.1632
6024.969, 957.8989
6026.897, 955.2725
6028.826, 954.9139
6030.754, 954.6258
6032.683, 963.5587
6034.611, 958.1532
6036.540, 955.0564
6038.468, 953.2001
6040.396, 946.2715
6042.325, 938.9259
6044.253, 936.0313
6046.182, 938.7694
6048.110, 938.5958
6050.039, 930.6195
6051.967, 941.7438
6053.896, 946.5580
6055.824, 938.7005
6057.752, 928.3511
6059.681, 926.5271
6061.609, 930.1300
6063.538, 917.3527
6065.466, 921.4808
6067.395, 925.3211
6069.323, 908.6218
6071.252, 914.0612
6073.180, 921.4310
6075.109, 912.6600
6077.037, 908.9218
6078.966, 922.8802
6080.894, 909.3910
6082.823, 907.7188
6084.751, 901.8026
6086.680, 897.4604
6088.608, 899.7587
6090.537, 895.0013
6092.465, 897.9013
6094.394, 900.7361
6096.322, 896.5389
6098.250, 889.2338
6100.179, 895.0311
6102.107, 891.7188
6104.036, 885.1506
6105.964, 883.3087
6107.893, 883.3029
6109.821, 874.1693
6111.750, 873.0418
6113.678, 875.6192
6115.606, 876.5760
6117.535, 871.9865
6119.463, 861.7850
6121.392, 867.6837
6123.320, 859.5551
6125.249, 858.5109
6127.177, 861.4267
6129.106, 856.5941
6131.034, 855.6884
6132.963, 854.9426
6134.891, 850.9514
6136.820, 848.1826
6138.748, 847.8710
6140.677, 841.7903
6142.605, 840.1102
6144.534, 844.5730
6146.462, 847.7208
6148.391, 844.3455
6150.319, 849.0664
6152.248, 838.4641
6154.176, 848.8419
6156.104, 845.4316
6158.033, 835.5173
6159.961, 834.2816
6161.890, 829.2520
6163.818, 831.5244
6165.747, 830.1793
6167.675, 826.6302
6169.604, 825.5127
6171.532, 828.6123
6173.460, 826.0759
6175.389, 816.5684
6177.317, 815.9112
6179.246, 820.3151
6181.174, 815.6957
6183.103, 819.5489
6185.031, 816.2787
6186.960, 814.0240
6188.888, 813.1657
6190.817, 811.2729
6192.745, 808.2518
6194.674, 805.6410
6196.602, 800.8743
6198.531, 799.0903
6200.459, 795.3246
6202.388, 792.8289
6204.316, 792.9498
6206.245, 791.4012
6208.173, 791.6335
6210.102, 794.6461
6212.030, 789.5782
6213.958, 791.9019
6215.887, 783.8185
6217.815, 790.2621
6219.744, 789.5904
6221.672, 784.4442
6223.601, 782.9719
6225.529, 785.4434
6227.458, 781.3841
6229.386, 779.5468
6231.314, 772.8196
6233.243, 766.8608
6235.171, 763.1984
6237.100, 760.0203
6239.028, 756.9475
6240.957, 757.8290
6242.885, 761.5690
6244.814, 763.6071
6246.742, 760.0020
6248.671, 754.2556
6250.599, 756.4063
6252.528, 754.1021
6254.456, 751.5689
6256.385, 754.1309
6258.313, 749.3130
6260.242, 748.1545
6262.170, 757.0129
6264.099, 762.7382
6266.027, 760.0153
6267.956, 752.6813
6269.884, 746.9377
6271.813, 743.0626
6273.741, 743.4654
6275.669, 741.4637
6277.598, 739.0879
6279.526, 740.1077
6281.455, 738.3569
6283.383, 738.7015
6285.312, 735.4259
6287.240, 737.4284
6289.168, 732.2132
6291.097, 726.8106
6293.025, 726.2184
6294.954, 720.7350
6296.882, 718.5869
6298.811, 725.3214
6300.739, 712.5572
6302.668, 716.4833
6304.596, 712.0295
6306.525, 708.0206
6308.453, 713.1122
6310.382, 716.1720
6312.310, 712.6595
6314.239, 708.3389
6316.167, 709.3995
6318.096, 709.1042
6320.024, 712.1123
6321.953, 704.0598
6323.881, 696.8991
6325.810, 709.0632
6327.738, 698.3572
6329.667, 704.7824
6331.595, 697.0341
6333.523, 691.1487
6335.452, 693.4258
6337.380, 693.9144
6339.309, 683.9482
6341.237, 679.7614
6343.166, 680.1536
6345.094, 675.8304
6347.022, 675.7687
6348.951, 683.9574
6350.879, 679.5565
6352.808, 672.6003
6354.736, 678.0061
6356.665, 671.4408
6358.593, 666.8349
6360.522, 671.8746
6362.450, 667.5402
6364.379, 668.2985
6366.307, 668.5753
6368.236, 670.3046
6370.164, 664.7667
6372.093, 666.5560
6374.021, 658.3030
6375.950, 664.9088
6377.878, 669.4462
6379.807, 660.4888
6381.735, 661.5245
6383.664, 661.0419
6385.592, 650.6808
6387.521, 657.5011
6389.449, 653.7753
6391.377, 647.1067
6393.306, 649.5192
6395.234, 653.4014
6397.163, 651.2167
6399.091, 645.5618
6401.020, 648.6984
6402.948, 650.0685
6404.876, 646.1156
6406.805, 636.6089
6408.733, 638.2059
6410.662, 635.2607
6412.590, 642.8650
6414.519, 634.6277
6416.447, 635.4963
6418.376, 633.2714
6420.304, 632.6650
6422.233, 635.2094
6424.161, 635.6951
6426.090, 628.1721
6428.018, 628.9294
6429.947, 628.9579
6431.875, 629.1215
6433.804, 625.8876
6435.732, 619.7579
6437.661, 616.3266
6439.589, 617.0555
6441.518, 610.1987
6443.446, 611.5892
6445.375, 610.6237
6447.303, 607.4136
6449.231, 608.1865
6451.160, 614.4001
6453.088, 614.5267
6455.017, 611.5634
6456.945, 605.7825
6458.874, 607.1250
6460.802, 605.3373
6462.730, 597.0917
6464.659, 598.6771
6466.587, 594.5925
6468.516, 602.0301
6470.444, 593.5477
6472.373, 595.3074
6474.301, 601.7452
6476.230, 601.1491
6478.158, 594.2221
6480.087, 602.8082
6482.015, 588.8759
6483.944, 599.1497
6485.872, 601.1750
6487.801, 592.5948
6489.729, 587.3738
6491.658, 586.6342
6493.586, 585.9390
6495.515, 586.7571
6497.443, 590.4156
6499.372, 582.4863
6501.300, 582.8542
6503.229, 587.8232
6505.157, 574.5938
6507.085, 574.7949
6509.014, 568.4145
6510.942, 567.0659
6512.871, 570.5548
6514.799, 568.2889
6516.728, 567.2414
6518.656, 566.2826
6520.584, 562.9290
6522.513, 562.9322
6524.441, 558.5152
6526.370, 559.1638
6528.298, 561.5618
6530.227, 561.1116
6532.155, 558.5370
6534.084, 559.1335
6536.012, 556.9988
6537.941, 556.0753
6539.869, 560.4056
6541.798, 558.6816
6543.726, 553.1869
6545.655, 547.2016
6547.583, 542.2231
6549.512, 543.5102
6551.440, 545.5536
6553.369, 544.7238
6555.297, 547.5779
6557.226, 545.1404
6559.154, 551.0798
6561.083, 549.4687
6563.011, 549.2109
6564.939, 542.9098
6566.868, 532.1258
6568.796, 532.0081
6570.725, 535.3068
6572.653, 539.0828
6574.582, 537.8906
6576.510, 537.9382
6578.438, 528.5267
6580.367, 534.3604
6582.295, 529.5612
6584.224, 528.8914
6586.152, 528.7709
6588.081, 532.1402
6590.009, 533.4923
6591.938, 530.8282
6593.866, 532.2621
6595.795, 528.1268
6597.723, 522.7328
6599.652, 519.2397
6601.580, 519.3260
6603.509, 521.8220
6605.437, 525.0888
6607.366, 525.2736
6609.294, 518.9099
6611.223, 516.9531
6613.151, 520.6121
6615.080, 518.4968
6617.008, 520.4898
6618.937, 518.9750
6620.865, 509.3133
6622.793, 514.4946
6624.722, 509.5670
6626.650, 505.3657
6628.579, 507.1068
6630.507, 498.9533
##END=



