##NAMES=Krauskopfite
##RRUFFID=R070657
##IDEAL CHEMISTRY=BaSi_2_O_5_·3H_2_O
##LOCALITY=Rush Creek, Fresno County, California, USA
##OWNER=RRUFF
##SOURCE=Michael Scott
##DESCRIPTION=Colorless to white bladed crystals associated with witherite and quartz.
##STATUS=The identification of this mineral has been confirmed by single-crystal X-ray diffraction
##URL=https://www.rruff.net/odr/rruff_sample/R070657
##DIFFRACTION SAMPLE DESCRIPTION=Single crystal, powder profile is calculated
##CELL PARAMETERS=a: 7.826 b: 10.607 c: 8.452 alpha: 90 beta: 94.59 gamma: 90 volume: 699.4 crystal system: monoclinic
##FILETYPE=Raman RAW
##RAMAN WAVELENGTH=780

80.50636, 977.9316
82.43482, 1200.922
84.36329, 1504.149
86.29176, 1828.421
88.22022, 2178.398
90.14869, 2522.979
92.07716, 2822.283
94.00562, 3067.052
95.93409, 3294.698
97.86256, 3509.679
99.79102, 3699.188
101.7195, 3612.694
103.6480, 3491.282
105.5764, 3368.070
107.5049, 3233.519
109.4334, 3132.892
111.3618, 3065.767
113.2903, 3015.573
115.2188, 2970.109
117.1472, 2931.494
119.0757, 2906.836
121.0042, 2895.298
122.9326, 2883.625
124.8611, 2865.743
126.7896, 2852.362
128.7180, 2842.546
130.6465, 2839.299
132.5750, 2853.489
134.5034, 2889.906
136.4319, 2913.482
138.3604, 2914.046
140.2888, 2913.487
142.2173, 2924.807
144.1458, 2940.418
146.0742, 2945.144
148.0027, 2936.396
149.9312, 2942.377
151.8596, 2977.485
153.7881, 3002.203
155.7166, 2992.209
157.6450, 2968.037
159.5735, 2957.483
161.5020, 2961.981
163.4304, 2958.496
165.3589, 2946.919
167.2874, 2926.636
169.2158, 2888.725
171.1443, 2848.679
173.0728, 2825.768
175.0012, 2819.862
176.9297, 2798.858
178.8582, 2752.083
180.7866, 2719.002
182.7151, 2728.980
184.6436, 2744.488
186.5720, 2733.480
188.5005, 2701.013
190.4290, 2684.649
192.3574, 2687.446
194.2859, 2693.400
196.2144, 2700.025
198.1428, 2705.717
200.0713, 2709.124
201.9998, 2711.218
203.9282, 2714.130
205.8567, 2717.780
207.7852, 2723.665
209.7136, 2735.068
211.6421, 2743.118
213.5706, 2746.641
215.4990, 2744.630
217.4275, 2733.984
219.3560, 2715.019
221.2844, 2690.764
223.2129, 2655.604
225.1414, 2627.128
227.0698, 2609.263
228.9983, 2602.621
230.9268, 2613.442
232.8552, 2636.411
234.7837, 2648.236
236.7122, 2645.569
238.6406, 2642.397
240.5691, 2644.435
242.4976, 2644.082
244.4260, 2635.906
246.3545, 2623.738
248.2830, 2613.840
250.2114, 2606.299
252.1399, 2604.544
254.0684, 2616.007
255.9968, 2619.623
257.9253, 2598.046
259.8538, 2576.541
261.7822, 2586.124
263.7107, 2616.596
265.6392, 2634.089
267.5676, 2636.471
269.4961, 2626.782
271.4246, 2598.104
273.3530, 2569.515
275.2815, 2542.831
277.2100, 2522.394
279.1384, 2521.940
281.0669, 2540.314
282.9954, 2549.419
284.9238, 2542.227
286.8523, 2532.548
288.7808, 2518.956
290.7092, 2507.057
292.6377, 2498.268
294.5662, 2496.417
296.4946, 2510.631
298.4231, 2543.172
300.3516, 2568.407
302.2800, 2576.260
304.2085, 2584.847
306.1370, 2602.576
308.0654, 2618.018
309.9939, 2616.310
311.9224, 2604.485
313.8508, 2600.818
315.7793, 2610.434
317.7078, 2611.282
319.6362, 2596.933
321.5647, 2580.905
323.4932, 2564.559
325.4216, 2550.522
327.3501, 2544.559
329.2786, 2544.318
331.2070, 2537.930
333.1355, 2519.866
335.0640, 2513.603
336.9924, 2532.368
338.9209, 2547.885
340.8494, 2540.200
342.7778, 2525.560
344.7063, 2528.856
346.6348, 2547.037
348.5632, 2546.970
350.4917, 2513.470
352.4202, 2487.517
354.3486, 2477.255
356.2771, 2470.479
358.2056, 2461.621
360.1340, 2452.635
362.0625, 2447.430
363.9910, 2445.517
365.9194, 2439.055
367.8479, 2422.474
369.7764, 2407.736
371.7048, 2395.406
373.6333, 2388.180
375.5618, 2390.452
377.4902, 2394.537
379.4187, 2392.926
381.3472, 2385.689
383.2756, 2379.519
385.2041, 2379.887
387.1326, 2375.538
389.0610, 2353.944
390.9895, 2343.230
392.9180, 2366.594
394.8464, 2390.459
396.7749, 2383.636
398.7034, 2357.111
400.6318, 2348.047
402.5603, 2364.777
404.4888, 2376.605
406.4172, 2382.917
408.3457, 2383.669
410.2742, 2369.038
412.2026, 2358.402
414.1311, 2369.816
416.0596, 2391.904
417.9880, 2407.189
419.9165, 2415.962
421.8450, 2412.737
423.7734, 2384.607
425.7019, 2372.735
427.6304, 2392.151
429.5588, 2410.026
431.4873, 2410.019
433.4158, 2406.239
435.3442, 2410.023
437.2727, 2415.808
439.2012, 2411.160
441.1296, 2395.214
443.0581, 2389.551
444.9866, 2398.623
446.9150, 2399.009
448.8435, 2377.262
450.7720, 2359.018
452.7004, 2360.564
454.6289, 2371.291
456.5574, 2379.864
458.4858, 2384.948
460.4143, 2380.364
462.3428, 2364.817
464.2712, 2351.117
466.1997, 2340.779
468.1282, 2330.248
470.0566, 2318.533
471.9851, 2306.835
473.9136, 2293.926
475.8420, 2282.382
477.7705, 2277.484
479.6990, 2278.116
481.6274, 2276.177
483.5559, 2272.594
485.4844, 2268.333
487.4128, 2261.662
489.3413, 2259.087
491.2698, 2262.543
493.1982, 2269.824
495.1267, 2285.897
497.0552, 2302.727
498.9836, 2301.331
500.9121, 2284.571
502.8406, 2287.336
504.7690, 2312.086
506.6975, 2321.694
508.6260, 2305.309
510.5544, 2290.510
512.4829, 2288.451
514.4114, 2286.944
516.3398, 2280.910
518.2683, 2273.797
520.1968, 2269.130
522.1252, 2264.858
524.0537, 2254.050
525.9822, 2235.031
527.9106, 2221.427
529.8391, 2219.793
531.7676, 2222.463
533.6960, 2225.352
535.6245, 2224.098
537.5530, 2220.153
539.4814, 2216.313
541.4099, 2209.407
543.3384, 2199.584
545.2668, 2196.526
547.1953, 2199.506
549.1238, 2198.190
551.0522, 2192.062
552.9807, 2194.468
554.9092, 2213.786
556.8376, 2223.871
558.7661, 2208.609
560.6946, 2197.828
562.6230, 2208.158
564.5515, 2230.233
566.4800, 2260.155
568.4084, 2292.451
570.3369, 2306.034
572.2654, 2302.831
574.1938, 2308.665
576.1223, 2327.018
578.0508, 2352.747
579.9792, 2381.270
581.9077, 2411.956
583.8362, 2457.314
585.7646, 2500.234
587.6931, 2523.524
589.6216, 2533.289
591.5500, 2546.673
593.4785, 2562.379
595.4070, 2564.435
597.3354, 2548.161
599.2639, 2513.958
601.1924, 2458.597
603.1208, 2423.351
605.0493, 2431.075
606.9778, 2425.066
608.9063, 2389.223
610.8347, 2355.921
612.7632, 2342.021
614.6917, 2327.925
616.6201, 2292.323
618.5486, 2254.195
620.4771, 2246.463
622.4055, 2260.086
624.3340, 2248.565
626.2625, 2206.467
628.1909, 2180.949
630.1194, 2182.778
632.0479, 2175.811
633.9763, 2150.549
635.9048, 2133.142
637.8333, 2138.855
639.7617, 2144.230
641.6902, 2130.381
643.6187, 2111.727
645.5471, 2106.677
647.4756, 2106.948
649.4041, 2099.220
651.3325, 2086.542
653.2610, 2078.513
655.1895, 2076.804
657.1179, 2075.104
659.0464, 2072.189
660.9749, 2068.237
662.9033, 2063.151
664.8318, 2057.696
666.7603, 2049.410
668.6887, 2043.296
670.6172, 2042.898
672.5457, 2047.207
674.4741, 2059.999
676.4026, 2070.075
678.3311, 2057.412
680.2595, 2030.167
682.1880, 2023.438
684.1165, 2040.494
686.0449, 2052.153
687.9734, 2055.781
689.9019, 2054.828
691.8303, 2046.097
693.7588, 2041.722
695.6873, 2046.831
697.6157, 2053.082
699.5442, 2058.580
701.4727, 2058.004
703.4011, 2045.638
705.3296, 2033.206
707.2581, 2029.081
709.1865, 2029.227
711.1150, 2027.619
713.0435, 2024.270
714.9719, 2022.083
716.9004, 2022.738
718.8289, 2010.345
720.7573, 1977.134
722.6858, 1961.540
724.6143, 1971.926
726.5427, 1981.612
728.4712, 1988.455
730.3997, 1985.022
732.3281, 1960.663
734.2566, 1939.703
736.1851, 1938.819
738.1135, 1941.920
740.0420, 1935.439
741.9705, 1927.064
743.8989, 1934.754
745.8274, 1950.704
747.7559, 1943.648
749.6843, 1917.475
751.6128, 1909.573
753.5413, 1921.971
755.4697, 1933.942
757.3982, 1944.088
759.3267, 1946.906
761.2551, 1941.631
763.1836, 1935.643
765.1121, 1929.592
767.0405, 1923.279
768.9690, 1917.042
770.8975, 1913.135
772.8259, 1912.867
774.7544, 1912.938
776.6829, 1912.491
778.6113, 1910.951
780.5398, 1907.311
782.4683, 1901.916
784.3967, 1894.977
786.3252, 1889.528
788.2537, 1891.368
790.1821, 1897.101
792.1106, 1892.297
794.0391, 1879.143
795.9675, 1878.434
797.8960, 1891.139
799.8245, 1893.471
801.7529, 1882.354
803.6814, 1873.992
805.6099, 1867.380
807.5383, 1864.153
809.4668, 1873.944
811.3953, 1879.754
813.3237, 1866.446
815.2522, 1855.650
817.1807, 1855.904
819.1091, 1859.852
821.0376, 1866.180
822.9661, 1872.214
824.8945, 1874.857
826.8230, 1877.802
828.7515, 1886.243
830.6799, 1895.468
832.6084, 1901.016
834.5369, 1897.935
836.4653, 1877.490
838.3938, 1852.559
840.3223, 1845.201
842.2507, 1851.132
844.1792, 1854.484
846.1077, 1851.740
848.0361, 1841.071
849.9646, 1825.030
851.8931, 1819.535
853.8215, 1824.812
855.7500, 1829.848
857.6785, 1837.391
859.6069, 1844.182
861.5354, 1844.758
863.4639, 1843.025
865.3923, 1844.408
867.3208, 1843.331
869.2493, 1831.797
871.1777, 1825.970
873.1062, 1835.853
875.0347, 1845.470
876.9631, 1852.501
878.8916, 1850.567
880.8201, 1826.455
882.7485, 1803.259
884.6770, 1798.328
886.6055, 1802.620
888.5339, 1817.760
890.4624, 1828.402
892.3909, 1811.234
894.3193, 1788.320
896.2478, 1787.110
898.1763, 1795.213
900.1047, 1794.225
902.0332, 1787.799
903.9617, 1794.404
905.8901, 1816.039
907.8186, 1819.493
909.7471, 1798.418
911.6755, 1790.863
913.6040, 1802.657
915.5325, 1810.304
917.4609, 1812.918
919.3894, 1812.379
921.3179, 1802.461
923.2463, 1801.884
925.1748, 1816.349
927.1033, 1835.312
929.0317, 1858.663
930.9602, 1875.489
932.8887, 1889.418
934.8171, 1892.295
936.7456, 1874.808
938.6741, 1857.815
940.6025, 1850.059
942.5310, 1845.104
944.4595, 1840.912
946.3879, 1826.302
948.3164, 1793.651
950.2449, 1771.192
952.1733, 1770.047
954.1018, 1771.371
956.0303, 1771.563
957.9587, 1767.554
959.8872, 1751.425
961.8157, 1741.586
963.7441, 1756.462
965.6726, 1769.999
967.6011, 1762.839
969.5295, 1748.643
971.4580, 1733.610
973.3865, 1727.779
975.3149, 1738.735
977.2434, 1748.015
979.1719, 1744.258
981.1003, 1739.236
983.0288, 1744.845
984.9573, 1750.243
986.8857, 1738.482
988.8142, 1727.227
990.7427, 1737.337
992.6711, 1749.229
994.5996, 1747.404
996.5281, 1739.651
998.4565, 1725.581
1000.385, 1710.398
1002.313, 1707.107
1004.242, 1710.282
1006.170, 1709.560
1008.099, 1708.839
1010.027, 1715.515
1011.956, 1722.485
1013.884, 1714.257
1015.813, 1702.793
1017.741, 1714.835
1019.670, 1737.607
1021.598, 1744.685
1023.527, 1740.891
1025.455, 1736.490
1027.384, 1733.417
1029.312, 1735.130
1031.240, 1736.074
1033.169, 1727.486
1035.097, 1715.593
1037.026, 1707.784
1038.954, 1705.619
1040.883, 1713.426
1042.811, 1723.477
1044.740, 1721.857
1046.668, 1713.711
1048.597, 1712.908
1050.525, 1719.143
1052.454, 1727.296
1054.382, 1733.121
1056.311, 1727.973
1058.239, 1717.198
1060.167, 1715.832
1062.096, 1721.026
1064.024, 1721.656
1065.953, 1716.342
1067.881, 1707.466
1069.810, 1699.329
1071.738, 1694.848
1073.667, 1690.329
1075.595, 1679.473
1077.524, 1667.396
1079.452, 1662.859
1081.381, 1666.974
1083.309, 1689.007
1085.238, 1712.293
1087.166, 1698.545
1089.094, 1672.799
1091.023, 1681.371
1092.951, 1704.121
1094.880, 1709.227
1096.808, 1707.522
1098.737, 1711.980
1100.665, 1718.412
1102.594, 1727.257
1104.522, 1737.232
1106.451, 1746.267
1108.379, 1751.816
1110.308, 1751.561
1112.236, 1745.648
1114.165, 1728.839
1116.093, 1710.651
1118.021, 1702.862
1119.950, 1699.652
1121.878, 1694.248
1123.807, 1686.494
1125.735, 1673.981
1127.664, 1668.916
1129.592, 1682.960
1131.521, 1693.878
1133.449, 1690.683
1135.378, 1688.514
1137.306, 1692.407
1139.235, 1688.766
1141.163, 1670.910
1143.092, 1657.174
1145.020, 1655.894
1146.948, 1659.024
1148.877, 1662.232
1150.805, 1662.065
1152.734, 1659.227
1154.662, 1657.940
1156.591, 1656.812
1158.519, 1661.579
1160.448, 1679.503
1162.376, 1683.975
1164.305, 1663.478
1166.233, 1648.281
1168.162, 1647.723
1170.090, 1641.712
1172.019, 1624.894
1173.947, 1626.839
1175.875, 1648.907
1177.804, 1657.270
1179.732, 1654.278
1181.661, 1658.765
1183.589, 1668.028
1185.518, 1675.671
1187.446, 1680.205
1189.375, 1671.531
1191.303, 1654.734
1193.232, 1646.372
1195.160, 1644.629
1197.089, 1649.977
1199.017, 1659.864
1200.946, 1662.048
1202.874, 1656.793
1204.802, 1652.838
1206.731, 1651.104
1208.659, 1644.487
1210.588, 1639.575
1212.516, 1649.601
1214.445, 1657.363
1216.373, 1648.101
1218.302, 1635.839
1220.230, 1623.979
1222.159, 1619.850
1224.087, 1632.993
1226.016, 1641.046
1227.944, 1632.246
1229.873, 1626.324
1231.801, 1634.015
1233.729, 1635.337
1235.658, 1621.167
1237.586, 1610.797
1239.515, 1608.764
1241.443, 1608.649
1243.372, 1609.427
1245.300, 1606.140
1247.229, 1599.250
1249.157, 1596.133
1251.086, 1596.045
1253.014, 1604.724
1254.943, 1619.334
1256.871, 1619.665
1258.800, 1609.443
1260.728, 1599.423
1262.656, 1591.939
1264.585, 1591.177
1266.513, 1595.047
1268.442, 1601.698
1270.370, 1605.711
1272.299, 1601.672
1274.227, 1598.327
1276.156, 1602.195
1278.084, 1605.581
1280.013, 1606.362
1281.941, 1605.945
1283.870, 1599.740
1285.798, 1597.864
1287.727, 1608.147
1289.655, 1617.647
1291.583, 1624.383
1293.512, 1620.510
1295.440, 1602.326
1297.369, 1598.723
1299.297, 1610.345
1301.226, 1614.780
1303.154, 1613.093
1305.083, 1614.935
1307.011, 1615.743
1308.940, 1599.567
1310.868, 1580.822
1312.797, 1582.009
1314.725, 1592.242
1316.654, 1603.068
1318.582, 1608.407
1320.510, 1607.379
1322.439, 1603.456
1324.367, 1593.135
1326.296, 1588.688
1328.224, 1597.861
1330.153, 1599.010
1332.081, 1586.056
1334.010, 1580.597
1335.938, 1585.367
1337.867, 1575.053
1339.795, 1551.446
1341.724, 1549.951
1343.652, 1563.943
1345.581, 1575.994
1347.509, 1584.688
1349.438, 1580.357
1351.366, 1570.097
1353.294, 1561.398
1355.223, 1558.897
1357.151, 1573.925
1359.080, 1582.630
1361.008, 1566.344
1362.937, 1561.344
1364.865, 1581.859
1366.794, 1586.074
1368.722, 1566.734
1370.651, 1556.270
1372.579, 1555.726
1374.508, 1565.439
1376.436, 1581.362
1378.365, 1575.267
1380.293, 1558.412
1382.221, 1554.073
1384.150, 1555.214
1386.078, 1558.795
1388.007, 1557.532
1389.935, 1538.722
1391.864, 1523.073
1393.792, 1520.457
1395.721, 1524.581
1397.649, 1537.838
1399.578, 1547.312
1401.506, 1551.478
1403.435, 1552.314
1405.363, 1550.339
1407.292, 1539.641
1409.220, 1524.718
1411.148, 1529.706
1413.077, 1540.728
1415.005, 1531.555
1416.934, 1517.358
1418.862, 1511.198
1420.791, 1509.819
1422.719, 1516.340
1424.648, 1517.438
1426.576, 1500.762
1428.505, 1494.399
1430.433, 1506.475
1432.362, 1513.234
1434.290, 1513.577
1436.219, 1511.007
1438.147, 1507.547
1440.075, 1509.990
1442.004, 1515.867
1443.932, 1523.591
1445.861, 1527.528
1447.789, 1520.833
1449.718, 1516.667
1451.646, 1522.715
1453.575, 1524.741
1455.503, 1517.377
1457.432, 1514.912
1459.360, 1518.193
1461.289, 1526.668
1463.217, 1538.799
1465.146, 1534.460
1467.074, 1521.541
1469.002, 1515.893
1470.931, 1513.476
1472.859, 1510.580
1474.788, 1509.985
1476.716, 1515.027
1478.645, 1514.911
1480.573, 1505.786
1482.502, 1499.694
1484.430, 1497.286
1486.359, 1503.641
1488.287, 1517.329
1490.216, 1519.355
1492.144, 1513.690
1494.073, 1508.541
1496.001, 1504.046
1497.929, 1502.762
1499.858, 1499.821
1501.786, 1488.804
1503.715, 1487.265
1505.643, 1500.987
1507.572, 1504.311
1509.500, 1495.910
1511.429, 1499.260
1513.357, 1509.933
1515.286, 1512.257
1517.214, 1510.224
1519.143, 1508.005
1521.071, 1505.733
1523.000, 1504.552
1524.928, 1503.175
1526.856, 1502.212
1528.785, 1494.642
1530.713, 1479.321
1532.642, 1470.623
1534.570, 1470.341
1536.499, 1481.528
1538.427, 1495.802
1540.356, 1503.248
1542.284, 1504.505
1544.213, 1492.138
1546.141, 1483.437
1548.070, 1487.097
1549.998, 1489.066
1551.927, 1490.058
1553.855, 1495.035
1555.783, 1500.152
1557.712, 1496.861
1559.640, 1489.850
1561.569, 1484.947
1563.497, 1483.016
1565.426, 1487.690
1567.354, 1489.321
1569.283, 1478.391
1571.211, 1480.257
1573.140, 1498.396
1575.068, 1502.071
1576.997, 1492.781
1578.925, 1479.484
1580.854, 1468.806
1582.782, 1473.740
1584.710, 1478.195
1586.639, 1469.396
1588.567, 1465.506
1590.496, 1475.282
1592.424, 1472.951
1594.353, 1459.527
1596.281, 1453.160
1598.210, 1451.671
1600.138, 1455.410
1602.067, 1456.108
1603.995, 1444.493
1605.924, 1436.569
1607.852, 1438.423
1609.781, 1440.898
1611.709, 1446.573
1613.637, 1447.833
1615.566, 1440.561
1617.494, 1437.468
1619.423, 1440.260
1621.351, 1438.735
1623.280, 1433.136
1625.208, 1429.900
1627.137, 1422.393
1629.065, 1404.209
1630.994, 1400.677
1632.922, 1411.579
1634.851, 1412.669
1636.779, 1402.520
1638.708, 1386.299
1640.636, 1385.227
1642.564, 1402.120
1644.493, 1403.800
1646.421, 1390.858
1648.350, 1390.173
1650.278, 1395.392
1652.207, 1383.569
1654.135, 1367.812
1656.064, 1368.767
1657.992, 1375.198
1659.921, 1378.962
1661.849, 1374.881
1663.778, 1365.842
1665.706, 1363.117
1667.635, 1357.723
1669.563, 1345.841
1671.491, 1341.758
1673.420, 1348.634
1675.348, 1353.049
1677.277, 1356.338
1679.205, 1353.666
1681.134, 1340.783
1683.062, 1330.887
1684.991, 1328.298
1686.919, 1326.843
1688.848, 1326.359
1690.776, 1319.099
1692.705, 1316.912
1694.633, 1332.333
1696.562, 1335.425
1698.490, 1321.956
1700.418, 1314.896
1702.347, 1317.899
1704.275, 1316.715
1706.204, 1311.867
1708.132, 1314.474
1710.061, 1312.252
1711.989, 1303.164
1713.918, 1302.249
1715.846, 1303.956
1717.775, 1309.179
1719.703, 1311.694
1721.632, 1304.807
1723.560, 1296.090
1725.489, 1293.048
1727.417, 1287.213
1729.345, 1269.117
1731.274, 1267.971
1733.202, 1276.476
1735.131, 1274.184
1737.059, 1272.633
1738.988, 1267.698
1740.916, 1259.347
1742.845, 1244.702
1744.773, 1235.538
1746.702, 1239.222
1748.630, 1240.527
1750.559, 1233.687
1752.487, 1229.780
1754.416, 1224.975
1756.344, 1208.330
1758.272, 1203.081
1760.201, 1215.359
1762.129, 1225.933
1764.058, 1226.361
1765.986, 1216.495
1767.915, 1206.714
1769.843, 1206.407
1771.772, 1210.324
1773.700, 1212.622
1775.629, 1205.830
1777.557, 1196.092
1779.486, 1196.066
1781.414, 1195.742
1783.343, 1186.705
1785.271, 1178.788
1787.199, 1173.037
1789.128, 1177.752
1791.056, 1184.625
1792.985, 1172.716
1794.913, 1166.173
1796.842, 1171.695
1798.770, 1174.275
1800.699, 1172.182
1802.627, 1163.714
1804.556, 1157.780
1806.484, 1157.896
1808.413, 1154.304
1810.341, 1151.419
1812.270, 1150.044
1814.198, 1149.631
1816.126, 1149.370
1818.055, 1149.857
1819.983, 1144.868
1821.912, 1136.813
1823.840, 1144.758
1825.769, 1153.578
1827.697, 1148.655
1829.626, 1145.943
1831.554, 1150.146
1833.483, 1148.583
1835.411, 1141.240
1837.340, 1135.490
1839.268, 1131.609
1841.197, 1126.984
1843.125, 1121.027
1845.053, 1115.400
1846.982, 1104.181
1848.910, 1094.889
1850.839, 1098.607
1852.767, 1107.796
1854.696, 1114.538
1856.624, 1109.881
1858.553, 1098.083
1860.481, 1091.574
1862.410, 1088.552
1864.338, 1079.840
1866.267, 1074.028
1868.195, 1078.575
1870.124, 1077.528
1872.052, 1074.190
1873.980, 1077.503
1875.909, 1074.058
1877.837, 1051.879
1879.766, 1046.549
1881.694, 1062.402
1883.623, 1054.815
1885.551, 1042.044
1887.480, 1042.574
1889.408, 1045.188
1891.337, 1039.332
1893.265, 1033.530
1895.194, 1032.281
1897.122, 1024.548
1899.051, 1019.494
1900.979, 1022.529
1902.907, 1019.632
1904.836, 1013.271
1906.764, 1019.116
1908.693, 1020.119
1910.621, 1007.991
1912.550, 1004.213
1914.478, 1004.877
1916.407, 997.9755
1918.335, 994.2711
1920.264, 993.9320
1922.192, 1001.133
1924.121, 1008.309
1926.049, 999.2091
1927.978, 984.1060
1929.906, 970.3536
1931.834, 971.0696
1933.763, 979.0132
1935.691, 979.6516
1937.620, 979.2922
1939.548, 976.7879
1941.477, 968.2671
1943.405, 963.9337
1945.334, 964.0709
1947.262, 958.3530
1949.191, 954.8976
1951.119, 958.5320
1953.048, 953.4807
1954.976, 945.2023
1956.905, 948.3997
1958.833, 952.1397
1960.761, 954.4595
1962.690, 942.9832
1964.618, 936.0220
1966.547, 948.9808
1968.475, 939.2198
1970.404, 927.8320
1972.332, 930.2952
1974.261, 926.1046
1976.189, 929.3031
1978.118, 930.1666
1980.046, 918.1656
1981.975, 915.5094
1983.903, 916.5807
1985.832, 913.9073
1987.760, 908.1185
1989.688, 902.9193
1991.617, 892.8309
1993.545, 885.9113
1995.474, 892.4055
1997.402, 900.9678
1999.331, 891.7008
2001.259, 883.7727
2003.188, 882.7291
2005.116, 885.7006
2007.045, 886.8542
2008.973, 873.9271
2010.902, 869.3918
2012.830, 871.7159
2014.759, 864.8851
2016.687, 854.8439
2018.615, 853.4470
2020.544, 859.4922
2022.472, 858.2099
2024.401, 851.2132
2026.329, 851.1498
2028.258, 850.1503
2030.186, 847.3492
2032.115, 845.9707
2034.043, 843.3254
2035.972, 838.3832
2037.900, 837.6746
2039.829, 839.2825
2041.757, 839.7564
2043.686, 842.2188
2045.614, 844.3275
2047.542, 840.3402
2049.471, 830.5900
2051.399, 827.1741
2053.328, 823.5829
2055.256, 816.5508
2057.185, 808.7632
2059.113, 799.3867
2061.042, 800.4625
2062.970, 803.6508
2064.899, 805.4583
2066.827, 816.0383
2068.756, 813.5718
2070.684, 792.7202
2072.613, 781.3643
2074.541, 789.2750
2076.469, 791.3183
2078.398, 783.8047
2080.326, 777.6681
2082.255, 776.1201
2084.183, 769.9011
2086.112, 768.6250
2088.040, 778.0124
2089.969, 781.6227
2091.897, 778.6586
2093.826, 774.0336
2095.754, 770.5376
2097.683, 764.5093
2099.611, 762.5118
2101.540, 758.1870
2103.468, 748.8555
2105.396, 749.2147
2107.325, 752.2244
2109.253, 746.7484
2111.182, 740.1339
2113.110, 739.1905
2115.039, 746.1827
2116.967, 747.2037
2118.896, 741.3339
2120.824, 735.1651
2122.753, 731.9175
2124.681, 733.1262
2126.610, 733.0771
2128.538, 729.2180
2130.467, 719.7303
2132.395, 710.4194
2134.323, 710.1123
2136.252, 715.9185
2138.180, 721.5811
2140.109, 723.9285
2142.037, 719.6014
2143.966, 718.4169
2145.894, 721.3203
2147.823, 712.5924
2149.751, 702.4557
2151.680, 703.1317
2153.608, 710.7430
2155.537, 704.3514
2157.465, 692.1174
2159.394, 689.0887
2161.322, 689.0602
2163.250, 684.3101
2165.179, 686.8939
2167.107, 686.9238
2169.036, 676.4532
2170.964, 672.6172
2172.893, 673.7298
2174.821, 677.7879
2176.750, 682.9644
2178.678, 686.1317
2180.607, 684.8898
2182.535, 683.3809
2184.464, 676.2699
2186.392, 662.5624
2188.321, 663.2415
2190.249, 666.8189
2192.177, 666.0651
2194.106, 664.2953
2196.034, 651.4434
2197.963, 643.6570
2199.891, 637.9542
2201.820, 640.0417
2203.748, 652.6637
2205.677, 661.3688
2207.605, 661.7294
2209.534, 657.3875
2211.462, 654.7242
2213.391, 647.3978
2215.319, 632.2656
2217.248, 633.8342
2219.176, 639.8573
2221.104, 639.4230
2223.033, 627.9869
2224.961, 617.7819
2226.890, 625.7787
2228.818, 628.4634
2230.747, 621.9601
2232.675, 616.7825
2234.604, 611.4979
2236.532, 600.6698
2238.461, 594.7064
2240.389, 604.4486
2242.318, 610.8356
2244.246, 608.7610
2246.175, 607.5533
2248.103, 606.1467
2250.031, 610.4735
2251.960, 609.2460
2253.888, 598.0345
2255.817, 592.1230
2257.745, 592.0031
2259.674, 586.4744
2261.602, 567.9919
2263.531, 564.0453
2265.459, 576.8758
2267.388, 579.1006
2269.316, 583.6120
2271.245, 597.2179
2273.173, 590.9508
2275.102, 572.5270
2277.030, 575.7512
2278.958, 582.2299
2280.887, 577.7878
2282.815, 574.5093
2284.744, 569.7128
2286.672, 567.2794
2288.601, 562.8033
2290.529, 552.2985
2292.458, 551.1218
2294.386, 552.6582
2296.315, 554.2201
2298.243, 551.3207
2300.172, 548.8021
2302.100, 550.4353
2304.029, 544.9498
2305.957, 540.4360
2307.885, 546.8609
2309.814, 552.4174
2311.742, 547.5202
2313.671, 540.9123
2315.599, 537.8638
2317.528, 540.4069
2319.456, 531.9307
2321.385, 522.3513
2323.313, 529.4791
2325.242, 531.2433
2327.170, 532.7213
2329.099, 535.9706
2331.027, 533.9943
2332.956, 532.4157
2334.884, 523.2260
2336.813, 512.6001
2338.741, 511.2074
2340.669, 512.9288
2342.598, 513.6389
2344.526, 511.0906
2346.455, 501.9383
2348.383, 490.5188
2350.312, 498.6115
2352.240, 506.6380
2354.169, 502.3323
2356.097, 497.0370
2358.026, 493.1845
2359.954, 497.1464
2361.883, 500.1497
2363.811, 496.9381
2365.740, 495.2212
2367.668, 492.4413
2369.596, 487.3481
2371.525, 487.5472
2373.453, 488.6380
2375.382, 484.7081
2377.310, 479.2674
2379.239, 472.2111
2381.167, 474.4749
2383.096, 478.7074
2385.024, 476.8122
2386.953, 468.2644
2388.881, 467.3000
2390.810, 480.8694
2392.738, 471.5375
2394.667, 454.0836
2396.595, 448.3033
2398.523, 454.3615
2400.452, 458.3821
2402.380, 451.2809
2404.309, 445.5049
2406.237, 444.8973
2408.166, 454.9030
2410.094, 451.3801
2412.023, 438.6029
2413.951, 436.6750
2415.880, 438.2118
2417.808, 440.8607
2419.737, 433.3159
2421.665, 423.0443
2423.594, 420.1571
2425.522, 414.8940
2427.450, 408.2328
2429.379, 421.0681
2431.307, 426.1928
2433.236, 422.1483
2435.164, 424.6622
2437.093, 421.7128
2439.021, 411.4914
2440.950, 414.9098
2442.878, 421.6664
2444.807, 423.8323
2446.735, 414.9414
2448.664, 405.4547
2450.592, 404.2471
2452.521, 401.0218
2454.449, 398.6210
2456.377, 399.2705
2458.306, 390.2869
2460.234, 379.9334
2462.163, 385.4186
2464.091, 387.6808
2466.020, 383.8542
2467.948, 388.1270
2469.877, 391.9050
2471.805, 391.0058
2473.734, 385.2445
2475.662, 378.1193
2477.591, 375.4107
2479.519, 387.0047
2481.448, 390.7133
2483.376, 373.0851
2485.304, 363.9814
2487.233, 363.5955
2489.161, 366.2639
2491.090, 365.8603
2493.018, 364.4961
2494.947, 355.8922
2496.875, 347.8613
2498.804, 347.3738
2500.732, 359.4201
2502.661, 364.2081
2504.589, 353.6455
2506.518, 348.7868
2508.446, 353.4740
2510.375, 361.9049
2512.303, 364.2174
2514.231, 358.1244
2516.160, 342.1377
2518.088, 347.8991
2520.017, 352.7860
2521.945, 340.2130
2523.874, 343.6158
2525.802, 348.8147
2527.731, 340.0502
2529.659, 342.0187
2531.588, 347.8377
2533.516, 338.7606
2535.445, 333.8318
2537.373, 335.8681
2539.302, 337.8507
2541.230, 339.4659
2543.158, 341.0193
2545.087, 335.3737
2547.015, 327.9312
2548.944, 321.2586
2550.872, 322.2798
2552.801, 321.2120
2554.729, 316.0491
2556.658, 310.5595
2558.586, 311.3553
2560.515, 316.9670
2562.443, 319.8636
2564.372, 319.7145
2566.300, 316.1900
2568.229, 306.6199
2570.157, 303.8004
2572.085, 313.0866
2574.014, 303.8306
2575.942, 296.8935
2577.871, 300.9781
2579.799, 296.2187
2581.728, 291.9762
2583.656, 292.7016
2585.585, 304.8513
2587.513, 313.6493
2589.442, 300.7459
2591.370, 302.0205
2593.299, 305.0302
2595.227, 289.6912
2597.156, 290.1707
2599.084, 294.9030
2601.012, 288.3789
2602.941, 285.4883
2604.869, 285.4816
2606.798, 283.9977
2608.726, 279.2983
2610.655, 275.0858
2612.583, 273.3951
2614.512, 274.1119
2616.440, 271.4003
2618.369, 262.7078
2620.297, 269.4043
2622.226, 278.4842
2624.154, 283.2640
2626.083, 274.4139
2628.011, 266.8559
2629.939, 271.5437
2631.868, 264.0706
2633.796, 260.2755
2635.725, 263.2157
2637.653, 269.7153
2639.582, 267.0724
2641.510, 248.9730
2643.439, 256.0701
2645.367, 261.7314
2647.296, 252.8419
2649.224, 252.8004
2651.153, 256.2158
2653.081, 254.3790
2655.010, 244.2440
2656.938, 236.1145
2658.866, 229.6895
2660.795, 234.1654
2662.723, 240.8647
2664.652, 241.3445
2666.580, 236.6068
2668.509, 236.7986
2670.437, 243.4381
2672.366, 250.6492
2674.294, 250.5410
2676.223, 247.4103
2678.151, 237.7062
2680.080, 237.9915
2682.008, 248.2279
2683.937, 244.4710
2685.865, 236.6165
2687.793, 231.4688
2689.722, 230.4589
2691.650, 230.6309
2693.579, 223.4927
2695.507, 225.4498
2697.436, 235.6497
2699.364, 241.3925
2701.293, 233.6244
2703.221, 224.9885
2705.150, 225.9716
2707.078, 235.3518
2709.007, 227.7089
2710.935, 215.6096
2712.864, 214.5455
2714.792, 204.6651
2716.720, 199.5659
2718.649, 206.4555
2720.577, 214.5603
2722.506, 220.2220
2724.434, 220.2718
2726.363, 210.6370
2728.291, 203.3813
2730.220, 210.0878
2732.148, 203.9145
2734.077, 201.2513
2736.005, 201.1912
2737.934, 195.3642
2739.862, 189.6869
2741.791, 188.4638
2743.719, 189.4455
2745.647, 186.2852
2747.576, 184.2446
2749.504, 185.1104
2751.433, 191.3999
2753.361, 192.2571
2755.290, 181.5945
2757.218, 190.5127
2759.147, 196.7676
2761.075, 182.6561
2763.004, 173.3138
2764.932, 174.7487
2766.861, 176.2819
2768.789, 174.1998
2770.718, 170.1130
2772.646, 164.8846
2774.574, 171.8926
2776.503, 177.1594
2778.431, 177.9818
2780.360, 164.7589
2782.288, 171.9913
2784.217, 183.2942
2786.145, 167.6597
2788.074, 165.1058
2790.002, 168.5339
2791.931, 165.2950
2793.859, 169.6410
2795.788, 169.5031
2797.716, 155.2079
2799.645, 157.4785
2801.573, 165.5186
2803.501, 167.8651
2805.430, 167.4548
2807.358, 162.3079
2809.287, 161.1752
2811.215, 161.4719
2813.144, 157.8956
2815.072, 150.7063
2817.001, 137.4740
2818.929, 149.2914
2820.858, 160.8372
2822.786, 155.6483
2824.715, 148.5293
2826.643, 151.2712
2828.572, 157.5925
2830.500, 149.0132
2832.428, 143.0265
2834.357, 148.2942
2836.285, 152.7645
2838.214, 140.0343
2840.142, 134.4042
2842.071, 141.5738
2843.999, 132.4428
2845.928, 129.8683
2847.856, 132.1987
2849.785, 128.4390
2851.713, 128.3643
2853.642, 128.0268
2855.570, 136.6515
2857.499, 139.3803
2859.427, 134.0080
2861.355, 130.3246
2863.284, 128.8089
2865.212, 119.4558
2867.141, 113.6202
2869.069, 131.6834
2870.998, 132.3217
2872.926, 122.2130
2874.855, 126.5126
2876.783, 119.3215
2878.712, 118.0933
2880.640, 123.7452
2882.569, 117.6371
2884.497, 117.9269
2886.426, 130.1429
2888.354, 137.4737
2890.282, 127.2320
2892.211, 116.3162
2894.139, 105.9922
2896.068, 97.46605
2897.996, 103.9837
2899.925, 116.4339
2901.853, 113.7608
2903.782, 118.4348
2905.710, 124.4036
2907.639, 105.8588
2909.567, 101.1259
2911.496, 105.0770
2913.424, 114.1346
2915.353, 110.2104
2917.281, 104.6114
2919.209, 110.3295
2921.138, 113.1721
2923.066, 102.7562
2924.995, 90.72493
2926.923, 105.9799
2928.852, 110.4388
2930.780, 99.82420
2932.709, 93.47576
2934.637, 95.88654
2936.566, 104.3647
2938.494, 113.6809
2940.423, 112.8130
2942.351, 93.29621
2944.280, 80.96101
2946.208, 91.82793
2948.136, 88.10983
2950.065, 86.49161
2951.993, 96.30728
2953.922, 106.5385
2955.850, 106.4260
2957.779, 101.4336
2959.707, 90.50166
2961.636, 85.68800
2963.564, 92.63107
2965.493, 94.54240
2967.421, 77.89848
2969.350, 85.48726
2971.278, 98.17840
2973.207, 94.28571
2975.135, 88.52483
2977.063, 86.29678
2978.992, 81.57980
2980.920, 80.48625
2982.849, 77.39291
2984.777, 79.32750
2986.706, 77.50481
2988.634, 81.91838
2990.563, 83.26874
2992.491, 80.12518
2994.420, 79.35764
2996.348, 82.06470
2998.277, 89.14059
3000.205, 93.20188
3002.134, 80.72932
3004.062, 78.77466
3005.990, 85.46215
3007.919, 75.91890
3009.847, 81.40866
3011.776, 87.10168
3013.704, 83.61919
3015.633, 66.39759
3017.561, 74.02335
3019.490, 79.67178
3021.418, 65.29307
3023.347, 65.97843
3025.275, 58.55163
3027.204, 50.73426
3029.132, 59.26499
3031.061, 67.86189
3032.989, 75.79911
3034.917, 68.19886
3036.846, 76.55061
3038.774, 74.94741
3040.703, 64.35693
3042.631, 60.06867
3044.560, 83.81132
3046.488, 76.67175
3048.417, 49.42691
3050.345, 64.67033
3052.274, 77.74760
3054.202, 74.76892
3056.131, 62.91406
3058.059, 47.31581
3059.988, 58.60611
3061.916, 79.53728
3063.844, 71.09048
3065.773, 61.90733
3067.701, 55.88923
3069.630, 52.79256
3071.558, 62.53119
3073.487, 65.51534
3075.415, 60.38409
3077.344, 50.36197
3079.272, 53.57627
3081.201, 51.58416
3083.129, 53.05336
3085.058, 59.66549
3086.986, 61.57203
3088.915, 54.71929
3090.843, 49.40107
3092.771, 62.45433
3094.700, 73.32008
3096.628, 64.59570
3098.557, 43.74610
3100.485, 44.76941
3102.414, 47.70167
3104.342, 52.18379
3106.271, 56.65742
3108.199, 42.74780
3110.128, 36.70692
3112.056, 36.42737
3113.985, 44.00434
3115.913, 46.27553
3117.842, 46.12204
3119.770, 48.46218
3121.698, 50.99439
3123.627, 49.86183
3125.555, 47.67323
3127.484, 48.61699
3129.412, 48.93676
3131.341, 48.66861
3133.269, 46.51114
3135.198, 40.39685
3137.126, 36.78490
3139.055, 40.64407
3140.983, 48.99459
3142.912, 51.16936
3144.840, 45.68938
3146.769, 35.74833
3148.697, 34.20386
3150.625, 42.13870
3152.554, 37.54173
3154.482, 50.47153
3156.411, 52.72162
3158.339, 35.39397
3160.268, 42.34023
3162.196, 34.52733
3164.125, 25.55259
3166.053, 31.12090
3167.982, 35.97422
3169.910, 40.39273
3171.839, 46.00658
3173.767, 50.88189
3175.696, 52.59244
3177.624, 31.74972
3179.552, 18.99323
3181.481, 35.98394
3183.409, 36.25661
3185.338, 33.67252
3187.266, 31.28335
3189.195, 29.25850
3191.123, 28.45087
3193.052, 22.67984
3194.980, 23.80790
3196.909, 40.46086
3198.837, 47.67093
3200.766, 43.42101
3202.694, 35.18808
3204.623, 30.61761
3206.551, 28.48129
3208.479, 26.05586
3210.408, 23.70474
3212.336, 23.91017
3214.265, 37.02531
3216.193, 44.81731
3218.122, 42.20879
3220.050, 29.93744
3221.979, 15.43390
3223.907, 21.66385
3225.836, 36.12541
3227.764, 45.53635
3229.693, 29.37870
3231.621, 20.33977
3233.550, 23.50242
3235.478, 32.55685
3237.406, 16.61358
3239.335, 17.20485
3241.263, 23.96507
3243.192, 24.67786
3245.120, 4.972993
3247.049, 10.71284
3248.977, 15.77531
3250.906, 14.83512
3252.834, 25.49474
3254.763, 34.20258
3256.691, 17.67433
3258.620, -2.661580
3260.548, 20.69207
3262.477, 23.07812
3264.405, 17.01089
3266.333, 14.78127
3268.262, 24.78819
3270.190, 26.98691
3272.119, 21.18085
3274.047, 21.27558
3275.976, 36.30559
3277.904, 23.58782
3279.833, 26.94730
3281.761, 26.83163
3283.690, 15.35018
3285.618, 26.30329
3287.547, 21.41833
3289.475, 14.82445
3291.404, 16.11214
3293.332, 28.41687
3295.260, 20.25183
3297.189, 13.39267
3299.117, 17.31365
3301.046, 32.20311
3302.974, 29.63243
3304.903, 27.25916
3306.831, 22.22199
3308.760, 11.08615
3310.688, 18.29048
3312.617, 23.34813
3314.545, 22.67597
3316.474, 20.28336
3318.402, 23.46838
3320.331, 28.83926
3322.259, 28.89244
3324.188, 25.95976
3326.116, 29.26128
3328.044, 39.15395
3329.973, 22.46080
3331.901, 4.960382
3333.830, 12.21627
3335.758, 19.18494
3337.687, 21.19782
3339.615, 20.28292
3341.544, 20.55419
3343.472, 19.34421
3345.401, 26.34846
3347.329, 25.66297
3349.258, 18.47457
3351.186, 8.785870
3353.115, 14.44538
3355.043, 10.08084
3356.971, 0.3206974
3358.900, -3.344290
3360.828, 11.92043
3362.757, 30.93602
3364.685, 26.59100
3366.614, 14.23818
3368.542, 16.77316
3370.471, 30.40540
3372.399, 10.03422
3374.328, 7.779700
3376.256, 28.87225
3378.185, 10.42876
3380.113, -2.191036
3382.042, 5.764136
3383.970, 17.77405
3385.898, 16.09405
3387.827, 17.11563
3389.755, 26.87257
3391.684, 23.13441
3393.612, 6.436888
3395.541, -1.800204
3397.469, 1.391359
3399.398, 22.85254
3401.326, 35.26389
3403.255, 26.37617
3405.183, 19.24793
3407.112, 16.90599
3409.040, 17.41775
3410.969, 16.06069
3412.897, 10.75530
3414.825, 18.38655
3416.754, 12.96182
3418.682, 9.387043
3420.611, 13.59111
3422.539, 9.994272
3424.468, 23.19918
3426.396, 27.80230
3428.325, 25.95431
3430.253, 25.69384
3432.182, 33.23436
3434.110, 22.41900
3436.039, 18.63364
3437.967, 19.55347
3439.896, 14.75377
3441.824, 18.59506
3443.752, -5.781492
3445.681, -12.56943
3447.609, -3.516279
3449.538, -11.28753
3451.466, -2.462550
3453.395, 14.47734
3455.323, 30.18579
3457.252, 27.85254
3459.180, -7.965207
3461.109, 9.286827
3463.037, -1.209612
3464.966, 27.42636
3466.894, 74.21268
3468.823, -0.8275270
3470.751, -5.999900
3472.679, -9.948134
3474.608, 0.3510559
3476.536, 25.63568
3478.465, 11.57754
3480.393, 1.595623
3482.322, 3.350851
3484.250, 10.79965
3486.179, 15.09922
3488.107, 8.712148
3490.036, -23.98909
3491.964, -10.40817
3493.893, 7.572286
3495.821, -2.878869
3497.750, 15.78130
3499.678, 14.34015
3501.606, 6.692913
3503.535, 3.509876
3505.463, 9.843058
3507.392, 27.38186
3509.320, 16.31631
3511.249, 8.278912
3513.177, 7.584712
3515.106, 8.845867
3517.034, 7.324674
3518.963, 19.94538
3520.891, 1.861826
3522.820, -12.34457
3524.748, -3.039228
3526.677, 8.205744
3528.605, 11.17761
3530.533, -3.994900
3532.462, -10.28109
3534.390, -4.614246
3536.319, -6.551306
3538.247, 4.020477
3540.176, 3.070541
3542.104, 9.350707
3544.033, 20.78573
3545.961, 21.21666
3547.890, 6.630079
3549.818, 14.11529
3551.747, 16.35874
3553.675, 9.051431
3555.604, 3.450803
3557.532, 20.09014
3559.460, 7.394871
3561.389, 13.50571
3563.317, 16.64235
3565.246, -1.329048
3567.174, -13.90491
3569.103, 8.877368
3571.031, -0.4089311
3572.960, -5.565544
3574.888, 0.8144186
3576.817, -11.68944
3578.745, -4.417900
3580.674, -5.870042
3582.602, 4.322632
3584.531, 10.68946
3586.459, -0.2805013
3588.387, 11.50227
3590.316, 19.86723
3592.244, 6.950662
3594.173, 4.947150
3596.101, 23.53793
3598.030, 37.06815
3599.958, 2.993292
3601.887, 14.39619
3603.815, 23.54454
3605.744, 17.16540
3607.672, 6.985747
3609.601, -9.176351
3611.529, 7.624220
3613.458, -2.349655
3615.386, -2.427969
3617.314, 15.43911
3619.243, 18.19801
3621.171, 15.48378
3623.100, 0.1016041
3625.028, -1.987571
3626.957, 11.04632
3628.885, 22.52999
3630.814, 0.7827405
3632.742, 6.100935
3634.671, 8.031204
3636.599, 13.83826
3638.528, 14.22224
3640.456, -0.5200658
3642.385, 3.510664
3644.313, 8.705665
3646.241, 8.108105
3648.170, 1.519774
3650.098, -6.261908
3652.027, -10.95925
3653.955, -24.94255
3655.884, -7.200816
3657.812, 17.65209
3659.741, 22.80454
3661.669, 11.11952
3663.598, 5.407077
3665.526, 2.191793
3667.455, 6.713210
3669.383, 9.657021
3671.312, 5.218503
3673.240, -0.2330739
3675.168, 6.586167
3677.097, 21.71429
3679.025, 20.36991
3680.954, 22.31426
3682.882, 20.58709
3684.811, 10.26417
3686.739, 1.539571
3688.668, -4.9577702E-02
3690.596, -5.314589
3692.525, -9.521564
3694.453, -11.67818
3696.382, -13.70728
3698.310, -16.22008
3700.239, 0.5043809
3702.167, -2.825415
3704.095, -35.23205
3706.024, -26.34732
3707.952, 2.528162
3709.881, -29.81729
3711.809, -4.152343
3713.738, 2.576308
3715.666, 6.114913
3717.595, 5.552392
3719.523, 0.1643717
3721.452, -5.192851
3723.380, -6.891303
3725.309, 12.52638
3727.237, 7.629860
3729.166, 6.248895
3731.094, 7.595387
3733.022, 3.802347
3734.951, 11.11414
3736.879, 13.19365
3738.808, -7.542755
3740.736, -13.78791
3742.665, -3.101576
3744.593, 7.102903
3746.522, 4.356422
3748.450, 9.276859
3750.379, 0.8448023
3752.307, -11.89050
3754.236, -10.79308
3756.164, -5.418981
3758.093, -5.454056
3760.021, 3.994782
3761.949, -11.54321
3763.878, -8.681681
3765.806, -2.995934
3767.735, -3.634291
3769.663, -8.635429
3771.592, -9.468035
3773.520, 7.133981
3775.449, -1.603175
3777.377, -16.62508
3779.306, 0.4487827
3781.234, 11.46573
3783.163, 0.4359317
3785.091, 7.442628
3787.020, -1.446650
3788.948, 7.420241
3790.876, 7.980926
3792.805, -0.1883593
3794.733, 5.733630
3796.662, 24.07759
3798.590, 17.53415
3800.519, -7.446796
3802.447, 24.64013
3804.376, 1.838422
3806.304, -5.835743
3808.233, 10.51360
3810.161, 11.54251
3812.090, -10.54984
3814.018, -6.111972
3815.947, -8.145576
3817.875, 4.360370
3819.803, 5.875112
3821.732, -0.4115947
3823.660, 0.9537702
3825.589, 8.408216
3827.517, -1.350222
3829.446, -7.551113
3831.374, 5.279112
3833.303, 7.584203
3835.231, 5.554510
3837.160, -2.123664
3839.088, -22.84162
3841.017, 13.61364
3842.945, 1.316586
3844.874, -7.408769
3846.802, -9.400423
3848.730, -1.196129
3850.659, 7.491322
3852.587, 2.687244
3854.516, -13.84096
3856.444, -11.59768
3858.373, -14.35590
3860.301, -10.98344
3862.230, -13.43241
3864.158, -5.333973
3866.087, 7.595815
3868.015, -6.377334
3869.944, 4.642993
3871.872, 12.52204
3873.801, 11.72199
3875.729, 28.22001
3877.657, 18.42023
3879.586, 5.817622
3881.514, 12.96452
3883.443, -4.188319
3885.371, 7.225893
3887.300, -46.79963
3889.228, 1.537918
3891.157, 8.143553
3893.085, -10.79079
3895.014, -14.01694
3896.942, -5.076985
3898.871, 6.510920
3900.799, -18.54812
3902.728, -12.88294
3904.656, -2.070975
3906.584, 0.8825336
3908.513, -3.277817
3910.441, -6.207181
3912.370, -0.1166059
3914.298, 11.60334
3916.227, -24.57513
3918.155, -4.954894
3920.084, -7.739611
3922.012, -27.83547
3923.941, -16.87481
3925.869, 2.166395
3927.798, -4.611283
3929.726, -21.12557
3931.655, -12.29277
3933.583, -10.35597
3935.511, -40.52851
3937.440, -9.698392
3939.368, 6.630916
3941.297, 14.92157
3943.225, 8.459496
3945.154, -21.74656
3947.082, -12.86629
3949.011, 16.53840
3950.939, -16.71490
3952.868, 6.830460
3954.796, -5.829314
3956.725, -22.90288
3958.653, -17.67811
3960.582, -11.40736
3962.510, -19.52369
3964.438, -9.090311
3966.367, 6.868223
3968.295, 6.571340
3970.224, -7.974802
3972.152, 5.901932
3974.081, 1.730339
3976.009, -11.94361
3977.938, -8.048491
3979.866, -12.42017
3981.795, 16.95656
3983.723, 7.236179
3985.652, 17.57889
3987.580, 3.731488
3989.509, -10.99455
3991.437, -15.89987
3993.365, -20.44763
3995.294, -5.120002
3997.222, -17.25917
3999.151, 0.7922057
4001.079, -15.48865
4003.008, -12.57751
4004.936, -0.3876973
4006.865, -2.601946
4008.793, -2.920254
4010.722, 5.606665
4012.650, 0.3456456
4014.579, -21.09682
4016.507, -18.51018
4018.436, -19.91401
4020.364, -13.80539
4022.292, -9.823085
4024.221, -2.376680
4026.149, 10.71230
4028.078, -9.318639
4030.006, -45.17067
4031.935, -14.67040
4033.863, -4.219366
4035.792, -20.09539
4037.720, -11.50451
4039.649, 3.901480
4041.577, -6.492334
4043.506, 3.407824
4045.434, 2.900491
4047.363, -11.89071
4049.291, -14.49477
4051.219, -13.65082
4053.148, 8.751305
4055.076, 16.12986
4057.005, -8.277944
4058.933, -43.80835
4060.862, -20.92790
4062.790, -11.52829
4064.719, -10.62502
4066.647, 0.5261848
4068.576, 3.786800
4070.504, -7.720547
4072.433, -10.87895
4074.361, -15.53583
4076.290, -24.50178
4078.218, 8.242134
4080.146, 2.985386
4082.075, -22.92012
4084.003, -16.16320
4085.932, -5.914433
4087.860, -9.077236
4089.789, -4.617903
4091.717, 6.299834
4093.646, -5.860350
4095.574, 7.686149
4097.503, -19.04117
4099.431, 5.824860
4101.360, -2.911534
4103.288, -11.33716
4105.217, -24.74910
4107.145, -1.611520
4109.074, 9.515153
4111.002, -15.46266
4112.931, -20.42536
4114.859, -2.594086
4116.788, 3.957815
4118.716, -29.83597
4120.645, -1.787501
4122.573, 6.810448
4124.501, -21.51686
4126.430, -11.47265
4128.358, -26.06207
4130.287, -26.06392
4132.215, 4.267204
4134.144, 16.19865
4136.072, 3.858066
4138.000, 4.381117
4139.929, 2.131674
4141.857, 2.816210
4143.786, -1.384720
4145.714, 6.234505
4147.643, -1.623935
4149.571, -3.170352
4151.500, -15.62472
4153.428, -19.49931
4155.357, -23.75717
4157.285, -16.76932
4159.214, -5.939617
4161.142, -11.87159
4163.071, -4.695230
4164.999, -7.031363
4166.928, -18.43378
4168.856, -6.844019
4170.785, -5.083469
4172.713, -23.93134
4174.642, -20.65758
4176.570, -5.463892
4178.499, -0.8967106
4180.427, -14.74689
4182.355, -17.68344
4184.284, -2.843873
4186.212, 10.02754
4188.141, 10.89737
4190.069, -2.103072
4191.998, -6.503663
4193.926, -7.083040
4195.854, -6.230919
4197.783, -31.86945
4199.711, -8.009496
4201.640, 12.03967
4203.568, -7.533603
4205.497, -3.290640
4207.425, -32.63102
4209.354, -19.65146
4211.282, -8.980415
4213.211, -18.54461
4215.139, -21.59736
4217.068, -22.90827
4218.996, 2.802057
4220.925, -24.52032
4222.853, -4.240827
4224.782, -8.457304
4226.710, -19.98921
4228.639, -8.561032
4230.567, -5.623549
4232.496, 5.875225
4234.424, -2.353916
4236.353, -25.63141
4238.281, -30.67955
4240.209, -4.805069
4242.138, 8.847016
4244.066, -1.438524
4245.995, -18.14812
4247.923, -27.99695
4249.852, -19.32360
4251.780, -5.749388
4253.708, -16.52980
4255.637, 1.327155
4257.565, -25.34772
4259.494, -2.544746
4261.422, 2.418323
4263.351, -14.44215
4265.279, 4.015122
4267.208, 4.384703
4269.136, -2.252054
4271.065, -8.047020
4272.993, -35.05793
4274.922, -20.49798
4276.850, -18.94768
4278.779, -33.48276
4280.707, -29.05063
4282.636, -9.924269
4284.564, -7.639116
4286.493, -26.62866
4288.421, -26.37830
4290.350, -12.28555
4292.278, 14.04680
4294.207, -3.989470
4296.135, 4.427134
##END=



