##NAMES=Kristiansenite
##RRUFFID=R090022
##IDEAL CHEMISTRY=Ca_4_Sc_2_Sn_2_(Si_2_O_7_)_2_(Si_2_O_6_OH)_2_
##LOCALITY=Heftetjern, Tørdal, Telemark, Norway
##OWNER=RRUFF
##SOURCE=William W. Pinch
##DESCRIPTION=Pale tan colored, tapering prismatic crystals, associated with albite and quartz
##STATUS=The identification of this mineral has been confirmed by single-crystal X-ray diffraction
##URL=https://www.rruff.net/odr/rruff_sample/R090022
##DIFFRACTION SAMPLE DESCRIPTION=Single crystal, powder profile is calculated
##CELL PARAMETERS=a: 10.078 b: 8.437 c: 13.387 alpha: 90 beta: 109.26 gamma: 90.01 volume: 1074.5 crystal system: triclinic
##FILETYPE=Raman RAW
##RAMAN WAVELENGTH=780

81.32811, 0.0000000E+00
83.25658, 291.1647
85.18504, 354.8790
87.11351, 426.3454
89.04198, 508.1870
90.97044, 592.6442
92.89891, 677.6355
94.82738, 714.7695
96.75584, 721.2363
98.68431, 717.4678
100.6128, 707.7201
102.5412, 691.7133
104.4697, 675.2761
106.3982, 657.2881
108.3266, 640.9278
110.2551, 629.3414
112.1836, 621.4337
114.1120, 622.4111
116.0405, 638.1074
117.9690, 653.3816
119.8974, 668.6312
121.8259, 677.9371
123.7544, 672.7571
125.6828, 654.4628
127.6113, 628.0196
129.5398, 583.7700
131.4682, 546.1800
133.3967, 518.3514
135.3252, 501.4887
137.2536, 497.9741
139.1821, 506.3703
141.1106, 522.4070
143.0390, 544.7224
144.9675, 577.2243
146.8960, 621.6965
148.8244, 675.7220
150.7529, 741.4960
152.6814, 815.3838
154.6098, 885.5181
156.5383, 962.2154
158.4668, 1013.787
160.3952, 1023.295
162.3237, 1021.204
164.2522, 1017.289
166.1806, 1018.009
168.1091, 1040.720
170.0376, 1088.858
171.9660, 1156.049
173.8945, 1267.879
175.8230, 1368.266
177.7514, 1439.569
179.6799, 1478.797
181.6084, 1470.789
183.5368, 1399.430
185.4653, 1340.003
187.3938, 1289.960
189.3223, 1254.394
191.2507, 1244.801
193.1792, 1243.416
195.1077, 1239.408
197.0361, 1232.705
198.9646, 1202.281
200.8931, 1144.965
202.8215, 1078.038
204.7500, 992.7015
206.6785, 913.9722
208.6069, 854.9158
210.5354, 813.8310
212.4639, 786.4717
214.3923, 773.1365
216.3208, 771.1155
218.2493, 782.5417
220.1777, 801.6617
222.1062, 831.6740
224.0347, 863.3585
225.9631, 888.6876
227.8916, 906.4736
229.8201, 907.9308
231.7485, 891.7393
233.6770, 863.3704
235.6055, 815.8542
237.5339, 765.1308
239.4624, 716.5333
241.3909, 672.0137
243.3193, 636.7090
245.2478, 610.1164
247.1763, 590.1454
249.1047, 577.7827
251.0332, 570.3329
252.9617, 568.0408
254.8901, 568.8870
256.8186, 571.4664
258.7471, 575.5683
260.6755, 580.5645
262.6040, 586.8474
264.5325, 592.2878
266.4609, 593.5511
268.3894, 597.2379
270.3179, 605.5408
272.2463, 618.5261
274.1748, 635.9311
276.1033, 657.5672
278.0317, 683.9802
279.9602, 718.0143
281.8887, 751.6591
283.8171, 784.5981
285.7456, 815.8087
287.6741, 846.7733
289.6025, 874.4479
291.5310, 895.4486
293.4595, 910.0863
295.3879, 911.9407
297.3164, 897.6930
299.2449, 874.6722
301.1733, 836.5098
303.1018, 796.9207
305.0303, 763.9402
306.9587, 737.4858
308.8872, 718.6256
310.8157, 708.7438
312.7441, 701.8700
314.6726, 695.6981
316.6011, 695.0097
318.5295, 700.6868
320.4580, 712.9910
322.3865, 731.4722
324.3149, 756.0327
326.2434, 787.4267
328.1719, 827.6135
330.1003, 868.5604
332.0288, 911.5944
333.9573, 952.6412
335.8857, 992.4646
337.8142, 1027.373
339.7427, 1055.590
341.6711, 1077.204
343.5996, 1092.286
345.5281, 1099.986
347.4565, 1103.703
349.3850, 1100.984
351.3135, 1100.863
353.2419, 1101.911
355.1704, 1112.086
357.0989, 1138.033
359.0273, 1175.351
360.9558, 1218.265
362.8843, 1266.842
364.8127, 1309.673
366.7412, 1352.404
368.6697, 1366.357
370.5981, 1341.641
372.5266, 1286.056
374.4551, 1189.201
376.3835, 1073.221
378.3120, 961.6146
380.2405, 856.1817
382.1689, 764.5486
384.0974, 686.9584
386.0259, 622.8541
387.9543, 575.4266
389.8828, 537.5293
391.8113, 506.9579
393.7397, 484.6971
395.6682, 472.7632
397.5967, 469.9221
399.5251, 471.3262
401.4536, 476.9883
403.3821, 489.6423
405.3105, 509.4255
407.2390, 537.4224
409.1675, 572.5891
411.0959, 616.4398
413.0244, 671.3075
414.9529, 734.6585
416.8813, 803.6935
418.8098, 877.8105
420.7383, 957.3474
422.6667, 1046.630
424.5952, 1123.243
426.5237, 1195.054
428.4521, 1239.913
430.3806, 1249.814
432.3091, 1233.794
434.2375, 1186.220
436.1660, 1122.782
438.0945, 1062.747
440.0229, 1006.496
441.9514, 962.5461
443.8799, 932.1317
445.8083, 913.6221
447.7368, 910.1304
449.6653, 913.8556
451.5938, 924.9763
453.5222, 939.6277
455.4507, 957.3632
457.3792, 975.4136
459.3076, 989.8596
461.2361, 1001.704
463.1646, 997.7263
465.0930, 973.4044
467.0215, 945.9336
468.9500, 912.1695
470.8784, 884.1798
472.8069, 870.7881
474.7354, 861.5403
476.6638, 849.7186
478.5923, 836.1251
480.5208, 821.1650
482.4492, 804.8882
484.3777, 796.9099
486.3062, 798.9115
488.2346, 799.8539
490.1631, 802.1019
492.0916, 793.8032
494.0200, 765.0999
495.9485, 729.2842
497.8770, 685.4634
499.8054, 643.9340
501.7339, 619.2448
503.6624, 611.4451
505.5908, 617.4002
507.5193, 636.8056
509.4478, 668.6788
511.3762, 714.5333
513.3047, 768.1162
515.2332, 829.6810
517.1616, 896.1324
519.0901, 967.5924
521.0186, 1042.474
522.9470, 1118.424
524.8755, 1196.645
526.8040, 1278.744
528.7324, 1365.232
530.6609, 1461.348
532.5894, 1568.203
534.5178, 1680.606
536.4463, 1809.588
538.3748, 1924.733
540.3032, 2035.687
542.2317, 2111.619
544.1602, 2139.102
546.0886, 2118.507
548.0171, 2034.952
549.9456, 1907.585
551.8740, 1768.367
553.8025, 1618.880
555.7310, 1484.079
557.6594, 1363.991
559.5879, 1264.328
561.5164, 1190.063
563.4448, 1127.759
565.3733, 1076.400
567.3018, 1033.752
569.2302, 995.3005
571.1587, 968.0356
573.0872, 956.2013
575.0156, 960.6522
576.9441, 983.0554
578.8726, 1023.321
580.8010, 1083.336
582.7295, 1166.217
584.6580, 1264.645
586.5864, 1394.765
588.5149, 1510.140
590.4434, 1623.127
592.3718, 1684.336
594.3003, 1662.543
596.2288, 1582.169
598.1572, 1442.971
600.0857, 1271.452
602.0142, 1103.557
603.9426, 942.2240
605.8711, 808.5682
607.7996, 705.2949
609.7280, 620.0400
611.6565, 554.6039
613.5850, 499.9580
615.5134, 456.7427
617.4419, 419.1605
619.3704, 385.6974
621.2988, 356.5137
623.2273, 332.2933
625.1558, 311.6252
627.0842, 293.4096
629.0127, 277.7310
630.9412, 265.0921
632.8696, 255.2813
634.7981, 246.5313
636.7266, 238.8162
638.6550, 232.5818
640.5835, 228.0235
642.5120, 223.9932
644.4404, 220.2904
646.3689, 217.0883
648.2974, 214.1887
650.2258, 212.1372
652.1543, 211.6998
654.0828, 211.6057
656.0112, 210.6867
657.9397, 209.5739
659.8682, 208.9426
661.7966, 208.8783
663.7251, 209.9061
665.6536, 211.8098
667.5820, 212.9364
669.5105, 213.0222
671.4390, 214.3714
673.3674, 217.8325
675.2959, 221.1744
677.2244, 223.9338
679.1528, 226.8324
681.0813, 229.4731
683.0098, 233.0506
684.9382, 237.6068
686.8667, 243.8966
688.7952, 253.1006
690.7236, 264.0072
692.6521, 274.5654
694.5806, 285.7987
696.5090, 300.1216
698.4375, 317.4229
700.3660, 336.6430
702.2944, 358.4665
704.2229, 378.8639
706.1514, 396.8000
708.0798, 415.2859
710.0083, 433.1234
711.9368, 453.7452
713.8652, 476.6779
715.7937, 504.4531
717.7222, 537.6788
719.6506, 576.6091
721.5791, 622.8425
723.5076, 673.3956
725.4360, 729.3824
727.3645, 785.4446
729.2930, 841.0706
731.2214, 888.7911
733.1499, 910.5848
735.0784, 906.1992
737.0068, 870.7674
738.9353, 801.8604
740.8638, 719.1823
742.7922, 619.3018
744.7207, 531.5511
746.6492, 458.7545
748.5776, 399.2578
750.5061, 354.0331
752.4346, 318.5029
754.3630, 293.7201
756.2915, 274.1557
758.2200, 258.1335
760.1484, 245.6612
762.0769, 238.0232
764.0054, 232.6465
765.9338, 227.3186
767.8623, 222.8894
769.7908, 220.7665
771.7192, 220.2008
773.6477, 220.0842
775.5762, 220.1245
777.5046, 219.2168
779.4331, 217.6512
781.3616, 217.0613
783.2900, 217.4901
785.2185, 217.4985
787.1470, 218.1804
789.0754, 219.5553
791.0039, 220.2946
792.9324, 223.0486
794.8608, 224.9439
796.7893, 227.0941
798.7178, 229.3121
800.6462, 232.4000
802.5747, 237.1252
804.5032, 242.0275
806.4316, 246.1924
808.3601, 250.5432
810.2886, 255.3651
812.2170, 261.0818
814.1455, 268.2039
816.0740, 276.2006
818.0024, 284.4684
819.9309, 293.3060
821.8594, 302.7622
823.7878, 313.3276
825.7163, 326.4696
827.6448, 341.9625
829.5732, 358.9226
831.5017, 377.4205
833.4302, 394.6486
835.3586, 411.2186
837.2871, 423.3700
839.2156, 431.2939
841.1440, 433.4693
843.0725, 428.6418
845.0010, 421.8715
846.9294, 413.0112
848.8579, 403.8918
850.7864, 394.1005
852.7148, 386.2064
854.6433, 380.8810
856.5718, 377.6387
858.5002, 376.3465
860.4287, 377.0502
862.3572, 379.9246
864.2856, 384.6717
866.2141, 391.2589
868.1426, 399.3338
870.0710, 408.9580
871.9995, 419.6800
873.9280, 431.7530
875.8564, 443.9739
877.7849, 454.8441
879.7134, 466.9949
881.6418, 477.5689
883.5703, 490.2407
885.4988, 502.3705
887.4272, 513.7364
889.3557, 523.4435
891.2842, 531.6341
893.2126, 539.0455
895.1411, 545.9532
897.0696, 552.9421
898.9980, 559.9089
900.9265, 567.1240
902.8550, 573.2354
904.7834, 580.5593
906.7119, 585.3572
908.6404, 590.6259
910.5688, 596.5028
912.4973, 601.9244
914.4258, 606.9017
916.3542, 611.1055
918.2827, 614.7386
920.2112, 616.6809
922.1396, 617.5465
924.0681, 614.9666
925.9966, 606.8732
927.9250, 598.8115
929.8535, 590.6648
931.7820, 583.4661
933.7104, 578.3343
935.6389, 572.3781
937.5674, 564.3899
939.4958, 556.5809
941.4243, 548.9156
943.3528, 542.7968
945.2813, 539.2139
947.2097, 535.8300
949.1382, 531.3280
951.0667, 528.0797
952.9951, 526.9691
954.9236, 527.2662
956.8521, 529.1121
958.7805, 531.5469
960.7090, 533.9366
962.6375, 537.1367
964.5659, 541.3693
966.4944, 546.6241
968.4229, 554.3817
970.3513, 561.5469
972.2798, 565.3077
974.2083, 568.7651
976.1367, 574.6855
978.0652, 580.3123
979.9937, 583.0980
981.9221, 585.1282
983.8506, 589.4690
985.7791, 592.3521
987.7075, 589.0970
989.6360, 583.7911
991.5645, 580.6480
993.4929, 577.9542
995.4214, 572.9994
997.3499, 568.2789
999.2783, 567.4109
1001.207, 563.3101
1003.135, 563.2908
1005.064, 558.9831
1006.992, 557.3882
1008.921, 556.8215
1010.849, 555.6038
1012.778, 554.4396
1014.706, 554.6553
1016.635, 554.4832
1018.563, 550.9407
1020.491, 545.8756
1022.420, 541.2717
1024.348, 537.9659
1026.277, 536.6213
1028.205, 537.6532
1030.134, 543.9041
1032.062, 551.1420
1033.991, 553.3859
1035.919, 552.5232
1037.848, 550.5417
1039.776, 547.5102
1041.705, 543.4613
1043.633, 538.2629
1045.562, 532.0999
1047.490, 524.9650
1049.418, 516.1876
1051.347, 506.5926
1053.275, 497.2989
1055.204, 488.0910
1057.132, 478.8008
1059.061, 469.0726
1060.989, 458.2012
1062.918, 446.8742
1064.846, 435.6059
1066.775, 425.5583
1068.703, 417.9357
1070.632, 411.1003
1072.560, 403.8839
1074.489, 396.6621
1076.417, 389.5908
1078.345, 383.0353
1080.274, 376.8941
1082.202, 371.4637
1084.131, 367.7937
1086.059, 363.8978
1087.988, 358.0350
1089.916, 351.9739
1091.845, 346.1264
1093.773, 341.2630
1095.702, 338.4745
1097.630, 336.7167
1099.559, 335.0560
1101.487, 334.2330
1103.416, 334.9310
1105.344, 336.1418
1107.272, 337.7768
1109.201, 339.3446
1111.129, 340.3416
1113.058, 342.0240
1114.986, 344.7061
1116.915, 347.8095
1118.843, 351.1364
1120.772, 355.0129
1122.700, 358.8677
1124.629, 364.7661
1126.557, 367.9146
1128.486, 372.2331
1130.414, 378.1530
1132.343, 385.1877
1134.271, 391.3192
1136.199, 398.2253
1138.128, 406.3047
1140.056, 412.6066
1141.985, 421.6940
1143.913, 430.1940
1145.842, 437.9255
1147.770, 444.3149
1149.699, 449.4620
1151.627, 454.6647
1153.556, 459.7105
1155.484, 462.8380
1157.413, 464.2832
1159.341, 465.2206
1161.270, 465.3831
1163.198, 463.3638
1165.126, 459.5445
1167.055, 455.4003
1168.983, 451.1019
1170.912, 448.5228
1172.840, 446.6549
1174.769, 441.4933
1176.697, 438.9832
1178.626, 433.0293
1180.554, 431.9036
1182.483, 428.8134
1184.411, 425.4559
1186.340, 423.2067
1188.268, 421.6337
1190.197, 420.5556
1192.125, 420.4911
1194.053, 421.7325
1195.982, 422.5952
1197.910, 422.9487
1199.839, 422.9672
1201.767, 421.7626
1203.696, 421.6470
1205.624, 423.6535
1207.553, 425.9467
1209.481, 428.7370
1211.410, 430.8672
1213.338, 431.2568
1215.267, 432.4869
1217.195, 435.7131
1219.124, 438.6676
1221.052, 440.4989
1222.980, 441.4483
1224.909, 442.0708
1226.837, 444.0083
1228.766, 446.8976
1230.694, 450.0871
1232.623, 453.4747
1234.551, 456.3467
1236.480, 459.2518
1238.408, 463.2607
1240.337, 467.1157
1242.265, 468.6904
1244.194, 470.8200
1246.122, 476.7016
1248.051, 484.0046
1249.979, 491.1146
1251.907, 497.6845
1253.836, 503.9305
1255.764, 510.3954
1257.693, 516.0187
1259.621, 523.2829
1261.550, 534.1505
1263.478, 544.7001
1265.407, 553.8790
1267.335, 562.3777
1269.264, 570.5242
1271.192, 578.5269
1273.121, 584.9548
1275.049, 592.4781
1276.978, 596.3806
1278.906, 600.8461
1280.834, 605.0255
1282.763, 605.9960
1284.691, 604.6667
1286.620, 602.3978
1288.548, 599.7226
1290.477, 596.9939
1292.405, 593.5240
1294.334, 588.9963
1296.262, 585.3074
1298.191, 583.4808
1300.119, 581.5060
1302.048, 578.3729
1303.976, 575.7755
1305.905, 573.8536
1307.833, 572.4989
1309.761, 572.3429
1311.690, 572.7597
1313.618, 573.7242
1315.547, 574.3281
1317.475, 574.0592
1319.404, 575.4749
1321.332, 576.2656
1323.261, 577.2889
1325.189, 578.8657
1327.118, 580.0693
1329.046, 581.5469
1330.975, 583.3207
1332.903, 585.6658
1334.832, 588.9280
1336.760, 592.5984
1338.688, 597.1214
1340.617, 600.7072
1342.545, 600.9833
1344.474, 603.6685
1346.402, 610.2012
1348.331, 615.5477
1350.259, 619.8759
1352.188, 622.9595
1354.116, 624.7170
1356.045, 627.4299
1357.973, 631.0936
1359.902, 636.4537
1361.830, 642.3362
1363.759, 647.7150
1365.687, 653.4391
1367.615, 657.6261
1369.544, 661.9422
1371.472, 669.2796
1373.401, 676.4247
1375.329, 681.2356
1377.258, 687.5215
1379.186, 697.0692
1381.115, 705.9589
1383.043, 713.1017
1384.972, 720.8967
1386.900, 729.9494
1388.829, 740.2321
1390.757, 750.7468
1392.686, 759.7041
1394.614, 768.8992
1396.542, 780.6106
1398.471, 794.5904
1400.399, 810.2762
1402.328, 827.4476
1404.256, 845.2174
1406.185, 865.4456
1408.113, 884.7136
1410.042, 905.8431
1411.970, 928.3098
1413.899, 953.7409
1415.827, 983.1984
1417.756, 1015.956
1419.684, 1049.783
1421.613, 1082.565
1423.541, 1116.842
1425.469, 1154.032
1427.398, 1193.211
1429.326, 1234.030
1431.255, 1276.255
1433.183, 1320.316
1435.112, 1366.026
1437.040, 1412.907
1438.969, 1460.959
1440.897, 1509.822
1442.826, 1554.603
1444.754, 1596.167
1446.683, 1628.292
1448.611, 1649.709
1450.540, 1659.805
1452.468, 1656.160
1454.396, 1634.561
1456.325, 1602.177
1458.253, 1561.332
1460.182, 1515.599
1462.110, 1464.900
1464.039, 1417.138
1465.967, 1372.365
1467.896, 1329.812
1469.824, 1290.812
1471.753, 1256.869
1473.681, 1227.371
1475.610, 1202.539
1477.538, 1182.127
1479.467, 1165.365
1481.395, 1150.314
1483.323, 1137.714
1485.252, 1129.670
1487.180, 1123.975
1489.109, 1117.139
1491.037, 1111.458
1492.966, 1109.666
1494.894, 1106.347
1496.823, 1106.834
1498.751, 1105.322
1500.680, 1106.589
1502.608, 1109.210
1504.537, 1113.151
1506.465, 1117.973
1508.394, 1123.038
1510.322, 1129.168
1512.250, 1136.333
1514.179, 1143.946
1516.107, 1152.795
1518.036, 1163.553
1519.964, 1175.440
1521.893, 1186.759
1523.821, 1199.910
1525.750, 1217.532
1527.678, 1237.848
1529.607, 1260.312
1531.535, 1284.794
1533.464, 1311.907
1535.392, 1342.386
1537.321, 1374.771
1539.249, 1407.306
1541.177, 1443.197
1543.106, 1485.788
1545.034, 1530.462
1546.963, 1575.327
1548.891, 1620.897
1550.820, 1666.706
1552.748, 1711.173
1554.677, 1754.481
1556.605, 1795.879
1558.534, 1834.889
1560.462, 1866.792
1562.391, 1892.863
1564.319, 1917.814
1566.248, 1936.498
1568.176, 1943.120
1570.104, 1940.559
1572.033, 1930.773
1573.961, 1914.562
1575.890, 1891.526
1577.818, 1863.345
1579.747, 1830.589
1581.675, 1792.867
1583.604, 1753.147
1585.532, 1716.918
1587.461, 1681.748
1589.389, 1645.916
1591.318, 1611.661
1593.246, 1579.814
1595.175, 1551.738
1597.103, 1528.228
1599.031, 1511.229
1600.960, 1496.222
1602.888, 1477.124
1604.817, 1460.287
1606.745, 1448.432
1608.674, 1439.711
1610.602, 1434.257
1612.531, 1429.650
1614.459, 1425.563
1616.388, 1423.593
1618.316, 1423.620
1620.245, 1422.888
1622.173, 1420.903
1624.102, 1418.723
1626.030, 1418.697
1627.958, 1421.958
1629.887, 1424.728
1631.815, 1425.482
1633.744, 1426.450
1635.672, 1428.139
1637.601, 1432.394
1639.529, 1437.483
1641.458, 1441.760
1643.386, 1446.965
1645.315, 1453.599
1647.243, 1458.285
1649.172, 1465.023
1651.100, 1468.309
1653.029, 1478.135
1654.957, 1487.261
1656.885, 1494.243
1658.814, 1499.887
1660.742, 1507.096
1662.671, 1515.961
1664.599, 1525.389
1666.528, 1533.599
1668.456, 1538.383
1670.385, 1544.672
1672.313, 1557.066
1674.242, 1568.911
1676.170, 1577.030
1678.099, 1586.011
1680.027, 1594.446
1681.956, 1602.626
1683.884, 1609.291
1685.813, 1618.780
1687.741, 1622.082
1689.669, 1629.076
1691.598, 1636.529
1693.526, 1641.857
1695.455, 1647.098
1697.383, 1654.901
1699.312, 1663.920
1701.240, 1673.741
1703.169, 1682.352
1705.097, 1690.760
1707.026, 1701.281
1708.954, 1710.182
1710.883, 1718.971
1712.811, 1727.735
1714.740, 1737.070
1716.668, 1749.296
1718.596, 1760.956
1720.525, 1773.939
1722.453, 1787.746
1724.382, 1800.477
1726.310, 1814.422
1728.239, 1827.469
1730.167, 1836.673
1732.096, 1845.981
1734.024, 1860.409
1735.953, 1874.072
1737.881, 1881.244
1739.810, 1888.594
1741.738, 1900.317
1743.667, 1908.078
1745.595, 1914.726
1747.523, 1929.563
1749.452, 1942.615
1751.380, 1947.025
1753.309, 1952.318
1755.237, 1961.382
1757.166, 1971.146
1759.094, 1976.546
1761.023, 1980.672
1762.951, 1987.309
1764.880, 1991.646
1766.808, 1995.243
1768.737, 2001.559
1770.665, 2006.975
1772.594, 2009.477
1774.522, 2012.071
1776.450, 2016.572
1778.379, 2020.408
1780.307, 2023.441
1782.236, 2027.543
1784.164, 2030.652
1786.093, 2032.608
1788.021, 2036.599
1789.950, 2043.071
1791.878, 2050.433
1793.807, 2055.932
1795.735, 2060.395
1797.664, 2065.992
1799.592, 2073.862
1801.521, 2085.990
1803.449, 2099.232
1805.377, 2109.725
1807.306, 2123.673
1809.234, 2140.388
1811.163, 2153.327
1813.091, 2165.850
1815.020, 2181.086
1816.948, 2200.432
1818.877, 2219.038
1820.805, 2236.667
1822.734, 2256.480
1824.662, 2277.751
1826.591, 2301.493
1828.519, 2323.617
1830.448, 2344.904
1832.376, 2365.271
1834.304, 2383.665
1836.233, 2404.872
1838.161, 2430.217
1840.090, 2451.763
1842.018, 2465.622
1843.947, 2481.392
1845.875, 2503.481
1847.804, 2521.626
1849.732, 2536.726
1851.661, 2555.715
1853.589, 2571.638
1855.518, 2581.760
1857.446, 2592.112
1859.375, 2605.629
1861.303, 2614.182
1863.231, 2616.938
1865.160, 2620.742
1867.088, 2627.725
1869.017, 2634.907
1870.945, 2635.988
1872.874, 2631.261
1874.802, 2623.908
1876.731, 2615.084
1878.659, 2608.921
1880.588, 2601.046
1882.516, 2586.994
1884.445, 2578.418
1886.373, 2571.994
1888.302, 2556.945
1890.230, 2539.752
1892.158, 2527.310
1894.087, 2518.306
1896.015, 2508.065
1897.944, 2497.127
1899.872, 2485.327
1901.801, 2470.875
1903.729, 2459.807
1905.658, 2455.112
1907.586, 2449.222
1909.515, 2439.834
1911.443, 2432.274
1913.372, 2427.431
1915.300, 2423.683
1917.229, 2419.349
1919.157, 2416.460
1921.085, 2414.348
1923.014, 2413.030
1924.942, 2410.992
1926.871, 2410.672
1928.799, 2411.044
1930.728, 2414.762
1932.656, 2414.705
1934.585, 2417.868
1936.513, 2423.112
1938.442, 2424.673
1940.370, 2426.332
1942.299, 2431.390
1944.227, 2436.417
1946.156, 2440.955
1948.084, 2446.765
1950.012, 2452.215
1951.941, 2460.298
1953.869, 2469.758
1955.798, 2475.550
1957.726, 2483.496
1959.655, 2492.072
1961.583, 2499.749
1963.512, 2512.143
1965.440, 2525.054
1967.369, 2534.584
1969.297, 2545.455
1971.226, 2553.212
1973.154, 2564.410
1975.083, 2574.187
1977.011, 2586.028
1978.939, 2596.758
1980.868, 2608.760
1982.796, 2624.859
1984.725, 2643.442
1986.653, 2659.705
1988.582, 2675.139
1990.510, 2693.262
1992.439, 2717.677
1994.367, 2741.249
1996.296, 2757.799
1998.224, 2777.347
2000.153, 2804.706
2002.081, 2827.659
2004.010, 2844.839
2005.938, 2861.430
2007.866, 2878.933
2009.795, 2898.101
2011.723, 2912.032
2013.652, 2926.656
2015.580, 2939.979
2017.509, 2949.794
2019.437, 2961.551
2021.366, 2968.341
2023.294, 2972.606
2025.223, 2978.199
2027.151, 2979.407
2029.080, 2980.148
2031.008, 2976.202
2032.937, 2964.044
2034.865, 2956.095
2036.793, 2950.784
2038.722, 2944.281
2040.650, 2933.360
2042.579, 2916.048
2044.507, 2900.109
2046.436, 2887.253
2048.364, 2875.119
2050.293, 2860.760
2052.221, 2845.999
2054.150, 2831.320
2056.078, 2819.769
2058.007, 2816.096
2059.935, 2809.522
2061.864, 2802.525
2063.792, 2800.500
2065.720, 2797.065
2067.649, 2793.969
2069.577, 2794.640
2071.506, 2795.815
2073.434, 2798.009
2075.363, 2798.692
2077.291, 2799.477
2079.220, 2798.785
2081.148, 2799.329
2083.077, 2804.617
2085.005, 2809.659
2086.934, 2815.292
2088.862, 2819.872
2090.791, 2822.784
2092.719, 2827.483
2094.647, 2832.873
2096.576, 2835.875
2098.504, 2840.904
2100.433, 2846.647
2102.361, 2850.611
2104.290, 2856.011
2106.218, 2860.875
2108.147, 2865.810
2110.075, 2872.497
2112.004, 2877.382
2113.932, 2884.446
2115.861, 2891.542
2117.789, 2900.398
2119.718, 2906.494
2121.646, 2914.786
2123.574, 2921.857
2125.503, 2930.874
2127.431, 2936.196
2129.360, 2938.214
2131.288, 2942.543
2133.217, 2950.869
2135.145, 2961.656
2137.074, 2966.742
2139.002, 2972.410
2140.931, 2982.445
2142.859, 2987.688
2144.788, 2990.296
2146.716, 2992.963
2148.645, 2997.996
2150.573, 3011.111
2152.501, 3022.687
2154.430, 3025.188
2156.358, 3026.990
2158.287, 3031.477
2160.215, 3034.727
2162.144, 3040.382
2164.072, 3047.566
2166.001, 3049.903
2167.929, 3051.594
2169.858, 3058.468
2171.786, 3064.798
2173.715, 3070.387
2175.643, 3075.680
2177.572, 3077.233
2179.500, 3077.685
2181.428, 3080.341
2183.357, 3088.855
2185.285, 3098.207
2187.214, 3104.079
2189.142, 3108.861
2191.071, 3111.215
2192.999, 3111.470
2194.928, 3113.999
2196.856, 3122.108
2198.785, 3128.705
2200.713, 3133.840
2202.642, 3137.259
2204.570, 3144.231
2206.499, 3149.919
2208.427, 3160.631
2210.355, 3163.627
2212.284, 3174.471
2214.212, 3182.251
2216.141, 3186.540
2218.069, 3193.359
2219.998, 3201.832
2221.926, 3203.872
2223.855, 3209.234
2225.783, 3221.385
2227.712, 3229.762
2229.640, 3235.599
2231.569, 3241.621
2233.497, 3246.583
2235.426, 3247.957
2237.354, 3249.431
2239.282, 3253.902
2241.211, 3254.667
2243.139, 3256.220
2245.068, 3257.399
2246.996, 3257.584
2248.925, 3256.867
2250.853, 3256.860
2252.782, 3258.068
2254.710, 3258.957
2256.639, 3260.287
2258.567, 3261.512
2260.496, 3261.294
2262.424, 3261.479
2264.353, 3260.636
2266.281, 3260.399
2268.209, 3260.824
2270.138, 3259.078
2272.066, 3260.665
2273.995, 3259.642
2275.923, 3257.091
2277.852, 3255.369
2279.780, 3254.658
2281.709, 3253.520
2283.637, 3252.411
2285.566, 3251.063
2287.494, 3250.185
2289.423, 3247.914
2291.351, 3246.433
2293.280, 3244.564
2295.208, 3245.044
2297.136, 3240.781
2299.065, 3239.910
2300.993, 3237.653
2302.922, 3231.506
2304.850, 3229.897
2306.779, 3230.854
2308.707, 3228.758
2310.636, 3228.726
2312.564, 3231.404
2314.493, 3226.103
2316.421, 3216.157
2318.350, 3214.993
2320.278, 3215.333
2322.207, 3214.884
2324.135, 3214.677
2326.063, 3212.789
2327.992, 3210.387
2329.920, 3207.569
2331.849, 3205.992
2333.777, 3202.510
2335.706, 3197.828
2337.634, 3195.745
2339.563, 3193.981
2341.491, 3190.923
2343.420, 3189.274
2345.348, 3189.146
2347.277, 3188.765
2349.205, 3188.199
2351.134, 3188.682
2353.062, 3186.372
2354.990, 3188.729
2356.919, 3186.871
2358.847, 3184.911
2360.776, 3181.643
2362.704, 3181.999
2364.633, 3182.984
2366.561, 3178.265
2368.490, 3176.875
2370.418, 3176.594
2372.347, 3174.565
2374.275, 3176.917
2376.204, 3174.890
2378.132, 3168.058
2380.061, 3165.610
2381.989, 3167.399
2383.917, 3169.865
2385.846, 3172.160
2387.774, 3167.151
2389.703, 3159.773
2391.631, 3161.802
2393.560, 3162.974
2395.488, 3160.244
2397.417, 3159.881
2399.345, 3160.479
2401.274, 3161.803
2403.202, 3161.859
2405.131, 3162.105
2407.059, 3165.331
2408.988, 3169.932
2410.916, 3168.945
2412.844, 3166.117
2414.773, 3171.785
2416.701, 3176.192
2418.630, 3176.758
2420.558, 3181.646
2422.487, 3186.239
2424.415, 3189.593
2426.344, 3191.507
2428.272, 3191.422
2430.201, 3192.024
2432.129, 3195.091
2434.058, 3199.159
2435.986, 3202.523
2437.915, 3201.542
2439.843, 3197.682
2441.771, 3200.147
2443.700, 3203.438
2445.628, 3206.291
2447.557, 3203.565
2449.485, 3199.610
2451.414, 3200.309
2453.342, 3196.156
2455.271, 3194.465
2457.199, 3194.263
2459.128, 3189.249
2461.056, 3183.723
2462.985, 3179.470
2464.913, 3175.050
2466.842, 3172.203
2468.770, 3167.777
2470.698, 3164.745
2472.627, 3162.657
2474.555, 3162.237
2476.484, 3164.092
2478.412, 3170.446
2480.341, 3176.347
2482.269, 3190.151
2484.198, 3205.710
2486.126, 3221.461
2488.055, 3251.796
2489.983, 3283.817
2491.912, 3319.023
2493.840, 3364.373
2495.769, 3416.249
2497.697, 3480.441
2499.625, 3559.140
2501.554, 3647.900
2503.482, 3762.534
2505.411, 3906.479
2507.339, 4068.426
2509.268, 4255.181
2511.196, 4472.683
2513.125, 4714.250
2515.053, 4972.586
2516.982, 5248.089
2518.910, 5537.442
2520.839, 5840.513
2522.767, 6148.990
2524.696, 6438.081
2526.624, 6702.314
2528.552, 6929.196
2530.481, 7080.523
2532.409, 7153.471
2534.338, 7159.769
2536.266, 7063.035
2538.195, 6883.069
2540.123, 6641.862
2542.052, 6355.231
2543.980, 6047.331
2545.909, 5721.119
2547.837, 5406.906
2549.766, 5126.970
2551.694, 4886.547
2553.623, 4681.600
2555.551, 4512.009
2557.479, 4379.505
2559.408, 4274.481
2561.336, 4188.944
2563.265, 4108.073
2565.193, 4027.722
2567.122, 3947.145
2569.050, 3857.837
2570.979, 3770.260
2572.907, 3686.741
2574.836, 3606.237
2576.764, 3531.680
2578.693, 3462.240
2580.621, 3395.078
2582.550, 3336.759
2584.478, 3287.699
2586.406, 3242.659
2588.335, 3197.148
2590.263, 3156.034
2592.192, 3131.806
2594.120, 3111.303
2596.049, 3090.151
2597.977, 3070.435
2599.906, 3057.545
2601.834, 3050.119
2603.763, 3043.417
2605.691, 3034.162
2607.620, 3024.342
2609.548, 3012.075
2611.477, 3001.299
2613.405, 2989.307
2615.333, 2975.101
2617.262, 2956.289
2619.190, 2939.709
2621.119, 2937.469
2623.047, 2930.255
2624.976, 2914.341
2626.904, 2895.347
2628.833, 2880.358
2630.761, 2866.909
2632.690, 2853.257
2634.618, 2840.542
2636.547, 2826.661
2638.475, 2812.058
2640.404, 2794.527
2642.332, 2778.310
2644.260, 2767.113
2646.189, 2750.879
2648.117, 2730.569
2650.046, 2712.481
2651.974, 2701.319
2653.903, 2695.324
2655.831, 2683.488
2657.760, 2670.887
2659.688, 2662.020
2661.617, 2654.727
2663.545, 2648.214
2665.474, 2641.194
2667.402, 2626.547
2669.331, 2617.712
2671.259, 2610.274
2673.188, 2596.708
2675.116, 2588.695
2677.044, 2584.426
2678.973, 2581.908
2680.901, 2577.856
2682.830, 2570.819
2684.758, 2560.125
2686.687, 2550.206
2688.615, 2542.674
2690.544, 2535.375
2692.472, 2527.159
2694.401, 2517.305
2696.329, 2502.963
2698.258, 2503.639
2700.186, 2499.262
2702.115, 2481.082
2704.043, 2468.007
2705.971, 2461.298
2707.900, 2458.019
2709.828, 2448.632
2711.757, 2437.837
2713.685, 2427.142
2715.614, 2417.283
2717.542, 2407.398
2719.471, 2397.455
2721.399, 2388.255
2723.328, 2379.524
2725.256, 2369.437
2727.185, 2361.823
2729.113, 2357.073
2731.042, 2349.334
2732.970, 2336.197
2734.898, 2332.959
2736.827, 2329.261
2738.755, 2316.975
2740.684, 2304.803
2742.612, 2295.979
2744.541, 2287.175
2746.469, 2282.399
2748.398, 2274.537
2750.326, 2267.864
2752.255, 2260.667
2754.183, 2252.427
2756.112, 2243.989
2758.040, 2235.626
2759.969, 2224.499
2761.897, 2215.148
2763.825, 2216.334
2765.754, 2208.517
2767.682, 2198.684
2769.611, 2194.704
2771.539, 2183.789
2773.468, 2171.605
2775.396, 2164.524
2777.325, 2162.361
2779.253, 2156.124
2781.182, 2146.058
2783.110, 2137.851
2785.039, 2131.588
2786.967, 2126.245
2788.896, 2118.312
2790.824, 2112.059
2792.752, 2106.156
2794.681, 2097.746
2796.609, 2087.874
2798.538, 2078.457
2800.466, 2070.054
2802.395, 2069.752
2804.323, 2066.675
2806.252, 2057.418
2808.180, 2050.611
2810.109, 2046.369
2812.037, 2041.416
2813.966, 2029.468
2815.894, 2021.855
2817.823, 2015.511
2819.751, 2005.678
2821.679, 1999.818
2823.608, 1994.514
2825.536, 1985.993
2827.465, 1978.597
2829.393, 1969.328
2831.322, 1958.760
2833.250, 1955.985
2835.179, 1955.532
2837.107, 1952.626
2839.036, 1943.430
2840.964, 1934.454
2842.893, 1925.243
2844.821, 1920.039
2846.750, 1915.216
2848.678, 1907.293
2850.606, 1896.220
2852.535, 1887.595
2854.463, 1875.347
2856.392, 1862.585
2858.320, 1859.426
2860.249, 1849.020
2862.177, 1836.850
2864.106, 1829.217
2866.034, 1819.363
2867.963, 1809.400
2869.891, 1799.406
2871.820, 1794.177
2873.748, 1783.849
2875.677, 1769.948
2877.605, 1758.765
2879.533, 1756.830
2881.462, 1753.028
2883.390, 1741.203
2885.319, 1730.245
2887.247, 1718.525
2889.176, 1707.160
2891.104, 1697.644
2893.033, 1687.986
2894.961, 1679.101
2896.890, 1671.283
2898.818, 1662.512
2900.747, 1655.379
2902.675, 1650.132
2904.604, 1636.935
2906.532, 1629.380
2908.460, 1626.258
2910.389, 1617.356
2912.317, 1614.795
2914.246, 1614.997
2916.174, 1614.126
2918.103, 1603.306
2920.031, 1597.583
2921.960, 1599.664
2923.888, 1600.250
2925.817, 1606.532
2927.745, 1611.594
2929.674, 1608.005
2931.602, 1610.269
2933.531, 1615.339
2935.459, 1622.374
2937.387, 1624.221
2939.316, 1632.025
2941.244, 1630.372
2943.173, 1632.112
2945.101, 1634.955
2947.030, 1637.526
2948.958, 1638.270
2950.887, 1636.516
2952.815, 1636.714
2954.744, 1634.909
2956.672, 1625.047
2958.601, 1616.400
2960.529, 1610.760
2962.458, 1607.488
2964.386, 1603.388
2966.314, 1598.157
2968.243, 1588.267
2970.171, 1569.578
2972.100, 1561.398
2974.028, 1550.795
2975.957, 1536.764
2977.885, 1533.013
2979.814, 1521.394
2981.742, 1507.507
2983.671, 1497.340
2985.599, 1488.051
2987.528, 1480.455
2989.456, 1472.749
2991.385, 1462.781
2993.313, 1452.281
2995.241, 1442.493
2997.170, 1431.773
2999.098, 1421.076
3001.027, 1410.191
3002.955, 1401.335
3004.884, 1390.141
3006.812, 1379.659
3008.741, 1366.753
3010.669, 1351.555
3012.598, 1346.239
3014.526, 1333.602
3016.455, 1317.882
3018.383, 1307.578
3020.312, 1297.856
3022.240, 1287.406
3024.168, 1274.652
3026.097, 1256.268
3028.025, 1242.153
3029.954, 1232.137
3031.882, 1222.688
3033.811, 1209.140
3035.739, 1193.311
3037.668, 1177.872
3039.596, 1165.943
3041.525, 1148.596
3043.453, 1135.930
3045.382, 1126.628
3047.310, 1112.888
3049.239, 1097.617
3051.167, 1085.313
3053.095, 1078.157
3055.024, 1068.737
3056.952, 1059.853
3058.881, 1049.767
3060.809, 1035.043
3062.738, 1032.466
3064.666, 1026.408
3066.595, 1012.300
3068.523, 999.2502
3070.452, 994.8768
3072.380, 988.6404
3074.309, 977.0504
3076.237, 969.2764
3078.166, 960.3299
3080.094, 953.7820
3082.022, 946.2314
3083.951, 940.7762
3085.879, 932.9152
3087.808, 928.5198
3089.736, 923.0075
3091.665, 917.7906
3093.593, 910.6706
3095.522, 903.3713
3097.450, 898.0915
3099.379, 893.3077
3101.307, 888.9172
3103.236, 882.7972
3105.164, 873.7216
3107.093, 867.9246
3109.021, 864.0687
3110.949, 860.4840
3112.878, 857.0417
3114.806, 850.1323
3116.735, 843.0139
3118.663, 838.1429
3120.592, 835.0560
3122.520, 826.5927
3124.449, 817.0553
3126.377, 814.9695
3128.306, 808.3734
3130.234, 800.3796
3132.163, 794.0940
3134.091, 791.0469
3136.020, 783.7510
3137.948, 775.5042
3139.876, 767.2928
3141.805, 757.4209
3143.733, 751.4457
3145.662, 747.4794
3147.590, 744.3144
3149.519, 739.9718
3151.447, 735.0439
3153.376, 729.1266
3155.304, 723.3331
3157.233, 718.1553
3159.161, 709.7967
3161.090, 703.7399
3163.018, 695.7029
3164.947, 690.3351
3166.875, 683.4507
3168.803, 676.7463
3170.732, 670.6998
3172.660, 660.5441
3174.589, 651.8273
3176.517, 643.0896
3178.446, 634.4305
3180.374, 628.5579
3182.303, 622.1281
3184.231, 613.0872
3186.160, 605.5778
3188.088, 597.4103
3190.017, 587.4933
3191.945, 579.2100
3193.874, 565.2900
3195.802, 560.2218
3197.730, 550.1149
3199.659, 539.1300
3201.587, 532.9563
3203.516, 528.8585
3205.444, 522.7664
3207.373, 514.4886
3209.301, 506.2270
3211.230, 501.3994
3213.158, 492.2321
3215.087, 483.7831
3217.015, 480.3804
3218.944, 479.7064
3220.872, 473.8644
3222.801, 467.8800
3224.729, 463.6767
3226.657, 458.9688
3228.586, 452.8840
3230.514, 447.7900
3232.443, 443.3656
3234.371, 436.5661
3236.300, 429.8993
3238.228, 425.2804
3240.157, 420.3503
3242.085, 418.0991
3244.014, 412.9195
3245.942, 409.9677
3247.871, 407.1582
3249.799, 396.0161
3251.728, 394.3217
3253.656, 390.9853
3255.584, 386.4235
3257.513, 384.7702
3259.441, 376.6194
3261.370, 372.2809
3263.298, 369.5386
3265.227, 365.0652
3267.155, 362.7481
3269.084, 358.1978
3271.012, 353.5023
3272.941, 350.5693
3274.869, 346.1005
3276.798, 345.7404
3278.726, 340.3551
3280.655, 339.0422
3282.583, 340.5087
3284.511, 337.0926
3286.440, 330.5499
3288.368, 326.3152
3290.297, 330.2630
3292.225, 331.3033
3294.154, 327.5761
3296.082, 322.6562
3298.011, 320.7036
3299.939, 320.4110
3301.868, 321.2484
3303.796, 319.5871
3305.725, 314.5639
3307.653, 313.3273
3309.582, 311.5828
3311.510, 312.0558
3313.438, 311.9230
3315.367, 305.9590
3317.295, 305.7025
3319.224, 300.7885
3321.152, 294.5111
3323.081, 293.4312
3325.009, 290.7094
3326.938, 289.2144
3328.866, 287.3164
3330.795, 283.1845
3332.723, 275.7173
3334.652, 271.9686
3336.580, 273.1981
3338.509, 274.4210
3340.437, 269.1206
3342.365, 263.7693
3344.294, 260.7827
3346.222, 259.5412
3348.151, 258.3761
3350.079, 257.6105
3352.008, 254.6186
3353.936, 252.8628
3355.865, 252.5047
3357.793, 251.4980
3359.722, 251.6497
3361.650, 250.9783
3363.579, 249.2154
3365.507, 247.5918
3367.436, 248.9078
3369.364, 244.4568
3371.292, 241.4309
3373.221, 241.1596
3375.149, 240.8179
3377.078, 241.3605
3379.006, 241.4022
3380.935, 239.4682
3382.863, 236.8570
3384.792, 235.5901
3386.720, 234.0607
3388.649, 232.4162
3390.577, 231.1819
3392.506, 231.8283
3394.434, 229.1730
3396.363, 229.8923
3398.291, 230.1531
3400.219, 227.5565
3402.148, 223.3172
3404.076, 220.7273
3406.005, 220.1949
3407.933, 218.5876
3409.862, 214.5184
3411.790, 212.4798
3413.719, 209.7179
3415.647, 207.1259
3417.576, 205.1020
3419.504, 204.2456
3421.433, 205.7006
3423.361, 205.0513
3425.290, 203.3916
3427.218, 202.1862
3429.146, 201.9177
3431.075, 198.8399
3433.003, 199.7209
3434.932, 200.2792
3436.860, 197.1246
3438.789, 196.7076
3440.717, 194.7522
3442.646, 193.9741
3444.574, 193.1311
3446.503, 190.4868
3448.431, 189.1849
3450.360, 189.7343
3452.288, 188.4137
3454.217, 186.8666
3456.145, 189.0840
3458.073, 188.2515
3460.002, 187.1179
3461.930, 185.7404
3463.859, 184.5011
3465.787, 184.1848
3467.716, 181.6380
3469.644, 180.6599
3471.573, 180.6834
3473.501, 180.2456
3475.430, 178.2698
3477.358, 178.4809
3479.287, 177.6351
3481.215, 175.6534
3483.144, 174.3614
3485.072, 173.5662
3487.000, 175.3193
3488.929, 173.0757
3490.857, 173.3133
3492.786, 175.3931
3494.714, 173.9660
3496.643, 170.5583
3498.571, 169.4657
3500.500, 170.2290
3502.428, 170.8247
3504.357, 169.0208
3506.285, 166.9954
3508.214, 164.9906
3510.142, 163.6266
3512.071, 162.9800
3513.999, 161.1279
3515.927, 161.8125
3517.856, 161.1509
3519.784, 159.0180
3521.713, 156.5595
3523.641, 154.4728
3525.570, 154.8126
3527.498, 152.1486
3529.427, 150.9786
3531.355, 151.3505
3533.284, 150.1378
3535.212, 147.1878
3537.141, 145.7746
3539.069, 142.4231
3540.998, 140.4814
3542.926, 142.2257
3544.854, 137.1507
3546.783, 137.3260
3548.711, 134.9011
3550.640, 131.8870
3552.568, 131.5149
3554.497, 129.8761
3556.425, 130.8467
3558.354, 128.9630
3560.282, 129.0271
3562.211, 129.6051
3564.139, 126.9136
3566.068, 126.1995
3567.996, 124.6582
3569.925, 123.9018
3571.853, 124.1557
3573.781, 124.2285
3575.710, 121.5496
3577.638, 119.2134
3579.567, 120.7612
3581.495, 121.5942
3583.424, 118.9633
3585.352, 116.2945
3587.281, 113.4763
3589.209, 112.2305
3591.138, 111.6405
3593.066, 110.0717
3594.995, 106.9751
3596.923, 106.7741
3598.852, 103.0119
3600.780, 102.2414
3602.708, 102.0249
3604.637, 99.34578
3606.565, 96.20638
3608.494, 92.43091
3610.422, 91.40528
3612.351, 88.34043
3614.279, 86.86319
3616.208, 84.24938
3618.136, 84.18810
3620.065, 82.85057
3621.993, 81.66517
3623.922, 81.52159
3625.850, 81.51516
3627.779, 79.48694
3629.707, 78.27679
3631.635, 78.34268
3633.564, 76.42500
3635.492, 76.16943
3637.421, 78.92478
3639.349, 77.36670
3641.278, 77.93132
3643.206, 75.43198
3645.135, 74.29488
3647.063, 74.33674
3648.992, 73.59005
3650.920, 76.06258
3652.849, 76.55703
3654.777, 77.38439
3656.706, 75.84231
3658.634, 74.06602
3660.563, 75.22330
3662.491, 71.30347
3664.419, 71.63347
3666.348, 70.17334
3668.276, 69.01025
3670.205, 68.46999
3672.133, 66.35983
3674.062, 64.81396
3675.990, 63.80383
3677.919, 63.55616
3679.847, 61.76743
3681.776, 59.90546
3683.704, 61.07235
3685.633, 58.52563
3687.561, 57.86580
3689.490, 55.61618
3691.418, 54.74706
3693.346, 55.16778
3695.275, 54.07562
3697.203, 53.80273
3699.132, 55.66491
3701.060, 51.47206
3702.989, 52.23016
3704.917, 53.65799
3706.846, 47.39283
3708.774, 49.65934
3710.703, 49.76184
3712.631, 50.18567
3714.560, 50.63096
3716.488, 51.25048
3718.417, 50.82710
3720.345, 50.51312
3722.273, 50.38318
3724.202, 49.24975
3726.130, 49.33811
3728.059, 49.32732
3729.987, 48.31255
3731.916, 46.32737
3733.844, 44.14317
3735.773, 45.57613
3737.701, 44.70307
3739.630, 45.29784
3741.558, 46.30878
3743.487, 44.19142
3745.415, 44.67585
3747.344, 41.66625
3749.272, 41.30602
3751.200, 42.82111
3753.129, 42.59837
3755.057, 39.79737
3756.986, 37.33854
3758.914, 37.48809
3760.843, 37.48173
3762.771, 36.70304
3764.700, 36.58518
3766.628, 37.33179
3768.557, 37.84246
3770.485, 37.01542
3772.414, 37.05907
3774.342, 36.21561
3776.271, 35.17237
3778.199, 36.86662
3780.127, 39.22028
3782.056, 37.78270
3783.984, 37.55857
3785.913, 35.73746
3787.841, 35.66909
3789.770, 37.19260
3791.698, 36.90244
3793.627, 35.38572
3795.555, 36.44537
3797.484, 32.62385
3799.412, 32.68148
3801.341, 33.13399
3803.269, 32.20805
3805.198, 30.12033
3807.126, 28.58218
3809.054, 29.01354
3810.983, 28.85522
3812.911, 28.11354
3814.840, 27.79357
3816.768, 27.12409
3818.697, 26.23496
3820.625, 25.51966
3822.554, 24.63026
3824.482, 24.84068
3826.411, 23.30586
3828.339, 22.32731
3830.268, 21.27055
3832.196, 21.70926
3834.125, 22.44553
3836.053, 21.05498
3837.981, 20.66584
3839.910, 21.30054
3841.838, 22.32556
3843.767, 22.05651
3845.695, 22.59197
3847.624, 22.22030
3849.552, 22.15302
3851.481, 22.41651
3853.409, 22.08442
3855.338, 22.82810
3857.266, 24.55860
3859.195, 21.49852
3861.123, 21.88272
3863.052, 25.32207
3864.980, 22.85167
3866.908, 24.62191
3868.837, 24.68506
3870.765, 21.29084
3872.694, 22.21880
3874.622, 21.71697
3876.551, 20.80113
3878.479, 21.42410
3880.408, 19.84747
3882.336, 20.00127
3884.265, 19.86468
3886.193, 17.67729
3888.122, 16.98590
3890.050, 16.40477
3891.979, 15.78481
3893.907, 16.45745
3895.835, 18.20526
3897.764, 17.32900
3899.692, 13.95304
3901.621, 16.25801
3903.549, 14.37404
3905.478, 13.97839
3907.406, 14.45780
3909.335, 13.66578
3911.263, 14.08426
3913.192, 15.16158
3915.120, 14.32498
3917.049, 14.54402
3918.977, 14.18528
3920.906, 13.85188
3922.834, 14.43322
3924.762, 16.03377
3926.691, 17.11233
3928.619, 12.40425
3930.548, 13.51216
3932.476, 15.10831
3934.405, 14.92257
3936.333, 16.05364
3938.262, 15.13152
3940.190, 13.56674
3942.119, 14.59714
3944.047, 14.21327
3945.976, 14.61634
3947.904, 11.56367
3949.833, 12.96442
3951.761, 10.12940
3953.689, 9.828258
3955.618, 12.28756
3957.546, 12.39648
3959.475, 10.34677
3961.403, 12.21014
3963.332, 11.53992
3965.260, 10.13342
3967.189, 11.32374
3969.117, 10.28356
3971.046, 10.07170
3972.974, 11.13947
3974.903, 10.12686
3976.831, 7.828348
3978.760, 8.966345
3980.688, 10.41420
3982.616, 7.776091
3984.545, 9.734160
3986.473, 10.13332
3988.402, 7.785255
3990.330, 8.595096
3992.259, 8.203828
3994.187, 7.094488
3996.116, 9.511648
3998.044, 8.009388
3999.973, 8.910776
4001.901, 7.683094
4003.830, 7.173612
4005.758, 7.375899
4007.687, 6.577868
4009.615, 6.440631
4011.543, 7.226675
4013.472, 6.991308
4015.400, 5.744090
4017.329, 9.209808
4019.257, 7.390273
4021.186, 4.729315
4023.114, 6.968820
4025.043, 3.937414
4026.971, 5.343118
4028.900, 6.711514
4030.828, 4.549581
4032.757, 5.412178
4034.685, 6.901736
4036.614, 5.117708
4038.542, 4.987588
4040.470, 6.989908
4042.399, 3.536162
4044.327, 3.661073
4046.256, 4.553030
4048.184, 5.220850
4050.113, 5.201945
4052.041, 3.178509
4053.970, 4.006644
4055.898, 4.167537
4057.827, 5.291464
4059.755, 4.561840
4061.684, 4.564567
4063.612, 4.284894
4065.541, 4.169120
4067.469, 4.967031
4069.397, 4.284022
4071.326, 4.482296
4073.254, 4.763903
4075.183, 2.705005
4077.111, 5.388917
4079.040, 3.853118
4080.968, 2.327666
4082.897, 2.834651
4084.825, 2.290213
4086.754, 5.454991
4088.682, 3.485427
4090.611, 3.181222
4092.539, 4.848330
4094.468, 2.787270
4096.396, 3.879716
4098.324, 1.570996
4100.253, 2.727294
4102.181, 4.178947
4104.110, 3.930430
4106.038, 2.375170
4107.967, 2.339343
4109.895, 2.740809
4111.824, 3.836726
4113.752, 5.190288
4115.681, 3.804131
4117.609, 2.338748
4119.538, 1.451319
4121.466, 2.506187
4123.395, 1.477219
4125.323, 1.923979
4127.251, 3.114740
4129.180, 2.061914
4131.108, 3.204825
4133.037, 5.366955
4134.965, 3.214202
4136.894, 0.2193321
4138.822, 2.326336
4140.750, 1.522691
4142.679, 1.478396
4144.607, 2.637185
4146.536, 1.420926
4148.464, 0.1505850
4150.393, 1.900047
4152.321, 0.6855496
4154.250, 2.233381
4156.178, 1.983855
4158.107, 1.006617
4160.035, 0.9439850
4161.964, -3.1295460E-02
4163.892, 0.4366376
4165.821, 1.815174
4167.749, 1.769031
4169.678, 2.319908
4171.606, 5.5751480E-02
4173.535, 2.801074
4175.463, 2.521696
4177.392, 2.240687
4179.320, 3.549438
4181.249, 3.067250
4183.177, 2.709436
4185.105, 1.943273
4187.034, 0.1031857
4188.962, 0.3450281
4190.891, 2.887653
4192.819, 3.645823
4194.748, 1.517593
4196.676, -4.7592740E-04
4198.604, -1.454561
4200.533, 2.882473
4202.461, 3.527253
4204.390, 1.824431
4206.318, 4.072670
4208.247, 1.726646
4210.175, 1.973883
4212.104, 2.245383
4214.032, 0.7485409
4215.961, 0.9095591
4217.889, 2.002759
4219.818, 2.566208
4221.746, 1.286608
4223.675, 1.705468
4225.603, 1.022221
4227.532, -0.9788100
4229.460, 1.255765
4231.389, 3.043303
4233.317, 3.449294
4235.246, 2.774694
4237.174, 2.135934
4239.103, 1.666733
4241.031, 2.065497
4242.959, -0.1258820
4244.888, -1.288582
4246.816, 0.8420694
4248.745, 2.487406
4250.673, 2.838444
4252.602, 3.126493
4254.530, 2.699589
4256.458, 2.447274
4258.387, 3.280424
4260.315, 4.416299
4262.244, 3.707416
4264.172, 1.859764
4266.101, 3.000855
4268.029, 3.114785
4269.958, 2.679143
4271.886, 3.160370
4273.815, 2.891082
4275.743, 2.791581
4277.672, 2.529587
4279.600, 2.526529
4281.529, 2.081322
4283.457, 2.508124
4285.386, 3.318370
4287.314, 3.313614
4289.243, 1.226203
4291.171, 2.328175
4293.100, 2.965985
4295.028, 1.877653
4296.957, 3.047826
4298.885, 2.037559
4300.813, 1.017541
4302.742, 3.529609
4304.670, 0.3351287
4306.599, 2.592453
4308.527, 1.694046
4310.456, 1.704748
4312.384, 3.273875
4314.313, 1.314005
4316.241, 0.1619910
4318.169, 1.647364
4320.098, 1.797897
4322.026, 3.119698
4323.955, 2.468739
4325.883, 1.661050
4327.812, 0.8313244
4329.740, -0.9640490
4331.669, 0.9321120
4333.597, 3.502360
4335.526, 2.298522
4337.454, 3.184627
4339.383, 0.9870725
4341.311, 2.214912
4343.240, 2.141802
4345.168, 1.753254
4347.097, 2.771301
4349.025, 1.637969
4350.954, 0.5880759
4352.882, 2.869811
4354.811, 3.182076
4356.739, 0.1787210
4358.667, 3.156275
4360.596, 0.1703338
4362.524, 3.4822620E-02
4364.453, 0.7239757
4366.381, 2.485497
4368.310, 1.560266
4370.238, 2.104030
4372.167, 2.960504
4374.095, 1.303188
4376.023, 0.1637043
4377.952, 0.5480862
##END=



