##NAMES=Krohnkite
##RRUFFID=R050604
##IDEAL CHEMISTRY=Na_2_Cu(SO_4_)_2_·2H_2_O
##LOCALITY=Chuquicamata, Chile
##OWNER=RRUFF
##SOURCE=University of Arizona Mineral Museum
##DESCRIPTION=Green elongated prismatic crystals with orange natrojarosite and minor colorless leightonite
##STATUS=The identification of this mineral has been confirmed by X-ray diffraction and chemical analysis
##URL=https://www.rruff.net/odr/rruff_sample/R050604
##MEASURED CHEMISTRY=Na_2.00_Cu_1.00_(S_1.00_O_4_)_2_·2H_2_O
##DIFFRACTION SAMPLE DESCRIPTION=Powder
##CELL PARAMETERS=a: 5.8082 b: 12.6628 c: 5.5167 alpha: 90 beta: 108.44 gamma: 90 volume: 384.91 crystal system: monoclinic
##FILETYPE=Raman RAW
##RAMAN WAVELENGTH=780

81.48875, 0.0000000E+00
83.41722, 482.7209
85.34569, 506.6447
87.27415, 535.8019
89.20262, 573.3078
91.13109, 620.9952
93.05956, 646.4962
94.98802, 649.0331
96.91649, 656.5955
98.84496, 670.0518
100.7734, 687.3887
102.7019, 701.4443
104.6304, 713.9641
106.5588, 723.0263
108.4873, 729.1625
110.4158, 731.3201
112.3442, 727.6290
114.2727, 719.5195
116.2011, 712.8038
118.1296, 706.8854
120.0581, 701.7897
121.9865, 697.7640
123.9150, 693.3797
125.8435, 687.0903
127.7719, 679.6325
129.7004, 673.8736
131.6289, 669.7864
133.5574, 666.0753
135.4858, 662.3734
137.4143, 659.1281
139.3428, 656.6982
141.2712, 654.8141
143.1997, 652.8144
145.1281, 650.6827
147.0566, 648.4977
148.9851, 645.9865
150.9135, 643.8704
152.8420, 642.5645
154.7705, 641.7376
156.6989, 640.9658
158.6274, 640.2449
160.5559, 638.9097
162.4843, 636.6303
164.4128, 634.1680
166.3413, 631.3492
168.2697, 628.8279
170.1982, 627.6944
172.1267, 627.7705
174.0551, 627.5585
175.9836, 626.8658
177.9121, 625.9801
179.8405, 624.8701
181.7690, 623.7093
183.6975, 622.5947
185.6259, 621.5628
187.5544, 620.8124
189.4829, 620.6198
191.4113, 619.7530
193.3398, 616.9660
195.2683, 614.5468
197.1967, 614.4074
199.1252, 615.4242
201.0537, 614.9099
202.9821, 612.6222
204.9106, 610.9366
206.8391, 610.6392
208.7675, 610.5166
210.6960, 610.3375
212.6245, 610.0475
214.5529, 609.3067
216.4814, 608.2405
218.4099, 608.1852
220.3383, 610.6769
222.2668, 611.9713
224.1953, 610.6887
226.1237, 608.7448
228.0522, 607.1687
229.9807, 606.1140
231.9091, 606.2054
233.8376, 607.8967
235.7661, 609.5242
237.6945, 611.8850
239.6230, 613.0482
241.5515, 610.7123
243.4799, 607.6818
245.4084, 607.8333
247.3369, 611.4708
249.2654, 612.4449
251.1938, 607.2190
253.1223, 604.1368
255.0508, 606.4372
256.9792, 609.1840
258.9077, 608.3738
260.8362, 605.5176
262.7646, 604.9850
264.6931, 608.4284
266.6216, 610.0589
268.5500, 608.8977
270.4785, 607.5090
272.4070, 606.6096
274.3354, 606.0329
276.2639, 605.8495
278.1924, 605.9577
280.1208, 605.1338
282.0493, 603.1258
283.9778, 600.9764
285.9062, 598.7755
287.8347, 596.4304
289.7632, 594.0197
291.6916, 591.3907
293.6201, 588.9219
295.5486, 585.9485
297.4770, 584.0048
299.4055, 581.1212
301.3340, 579.1500
303.2624, 577.7582
305.1909, 574.7899
307.1194, 572.6328
309.0478, 570.9678
310.9763, 569.1285
312.9048, 567.0241
314.8332, 565.5062
316.7617, 564.6927
318.6902, 564.1663
320.6186, 564.2969
322.5471, 564.0159
324.4756, 562.5276
326.4040, 560.2947
328.3325, 558.2047
330.2609, 556.2882
332.1894, 555.1154
334.1179, 555.3087
336.0463, 554.5482
337.9748, 550.6848
339.9033, 547.1282
341.8317, 546.2991
343.7602, 547.0432
345.6887, 546.9131
347.6171, 546.0279
349.5456, 544.8250
351.4741, 543.3373
353.4025, 541.4991
355.3310, 538.4006
357.2595, 536.0497
359.1879, 536.3934
361.1164, 537.8003
363.0449, 536.9906
364.9733, 534.3638
366.9018, 532.5787
368.8303, 532.0777
370.7587, 531.8300
372.6872, 531.4402
374.6157, 531.3279
376.5441, 532.2059
378.4726, 533.2480
380.4011, 533.2222
382.3295, 532.3019
384.2580, 530.9338
386.1865, 528.9041
388.1149, 527.5393
390.0434, 527.8107
391.9719, 527.7223
393.9003, 525.8837
395.8288, 524.1243
397.7573, 524.6179
399.6857, 526.3256
401.6142, 527.1324
403.5427, 526.9049
405.4711, 526.1727
407.3996, 524.3505
409.3281, 522.9890
411.2565, 522.2897
413.1850, 522.0246
415.1135, 522.0029
417.0419, 522.5551
418.9704, 524.2955
420.8989, 527.0437
422.8273, 528.5663
424.7558, 527.5946
426.6843, 527.9280
428.6127, 531.0794
430.5412, 533.5695
432.4697, 533.4493
434.3981, 533.1287
436.3266, 534.8132
438.2551, 537.5091
440.1835, 538.7394
442.1120, 538.2062
444.0405, 537.9017
445.9689, 538.0965
447.8974, 537.8362
449.8259, 536.5002
451.7543, 535.4443
453.6828, 535.9384
455.6113, 536.4975
457.5397, 535.6685
459.4682, 533.8354
461.3967, 532.3776
463.3251, 531.4613
465.2536, 530.1312
467.1821, 528.1723
469.1105, 526.4022
471.0390, 525.0436
472.9675, 523.7934
474.8959, 522.7203
476.8244, 521.5511
478.7529, 519.8722
480.6813, 517.8972
482.6098, 516.3235
484.5383, 515.1920
486.4667, 513.7152
488.3952, 511.5348
490.3237, 510.4201
492.2521, 511.9633
494.1806, 512.6600
496.1091, 510.4171
498.0375, 507.4512
499.9660, 505.6809
501.8945, 504.6826
503.8229, 503.0598
505.7514, 500.7936
507.6799, 499.4064
509.6083, 499.1757
511.5368, 498.7935
513.4653, 497.7007
515.3937, 496.8849
517.3222, 497.3711
519.2507, 497.3438
521.1791, 495.0627
523.1076, 491.9565
525.0361, 490.1725
526.9645, 489.5070
528.8930, 489.1195
530.8215, 488.9799
532.7499, 489.0954
534.6784, 489.9460
536.6069, 489.9018
538.5353, 487.7323
540.4638, 485.8463
542.3923, 485.6610
544.3207, 485.7677
546.2492, 484.5471
548.1777, 484.2024
550.1061, 483.5105
552.0346, 482.4101
553.9631, 482.0984
555.8915, 480.8113
557.8200, 480.2182
559.7485, 481.5262
561.6769, 482.0359
563.6054, 480.5562
565.5339, 479.1909
567.4623, 479.2476
569.3908, 479.4229
571.3193, 478.5152
573.2477, 477.2534
575.1762, 476.3242
577.1047, 475.7690
579.0331, 476.6691
580.9616, 480.2419
582.8901, 481.6751
584.8185, 479.2008
586.7470, 477.2738
588.6755, 476.5725
590.6039, 476.4301
592.5324, 476.0255
594.4609, 476.5005
596.3893, 479.9187
598.3178, 484.1876
600.2463, 485.9091
602.1747, 485.4870
604.1032, 485.3760
606.0317, 485.4307
607.9601, 486.1098
609.8886, 487.8148
611.8171, 489.4221
613.7455, 490.7592
615.6740, 491.9928
617.6025, 493.4787
619.5309, 494.4933
621.4594, 494.5569
623.3879, 493.9549
625.3163, 492.7983
627.2448, 491.2881
629.1733, 489.7597
631.1017, 488.2445
633.0302, 486.6991
634.9587, 485.0381
636.8871, 483.9444
638.8156, 483.5660
640.7441, 483.1602
642.6725, 482.2870
644.6010, 482.2250
646.5295, 484.6787
648.4579, 486.2521
650.3864, 484.7485
652.3149, 482.3691
654.2433, 480.8809
656.1718, 479.8398
658.1003, 478.4661
660.0287, 476.8697
661.9572, 475.7078
663.8857, 474.8487
665.8141, 472.5358
667.7426, 468.4473
669.6711, 465.7323
671.5995, 465.2901
673.5280, 465.0182
675.4565, 464.8082
677.3849, 464.0519
679.3134, 461.8615
681.2419, 459.7945
683.1703, 459.0330
685.0988, 458.6593
687.0273, 457.7885
688.9557, 456.6800
690.8842, 455.4290
692.8127, 454.2355
694.7411, 454.1161
696.6696, 454.9788
698.5980, 455.0113
700.5265, 453.8970
702.4550, 453.3174
704.3834, 453.5893
706.3119, 454.0818
708.2404, 455.3474
710.1688, 455.8096
712.0973, 454.2776
714.0258, 452.7303
715.9542, 452.5068
717.8827, 452.4644
719.8112, 451.4153
721.7396, 450.1426
723.6681, 449.4745
725.5966, 449.2811
727.5250, 449.6217
729.4535, 450.3776
731.3820, 450.5846
733.3104, 450.1491
735.2389, 449.8986
737.1674, 449.6528
739.0958, 449.8559
741.0243, 451.4937
742.9528, 451.8316
744.8812, 449.2477
746.8097, 447.5845
748.7382, 448.9397
750.6666, 449.8465
752.5951, 447.8836
754.5236, 445.9482
756.4520, 446.5895
758.3805, 445.4397
760.3090, 447.0814
762.2374, 445.9785
764.1659, 446.8892
766.0944, 448.7711
768.0228, 448.2240
769.9513, 445.6500
771.8798, 443.8545
773.8082, 442.6256
775.7367, 443.2441
777.6652, 442.6955
779.5936, 442.5938
781.5221, 444.1688
783.4506, 443.0884
785.3790, 445.0980
787.3075, 446.6115
789.2360, 446.5432
791.1644, 446.0998
793.0929, 445.5732
795.0214, 445.1848
796.9498, 444.9167
798.8783, 444.7813
800.8068, 444.8757
802.7352, 444.9621
804.6637, 444.9702
806.5922, 444.9481
808.5206, 445.0652
810.4491, 445.0928
812.3776, 444.0079
814.3060, 444.5533
816.2345, 444.6612
818.1630, 444.7343
820.0914, 445.6444
822.0199, 445.4588
823.9484, 445.8947
825.8768, 445.3884
827.8053, 446.8676
829.7338, 444.2575
831.6622, 442.6031
833.5907, 442.4550
835.5192, 443.3617
837.4476, 446.6096
839.3761, 448.1597
841.3046, 446.1271
843.2330, 444.3277
845.1615, 443.5781
847.0900, 443.1840
849.0184, 443.2490
850.9469, 443.4373
852.8754, 443.6696
854.8038, 443.5718
856.7323, 442.3877
858.6608, 441.4825
860.5892, 442.7492
862.5177, 441.2702
864.4462, 442.6198
866.3746, 440.2261
868.3031, 439.4682
870.2316, 439.5054
872.1600, 438.7447
874.0885, 437.4290
876.0170, 436.2615
877.9454, 435.2167
879.8739, 433.8812
881.8024, 432.2381
883.7308, 431.5053
885.6593, 430.6090
887.5878, 431.3229
889.5162, 429.7958
891.4447, 428.9152
893.3732, 429.1701
895.3016, 428.0034
897.2301, 424.5779
899.1586, 422.6527
901.0870, 423.1139
903.0155, 423.1530
904.9440, 422.2342
906.8724, 421.4043
908.8009, 420.8768
910.7294, 420.3749
912.6578, 419.7690
914.5863, 419.3130
916.5148, 419.2218
918.4432, 419.0137
920.3717, 418.0530
922.3002, 417.5363
924.2286, 418.5900
926.1571, 419.7726
928.0856, 420.2733
930.0140, 420.3681
931.9425, 420.2198
933.8710, 420.3440
935.7994, 420.7765
937.7279, 421.3247
939.6564, 422.0187
941.5848, 422.9897
943.5133, 424.5322
945.4418, 426.1321
947.3702, 427.0512
949.2987, 427.7026
951.2272, 428.5775
953.1556, 429.5781
955.0841, 430.0995
957.0126, 431.1768
958.9410, 435.3847
960.8695, 440.9977
962.7980, 444.2327
964.7264, 446.1686
966.6549, 449.5429
968.5834, 453.7740
970.5118, 456.8239
972.4403, 459.3349
974.3688, 462.8685
976.2972, 467.4219
978.2257, 473.1571
980.1542, 480.0322
982.0826, 488.5065
984.0111, 498.0989
985.9396, 506.7144
987.8680, 514.2014
989.7965, 521.1766
991.7250, 527.2597
993.6534, 528.6149
995.5819, 525.2562
997.5104, 519.2950
999.4388, 511.0066
1001.367, 502.9459
1003.296, 495.1312
1005.224, 487.1435
1007.153, 478.9478
1009.081, 470.6963
1011.010, 462.3093
1012.938, 456.1983
1014.867, 452.5492
1016.795, 448.9590
1018.724, 445.4150
1020.652, 442.2271
1022.580, 439.3493
1024.509, 436.9261
1026.437, 435.0044
1028.366, 433.9141
1030.294, 433.5498
1032.223, 433.9935
1034.151, 435.7089
1036.080, 435.8138
1038.008, 433.9116
1039.937, 432.8168
1041.865, 432.6945
1043.794, 432.0941
1045.722, 431.0387
1047.651, 429.4249
1049.579, 427.9547
1051.507, 426.0098
1053.436, 423.7246
1055.364, 421.3673
1057.293, 418.2095
1059.221, 414.9373
1061.150, 411.3836
1063.078, 409.5616
1065.007, 409.6348
1066.935, 409.5668
1068.864, 409.2683
1070.792, 408.3851
1072.721, 408.4666
1074.649, 406.6933
1076.578, 408.0336
1078.506, 408.6884
1080.434, 408.3127
1082.363, 406.9640
1084.291, 405.2009
1086.220, 405.7238
1088.148, 404.1189
1090.077, 406.6984
1092.005, 403.4206
1093.934, 403.2341
1095.862, 405.2039
1097.791, 405.8072
1099.719, 405.4510
1101.648, 405.3212
1103.576, 405.3344
1105.505, 405.5855
1107.433, 405.9236
1109.361, 405.6710
1111.290, 405.0023
1113.218, 404.0683
1115.147, 403.3888
1117.075, 404.3006
1119.004, 405.7473
1120.932, 406.0601
1122.861, 405.8940
1124.789, 405.8138
1126.718, 405.9892
1128.646, 407.1814
1130.575, 408.2176
1132.503, 407.2372
1134.432, 406.1381
1136.360, 406.8346
1138.288, 407.9930
1140.217, 409.1220
1142.145, 409.8195
1144.074, 409.2649
1146.002, 408.5751
1147.931, 408.4412
1149.859, 408.2971
1151.788, 408.1144
1153.716, 407.4410
1155.645, 405.5000
1157.573, 404.6689
1159.502, 406.6315
1161.430, 407.3337
1163.359, 404.6853
1165.287, 403.3329
1167.215, 405.1460
1169.144, 406.5311
1171.072, 406.3730
1173.001, 405.8346
1174.929, 405.1635
1176.858, 405.1128
1178.786, 405.9360
1180.715, 406.1412
1182.643, 405.4474
1184.572, 405.0214
1186.500, 404.9540
1188.429, 404.1095
1190.357, 402.5800
1192.286, 403.5414
1194.214, 402.7724
1196.142, 402.1503
1198.071, 402.8783
1199.999, 401.6075
1201.928, 401.6888
1203.856, 403.0237
1205.785, 404.8384
1207.713, 404.4276
1209.642, 403.0706
1211.570, 403.1364
1213.499, 404.0324
1215.427, 405.3486
1217.356, 405.9653
1219.284, 404.4813
1221.213, 403.0886
1223.141, 403.4530
1225.069, 403.8324
1226.998, 402.6083
1228.926, 402.2762
1230.855, 405.2282
1232.783, 406.6532
1234.712, 404.1656
1236.640, 402.7445
1238.569, 403.4401
1240.497, 403.6407
1242.426, 403.1049
1244.354, 402.5707
1246.283, 401.9531
1248.211, 401.8994
1250.140, 402.4332
1252.068, 403.2024
1253.996, 404.0932
1255.925, 403.5225
1257.853, 403.9716
1259.782, 402.4457
1261.710, 403.7594
1263.639, 403.5973
1265.567, 403.4893
1267.496, 406.5392
1269.424, 409.5112
1271.353, 409.5799
1273.281, 408.5673
1275.210, 406.9696
1277.138, 405.8785
1279.067, 406.0381
1280.995, 405.9514
1282.923, 405.0844
1284.852, 404.3336
1286.780, 403.9754
1288.709, 404.0184
1290.637, 404.2220
1292.566, 404.5143
1294.494, 405.3143
1296.423, 406.3764
1298.351, 407.2722
1300.280, 407.4453
1302.208, 408.1295
1304.137, 408.3979
1306.065, 408.5450
1307.994, 408.6847
1309.922, 408.3325
1311.850, 408.0607
1313.779, 408.0179
1315.707, 408.6785
1317.636, 409.1582
1319.564, 408.1997
1321.493, 407.9596
1323.421, 409.7013
1325.350, 410.7090
1327.278, 409.9735
1329.207, 409.9581
1331.135, 411.0976
1333.064, 412.5047
1334.992, 414.1822
1336.921, 413.5781
1338.849, 411.0074
1340.777, 409.1159
1342.706, 407.8812
1344.634, 407.4980
1346.563, 407.5959
1348.491, 407.4976
1350.420, 407.4123
1352.348, 407.4996
1354.277, 407.5064
1356.205, 407.2212
1358.134, 407.1555
1360.062, 408.0224
1361.991, 408.2390
1363.919, 406.6831
1365.848, 406.4190
1367.776, 408.1324
1369.704, 408.1420
1371.633, 406.3770
1373.561, 404.7190
1375.490, 403.5661
1377.418, 403.5853
1379.347, 403.9674
1381.275, 403.7032
1383.204, 403.5284
1385.132, 404.7773
1387.061, 405.3421
1388.989, 403.1312
1390.918, 401.9211
1392.846, 403.3605
1394.775, 404.7056
1396.703, 405.3414
1398.631, 405.2017
1400.560, 405.8848
1402.488, 404.5934
1404.417, 405.7470
1406.345, 405.4976
1408.274, 404.3886
1410.202, 403.0430
1412.131, 402.1285
1414.059, 403.3250
1415.988, 404.5143
1417.916, 403.9580
1419.845, 403.8999
1421.773, 405.2252
1423.702, 405.7836
1425.630, 405.4865
1427.558, 404.8342
1429.487, 403.5600
1431.415, 403.2576
1433.344, 403.8595
1435.272, 404.2277
1437.201, 404.3571
1439.129, 404.6110
1441.058, 404.6559
1442.986, 404.6714
1444.915, 404.9839
1446.843, 404.8498
1448.771, 405.7009
1450.700, 404.7749
1452.628, 406.2450
1454.557, 406.6547
1456.485, 406.0828
1458.414, 404.1753
1460.342, 403.6505
1462.271, 404.1533
1464.199, 404.4095
1466.128, 404.6270
1468.056, 404.4150
1469.985, 404.2534
1471.913, 403.7542
1473.842, 402.9866
1475.770, 402.6195
1477.698, 401.2933
1479.627, 401.0666
1481.555, 400.7333
1483.484, 400.0881
1485.412, 400.6821
1487.341, 400.3991
1489.269, 401.4432
1491.198, 400.7036
1493.126, 400.2722
1495.055, 400.5265
1496.983, 400.0331
1498.912, 400.6839
1500.840, 399.8407
1502.769, 399.5816
1504.697, 399.6831
1506.625, 399.2558
1508.554, 398.5317
1510.482, 397.8564
1512.411, 397.5595
1514.339, 398.1872
1516.268, 398.6905
1518.196, 398.3786
1520.125, 398.7332
1522.053, 398.6100
1523.982, 400.5055
1525.910, 398.4615
1527.839, 396.8946
1529.767, 396.9127
1531.696, 398.1692
1533.624, 399.0367
1535.552, 398.7051
1537.481, 398.3037
1539.409, 398.2715
1541.338, 398.8947
1543.266, 400.3558
1545.195, 399.9785
1547.123, 400.2369
1549.052, 400.3228
1550.980, 399.4293
1552.909, 399.9653
1554.837, 399.1639
1556.766, 399.1690
1558.694, 399.6092
1560.623, 398.8851
1562.551, 398.0436
1564.479, 398.0526
1566.408, 399.0669
1568.336, 398.2811
1570.265, 400.0545
1572.193, 398.2356
1574.122, 398.2925
1576.050, 399.1848
1577.979, 399.5746
1579.907, 399.3827
1581.836, 398.0319
1583.764, 396.8626
1585.693, 396.3795
1587.621, 396.5181
1589.550, 396.6291
1591.478, 394.9999
1593.406, 393.3878
1595.335, 393.2451
1597.263, 393.6226
1599.192, 394.2704
1601.120, 394.0733
1603.049, 392.8308
1604.977, 391.4278
1606.906, 389.9005
1608.834, 389.9516
1610.763, 388.9396
1612.691, 390.0644
1614.620, 388.2396
1616.548, 388.3651
1618.477, 388.2906
1620.405, 386.7490
1622.333, 385.7343
1624.262, 385.5139
1626.190, 384.2340
1628.119, 382.7827
1630.047, 382.4149
1631.976, 381.4706
1633.904, 380.2502
1635.833, 379.9677
1637.761, 379.6362
1639.690, 379.6429
1641.618, 379.8369
1643.547, 378.6648
1645.475, 378.8892
1647.404, 377.5966
1649.332, 378.1822
1651.260, 377.7509
1653.189, 376.7845
1655.117, 376.4001
1657.046, 376.3600
1658.974, 376.0737
1660.903, 375.6654
1662.831, 375.1772
1664.760, 376.0635
1666.688, 376.7890
1668.617, 375.1086
1670.545, 373.4229
1672.474, 373.5744
1674.402, 374.0921
1676.331, 373.5002
1678.259, 373.7843
1680.188, 374.9071
1682.116, 375.0201
1684.044, 373.8376
1685.973, 374.4416
1687.901, 374.0308
1689.830, 374.0179
1691.758, 373.5906
1693.687, 373.0892
1695.615, 372.2504
1697.544, 372.3781
1699.472, 371.6749
1701.401, 372.4389
1703.329, 371.9414
1705.258, 371.8071
1707.186, 371.7433
1709.115, 370.6553
1711.043, 371.1174
1712.971, 369.6361
1714.900, 371.1804
1716.828, 371.0920
1718.757, 370.4945
1720.685, 370.1946
1722.614, 369.9293
1724.542, 369.0932
1726.471, 368.1907
1728.399, 368.3738
1730.328, 368.7783
1732.256, 369.1242
1734.185, 369.6170
1736.113, 368.7142
1738.042, 367.2197
1739.970, 368.7267
1741.898, 370.0389
1743.827, 368.0478
1745.755, 366.1780
1747.684, 365.0316
1749.612, 364.8291
1751.541, 365.9712
1753.469, 366.8787
1755.398, 366.7592
1757.326, 364.9455
1759.255, 363.5164
1761.183, 364.9073
1763.112, 365.4390
1765.040, 365.7968
1766.969, 365.6981
1768.897, 365.5709
1770.825, 365.2940
1772.754, 364.5051
1774.682, 364.1524
1776.611, 363.1217
1778.539, 362.0370
1780.468, 362.3629
1782.396, 363.6726
1784.325, 365.2981
1786.253, 365.6989
1788.182, 365.0800
1790.110, 364.8205
1792.039, 364.2706
1793.967, 362.1628
1795.896, 360.6176
1797.824, 363.1474
1799.752, 364.9205
1801.681, 363.2851
1803.609, 363.0247
1805.538, 363.6625
1807.466, 362.8664
1809.395, 362.6797
1811.323, 361.9877
1813.252, 360.6927
1815.180, 359.0831
1817.109, 358.9057
1819.037, 361.1920
1820.966, 361.8327
1822.894, 361.3336
1824.823, 359.4202
1826.751, 358.3192
1828.679, 360.0464
1830.608, 360.6623
1832.536, 359.5919
1834.465, 359.4047
1836.393, 358.7606
1838.322, 357.5990
1840.250, 357.8085
1842.179, 358.1045
1844.107, 357.3293
1846.036, 356.5158
1847.964, 357.3326
1849.893, 357.7208
1851.821, 355.4081
1853.750, 354.2213
1855.678, 354.2701
1857.606, 354.9884
1859.535, 356.3893
1861.463, 356.7162
1863.392, 355.8247
1865.320, 354.1069
1867.249, 354.8472
1869.177, 355.7079
1871.106, 354.8480
1873.034, 355.3213
1874.963, 355.1653
1876.891, 353.0739
1878.820, 351.9932
1880.748, 352.9304
1882.677, 353.6433
1884.605, 353.5914
1886.533, 353.4076
1888.462, 353.5618
1890.390, 351.2958
1892.319, 352.8452
1894.247, 352.7287
1896.176, 351.3650
1898.104, 352.3678
1900.033, 352.6558
1901.961, 352.0370
1903.890, 352.9552
1905.818, 352.5300
1907.747, 350.1949
1909.675, 348.6597
1911.604, 348.5601
1913.532, 349.6410
1915.460, 351.2927
1917.389, 351.1990
1919.317, 349.8097
1921.246, 349.6628
1923.174, 349.7008
1925.103, 348.4831
1927.031, 348.8209
1928.960, 350.2180
1930.888, 350.3038
1932.817, 349.2343
1934.745, 348.0260
1936.674, 347.7829
1938.602, 347.7804
1940.531, 348.5298
1942.459, 348.4901
1944.387, 347.3964
1946.316, 346.7216
1948.244, 346.5914
1950.173, 347.9128
1952.101, 348.6841
1954.030, 346.8596
1955.958, 345.3180
1957.887, 346.3482
1959.815, 346.8414
1961.744, 346.5884
1963.672, 346.9283
1965.601, 345.7646
1967.529, 345.5941
1969.458, 345.7070
1971.386, 344.8975
1973.314, 344.4777
1975.243, 343.6012
1977.171, 343.2289
1979.100, 342.8043
1981.028, 342.9860
1982.957, 342.3496
1984.885, 343.6096
1986.814, 344.7514
1988.742, 344.7456
1990.671, 341.5880
1992.599, 339.4069
1994.528, 339.4888
1996.456, 339.5152
1998.385, 339.2927
2000.313, 339.5332
2002.241, 340.0642
2004.170, 339.9204
2006.098, 339.3608
2008.027, 339.0703
2009.955, 339.8601
2011.884, 340.1084
2013.812, 339.5033
2015.741, 339.4464
2017.669, 338.5797
2019.598, 337.6324
2021.526, 338.4738
2023.455, 338.5804
2025.383, 338.0458
2027.312, 338.9734
2029.240, 339.3136
2031.168, 338.0968
2033.097, 335.4953
2035.025, 333.3940
2036.954, 333.7376
2038.882, 334.6612
2040.811, 335.3546
2042.739, 336.1520
2044.668, 336.5249
2046.596, 334.8766
2048.525, 333.1390
2050.453, 334.2497
2052.382, 335.4265
2054.310, 334.3725
2056.239, 333.5842
2058.167, 332.5799
2060.095, 331.9657
2062.024, 331.9330
2063.952, 331.7049
2065.881, 332.4488
2067.809, 332.3179
2069.738, 330.3023
2071.666, 329.5277
2073.595, 330.4306
2075.523, 330.7439
2077.452, 329.7282
2079.380, 328.2421
2081.309, 327.9086
2083.237, 328.4648
2085.166, 329.3600
2087.094, 330.0718
2089.022, 329.8749
2090.951, 328.7547
2092.879, 328.5190
2094.808, 327.6853
2096.736, 326.8271
2098.665, 327.0466
2100.593, 327.0218
2102.522, 325.8784
2104.450, 324.8047
2106.379, 325.5572
2108.307, 325.8918
2110.236, 325.6906
2112.164, 326.0820
2114.093, 324.9159
2116.021, 323.3617
2117.949, 323.5720
2119.878, 324.8291
2121.806, 325.1567
2123.735, 323.8178
2125.663, 322.7023
2127.592, 322.2011
2129.520, 322.2862
2131.449, 321.7252
2133.377, 321.5215
2135.306, 321.7370
2137.234, 320.4528
2139.163, 321.0030
2141.091, 321.3155
2143.020, 319.6141
2144.948, 319.8849
2146.876, 320.9671
2148.805, 321.2497
2150.733, 320.5035
2152.662, 317.9079
2154.590, 316.4754
2156.519, 316.4473
2158.447, 317.4159
2160.376, 318.3708
2162.304, 318.5723
2164.233, 317.1942
2166.161, 318.1858
2168.090, 316.1115
2170.018, 318.0119
2171.947, 316.0282
2173.875, 314.2840
2175.803, 312.6898
2177.732, 313.0720
2179.660, 314.7949
2181.589, 315.3232
2183.517, 313.8708
2185.446, 311.5540
2187.374, 310.9844
2189.303, 311.3067
2191.231, 311.8148
2193.160, 311.6287
2195.088, 311.1758
2197.017, 310.4881
2198.945, 310.3925
2200.874, 311.1343
2202.802, 311.1139
2204.730, 310.0443
2206.659, 308.8259
2208.587, 307.5799
2210.516, 306.7072
2212.444, 306.3025
2214.373, 307.3849
2216.301, 306.2539
2218.230, 306.1812
2220.158, 306.7857
2222.087, 305.9153
2224.015, 305.4001
2225.944, 305.0314
2227.872, 304.3880
2229.801, 305.5814
2231.729, 303.6372
2233.657, 303.0239
2235.586, 303.1151
2237.514, 305.1815
2239.443, 305.6949
2241.371, 303.6735
2243.300, 303.1714
2245.228, 302.9567
2247.157, 300.9839
2249.085, 301.3356
2251.014, 303.0681
2252.942, 302.4500
2254.871, 302.0944
2256.799, 302.2092
2258.728, 300.9938
2260.656, 299.8506
2262.584, 300.1445
2264.513, 300.1506
2266.441, 299.8633
2268.370, 299.8303
2270.298, 299.4707
2272.227, 298.7314
2274.155, 298.5712
2276.084, 296.7135
2278.012, 295.8061
2279.941, 297.8756
2281.869, 296.4127
2283.798, 298.0363
2285.726, 295.8167
2287.655, 296.1885
2289.583, 295.1466
2291.511, 293.9068
2293.440, 293.8376
2295.368, 295.1936
2297.297, 295.7054
2299.225, 294.5285
2301.154, 293.1420
2303.082, 291.7711
2305.011, 292.3970
2306.939, 293.6800
2308.868, 294.5255
2310.796, 291.1746
2312.725, 288.3710
2314.653, 290.9541
2316.582, 292.2885
2318.510, 292.5796
2320.438, 291.5194
2322.367, 290.1356
2324.295, 288.3497
2326.224, 288.3066
2328.152, 289.4157
2330.081, 289.2810
2332.009, 288.6385
2333.938, 288.5349
2335.866, 288.1963
2337.795, 287.0728
2339.723, 285.4845
2341.652, 286.0058
2343.580, 286.4769
2345.509, 283.8788
2347.437, 283.3974
2349.365, 284.4351
2351.294, 283.4315
2353.222, 282.7809
2355.151, 282.8904
2357.079, 282.8764
2359.008, 282.6195
2360.936, 281.7479
2362.865, 280.8197
2364.793, 281.0625
2366.722, 282.2575
2368.650, 280.8091
2370.579, 278.6630
2372.507, 280.2774
2374.436, 280.3190
2376.364, 277.7682
2378.292, 277.7173
2380.221, 277.6925
2382.149, 275.5261
2384.078, 274.3497
2386.006, 274.6529
2387.935, 275.4084
2389.863, 275.5552
2391.792, 275.3657
2393.720, 274.3765
2395.649, 273.1661
2397.577, 272.7022
2399.506, 273.4832
2401.434, 274.4784
2403.363, 274.6850
2405.291, 273.4235
2407.219, 272.0512
2409.148, 270.9731
2411.076, 271.4166
2413.005, 272.1536
2414.933, 272.0919
2416.862, 273.3029
2418.790, 273.9783
2420.719, 273.1091
2422.647, 271.1770
2424.576, 268.7054
2426.504, 267.9359
2428.433, 267.4453
2430.361, 267.5606
2432.290, 267.1526
2434.218, 267.2740
2436.146, 268.8392
2438.075, 266.2409
2440.003, 264.2918
2441.932, 268.0624
2443.860, 268.7338
2445.789, 267.0953
2447.717, 265.1985
2449.646, 263.9945
2451.574, 263.9913
2453.503, 262.7469
2455.431, 263.2545
2457.360, 265.0145
2459.288, 263.5532
2461.217, 262.2290
2463.145, 262.7271
2465.073, 261.2259
2467.002, 259.6367
2468.930, 258.9798
2470.859, 257.9743
2472.787, 257.5028
2474.716, 257.6980
2476.644, 256.7955
2478.573, 256.2032
2480.501, 257.7543
2482.430, 258.1611
2484.358, 257.5686
2486.287, 256.8925
2488.215, 255.1936
2490.144, 253.0255
2492.072, 252.5080
2494.000, 252.3013
2495.929, 252.3720
2497.857, 252.1555
2499.786, 251.9951
2501.714, 252.7036
2503.643, 253.3927
2505.571, 252.8495
2507.500, 250.1941
2509.428, 250.7251
2511.357, 251.3806
2513.285, 248.0203
2515.214, 248.0956
2517.142, 248.9350
2519.071, 247.0032
2520.999, 246.2933
2522.927, 246.5041
2524.856, 246.4317
2526.784, 246.5916
2528.713, 247.2352
2530.641, 246.6922
2532.570, 246.3247
2534.498, 246.0045
2536.427, 244.5594
2538.355, 244.2604
2540.284, 242.9490
2542.212, 243.0502
2544.141, 241.8609
2546.069, 241.8827
2547.998, 242.1233
2549.926, 242.3578
2551.854, 242.0341
2553.783, 241.7677
2555.711, 241.2540
2557.640, 239.9291
2559.568, 240.6652
2561.497, 241.5410
2563.425, 240.9690
2565.354, 238.4633
2567.282, 236.8604
2569.211, 237.1912
2571.139, 236.6448
2573.068, 236.4851
2574.996, 237.2573
2576.925, 235.0508
2578.853, 233.1821
2580.781, 233.9467
2582.710, 234.1895
2584.638, 234.3923
2586.567, 234.9844
2588.495, 233.1404
2590.424, 231.5528
2592.352, 232.0695
2594.281, 232.4881
2596.209, 232.7500
2598.138, 232.4242
2600.066, 232.2204
2601.995, 227.7581
2603.923, 230.3371
2605.852, 228.0240
2607.780, 225.1786
2609.708, 225.1995
2611.637, 226.6204
2613.565, 227.3965
2615.494, 226.3239
2617.422, 226.3593
2619.351, 226.2062
2621.279, 224.8182
2623.208, 223.7787
2625.136, 222.8802
2627.065, 222.0680
2628.993, 220.1340
2630.922, 218.4225
2632.850, 218.1769
2634.779, 218.7315
2636.707, 219.0099
2638.635, 218.3217
2640.564, 219.7515
2642.492, 219.6066
2644.421, 219.1171
2646.349, 219.1308
2648.278, 217.4659
2650.206, 217.5683
2652.135, 215.8755
2654.063, 214.3066
2655.992, 213.6447
2657.920, 214.6308
2659.849, 214.3900
2661.777, 212.2689
2663.706, 212.8144
2665.634, 211.8542
2667.563, 209.0601
2669.491, 211.9188
2671.419, 212.7406
2673.348, 210.1319
2675.276, 206.7918
2677.205, 206.8939
2679.133, 205.5491
2681.062, 205.9514
2682.990, 205.2909
2684.919, 206.9967
2686.847, 206.7307
2688.776, 204.9986
2690.704, 202.9928
2692.633, 204.0048
2694.561, 204.8924
2696.490, 204.5811
2698.418, 204.3942
2700.346, 202.0781
2702.275, 203.1725
2704.203, 201.6254
2706.132, 201.7963
2708.060, 201.3171
2709.989, 198.3774
2711.917, 198.1117
2713.846, 199.1789
2715.774, 199.9005
2717.703, 197.5680
2719.631, 195.9095
2721.560, 196.2317
2723.488, 195.1912
2725.417, 195.0930
2727.345, 195.9308
2729.273, 194.4556
2731.202, 192.9035
2733.130, 192.2439
2735.059, 193.9064
2736.987, 194.3639
2738.916, 193.8900
2740.844, 193.4904
2742.773, 190.9120
2744.701, 188.7567
2746.630, 189.4481
2748.558, 188.7265
2750.487, 188.3994
2752.415, 189.3840
2754.344, 186.8404
2756.272, 185.3527
2758.200, 186.2738
2760.129, 186.4170
2762.057, 186.7393
2763.986, 186.7786
2765.914, 181.6430
2767.843, 181.0551
2769.771, 182.4578
2771.700, 179.8878
2773.628, 180.3833
2775.557, 181.4223
2777.485, 180.8393
2779.414, 180.0466
2781.342, 179.6436
2783.271, 180.0993
2785.199, 179.0627
2787.127, 178.3498
2789.056, 178.8118
2790.984, 177.0491
2792.913, 174.9753
2794.841, 173.8245
2796.770, 172.6991
2798.698, 172.6422
2800.627, 172.6314
2802.555, 171.8251
2804.484, 170.4151
2806.412, 169.7178
2808.341, 170.7551
2810.269, 171.7881
2812.198, 171.6504
2814.126, 170.6688
2816.054, 169.8721
2817.983, 169.4282
2819.911, 168.5386
2821.840, 168.1769
2823.768, 167.4733
2825.697, 166.3181
2827.625, 165.9134
2829.554, 164.1439
2831.482, 162.6401
2833.411, 162.0375
2835.339, 162.8896
2837.268, 163.3336
2839.196, 161.6869
2841.125, 159.4328
2843.053, 158.4698
2844.981, 158.6894
2846.910, 160.9373
2848.838, 160.1825
2850.767, 158.8363
2852.695, 157.7906
2854.624, 157.3503
2856.552, 158.2860
2858.481, 159.0019
2860.409, 158.0958
2862.338, 158.0659
2864.266, 155.7726
2866.195, 155.8671
2868.123, 153.0662
2870.052, 150.5054
2871.980, 150.1364
2873.908, 152.2259
2875.837, 153.1687
2877.765, 152.3761
2879.694, 150.6301
2881.622, 148.9928
2883.551, 147.4812
2885.479, 147.0995
2887.408, 146.4001
2889.336, 145.7235
2891.265, 146.1642
2893.193, 144.8855
2895.122, 144.6440
2897.050, 143.9062
2898.979, 143.2441
2900.907, 142.4478
2902.835, 141.2665
2904.764, 141.0639
2906.692, 140.9246
2908.621, 142.6088
2910.549, 141.1922
2912.478, 140.9030
2914.406, 140.5964
2916.335, 139.6817
2918.263, 137.8055
2920.191, 138.8773
2922.120, 138.7773
2924.048, 136.6409
2925.977, 137.7711
2927.905, 135.5821
2929.834, 132.8131
2931.762, 135.0730
2933.691, 134.2019
2935.619, 132.1531
2937.548, 130.9793
2939.476, 130.6423
2941.405, 133.0412
2943.333, 129.7622
2945.261, 131.7270
2947.190, 130.3939
2949.118, 129.3459
2951.047, 130.4341
2952.975, 130.7867
2954.904, 128.8303
2956.832, 126.6042
2958.761, 126.3084
2960.689, 125.8669
2962.618, 125.9809
2964.546, 126.1470
2966.475, 126.1166
2968.403, 126.6957
2970.332, 126.0059
2972.260, 125.4894
2974.188, 124.4323
2976.117, 124.0826
2978.045, 122.5740
2979.974, 121.8245
2981.902, 120.4487
2983.831, 119.5834
2985.759, 119.6128
2987.688, 118.8954
2989.616, 118.9669
2991.545, 118.4561
2993.473, 118.6680
2995.402, 118.3872
2997.330, 117.1427
2999.259, 117.1365
3001.187, 116.6439
3003.115, 116.4617
3005.044, 117.0051
3006.972, 116.1454
3008.901, 115.3372
3010.829, 115.3986
3012.758, 116.5831
3014.686, 116.4027
3016.615, 114.4567
3018.543, 112.8606
3020.472, 113.2695
3022.400, 109.8201
3024.329, 110.8371
3026.257, 114.1823
3028.186, 112.7519
3030.114, 108.7969
3032.042, 106.6827
3033.971, 110.4383
3035.899, 110.2534
3037.828, 108.6796
3039.756, 107.5359
3041.685, 107.0048
3043.613, 105.8574
3045.542, 106.0262
3047.470, 105.5418
3049.399, 105.9856
3051.327, 104.4428
3053.256, 103.3972
3055.184, 105.7566
3057.113, 104.9650
3059.041, 103.7277
3060.969, 101.6778
3062.898, 101.1850
3064.826, 100.5139
3066.755, 99.88903
3068.683, 100.1438
3070.612, 100.4450
3072.540, 100.3274
3074.469, 100.4124
3076.397, 99.26659
3078.326, 99.22881
3080.254, 98.15683
3082.183, 98.53014
3084.111, 100.5429
3086.040, 99.98267
3087.968, 101.0647
3089.896, 101.8163
3091.825, 97.59100
3093.753, 97.24655
3095.682, 97.42610
3097.610, 96.97784
3099.539, 96.26838
3101.467, 96.94829
3103.396, 97.55322
3105.324, 96.91237
3107.253, 96.76998
3109.181, 96.53049
3111.110, 95.85155
3113.038, 95.01968
3114.967, 94.21205
3116.895, 91.98515
3118.823, 90.15931
3120.752, 91.92664
3122.680, 88.25785
3124.609, 87.30585
3126.537, 88.59866
3128.466, 90.16637
3130.394, 90.00084
3132.323, 88.45161
3134.251, 88.35564
3136.180, 88.65601
3138.108, 85.15574
3140.037, 83.55571
3141.965, 84.57527
3143.894, 85.60140
3145.822, 84.70499
3147.750, 83.88068
3149.679, 83.49383
3151.607, 83.40154
3153.536, 83.48826
3155.464, 83.69523
3157.393, 84.23109
3159.321, 84.09838
3161.250, 84.29581
3163.178, 83.58987
3165.107, 83.55043
3167.035, 83.12636
3168.964, 82.30656
3170.892, 82.79865
3172.821, 80.83678
3174.749, 81.73951
3176.677, 81.11753
3178.606, 79.81618
3180.534, 80.34477
3182.463, 78.86054
3184.391, 80.89550
3186.320, 77.69321
3188.248, 76.79021
3190.177, 78.24509
3192.105, 77.25259
3194.034, 77.66911
3195.962, 77.36880
3197.891, 77.22251
3199.819, 76.63943
3201.748, 76.50409
3203.676, 75.87480
3205.604, 75.70536
3207.533, 74.81503
3209.461, 73.69655
3211.390, 73.48876
3213.318, 70.37746
3215.247, 71.04305
3217.175, 71.19059
3219.104, 69.39987
3221.032, 72.07497
3222.961, 70.00931
3224.889, 68.52042
3226.818, 69.03148
3228.746, 68.00136
3230.675, 67.96864
3232.603, 67.92106
3234.531, 67.92068
3236.460, 68.84330
3238.388, 69.83235
3240.317, 67.55094
3242.245, 63.70949
3244.174, 68.16255
3246.102, 66.51265
3248.031, 66.77839
3249.959, 68.51919
3251.888, 65.13753
3253.816, 65.17431
3255.745, 65.16507
3257.673, 64.43331
3259.602, 63.45037
3261.530, 63.32274
3263.458, 62.97176
3265.387, 63.34572
3267.315, 63.50579
3269.244, 62.53036
3271.172, 62.18842
3273.101, 61.57257
3275.029, 60.13689
3276.958, 60.42339
3278.886, 58.94587
3280.815, 58.90550
3282.743, 59.59967
3284.672, 58.48190
3286.600, 58.38235
3288.529, 59.40138
3290.457, 61.21692
3292.385, 62.60769
3294.314, 61.55239
3296.242, 62.65704
3298.171, 61.99768
3300.099, 58.19500
3302.028, 60.87705
3303.956, 57.45901
3305.885, 55.36180
3307.813, 57.18450
3309.742, 57.17605
3311.670, 55.36361
3313.599, 54.86263
3315.527, 56.04718
3317.456, 59.33471
3319.384, 58.06973
3321.313, 55.98664
3323.241, 54.54350
3325.169, 53.68523
3327.098, 56.71368
3329.026, 54.98572
3330.955, 55.08098
3332.883, 56.12781
3334.812, 52.51772
3336.740, 52.89110
3338.669, 51.97256
3340.597, 51.37128
3342.526, 53.23323
3344.454, 50.26524
3346.383, 49.14296
3348.311, 49.27381
3350.240, 50.29112
3352.168, 52.42233
3354.096, 52.32945
3356.025, 51.46036
3357.953, 50.42604
3359.882, 49.79493
3361.810, 50.84414
3363.739, 52.38605
3365.667, 53.41438
3367.596, 53.26692
3369.524, 50.37740
3371.453, 51.23907
3373.381, 52.02601
3375.310, 52.45979
3377.238, 52.52280
3379.167, 49.94879
3381.095, 49.93840
3383.023, 48.88051
3384.952, 46.60542
3386.880, 47.02934
3388.809, 45.65477
3390.737, 47.83712
3392.666, 49.68369
3394.594, 47.75984
3396.523, 45.65960
3398.451, 45.89124
3400.380, 46.21436
3402.308, 46.25080
3404.237, 47.14153
3406.165, 48.16706
3408.094, 47.51026
3410.022, 47.02626
3411.950, 46.54416
3413.879, 46.60915
3415.807, 45.64965
3417.736, 47.34240
3419.664, 46.78856
3421.593, 47.83661
3423.521, 47.73712
3425.450, 47.13204
3427.378, 47.52177
3429.307, 47.14007
3431.235, 47.28803
3433.164, 46.93473
3435.092, 47.22156
3437.021, 47.37503
3438.949, 46.49833
3440.877, 46.31298
3442.806, 44.51726
3444.734, 44.93156
3446.663, 43.14551
3448.591, 42.20148
3450.520, 45.79533
3452.448, 46.47604
3454.377, 46.40916
3456.305, 45.63356
3458.234, 45.06319
3460.162, 43.84543
3462.091, 43.01599
3464.019, 41.23347
3465.948, 41.27835
3467.876, 40.64547
3469.804, 41.45086
3471.733, 41.35850
3473.661, 39.83745
3475.590, 41.52029
3477.518, 41.58549
3479.447, 40.78513
3481.375, 39.55946
3483.304, 38.50936
3485.232, 37.93556
3487.161, 38.43591
3489.089, 38.73613
3491.018, 38.94405
3492.946, 40.46522
3494.875, 38.83963
3496.803, 39.04615
3498.731, 36.80120
3500.660, 35.03782
3502.588, 38.46926
3504.517, 41.24858
3506.445, 38.71680
3508.374, 36.04315
3510.302, 34.57143
3512.231, 37.10876
3514.159, 39.68354
3516.088, 39.50914
3518.016, 39.24181
3519.945, 42.50861
3521.873, 41.49092
3523.802, 37.94490
3525.730, 36.08478
3527.658, 38.72017
3529.587, 37.54182
3531.515, 35.01218
3533.444, 36.12994
3535.372, 34.95483
3537.301, 35.49854
3539.229, 35.36647
3541.158, 36.75243
3543.086, 38.41242
3545.015, 38.20313
3546.943, 37.52562
3548.872, 38.28106
3550.800, 34.93255
3552.729, 34.60187
3554.657, 36.55875
3556.585, 37.49184
3558.514, 38.20981
3560.442, 37.01863
3562.371, 35.30585
3564.299, 37.27082
3566.228, 36.46746
3568.156, 36.47721
3570.085, 37.01687
3572.013, 37.02065
3573.942, 36.29374
3575.870, 36.11245
3577.799, 36.81746
3579.727, 33.54787
3581.656, 37.00294
3583.584, 35.35931
3585.512, 33.34084
3587.441, 35.73968
3589.369, 33.73375
3591.298, 34.86468
3593.226, 37.13366
3595.155, 37.90436
3597.083, 35.99273
3599.012, 31.96548
3600.940, 31.22661
3602.869, 32.83828
3604.797, 30.67783
3606.726, 30.64338
3608.654, 35.04364
3610.583, 33.11743
3612.511, 31.55180
3614.439, 29.57545
3616.368, 30.71805
3618.296, 31.85881
3620.225, 28.28337
3622.153, 27.41780
3624.082, 29.70846
3626.010, 29.29119
3627.939, 29.82252
3629.867, 32.31419
3631.796, 32.70479
3633.724, 30.82492
3635.653, 31.14677
3637.581, 30.24832
3639.510, 29.97008
3641.438, 31.45952
3643.366, 30.95499
3645.295, 29.48699
3647.223, 32.40154
3649.152, 32.44094
3651.080, 31.34887
3653.009, 32.83496
3654.937, 32.01110
3656.866, 30.45937
3658.794, 34.90075
3660.723, 35.21203
3662.651, 31.46574
3664.580, 30.27754
3666.508, 32.37911
3668.437, 31.92155
3670.365, 30.26022
3672.293, 31.19113
3674.222, 32.01214
3676.150, 29.35536
3678.079, 30.45172
3680.007, 30.79051
3681.936, 31.53029
3683.864, 27.36316
3685.793, 23.67745
3687.721, 27.23134
3689.650, 30.42283
3691.578, 26.51374
3693.507, 24.04898
3695.435, 27.77945
3697.364, 31.79700
3699.292, 30.86497
3701.220, 31.43479
3703.149, 27.45945
3705.077, 28.79435
3707.006, 29.48983
3708.934, 28.89483
3710.863, 29.18933
3712.791, 29.92052
3714.720, 29.74257
3716.648, 29.54873
3718.577, 29.93528
3720.505, 29.62217
3722.434, 28.86261
3724.362, 29.72285
3726.291, 31.44696
3728.219, 30.03253
3730.147, 32.06562
3732.076, 30.88815
3734.004, 28.06398
3735.933, 29.32201
3737.861, 28.57944
3739.790, 27.72072
3741.718, 28.64378
3743.647, 28.68659
3745.575, 28.73418
3747.504, 29.13132
3749.432, 27.56676
3751.361, 27.19087
3753.289, 25.91037
3755.218, 27.32236
3757.146, 26.22753
3759.074, 25.33433
3761.003, 28.60580
3762.931, 24.87705
3764.860, 26.75858
3766.788, 30.28926
3768.717, 30.51795
3770.645, 29.24181
3772.574, 28.37005
3774.502, 26.98069
3776.431, 26.88255
3778.359, 27.23926
3780.288, 27.01512
3782.216, 28.78891
3784.145, 29.53755
3786.073, 29.83775
3788.001, 28.57590
3789.930, 28.04339
3791.858, 28.60391
3793.787, 30.16187
3795.715, 28.09370
3797.644, 27.05917
3799.572, 29.10992
3801.501, 26.79500
3803.429, 26.96634
3805.358, 27.66241
3807.286, 25.73024
3809.215, 25.73642
3811.143, 25.32639
3813.072, 23.80924
3815.000, 23.07965
3816.928, 26.08820
3818.857, 25.01735
3820.785, 26.76301
3822.714, 24.35380
3824.642, 23.20454
3826.571, 25.13903
3828.499, 22.70471
3830.428, 21.51953
3832.356, 19.96537
3834.285, 21.19275
3836.213, 22.97256
3838.142, 24.10290
3840.070, 24.90440
3841.999, 25.67695
3843.927, 25.47720
3845.855, 23.34042
3847.784, 22.17499
3849.712, 24.03055
3851.641, 24.86417
3853.569, 24.68489
3855.498, 25.55373
3857.426, 26.70189
3859.355, 28.46987
3861.283, 23.45796
3863.212, 21.80838
3865.140, 24.48961
3867.069, 27.16196
3868.997, 25.92767
3870.926, 23.11267
3872.854, 28.36432
3874.782, 25.22739
3876.711, 23.84143
3878.639, 26.72508
3880.568, 26.20060
3882.496, 24.91240
3884.425, 25.30387
3886.353, 24.81757
3888.282, 24.94214
3890.210, 24.37536
3892.139, 25.34784
3894.067, 23.76932
3895.996, 21.11894
3897.924, 20.51945
3899.853, 22.59514
3901.781, 24.86254
3903.709, 22.89289
3905.638, 21.22186
3907.566, 21.85088
3909.495, 24.03045
3911.423, 22.23024
3913.352, 21.67649
3915.280, 23.00707
3917.209, 22.19505
3919.137, 25.18661
3921.066, 24.08549
3922.994, 24.22613
3924.923, 25.30235
3926.851, 24.08847
3928.780, 23.90158
3930.708, 24.08896
3932.636, 23.75180
3934.565, 26.34386
3936.493, 26.81457
3938.422, 25.37823
3940.350, 25.25264
3942.279, 24.02639
3944.207, 24.65510
3946.136, 24.80560
3948.064, 23.62880
3949.993, 22.38218
3951.921, 18.61551
3953.850, 22.23127
3955.778, 18.76272
3957.707, 21.41777
3959.635, 19.57110
3961.563, 20.53278
3963.492, 24.56434
3965.420, 25.34086
3967.349, 22.87534
3969.277, 22.94188
3971.206, 23.53152
3973.134, 22.57926
3975.063, 21.61886
3976.991, 23.41587
3978.920, 22.64412
3980.848, 22.99370
3982.777, 22.98397
3984.705, 23.69561
3986.634, 21.76010
3988.562, 22.19219
3990.490, 23.66434
3992.419, 20.45097
3994.347, 20.77664
3996.276, 22.43046
3998.204, 25.89120
4000.133, 25.06978
4002.061, 26.67984
4003.990, 22.72847
4005.918, 26.09622
4007.847, 22.77567
4009.775, 19.23539
4011.704, 24.72721
4013.632, 24.84239
4015.561, 21.47310
4017.489, 23.79823
4019.417, 22.44747
4021.346, 22.38711
4023.274, 23.31223
4025.203, 23.50221
4027.131, 23.26271
4029.060, 21.49671
4030.988, 21.60959
4032.917, 21.76314
4034.845, 23.11539
4036.774, 20.92382
4038.702, 21.13869
4040.631, 21.18396
4042.559, 21.12686
4044.488, 21.41078
4046.416, 20.40741
4048.344, 19.52456
4050.273, 19.17924
4052.201, 21.02968
4054.130, 18.95930
4056.058, 21.34428
4057.987, 23.78800
4059.915, 23.97120
4061.844, 22.15673
4063.772, 23.15742
4065.701, 26.47755
4067.629, 23.52619
4069.558, 20.46136
4071.486, 23.37857
4073.415, 22.09681
4075.343, 19.19014
4077.271, 22.81746
4079.200, 21.99693
4081.128, 18.59769
4083.057, 20.58472
4084.985, 19.40363
4086.914, 23.98153
4088.842, 19.57865
4090.771, 23.30843
4092.699, 23.06674
4094.628, 19.53226
4096.556, 24.98158
4098.484, 24.76154
4100.413, 23.90875
4102.341, 23.12088
4104.270, 20.27865
4106.198, 19.19748
4108.127, 21.64254
4110.055, 22.81112
4111.984, 25.56457
4113.912, 25.82141
4115.841, 20.63655
4117.769, 17.44343
4119.698, 21.30005
4121.626, 24.87313
4123.555, 23.99720
4125.483, 23.16994
4127.412, 22.22404
4129.340, 21.81456
4131.269, 22.53868
4133.197, 19.52020
4135.125, 20.45204
4137.054, 17.86527
4138.982, 23.00053
4140.911, 20.33467
4142.839, 20.80222
4144.768, 23.49494
4146.696, 19.26342
4148.625, 15.47159
4150.553, 19.02761
4152.481, 21.91791
4154.410, 20.91897
4156.338, 22.41549
4158.267, 22.37560
4160.195, 22.50593
4162.124, 25.82587
4164.052, 19.94715
4165.981, 20.60705
4167.909, 21.15838
4169.838, 16.76560
4171.766, 20.66499
4173.695, 22.20921
4175.623, 18.86504
4177.552, 19.93956
4179.480, 22.10547
4181.409, 20.19637
4183.337, 20.59637
4185.266, 17.79055
4187.194, 17.09748
4189.123, 17.53566
4191.051, 16.82435
4192.979, 19.21882
4194.908, 17.98486
4196.836, 19.87222
4198.765, 21.30954
4200.693, 21.34372
4202.622, 20.81291
4204.550, 19.23854
4206.479, 18.39635
4208.407, 19.13470
4210.335, 20.97889
4212.264, 24.34488
4214.192, 21.42412
4216.121, 20.76719
4218.049, 21.84354
4219.978, 18.12795
4221.906, 21.35263
4223.835, 21.34699
4225.763, 23.14322
4227.692, 19.32877
4229.620, 17.37072
4231.549, 19.37079
4233.477, 19.58540
4235.406, 19.04541
4237.334, 19.97167
4239.263, 21.34409
4241.191, 20.68752
4243.120, 20.88336
4245.048, 21.47591
4246.977, 19.95680
4248.905, 19.84254
4250.833, 19.81004
4252.762, 19.44707
4254.690, 19.16808
4256.619, 19.04158
4258.547, 18.39768
4260.476, 18.70127
4262.404, 18.46157
4264.333, 18.30952
4266.261, 19.09032
4268.189, 18.97661
4270.118, 19.14612
4272.046, 20.26465
4273.975, 20.85671
4275.903, 19.99244
4277.832, 19.65575
4279.760, 17.61876
4281.689, 18.83941
4283.617, 20.92364
4285.546, 18.46214
4287.474, 15.21486
4289.403, 17.92576
4291.331, 14.48934
4293.260, 15.55911
4295.188, 17.75214
4297.117, 19.36619
4299.045, 16.94763
4300.974, 17.95670
4302.902, 17.68974
4304.831, 17.90893
4306.759, 19.95721
4308.688, 22.00952
4310.616, 19.23181
4312.544, 16.86827
4314.473, 17.68906
4316.401, 17.20148
4318.330, 19.37549
4320.258, 21.93414
4322.187, 16.22784
4324.115, 17.06561
4326.043, 13.89325
4327.972, 20.18391
4329.900, 15.97745
4331.829, 18.69219
4333.757, 16.56632
4335.686, 14.54593
4337.614, 15.76845
4339.543, 18.85416
4341.471, 18.06243
4343.400, 18.32306
4345.328, 14.55073
4347.257, 18.77166
4349.185, 21.97689
4351.114, 22.15037
4353.042, 17.23492
4354.971, 14.06660
4356.899, 12.92117
4358.828, 15.28069
4360.756, 16.20104
4362.685, 16.57988
4364.613, 14.66694
4366.542, 12.72448
4368.470, 14.06262
4370.398, 20.14459
4372.327, 15.11819
4374.255, 16.76946
4376.184, 15.43992
4378.112, 18.79624
##END=



