##NAMES=Kukharenkoite-(Ce)
##RRUFFID=R110190
##IDEAL CHEMISTRY=Ba_2_Ce(CO_3_)_3_F
##LOCALITY=Demix-Varennes quarry, Saint-Amable sill, Varennes & St-Amable, Lajemmerais RCM, Monteregie, Quebec, Canada
##OWNER=RRUFF
##SOURCE=Donald Doell
##DESCRIPTION=Radial sprays of white bladed crystals
##STATUS=The identification of this mineral is confirmed by single-crystal X-ray diffraction and chemical analysis
##URL=https://www.rruff.net/odr/rruff_sample/R110190
##MEASURED CHEMISTRY=(Ba_1.90_Sr_0.10_)(Ce_0.54_La_0.22_Nd_0.15_Pr_0.06_)(CO_3_)_2.99_F_1.14_
##DIFFRACTION SAMPLE DESCRIPTION=Single crystal, powder profile is calculated
##CELL PARAMETERS=a: 13.353 b: 5.0967 c: 6.646 alpha: 90 beta: 106.5 gamma: 90 volume: 433.7 crystal system: monoclinic
##FILETYPE=Raman Processed
##RAMAN WAVELENGTH=780

216.2397, 5109.891
218.1682, 5355.634
220.0967, 5612.433
222.0251, 5889.606
223.9536, 6192.686
225.8821, 6517.163
227.8105, 6857.144
229.7390, 7212.139
231.6675, 7579.251
233.5959, 7970.862
235.5244, 8357.227
237.4529, 8740.856
239.3813, 9113.289
241.3098, 9476.018
243.2383, 9822.386
245.1667, 10130.60
247.0952, 10380.37
249.0237, 10650.36
250.9521, 10971.12
252.8806, 11266.61
254.8091, 11522.92
256.7375, 11731.23
258.6660, 11878.76
260.5945, 11968.18
262.5229, 12038.04
264.4514, 12092.86
266.3799, 12115.50
268.3083, 12087.20
270.2368, 12049.69
272.1653, 12039.22
274.0938, 12026.21
276.0222, 11957.04
277.9507, 11908.52
279.8792, 11850.93
281.8076, 11726.96
283.7361, 11619.82
285.6646, 11512.21
287.5930, 11315.91
289.5215, 11120.83
291.4500, 10917.33
293.3784, 10683.11
295.3069, 10417.37
297.2354, 10117.67
299.1638, 9774.612
301.0923, 9419.362
303.0208, 9043.912
304.9492, 8679.492
306.8777, 8353.229
308.8062, 8056.182
310.7346, 7754.767
312.6631, 7447.476
314.5916, 7162.604
316.5200, 6903.533
318.4485, 6669.448
320.3770, 6459.814
322.3054, 6271.938
324.2339, 6105.485
326.1624, 5959.925
328.0908, 5834.127
330.0193, 5728.489
331.9478, 5624.323
333.8762, 5510.829
335.8047, 5414.645
337.7332, 5349.133
339.6616, 5297.288
341.5901, 5247.925
343.5186, 5201.042
345.4470, 5153.969
347.3755, 5106.151
349.3040, 5071.516
351.2324, 5058.500
353.1609, 5048.570
355.0894, 5040.697
357.0178, 5031.168
358.9463, 5014.470
360.8748, 4995.405
362.8032, 4983.545
364.7317, 4978.974
366.6602, 4974.129
368.5886, 4966.339
370.5171, 4961.511
372.4456, 4963.225
374.3740, 4964.747
376.3025, 4961.027
378.2310, 4955.004
380.1594, 4948.687
382.0879, 4942.751
384.0164, 4945.742
385.9448, 4960.558
387.8733, 4980.591
389.8018, 5009.796
391.7302, 5038.487
393.6587, 5063.088
395.5872, 5085.146
397.5156, 5102.881
399.4441, 5119.095
401.3726, 5146.119
403.3010, 5187.575
405.2295, 5230.083
407.1580, 5281.976
409.0864, 5321.434
411.0149, 5327.531
412.9434, 5337.029
414.8718, 5380.504
416.8003, 5439.875
418.7288, 5483.870
420.6572, 5511.101
422.5857, 5552.015
424.5142, 5617.221
426.4426, 5668.288
428.3711, 5693.784
430.2996, 5718.343
432.2280, 5757.177
434.1565, 5796.204
436.0850, 5819.014
438.0134, 5833.576
439.9419, 5867.392
441.8704, 5925.561
443.7988, 5967.091
445.7273, 5983.952
447.6558, 6011.601
449.5842, 6071.898
451.5127, 6123.174
453.4412, 6133.938
455.3696, 6134.987
457.2981, 6158.911
459.2266, 6199.978
461.1550, 6238.559
463.0835, 6275.437
465.0120, 6291.197
466.9404, 6276.058
468.8689, 6270.025
470.7974, 6294.790
472.7258, 6318.389
474.6543, 6330.453
476.5828, 6331.610
478.5112, 6312.855
480.4397, 6284.446
482.3682, 6282.408
484.2966, 6305.375
486.2251, 6341.248
488.1536, 6398.016
490.0820, 6433.128
492.0105, 6407.390
493.9390, 6392.030
495.8674, 6423.421
497.7959, 6464.008
499.7244, 6478.898
501.6528, 6477.169
503.5813, 6480.887
505.5098, 6488.668
507.4382, 6487.987
509.3667, 6476.965
511.2952, 6462.971
513.2236, 6448.297
515.1521, 6429.366
517.0806, 6402.427
519.0090, 6373.484
520.9375, 6348.113
522.8660, 6321.532
524.7944, 6286.242
526.7229, 6244.538
528.6514, 6204.460
530.5798, 6167.542
532.5083, 6123.630
534.4368, 6065.614
536.3652, 6012.286
538.2937, 5967.460
540.2222, 5925.498
542.1506, 5884.473
544.0791, 5844.883
546.0076, 5806.588
547.9360, 5769.864
549.8645, 5735.434
551.7930, 5703.059
553.7214, 5672.195
555.6499, 5642.994
557.5784, 5614.587
559.5068, 5581.798
561.4353, 5558.517
563.3638, 5557.371
565.2922, 5551.249
567.2207, 5518.083
569.1492, 5484.938
571.0776, 5473.705
573.0061, 5475.981
574.9346, 5481.385
576.8630, 5488.583
578.7915, 5477.247
580.7200, 5480.098
582.6484, 5481.257
584.5769, 5459.979
586.5054, 5475.080
588.4338, 5440.482
590.3623, 5413.315
592.2908, 5434.749
594.2192, 5453.781
596.1477, 5428.385
598.0762, 5387.600
600.0046, 5373.754
601.9331, 5378.360
603.8616, 5367.375
605.7900, 5339.708
607.7185, 5314.551
609.6470, 5295.267
611.5754, 5255.296
613.5039, 5182.874
615.4324, 5111.600
617.3608, 5053.545
619.2893, 4997.434
621.2178, 4935.727
623.1462, 4876.331
625.0747, 4832.265
627.0032, 4766.784
628.9316, 4728.413
630.8601, 4650.534
632.7886, 4586.875
634.7170, 4535.624
636.6455, 4470.000
638.5740, 4386.571
640.5024, 4302.633
642.4309, 4224.348
644.3594, 4138.677
646.2878, 4031.321
648.2163, 3931.139
650.1448, 3853.746
652.0732, 3781.801
654.0017, 3706.973
655.9302, 3626.558
657.8586, 3527.377
659.7871, 3458.924
661.7156, 3351.564
663.6440, 3305.666
665.5725, 3244.969
667.5010, 3165.817
669.4294, 3086.659
671.3579, 3007.106
673.2864, 2933.453
675.2148, 2867.885
677.1433, 2805.840
679.0718, 2749.287
681.0002, 2692.198
682.9287, 2627.512
684.8572, 2565.441
686.7856, 2513.458
688.7141, 2469.904
690.6426, 2437.243
692.5710, 2409.248
694.4995, 2370.092
696.4280, 2320.646
698.3564, 2273.470
700.2849, 2229.050
702.2134, 2185.736
704.1418, 2140.695
706.0703, 2102.138
707.9988, 2071.947
709.9272, 2044.788
711.8557, 2019.938
713.7842, 1997.772
715.7126, 1985.348
717.6411, 1966.258
719.5696, 1921.195
721.4980, 1873.503
723.4265, 1844.526
725.3550, 1824.918
727.2834, 1800.944
729.2119, 1774.171
731.1404, 1749.225
733.0688, 1726.169
734.9973, 1706.589
736.9258, 1691.106
738.8542, 1675.280
740.7827, 1659.582
742.7112, 1640.164
744.6396, 1614.825
746.5681, 1592.072
748.4966, 1573.252
750.4250, 1559.229
752.3535, 1555.670
754.2820, 1548.414
756.2104, 1526.727
758.1389, 1504.531
760.0674, 1492.621
761.9958, 1473.865
763.9243, 1466.370
765.8528, 1447.666
767.7813, 1436.834
769.7097, 1430.842
771.6382, 1420.888
773.5667, 1407.634
775.4951, 1395.972
777.4236, 1385.583
779.3521, 1373.607
781.2805, 1359.930
783.2090, 1340.402
785.1375, 1311.643
787.0659, 1293.538
788.9944, 1292.656
790.9229, 1295.017
792.8513, 1304.589
794.7798, 1305.775
796.7083, 1289.302
798.6367, 1271.812
800.5652, 1258.193
802.4937, 1248.127
804.4221, 1244.402
806.3506, 1240.906
808.2791, 1229.677
810.2075, 1217.982
812.1360, 1217.018
814.0645, 1209.081
815.9929, 1214.013
817.9214, 1203.997
819.8499, 1201.761
821.7783, 1204.064
823.7068, 1194.396
825.6353, 1173.442
827.5637, 1161.840
829.4922, 1161.538
831.4207, 1159.614
833.3491, 1155.251
835.2776, 1150.618
837.2061, 1144.360
839.1345, 1140.730
841.0630, 1143.098
842.9915, 1142.110
844.9199, 1133.346
846.8484, 1127.649
848.7769, 1133.034
850.7053, 1131.463
852.6338, 1108.146
854.5623, 1090.373
856.4907, 1098.078
858.4192, 1105.694
860.3477, 1091.907
862.2761, 1078.595
864.2046, 1084.600
866.1331, 1094.961
868.0615, 1095.732
869.9900, 1093.423
871.9185, 1100.271
873.8469, 1106.639
875.7754, 1091.028
877.7039, 1064.838
879.6323, 1053.538
881.5608, 1054.964
883.4893, 1065.337
885.4177, 1081.976
887.3462, 1087.622
889.2747, 1083.067
891.2031, 1080.705
893.1316, 1080.397
895.0601, 1079.278
896.9885, 1077.274
898.9170, 1074.662
900.8455, 1071.377
902.7739, 1069.932
904.7024, 1070.832
906.6309, 1070.040
908.5593, 1066.083
910.4878, 1067.485
912.4163, 1077.906
914.3447, 1084.739
916.2732, 1085.129
918.2017, 1082.616
920.1301, 1071.268
922.0586, 1071.538
923.9871, 1099.889
925.9155, 1121.078
927.8440, 1122.768
929.7725, 1122.453
931.7009, 1122.689
933.6294, 1125.700
935.5579, 1133.015
937.4863, 1142.279
939.4148, 1155.877
941.3433, 1166.427
943.2717, 1166.358
945.2002, 1166.869
947.1287, 1176.935
949.0571, 1187.966
950.9856, 1191.813
952.9141, 1196.450
954.8425, 1208.187
956.7710, 1223.676
958.6995, 1242.266
960.6279, 1260.539
962.5564, 1273.632
964.4849, 1286.062
966.4133, 1305.101
968.3418, 1323.693
970.2703, 1328.819
972.1987, 1351.615
974.1272, 1357.005
976.0557, 1388.295
977.9841, 1409.983
979.9126, 1429.233
981.8411, 1463.707
983.7695, 1500.106
985.6980, 1505.116
987.6265, 1498.985
989.5549, 1526.633
991.4834, 1573.885
993.4119, 1612.025
995.3403, 1642.071
997.2688, 1662.375
999.1973, 1678.374
1001.126, 1704.523
1003.054, 1739.217
1004.983, 1780.450
1006.911, 1825.198
1008.840, 1861.775
1010.768, 1893.787
1012.697, 1934.044
1014.625, 1980.447
1016.553, 2024.305
1018.482, 2067.609
1020.410, 2120.167
1022.339, 2178.553
1024.267, 2226.354
1026.196, 2268.980
1028.124, 2333.252
1030.053, 2379.689
1031.981, 2460.907
1033.910, 2495.205
1035.838, 2555.798
1037.767, 2633.680
1039.695, 2691.832
1041.624, 2739.047
1043.552, 2808.504
1045.480, 2893.786
1047.409, 2974.865
1049.337, 3052.684
1051.266, 3129.793
1053.194, 3207.168
1055.123, 3286.864
1057.051, 3369.413
1058.980, 3458.375
1060.908, 3551.386
1062.837, 3637.994
1064.765, 3724.535
1066.694, 3827.970
1068.622, 3943.792
1070.551, 4063.323
1072.479, 4184.591
1074.407, 4303.807
1076.336, 4422.242
1078.264, 4543.650
1080.193, 4665.153
1082.121, 4781.315
1084.050, 4892.853
1085.978, 4997.706
1087.907, 5102.413
1089.835, 5209.857
1091.764, 5330.715
1093.692, 5495.234
1095.621, 5669.383
1097.549, 5800.187
1099.478, 5920.417
1101.406, 6068.989
1103.334, 6228.362
1105.263, 6382.291
1107.191, 6534.949
1109.120, 6689.076
1111.048, 6844.224
1112.977, 7004.519
1114.905, 7160.703
1116.834, 7300.096
1118.762, 7441.317
1120.691, 7602.966
1122.619, 7760.291
1124.548, 7889.438
1126.476, 8025.314
1128.405, 8193.554
1130.333, 8358.346
1132.261, 8504.072
1134.190, 8641.384
1136.118, 8768.057
1138.047, 8899.678
1139.975, 9039.817
1141.904, 9197.019
1143.832, 9338.431
1145.761, 9549.014
1147.689, 9657.766
1149.618, 9798.577
1151.546, 9995.682
1153.475, 10199.22
1155.403, 10406.27
1157.332, 10580.66
1159.260, 10711.55
1161.188, 10854.41
1163.117, 11016.44
1165.045, 11196.94
1166.974, 11395.26
1168.902, 11620.04
1170.831, 11870.09
1172.759, 12116.98
1174.688, 12359.95
1176.616, 12613.32
1178.545, 12877.31
1180.473, 13152.95
1182.402, 13442.56
1184.330, 13749.97
1186.259, 14073.74
1188.187, 14401.30
1190.115, 14765.02
1192.044, 15124.29
1193.972, 15532.73
1195.901, 15939.64
1197.829, 16361.33
1199.758, 16817.37
1201.686, 17297.35
1203.615, 17766.38
1205.543, 18287.97
1207.472, 18926.29
1209.400, 19610.15
1211.329, 20298.59
1213.257, 21021.78
1215.186, 21770.20
1217.114, 22617.31
1219.042, 23594.99
1220.971, 24640.52
1222.899, 25728.20
1224.828, 26918.74
1226.756, 28203.53
1228.685, 29652.89
1230.613, 31268.89
1232.542, 33060.73
1234.470, 35034.20
1236.399, 37192.16
1238.327, 39534.63
1240.256, 42089.79
1242.184, 44896.11
1244.113, 48162.99
1246.041, 51886.86
1247.969, 56018.01
1249.898, 60612.94
1251.826, 65674.27
1253.755, 71348.17
1255.683, 77795.59
1257.612, 84993.09
1259.540, 93090.58
1261.469, 101672.2
1263.397, 110660.8
1265.326, 119765.9
1267.254, 129252.4
1269.183, 138167.8
1271.111, 146574.8
1273.040, 153532.4
1274.968, 158856.2
1276.896, 162813.7
1278.825, 165405.4
1280.753, 166938.2
1282.682, 167451.7
1284.610, 167327.6
1286.539, 166571.9
1288.467, 165051.2
1290.396, 162802.0
1292.324, 159889.5
1294.253, 156455.9
1296.181, 152495.8
1298.110, 148464.8
1300.038, 144799.1
1301.967, 141564.7
1303.895, 138861.2
1305.823, 136496.2
1307.752, 134397.2
1309.680, 132519.3
1311.609, 131039.3
1313.537, 129388.7
1315.466, 127553.2
1317.394, 125272.1
1319.323, 122447.8
1321.251, 119342.7
1323.180, 115976.8
1325.108, 112172.3
1327.037, 107956.0
1328.965, 103725.1
1330.894, 99517.38
1332.822, 95384.98
1334.750, 91428.83
1336.679, 87819.52
1338.607, 84468.84
1340.536, 81259.72
1342.464, 78299.54
1344.393, 75675.95
1346.321, 73276.84
1348.250, 71073.20
1350.178, 69054.61
1352.107, 67236.77
1354.035, 65540.09
1355.964, 63945.79
1357.892, 62538.07
1359.821, 61329.29
1361.749, 60182.24
1363.677, 59090.40
1365.606, 58023.44
1367.534, 57031.81
1369.463, 56260.48
1371.391, 55596.26
1373.320, 54899.14
1375.248, 54237.29
1377.177, 53623.39
1379.105, 53132.04
1381.034, 52826.84
1382.962, 52552.35
1384.891, 52275.75
1386.819, 52028.88
1388.748, 51815.88
1390.676, 51719.05
1392.604, 51639.11
1394.533, 51627.22
1396.461, 51685.91
1398.390, 51775.13
1400.318, 51944.68
1402.247, 52158.23
1404.175, 52415.51
1406.104, 52706.17
1408.032, 53049.17
1409.961, 53448.61
1411.889, 53912.69
1413.818, 54458.93
1415.746, 55035.93
1417.675, 55723.34
1419.603, 56371.11
1421.531, 57265.10
1423.460, 58156.32
1425.388, 59054.42
1427.317, 59982.84
1429.245, 60953.59
1431.174, 61983.95
1433.102, 63053.99
1435.031, 64148.54
1436.959, 65284.70
1438.888, 66500.33
1440.816, 67675.55
1442.745, 68766.48
1444.673, 69885.32
1446.602, 71037.89
1448.530, 72201.63
1450.458, 73386.79
1452.387, 74700.84
1454.315, 76043.26
1456.244, 77231.27
1458.172, 78355.79
1460.101, 79447.47
1462.029, 80594.00
1463.958, 81843.55
1465.886, 83121.42
1467.815, 84419.48
1469.743, 85683.63
1471.672, 86918.73
1473.600, 87969.75
1475.529, 88908.90
1477.457, 90098.27
1479.385, 91403.75
1481.314, 92630.39
1483.242, 93796.96
1485.171, 94889.87
1487.099, 95990.10
1489.028, 97125.83
1490.956, 98281.51
1492.885, 99457.89
1494.813, 100525.2
1496.742, 101513.3
1498.670, 102652.6
1500.599, 103874.9
1502.527, 105042.4
1504.456, 106194.6
1506.384, 107359.6
1508.313, 108552.0
1510.241, 109769.0
1512.169, 111047.0
1514.098, 112434.4
1516.026, 113698.0
1517.955, 114825.6
1519.883, 115964.6
1521.812, 117137.8
1523.740, 118494.4
1525.669, 119830.7
1527.597, 120921.8
1529.526, 121919.6
1531.454, 122905.1
1533.383, 123837.9
1535.311, 124756.7
1537.240, 125552.8
1539.168, 126201.6
1541.096, 126697.3
1543.025, 127063.4
1544.953, 127408.3
1546.882, 127622.6
1548.810, 127558.3
1550.739, 127297.0
1552.667, 126889.2
1554.596, 126342.6
1556.524, 125642.5
1558.453, 124779.2
1560.381, 123742.0
1562.310, 122525.9
1564.238, 121162.7
1566.167, 119756.3
1568.095, 118169.6
1570.023, 116187.3
1571.952, 114188.4
1573.880, 112326.2
1575.809, 110281.5
1577.737, 108029.8
1579.666, 105704.2
1581.594, 103313.8
1583.523, 100955.9
1585.451, 98670.62
1587.380, 96483.49
1589.308, 94337.59
1591.237, 92213.14
1593.165, 90185.23
1595.094, 88266.02
1597.022, 86392.23
1598.950, 84566.81
1600.879, 82846.45
1602.807, 81236.58
1604.736, 79787.28
1606.664, 78436.16
1608.593, 77105.24
1610.521, 75859.73
1612.450, 74725.69
1614.378, 73732.66
1616.307, 72885.48
1618.235, 72075.37
1620.164, 71311.00
1622.092, 70660.79
1624.021, 70060.91
1625.949, 69505.77
1627.877, 68930.13
1629.806, 68266.36
1631.734, 67637.58
1633.663, 67057.85
1635.591, 66429.89
1637.520, 65750.54
1639.448, 64963.58
1641.377, 64226.81
1643.305, 63755.90
1645.234, 63195.36
1647.162, 62372.37
1649.091, 61596.43
1651.019, 60909.02
1652.948, 60197.41
1654.876, 59458.41
1656.804, 58785.04
1658.733, 58132.54
1660.661, 57403.84
1662.590, 56613.43
1664.518, 55781.16
1666.447, 54985.43
1668.375, 54139.48
1670.304, 53284.29
1672.232, 52423.74
1674.161, 51522.77
1676.089, 50618.46
1678.018, 49684.76
1679.946, 48741.25
1681.875, 47815.98
1683.803, 46851.56
1685.731, 45834.39
1687.660, 44809.23
1689.588, 43818.15
1691.517, 42913.88
1693.445, 42032.10
1695.374, 41149.98
1697.302, 40273.10
1699.231, 39396.38
1701.159, 38555.79
1703.088, 37753.98
1705.016, 37018.07
1706.945, 36296.13
1708.873, 35489.17
1710.802, 34737.18
1712.730, 34088.79
1714.658, 33413.75
1716.587, 32731.89
1718.515, 32079.72
1720.444, 31440.41
1722.372, 30824.15
1724.301, 30231.00
1726.229, 29646.88
1728.158, 29120.06
1730.086, 28573.39
1732.015, 28101.63
1733.943, 27649.68
1735.872, 27148.44
1737.800, 26660.15
1739.729, 26180.21
1741.657, 25714.40
1743.585, 25287.38
1745.514, 24857.70
1747.442, 24432.66
1749.371, 24033.89
1751.299, 23641.69
1753.228, 23244.35
1755.156, 22861.69
1757.085, 22507.71
1759.013, 22129.86
1760.942, 21716.67
1762.870, 21336.29
1764.799, 21017.68
1766.727, 20778.09
1768.656, 20477.63
1770.584, 20077.80
1772.512, 19732.79
1774.441, 19441.52
1776.369, 19175.76
1778.298, 18901.22
1780.226, 18586.22
1782.155, 18303.34
1784.083, 18040.97
1786.012, 17799.08
1787.940, 17567.59
1789.869, 17276.65
1791.797, 16985.49
1793.726, 16764.89
1795.654, 16527.86
1797.583, 16244.75
1799.511, 16000.15
1801.439, 15778.68
1803.368, 15506.23
1805.296, 15242.96
1807.225, 15044.40
1809.153, 14819.47
1811.082, 14561.65
1813.010, 14299.27
1814.939, 14038.64
1816.867, 13854.32
1818.796, 13668.25
1820.724, 13419.20
1822.653, 13185.53
1824.581, 12985.04
1826.510, 12756.82
1828.438, 12508.09
1830.366, 12293.61
1832.295, 12107.58
1834.223, 11934.55
1836.152, 11746.57
1838.080, 11533.38
1840.009, 11321.61
1841.937, 11136.80
1843.866, 10933.57
1845.794, 10695.96
1847.723, 10467.79
1849.651, 10262.79
1851.580, 10063.37
1853.508, 9863.545
1855.437, 9668.196
1857.365, 9504.111
1859.293, 9347.721
1861.222, 9181.295
1863.150, 8993.325
1865.079, 8804.372
1867.007, 8623.588
1868.936, 8441.701
1870.864, 8268.744
1872.793, 8109.188
1874.721, 7972.994
1876.650, 7804.640
1878.578, 7601.901
1880.507, 7427.080
1882.435, 7298.389
1884.364, 7158.220
1886.292, 6985.268
1888.220, 6834.625
1890.149, 6697.286
1892.077, 6549.319
1894.006, 6391.953
1895.934, 6241.126
1897.863, 6100.601
1899.791, 5979.744
1901.720, 5866.995
1903.648, 5745.427
1905.577, 5617.828
1907.505, 5471.588
1909.434, 5319.300
1911.362, 5171.659
1913.291, 5077.733
1915.219, 4996.936
1917.147, 4876.168
1919.076, 4763.800
1921.004, 4674.841
1922.933, 4564.384
1924.861, 4471.784
1926.790, 4359.024
1928.718, 4282.009
1930.647, 4179.270
1932.575, 4076.397
1934.504, 3983.261
1936.432, 3888.580
1938.361, 3804.836
1940.289, 3729.645
1942.218, 3653.084
1944.146, 3575.545
1946.074, 3504.280
1948.003, 3443.361
1949.931, 3368.314
1951.860, 3292.869
1953.788, 3237.108
1955.717, 3163.487
1957.645, 3079.305
1959.574, 3014.331
1961.502, 2951.940
1963.431, 2897.615
1965.359, 2856.460
1967.288, 2807.293
1969.216, 2744.670
1971.145, 2690.240
1973.073, 2639.685
1975.001, 2595.977
1976.930, 2559.842
1978.858, 2507.047
1980.787, 2456.323
1982.715, 2419.997
1984.644, 2369.041
1986.572, 2327.959
1988.501, 2301.370
1990.429, 2266.488
1992.358, 2227.565
1994.286, 2186.873
1996.215, 2137.370
1998.143, 2105.285
2000.072, 2075.369
2002.000, 2043.519
2003.928, 2016.107
2005.857, 1973.964
2007.785, 1918.399
2009.714, 1868.783
2011.642, 1846.526
2013.571, 1826.264
2015.499, 1786.372
2017.428, 1735.818
2019.356, 1694.692
2021.285, 1675.737
2023.213, 1655.010
2025.142, 1623.923
2027.070, 1592.914
2028.999, 1556.350
2030.927, 1526.664
2032.855, 1494.094
2034.784, 1457.266
2036.712, 1433.177
2038.641, 1409.571
2040.569, 1376.796
2042.498, 1346.396
2044.426, 1328.286
2046.355, 1313.450
2048.283, 1287.090
2050.212, 1259.629
2052.140, 1241.307
2054.069, 1212.928
2055.997, 1190.334
2057.926, 1174.074
2059.854, 1150.685
2061.782, 1129.754
2063.711, 1117.351
2065.639, 1101.533
2067.568, 1080.440
2069.496, 1064.612
2071.425, 1036.558
2073.353, 1026.473
2075.282, 1001.457
2077.210, 981.2288
2079.139, 980.7439
2081.067, 974.1636
2082.996, 957.6984
2084.924, 950.0576
2086.853, 935.2572
2088.781, 921.2871
2090.709, 909.0776
2092.638, 888.0320
2094.566, 870.2542
2096.495, 858.1783
2098.423, 839.8660
2100.352, 825.0470
2102.280, 820.2137
2104.209, 803.9990
2106.137, 797.5210
2108.066, 787.4281
2109.994, 792.0176
2111.923, 772.1039
2113.851, 769.3112
2115.780, 770.1226
2117.708, 754.8934
2119.636, 743.2366
2121.565, 732.2548
2123.493, 727.4402
2125.422, 732.8327
2127.350, 732.5265
2129.279, 716.8114
2131.207, 701.8889
2133.136, 693.8044
2135.064, 687.4506
2136.993, 688.2852
2138.921, 686.7066
2140.850, 683.4788
2142.778, 678.9055
2144.707, 670.9694
2146.635, 668.6655
2148.563, 663.8080
2150.492, 659.4721
2152.420, 660.4437
2154.349, 657.0347
2156.277, 654.9601
2158.206, 651.2655
2160.134, 650.7178
2162.063, 657.5538
2163.991, 646.5532
2165.920, 634.6426
2167.848, 649.5504
2169.777, 662.5936
2171.705, 654.9679
2173.634, 641.1917
2175.562, 637.4001
2177.490, 641.0093
2179.419, 635.7812
2181.347, 637.3721
2183.276, 634.9742
2185.204, 640.7848
2187.133, 639.1256
2189.061, 645.6748
2190.990, 650.6940
2192.918, 648.1771
2194.847, 642.0289
2196.775, 638.9083
2198.704, 646.3274
2200.632, 652.3171
2202.561, 654.5623
2204.489, 671.7784
2206.417, 664.4556
2208.346, 679.1375
2210.274, 686.5287
2212.203, 691.3469
2214.131, 690.4835
2216.060, 697.7335
2217.988, 715.3667
2219.917, 726.0052
2221.845, 736.2878
2223.774, 744.9700
2225.702, 758.0070
2227.631, 774.9354
2229.559, 789.5818
2231.488, 805.5640
2233.416, 822.8495
2235.344, 832.0532
2237.273, 837.3940
2239.201, 846.1344
2241.130, 842.8737
2243.058, 851.8477
2244.987, 850.7227
2246.915, 845.8112
2248.844, 837.3233
2250.772, 830.4067
2252.701, 826.0880
2254.629, 827.2708
2256.558, 829.6646
2258.486, 829.1355
2260.415, 835.1234
2262.343, 846.3349
2264.271, 843.1442
2266.200, 847.6509
2268.128, 861.9948
2270.057, 874.1501
2271.985, 884.6977
2273.914, 889.6852
2275.842, 901.7569
2277.771, 920.0966
2279.699, 935.7147
2281.628, 955.6343
2283.556, 981.2304
2285.485, 995.0721
2287.413, 1009.507
2289.342, 1020.176
2291.270, 1023.573
2293.198, 1026.895
2295.127, 1022.429
2297.055, 1025.845
2298.984, 1025.537
2300.912, 1021.860
2302.841, 1021.648
2304.769, 1008.824
2306.698, 995.1123
2308.626, 986.3966
2310.555, 979.1948
2312.483, 977.6013
2314.412, 959.7589
2316.340, 943.3830
2318.269, 922.3040
2320.197, 900.8503
2322.125, 872.6415
2324.054, 853.1735
2325.982, 843.0886
2327.911, 833.0108
2329.839, 818.1237
2331.768, 801.7994
2333.696, 790.5389
2335.625, 779.4984
2337.553, 769.4408
2339.482, 758.5330
2341.410, 739.4310
2343.339, 730.4034
2345.267, 730.7073
2347.196, 732.1028
2349.124, 728.5045
2351.052, 721.3385
2352.981, 716.0704
2354.909, 704.0226
2356.838, 701.2998
2358.766, 688.5052
2360.695, 693.0833
2362.623, 679.3330
2364.552, 675.1465
2366.480, 678.0177
2368.409, 677.9624
2370.337, 666.7685
2372.266, 652.6158
2374.194, 644.0267
2376.123, 631.3950
2378.051, 622.1805
2379.979, 609.0869
2381.908, 603.4289
2383.836, 611.2585
2385.765, 607.7870
2387.693, 598.9752
2389.622, 594.8389
2391.550, 586.6686
2393.479, 577.4418
2395.407, 580.7229
2397.336, 576.1509
2399.264, 569.5942
2401.193, 556.8791
2403.121, 548.4937
2405.050, 542.5306
2406.978, 537.5994
2408.906, 528.5796
2410.835, 518.7978
2412.763, 510.6210
2414.692, 496.1829
2416.620, 489.7026
2418.549, 479.9257
2420.477, 466.2721
2422.406, 452.3036
2424.334, 442.2411
2426.263, 434.2321
2428.191, 426.5877
2430.120, 418.0203
2432.048, 413.9244
2433.977, 403.1573
2435.905, 395.8050
2437.833, 390.0698
2439.762, 380.2426
2441.690, 371.5244
2443.619, 368.4961
2445.547, 360.3084
2447.476, 350.0290
2449.404, 347.0988
2451.333, 344.6898
2453.261, 337.6194
2455.190, 334.5265
2457.118, 338.9478
2459.047, 340.6083
2460.975, 330.8607
2462.904, 322.6636
2464.832, 315.1960
2466.760, 314.7747
2468.689, 312.1632
2470.617, 305.2766
2472.546, 302.3624
2474.474, 299.8163
2476.403, 296.2766
2478.331, 294.1645
2480.260, 292.3008
2482.188, 289.7322
2484.117, 288.4734
2486.045, 286.7133
2487.974, 282.8066
2489.902, 277.4203
2491.831, 272.3520
2493.759, 265.1265
2495.688, 268.0938
2497.616, 260.7224
2499.544, 259.2241
2501.473, 253.5616
2503.401, 256.1352
2505.330, 256.3782
2507.258, 253.0038
2509.187, 247.2645
2511.115, 247.4703
2513.044, 247.8908
2514.972, 246.5185
2516.901, 245.0795
2518.829, 241.5624
2520.758, 237.1315
2522.686, 234.4888
2524.615, 234.2709
2526.543, 238.4007
2528.471, 243.3519
2530.400, 244.5782
2532.328, 239.1953
2534.257, 230.2290
2536.185, 224.5947
2538.114, 228.0608
2540.042, 226.6879
2541.971, 224.3015
2543.899, 229.9217
2545.828, 226.9532
2547.756, 218.4644
2549.685, 212.4427
2551.613, 214.3535
2553.542, 219.5544
2555.470, 219.2935
2557.398, 214.4325
2559.327, 210.4958
2561.255, 220.7343
2563.184, 222.2408
2565.112, 214.5012
2567.041, 204.3582
2568.969, 201.2896
2570.898, 203.3213
2572.826, 205.6190
2574.755, 206.2846
2576.683, 205.6042
2578.612, 203.5297
2580.540, 200.3789
2582.469, 196.2872
2584.397, 193.3258
2586.325, 191.2166
2588.254, 189.6138
2590.182, 189.6341
2592.111, 193.3749
2594.039, 198.8456
2595.968, 195.3943
2597.896, 189.0264
2599.825, 182.2091
2601.753, 179.9697
2603.682, 179.9421
2605.610, 180.7812
2607.539, 178.3802
2609.467, 178.4709
2611.396, 180.9028
2613.324, 176.3103
2615.252, 173.6540
2617.181, 174.4556
2619.109, 169.7204
2621.038, 173.0672
2622.966, 164.3053
2624.895, 160.9596
2626.823, 159.7953
2628.752, 160.1716
2630.680, 163.3430
2632.609, 165.5204
2634.537, 166.6601
2636.466, 170.9881
2638.394, 168.8429
2640.323, 161.7070
2642.251, 157.8576
2644.179, 160.4958
2646.108, 164.8468
2648.036, 159.4049
2649.965, 158.6208
2651.893, 160.0045
2653.822, 153.3218
2655.750, 151.0460
2657.679, 153.5606
2659.607, 159.2858
2661.536, 158.3236
2663.464, 153.7556
2665.393, 149.9857
2667.321, 155.0317
2669.250, 160.7650
2671.178, 156.3472
2673.106, 158.7601
2675.035, 162.5484
2676.963, 161.3779
2678.892, 160.2453
2680.820, 158.8297
2682.749, 157.1835
2684.677, 155.6062
2686.606, 153.9063
2688.534, 152.3976
2690.463, 151.1339
2692.391, 152.4545
2694.320, 150.8546
2696.248, 153.8495
2698.177, 151.0208
2700.105, 151.9294
2702.033, 155.0843
2703.962, 154.5925
2705.890, 151.4167
2707.819, 152.3516
2709.747, 149.5679
2711.676, 148.6592
2713.604, 152.6208
2715.533, 156.9233
2717.461, 158.5291
2719.390, 155.1372
2721.318, 153.9330
2723.247, 151.0861
2725.175, 145.3323
2727.104, 148.9873
2729.032, 153.6346
2730.960, 154.7773
2732.889, 150.0639
2734.817, 146.0681
2736.746, 144.5612
2738.674, 143.7932
2740.603, 143.2595
2742.531, 142.4279
2744.460, 143.0730
2746.388, 148.4833
2748.317, 143.1882
2750.245, 145.8169
2752.174, 143.0144
2754.102, 138.0176
2756.031, 141.0254
2757.959, 138.9856
2759.887, 133.5245
2761.816, 129.5110
2763.744, 132.0048
2765.673, 133.7583
2767.601, 129.9259
2769.530, 133.1496
2771.458, 132.7321
2773.387, 128.2395
2775.315, 123.3992
2777.244, 125.0997
2779.172, 123.1162
2781.101, 127.3140
2783.029, 125.2233
2784.958, 125.6702
2786.886, 128.2926
2788.814, 124.4996
2790.743, 120.8731
2792.671, 117.4767
2794.600, 117.5295
2796.528, 117.8807
2798.457, 118.7878
2800.385, 117.1516
2802.314, 117.2829
2804.242, 115.9712
2806.171, 114.6837
2808.099, 113.0588
2810.028, 109.2127
2811.956, 107.5897
2813.885, 108.4590
2815.813, 111.9148
2817.741, 112.9632
2819.670, 112.0872
2821.598, 116.1001
2823.527, 109.2592
2825.455, 106.4876
2827.384, 105.1294
2829.312, 104.5974
2831.241, 103.5379
2833.169, 102.6099
2835.098, 102.7344
2837.026, 101.7343
2838.955, 103.8268
2840.883, 105.6121
2842.812, 108.0050
2844.740, 115.0743
2846.668, 112.2995
2848.597, 105.8994
2850.525, 110.5247
2852.454, 107.0647
2854.382, 101.4206
2856.311, 101.4701
2858.239, 103.0578
2860.168, 106.3519
2862.096, 105.1101
2864.025, 108.3115
2865.953, 110.0957
2867.882, 109.7292
2869.810, 107.8678
2871.739, 106.2708
2873.667, 106.3505
2875.595, 103.0071
2877.524, 100.8665
2879.452, 104.3387
2881.381, 109.0731
2883.309, 108.0558
2885.238, 109.5903
2887.166, 110.6966
2889.095, 108.3646
2891.023, 109.3242
2892.952, 108.6925
2894.880, 108.0999
2896.809, 108.4311
2898.737, 107.1054
2900.666, 107.6388
2902.594, 106.2827
2904.522, 104.3497
2906.451, 104.2668
2908.379, 103.0770
2910.308, 104.0564
2912.236, 108.9838
2914.165, 111.5120
2916.093, 113.4757
2918.022, 115.7699
2919.950, 117.2853
2921.879, 118.0826
2923.807, 118.5789
2925.736, 119.2446
2927.664, 116.6346
2929.593, 114.9164
2931.521, 115.3665
2933.449, 118.8828
2935.378, 117.2076
2937.306, 126.6656
2939.235, 120.5705
2941.163, 118.1841
2943.092, 127.2437
2945.020, 130.1643
2946.949, 126.3017
2948.877, 126.3941
2950.806, 125.0054
2952.734, 126.9325
2954.663, 133.4030
2956.591, 128.5085
2958.520, 130.1260
2960.448, 135.8905
2962.376, 129.1670
2964.305, 131.4441
2966.233, 135.6891
2968.162, 135.8035
2970.090, 139.4959
2972.019, 144.4077
2973.947, 149.0583
2975.876, 153.0126
2977.804, 145.1715
2979.733, 139.1510
2981.661, 143.8464
2983.590, 152.2664
2985.518, 151.7356
2987.447, 150.3011
2989.375, 154.3747
2991.303, 159.7719
2993.232, 167.1442
2995.160, 175.7820
2997.089, 169.3321
2999.017, 168.2097
3000.946, 171.4737
3002.874, 172.5234
3004.803, 170.1684
3006.731, 174.2791
3008.660, 179.2536
3010.588, 175.7354
3012.517, 174.6771
3014.445, 180.3554
3016.374, 187.5459
3018.302, 196.2404
3020.230, 203.6619
3022.159, 207.8496
3024.087, 211.3085
3026.016, 215.9894
3027.944, 218.0728
3029.873, 223.2227
3031.801, 223.7711
3033.730, 228.0934
3035.658, 234.2568
3037.587, 237.4572
3039.515, 245.4792
3041.444, 248.2444
3043.372, 250.8435
3045.301, 257.7297
3047.229, 264.6750
3049.157, 277.6418
3051.086, 281.9706
3053.014, 289.2540
3054.943, 292.5048
3056.871, 302.6920
3058.800, 304.1007
3060.728, 309.0798
3062.657, 312.5911
3064.585, 315.0688
3066.514, 316.0270
3068.442, 330.4633
3070.371, 343.8994
3072.299, 357.6258
3074.228, 361.9598
3076.156, 374.8378
3078.084, 380.9886
3080.013, 379.4935
3081.941, 401.3263
3083.870, 400.8445
3085.798, 399.7402
3087.727, 415.0805
3089.655, 423.4635
3091.584, 439.8905
3093.512, 455.5467
3095.441, 470.5541
3097.369, 472.8474
3099.298, 480.4842
3101.226, 487.3763
3103.155, 496.5055
3105.083, 502.5349
3107.011, 512.3500
3108.940, 524.6580
3110.868, 531.8397
3112.797, 540.3937
3114.725, 551.1040
3116.654, 570.0591
3118.582, 578.9767
3120.511, 589.3177
3122.439, 602.9034
3124.368, 612.4789
3126.296, 622.9416
3128.225, 634.4857
3130.153, 642.1198
3132.082, 658.6025
3134.010, 668.4404
3135.938, 685.8716
3137.867, 690.8340
3139.795, 699.1238
3141.724, 712.9802
3143.652, 724.3867
3145.581, 733.1584
3147.509, 744.8795
3149.438, 754.9720
3151.366, 755.9182
3153.295, 762.4993
3155.223, 780.7981
3157.152, 788.1877
3159.080, 806.4288
3161.009, 827.1086
3162.937, 838.5427
3164.865, 859.4664
3166.794, 872.5298
3168.722, 877.5804
3170.651, 882.9687
3172.579, 898.0585
3174.508, 920.2448
3176.436, 937.5445
3178.365, 953.1641
3180.293, 972.9254
3182.222, 982.5754
3184.150, 998.3354
3186.079, 1007.673
3188.007, 1023.976
3189.936, 1035.849
3191.864, 1048.273
3193.792, 1066.245
3195.721, 1090.264
3197.649, 1104.924
3199.578, 1143.104
3201.506, 1172.191
3203.435, 1179.063
3205.363, 1205.802
3207.292, 1247.143
3209.220, 1267.155
3211.149, 1268.418
3213.077, 1306.501
3215.006, 1353.178
3216.934, 1331.623
3218.863, 1379.973
3220.791, 1425.490
3222.719, 1460.542
3224.648, 1513.916
3226.576, 1516.675
3228.505, 1569.342
3230.433, 1632.638
3232.362, 1642.524
3234.290, 1699.235
3236.219, 1745.675
3238.147, 1776.278
3240.076, 1811.952
3242.004, 1867.373
3243.933, 1930.506
3245.861, 2002.390
3247.790, 2082.278
3249.718, 2166.726
3251.646, 2244.552
3253.575, 2351.681
3255.503, 2449.324
3257.432, 2578.339
3259.360, 2684.698
3261.289, 2816.036
3263.217, 2973.735
3265.146, 3109.610
3267.074, 3245.296
3269.003, 3405.857
3270.931, 3593.821
3272.860, 3789.760
3274.788, 3950.427
3276.717, 4118.590
3278.645, 4308.296
3280.573, 4512.736
3282.502, 4756.326
3284.430, 5020.427
3286.359, 5328.946
3288.287, 5709.547
3290.216, 6171.777
3292.144, 6659.652
3294.073, 7248.216
3296.001, 7926.798
3297.930, 8610.954
3299.858, 9276.459
3301.787, 9959.479
3303.715, 10569.31
3305.644, 10976.62
3307.572, 11220.56
3309.500, 11269.80
3311.429, 11244.47
3313.357, 11222.99
3315.286, 11158.67
3317.214, 11134.41
3319.143, 11142.73
3321.071, 11222.41
3323.000, 11448.35
3324.928, 11714.29
3326.857, 11879.76
3328.785, 12008.40
3330.714, 12141.27
3332.642, 12094.54
3334.571, 11869.61
3336.499, 11505.22
3338.427, 11029.09
3340.356, 10429.50
3342.284, 9921.143
3344.213, 9431.534
3346.141, 8959.274
3348.070, 8548.610
3349.998, 8137.494
3351.927, 7865.393
3353.855, 7631.261
3355.784, 7368.196
3357.712, 7110.994
3359.641, 6786.716
3361.569, 6505.636
3363.498, 6254.222
3365.426, 5981.242
3367.354, 5752.198
3369.283, 5557.547
3371.211, 5357.724
3373.140, 5168.736
3375.068, 5077.258
3376.997, 5029.362
3378.925, 5002.801
3380.854, 5016.639
3382.782, 5066.758
3384.711, 5065.653
3386.639, 5155.371
3388.568, 5191.645
3390.496, 5171.864
3392.425, 5205.243
3394.353, 5187.026
3396.281, 5176.636
3398.210, 5155.368
3400.138, 5099.512
3402.067, 4988.501
3403.995, 4931.671
3405.924, 4824.926
3407.852, 4722.727
3409.781, 4701.707
3411.709, 4591.064
3413.638, 4486.792
3415.566, 4414.326
3417.495, 4340.609
3419.423, 4265.649
3421.352, 4172.826
3423.280, 4130.780
3425.208, 4042.834
3427.137, 3963.626
3429.065, 3853.928
3430.994, 3747.412
3432.922, 3617.856
3434.851, 3481.646
3436.779, 3355.191
3438.708, 3220.682
3440.636, 3091.534
3442.565, 2959.285
3444.493, 2838.507
3446.422, 2718.268
3448.350, 2604.089
3450.279, 2508.337
3452.207, 2381.426
3454.135, 2246.326
3456.064, 2150.544
3457.992, 2068.483
3459.921, 1941.433
3461.849, 1851.536
3463.778, 1799.623
3465.706, 1725.254
3467.635, 1639.997
3469.563, 1571.008
3471.492, 1515.995
3473.420, 1475.974
3475.349, 1421.895
3477.277, 1369.768
3479.206, 1330.725
3481.134, 1290.430
3483.063, 1237.294
3484.991, 1203.010
3486.919, 1144.926
3488.848, 1130.440
3490.776, 1110.913
3492.705, 1069.353
3494.633, 1032.077
3496.562, 1036.599
3498.490, 999.0033
3500.419, 966.5010
3502.347, 964.6917
3504.276, 980.0619
3506.204, 944.7823
3508.133, 921.8148
3510.061, 902.9526
3511.990, 884.8231
3513.918, 873.7573
3515.846, 854.2387
3517.775, 827.9736
3519.703, 816.6082
3521.632, 792.7761
3523.560, 764.8934
3525.489, 752.9719
3527.417, 740.6409
3529.346, 720.7970
3531.274, 705.7280
3533.203, 698.2697
3535.131, 678.0483
3537.060, 654.2911
3538.988, 644.9276
3540.917, 625.7556
3542.845, 608.5593
3544.773, 592.6122
3546.702, 580.4022
3548.630, 559.5028
3550.559, 545.8961
3552.487, 536.2387
3554.416, 534.7009
3556.344, 521.2831
3558.273, 508.3133
3560.201, 494.7772
3562.130, 480.5306
3564.058, 465.8947
3565.987, 443.7942
3567.915, 429.4312
3569.844, 437.2140
3571.772, 438.8628
3573.700, 419.9017
3575.629, 404.0140
3577.557, 403.4662
3579.486, 397.5247
3581.414, 388.4386
3583.343, 380.0534
3585.271, 373.0676
3587.200, 367.8658
3589.128, 360.1041
3591.057, 348.5196
3592.985, 346.8751
3594.914, 334.1472
3596.842, 327.5341
3598.771, 316.1959
3600.699, 306.6322
3602.627, 293.4970
3604.556, 283.1210
3606.484, 271.3258
3608.413, 253.4270
3610.341, 249.9899
3612.270, 260.5682
3614.198, 259.1154
3616.127, 241.7744
3618.055, 238.1373
3619.984, 214.0385
3621.912, 206.7728
3623.841, 208.4717
3625.769, 210.1847
3627.698, 207.5555
3629.626, 197.4767
3631.554, 207.4196
3633.483, 188.4929
3635.411, 180.6142
3637.340, 185.4740
3639.268, 178.9967
3641.197, 180.3849
3643.125, 170.9782
3645.054, 166.7661
3646.982, 167.6543
3648.911, 165.8930
3650.839, 157.0041
3652.768, 153.4283
3654.696, 152.5720
3656.625, 136.5667
3658.553, 125.3870
3660.481, 132.6658
3662.410, 122.8241
3664.338, 122.0864
3666.267, 119.0107
3668.195, 110.7670
3670.124, 105.3846
3672.052, 108.6898
3673.981, 108.5013
3675.909, 103.2272
3677.838, 100.8845
3679.766, 100.2976
3681.695, 94.71938
3683.623, 88.99503
3685.552, 93.14639
3687.480, 84.10518
3689.408, 82.82870
3691.337, 76.63402
3693.265, 76.12299
3695.194, 79.90688
3697.122, 75.31800
3699.051, 76.82018
3700.979, 64.72467
3702.908, 73.40870
3704.836, 68.42140
3706.765, 60.96923
3708.693, 70.34666
3710.622, 59.73985
3712.550, 63.74493
3714.479, 60.85052
3716.407, 60.28931
3718.335, 59.87120
3720.264, 54.95916
3722.192, 52.61415
3724.121, 54.04878
3726.049, 58.20797
3727.978, 56.39272
3729.906, 48.71223
3731.835, 42.83140
3733.763, 45.92242
3735.692, 48.47608
3737.620, 48.62993
3739.549, 51.03080
3741.477, 45.98015
3743.406, 53.38047
3745.334, 49.20823
3747.262, 49.32230
3749.191, 39.03306
3751.119, 41.68027
3753.048, 39.94350
3754.976, 36.02814
3756.905, 35.23695
3758.833, 41.22030
3760.762, 37.47818
3762.690, 36.61570
3764.619, 41.21721
3766.547, 33.23737
3768.476, 27.85412
3770.404, 33.14532
3772.333, 28.26360
3774.261, 36.99806
3776.189, 33.92869
3778.118, 26.30920
3780.046, 32.02188
3781.975, 37.26556
3783.903, 30.14585
3785.832, 33.05986
3787.760, 33.68849
3789.689, 31.83178
3791.617, 23.34622
3793.546, 19.75711
3795.474, 25.55910
3797.403, 33.02100
3799.331, 29.60774
3801.260, 33.85740
3803.188, 33.59072
3805.116, 26.68715
3807.045, 22.05960
3808.973, 24.27954
3810.902, 26.49535
3812.830, 13.13315
3814.759, 21.42245
3816.687, 20.24906
3818.616, 25.48397
3820.544, 28.62040
3822.473, 23.40964
3824.401, 16.90138
3826.330, 20.76322
3828.258, 17.00747
3830.187, 20.01848
3832.115, 18.23557
3834.043, 18.08667
3835.972, 21.32854
3837.900, 23.49327
3839.829, 23.18594
3841.757, 18.93777
3843.686, 24.11168
3845.614, 23.23626
3847.543, 25.71625
3849.471, 20.95546
3851.400, 26.63911
3853.328, 20.27524
3855.257, 17.79611
3857.185, 34.49079
3859.114, 27.32062
3861.042, 27.74533
3862.970, 21.85639
3864.899, 15.48624
3866.827, 16.65201
3868.756, 21.91211
3870.684, 28.27171
3872.613, 20.47374
3874.541, 30.41564
3876.470, 21.86690
3878.398, 17.26970
3880.327, 20.82029
3882.255, 20.99468
3884.184, 16.93964
3886.112, 21.04469
3888.041, 24.27172
3889.969, 18.30228
3891.897, 17.01233
3893.826, 16.73026
3895.754, 16.01769
3897.683, 16.47228
3899.611, 15.81229
3901.540, 14.85854
3903.468, 8.500802
3905.397, 11.99785
3907.325, 9.532382
3909.254, 16.57188
3911.182, 11.94981
3913.111, 14.50098
3915.039, 21.65791
3916.968, 20.98438
3918.896, 16.31530
3920.824, 14.65615
3922.753, 22.33770
3924.681, 13.45302
3926.610, 12.14927
3928.538, 19.93183
3930.467, 23.22391
3932.395, 26.72216
3934.324, 17.51492
3936.252, 11.61954
3938.181, 11.04041
3940.109, 7.673851
3942.038, 15.07317
3943.966, 9.967459
3945.895, 13.21519
3947.823, 19.43943
3949.751, 12.45796
3951.680, 13.23355
3953.608, 8.788685
3955.537, 17.24829
3957.465, 21.63795
3959.394, 16.70444
3961.322, 15.27755
3963.251, 18.66587
3965.179, 18.55499
3967.108, 17.53107
3969.036, 16.74542
3970.965, 16.06265
3972.893, 17.45084
3974.822, 16.20687
3976.750, 17.09680
3978.678, 20.35531
3980.607, 16.13338
3982.535, 9.827143
3984.464, 14.01237
3986.392, 18.62750
3988.321, 13.30944
3990.249, 16.70895
3992.178, 17.23747
3994.106, 13.97879
3996.035, 13.08780
3997.963, 14.78450
3999.892, 14.28083
4001.820, 9.270363
4003.749, 6.620273
4005.677, 19.28403
4007.605, 13.54628
4009.534, 17.23692
4011.462, 12.47032
4013.391, 11.84391
4015.319, 15.08599
4017.248, 15.73075
4019.176, 16.40154
4021.105, 19.75474
4023.033, 18.05404
4024.962, 17.56534
4026.890, 16.12245
4028.819, 14.12651
4030.747, 13.22125
4032.676, 12.58193
4034.604, 12.47216
4036.532, 16.13560
4038.461, 21.22898
4040.389, 17.90002
4042.318, 17.48939
4044.246, 26.83397
4046.175, 14.46455
4048.103, 14.00743
4050.032, 15.63512
4051.960, 19.07431
4053.889, 17.94147
4055.817, 17.20903
4057.746, 19.02196
4059.674, 13.62396
4061.603, 23.46927
4063.531, 20.26116
4065.459, 27.50575
4067.388, 30.93229
4069.316, 35.00211
4071.245, 33.68634
4073.173, 31.25647
4075.102, 37.95931
4077.030, 44.98197
4078.959, 43.39332
4080.887, 49.84653
4082.816, 50.25404
4084.744, 48.99896
4086.673, 48.67878
4088.601, 60.00050
4090.530, 61.16672
4092.458, 57.51655
4094.386, 54.74234
4096.315, 50.71722
4098.243, 52.18847
4100.172, 49.52263
4102.101, 49.46533
4104.029, 49.29444
4105.957, 45.47275
4107.886, 48.37667
4109.814, 51.16224
4111.743, 44.25822
4113.671, 43.85283
4115.600, 35.13058
4117.528, 33.77735
4119.457, 42.12523
4121.385, 40.66312
4123.313, 29.17649
4125.242, 23.45427
4127.170, 31.76558
4129.099, 34.72365
4131.027, 36.69360
4132.956, 32.51712
4134.884, 32.95787
4136.813, 22.39577
4138.741, 17.47910
4140.670, 17.42847
4142.598, 24.13099
4144.526, 19.62304
4146.455, 29.68478
4148.384, 19.81715
4150.312, 20.86536
4152.240, 25.62006
4154.169, 28.94023
4156.098, 28.80523
4158.026, 23.63503
4159.954, 28.76487
4161.883, 28.24689
4163.812, 28.31160
4165.740, 32.09479
4167.668, 36.95344
4169.597, 39.89360
4171.525, 35.99607
4173.454, 26.44629
4175.382, 24.82842
4177.311, 23.41294
4179.239, 30.85274
4181.167, 29.71768
4183.096, 38.48433
4185.024, 33.69033
4186.953, 31.78617
4188.881, 30.68521
4190.810, 30.74203
4192.738, 31.62357
4194.667, 39.61360
4196.595, 44.05219
4198.523, 38.10849
4200.452, 34.98649
4202.381, 30.40886
4204.309, 31.58585
4206.237, 39.64722
4208.166, 28.28281
4210.095, 38.99912
4212.023, 42.81126
4213.951, 37.80948
4215.880, 31.64774
4217.809, 47.37035
4219.737, 45.49429
4221.665, 40.37422
4223.594, 41.49863
4225.522, 42.52311
4227.451, 48.76351
4229.379, 54.47128
4231.308, 47.66823
4233.236, 44.94339
4235.165, 44.87665
4237.093, 53.97174
4239.021, 50.47541
4240.950, 57.50770
4242.878, 47.73111
4244.807, 48.47744
4246.735, 39.78088
4248.664, 47.48386
4250.592, 48.30762
4252.521, 47.79025
4254.449, 42.17994
4256.378, 40.39666
4258.306, 44.58169
4260.234, 43.95815
4262.163, 36.81793
4264.092, 32.58458
4266.020, 37.30971
4267.948, 32.27155
4269.877, 32.85807
4271.806, 32.73380
4273.734, 33.28804
4275.662, 38.29396
4277.591, 42.31527
4279.520, 41.90818
4281.448, 36.95732
4283.376, 41.40670
4285.305, 31.59374
4287.233, 29.32163
4289.162, 35.74815
4291.090, 35.66423
4293.019, 33.07643
4294.947, 33.31815
4296.875, 29.46772
4298.804, 22.46635
4300.732, 20.78386
4302.661, 26.93022
4304.589, 34.21072
4306.518, 28.69958
4308.446, 30.94885
4310.375, 20.61698
4312.303, 26.87108
4314.231, 28.31882
4316.160, 29.64904
4318.089, 38.03595
4320.017, 28.86345
4321.945, 22.34996
4323.874, 24.50417
4325.803, 19.77649
4327.731, 22.64864
4329.659, 19.53386
4331.588, 22.57674
4333.517, 26.99086
4335.445, 24.51805
4337.373, 18.61486
4339.302, 17.37889
4341.230, 11.80571
4343.159, 9.057820
4345.087, 12.31237
4347.016, 16.81878
4348.944, 18.29823
4350.873, 18.41669
4352.801, 25.68710
4354.729, 25.89359
4356.658, 12.15481
4358.586, 10.60535
4360.515, 12.08632
4362.443, 18.95085
4364.372, 14.97612
4366.300, 12.39497
4368.229, 20.45557
4370.157, 6.046084
4372.086, 17.06488
4374.014, 19.30672
4375.942, 15.50735
4377.871, 16.64479
4379.800, 12.69571
4381.728, 14.54610
4383.656, 17.61216
4385.585, 17.21213
4387.514, 13.41809
4389.442, 11.22542
4391.370, 11.51656
4393.299, 10.64139
4395.228, 11.82228
4397.156, 10.66554
4399.084, 11.41116
4401.013, 8.286510
4402.941, 13.29262
4404.870, 19.17013
4406.798, 16.10073
4408.727, 19.03341
4410.655, 8.622186
4412.583, 17.44000
4414.512, 13.85442
4416.440, 11.35350
4418.369, 16.54807
4420.297, 14.93055
4422.226, 15.87064
4424.154, 13.87749
4426.083, 13.54512
4428.011, 12.15076
4429.939, 10.47658
4431.868, 14.51149
4433.797, 7.664236
4435.725, 8.915384
4437.653, 14.96361
4439.582, 7.879234
4441.511, 7.823511
4443.439, 13.96749
4445.367, 17.89833
4447.296, 16.53852
4449.225, 18.60986
4451.153, 14.10472
4453.081, 14.13156
4455.010, 11.78192
4456.938, 3.508529
4458.867, -0.2866706
4460.795, 9.959337
4462.724, 7.048617
4464.652, 15.65023
4466.581, 14.99211
4468.509, 10.87469
4470.438, 10.83884
4472.366, 14.49223
4474.294, 9.163805
4476.223, 10.04165
4478.151, 5.492533
4480.080, 12.28411
4482.008, 10.00427
4483.937, 7.484302
4485.865, 3.961028
4487.794, 10.74540
4489.722, 12.91035
4491.650, 19.86877
4493.579, 11.64522
4495.508, 11.22814
4497.436, 7.934933
4499.364, 2.149379
4501.293, 3.404801
4503.222, 3.752572
4505.150, 14.69664
4507.078, 8.736949
4509.007, 10.24182
4510.936, 10.87503
4512.864, 8.955470
4514.792, 11.55684
4516.721, 10.46478
4518.649, 8.602212
4520.578, 13.18122
4522.506, 3.991714
4524.435, 0.2129104
4526.363, 10.25499
4528.292, 9.084599
4530.220, -1.465770
4532.148, 8.287984
4534.077, 12.64209
4536.005, 4.040268
4537.934, -3.714278
4539.862, 2.396147
4541.791, 12.53201
4543.719, 5.963372
4545.647, 8.541718
4547.576, 10.47087
4549.505, -3.957995
4551.433, -8.073083
4553.361, -8.507937
4555.290, -3.096401
4557.219, 6.492287
4559.147, 10.89014
4561.075, 1.874768
4563.004, -7.326234
4564.933, -2.576982
4566.861, -18.82211
4568.789, -11.38728
4570.718, 17.97157
4572.646, 14.42927
4574.575, -2.550535
4576.503, 1.731809
4578.432, -9.478856
4580.360, -3.991820
4582.289, 8.131238
4584.217, 6.471775
4586.146, 10.16778
4588.074, 2.427769
4590.002, -1.451161
4591.931, 0.2131137
4593.859, 7.688648
4595.788, 7.346174
4597.716, 9.070418
4599.645, 1.636183
4601.573, 10.90508
4603.502, 6.020941
4605.430, 15.50828
4607.358, 6.372450
4609.287, 4.360944
4611.216, 4.629199
4613.144, 8.515961
4615.072, 5.674505
4617.001, 4.169265
4618.930, 7.699809
4620.858, 16.14530
4622.786, 10.22002
4624.715, 1.237542
4626.644, 2.700291
4628.572, 2.589067
4630.500, 4.402191
4632.429, 9.474116
4634.357, 11.82663
4636.286, 3.083935
4638.214, -3.804044
4640.143, 1.759409
4642.071, 2.080273
4644.000, 12.72551
4645.928, 5.038456
4647.856, -8.991544
4649.785, 8.695438
4651.713, 3.969576
4653.642, -5.654617
4655.570, 4.302664
4657.499, -11.43586
4659.427, 7.638631
4661.355, 5.977057
4663.284, 7.394153
4665.213, 5.193585
4667.141, 13.82295
4669.069, -6.439969
4670.998, 0.8709804
4672.927, 5.732644
4674.855, 1.920924
4676.783, -5.926109
4678.712, -7.040123
4680.641, -0.2431238
4682.569, -2.105456
4684.497, 23.58511
4686.426, 27.03289
4688.354, -1.890212
4690.283, 5.049913
4692.211, 7.792988
4694.140, -4.653005
4696.068, 0.4719993
4697.997, 18.95293
4699.925, 2.481387
4701.854, 7.333599
4703.782, 17.04625
4705.710, 12.55791
4707.639, 17.52948
4709.567, 10.55744
4711.496, -2.639191
4713.424, 11.38200
4715.353, 9.964862
4717.281, -5.791955
4719.210, 13.48392
4721.138, 16.04967
4723.066, 12.53433
4724.995, 5.465443
4726.924, 2.840223
4728.852, 4.673642
4730.780, -0.1992566
4732.709, 9.473578
4734.638, 12.57593
4736.566, -7.343116
4738.494, 0.2294884
4740.423, 9.414451
4742.352, 18.82315
4744.280, 13.76886
4746.208, 10.10474
4748.137, 8.504003
4750.065, 8.801127
4751.994, -7.373753
4753.922, 2.742823
4755.851, -3.012135
4757.779, 9.205869
4759.708, -6.827301
4761.636, 15.36120
4763.564, 1.009714
4765.493, 7.283086
4767.421, 12.69276
4769.350, 15.71649
4771.278, 8.286801
4773.207, 3.153020
4775.135, -0.9627366
4777.063, -1.929497
4778.992, 12.55831
4780.921, 9.999027
4782.849, 16.94654
4784.777, 7.706371
4786.706, 0.3614631
4788.635, 20.91799
4790.563, -3.935781
4792.491, 11.00220
4794.420, 18.44204
4796.349, 5.681245
4798.277, 12.65654
4800.205, 11.61188
4802.134, 11.55949
4804.063, 3.355292
4805.991, 9.901121
4807.919, 3.859204
4809.848, 4.175447
4811.776, 16.87469
4813.705, -0.8467931
4815.633, 17.76372
4817.562, 8.434946
4819.490, 2.597195
4821.418, 15.47167
4823.347, 15.23163
4825.275, 11.58234
4827.204, 9.766356
4829.132, 4.815887
4831.061, 13.00931
4832.989, 14.15819
4834.918, -0.3098409
4836.846, 2.571011
4838.774, 14.94720
4840.703, 11.41656
4842.632, 8.016273
4844.560, 2.613931
4846.488, -5.338925
4848.417, 6.283109
4850.346, 8.732971
4852.274, 15.49829
4854.202, 25.09274
4856.131, 10.55355
4858.060, 16.61390
4859.988, 18.32869
4861.916, 13.83676
4863.845, 12.22840
4865.773, 9.798265
4867.702, 5.921870
4869.630, 12.50045
4871.559, 13.67661
4873.487, 0.7162426
4875.416, 0.1658766
4877.344, 13.14185
4879.272, 14.06960
4881.201, 6.013890
4883.129, 15.48588
4885.058, 16.84445
4886.986, 13.48779
4888.915, 14.78425
4890.843, 9.503239
4892.771, 11.73127
4894.700, 10.44345
4896.629, 19.65225
4898.557, 10.71485
4900.485, 20.13531
4902.414, 9.848508
4904.343, 7.499845
4906.271, 16.92674
4908.199, 4.402887
4910.128, 10.42202
4912.057, 18.17426
4913.985, 19.43866
4915.913, 5.386341
4917.842, -4.754236
4919.771, 11.58842
4921.699, 16.90077
4923.627, 15.72604
4925.556, 10.12117
4927.484, 12.79891
4929.413, 6.172107
4931.341, -0.3043633
4933.270, 14.42913
4935.198, 16.75575
4937.126, 11.80389
4939.055, 10.47006
4940.983, 5.355583
4942.912, 12.34886
4944.840, 11.81320
4946.769, 10.41766
4948.697, -3.003277
4950.626, 6.735988
4952.554, 12.43343
4954.482, 16.54280
4956.411, 14.16318
4958.340, -4.236708
4960.268, 14.56060
4962.196, -1.318162
4964.125, 2.960256
4966.054, 14.13448
4967.982, 13.82480
4969.910, 11.14933
4971.839, -0.5950174
4973.768, 2.507751
4975.696, 3.207099
4977.624, 6.381216
4979.553, 2.358994
4981.481, 10.21952
4983.410, 1.438088
4985.338, 6.727806
4987.267, 3.478114
4989.195, 6.068290
4991.124, 1.567904
4993.052, 11.14707
4994.980, 0.1166682
4996.909, 12.27083
4998.837, 6.449313
5000.766, 8.453830
5002.694, 6.633710
5004.623, 0.8730149
5006.551, 4.589845
5008.479, 0.1959284
5010.408, -2.295284
5012.337, 5.233712
5014.265, 16.86375
5016.193, 16.67775
5018.122, 12.72733
5020.051, 2.512629
5021.979, 6.160907
5023.907, 5.757864
5025.836, 15.39614
5027.765, 13.05261
5029.693, 16.33243
5031.621, 21.70547
5033.550, 0.6563001
5035.479, 4.368807
5037.407, 7.884468
5039.335, 10.43167
5041.264, 2.825927
5043.192, 7.319391
5045.121, 4.588199
5047.049, 14.53814
5048.978, 0.9976354
5050.906, 6.926998
5052.834, 5.545878
5054.763, 9.970207
5056.691, 7.917816
5058.620, 13.14052
5060.548, 18.45678
5062.477, 3.860759
5064.405, 9.378360
5066.334, 13.74423
5068.262, 9.319038
5070.190, 4.068824
5072.119, 14.99615
5074.048, 14.71334
5075.976, 15.12895
5077.904, 3.104458
5079.833, 8.332953
5081.762, 9.844577
5083.690, 9.231785
5085.618, 16.03309
5087.547, 15.32146
5089.476, 9.858910
5091.404, 15.17987
5093.332, 10.34878
5095.261, 15.75118
5097.189, -3.719895
5099.118, 6.546005
5101.046, 13.63530
5102.975, -0.9903839
5104.903, 6.253489
5106.832, 16.46093
5108.760, 4.358513
5110.688, 3.628396
5112.617, 2.741408
5114.545, 6.034298
5116.474, 9.606884
5118.402, 6.626371
5120.331, 9.715116
5122.259, 10.45330
5124.188, 8.555424
5126.116, 6.330790
5128.045, 12.04061
5129.973, 15.42173
5131.901, 6.755222
5133.830, 13.24868
5135.759, 5.721640
5137.687, 10.52564
5139.615, 17.14417
5141.544, 18.01682
5143.473, 1.851968
5145.401, 9.009346
5147.329, 20.63400
5149.258, 10.53721
5151.187, 3.329748
5153.115, 20.54871
5155.043, 15.34315
5156.972, 14.25104
5158.900, 5.973132
5160.829, 18.75506
5162.757, 0.7866841
5164.686, 4.331768
5166.614, -0.2271414
5168.542, 19.93820
5170.471, 12.55984
5172.399, 7.408578
5174.328, 11.56571
5176.256, 10.18563
5178.185, 15.11402
5180.113, -0.9390322
5182.042, 9.532008
5183.970, 2.451601
5185.898, 7.608063
5187.827, 0.8490087
5189.756, 12.31856
5191.684, 21.59989
5193.612, 10.24969
5195.541, 5.105462
5197.470, 11.32937
5199.398, 18.83123
5201.326, 4.369762
5203.255, -9.029150
5205.184, 9.916303
5207.112, 6.023969
5209.040, 15.87754
5210.969, 18.51713
5212.897, 15.79026
5214.826, 15.29239
5216.754, 9.536587
5218.683, 8.596546
5220.611, 13.83055
5222.540, 6.488163
5224.468, 7.038467
5226.396, 11.44112
5228.325, 5.818379
5230.253, 15.94592
5232.182, 5.938520
5234.110, 14.11941
5236.039, 9.738136
5237.967, 10.93056
5239.896, 10.51586
5241.824, 8.230325
5243.753, 17.27388
5245.681, 5.259605
5247.609, 10.56811
5249.538, 5.190707
5251.467, 18.24178
5253.395, 12.43699
5255.323, 15.76995
5257.252, 9.662472
5259.181, 9.810708
5261.109, 15.18720
5263.037, 19.82807
5264.966, 18.07251
5266.895, 0.5131130
5268.823, 12.92505
5270.751, 20.48528
5272.680, 20.29506
5274.608, 11.70145
5276.537, 20.91065
5278.465, 4.489830
5280.394, 14.02361
5282.322, 16.69320
5284.250, 16.00687
5286.179, 5.800301
5288.107, 11.97508
5290.036, 8.529424
5291.964, 7.365351
5293.893, 7.324361
5295.821, 6.691628
5297.750, 20.08388
5299.678, 19.13231
5301.606, 18.09702
5303.535, 7.450151
5305.464, 17.50453
5307.392, 17.43470
5309.320, 12.24953
5311.249, 16.81143
5313.178, 13.85875
5315.106, 9.828839
5317.034, 10.61216
5318.963, 17.35621
5320.892, 14.39078
5322.820, 13.41927
5324.748, 10.87285
5326.677, 12.16476
5328.605, 12.76027
5330.534, 6.538411
5332.462, 4.412565
5334.391, 12.59361
5336.319, -3.761329
5338.248, 5.920894
5340.176, 19.54881
5342.104, 5.903685
5344.033, 13.83847
5345.961, 14.85798
5347.890, 4.311765
5349.818, 15.17936
5351.747, 12.98768
5353.675, 5.575861
5355.604, 16.94695
5357.532, 18.04048
5359.461, -0.8301768
5361.389, 13.62250
5363.317, 16.30245
5365.246, 10.62979
5367.175, 13.61597
5369.103, 15.69604
5371.031, 4.022202
5372.960, 4.052215
5374.889, 14.01799
5376.817, 14.27976
5378.745, 5.391484
5380.674, 10.21627
5382.603, 1.960373
5384.531, 3.394671
5386.459, 7.172532
5388.388, 12.73446
5390.316, 6.900969
5392.245, -1.575710
5394.173, 14.83247
5396.102, 15.95232
5398.030, 0.2514508
5399.958, 17.21772
5401.887, 5.703417
5403.815, 10.63901
5405.744, 2.882103
5407.672, 1.508387
5409.601, 12.68272
5411.529, 3.444775
5413.458, 8.907666
5415.386, -7.943150
5417.314, -1.537086
5419.243, 10.36285
5421.172, 10.60031
5423.100, -0.1635053
5425.028, 8.192837
5426.957, 3.601629
5428.886, -0.7798863
5430.814, 0.5694182
5432.742, -1.156647
5434.671, 6.186766
5436.600, 11.95929
5438.528, 13.80512
5440.456, 20.08942
5442.385, 8.055355
5444.313, -2.995136
5446.242, 5.363895
5448.170, 0.3702461
5450.099, 5.845903
5452.027, 4.926903
5453.956, -4.978093
5455.884, -0.5251316
5457.813, 7.166451
5459.741, 15.83317
5461.669, 8.304397
5463.598, -1.0529170E-02
5465.526, -4.428259
5467.455, 17.55185
5469.383, 1.574501
5471.312, 10.12164
5473.240, 15.18886
5475.169, 7.888589
5477.097, 22.42372
5479.025, 6.723568
5480.954, 13.84958
5482.883, 10.62593
5484.811, -3.608766
5486.739, 4.296336
5488.668, -1.842681
5490.597, 6.862130
5492.525, -3.482348
5494.453, 17.30202
5496.382, 0.5181398
5498.311, 12.69159
5500.239, 15.70364
##END=



