##NAMES=Kuksite
##RRUFFID=R110039
##IDEAL CHEMISTRY=Pb_3_Zn_3_TeO_6_(PO_4_)_2_
##LOCALITY=Blue Bell claims, Baker, San Bernardino County, California, USA
##OWNER=RRUFF
##SOURCE=Brent Thorne
##DESCRIPTION=Pale-green short-primatic hexagonal crystals, associated with colorless elongated tabular hemimorphite and yellow to brown-yellow andradite.
##STATUS=The identification of this mineral has been confirmed only by single crystal X-ray diffraction
##URL=https://www.rruff.net/odr/rruff_sample/R110039
##DIFFRACTION SAMPLE DESCRIPTION=Single crystal, powder profile is calculated
##CELL PARAMETERS=a: 8.392 b: 8.392 c: 5.186 alpha: 90 beta: 90 gamma: 120 volume: 316.27 crystal system: hexagonal
##FILETYPE=Raman RAW
##RAMAN WAVELENGTH=532

1.019570e+002, 3.324430e+001
1.038855e+002, 3.303238e+001
1.058140e+002, 3.296546e+001
1.077424e+002, 3.325277e+001
1.096709e+002, 3.359868e+001
1.115994e+002, 3.367384e+001
1.135278e+002, 3.327482e+001
1.154563e+002, 3.297686e+001
1.173848e+002, 3.298938e+001
1.193132e+002, 3.338645e+001
1.212417e+002, 3.376142e+001
1.231702e+002, 3.416969e+001
1.250986e+002, 3.452471e+001
1.270271e+002, 3.466777e+001
1.289556e+002, 3.425637e+001
1.308840e+002, 3.400006e+001
1.328125e+002, 3.420850e+001
1.347410e+002, 3.515521e+001
1.366694e+002, 3.627338e+001
1.385979e+002, 3.725592e+001
1.405264e+002, 3.833743e+001
1.424548e+002, 4.033624e+001
1.443833e+002, 4.242682e+001
1.463118e+002, 4.593560e+001
1.482402e+002, 5.180395e+001
1.501687e+002, 5.805531e+001
1.520972e+002, 6.965865e+001
1.540257e+002, 8.787232e+001
1.559541e+002, 1.122372e+002
1.578826e+002, 1.432662e+002
1.598111e+002, 1.768353e+002
1.617395e+002, 2.181232e+002
1.636680e+002, 2.716948e+002
1.655965e+002, 3.383885e+002
1.675249e+002, 4.166712e+002
1.694534e+002, 5.059176e+002
1.713819e+002, 6.124394e+002
1.733103e+002, 7.172946e+002
1.752388e+002, 8.222186e+002
1.771673e+002, 8.905248e+002
1.790957e+002, 9.442038e+002
1.810242e+002, 9.876279e+002
1.829527e+002, 1.028322e+003
1.848811e+002, 1.068486e+003
1.868096e+002, 1.108313e+003
1.887381e+002, 1.148044e+003
1.906665e+002, 1.190996e+003
1.925950e+002, 1.235342e+003
1.945235e+002, 1.271249e+003
1.964519e+002, 1.299308e+003
1.983804e+002, 1.320784e+003
2.003089e+002, 1.334656e+003
2.022373e+002, 1.340160e+003
2.041658e+002, 1.344635e+003
2.060943e+002, 1.349958e+003
2.080227e+002, 1.355950e+003
2.099512e+002, 1.360778e+003
2.118797e+002, 1.364078e+003
2.138081e+002, 1.366236e+003
2.157366e+002, 1.367384e+003
2.176651e+002, 1.366557e+003
2.195935e+002, 1.366324e+003
2.215220e+002, 1.367432e+003
2.234505e+002, 1.369889e+003
2.253789e+002, 1.371734e+003
2.273074e+002, 1.372521e+003
2.292359e+002, 1.372638e+003
2.311643e+002, 1.372444e+003
2.330928e+002, 1.371810e+003
2.350213e+002, 1.370538e+003
2.369497e+002, 1.368538e+003
2.388782e+002, 1.365693e+003
2.408067e+002, 1.361933e+003
2.427351e+002, 1.357314e+003
2.446636e+002, 1.351805e+003
2.465921e+002, 1.345285e+003
2.485205e+002, 1.337565e+003
2.504490e+002, 1.329516e+003
2.523775e+002, 1.321285e+003
2.543059e+002, 1.313053e+003
2.562344e+002, 1.305406e+003
2.581629e+002, 1.298413e+003
2.600913e+002, 1.292283e+003
2.620198e+002, 1.287347e+003
2.639483e+002, 1.282779e+003
2.658767e+002, 1.280274e+003
2.678052e+002, 1.280684e+003
2.697337e+002, 1.283725e+003
2.716621e+002, 1.287296e+003
2.735906e+002, 1.290201e+003
2.755191e+002, 1.293252e+003
2.774475e+002, 1.297956e+003
2.793760e+002, 1.306120e+003
2.813045e+002, 1.311501e+003
2.832329e+002, 1.311895e+003
2.851614e+002, 1.306664e+003
2.870899e+002, 1.300384e+003
2.890183e+002, 1.294161e+003
2.909468e+002, 1.287115e+003
2.928753e+002, 1.278058e+003
2.948037e+002, 1.265572e+003
2.967322e+002, 1.254995e+003
2.986607e+002, 1.247193e+003
3.005891e+002, 1.242325e+003
3.025176e+002, 1.240702e+003
3.044461e+002, 1.242140e+003
3.063745e+002, 1.246507e+003
3.083030e+002, 1.253036e+003
3.102315e+002, 1.261661e+003
3.121599e+002, 1.272491e+003
3.140884e+002, 1.286064e+003
3.160169e+002, 1.302601e+003
3.179453e+002, 1.319111e+003
3.198738e+002, 1.338703e+003
3.218023e+002, 1.356416e+003
3.237307e+002, 1.369355e+003
3.256592e+002, 1.376057e+003
3.275877e+002, 1.379723e+003
3.295161e+002, 1.380757e+003
3.314446e+002, 1.378592e+003
3.333731e+002, 1.373323e+003
3.353015e+002, 1.362637e+003
3.372300e+002, 1.350093e+003
3.391585e+002, 1.337708e+003
3.410869e+002, 1.324572e+003
3.430154e+002, 1.312938e+003
3.449439e+002, 1.303392e+003
3.468723e+002, 1.295728e+003
3.488008e+002, 1.288958e+003
3.507293e+002, 1.283956e+003
3.526578e+002, 1.279312e+003
3.545862e+002, 1.274565e+003
3.565147e+002, 1.270034e+003
3.584432e+002, 1.264602e+003
3.603716e+002, 1.258104e+003
3.623001e+002, 1.250485e+003
3.642286e+002, 1.241755e+003
3.661570e+002, 1.229804e+003
3.680855e+002, 1.219125e+003
3.700140e+002, 1.211160e+003
3.719424e+002, 1.206494e+003
3.738709e+002, 1.202928e+003
3.757994e+002, 1.200428e+003
3.777278e+002, 1.199278e+003
3.796563e+002, 1.199567e+003
3.815848e+002, 1.201713e+003
3.835132e+002, 1.204912e+003
3.854417e+002, 1.208800e+003
3.873702e+002, 1.213548e+003
3.892986e+002, 1.219642e+003
3.912271e+002, 1.227769e+003
3.931556e+002, 1.236783e+003
3.950840e+002, 1.245980e+003
3.970125e+002, 1.255629e+003
3.989410e+002, 1.265212e+003
4.008694e+002, 1.274996e+003
4.027979e+002, 1.284734e+003
4.047264e+002, 1.293908e+003
4.066548e+002, 1.302007e+003
4.085833e+002, 1.310013e+003
4.105118e+002, 1.318174e+003
4.124402e+002, 1.326242e+003
4.143687e+002, 1.334982e+003
4.162972e+002, 1.344462e+003
4.182256e+002, 1.354652e+003
4.201541e+002, 1.365546e+003
4.220826e+002, 1.377814e+003
4.240110e+002, 1.389933e+003
4.259395e+002, 1.401871e+003
4.278680e+002, 1.413675e+003
4.297964e+002, 1.424651e+003
4.317249e+002, 1.435412e+003
4.336534e+002, 1.444807e+003
4.355818e+002, 1.452187e+003
4.375103e+002, 1.457180e+003
4.394388e+002, 1.460610e+003
4.413672e+002, 1.462627e+003
4.432957e+002, 1.463068e+003
4.452242e+002, 1.461721e+003
4.471526e+002, 1.458426e+003
4.490811e+002, 1.453687e+003
4.510096e+002, 1.447323e+003
4.529380e+002, 1.439321e+003
4.548665e+002, 1.432197e+003
4.567950e+002, 1.425966e+003
4.587234e+002, 1.420904e+003
4.606519e+002, 1.417756e+003
4.625804e+002, 1.416994e+003
4.645089e+002, 1.416144e+003
4.664373e+002, 1.414355e+003
4.683658e+002, 1.411837e+003
4.702943e+002, 1.409350e+003
4.722227e+002, 1.407771e+003
4.741512e+002, 1.405136e+003
4.760797e+002, 1.399903e+003
4.780081e+002, 1.392178e+003
4.799366e+002, 1.385299e+003
4.818651e+002, 1.380324e+003
4.837935e+002, 1.376571e+003
4.857220e+002, 1.373547e+003
4.876505e+002, 1.371211e+003
4.895789e+002, 1.370040e+003
4.915074e+002, 1.369711e+003
4.934359e+002, 1.370629e+003
4.953643e+002, 1.373537e+003
4.972928e+002, 1.378744e+003
4.992213e+002, 1.385352e+003
5.011497e+002, 1.393243e+003
5.030782e+002, 1.403190e+003
5.050067e+002, 1.411599e+003
5.069351e+002, 1.417016e+003
5.088636e+002, 1.421955e+003
5.107921e+002, 1.428797e+003
5.127205e+002, 1.438324e+003
5.146490e+002, 1.448501e+003
5.165775e+002, 1.458617e+003
5.185059e+002, 1.468921e+003
5.204344e+002, 1.480496e+003
5.223629e+002, 1.495220e+003
5.242913e+002, 1.508782e+003
5.262198e+002, 1.519952e+003
5.281483e+002, 1.528876e+003
5.300767e+002, 1.534161e+003
5.320052e+002, 1.534225e+003
5.339337e+002, 1.531789e+003
5.358621e+002, 1.528831e+003
5.377906e+002, 1.525754e+003
5.397191e+002, 1.521541e+003
5.416475e+002, 1.515112e+003
5.435760e+002, 1.507342e+003
5.455045e+002, 1.499850e+003
5.474329e+002, 1.492919e+003
5.493614e+002, 1.485456e+003
5.512899e+002, 1.476736e+003
5.532183e+002, 1.466682e+003
5.551468e+002, 1.457534e+003
5.570753e+002, 1.450929e+003
5.590037e+002, 1.444137e+003
5.609322e+002, 1.435657e+003
5.628607e+002, 1.425046e+003
5.647891e+002, 1.414923e+003
5.667176e+002, 1.405062e+003
5.686461e+002, 1.396094e+003
5.705745e+002, 1.388992e+003
5.725030e+002, 1.384049e+003
5.744315e+002, 1.379725e+003
5.763599e+002, 1.375223e+003
5.782884e+002, 1.370702e+003
5.802169e+002, 1.367438e+003
5.821453e+002, 1.364559e+003
5.840738e+002, 1.363541e+003
5.860023e+002, 1.365738e+003
5.879307e+002, 1.370982e+003
5.898592e+002, 1.375495e+003
5.917877e+002, 1.377514e+003
5.937161e+002, 1.379654e+003
5.956447e+002, 1.384115e+003
5.975731e+002, 1.394012e+003
5.995016e+002, 1.399935e+003
6.014301e+002, 1.401577e+003
6.033585e+002, 1.399263e+003
6.052870e+002, 1.393346e+003
6.072155e+002, 1.382999e+003
6.091439e+002, 1.371772e+003
6.110724e+002, 1.360039e+003
6.130009e+002, 1.348027e+003
6.149293e+002, 1.337262e+003
6.168578e+002, 1.327245e+003
6.187863e+002, 1.318493e+003
6.207147e+002, 1.311058e+003
6.226432e+002, 1.304958e+003
6.245717e+002, 1.300788e+003
6.265001e+002, 1.299702e+003
6.284286e+002, 1.300077e+003
6.303571e+002, 1.301181e+003
6.322855e+002, 1.303799e+003
6.342140e+002, 1.306130e+003
6.361425e+002, 1.307099e+003
6.380709e+002, 1.308493e+003
6.399994e+002, 1.312413e+003
6.419279e+002, 1.319396e+003
6.438563e+002, 1.326047e+003
6.457848e+002, 1.329945e+003
6.477133e+002, 1.332669e+003
6.496417e+002, 1.337818e+003
6.515702e+002, 1.346530e+003
6.534987e+002, 1.356063e+003
6.554271e+002, 1.366338e+003
6.573556e+002, 1.377189e+003
6.592841e+002, 1.387752e+003
6.612125e+002, 1.397084e+003
6.631410e+002, 1.407878e+003
6.650695e+002, 1.421107e+003
6.669979e+002, 1.437030e+003
6.689264e+002, 1.455273e+003
6.708549e+002, 1.475518e+003
6.727833e+002, 1.498083e+003
6.747118e+002, 1.522847e+003
6.766403e+002, 1.549238e+003
6.785687e+002, 1.580236e+003
6.804972e+002, 1.617063e+003
6.824257e+002, 1.658535e+003
6.843541e+002, 1.704099e+003
6.862826e+002, 1.756266e+003
6.882111e+002, 1.809573e+003
6.901395e+002, 1.866297e+003
6.920680e+002, 1.923285e+003
6.939965e+002, 1.976872e+003
6.959249e+002, 2.027962e+003
6.978534e+002, 2.073150e+003
6.997819e+002, 2.109290e+003
7.017103e+002, 2.138956e+003
7.036388e+002, 2.169002e+003
7.055673e+002, 2.195965e+003
7.074957e+002, 2.227148e+003
7.094242e+002, 2.262875e+003
7.113527e+002, 2.304460e+003
7.132811e+002, 2.354081e+003
7.152096e+002, 2.410529e+003
7.171381e+002, 2.478098e+003
7.190665e+002, 2.558267e+003
7.209950e+002, 2.651277e+003
7.229235e+002, 2.751643e+003
7.248519e+002, 2.874508e+003
7.267804e+002, 2.990989e+003
7.287089e+002, 3.096081e+003
7.306373e+002, 3.189994e+003
7.325658e+002, 3.237781e+003
7.344943e+002, 3.228871e+003
7.364227e+002, 3.172853e+003
7.383512e+002, 3.072450e+003
7.402797e+002, 2.910451e+003
7.422081e+002, 2.742070e+003
7.441366e+002, 2.555151e+003
7.460651e+002, 2.370406e+003
7.479935e+002, 2.204128e+003
7.499220e+002, 2.055237e+003
7.518505e+002, 1.923336e+003
7.537789e+002, 1.810847e+003
7.557074e+002, 1.715261e+003
7.576359e+002, 1.636058e+003
7.595643e+002, 1.577599e+003
7.614928e+002, 1.530218e+003
7.634213e+002, 1.495431e+003
7.653497e+002, 1.470513e+003
7.672782e+002, 1.451905e+003
7.692067e+002, 1.439462e+003
7.711351e+002, 1.432325e+003
7.730636e+002, 1.431720e+003
7.749921e+002, 1.435998e+003
7.769205e+002, 1.443253e+003
7.788490e+002, 1.453704e+003
7.807775e+002, 1.466967e+003
7.827059e+002, 1.482979e+003
7.846344e+002, 1.501659e+003
7.865629e+002, 1.522918e+003
7.884913e+002, 1.547341e+003
7.904198e+002, 1.572746e+003
7.923483e+002, 1.599584e+003
7.942767e+002, 1.627105e+003
7.962052e+002, 1.652785e+003
7.981337e+002, 1.673511e+003
8.000621e+002, 1.696676e+003
8.019906e+002, 1.723013e+003
8.039191e+002, 1.752958e+003
8.058475e+002, 1.787732e+003
8.077760e+002, 1.828156e+003
8.097045e+002, 1.871090e+003
8.116329e+002, 1.915228e+003
8.135614e+002, 1.960513e+003
8.154899e+002, 2.008107e+003
8.174183e+002, 2.062770e+003
8.193468e+002, 2.113736e+003
8.212753e+002, 2.160282e+003
8.232037e+002, 2.201470e+003
8.251322e+002, 2.233263e+003
8.270607e+002, 2.259423e+003
8.289891e+002, 2.273434e+003
8.309176e+002, 2.271627e+003
8.328461e+002, 2.256268e+003
8.347745e+002, 2.229099e+003
8.367030e+002, 2.184248e+003
8.386315e+002, 2.134890e+003
8.405599e+002, 2.082359e+003
8.424884e+002, 2.027496e+003
8.444169e+002, 1.977156e+003
8.463453e+002, 1.929880e+003
8.482738e+002, 1.887446e+003
8.502023e+002, 1.851840e+003
8.521307e+002, 1.821496e+003
8.540592e+002, 1.792444e+003
8.559877e+002, 1.765595e+003
8.579161e+002, 1.738195e+003
8.598446e+002, 1.709633e+003
8.617731e+002, 1.679971e+003
8.637015e+002, 1.649037e+003
8.656300e+002, 1.613906e+003
8.675585e+002, 1.581007e+003
8.694869e+002, 1.552755e+003
8.714154e+002, 1.528424e+003
8.733439e+002, 1.505779e+003
8.752723e+002, 1.484917e+003
8.772008e+002, 1.465892e+003
8.791293e+002, 1.448096e+003
8.810577e+002, 1.431983e+003
8.829862e+002, 1.419511e+003
8.849147e+002, 1.411848e+003
8.868431e+002, 1.406589e+003
8.887716e+002, 1.403639e+003
8.907001e+002, 1.402835e+003
8.926285e+002, 1.403320e+003
8.945570e+002, 1.404677e+003
8.964855e+002, 1.407854e+003
8.984139e+002, 1.413525e+003
9.003424e+002, 1.421123e+003
9.022709e+002, 1.429621e+003
9.041993e+002, 1.437652e+003
9.061278e+002, 1.448803e+003
9.080563e+002, 1.464464e+003
9.099847e+002, 1.483231e+003
9.119132e+002, 1.502780e+003
9.138417e+002, 1.523847e+003
9.157701e+002, 1.543435e+003
9.176986e+002, 1.560858e+003
9.196271e+002, 1.576251e+003
9.215555e+002, 1.589593e+003
9.234840e+002, 1.600057e+003
9.254125e+002, 1.611773e+003
9.273410e+002, 1.624783e+003
9.292695e+002, 1.640276e+003
9.311979e+002, 1.658976e+003
9.331264e+002, 1.678668e+003
9.350549e+002, 1.707394e+003
9.369833e+002, 1.748763e+003
9.389118e+002, 1.797204e+003
9.408403e+002, 1.848180e+003
9.427687e+002, 1.901649e+003
9.446972e+002, 1.955833e+003
9.466257e+002, 2.014651e+003
9.485541e+002, 2.070104e+003
9.504826e+002, 2.120276e+003
9.524111e+002, 2.169385e+003
9.543395e+002, 2.194732e+003
9.562680e+002, 2.198546e+003
9.581965e+002, 2.180276e+003
9.601249e+002, 2.132951e+003
9.620534e+002, 2.058615e+003
9.639819e+002, 1.979394e+003
9.659103e+002, 1.889150e+003
9.678388e+002, 1.803850e+003
9.697673e+002, 1.728847e+003
9.716957e+002, 1.663756e+003
9.736242e+002, 1.610120e+003
9.755527e+002, 1.573124e+003
9.774811e+002, 1.543197e+003
9.794096e+002, 1.520435e+003
9.813381e+002, 1.503990e+003
9.832665e+002, 1.490830e+003
9.851950e+002, 1.481274e+003
9.871235e+002, 1.474166e+003
9.890519e+002, 1.470624e+003
9.909804e+002, 1.468711e+003
9.929089e+002, 1.465799e+003
9.948373e+002, 1.461395e+003
9.967658e+002, 1.456679e+003
9.986943e+002, 1.450597e+003
1.000623e+003, 1.444810e+003
1.002551e+003, 1.441172e+003
1.004480e+003, 1.441202e+003
1.006408e+003, 1.440221e+003
1.008337e+003, 1.437104e+003
1.010265e+003, 1.434180e+003
1.012194e+003, 1.433345e+003
1.014122e+003, 1.434472e+003
1.016050e+003, 1.436010e+003
1.017979e+003, 1.438537e+003
1.019907e+003, 1.440401e+003
1.021836e+003, 1.440119e+003
1.023764e+003, 1.437829e+003
1.025693e+003, 1.437311e+003
1.027621e+003, 1.440470e+003
1.029550e+003, 1.443096e+003
1.031478e+003, 1.443441e+003
1.033407e+003, 1.442603e+003
1.035335e+003, 1.443775e+003
1.037264e+003, 1.447727e+003
1.039192e+003, 1.451741e+003
1.041120e+003, 1.455250e+003
1.043049e+003, 1.458476e+003
1.044977e+003, 1.461378e+003
1.046906e+003, 1.463631e+003
1.048834e+003, 1.467125e+003
1.050763e+003, 1.473780e+003
1.052691e+003, 1.480581e+003
1.054620e+003, 1.485803e+003
1.056548e+003, 1.489506e+003
1.058477e+003, 1.491536e+003
1.060405e+003, 1.491231e+003
1.062334e+003, 1.490275e+003
1.064262e+003, 1.489789e+003
1.066191e+003, 1.489281e+003
1.068119e+003, 1.486855e+003
1.070047e+003, 1.481851e+003
1.071976e+003, 1.475736e+003
1.073904e+003, 1.469432e+003
1.075833e+003, 1.462123e+003
1.077761e+003, 1.452204e+003
1.079690e+003, 1.438875e+003
1.081618e+003, 1.424567e+003
1.083547e+003, 1.408882e+003
1.085475e+003, 1.393180e+003
1.087404e+003, 1.378364e+003
1.089332e+003, 1.364070e+003
1.091261e+003, 1.352846e+003
1.093189e+003, 1.345963e+003
1.095118e+003, 1.340929e+003
1.097046e+003, 1.336803e+003
1.098975e+003, 1.333401e+003
1.100903e+003, 1.330505e+003
1.102832e+003, 1.328720e+003
1.104760e+003, 1.326159e+003
1.106688e+003, 1.321365e+003
1.108617e+003, 1.315672e+003
1.110545e+003, 1.311763e+003
1.112474e+003, 1.311276e+003
1.114402e+003, 1.310143e+003
1.116331e+003, 1.307162e+003
1.118259e+003, 1.304222e+003
1.120188e+003, 1.303523e+003
1.122116e+003, 1.305370e+003
1.124045e+003, 1.305731e+003
1.125973e+003, 1.302432e+003
1.127902e+003, 1.299547e+003
1.129830e+003, 1.299476e+003
1.131759e+003, 1.301315e+003
1.133687e+003, 1.302659e+003
1.135615e+003, 1.303189e+003
1.137544e+003, 1.303511e+003
1.139472e+003, 1.304169e+003
1.141401e+003, 1.304698e+003
1.143329e+003, 1.304445e+003
1.145258e+003, 1.303240e+003
1.147186e+003, 1.301783e+003
1.149115e+003, 1.299545e+003
1.151043e+003, 1.297527e+003
1.152972e+003, 1.296669e+003
1.154900e+003, 1.296740e+003
1.156829e+003, 1.295766e+003
1.158757e+003, 1.292782e+003
1.160686e+003, 1.290120e+003
1.162614e+003, 1.289039e+003
1.164542e+003, 1.288936e+003
1.166471e+003, 1.288960e+003
1.168399e+003, 1.289361e+003
1.170328e+003, 1.289463e+003
1.172256e+003, 1.288718e+003
1.174185e+003, 1.288050e+003
1.176113e+003, 1.288058e+003
1.178042e+003, 1.288709e+003
1.179970e+003, 1.289679e+003
1.181899e+003, 1.291042e+003
1.183827e+003, 1.292329e+003
1.185756e+003, 1.293542e+003
1.187684e+003, 1.294482e+003
1.189613e+003, 1.294626e+003
1.191541e+003, 1.293691e+003
1.193469e+003, 1.293405e+003
1.195398e+003, 1.295075e+003
1.197326e+003, 1.297124e+003
1.199255e+003, 1.298053e+003
1.201183e+003, 1.297825e+003
1.203112e+003, 1.298513e+003
1.205040e+003, 1.301415e+003
1.206969e+003, 1.303550e+003
1.208897e+003, 1.302958e+003
1.210826e+003, 1.300746e+003
1.212754e+003, 1.300102e+003
1.214683e+003, 1.303662e+003
1.216611e+003, 1.305278e+003
1.218540e+003, 1.303763e+003
1.220468e+003, 1.301508e+003
1.222396e+003, 1.300362e+003
1.224325e+003, 1.300438e+003
1.226253e+003, 1.301364e+003
1.228182e+003, 1.303371e+003
1.230110e+003, 1.305629e+003
1.232039e+003, 1.307273e+003
1.233967e+003, 1.308695e+003
1.235896e+003, 1.310787e+003
1.237824e+003, 1.313602e+003
1.239753e+003, 1.315837e+003
1.241681e+003, 1.317181e+003
1.243610e+003, 1.317888e+003
1.245538e+003, 1.318269e+003
1.247467e+003, 1.318475e+003
1.249395e+003, 1.318082e+003
1.251323e+003, 1.316768e+003
1.253252e+003, 1.315814e+003
1.255180e+003, 1.315820e+003
1.257109e+003, 1.316290e+003
1.259037e+003, 1.316273e+003
1.260966e+003, 1.315495e+003
1.262894e+003, 1.315766e+003
1.264823e+003, 1.318284e+003
1.266751e+003, 1.320555e+003
1.268680e+003, 1.320820e+003
1.270608e+003, 1.319867e+003
1.272537e+003, 1.319392e+003
1.274465e+003, 1.319178e+003
1.276394e+003, 1.320472e+003
1.278322e+003, 1.325454e+003
1.280250e+003, 1.330826e+003
1.282179e+003, 1.334186e+003
1.284107e+003, 1.335409e+003
1.286036e+003, 1.336329e+003
1.287964e+003, 1.335483e+003
1.289893e+003, 1.336093e+003
1.291821e+003, 1.339750e+003
1.293750e+003, 1.344856e+003
1.295678e+003, 1.348793e+003
1.297607e+003, 1.350900e+003
1.299535e+003, 1.353483e+003
1.301464e+003, 1.357241e+003
1.303392e+003, 1.360762e+003
1.305321e+003, 1.363321e+003
1.307249e+003, 1.365088e+003
1.309177e+003, 1.366629e+003
1.311106e+003, 1.368059e+003
1.313034e+003, 1.369145e+003
1.314963e+003, 1.369259e+003
1.316891e+003, 1.369695e+003
1.318820e+003, 1.371897e+003
1.320748e+003, 1.375626e+003
1.322677e+003, 1.377705e+003
1.324605e+003, 1.376416e+003
1.326534e+003, 1.376141e+003
1.328462e+003, 1.378278e+003
1.330391e+003, 1.381576e+003
1.332319e+003, 1.384962e+003
1.334248e+003, 1.388904e+003
1.336176e+003, 1.390849e+003
1.338104e+003, 1.389684e+003
1.340033e+003, 1.388295e+003
1.341961e+003, 1.387543e+003
1.343890e+003, 1.387359e+003
1.345818e+003, 1.387417e+003
1.347747e+003, 1.387473e+003
1.349675e+003, 1.388758e+003
1.351604e+003, 1.392481e+003
1.353532e+003, 1.396025e+003
1.355461e+003, 1.398157e+003
1.357389e+003, 1.398893e+003
1.359318e+003, 1.398150e+003
1.361246e+003, 1.395492e+003
1.363175e+003, 1.393875e+003
1.365103e+003, 1.395294e+003
1.367031e+003, 1.397100e+003
1.368960e+003, 1.397368e+003
1.370888e+003, 1.396561e+003
1.372817e+003, 1.397173e+003
1.374745e+003, 1.399885e+003
1.376674e+003, 1.402245e+003
1.378602e+003, 1.403081e+003
1.380531e+003, 1.403537e+003
1.382459e+003, 1.404746e+003
1.384388e+003, 1.406724e+003
1.386316e+003, 1.407529e+003
1.388245e+003, 1.406754e+003
1.390173e+003, 1.405732e+003
1.392102e+003, 1.404368e+003
1.394030e+003, 1.403246e+003
1.395958e+003, 1.403149e+003
1.397887e+003, 1.404127e+003
1.399815e+003, 1.404211e+003
1.401744e+003, 1.401851e+003
1.403672e+003, 1.400779e+003
1.405601e+003, 1.403632e+003
1.407529e+003, 1.407334e+003
1.409458e+003, 1.408431e+003
1.411386e+003, 1.407191e+003
1.413315e+003, 1.405502e+003
1.415243e+003, 1.402430e+003
1.417172e+003, 1.401246e+003
1.419100e+003, 1.404783e+003
1.421029e+003, 1.409894e+003
1.422957e+003, 1.413072e+003
1.424885e+003, 1.414184e+003
1.426814e+003, 1.415021e+003
1.428742e+003, 1.415938e+003
1.430671e+003, 1.416217e+003
1.432599e+003, 1.415127e+003
1.434528e+003, 1.413743e+003
1.436456e+003, 1.413346e+003
1.438385e+003, 1.414053e+003
1.440313e+003, 1.415502e+003
1.442242e+003, 1.419392e+003
1.444170e+003, 1.421858e+003
1.446099e+003, 1.421127e+003
1.448027e+003, 1.418811e+003
1.449956e+003, 1.416719e+003
1.451884e+003, 1.414630e+003
1.453813e+003, 1.414040e+003
1.455741e+003, 1.416144e+003
1.457669e+003, 1.418230e+003
1.459598e+003, 1.419734e+003
1.461526e+003, 1.420845e+003
1.463455e+003, 1.421543e+003
1.465383e+003, 1.421783e+003
1.467312e+003, 1.422801e+003
1.469240e+003, 1.425149e+003
1.471169e+003, 1.427252e+003
1.473097e+003, 1.428723e+003
1.475026e+003, 1.429492e+003
1.476954e+003, 1.429433e+003
1.478883e+003, 1.428607e+003
1.480811e+003, 1.427232e+003
1.482740e+003, 1.424837e+003
1.484668e+003, 1.423558e+003
1.486596e+003, 1.425346e+003
1.488525e+003, 1.427982e+003
1.490453e+003, 1.429364e+003
1.492382e+003, 1.429772e+003
1.494310e+003, 1.431087e+003
1.496239e+003, 1.433534e+003
1.498167e+003, 1.435703e+003
1.500096e+003, 1.436516e+003
1.502024e+003, 1.436745e+003
1.503953e+003, 1.436762e+003
1.505881e+003, 1.436559e+003
1.507810e+003, 1.436597e+003
1.509738e+003, 1.437916e+003
1.511667e+003, 1.437945e+003
1.513595e+003, 1.435895e+003
1.515523e+003, 1.433651e+003
1.517452e+003, 1.431944e+003
1.519380e+003, 1.430912e+003
1.521309e+003, 1.430959e+003
1.523237e+003, 1.432591e+003
1.525166e+003, 1.433510e+003
1.527094e+003, 1.432862e+003
1.529023e+003, 1.431905e+003
1.530951e+003, 1.430629e+003
1.532880e+003, 1.429605e+003
1.534808e+003, 1.430131e+003
1.536737e+003, 1.432998e+003
1.538665e+003, 1.435209e+003
1.540594e+003, 1.437323e+003
1.542522e+003, 1.438359e+003
1.544450e+003, 1.436886e+003
1.546379e+003, 1.434924e+003
1.548307e+003, 1.434939e+003
1.550236e+003, 1.436946e+003
1.552164e+003, 1.438757e+003
1.554093e+003, 1.440247e+003
1.556021e+003, 1.441550e+003
1.557950e+003, 1.442814e+003
1.559878e+003, 1.443733e+003
1.561807e+003, 1.444353e+003
1.563735e+003, 1.444418e+003
1.565664e+003, 1.442576e+003
1.567592e+003, 1.437759e+003
1.569521e+003, 1.435363e+003
1.571449e+003, 1.438711e+003
1.573377e+003, 1.442148e+003
1.575306e+003, 1.442423e+003
1.577234e+003, 1.440913e+003
1.579163e+003, 1.439820e+003
1.581091e+003, 1.439183e+003
1.583020e+003, 1.439364e+003
1.584948e+003, 1.440897e+003
1.586877e+003, 1.442457e+003
1.588805e+003, 1.443787e+003
1.590734e+003, 1.444743e+003
1.592662e+003, 1.445148e+003
1.594591e+003, 1.445056e+003
1.596519e+003, 1.444506e+003
1.598448e+003, 1.442836e+003
1.600376e+003, 1.442560e+003
1.602304e+003, 1.445841e+003
1.604233e+003, 1.448634e+003
1.606161e+003, 1.447825e+003
1.608090e+003, 1.444787e+003
1.610018e+003, 1.442980e+003
1.611947e+003, 1.442703e+003
1.613875e+003, 1.441420e+003
1.615804e+003, 1.438739e+003
1.617732e+003, 1.435678e+003
1.619661e+003, 1.431893e+003
1.621589e+003, 1.428927e+003
1.623518e+003, 1.429055e+003
1.625446e+003, 1.431991e+003
1.627375e+003, 1.433100e+003
1.629303e+003, 1.430816e+003
1.631231e+003, 1.429930e+003
1.633160e+003, 1.432532e+003
1.635088e+003, 1.435092e+003
1.637017e+003, 1.435759e+003
1.638945e+003, 1.434912e+003
1.640874e+003, 1.433580e+003
1.642802e+003, 1.431871e+003
1.644731e+003, 1.429552e+003
1.646659e+003, 1.426181e+003
1.648588e+003, 1.423446e+003
1.650516e+003, 1.421678e+003
1.652445e+003, 1.421064e+003
1.654373e+003, 1.422301e+003
1.656302e+003, 1.424966e+003
1.658230e+003, 1.426066e+003
1.660158e+003, 1.424758e+003
1.662087e+003, 1.423794e+003
1.664015e+003, 1.423762e+003
1.665944e+003, 1.423711e+003
1.667872e+003, 1.423028e+003
1.669801e+003, 1.422314e+003
1.671729e+003, 1.422712e+003
1.673658e+003, 1.424483e+003
1.675586e+003, 1.424898e+003
1.677515e+003, 1.423052e+003
1.679443e+003, 1.421820e+003
1.681372e+003, 1.422093e+003
1.683300e+003, 1.422690e+003
1.685229e+003, 1.422887e+003
1.687157e+003, 1.422892e+003
1.689085e+003, 1.423176e+003
1.691014e+003, 1.423673e+003
1.692942e+003, 1.423980e+003
1.694871e+003, 1.423407e+003
1.696799e+003, 1.423430e+003
1.698728e+003, 1.425607e+003
1.700656e+003, 1.427336e+003
1.702585e+003, 1.426416e+003
1.704513e+003, 1.423758e+003
1.706442e+003, 1.422226e+003
1.708370e+003, 1.422439e+003
1.710299e+003, 1.421861e+003
1.712227e+003, 1.418928e+003
1.714156e+003, 1.417122e+003
1.716084e+003, 1.418258e+003
1.718012e+003, 1.419791e+003
1.719941e+003, 1.418959e+003
1.721869e+003, 1.416503e+003
1.723798e+003, 1.416687e+003
1.725726e+003, 1.421365e+003
1.727655e+003, 1.422585e+003
1.729583e+003, 1.415374e+003
1.731512e+003, 1.410708e+003
1.733440e+003, 1.414546e+003
1.735369e+003, 1.419866e+003
1.737297e+003, 1.419491e+003
1.739226e+003, 1.414668e+003
1.741154e+003, 1.413050e+003
1.743083e+003, 1.415908e+003
1.745011e+003, 1.417388e+003
1.746939e+003, 1.414855e+003
1.748868e+003, 1.413668e+003
1.750797e+003, 1.416551e+003
1.752725e+003, 1.420304e+003
1.754653e+003, 1.422066e+003
1.756582e+003, 1.422007e+003
1.758510e+003, 1.421478e+003
1.760439e+003, 1.420376e+003
1.762367e+003, 1.419321e+003
1.764296e+003, 1.418711e+003
1.766224e+003, 1.417937e+003
1.768153e+003, 1.417263e+003
1.770081e+003, 1.416271e+003
1.772010e+003, 1.414197e+003
1.773938e+003, 1.411588e+003
1.775867e+003, 1.410470e+003
1.777795e+003, 1.411031e+003
1.779724e+003, 1.411523e+003
1.781652e+003, 1.411561e+003
1.783580e+003, 1.411656e+003
1.785509e+003, 1.411693e+003
1.787437e+003, 1.411910e+003
1.789366e+003, 1.412679e+003
1.791294e+003, 1.413593e+003
1.793223e+003, 1.413608e+003
1.795151e+003, 1.412669e+003
1.797080e+003, 1.412402e+003
1.799008e+003, 1.413724e+003
1.800937e+003, 1.413792e+003
1.802865e+003, 1.410129e+003
1.804794e+003, 1.407123e+003
1.806722e+003, 1.408721e+003
1.808651e+003, 1.412249e+003
1.810579e+003, 1.413540e+003
1.812507e+003, 1.412814e+003
1.814436e+003, 1.412664e+003
1.816364e+003, 1.413326e+003
1.818293e+003, 1.413951e+003
1.820221e+003, 1.414505e+003
1.822150e+003, 1.414533e+003
1.824078e+003, 1.413172e+003
1.826007e+003, 1.411692e+003
1.827935e+003, 1.411788e+003
1.829864e+003, 1.413189e+003
1.831792e+003, 1.414495e+003
1.833721e+003, 1.415753e+003
1.835649e+003, 1.417102e+003
1.837578e+003, 1.419095e+003
1.839506e+003, 1.420223e+003
1.841434e+003, 1.419119e+003
1.843363e+003, 1.417563e+003
1.845291e+003, 1.416807e+003
1.847220e+003, 1.416544e+003
1.849148e+003, 1.416101e+003
1.851077e+003, 1.415371e+003
1.853005e+003, 1.415415e+003
1.854934e+003, 1.417790e+003
1.856862e+003, 1.418320e+003
1.858791e+003, 1.414230e+003
1.860719e+003, 1.411056e+003
1.862648e+003, 1.412551e+003
1.864576e+003, 1.415547e+003
1.866505e+003, 1.415911e+003
1.868433e+003, 1.414153e+003
1.870361e+003, 1.413730e+003
1.872290e+003, 1.415217e+003
1.874218e+003, 1.416674e+003
1.876147e+003, 1.419013e+003
1.878075e+003, 1.420129e+003
1.880004e+003, 1.419228e+003
1.881932e+003, 1.417499e+003
1.883861e+003, 1.414323e+003
1.885789e+003, 1.411427e+003
1.887718e+003, 1.412588e+003
1.889646e+003, 1.417700e+003
1.891575e+003, 1.419959e+003
1.893503e+003, 1.418054e+003
1.895432e+003, 1.417109e+003
1.897360e+003, 1.419384e+003
1.899288e+003, 1.420284e+003
1.901217e+003, 1.417125e+003
1.903145e+003, 1.413368e+003
1.905074e+003, 1.412046e+003
1.907002e+003, 1.412096e+003
1.908931e+003, 1.410780e+003
1.910859e+003, 1.408231e+003
1.912788e+003, 1.406845e+003
1.914716e+003, 1.406568e+003
1.916645e+003, 1.407426e+003
1.918573e+003, 1.409733e+003
1.920502e+003, 1.412102e+003
1.922430e+003, 1.414532e+003
1.924359e+003, 1.416158e+003
1.926287e+003, 1.416243e+003
1.928215e+003, 1.415127e+003
1.930144e+003, 1.413195e+003
1.932072e+003, 1.410501e+003
1.934001e+003, 1.408902e+003
1.935929e+003, 1.409169e+003
1.937858e+003, 1.409043e+003
1.939786e+003, 1.407179e+003
1.941715e+003, 1.406215e+003
1.943643e+003, 1.408003e+003
1.945572e+003, 1.410225e+003
1.947500e+003, 1.410594e+003
1.949429e+003, 1.409814e+003
1.951357e+003, 1.409794e+003
1.953286e+003, 1.410629e+003
1.955214e+003, 1.410630e+003
1.957142e+003, 1.409703e+003
1.959071e+003, 1.408080e+003
1.960999e+003, 1.404802e+003
1.962928e+003, 1.402436e+003
1.964856e+003, 1.402934e+003
1.966785e+003, 1.403639e+003
1.968713e+003, 1.402090e+003
1.970642e+003, 1.399853e+003
1.972570e+003, 1.399986e+003
1.974499e+003, 1.402128e+003
1.976427e+003, 1.403453e+003
1.978356e+003, 1.403586e+003
1.980284e+003, 1.404401e+003
1.982213e+003, 1.406647e+003
1.984141e+003, 1.408285e+003
1.986069e+003, 1.407849e+003
1.987998e+003, 1.407268e+003
1.989926e+003, 1.407538e+003
1.991855e+003, 1.408372e+003
1.993783e+003, 1.410187e+003
1.995712e+003, 1.412357e+003
1.997640e+003, 1.411671e+003
1.999569e+003, 1.407299e+003
2.001497e+003, 1.404747e+003
2.003426e+003, 1.405656e+003
2.005354e+003, 1.405929e+003
2.007283e+003, 1.404356e+003
2.009211e+003, 1.403118e+003
2.011140e+003, 1.403846e+003
2.013068e+003, 1.404414e+003
2.014996e+003, 1.402678e+003
2.016925e+003, 1.399693e+003
2.018853e+003, 1.397518e+003
2.020782e+003, 1.396203e+003
2.022710e+003, 1.395385e+003
2.024639e+003, 1.395041e+003
2.026567e+003, 1.395853e+003
2.028496e+003, 1.398759e+003
2.030424e+003, 1.400480e+003
2.032353e+003, 1.399002e+003
2.034281e+003, 1.397352e+003
2.036210e+003, 1.397037e+003
2.038138e+003, 1.397468e+003
2.040067e+003, 1.398454e+003
2.041995e+003, 1.399622e+003
2.043923e+003, 1.400203e+003
2.045852e+003, 1.400196e+003
2.047780e+003, 1.399078e+003
2.049709e+003, 1.396225e+003
2.051637e+003, 1.393871e+003
2.053566e+003, 1.392221e+003
2.055494e+003, 1.390966e+003
2.057423e+003, 1.390001e+003
2.059351e+003, 1.389615e+003
2.061280e+003, 1.391000e+003
2.063208e+003, 1.392437e+003
2.065136e+003, 1.391664e+003
2.067065e+003, 1.389644e+003
2.068993e+003, 1.388775e+003
2.070922e+003, 1.389030e+003
2.072850e+003, 1.390005e+003
2.074779e+003, 1.391610e+003
2.076708e+003, 1.393050e+003
2.078636e+003, 1.394274e+003
2.080564e+003, 1.394199e+003
2.082493e+003, 1.390997e+003
2.084421e+003, 1.388342e+003
2.086350e+003, 1.390144e+003
2.088278e+003, 1.391906e+003
2.090207e+003, 1.388369e+003
2.092135e+003, 1.382471e+003
2.094064e+003, 1.380228e+003
2.095992e+003, 1.381403e+003
2.097921e+003, 1.381334e+003
2.099849e+003, 1.379061e+003
2.101778e+003, 1.377976e+003
2.103706e+003, 1.378924e+003
2.105635e+003, 1.379028e+003
2.107563e+003, 1.377285e+003
2.109491e+003, 1.375535e+003
2.111420e+003, 1.374497e+003
2.113348e+003, 1.373831e+003
2.115277e+003, 1.373691e+003
2.117205e+003, 1.373780e+003
2.119134e+003, 1.373263e+003
2.121062e+003, 1.372697e+003
2.122991e+003, 1.373983e+003
2.124919e+003, 1.376889e+003
2.126848e+003, 1.378155e+003
2.128776e+003, 1.376964e+003
2.130705e+003, 1.376053e+003
2.132633e+003, 1.375960e+003
2.134562e+003, 1.375674e+003
2.136490e+003, 1.375074e+003
2.138418e+003, 1.374243e+003
2.140347e+003, 1.373163e+003
2.142275e+003, 1.372102e+003
2.144204e+003, 1.371227e+003
2.146132e+003, 1.370669e+003
2.148061e+003, 1.370689e+003
2.149989e+003, 1.371237e+003
2.151918e+003, 1.372196e+003
2.153846e+003, 1.373499e+003
2.155775e+003, 1.372863e+003
2.157703e+003, 1.369416e+003
2.159632e+003, 1.368520e+003
2.161560e+003, 1.372133e+003
2.163489e+003, 1.375239e+003
2.165417e+003, 1.376392e+003
2.167345e+003, 1.376528e+003
2.169274e+003, 1.376080e+003
2.171202e+003, 1.374784e+003
2.173131e+003, 1.372482e+003
2.175059e+003, 1.369391e+003
2.176988e+003, 1.364948e+003
2.178916e+003, 1.360210e+003
2.180845e+003, 1.358609e+003
2.182773e+003, 1.360123e+003
2.184702e+003, 1.362009e+003
2.186630e+003, 1.364279e+003
2.188559e+003, 1.365627e+003
2.190487e+003, 1.365750e+003
2.192416e+003, 1.364988e+003
2.194344e+003, 1.362695e+003
2.196272e+003, 1.360746e+003
2.198201e+003, 1.360332e+003
2.200129e+003, 1.359893e+003
2.202058e+003, 1.358503e+003
2.203986e+003, 1.356866e+003
2.205915e+003, 1.355353e+003
2.207843e+003, 1.354239e+003
2.209772e+003, 1.354460e+003
2.211700e+003, 1.355538e+003
2.213629e+003, 1.354861e+003
2.215557e+003, 1.352448e+003
2.217486e+003, 1.350845e+003
2.219414e+003, 1.350275e+003
2.221343e+003, 1.349886e+003
2.223271e+003, 1.349394e+003
2.225199e+003, 1.349807e+003
2.227128e+003, 1.352475e+003
2.229056e+003, 1.353806e+003
2.230985e+003, 1.350984e+003
2.232913e+003, 1.348177e+003
2.234842e+003, 1.348309e+003
2.236770e+003, 1.348880e+003
2.238699e+003, 1.346734e+003
2.240627e+003, 1.344269e+003
2.242556e+003, 1.345857e+003
2.244484e+003, 1.350233e+003
2.246413e+003, 1.353376e+003
2.248341e+003, 1.355159e+003
2.250270e+003, 1.353877e+003
2.252198e+003, 1.349208e+003
2.254126e+003, 1.347023e+003
2.256055e+003, 1.348248e+003
2.257983e+003, 1.350266e+003
2.259912e+003, 1.353935e+003
2.261840e+003, 1.355608e+003
2.263769e+003, 1.352768e+003
2.265697e+003, 1.349978e+003
2.267626e+003, 1.349391e+003
2.269554e+003, 1.348944e+003
2.271483e+003, 1.347135e+003
2.273411e+003, 1.345288e+003
2.275340e+003, 1.345693e+003
2.277268e+003, 1.346548e+003
2.279197e+003, 1.343837e+003
2.281125e+003, 1.339294e+003
2.283053e+003, 1.338004e+003
2.284982e+003, 1.339529e+003
2.286910e+003, 1.339938e+003
2.288839e+003, 1.338756e+003
2.290767e+003, 1.337671e+003
2.292696e+003, 1.336113e+003
2.294624e+003, 1.335586e+003
2.296553e+003, 1.337050e+003
2.298481e+003, 1.337990e+003
2.300410e+003, 1.337710e+003
2.302338e+003, 1.337726e+003
2.304267e+003, 1.339098e+003
2.306195e+003, 1.340229e+003
2.308124e+003, 1.340539e+003
2.310052e+003, 1.340161e+003
2.311980e+003, 1.338059e+003
2.313909e+003, 1.336278e+003
2.315837e+003, 1.338350e+003
2.317766e+003, 1.341830e+003
2.319694e+003, 1.341086e+003
2.321623e+003, 1.337334e+003
2.323551e+003, 1.336611e+003
2.325480e+003, 1.338911e+003
2.327408e+003, 1.340091e+003
2.329337e+003, 1.340109e+003
2.331265e+003, 1.339186e+003
2.333194e+003, 1.337134e+003
2.335122e+003, 1.335728e+003
2.337051e+003, 1.335932e+003
2.338979e+003, 1.335004e+003
2.340907e+003, 1.331337e+003
2.342836e+003, 1.328380e+003
2.344764e+003, 1.327130e+003
2.346693e+003, 1.326839e+003
2.348621e+003, 1.327778e+003
2.350550e+003, 1.328682e+003
2.352478e+003, 1.328310e+003
2.354407e+003, 1.327526e+003
2.356335e+003, 1.326769e+003
2.358264e+003, 1.326027e+003
2.360192e+003, 1.326229e+003
2.362121e+003, 1.326215e+003
2.364049e+003, 1.323151e+003
2.365978e+003, 1.318230e+003
2.367906e+003, 1.315528e+003
2.369834e+003, 1.315149e+003
2.371763e+003, 1.314846e+003
2.373691e+003, 1.314469e+003
2.375620e+003, 1.315077e+003
2.377548e+003, 1.316684e+003
2.379477e+003, 1.317657e+003
2.381405e+003, 1.317643e+003
2.383334e+003, 1.316932e+003
2.385262e+003, 1.315537e+003
2.387191e+003, 1.313669e+003
2.389119e+003, 1.310878e+003
2.391048e+003, 1.308816e+003
2.392976e+003, 1.308120e+003
2.394905e+003, 1.308367e+003
2.396833e+003, 1.310717e+003
2.398761e+003, 1.312227e+003
2.400690e+003, 1.309332e+003
2.402618e+003, 1.306528e+003
2.404547e+003, 1.308695e+003
2.406475e+003, 1.311513e+003
2.408404e+003, 1.309410e+003
2.410332e+003, 1.305432e+003
2.412261e+003, 1.305060e+003
2.414189e+003, 1.306711e+003
2.416118e+003, 1.305803e+003
2.418046e+003, 1.303016e+003
2.419975e+003, 1.302073e+003
2.421903e+003, 1.302825e+003
2.423832e+003, 1.301688e+003
2.425760e+003, 1.298653e+003
2.427688e+003, 1.298450e+003
2.429617e+003, 1.301733e+003
2.431545e+003, 1.303074e+003
2.433474e+003, 1.300949e+003
2.435402e+003, 1.299784e+003
2.437331e+003, 1.301473e+003
2.439259e+003, 1.301668e+003
2.441188e+003, 1.299209e+003
2.443116e+003, 1.297153e+003
2.445045e+003, 1.296141e+003
2.446973e+003, 1.295564e+003
2.448902e+003, 1.294931e+003
2.450830e+003, 1.295075e+003
2.452759e+003, 1.297583e+003
2.454687e+003, 1.299149e+003
2.456615e+003, 1.296031e+003
2.458544e+003, 1.293448e+003
2.460472e+003, 1.297376e+003
2.462401e+003, 1.301515e+003
2.464329e+003, 1.299175e+003
2.466258e+003, 1.294606e+003
2.468186e+003, 1.292143e+003
2.470115e+003, 1.291175e+003
2.472043e+003, 1.291070e+003
2.473972e+003, 1.291407e+003
2.475900e+003, 1.291173e+003
2.477829e+003, 1.290619e+003
2.479757e+003, 1.291491e+003
2.481686e+003, 1.293273e+003
2.483614e+003, 1.292261e+003
2.485542e+003, 1.288836e+003
2.487471e+003, 1.286165e+003
2.489399e+003, 1.284455e+003
2.491328e+003, 1.283568e+003
2.493256e+003, 1.283590e+003
2.495185e+003, 1.283989e+003
2.497113e+003, 1.284792e+003
2.499042e+003, 1.285427e+003
2.500970e+003, 1.285708e+003
2.502899e+003, 1.285608e+003
2.504827e+003, 1.284680e+003
2.506756e+003, 1.284603e+003
2.508684e+003, 1.286414e+003
2.510613e+003, 1.286407e+003
2.512541e+003, 1.282828e+003
2.514469e+003, 1.279548e+003
2.516398e+003, 1.277572e+003
2.518326e+003, 1.276423e+003
2.520255e+003, 1.276613e+003
2.522183e+003, 1.276700e+003
2.524112e+003, 1.276032e+003
2.526040e+003, 1.275227e+003
2.527969e+003, 1.274018e+003
2.529897e+003, 1.273420e+003
2.531826e+003, 1.275021e+003
2.533754e+003, 1.276257e+003
2.535683e+003, 1.274430e+003
2.537611e+003, 1.272793e+003
2.539540e+003, 1.274365e+003
2.541468e+003, 1.276919e+003
2.543396e+003, 1.279251e+003
2.545325e+003, 1.280396e+003
2.547253e+003, 1.278451e+003
2.549182e+003, 1.275375e+003
2.551110e+003, 1.273059e+003
2.553039e+003, 1.271662e+003
2.554967e+003, 1.272427e+003
2.556896e+003, 1.273855e+003
2.558824e+003, 1.272568e+003
2.560753e+003, 1.269941e+003
2.562681e+003, 1.268921e+003
2.564610e+003, 1.269327e+003
2.566538e+003, 1.271586e+003
2.568467e+003, 1.274348e+003
2.570395e+003, 1.271567e+003
2.572323e+003, 1.264853e+003
2.574252e+003, 1.265303e+003
2.576180e+003, 1.271965e+003
2.578109e+003, 1.273082e+003
2.580037e+003, 1.269290e+003
2.581966e+003, 1.267317e+003
2.583894e+003, 1.267341e+003
2.585823e+003, 1.267398e+003
2.587751e+003, 1.267469e+003
2.589680e+003, 1.268613e+003
2.591608e+003, 1.271330e+003
2.593537e+003, 1.271435e+003
2.595465e+003, 1.268106e+003
2.597394e+003, 1.267851e+003
2.599322e+003, 1.271174e+003
2.601250e+003, 1.271990e+003
2.603179e+003, 1.269012e+003
2.605107e+003, 1.268403e+003
2.607036e+003, 1.272574e+003
2.608964e+003, 1.274384e+003
2.610893e+003, 1.273173e+003
2.612821e+003, 1.271265e+003
2.614750e+003, 1.268498e+003
2.616678e+003, 1.266923e+003
2.618607e+003, 1.267218e+003
2.620535e+003, 1.266882e+003
2.622464e+003, 1.265020e+003
2.624392e+003, 1.263294e+003
2.626321e+003, 1.261989e+003
2.628249e+003, 1.260576e+003
2.630177e+003, 1.258547e+003
2.632106e+003, 1.258090e+003
2.634034e+003, 1.260827e+003
2.635963e+003, 1.261420e+003
2.637891e+003, 1.256225e+003
2.639820e+003, 1.253825e+003
2.641748e+003, 1.259010e+003
2.643677e+003, 1.262500e+003
2.645605e+003, 1.261645e+003
2.647534e+003, 1.260601e+003
2.649462e+003, 1.259885e+003
2.651391e+003, 1.259707e+003
2.653319e+003, 1.260781e+003
2.655248e+003, 1.260850e+003
2.657176e+003, 1.258086e+003
2.659104e+003, 1.255889e+003
2.661033e+003, 1.256117e+003
2.662961e+003, 1.255664e+003
2.664890e+003, 1.253325e+003
2.666818e+003, 1.251534e+003
2.668747e+003, 1.251178e+003
2.670675e+003, 1.251773e+003
2.672604e+003, 1.254547e+003
2.674532e+003, 1.256071e+003
2.676461e+003, 1.254041e+003
2.678389e+003, 1.252064e+003
2.680318e+003, 1.250708e+003
2.682246e+003, 1.250164e+003
2.684175e+003, 1.250898e+003
2.686103e+003, 1.251477e+003
2.688031e+003, 1.251582e+003
2.689960e+003, 1.251098e+003
2.691888e+003, 1.249824e+003
2.693817e+003, 1.248589e+003
2.695745e+003, 1.248277e+003
2.697674e+003, 1.247240e+003
2.699602e+003, 1.244412e+003
2.701531e+003, 1.241599e+003
2.703459e+003, 1.237596e+003
2.705388e+003, 1.236678e+003
2.707316e+003, 1.243265e+003
2.709245e+003, 1.248586e+003
2.711173e+003, 1.249803e+003
2.713102e+003, 1.249317e+003
2.715030e+003, 1.247054e+003
2.716958e+003, 1.244985e+003
2.718887e+003, 1.243872e+003
2.720815e+003, 1.243145e+003
2.722744e+003, 1.243351e+003
2.724672e+003, 1.242822e+003
2.726601e+003, 1.240362e+003
2.728529e+003, 1.239025e+003
2.730458e+003, 1.240219e+003
2.732386e+003, 1.242007e+003
2.734315e+003, 1.244677e+003
2.736243e+003, 1.246051e+003
2.738172e+003, 1.244929e+003
2.740100e+003, 1.243048e+003
2.742029e+003, 1.240020e+003
2.743957e+003, 1.238228e+003
2.745885e+003, 1.239489e+003
2.747814e+003, 1.239998e+003
2.749742e+003, 1.237588e+003
2.751671e+003, 1.236529e+003
2.753599e+003, 1.237932e+003
2.755528e+003, 1.240206e+003
2.757456e+003, 1.243855e+003
2.759385e+003, 1.245230e+003
2.761313e+003, 1.241505e+003
2.763242e+003, 1.239653e+003
2.765170e+003, 1.243016e+003
2.767099e+003, 1.244253e+003
2.769027e+003, 1.241939e+003
2.770956e+003, 1.240142e+003
2.772884e+003, 1.239674e+003
2.774813e+003, 1.239208e+003
2.776741e+003, 1.239185e+003
2.778669e+003, 1.237640e+003
2.780598e+003, 1.233492e+003
2.782526e+003, 1.230825e+003
2.784455e+003, 1.229847e+003
2.786383e+003, 1.230691e+003
2.788312e+003, 1.233699e+003
2.790240e+003, 1.234884e+003
2.792169e+003, 1.232995e+003
2.794097e+003, 1.231491e+003
2.796026e+003, 1.230343e+003
2.797954e+003, 1.229057e+003
2.799883e+003, 1.227647e+003
2.801811e+003, 1.227582e+003
2.803740e+003, 1.229068e+003
2.805668e+003, 1.229729e+003
2.807596e+003, 1.229563e+003
2.809525e+003, 1.229531e+003
2.811453e+003, 1.229555e+003
2.813382e+003, 1.227863e+003
2.815310e+003, 1.224879e+003
2.817239e+003, 1.223460e+003
2.819167e+003, 1.223463e+003
2.821096e+003, 1.224466e+003
2.823024e+003, 1.225876e+003
2.824953e+003, 1.224086e+003
2.826881e+003, 1.220636e+003
2.828810e+003, 1.220773e+003
2.830738e+003, 1.222714e+003
2.832667e+003, 1.222973e+003
2.834595e+003, 1.221671e+003
2.836523e+003, 1.218080e+003
2.838452e+003, 1.214031e+003
2.840380e+003, 1.212584e+003
2.842309e+003, 1.212799e+003
2.844237e+003, 1.214517e+003
2.846166e+003, 1.215964e+003
2.848094e+003, 1.213949e+003
2.850023e+003, 1.211688e+003
2.851951e+003, 1.212993e+003
2.853880e+003, 1.214774e+003
2.855808e+003, 1.214746e+003
2.857737e+003, 1.214186e+003
2.859665e+003, 1.213612e+003
2.861594e+003, 1.213515e+003
2.863522e+003, 1.214960e+003
2.865450e+003, 1.215829e+003
2.867379e+003, 1.214589e+003
2.869307e+003, 1.213773e+003
2.871236e+003, 1.215110e+003
2.873164e+003, 1.215923e+003
2.875093e+003, 1.214526e+003
2.877021e+003, 1.213822e+003
2.878950e+003, 1.214417e+003
2.880878e+003, 1.215678e+003
2.882807e+003, 1.218225e+003
2.884735e+003, 1.219116e+003
2.886664e+003, 1.216880e+003
2.888592e+003, 1.214714e+003
2.890521e+003, 1.212560e+003
2.892449e+003, 1.211152e+003
2.894377e+003, 1.210487e+003
2.896306e+003, 1.211620e+003
2.898234e+003, 1.215082e+003
2.900163e+003, 1.215976e+003
2.902091e+003, 1.214247e+003
2.904020e+003, 1.212928e+003
2.905948e+003, 1.212117e+003
2.907877e+003, 1.212441e+003
2.909805e+003, 1.213513e+003
2.911734e+003, 1.213470e+003
2.913662e+003, 1.212713e+003
2.915591e+003, 1.212687e+003
2.917519e+003, 1.212709e+003
2.919448e+003, 1.210564e+003
2.921376e+003, 1.208332e+003
2.923304e+003, 1.209844e+003
2.925233e+003, 1.212129e+003
2.927161e+003, 1.211227e+003
2.929090e+003, 1.210011e+003
2.931018e+003, 1.212478e+003
2.932947e+003, 1.213419e+003
2.934875e+003, 1.206925e+003
2.936804e+003, 1.201262e+003
2.938732e+003, 1.201763e+003
2.940661e+003, 1.202881e+003
2.942589e+003, 1.202853e+003
2.944518e+003, 1.202851e+003
2.946446e+003, 1.203374e+003
2.948375e+003, 1.203948e+003
2.950303e+003, 1.204733e+003
2.952231e+003, 1.205134e+003
2.954160e+003, 1.205153e+003
2.956088e+003, 1.204171e+003
2.958017e+003, 1.201719e+003
2.959945e+003, 1.200726e+003
2.961874e+003, 1.201672e+003
2.963802e+003, 1.200018e+003
2.965731e+003, 1.196212e+003
2.967659e+003, 1.195365e+003
2.969588e+003, 1.196608e+003
2.971516e+003, 1.194146e+003
2.973445e+003, 1.189653e+003
2.975373e+003, 1.187516e+003
2.977302e+003, 1.187390e+003
2.979230e+003, 1.190110e+003
2.981158e+003, 1.192717e+003
2.983087e+003, 1.190691e+003
2.985015e+003, 1.187801e+003
2.986944e+003, 1.188083e+003
2.988872e+003, 1.188840e+003
2.990801e+003, 1.188732e+003
2.992729e+003, 1.188213e+003
2.994658e+003, 1.187432e+003
2.996586e+003, 1.186409e+003
2.998515e+003, 1.184682e+003
3.000443e+003, 1.183372e+003
3.002372e+003, 1.182691e+003
3.004300e+003, 1.182125e+003
3.006229e+003, 1.181688e+003
3.008157e+003, 1.181251e+003
3.010085e+003, 1.180965e+003
3.012014e+003, 1.180271e+003
3.013942e+003, 1.179206e+003
3.015871e+003, 1.177770e+003
3.017799e+003, 1.176152e+003
3.019728e+003, 1.175882e+003
3.021656e+003, 1.176529e+003
3.023585e+003, 1.176351e+003
3.025513e+003, 1.176241e+003
3.027442e+003, 1.178219e+003
3.029370e+003, 1.180499e+003
3.031299e+003, 1.180795e+003
3.033227e+003, 1.180171e+003
3.035156e+003, 1.178859e+003
3.037084e+003, 1.177966e+003
3.039012e+003, 1.179173e+003
3.040941e+003, 1.179336e+003
3.042869e+003, 1.176226e+003
3.044798e+003, 1.173801e+003
3.046726e+003, 1.172836e+003
3.048655e+003, 1.172718e+003
3.050583e+003, 1.173658e+003
3.052512e+003, 1.174120e+003
3.054440e+003, 1.173913e+003
3.056369e+003, 1.174137e+003
3.058297e+003, 1.174785e+003
3.060226e+003, 1.175917e+003
3.062154e+003, 1.176934e+003
3.064083e+003, 1.173710e+003
3.066011e+003, 1.169116e+003
3.067939e+003, 1.171576e+003
3.069868e+003, 1.175800e+003
3.071796e+003, 1.175263e+003
3.073725e+003, 1.172781e+003
3.075653e+003, 1.170035e+003
3.077582e+003, 1.168018e+003
3.079510e+003, 1.168045e+003
3.081439e+003, 1.167560e+003
3.083367e+003, 1.163703e+003
3.085296e+003, 1.162982e+003
3.087224e+003, 1.168816e+003
3.089153e+003, 1.170379e+003
3.091081e+003, 1.165837e+003
3.093010e+003, 1.165310e+003
3.094938e+003, 1.170232e+003
3.096866e+003, 1.169018e+003
3.098795e+003, 1.162832e+003
3.100723e+003, 1.163010e+003
3.102652e+003, 1.166910e+003
3.104580e+003, 1.168498e+003
3.106509e+003, 1.168558e+003
3.108437e+003, 1.167609e+003
3.110366e+003, 1.166570e+003
3.112294e+003, 1.167075e+003
3.114223e+003, 1.166529e+003
3.116151e+003, 1.162143e+003
3.118080e+003, 1.158681e+003
3.120008e+003, 1.158149e+003
3.121937e+003, 1.157796e+003
3.123865e+003, 1.157072e+003
3.125793e+003, 1.156920e+003
3.127722e+003, 1.157685e+003
3.129650e+003, 1.157117e+003
3.131579e+003, 1.155428e+003
3.133507e+003, 1.157169e+003
3.135436e+003, 1.160665e+003
3.137364e+003, 1.159711e+003
3.139293e+003, 1.156332e+003
3.141221e+003, 1.152442e+003
3.143150e+003, 1.150761e+003
3.145078e+003, 1.156118e+003
3.147007e+003, 1.161232e+003
3.148935e+003, 1.160736e+003
3.150864e+003, 1.159261e+003
3.152792e+003, 1.158153e+003
3.154720e+003, 1.156363e+003
3.156649e+003, 1.152891e+003
3.158577e+003, 1.151331e+003
3.160506e+003, 1.152369e+003
3.162434e+003, 1.150963e+003
3.164363e+003, 1.147565e+003
3.166291e+003, 1.145912e+003
3.168220e+003, 1.145863e+003
3.170148e+003, 1.147397e+003
3.172077e+003, 1.149512e+003
3.174005e+003, 1.151767e+003
3.175934e+003, 1.152443e+003
3.177862e+003, 1.148147e+003
3.179791e+003, 1.145013e+003
3.181719e+003, 1.146686e+003
3.183647e+003, 1.148644e+003
3.185576e+003, 1.149943e+003
3.187504e+003, 1.150101e+003
3.189433e+003, 1.148109e+003
3.191361e+003, 1.148457e+003
3.193290e+003, 1.150714e+003
3.195218e+003, 1.150858e+003
3.197147e+003, 1.149372e+003
3.199075e+003, 1.148696e+003
3.201004e+003, 1.147922e+003
3.202932e+003, 1.144835e+003
3.204861e+003, 1.141973e+003
3.206789e+003, 1.142106e+003
3.208718e+003, 1.142255e+003
3.210646e+003, 1.140082e+003
3.212574e+003, 1.139000e+003
3.214503e+003, 1.139949e+003
3.216431e+003, 1.140440e+003
3.218360e+003, 1.139748e+003
3.220288e+003, 1.139305e+003
3.222217e+003, 1.139098e+003
3.224145e+003, 1.139161e+003
3.226074e+003, 1.139287e+003
3.228002e+003, 1.138650e+003
3.229931e+003, 1.137727e+003
3.231859e+003, 1.137300e+003
3.233788e+003, 1.136587e+003
3.235716e+003, 1.133802e+003
3.237645e+003, 1.132642e+003
3.239573e+003, 1.135176e+003
3.241501e+003, 1.137310e+003
3.243430e+003, 1.138476e+003
3.245358e+003, 1.137697e+003
3.247287e+003, 1.134718e+003
3.249215e+003, 1.132809e+003
3.251144e+003, 1.132317e+003
3.253072e+003, 1.136323e+003
3.255001e+003, 1.140892e+003
3.256929e+003, 1.138734e+003
3.258858e+003, 1.134837e+003
3.260786e+003, 1.132000e+003
3.262715e+003, 1.131286e+003
3.264643e+003, 1.135259e+003
3.266572e+003, 1.137148e+003
3.268500e+003, 1.135434e+003
3.270428e+003, 1.134451e+003
3.272357e+003, 1.134698e+003
3.274285e+003, 1.133667e+003
3.276214e+003, 1.131781e+003
3.278142e+003, 1.131208e+003
3.280071e+003, 1.131486e+003
3.281999e+003, 1.132542e+003
3.283928e+003, 1.132973e+003
3.285856e+003, 1.130956e+003
3.287785e+003, 1.128928e+003
3.289713e+003, 1.127740e+003
3.291642e+003, 1.127302e+003
3.293570e+003, 1.128452e+003
3.295499e+003, 1.127534e+003
3.297427e+003, 1.124715e+003
3.299355e+003, 1.124746e+003
3.301284e+003, 1.126394e+003
3.303212e+003, 1.125225e+003
3.305141e+003, 1.123280e+003
3.307069e+003, 1.123834e+003
3.308998e+003, 1.124322e+003
3.310926e+003, 1.122569e+003
3.312855e+003, 1.121514e+003
3.314783e+003, 1.122361e+003
3.316712e+003, 1.122645e+003
3.318640e+003, 1.121931e+003
3.320569e+003, 1.120503e+003
3.322497e+003, 1.118586e+003
3.324426e+003, 1.119322e+003
3.326354e+003, 1.121096e+003
3.328282e+003, 1.121469e+003
3.330211e+003, 1.120573e+003
3.332139e+003, 1.117278e+003
3.334068e+003, 1.115156e+003
3.335996e+003, 1.116917e+003
3.337925e+003, 1.117841e+003
3.339853e+003, 1.117166e+003
3.341782e+003, 1.116613e+003
3.343710e+003, 1.116177e+003
3.345639e+003, 1.114092e+003
3.347567e+003, 1.111722e+003
3.349496e+003, 1.113973e+003
3.351424e+003, 1.116726e+003
3.353353e+003, 1.115959e+003
3.355281e+003, 1.113830e+003
3.357209e+003, 1.110645e+003
3.359138e+003, 1.108365e+003
3.361066e+003, 1.107554e+003
3.362995e+003, 1.107106e+003
3.364923e+003, 1.107037e+003
3.366852e+003, 1.106607e+003
3.368780e+003, 1.106115e+003
3.370709e+003, 1.106430e+003
3.372637e+003, 1.106693e+003
3.374566e+003, 1.105074e+003
3.376494e+003, 1.104379e+003
3.378423e+003, 1.106707e+003
3.380351e+003, 1.107703e+003
3.382280e+003, 1.105708e+003
3.384208e+003, 1.104067e+003
3.386136e+003, 1.102940e+003
3.388065e+003, 1.103604e+003
3.389993e+003, 1.104997e+003
3.391922e+003, 1.103977e+003
3.393851e+003, 1.103161e+003
3.395779e+003, 1.106652e+003
3.397708e+003, 1.108231e+003
3.399636e+003, 1.102708e+003
3.401564e+003, 1.100257e+003
3.403493e+003, 1.102365e+003
3.405421e+003, 1.101856e+003
3.407350e+003, 1.099019e+003
3.409278e+003, 1.100213e+003
3.411207e+003, 1.102406e+003
3.413135e+003, 1.099385e+003
3.415064e+003, 1.096462e+003
3.416992e+003, 1.097118e+003
3.418921e+003, 1.101272e+003
3.420849e+003, 1.111174e+003
3.422778e+003, 1.113596e+003
3.424706e+003, 1.105938e+003
3.426635e+003, 1.103231e+003
3.428563e+003, 1.103584e+003
3.430491e+003, 1.101442e+003
3.432420e+003, 1.098416e+003
3.434348e+003, 1.095543e+003
3.436277e+003, 1.094406e+003
3.438205e+003, 1.097468e+003
3.440134e+003, 1.097871e+003
3.442062e+003, 1.093685e+003
3.443991e+003, 1.091672e+003
3.445919e+003, 1.091556e+003
3.447848e+003, 1.089754e+003
3.449776e+003, 1.087759e+003
3.451705e+003, 1.088808e+003
3.453633e+003, 1.090309e+003
3.455562e+003, 1.091149e+003
3.457490e+003, 1.090775e+003
3.459418e+003, 1.088957e+003
3.461347e+003, 1.087096e+003
3.463275e+003, 1.085412e+003
3.465204e+003, 1.084412e+003
3.467132e+003, 1.083809e+003
3.469061e+003, 1.082754e+003
3.470989e+003, 1.081839e+003
3.472918e+003, 1.081592e+003
3.474846e+003, 1.081573e+003
3.476775e+003, 1.081673e+003
3.478703e+003, 1.081017e+003
3.480632e+003, 1.079242e+003
3.482560e+003, 1.079377e+003
3.484489e+003, 1.080384e+003
3.486417e+003, 1.079313e+003
3.488345e+003, 1.077592e+003
3.490274e+003, 1.076515e+003
3.492202e+003, 1.075735e+003
3.494131e+003, 1.075180e+003
3.496059e+003, 1.074572e+003
3.497988e+003, 1.073534e+003
3.499916e+003, 1.074521e+003
3.501845e+003, 1.076542e+003
3.503773e+003, 1.077360e+003
3.505702e+003, 1.077358e+003
3.507630e+003, 1.077127e+003
3.509559e+003, 1.076073e+003
3.511487e+003, 1.073272e+003
3.513416e+003, 1.072286e+003
3.515344e+003, 1.073469e+003
3.517272e+003, 1.074153e+003
3.519201e+003, 1.073970e+003
3.521129e+003, 1.071367e+003
3.523058e+003, 1.068741e+003
3.524986e+003, 1.068300e+003
3.526915e+003, 1.068524e+003
3.528843e+003, 1.068611e+003
3.530772e+003, 1.070352e+003
3.532700e+003, 1.073495e+003
3.534629e+003, 1.072122e+003
3.536557e+003, 1.068319e+003
3.538486e+003, 1.067266e+003
3.540414e+003, 1.066432e+003
3.542343e+003, 1.063223e+003
3.544271e+003, 1.061318e+003
3.546199e+003, 1.062266e+003
3.548128e+003, 1.061829e+003
3.550056e+003, 1.059816e+003
3.551985e+003, 1.058182e+003
3.553913e+003, 1.056282e+003
3.555842e+003, 1.051893e+003
3.557770e+003, 1.048485e+003
3.559699e+003, 1.049247e+003
3.561627e+003, 1.049642e+003
3.563556e+003, 1.048992e+003
3.565484e+003, 1.047803e+003
3.567413e+003, 1.046300e+003
3.569341e+003, 1.045539e+003
3.571270e+003, 1.045025e+003
3.573198e+003, 1.044710e+003
3.575126e+003, 1.043507e+003
3.577055e+003, 1.040535e+003
3.578983e+003, 1.039316e+003
3.580912e+003, 1.040453e+003
3.582840e+003, 1.036715e+003
3.584769e+003, 1.030887e+003
3.586697e+003, 1.029866e+003
3.588626e+003, 1.030730e+003
3.590554e+003, 1.032606e+003
3.592483e+003, 1.032561e+003
3.594411e+003, 1.029584e+003
3.596340e+003, 1.027707e+003
3.598268e+003, 1.026810e+003
3.600197e+003, 1.024198e+003
3.602125e+003, 1.021360e+003
3.604053e+003, 1.020953e+003
3.605982e+003, 1.019629e+003
3.607910e+003, 1.015648e+003
3.609839e+003, 1.012979e+003
3.611767e+003, 1.012324e+003
3.613696e+003, 1.011341e+003
3.615624e+003, 1.010163e+003
3.617553e+003, 1.009109e+003
3.619481e+003, 1.007979e+003
3.621410e+003, 1.006602e+003
3.623338e+003, 1.005223e+003
3.625267e+003, 1.003896e+003
3.627195e+003, 1.002987e+003
3.629124e+003, 1.002330e+003
3.631052e+003, 1.000556e+003
3.632980e+003, 9.991490e+002
3.634909e+003, 1.000429e+003
3.636837e+003, 1.000759e+003
3.638766e+003, 9.988057e+002
3.640694e+003, 9.979206e+002
3.642623e+003, 9.982675e+002
3.644551e+003, 9.984789e+002
3.646480e+003, 9.974420e+002
3.648408e+003, 9.916104e+002
3.650337e+003, 9.877858e+002
3.652265e+003, 9.891974e+002
3.654194e+003, 9.902519e+002
3.656122e+003, 9.900959e+002
3.658051e+003, 9.877754e+002
3.659979e+003, 9.846624e+002
3.661907e+003, 9.831564e+002
3.663836e+003, 9.822399e+002
3.665764e+003, 9.814901e+002
3.667693e+003, 9.806911e+002
3.669621e+003, 9.797917e+002
3.671550e+003, 9.791926e+002
3.673478e+003, 9.789283e+002
3.675407e+003, 9.796786e+002
3.677335e+003, 9.796396e+002
3.679264e+003, 9.760618e+002
3.681192e+003, 9.749230e+002
3.683121e+003, 9.779160e+002
3.685049e+003, 9.767838e+002
3.686978e+003, 9.732269e+002
3.688906e+003, 9.745587e+002
3.690834e+003, 9.750389e+002
3.692763e+003, 9.665521e+002
3.694691e+003, 9.636840e+002
3.696620e+003, 9.700910e+002
3.698548e+003, 9.719017e+002
3.700477e+003, 9.703177e+002
3.702405e+003, 9.732963e+002
3.704334e+003, 9.754907e+002
3.706262e+003, 9.698781e+002
3.708191e+003, 9.674131e+002
3.710119e+003, 9.706396e+002
3.712048e+003, 9.716407e+002
3.713976e+003, 9.704619e+002
3.715905e+003, 9.686442e+002
3.717833e+003, 9.660535e+002
3.719761e+003, 9.610441e+002
3.721690e+003, 9.592670e+002
3.723618e+003, 9.621141e+002
3.725547e+003, 9.623484e+002
3.727475e+003, 9.607478e+002
3.729404e+003, 9.615817e+002
3.731332e+003, 9.625157e+002
3.733261e+003, 9.616711e+002
3.735189e+003, 9.604050e+002
3.737118e+003, 9.590097e+002
3.739046e+003, 9.562682e+002
3.740975e+003, 9.532471e+002
3.742903e+003, 9.530580e+002
3.744832e+003, 9.541339e+002
3.746760e+003, 9.566711e+002
3.748688e+003, 9.568660e+002
3.750617e+003, 9.542766e+002
3.752545e+003, 9.523040e+002
3.754474e+003, 9.510682e+002
3.756402e+003, 9.513441e+002
3.758331e+003, 9.509379e+002
3.760259e+003, 9.468233e+002
3.762188e+003, 9.461589e+002
3.764116e+003, 9.491813e+002
3.766045e+003, 9.512997e+002
3.767973e+003, 9.524355e+002
3.769902e+003, 9.527951e+002
3.771830e+003, 9.522198e+002
3.773759e+003, 9.499653e+002
3.775687e+003, 9.489102e+002
3.777615e+003, 9.490740e+002
3.779544e+003, 9.485146e+002
3.781472e+003, 9.484414e+002
3.783401e+003, 9.515574e+002
3.785329e+003, 9.529730e+002
3.787258e+003, 9.498029e+002
3.789186e+003, 9.466896e+002
3.791115e+003, 9.441366e+002
3.793043e+003, 9.446121e+002
3.794972e+003, 9.452281e+002
3.796900e+003, 9.432155e+002
3.798829e+003, 9.419789e+002
3.800757e+003, 9.428272e+002
3.802686e+003, 9.404836e+002
3.804614e+003, 9.372373e+002
3.806542e+003, 9.385773e+002
3.808471e+003, 9.396905e+002
3.810399e+003, 9.373848e+002
3.812328e+003, 9.370254e+002
3.814256e+003, 9.391992e+002
3.816185e+003, 9.419543e+002
3.818113e+003, 9.435128e+002
3.820042e+003, 9.406427e+002
3.821970e+003, 9.383134e+002
3.823899e+003, 9.383326e+002
3.825827e+003, 9.355441e+002
3.827756e+003, 9.313487e+002
3.829684e+003, 9.343242e+002
3.831613e+003, 9.377286e+002
3.833541e+003, 9.355280e+002
3.835469e+003, 9.336494e+002
3.837398e+003, 9.329293e+002
3.839326e+003, 9.328475e+002
3.841255e+003, 9.328434e+002
3.843183e+003, 9.317072e+002
3.845112e+003, 9.307341e+002
3.847040e+003, 9.306871e+002
3.848969e+003, 9.303312e+002
3.850897e+003, 9.297641e+002
3.852826e+003, 9.297532e+002
3.854754e+003, 9.301096e+002
3.856683e+003, 9.311485e+002
3.858611e+003, 9.308970e+002
3.860540e+003, 9.287982e+002
3.862468e+003, 9.288604e+002
3.864396e+003, 9.297756e+002
3.866325e+003, 9.286472e+002
3.868253e+003, 9.277886e+002
3.870182e+003, 9.284111e+002
3.872110e+003, 9.280362e+002
3.874039e+003, 9.268801e+002
3.875967e+003, 9.279881e+002
3.877896e+003, 9.285355e+002
3.879824e+003, 9.246775e+002
3.881753e+003, 9.230059e+002
3.883681e+003, 9.250360e+002
3.885610e+003, 9.245228e+002
3.887538e+003, 9.229245e+002
3.889467e+003, 9.220226e+002
3.891395e+003, 9.226116e+002
3.893323e+003, 9.253865e+002
3.895252e+003, 9.250136e+002
3.897180e+003, 9.224675e+002
3.899109e+003, 9.230334e+002
3.901037e+003, 9.237871e+002
3.902966e+003, 9.225403e+002
3.904894e+003, 9.209176e+002
3.906823e+003, 9.193608e+002
3.908751e+003, 9.205893e+002
3.910680e+003, 9.221252e+002
3.912608e+003, 9.205654e+002
3.914537e+003, 9.193526e+002
3.916465e+003, 9.196698e+002
3.918394e+003, 9.183126e+002
3.920322e+003, 9.166558e+002
3.922250e+003, 9.181431e+002
3.924179e+003, 9.197433e+002
3.926107e+003, 9.203842e+002
3.928036e+003, 9.191448e+002
3.929964e+003, 9.166577e+002
3.931893e+003, 9.156951e+002
3.933821e+003, 9.154310e+002
3.935750e+003, 9.155721e+002
3.937678e+003, 9.154650e+002
3.939607e+003, 9.151370e+002
3.941535e+003, 9.162991e+002
3.943464e+003, 9.173547e+002
3.945392e+003, 9.163215e+002
3.947321e+003, 9.147815e+002
3.949249e+003, 9.130208e+002
3.951177e+003, 9.131448e+002
3.953106e+003, 9.143372e+002
3.955034e+003, 9.159078e+002
3.956963e+003, 9.165465e+002
3.958891e+003, 9.159195e+002
3.960820e+003, 9.125995e+002
3.962748e+003, 9.083072e+002
3.964677e+003, 9.069808e+002
3.966605e+003, 9.081066e+002
3.968534e+003, 9.121774e+002
3.970462e+003, 9.128556e+002
3.972391e+003, 9.106150e+002
3.974319e+003, 9.105110e+002
3.976248e+003, 9.106835e+002
3.978176e+003, 9.099670e+002
3.980104e+003, 9.085120e+002
3.982033e+003, 9.065400e+002
3.983961e+003, 9.066047e+002
3.985890e+003, 9.064789e+002
3.987818e+003, 9.025390e+002
3.989747e+003, 9.016628e+002
3.991675e+003, 9.044881e+002
3.993604e+003, 9.068293e+002
3.995532e+003, 9.074868e+002
3.997461e+003, 9.035599e+002
3.999389e+003, 9.021849e+002
4.001318e+003, 9.059140e+002
4.003246e+003, 9.056595e+002
4.005175e+003, 9.030089e+002
4.007103e+003, 8.992910e+002
4.009031e+003, 8.972501e+002
4.010960e+003, 8.978475e+002
4.012888e+003, 9.008212e+002
4.014817e+003, 9.038313e+002
4.016745e+003, 9.016036e+002
4.018674e+003, 8.994173e+002
4.020602e+003, 8.990115e+002
4.022531e+003, 9.003115e+002
4.024459e+003, 9.022684e+002
4.026388e+003, 9.024600e+002
4.028316e+003, 9.020436e+002
4.030245e+003, 9.011404e+002
4.032173e+003, 9.013621e+002
4.034102e+003, 9.018599e+002
4.036030e+003, 8.995754e+002
4.037958e+003, 8.978585e+002
4.039887e+003, 8.986191e+002
4.041815e+003, 8.989684e+002
4.043744e+003, 8.989071e+002
4.045672e+003, 8.993265e+002
4.047601e+003, 8.989203e+002
4.049529e+003, 8.968549e+002
4.051458e+003, 8.938238e+002
4.053386e+003, 8.910375e+002
4.055315e+003, 8.949651e+002
4.057243e+003, 8.980938e+002
4.059172e+003, 8.944414e+002
4.061100e+003, 8.944719e+002
4.063029e+003, 8.972829e+002
4.064957e+003, 8.971356e+002
4.066885e+003, 8.971149e+002
4.068814e+003, 8.994746e+002
4.070742e+003, 8.988251e+002
4.072671e+003, 8.959580e+002
4.074599e+003, 8.945931e+002
4.076528e+003, 8.945032e+002
4.078456e+003, 8.960525e+002
4.080385e+003, 8.951724e+002
4.082313e+003, 8.930251e+002
4.084242e+003, 8.963906e+002
4.086170e+003, 8.975746e+002
4.088099e+003, 8.907970e+002
4.090027e+003, 8.877423e+002
4.091956e+003, 8.879857e+002
4.093884e+003, 8.892010e+002
4.095813e+003, 8.899683e+002
4.097741e+003, 8.894261e+002
4.099669e+003, 8.890286e+002
4.101598e+003, 8.889136e+002
4.103526e+003, 8.898544e+002
4.105455e+003, 8.893018e+002
4.107383e+003, 8.859071e+002
4.109312e+003, 8.872258e+002
4.111240e+003, 8.912790e+002
4.113169e+003, 8.947246e+002
4.115097e+003, 8.940688e+002
4.117026e+003, 8.876423e+002
4.118954e+003, 8.886903e+002
4.120883e+003, 8.927999e+002
4.122811e+003, 8.920120e+002
4.124740e+003, 8.891990e+002
4.126668e+003, 8.843927e+002
4.128597e+003, 8.838174e+002
4.130525e+003, 8.850771e+002
4.132454e+003, 8.846388e+002
4.134382e+003, 8.853900e+002
4.136311e+003, 8.879486e+002
4.138239e+003, 8.897563e+002
4.140167e+003, 8.900998e+002
4.142096e+003, 8.872175e+002
4.144024e+003, 8.856892e+002
4.145953e+003, 8.860792e+002
4.147881e+003, 8.885749e+002
4.149810e+003, 8.903004e+002
4.151738e+003, 8.890800e+002
4.153667e+003, 8.867888e+002
4.155595e+003, 8.839435e+002
4.157523e+003, 8.797625e+002
4.159452e+003, 8.795539e+002
4.161380e+003, 8.878911e+002
4.163309e+003, 8.876748e+002
4.165237e+003, 8.818339e+002
4.167166e+003, 8.823582e+002
4.169094e+003, 8.839084e+002
4.171023e+003, 8.844785e+002
4.172951e+003, 8.845851e+002
4.174880e+003, 8.839188e+002
4.176808e+003, 8.806781e+002
4.178737e+003, 8.794643e+002
4.180665e+003, 8.819420e+002
4.182594e+003, 8.824694e+002
4.184522e+003, 8.815314e+002
4.186451e+003, 8.791951e+002
4.188379e+003, 8.764227e+002
4.190308e+003, 8.738884e+002
4.192236e+003, 8.766840e+002
4.194165e+003, 8.798018e+002
4.196093e+003, 8.790798e+002
4.198021e+003, 8.781238e+002
4.199950e+003, 8.775546e+002
4.201878e+003, 8.788270e+002
4.203807e+003, 8.796606e+002
4.205735e+003, 8.790598e+002
4.207664e+003, 8.786497e+002
4.209592e+003, 8.785726e+002
4.211521e+003, 8.790848e+002
4.213449e+003, 8.791057e+002
4.215377e+003, 8.782646e+002
4.217306e+003, 8.750823e+002
4.219234e+003, 8.722180e+002
4.221163e+003, 8.732249e+002
4.223091e+003, 8.721624e+002
4.225020e+003, 8.693020e+002
4.226948e+003, 8.726318e+002
4.228877e+003, 8.752888e+002
4.230805e+003, 8.729683e+002
4.232734e+003, 8.704250e+002
4.234662e+003, 8.691082e+002
4.236591e+003, 8.732327e+002
4.238519e+003, 8.755955e+002
4.240448e+003, 8.736070e+002
4.242376e+003, 8.727719e+002
##END=



