##NAMES=Kupletskite
##RRUFFID=R110176
##IDEAL CHEMISTRY=K_2_NaMn^2+^_7_Ti_2_(Si_4_O_12_)_2_O_2_(OH)_4_F
##LOCALITY=Mont St-Hilaire, Quebec, Canada
##OWNER=RRUFF
##SOURCE=Donald Doell
##DESCRIPTION=Dark brown micaceous associated with orthoclase and aegirine
##STATUS=The identification of this mineral has been confirmed only by single crystal X-ray diffraction
##URL=https://www.rruff.net/odr/rruff_sample/R110176
##DIFFRACTION SAMPLE DESCRIPTION=Single crystal, powder profile is calculated
##CELL PARAMETERS=a: 5.407 b: 11.925 c: 11.737 alpha: 113.02 beta: 94.78 gamma: 103.27 volume: 665.1 crystal system: triclinic
##FILETYPE=Raman Processed
##RAMAN WAVELENGTH=780

196.9551, 1172.656
198.8835, 1175.387
200.8120, 1177.599
202.7405, 1178.607
204.6689, 1180.299
206.5974, 1183.354
208.5259, 1186.643
210.4543, 1189.715
212.3828, 1192.472
214.3113, 1194.540
216.2397, 1195.545
218.1682, 1197.619
220.0967, 1201.172
222.0251, 1205.377
223.9536, 1209.979
225.8821, 1215.193
227.8105, 1221.391
229.7390, 1228.510
231.6675, 1235.214
233.5959, 1240.350
235.5244, 1246.695
237.4529, 1255.386
239.3813, 1264.353
241.3098, 1273.242
243.2383, 1281.280
245.1667, 1286.542
247.0952, 1288.333
249.0237, 1289.098
250.9521, 1289.115
252.8806, 1287.910
254.8091, 1284.642
256.7375, 1280.655
258.6660, 1277.557
260.5945, 1275.122
262.5229, 1270.479
264.4514, 1263.746
266.3799, 1254.344
268.3083, 1240.365
270.2368, 1226.286
272.1653, 1214.074
274.0938, 1203.426
276.0222, 1194.301
277.9507, 1186.922
279.8792, 1179.312
281.8076, 1170.852
283.7361, 1164.019
285.6646, 1159.965
287.5930, 1157.260
289.5215, 1155.357
291.4500, 1153.966
293.3784, 1152.480
295.3069, 1150.858
297.2354, 1149.028
299.1638, 1146.861
301.0923, 1144.780
303.0208, 1143.028
304.9492, 1141.401
306.8777, 1139.732
308.8062, 1138.107
310.7346, 1136.814
312.6631, 1135.830
314.5916, 1134.801
316.5200, 1133.346
318.4485, 1132.440
320.3770, 1132.442
322.3054, 1132.984
324.2339, 1134.253
326.1624, 1135.817
328.0908, 1136.199
330.0193, 1135.424
331.9477, 1134.487
333.8762, 1133.412
335.8047, 1132.598
337.7331, 1131.744
339.6616, 1131.588
341.5901, 1133.520
343.5185, 1136.473
345.4470, 1137.381
347.3755, 1136.148
349.3039, 1135.568
351.2324, 1136.785
353.1609, 1137.438
355.0893, 1136.416
357.0178, 1135.258
358.9463, 1135.234
360.8747, 1135.888
362.8032, 1136.507
364.7317, 1137.100
366.6601, 1136.738
368.5886, 1134.812
370.5171, 1132.744
372.4455, 1130.795
374.3740, 1128.649
376.3025, 1125.693
378.2309, 1122.620
380.1594, 1120.259
382.0879, 1118.609
384.0163, 1117.808
385.9448, 1118.730
387.8733, 1118.801
389.8017, 1117.384
391.7302, 1115.768
393.6587, 1114.680
395.5871, 1113.496
397.5156, 1111.508
399.4441, 1108.904
401.3725, 1106.566
403.3010, 1104.917
405.2295, 1102.197
407.1579, 1096.839
409.0864, 1092.776
411.0149, 1091.557
412.9433, 1091.152
414.8718, 1090.641
416.8003, 1089.852
418.7287, 1088.332
420.6572, 1086.035
422.5857, 1084.232
424.5141, 1083.291
426.4426, 1082.048
428.3711, 1080.852
430.2995, 1078.654
432.2280, 1074.527
434.1565, 1069.628
436.0849, 1064.425
438.0134, 1059.258
439.9419, 1055.063
441.8703, 1051.887
443.7988, 1049.922
445.7273, 1049.582
447.6557, 1048.959
449.5842, 1046.838
451.5127, 1045.486
453.4411, 1046.508
455.3696, 1048.292
457.2981, 1049.171
459.2265, 1049.379
461.1550, 1049.854
463.0835, 1050.560
465.0119, 1052.307
466.9404, 1055.939
468.8689, 1057.833
470.7973, 1055.986
472.7258, 1053.407
474.6543, 1051.384
476.5827, 1049.396
478.5112, 1046.676
480.4397, 1043.554
482.3681, 1041.147
484.2966, 1039.422
486.2251, 1037.933
488.1535, 1036.619
490.0820, 1035.501
492.0105, 1034.781
493.9389, 1033.873
495.8674, 1032.602
497.7959, 1030.938
499.7243, 1028.780
501.6528, 1026.239
503.5813, 1023.208
505.5097, 1019.957
507.4382, 1018.461
509.3667, 1019.470
511.2951, 1019.836
513.2236, 1018.389
515.1521, 1017.039
517.0806, 1016.255
519.0090, 1015.565
520.9375, 1014.996
522.8660, 1014.017
524.7944, 1011.559
526.7229, 1008.156
528.6514, 1005.412
530.5798, 1003.418
532.5083, 1002.367
534.4368, 1003.279
536.3652, 1003.617
538.2937, 1002.121
540.2222, 1001.441
542.1506, 1003.163
544.0791, 1005.598
546.0076, 1007.339
547.9360, 1008.749
549.8645, 1010.141
551.7930, 1011.581
553.7214, 1014.334
555.6499, 1019.793
557.5784, 1022.520
559.5068, 1020.771
561.4353, 1019.383
563.3638, 1019.731
565.2922, 1019.599
567.2207, 1018.344
569.1492, 1015.730
571.0776, 1011.259
573.0061, 1005.588
574.9346, 999.4677
576.8630, 993.0408
578.7914, 988.0990
580.7199, 985.0040
582.6484, 982.2902
584.5768, 980.0142
586.5053, 978.0834
588.4338, 976.6291
590.3622, 975.2698
592.2907, 973.6738
594.2192, 972.3018
596.1476, 971.1765
598.0761, 970.6263
600.0046, 971.4158
601.9330, 973.1716
603.8615, 974.7653
605.7900, 976.2587
607.7184, 975.2942
609.6469, 971.3129
611.5754, 968.5354
613.5038, 967.6887
615.4323, 967.8588
617.3608, 969.7330
619.2892, 971.0233
621.2177, 969.9714
623.1462, 968.7283
625.0746, 968.8685
627.0031, 970.0920
628.9316, 972.2245
630.8600, 975.0414
632.7885, 977.4536
634.7170, 979.5219
636.6454, 981.7969
638.5739, 984.1927
640.5024, 987.8045
642.4308, 992.7318
644.3593, 999.1735
646.2878, 1007.191
648.2162, 1016.686
650.1447, 1029.196
652.0732, 1041.459
654.0016, 1052.995
655.9301, 1061.344
657.8586, 1062.833
659.7870, 1058.495
661.7155, 1049.725
663.6440, 1037.386
665.5724, 1026.354
667.5009, 1016.926
669.4294, 1008.375
671.3578, 1000.111
673.2863, 994.0740
675.2148, 991.0300
677.1432, 989.2924
679.0717, 988.8281
681.0002, 989.1133
682.9286, 989.5201
684.8571, 990.9455
686.7856, 995.5134
688.7141, 1000.455
690.6425, 1001.952
692.5710, 1004.696
694.4995, 1005.888
696.4279, 1005.665
698.3564, 1005.959
700.2849, 1002.795
702.2133, 1000.675
704.1418, 1000.613
706.0703, 999.8877
707.9987, 998.4430
709.9272, 996.4215
711.8557, 993.9426
713.7841, 990.7128
715.7126, 986.5565
717.6411, 981.6592
719.5695, 975.8284
721.4980, 969.6115
723.4265, 963.2381
725.3549, 956.9692
727.2834, 951.2985
729.2119, 946.0493
731.1403, 940.6002
733.0688, 934.9584
734.9973, 929.2982
736.9257, 923.4426
738.8542, 918.7232
740.7827, 915.1572
742.7111, 912.7855
744.6396, 912.4098
746.5681, 910.0224
748.4965, 903.7153
750.4250, 897.5515
752.3535, 892.9487
754.2819, 889.0784
756.2104, 885.3887
758.1389, 882.5740
760.0673, 881.4939
761.9958, 881.2126
763.9243, 881.4525
765.8527, 881.3779
767.7812, 878.9312
769.7097, 875.1462
771.6381, 873.0021
773.5666, 872.2592
775.4951, 872.0399
777.4235, 872.1939
779.3520, 871.2826
781.2805, 869.1682
783.2089, 867.4139
785.1374, 866.3521
787.0659, 864.9734
788.9943, 862.7754
790.9228, 861.2150
792.8513, 861.7894
794.7797, 861.2516
796.7082, 858.2604
798.6367, 854.8610
800.5651, 851.4516
802.4936, 848.4570
804.4221, 846.3317
806.3505, 844.5493
808.2790, 843.0070
810.2075, 841.2545
812.1359, 838.0293
814.0644, 834.7258
815.9929, 833.8527
817.9213, 834.4102
819.8498, 834.2548
821.7783, 833.4598
823.7067, 832.5536
825.6352, 831.5078
827.5637, 829.8028
829.4921, 827.1594
831.4206, 826.1133
833.3491, 827.7941
835.2775, 827.9075
837.2060, 824.9048
839.1345, 823.1631
841.0629, 823.7364
842.9914, 823.8886
844.9199, 823.2500
846.8483, 822.2883
848.7768, 820.6024
850.7053, 819.4535
852.6337, 819.4317
854.5622, 819.7015
856.4907, 819.8496
858.4191, 820.0685
860.3476, 820.4599
862.2761, 820.9665
864.2045, 822.2338
866.1330, 822.8951
868.0615, 820.6578
869.9899, 818.0891
871.9184, 818.6964
873.8469, 820.9425
875.7753, 822.2438
877.7038, 823.1710
879.6323, 825.1847
881.5607, 827.9158
883.4892, 829.6469
885.4177, 830.7918
887.3461, 834.5363
889.2746, 836.8971
891.2031, 839.7174
893.1315, 843.8584
895.0600, 846.0635
896.9885, 850.3059
898.9169, 854.0702
900.8454, 857.1702
902.7739, 860.1447
904.7023, 862.9880
906.6308, 866.6451
908.5593, 869.7968
910.4877, 872.9529
912.4162, 877.0139
914.3447, 879.4532
916.2731, 883.6611
918.2016, 887.3110
920.1301, 890.0663
922.0585, 891.8948
923.9870, 892.5789
925.9155, 892.5029
927.8439, 891.1253
929.7724, 889.7393
931.7009, 889.2540
933.6293, 887.8333
935.5578, 885.4070
937.4863, 880.9371
939.4147, 872.9467
941.3432, 864.3057
943.2717, 856.3473
945.2001, 848.7250
947.1286, 841.6238
949.0571, 834.3585
950.9855, 826.0967
952.9140, 817.9113
954.8425, 810.1644
956.7709, 803.3748
958.6994, 798.4938
960.6279, 794.1895
962.5563, 788.8669
964.4848, 783.6660
966.4133, 780.1990
968.3417, 777.1047
970.2702, 772.6191
972.1987, 767.8461
974.1271, 763.9231
976.0556, 760.9005
977.9841, 759.3441
979.9125, 756.8542
981.8410, 756.4268
983.7695, 754.1940
985.6979, 753.4825
987.6264, 753.2927
989.5549, 751.2478
991.4833, 748.2597
993.4118, 746.3425
995.3403, 745.2279
997.2687, 744.5656
999.1972, 744.0687
1001.126, 742.7857
1003.054, 741.0704
1004.983, 739.8536
1006.911, 739.1469
1008.840, 739.0934
1010.768, 739.5039
1012.696, 739.5491
1014.625, 739.4631
1016.553, 740.6331
1018.482, 742.3448
1020.410, 741.3265
1022.339, 738.6493
1024.267, 738.8224
1026.196, 741.0588
1028.124, 742.6475
1030.053, 743.5723
1031.981, 743.5645
1033.910, 742.7708
1035.838, 741.5446
1037.767, 739.9144
1039.695, 737.8067
1041.624, 735.3683
1043.552, 733.2319
1045.480, 731.2396
1047.409, 728.9030
1049.337, 726.3701
1051.266, 724.2326
1053.194, 721.8032
1055.123, 719.8698
1057.051, 717.1689
1058.980, 714.7692
1060.908, 712.5228
1062.837, 709.4523
1064.765, 708.8155
1066.694, 706.1951
1068.622, 707.4542
1070.550, 707.7313
1072.479, 707.1578
1074.407, 705.8223
1076.336, 704.0677
1078.264, 702.0324
1080.193, 700.4517
1082.121, 701.5917
1084.050, 703.4921
1085.978, 702.6722
1087.907, 700.3359
1089.835, 697.8303
1091.764, 695.6104
1093.692, 694.3987
1095.620, 693.8534
1097.549, 693.9357
1099.477, 694.0063
1101.406, 693.4630
1103.334, 692.2823
1105.263, 689.9785
1107.191, 687.5108
1109.120, 685.5421
1111.048, 684.1542
1112.977, 683.9344
1114.905, 683.6907
1116.834, 682.5808
1118.762, 681.0274
1120.691, 678.6703
1122.619, 676.8831
1124.547, 676.6756
1126.476, 676.9492
1128.404, 677.3033
1130.333, 677.6232
1132.261, 678.3580
1134.190, 678.0358
1136.118, 675.6044
1138.047, 672.9426
1139.975, 670.3282
1141.904, 668.6881
1143.832, 668.4564
1145.761, 668.9916
1147.689, 670.6346
1149.618, 671.2270
1151.546, 670.1006
1153.474, 668.5031
1155.403, 666.5173
1157.331, 665.0027
1159.260, 664.1770
1161.188, 663.3386
1163.117, 662.3775
1165.045, 662.3186
1166.974, 660.9109
1168.902, 662.2514
1170.831, 659.2593
1172.759, 658.0745
1174.688, 658.7255
1176.616, 660.4617
1178.545, 662.5999
1180.473, 661.3711
1182.401, 661.4169
1184.330, 657.3494
1186.258, 658.0491
1188.187, 655.6599
1190.115, 652.3732
1192.044, 653.1371
1193.972, 651.4827
1195.901, 653.5448
1197.829, 651.2004
1199.758, 651.0049
1201.686, 651.3258
1203.615, 650.6854
1205.543, 649.9612
1207.472, 649.7916
1209.400, 649.8454
1211.328, 650.5529
1213.257, 650.4702
1215.185, 648.1028
1217.114, 646.6094
1219.042, 647.7542
1220.971, 648.0879
1222.899, 646.1558
1224.828, 645.0375
1226.756, 645.3824
1228.685, 646.0786
1230.613, 647.5491
1232.542, 646.6005
1234.470, 642.5289
1236.399, 640.8705
1238.327, 641.6091
1240.255, 641.3846
1242.184, 640.3992
1244.112, 640.0541
1246.041, 640.1003
1247.969, 639.5797
1249.898, 638.9320
1251.826, 639.3949
1253.755, 639.9309
1255.683, 638.3671
1257.612, 636.9462
1259.540, 638.0117
1261.469, 639.8116
1263.397, 641.9296
1265.326, 643.1380
1267.254, 642.6074
1269.182, 641.5629
1271.111, 639.9338
1273.039, 639.1579
1274.968, 639.8903
1276.896, 640.0620
1278.825, 639.3180
1280.753, 638.0569
1282.682, 638.1240
1284.610, 636.0833
1286.539, 637.1456
1288.467, 636.8710
1290.396, 635.6890
1292.324, 635.4669
1294.253, 635.9139
1296.181, 636.4293
1298.109, 637.0074
1300.038, 637.7576
1301.966, 638.3763
1303.895, 638.6292
1305.823, 638.4891
1307.752, 637.9650
1309.680, 636.9409
1311.609, 634.7686
1313.537, 633.1565
1315.466, 632.4330
1317.394, 632.5657
1319.323, 634.4489
1321.251, 634.7615
1323.180, 633.0723
1325.108, 631.9789
1327.036, 631.4725
1328.965, 631.7495
1330.893, 632.5731
1332.822, 633.1516
1334.750, 633.4720
1336.679, 633.8923
1338.607, 633.5674
1340.536, 630.6415
1342.464, 627.9214
1344.393, 627.3157
1346.321, 627.0432
1348.250, 626.5084
1350.178, 625.6854
1352.107, 624.4954
1354.035, 623.6494
1355.964, 623.4180
1357.892, 622.3537
1359.820, 620.3381
1361.749, 618.1067
1363.677, 615.9164
1365.606, 615.3929
1367.534, 615.8167
1369.463, 615.6515
1371.391, 615.3087
1373.320, 615.6656
1375.248, 615.5964
1377.177, 613.7869
1379.105, 612.0016
1381.034, 611.0370
1382.962, 609.8143
1384.891, 607.9040
1386.819, 606.8522
1388.747, 606.9141
1390.676, 606.9041
1392.604, 606.6801
1394.533, 605.4894
1396.461, 603.7047
1398.390, 602.2614
1400.318, 601.1013
1402.247, 599.8627
1404.175, 599.1428
1406.104, 600.0417
1408.032, 600.6768
1409.961, 599.8249
1411.889, 598.8884
1413.818, 597.6342
1415.746, 598.0458
1417.674, 601.0106
1419.603, 600.7472
1421.531, 597.3896
1423.460, 594.6396
1425.388, 592.9152
1427.317, 594.0178
1429.245, 596.0262
1431.174, 597.0715
1433.102, 596.9278
1435.031, 594.7605
1436.959, 592.6517
1438.888, 591.3270
1440.816, 590.5505
1442.745, 590.4529
1444.673, 590.2196
1446.601, 589.8223
1448.530, 588.9828
1450.458, 587.8066
1452.387, 586.8975
1454.315, 585.9604
1456.244, 584.1442
1458.172, 582.5182
1460.101, 582.3538
1462.029, 581.8536
1463.958, 579.8278
1465.886, 579.1992
1467.815, 580.8643
1469.743, 582.4342
1471.672, 583.5959
1473.600, 582.4145
1475.528, 579.7438
1477.457, 578.9179
1479.385, 578.7989
1481.314, 577.7742
1483.242, 576.3162
1485.171, 574.5387
1487.099, 572.8771
1489.028, 571.5284
1490.956, 570.0365
1492.885, 569.0112
1494.813, 567.4017
1496.742, 567.2581
1498.670, 566.9957
1500.599, 566.4172
1502.527, 564.8182
1504.455, 563.1425
1506.384, 562.6743
1508.312, 562.0749
1510.241, 560.4061
1512.169, 558.9081
1514.098, 557.7581
1516.026, 556.9065
1517.955, 556.3099
1519.883, 555.7966
1521.812, 555.3906
1523.740, 555.1693
1525.669, 555.2955
1527.597, 556.5999
1529.526, 557.3644
1531.454, 556.6719
1533.382, 555.1273
1535.311, 552.1234
1537.239, 550.4763
1539.168, 550.3097
1541.096, 549.5421
1543.025, 548.4011
1544.953, 547.7750
1546.882, 547.1577
1548.810, 545.6659
1550.739, 544.7158
1552.667, 545.4462
1554.596, 545.3700
1556.524, 543.5645
1558.453, 542.7683
1560.381, 543.0630
1562.309, 543.6330
1564.238, 544.3837
1566.166, 545.4797
1568.095, 546.2058
1570.023, 546.1426
1571.952, 544.9272
1573.880, 542.0241
1575.809, 540.1154
1577.737, 539.6646
1579.666, 538.4438
1581.594, 536.6027
1583.523, 535.0289
1585.451, 533.8889
1587.380, 533.1763
1589.308, 533.3734
1591.236, 535.8736
1593.165, 536.8989
1595.093, 535.6509
1597.022, 533.9266
1598.950, 531.9848
1600.879, 530.4217
1602.807, 529.2069
1604.736, 528.7012
1606.664, 527.8675
1608.593, 525.4860
1610.521, 523.3293
1612.450, 521.9153
1614.378, 520.8309
1616.307, 520.0186
1618.235, 518.7220
1620.163, 517.3966
1622.092, 517.4997
1624.020, 517.5351
1625.949, 516.3819
1627.877, 514.4445
1629.806, 510.9604
1631.734, 508.8470
1633.663, 508.2399
1635.591, 508.7244
1637.520, 509.3848
1639.448, 507.4535
1641.377, 504.8586
1643.305, 503.2538
1645.234, 501.1922
1647.162, 497.9582
1649.090, 494.9867
1651.019, 492.4107
1652.947, 492.2507
1654.876, 493.2062
1656.804, 492.4637
1658.733, 491.0757
1660.661, 489.6762
1662.590, 488.2849
1664.518, 487.0090
1666.447, 484.9901
1668.375, 482.4559
1670.304, 482.0658
1672.232, 480.3455
1674.161, 480.5630
1676.089, 478.7550
1678.017, 477.8801
1679.946, 477.9522
1681.874, 478.9959
1683.803, 478.7390
1685.731, 477.2993
1687.660, 475.5641
1689.588, 473.7880
1691.517, 471.9131
1693.445, 470.8763
1695.374, 469.8826
1697.302, 470.9327
1699.231, 469.4893
1701.159, 470.7853
1703.088, 472.4970
1705.016, 469.1755
1706.944, 465.5895
1708.873, 465.5097
1710.801, 465.3221
1712.730, 464.4969
1714.658, 462.8582
1716.587, 460.8158
1718.515, 460.2388
1720.444, 459.6407
1722.372, 456.8688
1724.301, 454.8339
1726.229, 455.0206
1728.158, 455.3808
1730.086, 455.7092
1732.015, 452.9649
1733.943, 453.8756
1735.871, 451.5620
1737.800, 453.1043
1739.728, 452.2079
1741.657, 450.8065
1743.585, 449.1835
1745.514, 447.6832
1747.442, 446.1833
1749.371, 444.0359
1751.299, 442.3551
1753.228, 441.8516
1755.156, 441.7527
1757.085, 441.9420
1759.013, 440.3708
1760.942, 439.9002
1762.870, 437.7071
1764.798, 437.6297
1766.727, 435.9799
1768.655, 434.6880
1770.584, 434.1722
1772.512, 432.9946
1774.441, 431.7098
1776.369, 433.0209
1778.298, 434.2642
1780.226, 432.7054
1782.155, 430.7874
1784.083, 428.9048
1786.012, 428.1560
1787.940, 428.1758
1789.869, 427.7803
1791.797, 426.9845
1793.725, 425.6368
1795.654, 424.1606
1797.582, 422.5580
1799.511, 422.0934
1801.439, 422.1367
1803.368, 420.2520
1805.296, 418.3988
1807.225, 418.7888
1809.153, 418.3393
1811.082, 416.2491
1813.010, 415.0395
1814.939, 414.5107
1816.867, 414.1842
1818.796, 413.8218
1820.724, 413.5860
1822.652, 412.2687
1824.581, 409.4580
1826.509, 407.9814
1828.438, 407.3932
1830.366, 407.2900
1832.295, 406.4873
1834.223, 403.9749
1836.152, 402.3362
1838.080, 401.8775
1840.009, 400.9037
1841.937, 399.7860
1843.866, 399.3974
1845.794, 398.4937
1847.723, 396.5151
1849.651, 395.2303
1851.579, 394.5750
1853.508, 392.7846
1855.436, 391.3454
1857.365, 392.6047
1859.293, 392.6759
1861.222, 390.6920
1863.150, 389.6855
1865.079, 389.2893
1867.007, 387.8764
1868.936, 386.6826
1870.864, 386.5646
1872.793, 386.8499
1874.721, 387.3107
1876.650, 386.5310
1878.578, 384.9413
1880.506, 382.5581
1882.435, 380.7882
1884.363, 380.1345
1886.292, 380.1879
1888.220, 380.4431
1890.149, 379.3423
1892.077, 377.5805
1894.006, 375.2201
1895.934, 373.4713
1897.863, 372.4663
1899.791, 372.6830
1901.720, 373.3418
1903.648, 373.7482
1905.577, 373.1329
1907.505, 370.5372
1909.433, 368.7111
1911.362, 367.5563
1913.290, 366.5331
1915.219, 365.6431
1917.147, 364.9445
1919.076, 364.3119
1921.004, 363.7136
1922.933, 362.1938
1924.861, 360.7876
1926.790, 361.2143
1928.718, 361.2964
1930.647, 360.3006
1932.575, 359.5368
1934.504, 358.8998
1936.432, 358.2137
1938.360, 356.7992
1940.289, 355.8208
1942.217, 352.8368
1944.146, 352.8955
1946.074, 350.4463
1948.003, 348.1955
1949.931, 349.2034
1951.860, 349.6957
1953.788, 349.1116
1955.717, 347.8671
1957.645, 346.4689
1959.574, 345.4284
1961.502, 344.9058
1963.431, 344.9943
1965.359, 343.3393
1967.287, 341.1478
1969.216, 341.8318
1971.144, 341.8917
1973.073, 339.0651
1975.001, 337.8875
1976.930, 338.0704
1978.858, 338.1583
1980.787, 337.8339
1982.715, 337.1652
1984.644, 335.7259
1986.572, 335.0258
1988.501, 333.1826
1990.429, 331.5185
1992.358, 331.2423
1994.286, 331.4975
1996.214, 332.1016
1998.143, 329.9364
2000.071, 327.0739
2002.000, 325.3329
2003.928, 324.7925
2005.857, 325.5821
2007.785, 325.6002
2009.714, 324.9272
2011.642, 323.3784
2013.571, 322.1406
2015.499, 321.5795
2017.428, 321.6205
2019.356, 321.4129
2021.285, 318.6996
2023.213, 316.7475
2025.141, 316.4995
2027.070, 316.2093
2028.998, 315.8493
2030.927, 315.0359
2032.855, 315.1537
2034.784, 313.1608
2036.712, 311.5670
2038.641, 310.4953
2040.569, 310.5307
2042.498, 309.6754
2044.426, 309.2459
2046.355, 306.9327
2048.283, 308.0006
2050.212, 307.9325
2052.140, 306.5970
2054.069, 303.7448
2055.997, 301.9458
2057.925, 300.8828
2059.854, 299.7437
2061.782, 298.4604
2063.711, 296.7383
2065.639, 297.3017
2067.568, 298.5774
2069.496, 297.0870
2071.425, 295.7614
2073.353, 295.9567
2075.281, 295.1106
2077.210, 293.9160
2079.138, 294.0308
2081.067, 293.2196
2082.995, 290.4779
2084.924, 288.4058
2086.852, 286.9022
2088.781, 285.6087
2090.709, 285.4376
2092.638, 286.7961
2094.566, 286.2667
2096.495, 284.6990
2098.423, 282.7583
2100.352, 281.6781
2102.280, 281.6556
2104.208, 280.7222
2106.137, 279.4958
2108.065, 278.6392
2109.994, 277.3463
2111.922, 275.6096
2113.851, 274.1405
2115.779, 273.1681
2117.708, 273.0081
2119.636, 272.4763
2121.565, 271.7199
2123.493, 272.0407
2125.422, 271.9242
2127.350, 270.5208
2129.279, 269.1301
2131.207, 267.9684
2133.135, 267.0785
2135.064, 266.3334
2136.992, 265.7968
2138.921, 265.3889
2140.849, 265.1891
2142.778, 264.9287
2144.706, 263.7760
2146.635, 263.1951
2148.563, 262.1515
2150.492, 261.1906
2152.420, 259.9832
2154.349, 258.8308
2156.277, 257.8777
2158.206, 257.1326
2160.134, 256.8009
2162.063, 257.2991
2163.991, 256.6622
2165.919, 255.2408
2167.848, 253.8441
2169.776, 252.6818
2171.705, 251.8346
2173.633, 251.7281
2175.562, 251.6985
2177.490, 251.0116
2179.419, 249.9403
2181.347, 248.5686
2183.276, 246.9798
2185.204, 245.7144
2187.133, 245.1364
2189.061, 243.9364
2190.990, 242.7456
2192.918, 244.3448
2194.846, 244.3405
2196.775, 241.5942
2198.703, 239.7339
2200.632, 238.4334
2202.560, 237.0095
2204.489, 236.3928
2206.417, 236.5206
2208.346, 236.4279
2210.274, 236.8775
2212.203, 238.6663
2214.131, 238.6864
2216.060, 237.0227
2217.988, 233.4904
2219.917, 230.6372
2221.845, 228.9478
2223.773, 227.8784
2225.702, 227.3722
2227.630, 226.5805
2229.559, 227.1960
2231.487, 225.8792
2233.416, 226.2906
2235.344, 225.9635
2237.273, 223.7975
2239.201, 224.9194
2241.130, 225.8177
2243.058, 222.7736
2244.987, 220.7181
2246.915, 219.9458
2248.844, 219.6840
2250.772, 219.0013
2252.700, 217.5176
2254.629, 216.6497
2256.557, 215.9399
2258.486, 214.6424
2260.414, 214.3980
2262.343, 215.0763
2264.271, 215.5473
2266.200, 214.6985
2268.128, 214.6390
2270.057, 213.7113
2271.985, 212.9235
2273.914, 211.4240
2275.842, 209.7531
2277.771, 208.3105
2279.699, 207.3612
2281.627, 207.3515
2283.556, 206.1691
2285.484, 206.9866
2287.413, 205.1484
2289.341, 205.0818
2291.270, 205.4358
2293.198, 205.6271
2295.127, 204.4579
2297.055, 202.7287
2298.984, 200.7129
2300.912, 199.9084
2302.841, 199.1976
2304.769, 197.2016
2306.698, 196.5990
2308.626, 196.8344
2310.554, 196.6901
2312.483, 195.9763
2314.411, 194.7454
2316.340, 193.8993
2318.268, 193.3411
2320.197, 193.0064
2322.125, 193.3653
2324.054, 193.4601
2325.982, 191.9148
2327.911, 190.3203
2329.839, 189.0558
2331.768, 188.6674
2333.696, 188.5244
2335.625, 188.3660
2337.553, 187.2900
2339.481, 186.0099
2341.410, 185.0514
2343.338, 184.4983
2345.267, 184.1016
2347.195, 183.3422
2349.124, 182.8657
2351.052, 182.6163
2352.981, 181.5743
2354.909, 181.1225
2356.838, 181.7081
2358.766, 181.5931
2360.695, 180.7928
2362.623, 178.8953
2364.552, 178.0683
2366.480, 177.8306
2368.408, 177.1912
2370.337, 176.2735
2372.265, 175.2955
2374.194, 175.0448
2376.122, 175.3057
2378.051, 176.0982
2379.979, 175.5649
2381.908, 174.5849
2383.836, 173.7791
2385.765, 173.0493
2387.693, 172.3018
2389.622, 171.3865
2391.550, 170.4398
2393.479, 169.7066
2395.407, 170.5612
2397.335, 170.3513
2399.264, 168.4621
2401.192, 166.6151
2403.121, 165.7333
2405.049, 166.2352
2406.978, 166.5239
2408.906, 166.1731
2410.835, 164.8071
2412.763, 163.5292
2414.692, 162.6096
2416.620, 162.6974
2418.549, 162.1222
2420.477, 160.8941
2422.406, 159.6903
2424.334, 158.8276
2426.262, 158.3670
2428.191, 158.6120
2430.119, 158.2437
2432.048, 156.6714
2433.976, 155.7152
2435.905, 155.1583
2437.833, 155.0322
2439.762, 153.9858
2441.690, 152.8063
2443.619, 152.7893
2445.547, 152.1404
2447.476, 151.2541
2449.404, 150.6534
2451.333, 149.8711
2453.261, 148.8905
2455.189, 148.1937
2457.118, 147.3785
2459.046, 146.1215
2460.975, 146.9572
2462.903, 147.4495
2464.832, 146.3768
2466.760, 146.6050
2468.689, 146.2470
2470.617, 144.0273
2472.546, 143.3450
2474.474, 142.8412
2476.403, 140.7809
2478.331, 141.1206
2480.260, 142.2702
2482.188, 141.4010
2484.116, 140.0334
2486.045, 138.6035
2487.973, 137.4454
2489.902, 137.3202
2491.830, 136.3824
2493.759, 136.8776
2495.687, 135.8626
2497.616, 135.1896
2499.544, 135.6681
2501.473, 135.6873
2503.401, 134.8236
2505.330, 133.7549
2507.258, 132.9906
2509.187, 132.7469
2511.115, 132.2451
2513.043, 131.4988
2514.972, 130.4640
2516.900, 129.6192
2518.829, 128.9684
2520.757, 128.5414
2522.686, 128.2208
2524.614, 127.9284
2526.543, 127.5151
2528.471, 127.6808
2530.400, 127.7697
2532.328, 126.9569
2534.257, 126.6056
2536.185, 126.1294
2538.114, 125.4166
2540.042, 123.8772
2541.970, 124.3375
2543.899, 123.7864
2545.827, 123.7320
2547.756, 124.0475
2549.684, 124.0267
2551.613, 123.9950
2553.541, 123.6959
2555.470, 122.0898
2557.398, 120.8116
2559.327, 119.9633
2561.255, 118.7380
2563.184, 118.3821
2565.112, 117.7029
2567.041, 117.5209
2568.969, 116.8102
2570.897, 116.5926
2572.826, 116.0241
2574.754, 115.4330
2576.683, 114.8525
2578.611, 113.8689
2580.540, 113.3695
2582.468, 113.3969
2584.397, 113.3493
2586.325, 112.6306
2588.254, 111.2608
2590.182, 109.9082
2592.111, 109.6955
2594.039, 110.5346
2595.968, 109.8162
2597.896, 108.8768
2599.824, 108.1176
2601.753, 107.4370
2603.681, 106.6382
2605.610, 106.1919
2607.538, 105.3799
2609.467, 104.8822
2611.395, 104.6372
2613.324, 104.6084
2615.252, 103.6780
2617.181, 102.2194
2619.109, 103.5462
2621.038, 103.4144
2622.966, 101.6163
2624.895, 101.1594
2626.823, 101.0722
2628.751, 101.0985
2630.680, 101.4106
2632.608, 100.9999
2634.537, 99.88563
2636.465, 98.47868
2638.394, 97.15369
2640.322, 96.39085
2642.251, 97.45223
2644.179, 97.72147
2646.108, 97.12971
2648.036, 96.24261
2649.965, 95.24139
2651.893, 94.51664
2653.822, 94.85454
2655.750, 94.34875
2657.678, 93.27546
2659.607, 92.12926
2661.535, 91.79282
2663.464, 91.96931
2665.392, 92.34497
2667.321, 91.75889
2669.249, 90.95026
2671.178, 90.59871
2673.106, 90.11507
2675.035, 89.70909
2676.963, 89.40887
2678.892, 89.16612
2680.820, 88.79784
2682.749, 88.68340
2684.677, 88.16531
2686.605, 87.12160
2688.534, 85.73106
2690.462, 85.04231
2692.391, 84.94087
2694.319, 85.18041
2696.248, 85.26196
2698.176, 84.50202
2700.105, 83.31102
2702.033, 83.36166
2703.962, 82.92718
2705.890, 82.09685
2707.819, 81.75333
2709.747, 80.81965
2711.676, 79.97466
2713.604, 80.43998
2715.532, 80.73689
2717.461, 80.19062
2719.389, 78.00591
2721.318, 77.41017
2723.246, 77.64967
2725.175, 78.16757
2727.103, 76.89289
2729.032, 76.16120
2730.960, 76.83664
2732.889, 76.50430
2734.817, 75.71880
2736.746, 74.77115
2738.674, 73.86645
2740.603, 73.99223
2742.531, 74.54229
2744.459, 73.68285
2746.388, 72.69752
2748.316, 72.24339
2750.245, 73.16959
2752.173, 72.92805
2754.102, 71.90484
2756.030, 70.51814
2757.959, 70.54190
2759.887, 70.19852
2761.816, 68.91678
2763.744, 69.15796
2765.673, 68.71226
2767.601, 67.66590
2769.530, 68.91518
2771.458, 68.64474
2773.386, 67.47087
2775.315, 67.73720
2777.243, 67.96433
2779.172, 67.38911
2781.100, 65.20351
2783.029, 64.78049
2784.957, 64.58814
2786.886, 63.65496
2788.814, 63.19707
2790.743, 63.09793
2792.671, 63.14854
2794.600, 62.38064
2796.528, 62.66279
2798.457, 63.53682
2800.385, 63.77351
2802.313, 62.60048
2804.242, 61.43697
2806.170, 61.45095
2808.099, 60.28070
2810.027, 59.44224
2811.956, 59.50831
2813.884, 59.58171
2815.813, 59.23876
2817.741, 58.71847
2819.670, 59.19688
2821.598, 57.87649
2823.527, 58.14950
2825.455, 57.40458
2827.384, 57.77405
2829.312, 57.57390
2831.240, 56.93961
2833.169, 57.09430
2835.097, 55.53608
2837.026, 56.42962
2838.954, 56.38174
2840.883, 55.28106
2842.811, 53.91066
2844.740, 53.18432
2846.668, 52.20197
2848.597, 51.82871
2850.525, 52.54696
2852.454, 52.71431
2854.382, 52.05992
2856.311, 50.99693
2858.239, 50.82471
2860.167, 51.63264
2862.096, 52.10286
2864.024, 50.87658
2865.953, 50.15668
2867.881, 49.82071
2869.810, 49.57544
2871.738, 48.45961
2873.667, 48.45549
2875.595, 49.09190
2877.524, 48.20527
2879.452, 48.91543
2881.381, 49.30247
2883.309, 47.67786
2885.238, 47.01045
2887.166, 46.44795
2889.094, 45.85737
2891.023, 46.00589
2892.951, 45.87924
2894.880, 45.45326
2896.808, 45.64051
2898.737, 45.22735
2900.665, 45.57055
2902.594, 45.21262
2904.522, 44.89059
2906.451, 44.86385
2908.379, 44.47962
2910.308, 44.29769
2912.236, 43.92904
2914.165, 43.29880
2916.093, 42.97409
2918.021, 42.51500
2919.950, 42.12494
2921.878, 41.72044
2923.807, 40.99445
2925.735, 40.73292
2927.664, 40.72710
2929.592, 40.72113
2931.521, 39.88688
2933.449, 39.67476
2935.378, 40.16274
2937.306, 40.98217
2939.235, 40.61649
2941.163, 39.78303
2943.092, 39.06556
2945.020, 38.31234
2946.948, 38.56968
2948.877, 37.79764
2950.805, 38.30138
2952.734, 37.15443
2954.662, 36.42394
2956.591, 36.46416
2958.519, 36.48499
2960.448, 36.41564
2962.376, 36.52910
2964.305, 36.33493
2966.233, 37.04578
2968.162, 36.07934
2970.090, 35.01585
2972.019, 35.00373
2973.947, 35.15131
2975.875, 34.90597
2977.804, 34.78562
2979.732, 34.33369
2981.661, 34.33974
2983.589, 33.35535
2985.518, 33.17068
2987.446, 33.24506
2989.375, 32.80274
2991.303, 31.30510
2993.232, 31.05426
2995.160, 31.72925
2997.089, 32.41438
2999.017, 31.28286
3000.946, 31.12709
3002.874, 31.26463
3004.802, 31.08862
3006.731, 30.21456
3008.659, 29.97905
3010.588, 30.16322
3012.516, 30.17406
3014.445, 30.35445
3016.373, 29.94550
3018.302, 29.78875
3020.230, 28.98780
3022.159, 28.93451
3024.087, 28.57266
3026.016, 27.86222
3027.944, 27.71028
3029.873, 27.59559
3031.801, 27.75157
3033.729, 27.61497
3035.658, 27.45322
3037.586, 27.59867
3039.515, 27.14784
3041.443, 27.18368
3043.372, 27.34085
3045.300, 27.00588
3047.229, 26.89033
3049.157, 26.15149
3051.086, 26.19374
3053.014, 25.96929
3054.943, 25.38448
3056.871, 25.77469
3058.800, 25.76618
3060.728, 25.11927
3062.656, 24.00887
3064.585, 23.79687
3066.513, 23.86032
3068.442, 23.88411
3070.370, 23.70929
3072.299, 23.79330
3074.227, 23.46624
3076.156, 23.53745
3078.084, 23.45974
3080.013, 23.72714
3081.941, 23.99067
3083.870, 23.79510
3085.798, 22.87835
3087.727, 22.55703
3089.655, 22.65985
3091.583, 22.30132
3093.512, 22.26508
3095.440, 22.24336
3097.369, 22.09135
3099.297, 21.73136
3101.226, 21.93448
3103.154, 21.62489
3105.083, 21.35865
3107.011, 20.77337
3108.940, 20.77448
3110.868, 20.64993
3112.797, 20.52732
3114.725, 21.10888
3116.654, 19.92952
3118.582, 19.09353
3120.510, 20.60300
3122.439, 20.14694
3124.367, 19.41252
3126.296, 18.74651
3128.224, 18.17735
3130.153, 19.22052
3132.081, 19.40984
3134.010, 18.96848
3135.938, 18.97519
3137.867, 19.20677
3139.795, 18.78620
3141.724, 17.93768
3143.652, 17.37733
3145.581, 17.07860
3147.509, 16.99759
3149.438, 17.16536
3151.366, 17.68375
3153.294, 17.22966
3155.223, 18.05894
3157.151, 16.78138
3159.080, 16.67163
3161.008, 16.87627
3162.937, 16.88964
3164.865, 16.97553
3166.794, 17.53965
3168.722, 17.57362
3170.651, 17.15193
3172.579, 17.01693
3174.508, 16.04442
3176.436, 15.93435
3178.365, 15.54676
3180.293, 14.84555
3182.221, 15.30326
3184.150, 15.02948
3186.078, 14.83215
3188.007, 15.16200
3189.935, 16.11521
3191.864, 15.70453
3193.792, 15.14206
3195.721, 14.74493
3197.649, 14.14920
3199.578, 14.30497
3201.506, 14.41931
3203.435, 14.22105
3205.363, 13.72569
3207.292, 13.57931
3209.220, 13.42262
3211.148, 13.27678
3213.077, 13.31850
3215.005, 13.64350
3216.934, 13.33397
3218.862, 12.75412
3220.791, 12.53207
3222.719, 12.85446
3224.648, 13.08766
3226.576, 12.82869
3228.505, 12.02083
3230.433, 13.04492
3232.362, 12.41555
3234.290, 11.65517
3236.219, 11.99825
3238.147, 12.36869
3240.075, 11.76022
3242.004, 11.08588
3243.932, 10.94394
3245.861, 11.55763
3247.789, 11.15799
3249.718, 11.14119
3251.646, 11.56779
3253.575, 11.23531
3255.503, 10.91890
3257.432, 11.17054
3259.360, 11.45009
3261.289, 10.82760
3263.217, 10.22069
3265.146, 10.36202
3267.074, 10.72705
3269.002, 10.73371
3270.931, 11.13133
3272.859, 10.70462
3274.788, 10.13854
3276.716, 9.960049
3278.645, 9.954566
3280.573, 10.43405
3282.502, 10.39286
3284.430, 9.929845
3286.359, 10.05437
3288.287, 9.897519
3290.216, 9.417929
3292.144, 9.296652
3294.073, 9.995911
3296.001, 9.304432
3297.929, 9.602421
3299.858, 12.24796
3301.786, 10.97053
3303.715, 10.97677
3305.643, 10.18649
3307.572, 9.835018
3309.500, 8.949766
3311.429, 9.295412
3313.357, 8.443814
3315.286, 8.524590
3317.214, 8.832973
3319.143, 8.365557
3321.071, 9.103470
3323.000, 8.791172
3324.928, 8.455537
3326.856, 10.19218
3328.785, 8.963503
3330.713, 11.50941
3332.642, 7.919363
3334.570, 8.007024
3336.499, 7.800929
3338.427, 8.064130
3340.356, 8.112103
3342.284, 7.740587
3344.213, 7.433340
3346.141, 8.700427
3348.070, 8.421297
3349.998, 8.000835
3351.927, 7.782460
3353.855, 7.571587
3355.783, 7.466169
3357.712, 7.722200
3359.640, 7.471832
3361.569, 7.623313
3363.497, 7.742673
3365.426, 7.299820
3367.354, 7.738081
3369.283, 8.054285
3371.211, 7.122134
3373.140, 7.081668
3375.068, 6.402580
3376.997, 6.286890
3378.925, 6.846539
3380.854, 7.033815
3382.782, 7.086763
3384.710, 6.943675
3386.639, 7.033536
3388.567, 7.409615
3390.496, 7.113303
3392.424, 7.065201
3394.353, 6.853858
3396.281, 6.646428
3398.210, 6.719804
3400.138, 6.197725
3402.067, 6.331278
3403.995, 6.177925
3405.924, 5.791444
3407.852, 6.292238
3409.781, 6.663077
3411.709, 7.116889
3413.637, 6.934025
3415.566, 6.134140
3417.494, 6.318687
3419.423, 6.387868
3421.351, 6.133290
3423.280, 6.460064
3425.208, 7.577648
3427.137, 6.705849
3429.065, 7.097352
3430.994, 7.048919
3432.922, 6.596063
3434.851, 6.568206
3436.779, 6.206534
3438.708, 6.019004
3440.636, 5.375124
3442.564, 5.100483
3444.493, 5.026042
3446.421, 5.948198
3448.350, 5.247178
3450.278, 5.448325
3452.207, 6.127326
3454.135, 5.878554
3456.064, 5.845442
3457.992, 5.771874
##END=



