##NAMES=Kyanite
##RRUFFID=R100139
##IDEAL CHEMISTRY=Al_2_OSiO_4_
##LOCALITY=Madagascar
##OWNER=RRUFF
##SOURCE=William W. Pinch
##DESCRIPTION=Blue prismatic crystal fragment, slightly water-worn
##STATUS=The identification of this mineral has been confirmed by single-crystal X-ray diffraction
##URL=https://www.rruff.net/odr/rruff_sample/R100139
##DIFFRACTION SAMPLE DESCRIPTION=Single crystal, powder profile is calculated
##CELL PARAMETERS=a: 7.095 b: 7.786 c: 5.538 alpha: 90.3 beta: 101.05 gamma: 105.95 volume: 288.15 crystal system: triclinic
##FILETYPE=Raman RAW
##RAMAN WAVELENGTH=532

87.24881, 6.659171
89.17728, 7.844757
91.10574, 6.546343
93.03421, 4.468383
94.96268, 3.892027
96.89114, 5.792684
98.81961, 7.430187
100.7481, 7.760090
102.6765, 5.765794
104.6050, 4.744780
106.5335, 5.481584
108.4619, 7.043112
110.3904, 8.064742
112.3189, 8.332568
114.2473, 8.092388
116.1758, 7.167541
118.1043, 5.378427
120.0327, 3.808196
121.9612, 2.549241
123.8897, 1.626374
125.8181, 1.356582
127.7466, 2.136102
129.6751, 3.142177
131.6035, 4.180785
133.5320, 5.530489
135.4605, 6.007491
137.3889, 4.616822
139.3174, 1.874390
141.2459, 0.9093632
143.1743, 3.068589
145.1028, 5.895447
147.0313, 7.880835
148.9597, 8.609291
150.8882, 8.809462
152.8167, 7.998871
154.7451, 6.648499
156.6736, 6.125927
158.6021, 8.173157
160.5305, 10.15404
162.4590, 10.01450
164.3875, 6.224483
166.3159, 3.568236
168.2444, 3.698893
170.1729, 6.152333
172.1013, 7.654205
174.0298, 8.229486
175.9583, 8.422513
177.8867, 8.276883
179.8152, 7.599205
181.7437, 7.027220
183.6721, 7.111618
185.6006, 7.836694
187.5291, 7.721806
189.4576, 5.783153
191.3860, 3.942418
193.3145, 3.113149
195.2430, 3.918703
197.1714, 4.551948
199.0999, 4.716846
201.0284, 4.586754
202.9568, 4.752104
204.8853, 5.459723
206.8138, 6.119998
208.7422, 6.523411
210.6707, 6.471282
212.5992, 6.544346
214.5276, 7.013020
216.4561, 7.622309
218.3846, 7.414052
220.3130, 5.033656
222.2415, 2.655993
224.1700, 1.961710
226.0984, 3.376157
228.0269, 4.642925
229.9554, 5.269475
231.8838, 5.323565
233.8123, 5.098039
235.7408, 4.287419
237.6692, 3.500793
239.5977, 3.111280
241.5262, 3.145594
243.4546, 3.515856
245.3831, 4.163247
247.3116, 4.892761
249.2400, 5.301209
251.1685, 5.488696
253.0970, 5.591056
255.0254, 5.418442
256.9539, 4.690658
258.8824, 4.101108
260.8108, 4.053315
262.7393, 4.514307
264.6678, 5.024541
266.5962, 5.553293
268.5247, 5.632890
270.4532, 5.234783
272.3816, 4.040509
274.3101, 3.502081
276.2386, 4.315941
278.1670, 5.465756
280.0955, 5.743867
282.0240, 3.935978
283.9524, 2.443085
285.8809, 2.445116
287.8094, 4.078466
289.7378, 5.269840
291.6663, 5.182305
293.5948, 4.666790
295.5232, 4.490108
297.4517, 5.298650
299.3802, 5.889365
301.3086, 6.062771
303.2371, 5.953983
305.1656, 5.923213
307.0940, 5.768066
309.0225, 5.709071
310.9510, 6.017914
312.8794, 7.012037
314.8079, 7.530360
316.7364, 7.354102
318.6648, 6.821449
320.5933, 6.377515
322.5218, 5.266095
324.4502, 4.441939
326.3787, 4.573667
328.3072, 5.646864
330.2356, 6.344745
332.1641, 6.720075
334.0926, 7.016799
336.0210, 7.202857
337.9495, 6.298781
339.8780, 5.453580
341.8064, 5.256571
343.7349, 5.610002
345.6634, 5.899950
347.5918, 5.666245
349.5203, 5.378577
351.4488, 5.351889
353.3772, 5.697958
355.3057, 6.029040
357.2342, 6.788889
359.1626, 7.786970
361.0911, 8.561963
363.0196, 8.110235
364.9480, 7.228712
366.8765, 6.307301
368.8050, 5.711937
370.7334, 5.807230
372.6619, 6.449891
374.5904, 6.843495
376.5188, 6.450871
378.4473, 5.193745
380.3758, 4.623687
382.3042, 5.323377
384.2327, 6.717857
386.1612, 7.719084
388.0896, 8.086645
390.0181, 8.029505
391.9466, 7.309211
393.8750, 5.789771
395.8035, 4.657528
397.7320, 4.693113
399.6604, 5.341458
401.5889, 6.025608
403.5174, 6.437942
405.4458, 6.945875
407.3743, 7.406376
409.3028, 7.646266
411.2312, 7.972333
413.1597, 7.994639
415.0882, 8.258943
417.0166, 8.355014
418.9451, 8.196039
420.8736, 7.695593
422.8020, 6.728974
424.7305, 5.944299
426.6590, 5.820370
428.5874, 6.294279
430.5159, 6.567401
432.4444, 6.420561
434.3728, 6.086639
436.3013, 6.085098
438.2298, 6.560399
440.1582, 7.075032
442.0867, 7.480974
444.0152, 7.829774
445.9436, 7.992747
447.8721, 7.518309
449.8006, 6.967227
451.7290, 7.011634
453.6575, 8.108940
455.5860, 8.733769
457.5144, 8.413598
459.4429, 7.581460
461.3714, 7.323044
463.2998, 6.974882
465.2283, 6.651308
467.1568, 6.546175
469.0852, 7.026580
471.0137, 7.353318
472.9422, 7.441069
474.8706, 7.445513
476.7991, 7.505774
478.7276, 7.126138
480.6560, 6.747420
482.5845, 6.651445
484.5130, 6.990595
486.4414, 7.679641
488.3699, 8.460165
490.2984, 8.897802
492.2268, 8.712476
494.1553, 8.252348
496.0838, 7.966567
498.0122, 8.449167
499.9407, 8.965273
501.8692, 9.167016
503.7976, 8.441180
505.7261, 7.457432
507.6546, 6.178308
509.5830, 5.290563
511.5115, 5.114563
513.4399, 5.115621
515.3684, 5.034678
517.2969, 5.036707
519.2253, 5.427623
521.1538, 5.942339
523.0823, 5.895395
525.0107, 6.093864
526.9392, 7.274871
528.8677, 9.225347
530.7961, 10.30393
532.7246, 9.857188
534.6531, 9.062695
536.5815, 8.198069
538.5100, 7.638106
540.4385, 7.533556
542.3669, 8.273360
544.2954, 8.774199
546.2239, 8.488089
548.1523, 7.073637
550.0808, 6.298999
552.0093, 6.625142
553.9377, 7.537178
555.8662, 8.264622
557.7947, 8.531466
559.7231, 8.579404
561.6516, 8.457565
563.5801, 8.233418
565.5085, 8.108367
567.4370, 8.419155
569.3655, 8.694936
571.2939, 8.608100
573.2224, 8.086708
575.1509, 7.926892
577.0793, 8.597471
579.0078, 9.359690
580.9363, 9.939833
582.8647, 10.23376
584.7932, 10.07820
586.7217, 9.117413
588.6501, 8.136319
590.5786, 7.471846
592.5071, 6.740641
594.4355, 6.403542
596.3640, 6.864882
598.2925, 7.949654
600.2209, 8.649990
602.1494, 8.485922
604.0779, 8.461309
606.0063, 9.397570
607.9348, 10.91106
609.8633, 11.58395
611.7917, 10.87033
613.7202, 10.21038
615.6487, 10.12194
617.5771, 10.29941
619.5056, 10.11981
621.4341, 8.996889
623.3625, 8.281190
625.2910, 8.682201
627.2195, 10.15606
629.1479, 10.85928
631.0764, 10.46193
633.0049, 9.815315
634.9333, 9.243606
636.8618, 8.594458
638.7903, 8.145298
640.7188, 8.052175
642.6472, 8.216896
644.5757, 8.457597
646.5042, 8.928089
648.4326, 9.252117
650.3611, 9.226513
652.2896, 9.089037
654.2180, 9.112047
656.1465, 9.354955
658.0750, 9.662643
660.0034, 10.08299
661.9319, 10.45560
663.8604, 10.74047
665.7888, 11.04008
667.7173, 11.31565
669.6458, 11.65478
671.5742, 11.84354
673.5027, 11.74608
675.4312, 10.82170
677.3596, 10.21760
679.2881, 10.37161
681.2166, 10.97538
683.1450, 11.07883
685.0735, 10.30352
687.0020, 9.655733
688.9304, 9.569249
690.8589, 10.01010
692.7874, 10.32154
694.7158, 10.20188
696.6443, 10.25460
698.5728, 10.99246
700.5012, 12.23519
702.4297, 12.88620
704.3582, 12.50158
706.2866, 11.85282
708.2151, 11.24060
710.1436, 10.55090
712.0720, 10.09037
714.0005, 9.997729
715.9290, 10.01062
717.8574, 9.877980
719.7859, 9.656801
721.7144, 9.699959
723.6428, 10.25829
725.5713, 10.91448
727.4998, 11.62221
729.4282, 12.46713
731.3567, 12.64733
733.2852, 11.48280
735.2136, 10.24148
737.1421, 9.685823
739.0706, 9.869536
740.9990, 10.09868
742.9275, 10.34489
744.8560, 10.41979
746.7844, 10.37532
748.7129, 10.33120
750.6414, 10.27129
752.5698, 10.04472
754.4983, 9.878756
756.4268, 9.912541
758.3552, 9.769209
760.2837, 9.964751
762.2122, 9.723519
764.1406, 9.809079
766.0691, 9.897992
767.9976, 9.789210
769.9260, 9.657591
771.8545, 9.701652
773.7830, 9.769135
775.7114, 9.590018
777.6399, 8.958236
779.5684, 8.651642
781.4968, 9.059168
783.4253, 9.819845
785.3538, 10.28796
787.2822, 10.51426
789.2107, 10.78671
791.1392, 11.13846
793.0676, 11.22193
794.9961, 11.38510
796.9246, 11.77540
798.8530, 12.10691
800.7815, 12.16233
802.7100, 12.24997
804.6384, 12.24215
806.5669, 11.77579
808.4954, 11.37813
810.4238, 11.48743
812.3523, 12.20003
814.2808, 12.53215
816.2092, 12.25207
818.1377, 11.66972
820.0662, 10.88917
821.9946, 9.933818
823.9231, 9.254030
825.8516, 9.048605
827.7800, 9.259551
829.7085, 9.972171
831.6370, 10.97210
833.5654, 11.71307
835.4939, 11.89283
837.4224, 11.76606
839.3508, 11.55777
841.2793, 11.73411
843.2078, 11.61754
845.1362, 10.65009
847.0647, 9.949062
848.9932, 10.20933
850.9216, 11.13532
852.8501, 11.67243
854.7786, 11.58475
856.7070, 11.60917
858.6355, 12.03258
860.5640, 13.27427
862.4924, 14.72394
864.4209, 15.03792
866.3494, 14.14461
868.2778, 12.11534
870.2063, 10.96328
872.1348, 10.80922
874.0632, 11.53271
875.9917, 12.27013
877.9202, 13.04148
879.8486, 13.13951
881.7771, 12.89993
883.7056, 12.66918
885.6340, 12.72949
887.5625, 13.14862
889.4910, 14.08319
891.4194, 14.84447
893.3479, 15.31648
895.2764, 15.50707
897.2048, 15.28572
899.1333, 14.34629
901.0618, 13.37247
902.9902, 12.82591
904.9187, 12.65461
906.8472, 12.98238
908.7756, 13.60183
910.7041, 13.64581
912.6326, 12.49298
914.5610, 12.06753
916.4895, 12.95952
918.4180, 13.83436
920.3464, 12.85179
922.2749, 11.82812
924.2034, 11.93949
926.1318, 13.04368
928.0603, 13.70764
929.9888, 13.63547
931.9172, 13.06714
933.8457, 13.22239
935.7742, 14.55993
937.7026, 16.16710
939.6311, 17.03442
941.5596, 17.23043
943.4880, 16.83919
945.4165, 15.42919
947.3450, 14.10188
949.2734, 13.80077
951.2019, 14.18364
953.1304, 14.14503
955.0588, 14.57669
956.9873, 15.35140
958.9158, 15.99536
960.8442, 15.03543
962.7727, 13.79448
964.7012, 13.24574
966.6296, 13.15227
968.5581, 13.13353
970.4866, 12.99065
972.4150, 13.12514
974.3435, 14.19521
976.2720, 15.29940
978.2004, 15.77035
980.1289, 15.43118
982.0574, 15.13814
983.9858, 14.51695
985.9143, 13.89769
987.8428, 13.78432
989.7712, 14.25558
991.6997, 14.72452
993.6282, 15.21941
995.5566, 15.52394
997.4851, 15.47916
999.4136, 15.08303
1001.342, 14.25696
1003.271, 12.64079
1005.199, 11.27678
1007.127, 11.24185
1009.056, 12.29296
1010.984, 13.61646
1012.913, 13.61384
1014.841, 14.22969
1016.770, 13.58806
1018.698, 14.30960
1020.627, 14.40026
1022.555, 14.06718
1024.484, 13.84333
1026.412, 13.21908
1028.341, 12.73132
1030.269, 12.66485
1032.198, 13.08733
1034.126, 13.97126
1036.054, 15.37563
1037.983, 16.13109
1039.911, 16.25122
1041.840, 16.01836
1043.768, 15.84250
1045.697, 15.82980
1047.625, 16.27584
1049.554, 16.68576
1051.482, 16.85275
1053.411, 16.97895
1055.339, 17.26081
1057.268, 16.96529
1059.196, 15.89456
1061.125, 14.99774
1063.053, 15.13521
1064.981, 16.63202
1066.910, 18.03802
1068.838, 18.33516
1070.767, 18.03340
1072.695, 17.27129
1074.624, 15.98420
1076.552, 14.64565
1078.481, 13.78459
1080.409, 14.03310
1082.338, 14.88475
1084.266, 15.63304
1086.195, 16.04305
1088.123, 16.30654
1090.052, 16.47521
1091.980, 16.75016
1093.908, 17.18084
1095.837, 17.13680
1097.765, 16.42358
1099.694, 16.45981
1101.622, 18.48185
1103.551, 19.90163
1105.479, 18.78443
1107.408, 16.01653
1109.336, 14.32345
1111.265, 14.64138
1113.193, 15.64896
1115.122, 16.04888
1117.050, 15.69935
1118.979, 15.26966
1120.907, 14.99180
1122.835, 15.10364
1124.764, 15.43671
1126.692, 16.12850
1128.621, 16.77621
1130.549, 16.97233
1132.478, 16.90418
1134.406, 17.03063
1136.335, 17.61384
1138.263, 18.38856
1140.192, 19.12030
1142.120, 19.24927
1144.049, 18.49535
1145.977, 17.38429
1147.906, 16.19489
1149.834, 15.59454
1151.762, 15.53136
1153.691, 15.73864
1155.619, 15.80997
1157.548, 16.40068
1159.476, 17.43595
1161.405, 17.81738
1163.333, 17.51444
1165.262, 17.18453
1167.190, 16.78988
1169.119, 16.40459
1171.047, 16.44843
1172.976, 17.18900
1174.904, 18.14588
1176.833, 19.22376
1178.761, 19.57389
1180.689, 18.58233
1182.618, 17.93505
1184.546, 18.07618
1186.475, 18.81017
1188.403, 19.64117
1190.332, 21.25932
1192.260, 21.94863
1194.189, 20.55687
1196.117, 19.00567
1198.046, 18.82300
1199.974, 19.64905
1201.903, 20.27580
1203.831, 21.20875
1205.760, 21.96163
1207.688, 21.07510
1209.616, 18.99893
1211.545, 17.80047
1213.473, 17.87341
1215.402, 18.00493
1217.330, 18.28645
1219.259, 18.85022
1221.187, 19.21407
1223.116, 19.08313
1225.044, 19.32257
1226.973, 21.02108
1228.901, 22.31208
1230.830, 21.33431
1232.758, 18.73028
1234.687, 18.06359
1236.615, 20.01400
1238.543, 21.24864
1240.472, 20.13795
1242.400, 18.83242
1244.329, 18.52824
1246.257, 19.13305
1248.186, 19.15569
1250.114, 17.71352
1252.043, 16.64428
1253.971, 17.09180
1255.900, 18.57839
1257.828, 19.61335
1259.757, 19.70432
1261.685, 20.32565
1263.614, 22.93097
1265.542, 24.54063
1267.470, 22.67381
1269.399, 18.32978
1271.327, 16.63786
1273.256, 18.81604
1275.184, 20.64990
1277.113, 20.60251
1279.041, 19.81250
1280.970, 19.19604
1282.898, 18.83662
1284.827, 18.76705
1286.755, 19.31047
1288.684, 19.49621
1290.612, 18.53332
1292.541, 17.27699
1294.469, 17.42450
1296.397, 20.07423
1298.326, 21.74175
1300.254, 21.29931
1302.183, 20.86159
1304.111, 22.12794
1306.040, 24.50277
1307.968, 24.89075
1309.897, 21.99139
1311.825, 20.10287
1313.754, 20.88723
1315.682, 22.42560
1317.611, 23.28651
1319.539, 23.50944
1321.468, 23.08648
1323.396, 21.47994
1325.324, 20.31308
1327.253, 20.55849
1329.181, 21.39397
1331.110, 21.84978
1333.038, 21.83712
1334.967, 22.04149
1336.895, 23.27090
1338.824, 23.85916
1340.752, 22.55676
1342.681, 20.37995
1344.609, 19.57758
1346.538, 21.25063
1348.466, 22.33718
1350.395, 22.51750
1352.323, 22.40364
1354.251, 22.16685
1356.180, 21.96363
1358.108, 22.19537
1360.037, 22.96183
1361.965, 23.77445
1363.894, 25.14107
1365.822, 26.00442
1367.751, 24.96726
1369.679, 22.68582
1371.608, 21.95990
1373.536, 23.67630
1375.465, 25.06398
1377.393, 24.68031
1379.322, 24.01645
1381.250, 24.43215
1383.178, 26.11497
1385.107, 27.22971
1387.035, 27.62472
1388.964, 27.31959
1390.892, 26.25105
1392.821, 24.90759
1394.749, 23.13175
1396.678, 20.66879
1398.606, 20.10317
1400.535, 23.32756
1402.463, 25.59385
1404.392, 25.31671
1406.320, 23.98214
1408.249, 22.96063
1410.177, 22.03723
1412.105, 21.67631
1414.034, 22.30160
1415.962, 23.23418
1417.891, 24.44645
1419.819, 25.50066
1421.748, 26.15385
1423.676, 26.47935
1425.605, 26.39011
1427.533, 25.43668
1429.462, 24.88418
1431.390, 25.70732
1433.319, 26.90548
1435.247, 27.46471
1437.176, 27.46724
1439.104, 27.07246
1441.032, 25.60906
1442.961, 24.65317
1444.889, 25.14923
1446.818, 26.26345
1448.746, 26.80773
1450.675, 26.80313
1452.603, 26.86312
1454.532, 26.84805
1456.460, 26.81140
1458.389, 26.91234
1460.317, 26.94456
1462.246, 26.47988
1464.174, 25.73575
1466.103, 25.61091
1468.031, 26.09790
1469.959, 26.38455
1471.888, 26.36457
1473.816, 26.48585
1475.745, 26.88439
1477.673, 27.14186
1479.602, 27.29408
1481.530, 27.53829
1483.459, 27.65535
1485.387, 27.06710
1487.316, 26.74004
1489.244, 28.11992
1491.173, 30.52218
1493.101, 31.14763
1495.030, 29.17192
1496.958, 27.31631
1498.886, 26.11961
1500.815, 25.82542
1502.743, 26.88157
1504.672, 28.75583
1506.600, 30.07041
1508.529, 30.69469
1510.457, 30.53824
1512.386, 28.94360
1514.314, 27.38968
1516.243, 26.67116
1518.171, 26.61177
1520.100, 26.56317
1522.028, 26.59657
1523.957, 27.06781
1525.885, 27.64294
1527.813, 28.78222
1529.742, 31.68258
1531.670, 34.85135
1533.599, 35.45630
1535.527, 33.00742
1537.456, 31.24581
1539.384, 30.47640
1541.313, 29.36369
1543.241, 26.62511
1545.170, 24.04983
1547.098, 23.90191
1549.027, 26.43799
1550.955, 28.96013
1552.884, 32.27734
1554.812, 34.16843
1556.740, 33.79234
1558.669, 32.45567
1560.597, 30.60439
1562.526, 28.39291
1564.454, 27.23513
1566.383, 27.62382
1568.311, 28.60124
1570.240, 30.91488
1572.168, 32.25921
1574.097, 30.57431
1576.025, 27.73118
1577.954, 27.36534
1579.882, 29.61941
1581.811, 31.03112
1583.739, 31.03673
1585.667, 30.65839
1587.596, 29.88847
1589.524, 28.95420
1591.453, 28.00270
1593.381, 27.20679
1595.310, 27.16336
1597.238, 28.16361
1599.167, 29.40140
1601.095, 30.89629
1603.024, 32.06174
1604.952, 32.32768
1606.881, 32.22829
1608.809, 33.05480
1610.738, 34.97083
1612.666, 34.73423
1614.594, 30.08103
1616.523, 26.41390
1618.451, 27.16388
1620.380, 29.28733
1622.308, 29.32855
1624.237, 27.79711
1626.165, 28.44927
1628.094, 32.53147
1630.022, 35.32092
1631.951, 34.58091
1633.879, 33.43474
1635.808, 33.78779
1637.736, 34.93272
1639.665, 35.40347
1641.593, 35.13507
1643.521, 35.01030
1645.450, 35.25631
1647.378, 35.48876
1649.307, 35.86683
1651.235, 35.91900
1653.164, 35.08500
1655.092, 33.55275
1657.021, 32.13012
1658.949, 30.64561
1660.878, 30.06102
1662.806, 30.91653
1664.735, 32.20367
1666.663, 34.21246
1668.592, 35.95241
1670.520, 35.57766
1672.448, 33.17781
1674.377, 32.66364
1676.305, 35.21744
1678.234, 37.10398
1680.162, 37.85218
1682.091, 37.26007
1684.019, 33.53355
1685.948, 28.97002
1687.876, 29.01821
1689.805, 34.33340
1691.733, 36.93169
1693.662, 34.73212
1695.590, 32.75872
1697.519, 32.28878
1699.447, 32.55547
1701.375, 33.08952
1703.304, 33.96323
1705.232, 35.79591
1707.161, 39.07195
1709.089, 40.20530
1711.018, 37.29879
1712.946, 34.81778
1714.875, 34.29462
1716.803, 34.54918
1718.732, 35.01699
1720.660, 35.51224
1722.589, 34.98838
1724.517, 33.07411
1726.446, 32.03179
1728.374, 32.56226
1730.302, 33.30143
1732.231, 34.12880
1734.159, 34.67112
1736.088, 34.11415
1738.016, 32.89780
1739.945, 33.55626
1741.873, 36.72084
1743.802, 38.47157
1745.730, 37.44008
1747.659, 36.29644
1749.587, 36.08228
1751.516, 36.12049
1753.444, 35.86291
1755.373, 35.36322
1757.301, 34.69746
1759.229, 33.71038
1761.158, 33.71848
1763.086, 35.67452
1765.015, 37.22033
1766.943, 36.99883
1768.872, 36.43521
1770.800, 36.62114
1772.729, 37.36601
1774.657, 38.27033
1776.586, 39.39179
1778.514, 39.72711
1780.443, 38.68720
1782.371, 37.83367
1784.300, 37.91468
1786.228, 38.18970
1788.156, 38.07132
1790.085, 37.77079
1792.013, 37.75708
1793.942, 38.04041
1795.870, 38.34138
1797.799, 38.98922
1799.727, 38.61888
1801.656, 35.30463
1803.584, 32.58437
1805.513, 33.52040
1807.441, 36.05124
1809.370, 37.13073
1811.298, 36.83585
1813.227, 35.81405
1815.155, 33.51902
1817.083, 32.59684
1819.012, 34.89065
1820.940, 37.04421
1822.869, 37.22951
1824.797, 36.67176
1826.726, 36.76330
1828.654, 37.36956
1830.583, 37.76112
1832.511, 37.96492
1834.440, 37.83266
1836.368, 37.22779
1838.297, 36.44899
1840.225, 34.97073
1842.154, 33.93859
1844.082, 35.11169
1846.010, 37.16542
1847.939, 36.33818
1849.867, 31.76940
1851.796, 30.40556
1853.724, 34.54820
1855.653, 38.09588
1857.581, 41.72340
1859.510, 43.20228
1861.438, 39.25876
1863.367, 34.22467
1865.295, 34.05321
1867.224, 37.90279
1869.152, 39.27182
1871.081, 37.02549
1873.009, 35.70955
1874.938, 35.63863
1876.866, 36.34426
1878.794, 38.25506
1880.723, 40.31604
1882.651, 42.10181
1884.580, 43.48722
1886.508, 44.35507
1888.437, 44.68844
1890.365, 43.75760
1892.294, 40.87551
1894.222, 39.76953
1896.151, 42.83935
1898.079, 44.62279
1900.008, 41.11459
1901.936, 37.18524
1903.865, 36.41146
1905.793, 38.01616
1907.721, 41.54919
1909.650, 46.71095
1911.578, 48.10500
1913.507, 44.06523
1915.435, 40.88021
1917.364, 40.53712
1919.292, 40.48193
1921.221, 39.01366
1923.149, 37.87229
1925.078, 39.19680
1927.006, 42.01180
1928.935, 43.75629
1930.863, 44.33346
1932.792, 44.67277
1934.720, 44.71548
1936.648, 44.63678
1938.577, 44.01841
1940.505, 43.85257
1942.434, 45.41351
1944.362, 46.76824
1946.291, 45.58460
1948.219, 42.94402
1950.148, 41.76577
1952.076, 42.19924
1954.005, 42.94130
1955.933, 44.32831
1957.862, 45.09340
1959.790, 44.66486
1961.719, 44.19003
1963.647, 44.28558
1965.575, 44.28426
1967.504, 43.27414
1969.432, 42.03448
1971.361, 42.48010
1973.289, 44.24474
1975.218, 44.09220
1977.146, 41.29801
1979.075, 40.23689
1981.003, 42.20790
1982.932, 44.85680
1984.860, 48.52504
1986.789, 51.30640
1988.717, 51.29604
1990.646, 50.14378
1992.574, 49.92328
1994.502, 50.56345
1996.431, 52.05733
1998.359, 51.06112
2000.288, 49.35263
2002.216, 49.39616
2004.145, 44.89529
2006.073, 42.74015
2008.002, 42.79733
2009.930, 47.48838
2011.859, 52.05433
2013.787, 51.13298
2015.716, 47.23980
2017.644, 46.53749
2019.573, 48.78469
2021.501, 49.42676
2023.429, 47.79196
2025.358, 47.73474
2027.286, 50.61957
2029.215, 53.25863
2031.143, 54.86328
2033.072, 55.56104
2035.000, 54.72139
2036.929, 53.58865
2038.857, 53.82645
2040.786, 54.84988
2042.714, 54.87270
2044.643, 53.80053
2046.571, 52.81197
2048.500, 51.26031
2050.428, 51.10862
2052.356, 54.11970
2054.285, 56.09100
2056.213, 55.27962
2058.142, 53.96422
2060.070, 53.41031
2061.999, 53.11954
2063.927, 52.04750
2065.856, 50.78525
2067.784, 51.88708
2069.713, 55.25276
2071.641, 56.94466
2073.570, 56.35398
2075.498, 56.22673
2077.427, 57.29707
2079.355, 58.30548
2081.283, 58.71447
2083.212, 59.03651
2085.140, 60.17087
2087.069, 60.82410
2088.997, 58.95569
2090.926, 55.73306
2092.854, 54.13387
2094.783, 54.16355
2096.711, 54.08119
2098.640, 54.04198
2100.568, 53.42615
2102.497, 50.69921
2104.425, 50.25825
2106.354, 55.43517
2108.282, 59.47071
2110.210, 58.60688
2112.139, 56.77232
2114.067, 57.14594
2115.996, 58.14185
2117.924, 56.95022
2119.853, 54.42725
2121.781, 53.84981
2123.710, 55.33918
2125.638, 56.19585
2127.567, 55.71815
2129.495, 56.18071
2131.424, 59.20824
2133.352, 61.17373
2135.281, 60.32236
2137.209, 59.36319
2139.137, 60.26364
2141.066, 61.11324
2142.994, 59.28407
2144.923, 56.55420
2146.851, 56.71501
2148.780, 59.14523
2150.708, 60.58052
2152.637, 60.94172
2154.565, 60.47656
2156.494, 58.89016
2158.422, 57.94051
2160.351, 57.86534
2162.279, 58.66678
2164.208, 61.48222
2166.136, 63.71056
2168.064, 63.51831
2169.993, 62.68340
2171.921, 62.69062
2173.850, 63.20430
2175.778, 63.72075
2177.707, 64.24215
2179.635, 65.05544
2181.564, 66.18364
2183.492, 65.19829
2185.421, 61.34060
2187.349, 59.98809
2189.278, 63.28932
2191.206, 65.02441
2193.135, 61.69507
2195.063, 59.19608
2196.991, 60.81915
2198.920, 63.17249
2200.848, 64.08189
2202.777, 64.35052
2204.705, 64.91296
2206.634, 65.55727
2208.562, 65.48996
2210.491, 66.48251
2212.419, 67.67053
2214.348, 68.36184
2216.276, 70.53407
2218.205, 72.18503
2220.133, 73.32881
2222.062, 74.05107
2223.990, 74.06271
2225.918, 73.36813
2227.847, 71.81984
2229.775, 67.01012
2231.704, 64.05604
2233.632, 69.17252
2235.561, 75.67678
2237.489, 75.20541
2239.418, 70.79736
2241.346, 68.66364
2243.275, 68.55758
2245.203, 68.98154
2247.132, 69.91154
2249.060, 70.37656
2250.989, 70.21445
2252.917, 70.50029
2254.845, 71.54678
2256.774, 72.58172
2258.702, 73.23080
2260.631, 74.14641
2262.559, 76.00269
2264.488, 77.54482
2266.416, 78.04598
2268.345, 78.06633
2270.273, 77.91026
2272.202, 77.66042
2274.130, 77.68593
2276.059, 77.60285
2277.987, 75.99534
2279.916, 73.42927
2281.844, 72.33129
2283.772, 72.77766
2285.701, 75.39285
2287.629, 81.89851
2289.558, 84.63413
2291.486, 79.53142
2293.415, 76.77645
2295.343, 78.83855
2297.272, 80.81069
2299.200, 82.11864
2301.129, 82.43274
2303.057, 79.63397
2304.986, 78.25893
2306.914, 84.00903
2308.843, 90.20171
2310.771, 88.57415
2312.699, 83.73733
2314.628, 83.85564
2316.556, 87.14647
2318.485, 87.28453
2320.413, 84.48722
2322.342, 83.80717
2324.270, 85.45600
2326.199, 87.04810
2328.127, 88.50945
2330.056, 90.11127
2331.984, 92.64668
2333.913, 92.13773
2335.841, 84.27005
2337.770, 80.24560
2339.698, 87.23836
2341.626, 93.30363
2343.555, 93.16482
2345.483, 91.24628
2347.412, 87.93043
2349.340, 86.36964
2351.269, 91.59249
2353.197, 98.29252
2355.126, 99.08882
2357.054, 96.92457
2358.983, 97.57607
2360.911, 99.99496
2362.840, 100.2148
2364.768, 98.36507
2366.697, 97.09489
2368.625, 96.27652
2370.553, 97.17110
2372.482, 100.8372
2374.410, 101.2304
2376.339, 96.39542
2378.267, 94.84093
2380.196, 99.76134
2382.124, 103.1093
2384.053, 101.2608
2385.981, 99.72150
2387.910, 100.6607
2389.838, 102.0032
2391.767, 102.9522
2393.695, 103.7697
2395.624, 104.3117
2397.552, 105.1487
2399.480, 107.5870
2401.409, 109.9583
2403.337, 108.9980
2405.266, 107.2769
2407.194, 110.3562
2409.123, 115.9497
2411.051, 116.7475
2412.980, 113.5138
2414.908, 112.0108
2416.837, 112.2354
2418.765, 115.2646
2420.694, 121.5443
2422.622, 123.2436
2424.551, 119.3558
2426.479, 115.1305
2428.407, 110.2288
2430.336, 108.9348
2432.264, 114.4787
2434.193, 119.3850
2436.121, 122.9135
2438.050, 125.0637
2439.978, 124.4333
2441.907, 124.6124
2443.835, 128.7293
2445.764, 130.9151
2447.692, 124.3327
2449.621, 119.4138
2451.549, 127.0929
2453.478, 135.1055
2455.406, 129.8553
2457.334, 121.4384
2459.263, 122.1138
2461.191, 127.0820
2463.120, 129.1165
2465.048, 129.7041
2466.977, 132.3635
2468.905, 136.0686
2470.834, 138.2052
2472.762, 138.7476
2474.691, 136.7367
2476.619, 132.2681
2478.548, 130.9863
2480.476, 133.1068
2482.405, 136.3715
2484.333, 140.8935
2486.261, 144.0151
2488.190, 145.4289
2490.118, 146.1798
2492.047, 146.0767
2493.975, 146.5409
2495.904, 148.3636
2497.832, 149.7531
2499.761, 150.9371
2501.689, 150.8451
2503.618, 147.9525
2505.546, 146.8911
2507.475, 149.9724
2509.403, 153.2186
2511.332, 156.0100
2513.260, 157.0911
2515.188, 154.0730
2517.117, 151.6278
2519.045, 153.2105
2520.974, 155.0945
2522.902, 154.2257
2524.831, 153.4833
2526.759, 155.4152
2528.688, 155.8533
2530.616, 158.9383
2532.545, 159.8013
2534.473, 162.9448
2536.402, 166.5665
2538.330, 168.7309
2540.259, 169.0642
2542.187, 164.7371
2544.115, 159.1827
2546.044, 160.5181
2547.972, 166.1000
2549.901, 169.4537
2551.829, 170.9934
2553.758, 171.9236
2555.686, 172.4943
2557.615, 175.9265
2559.543, 181.2770
2561.472, 176.9781
2563.400, 164.6130
2565.329, 162.6403
2567.257, 172.1064
2569.186, 176.8562
2571.114, 175.2040
2573.042, 177.9040
2574.971, 186.1304
2576.899, 191.8266
2578.828, 194.5919
2580.756, 195.9994
2582.685, 196.0993
2584.613, 195.4717
2586.542, 193.6269
2588.470, 192.6640
2590.399, 191.9860
2592.327, 194.1104
2594.256, 200.4564
2596.184, 205.3763
2598.113, 207.4101
2600.041, 210.2655
2601.969, 216.9095
2603.898, 219.5174
2605.826, 213.1524
2607.755, 207.9000
2609.683, 205.3410
2611.612, 204.4854
2613.540, 204.8339
2615.469, 207.7071
2617.397, 216.2722
2619.326, 222.0693
2621.254, 218.8662
2623.183, 217.2413
2625.111, 223.7507
2627.040, 228.1429
2628.968, 224.8809
2630.896, 222.4451
2632.825, 224.3710
2634.753, 227.8833
2636.682, 233.6842
2638.610, 237.6928
2640.539, 236.2979
2642.467, 234.5967
2644.396, 235.2270
2646.324, 236.4572
2648.253, 237.7811
2650.181, 238.9235
2652.110, 239.8304
2654.038, 240.3701
2655.967, 239.0643
2657.895, 239.1569
2659.823, 244.1495
2661.752, 249.7178
2663.680, 252.6665
2665.609, 255.6058
2667.537, 262.5515
2669.466, 267.5066
2671.394, 264.2388
2673.323, 259.0374
2675.251, 254.0635
2677.180, 252.7084
2679.108, 260.3056
2681.037, 269.3473
2682.965, 275.3341
2684.894, 278.8103
2686.822, 278.3719
2688.750, 277.7861
2690.679, 280.0490
2692.607, 283.9951
2694.536, 290.7995
2696.464, 296.2122
2698.393, 295.0749
2700.321, 293.0039
2702.250, 294.3618
2704.178, 297.7882
2706.107, 304.7174
2708.035, 310.1489
2709.964, 308.7612
2711.892, 305.1646
2713.821, 301.5037
2715.749, 299.0453
2717.677, 298.8376
2719.606, 300.3442
2721.534, 304.6290
2723.463, 308.5491
2725.391, 309.6440
2727.320, 309.3089
2729.248, 305.2983
2731.177, 304.4808
2733.105, 316.8948
2735.034, 329.0701
2736.962, 328.1387
2738.891, 325.9509
2740.819, 331.9793
2742.748, 337.4890
2744.676, 334.2022
2746.604, 331.0328
2748.533, 335.3038
2750.461, 340.2614
2752.390, 341.7407
2754.318, 342.3228
2756.247, 342.1884
2758.175, 343.5172
2760.104, 350.0887
2762.032, 354.9169
2763.961, 350.7527
2765.889, 348.8109
2767.818, 355.2950
2769.746, 363.3187
2771.675, 370.5239
2773.603, 377.2247
2775.531, 386.4436
2777.460, 390.7188
2779.388, 385.2589
2781.317, 377.1100
2783.245, 365.1419
2785.174, 357.9864
2787.102, 359.2850
2789.031, 365.0010
2790.959, 377.2848
2792.888, 388.0045
2794.816, 396.0402
2796.745, 400.5434
2798.673, 399.3814
2800.602, 400.5174
2802.530, 409.4206
2804.458, 413.5106
2806.387, 406.8570
2808.315, 405.3228
2810.244, 411.7339
2812.172, 416.8181
2814.101, 418.8847
2816.029, 421.0947
2817.958, 424.6454
2819.886, 426.2145
2821.815, 425.5368
2823.743, 422.2876
2825.672, 415.8438
2827.600, 422.4515
2829.529, 446.2478
2831.457, 455.0960
2833.385, 446.7506
2835.314, 439.8791
2837.242, 434.8459
2839.171, 439.8965
2841.099, 453.6806
2843.028, 464.3139
2844.956, 470.9566
2846.885, 464.3435
2848.813, 473.3458
2850.742, 456.1260
2852.670, 474.2953
2854.599, 473.4147
2856.527, 462.4606
2858.456, 462.3860
2860.384, 468.0555
2862.313, 467.4618
2864.241, 467.0588
2866.169, 480.3541
2868.098, 495.8764
2870.026, 499.6634
2871.955, 498.0264
2873.883, 492.4081
2875.812, 491.2881
2877.740, 507.0571
2879.669, 522.6912
2881.597, 524.7989
2883.526, 524.4224
2885.454, 526.6265
2887.383, 531.1704
2889.311, 541.7230
2891.240, 547.0074
2893.168, 540.5693
2895.096, 531.5963
2897.025, 514.7938
2898.953, 512.2183
2900.882, 534.8871
2902.810, 547.9375
2904.739, 540.8480
2906.667, 540.9710
2908.596, 560.0146
2910.524, 568.8130
2912.453, 563.4603
2914.381, 569.7638
2916.310, 589.4388
2918.238, 596.3093
2920.167, 587.9582
2922.095, 583.0484
2924.023, 581.6489
2925.952, 588.3375
2927.880, 600.7025
2929.809, 610.4796
2931.737, 616.6003
2933.666, 611.9252
2935.594, 604.6808
2937.523, 617.7123
2939.451, 615.1318
2941.380, 633.1101
2943.308, 625.7397
2945.237, 630.8838
2947.165, 638.9988
2949.094, 643.5992
2951.022, 644.3867
2952.950, 635.6835
2954.879, 632.4333
2956.807, 650.1074
2958.736, 662.7930
2960.664, 654.0470
2962.593, 653.1209
2964.521, 669.7498
2966.450, 683.6467
2968.378, 690.9070
2970.307, 691.4479
2972.235, 682.5485
2974.164, 678.7614
2976.092, 680.8087
2978.021, 690.9994
2979.949, 691.7705
2981.877, 714.3279
2983.806, 706.0533
2985.734, 712.2292
2987.663, 726.1595
2989.591, 722.2175
2991.520, 710.4610
2993.448, 710.5722
2995.377, 719.1569
2997.305, 739.3279
2999.234, 755.2469
3001.162, 743.7278
3003.091, 731.7043
3005.019, 742.3468
3006.948, 756.8862
3008.876, 768.8471
3010.804, 775.1758
3012.733, 770.9874
3014.661, 768.8893
3016.590, 772.9324
3018.518, 779.4965
3020.447, 789.0336
3022.375, 796.6563
3024.304, 801.5413
3026.232, 804.9880
3028.161, 806.7512
3030.089, 812.3272
3032.018, 820.3671
3033.946, 818.4338
3035.875, 811.6443
3037.803, 817.0833
3039.731, 829.8302
3041.660, 842.8696
3043.588, 853.5027
3045.517, 858.5728
3047.445, 859.9442
3049.374, 854.0875
3051.302, 852.7776
3053.231, 868.9842
3055.159, 880.5064
3057.088, 874.9429
3059.016, 872.6525
3060.945, 879.3956
3062.873, 893.0447
3064.802, 887.8730
3066.730, 918.8156
3068.658, 891.2292
3070.587, 883.4675
3072.515, 896.5375
3074.444, 913.3109
3076.372, 930.4985
3078.301, 933.1923
3080.229, 927.5331
3082.158, 921.7446
3084.086, 919.2294
3086.015, 926.6509
3087.943, 937.1752
3089.872, 945.7791
3091.800, 954.8274
3093.729, 969.7747
3095.657, 976.9907
3097.585, 966.9610
3099.514, 967.4887
3101.442, 991.6335
3103.371, 1007.276
3105.299, 1010.996
3107.228, 1010.241
3109.156, 1006.118
3111.085, 1012.234
3113.013, 1026.008
3114.942, 1033.657
3116.870, 1037.491
3118.799, 1043.510
3120.727, 1048.736
3122.656, 1047.642
3124.584, 1046.745
3126.512, 1055.262
3128.441, 1059.633
3130.369, 1048.108
3132.298, 1044.708
3134.226, 1063.465
3136.155, 1081.444
3138.083, 1097.989
3140.012, 1102.309
3141.940, 1092.940
3143.869, 1092.273
3145.797, 1099.793
3147.726, 1104.976
3149.654, 1108.959
3151.583, 1113.997
3153.511, 1120.842
3155.439, 1128.530
3157.368, 1141.693
3159.296, 1175.521
3161.225, 1197.106
3163.153, 1173.616
3165.082, 1163.493
3167.010, 1194.442
3168.939, 1208.175
3170.867, 1195.449
3172.796, 1189.495
3174.724, 1193.875
3176.653, 1199.581
3178.581, 1205.934
3180.510, 1206.081
3182.438, 1206.047
3184.366, 1220.215
3186.295, 1238.038
3188.223, 1246.575
3190.152, 1253.820
3192.080, 1263.812
3194.009, 1275.359
3195.937, 1291.519
3197.866, 1301.275
3199.794, 1302.148
3201.723, 1302.508
3203.651, 1302.747
3205.580, 1308.972
3207.508, 1320.803
3209.437, 1339.060
3211.365, 1357.671
3213.293, 1359.808
3215.222, 1359.950
3217.150, 1380.536
3219.079, 1399.669
3221.007, 1398.288
3222.936, 1401.262
3224.864, 1420.438
3226.793, 1441.020
3228.721, 1462.046
3230.650, 1479.534
3232.578, 1492.933
3234.507, 1500.931
3236.435, 1506.643
3238.364, 1532.217
3240.292, 1561.791
3242.220, 1560.327
3244.149, 1559.949
3246.077, 1603.802
3248.006, 1641.492
3249.934, 1639.468
3251.863, 1647.920
3253.791, 1687.797
3255.720, 1711.859
3257.648, 1716.168
3259.577, 1736.763
3261.505, 1748.568
3263.434, 1779.205
3265.362, 1774.634
3267.291, 1788.636
3269.219, 1805.401
3271.147, 1807.412
3273.076, 1807.189
3275.004, 1810.903
3276.933, 1815.401
3278.861, 1822.360
3280.790, 1821.336
3282.718, 1810.468
3284.647, 1802.317
3286.575, 1799.927
3288.504, 1826.363
3290.432, 1860.064
3292.361, 1836.354
3294.289, 1809.427
3296.218, 1841.112
3298.146, 1874.878
3300.074, 1874.893
3302.003, 1878.387
3303.931, 1895.645
3305.860, 1897.635
3307.788, 1898.448
3309.717, 1876.537
3311.645, 1888.903
3313.574, 1879.278
3315.502, 1863.426
3317.431, 1866.749
3319.359, 1878.537
3321.288, 1892.823
3323.216, 1907.145
3325.145, 1923.898
3327.073, 1931.304
3329.001, 1926.690
3330.930, 1922.590
3332.858, 1921.091
3334.787, 1943.969
3336.715, 1934.336
3338.644, 1961.078
3340.572, 1940.551
3342.501, 1959.205
3344.429, 1980.577
3346.358, 1982.368
3348.286, 1992.882
3350.215, 2024.295
3352.143, 2043.852
3354.072, 2049.344
3356.000, 2062.236
3357.928, 2076.442
3359.857, 2066.692
3361.785, 2053.349
3363.714, 2063.041
3365.642, 2083.698
3367.571, 2124.283
3369.499, 2141.267
3371.428, 2114.021
3373.356, 2108.240
3375.285, 2129.059
3377.213, 2128.302
3379.142, 2116.215
3381.070, 2145.162
3382.999, 2185.456
3384.927, 2207.456
3386.855, 2213.735
3388.784, 2197.348
3390.712, 2184.011
3392.641, 2177.926
3394.569, 2184.798
3396.498, 2204.899
3398.426, 2234.826
3400.355, 2264.795
3402.283, 2260.508
3404.212, 2284.951
3406.140, 2278.435
3408.069, 2304.098
3409.997, 2306.082
3411.926, 2308.427
3413.854, 2315.531
3415.782, 2321.319
3417.711, 2325.841
3419.639, 2334.715
3421.568, 2343.583
3423.496, 2335.201
3425.425, 2331.073
3427.353, 2354.001
3429.282, 2378.770
3431.210, 2398.431
3433.139, 2410.778
3435.067, 2414.437
3436.996, 2419.834
3438.924, 2427.693
3440.853, 2442.717
3442.781, 2459.904
3444.709, 2473.100
3446.638, 2485.334
3448.566, 2498.861
3450.495, 2510.118
3452.423, 2513.620
3454.352, 2531.256
3456.280, 2561.953
3458.209, 2600.258
3460.137, 2633.495
3462.066, 2626.043
3463.994, 2617.601
3465.923, 2635.097
3467.851, 2666.302
3469.780, 2715.345
3471.708, 2760.105
3473.636, 2799.084
3475.565, 2813.420
3477.493, 2816.373
3479.422, 2845.083
3481.350, 2886.162
3483.279, 2929.820
3485.207, 2975.032
3487.136, 3025.295
3489.064, 3063.076
3490.993, 3113.101
3492.921, 3136.088
3494.850, 3204.861
3496.778, 3261.173
3498.707, 3302.775
3500.635, 3312.351
3502.563, 3332.833
3504.492, 3387.689
3506.420, 3431.891
3508.349, 3456.427
3510.277, 3468.227
3512.206, 3468.100
3514.134, 3449.987
3516.063, 3433.150
3517.991, 3450.338
3519.920, 3458.180
3521.848, 3434.827
3523.777, 3413.949
3525.705, 3401.924
3527.634, 3380.605
3529.562, 3357.057
3531.490, 3359.510
3533.419, 3366.762
3535.347, 3353.366
3537.276, 3339.497
3539.204, 3337.309
3541.133, 3324.670
3543.061, 3300.205
3544.990, 3317.810
3546.918, 3355.674
3548.847, 3347.399
3550.775, 3325.877
3552.704, 3312.097
3554.632, 3313.561
3556.561, 3310.774
3558.489, 3351.429
3560.417, 3335.791
3562.346, 3360.666
3564.274, 3399.029
3566.203, 3378.386
3568.131, 3356.665
3570.060, 3376.509
3571.988, 3403.209
3573.917, 3432.268
3575.845, 3435.708
3577.774, 3419.417
3579.702, 3437.259
3581.631, 3468.646
3583.559, 3483.279
3585.488, 3504.083
3587.416, 3516.323
3589.344, 3529.670
3591.273, 3541.073
3593.201, 3546.367
3595.130, 3574.465
3597.058, 3571.619
3598.987, 3568.047
3600.915, 3593.679
3602.844, 3620.417
3604.772, 3642.412
3606.701, 3654.506
3608.629, 3657.425
3610.558, 3659.799
3612.486, 3663.846
3614.415, 3674.124
3616.343, 3685.379
3618.271, 3700.048
3620.200, 3713.732
3622.128, 3732.190
3624.057, 3747.924
3625.985, 3767.976
3627.914, 3787.034
3629.842, 3806.676
3631.771, 3830.106
3633.699, 3850.449
3635.628, 3864.093
3637.556, 3891.473
3639.485, 3929.385
3641.413, 3952.638
3643.342, 3966.777
3645.270, 3969.257
3647.198, 3981.212
3649.127, 4014.521
3651.055, 4034.866
3652.984, 4039.198
3654.912, 4031.292
3656.841, 4031.191
3658.769, 4089.643
3660.698, 4136.598
3662.626, 4133.882
3664.555, 4136.106
3666.483, 4153.937
3668.412, 4172.716
3670.340, 4193.394
3672.269, 4217.758
3674.197, 4242.968
3676.125, 4268.054
3678.054, 4288.745
3679.982, 4304.344
3681.911, 4301.760
3683.839, 4298.596
3685.768, 4354.918
3687.696, 4418.179
3689.625, 4444.556
3691.553, 4461.314
3693.482, 4470.206
3695.410, 4492.202
3697.339, 4524.047
3699.267, 4560.829
3701.196, 4588.756
3703.124, 4592.429
3705.052, 4581.711
3706.981, 4617.165
3708.909, 4637.063
3710.838, 4666.732
3712.766, 4706.707
3714.695, 4727.151
3716.623, 4755.326
3718.552, 4770.451
3720.480, 4795.881
3722.409, 4828.940
3724.337, 4844.117
3726.266, 4888.285
3728.194, 4919.706
3730.123, 4927.156
3732.051, 4948.400
3733.979, 4998.573
3735.908, 5021.746
3737.836, 5066.287
3739.765, 5084.536
3741.693, 5149.426
3743.622, 5175.052
3745.550, 5206.926
3747.479, 5256.735
3749.407, 5305.099
3751.336, 5350.433
3753.264, 5398.819
3755.193, 5433.262
3757.121, 5420.630
3759.050, 5427.368
3760.978, 5467.838
3762.906, 5521.277
3764.835, 5585.593
3766.763, 5665.179
3768.692, 5740.429
3770.620, 5795.020
3772.549, 5842.461
3774.477, 5883.858
3776.406, 5917.658
3778.334, 5953.585
3780.263, 6016.465
3782.191, 6082.168
3784.120, 6132.772
3786.048, 6199.490
3787.977, 6254.953
3789.905, 6331.673
3791.833, 6367.676
3793.762, 6437.553
3795.690, 6492.218
3797.619, 6505.593
3799.547, 6537.156
3801.476, 6586.388
3803.404, 6626.410
3805.333, 6649.104
3807.261, 6632.791
3809.190, 6633.240
3811.118, 6664.892
3813.047, 6685.663
3814.975, 6703.076
3816.904, 6767.022
3818.832, 6811.753
3820.760, 6778.180
3822.689, 6750.300
3824.617, 6739.101
3826.546, 6738.937
3828.474, 6744.522
3830.403, 6752.814
3832.331, 6752.073
3834.260, 6732.700
3836.188, 6705.000
3838.117, 6675.774
3840.045, 6689.860
3841.974, 6705.772
3843.902, 6683.582
3845.831, 6647.715
3847.759, 6659.523
3849.688, 6607.257
3851.616, 6654.249
3853.544, 6665.660
3855.473, 6659.895
3857.401, 6639.246
3859.330, 6651.626
3861.258, 6695.488
3863.187, 6647.705
3865.115, 6691.096
3867.044, 6669.035
3868.972, 6724.939
3870.901, 6730.474
3872.829, 6733.352
3874.758, 6742.289
3876.686, 6768.764
3878.615, 6798.344
3880.543, 6824.028
3882.471, 6845.715
3884.400, 6866.753
3886.328, 6922.391
3888.257, 6976.875
3890.185, 6981.163
3892.114, 6996.175
3894.042, 7036.972
3895.971, 7081.165
3897.899, 7121.532
3899.828, 7123.669
3901.756, 7132.409
3903.685, 7187.450
3905.613, 7234.797
3907.542, 7261.813
3909.470, 7249.604
3911.398, 7241.037
3913.327, 7274.648
3915.255, 7306.407
3917.184, 7322.452
3919.112, 7334.748
3921.041, 7349.476
3922.969, 7377.766
3924.898, 7398.297
3926.826, 7403.899
3928.755, 7444.512
3930.683, 7512.899
3932.612, 7598.281
3934.540, 7637.792
3936.469, 7675.697
3938.397, 7586.621
3940.325, 7696.963
3942.254, 7676.607
3944.182, 7641.152
3946.111, 7703.492
3948.039, 7756.284
3949.968, 7782.524
3951.896, 7794.741
3953.825, 7801.067
3955.753, 7802.704
3957.682, 7817.593
3959.610, 7884.884
3961.539, 7928.204
3963.467, 7955.902
3965.396, 8019.964
3967.324, 8064.223
3969.252, 8057.969
3971.181, 8078.114
3973.109, 8128.229
3975.038, 8180.600
3976.966, 8227.766
3978.895, 8271.811
3980.823, 8286.324
3982.752, 8274.620
3984.680, 8314.081
3986.609, 8371.257
3988.537, 8418.542
3990.466, 8459.416
3992.394, 8494.938
3994.323, 8504.193
3996.251, 8511.696
3998.179, 8550.359
4000.108, 8602.232
4002.036, 8664.079
4003.965, 8720.862
4005.893, 8775.696
4007.822, 8831.271
4009.750, 8881.041
4011.679, 8927.131
4013.607, 8989.884
4015.536, 9062.630
4017.464, 9100.007
4019.393, 9138.583
4021.321, 9215.278
4023.250, 9288.611
4025.178, 9354.416
4027.106, 9426.088
4029.035, 9502.526
4030.963, 9610.530
4032.892, 9679.375
4034.820, 9773.810
4036.749, 9864.520
4038.677, 9948.508
4040.606, 10035.54
4042.534, 10116.75
4044.463, 10182.74
4046.391, 10274.73
4048.320, 10366.91
4050.248, 10394.56
4052.177, 10454.25
4054.105, 10582.99
4056.033, 10678.07
4057.962, 10733.85
4059.890, 10777.21
4061.819, 10856.16
4063.747, 10985.34
4065.676, 11074.66
4067.604, 11137.79
4069.533, 11211.75
4071.461, 11275.15
4073.390, 11318.84
4075.318, 11342.80
4077.247, 11372.82
4079.175, 11425.70
4081.104, 11462.43
4083.032, 11496.90
4084.960, 11505.22
4086.889, 11565.51
4088.817, 11600.61
4090.746, 11637.23
4092.674, 11692.24
4094.603, 11790.50
4096.531, 11792.99
4098.460, 11828.41
4100.388, 11880.43
4102.317, 11877.01
4104.245, 11886.65
4106.174, 11917.83
4108.102, 11932.10
4110.031, 11958.34
4111.959, 11991.50
4113.888, 12008.58
4115.816, 12036.49
4117.745, 12099.88
4119.673, 12153.15
4121.602, 12117.62
4123.530, 12085.53
4125.458, 12110.44
4127.387, 12131.33
4129.315, 12130.04
4131.244, 12128.19
4133.172, 12135.80
4135.101, 12153.46
4137.029, 12169.51
4138.958, 12178.45
4140.886, 12230.58
4142.814, 12258.02
4144.743, 12230.21
4146.671, 12219.32
4148.600, 12260.00
4150.528, 12331.43
4152.457, 12391.57
4154.385, 12404.33
4156.314, 12392.73
4158.242, 12423.13
4160.171, 12483.86
4162.099, 12546.89
4164.028, 12591.51
4165.956, 12717.38
4167.885, 12706.64
4169.813, 12818.50
4171.742, 12898.19
4173.670, 12877.08
4175.599, 12884.59
4177.527, 12931.68
4179.456, 12976.02
4181.384, 13055.55
4183.313, 13150.35
4185.241, 13232.92
4187.169, 13311.45
4189.098, 13443.20
4191.026, 13487.21
4192.955, 13543.50
4194.883, 13676.08
4196.812, 13844.14
4198.740, 13991.22
4200.668, 14171.03
4202.597, 14335.33
4204.525, 14547.85
4206.454, 14697.08
4208.382, 14906.33
4210.311, 15130.08
4212.239, 15355.71
4214.168, 15652.31
4216.096, 16005.78
4218.025, 16383.91
4219.953, 16829.48
4221.882, 17352.39
4223.810, 17974.19
4225.739, 18714.58
4227.667, 19579.40
4229.596, 20643.71
4231.524, 21927.73
4233.453, 23437.19
4235.381, 25307.86
4237.310, 27653.80
4239.238, 30345.39
4241.167, 33374.58
4243.095, 36760.88
4245.023, 40513.57
4246.952, 44601.60
4248.880, 48907.31
4250.809, 53587.34
4252.737, 58800.48
4254.666, 64814.47
4256.594, 71715.23
4258.522, 79851.70
4260.451, 89337.52
4262.379, 103149.5
4264.308, 110721.0
4266.236, 110698.4
4268.165, 110683.1
4270.093, 110685.2
4272.022, 110712.0
4273.950, 110754.5
4275.879, 110804.3
4277.807, 110850.2
4279.736, 110875.7
4281.664, 110867.2
4283.593, 112082.2
4285.521, 111901.7
4287.450, 103524.9
4289.378, 93523.05
4291.307, 83582.88
4293.235, 75105.19
4295.164, 67987.90
4297.092, 62396.10
4299.021, 57611.82
4300.949, 53536.84
4302.877, 50209.82
4304.806, 47380.55
4306.734, 44960.96
4308.663, 42845.24
4310.591, 41005.62
4312.520, 39413.41
4314.448, 37986.46
4316.376, 36704.27
4318.305, 35550.43
4320.233, 34498.39
4322.162, 33528.94
4324.090, 32630.81
4326.019, 31797.77
4327.947, 30932.08
4329.876, 30186.23
4331.804, 29489.21
4333.733, 29069.96
4335.661, 28291.63
4337.590, 27883.36
4339.518, 27490.18
4341.447, 26984.24
4343.375, 26579.82
4345.304, 26203.29
4347.232, 25744.22
4349.161, 25281.79
4351.089, 24845.69
4353.018, 24573.26
4354.946, 24344.32
4356.875, 24094.37
4358.803, 23814.53
4360.731, 23534.24
4362.660, 23296.78
4364.588, 23111.22
4366.517, 22977.15
4368.445, 22912.41
4370.374, 22897.17
4372.302, 22949.44
4374.230, 22895.74
4376.159, 22755.84
4378.087, 22655.87
4380.016, 22582.79
4381.944, 22534.36
4383.873, 22533.74
4385.801, 22552.34
4387.730, 22538.14
4389.658, 22562.66
4391.587, 22567.96
4393.515, 22616.28
4395.444, 22608.85
4397.372, 22637.15
4399.301, 22698.77
4401.229, 22785.29
4403.158, 22827.38
4405.086, 22965.50
4407.015, 22935.38
4408.943, 23001.71
4410.872, 23030.84
4412.800, 22922.80
4414.729, 22923.20
4416.657, 23012.78
4418.585, 23170.05
4420.514, 23213.10
4422.442, 23119.94
4424.371, 23055.93
4426.299, 22995.59
4428.228, 22894.15
4430.156, 22920.28
4432.084, 23006.56
4434.013, 22994.23
4435.941, 22949.55
4437.870, 22891.83
4439.798, 22861.60
4441.727, 22878.04
4443.655, 22855.97
4445.584, 22980.91
4447.512, 22912.04
4449.441, 22926.12
4451.369, 23051.72
4453.298, 23278.10
4455.226, 23331.70
4457.155, 23360.05
4459.083, 23456.55
4461.012, 23532.34
4462.940, 23624.86
4464.869, 23753.60
4466.797, 23992.09
4468.726, 24044.61
4470.654, 24235.80
4472.583, 24432.18
4474.511, 24529.67
4476.439, 24700.99
4478.368, 24907.33
4480.296, 25116.34
4482.225, 25240.53
4484.153, 25394.58
4486.082, 25472.63
4488.010, 25618.53
4489.938, 25681.79
4491.867, 25769.42
4493.795, 25824.88
4495.724, 25814.84
4497.652, 25897.42
4499.581, 25848.98
4501.509, 25879.46
4503.438, 25838.56
4505.366, 25688.32
4507.295, 25698.15
4509.223, 25775.42
4511.152, 25889.26
4513.080, 25843.54
4515.009, 25727.51
4516.937, 25699.07
4518.866, 25668.08
4520.794, 25629.69
4522.723, 25631.94
4524.651, 25666.49
4526.580, 25728.54
4528.508, 25798.38
4530.437, 25894.30
4532.365, 25904.08
4534.293, 26088.73
4536.222, 25981.11
4538.150, 25970.06
4540.079, 26109.57
4542.007, 26384.79
4543.936, 26460.83
4545.864, 26504.85
4547.792, 26591.02
4549.721, 26748.96
4551.649, 26953.95
4553.578, 27219.89
4555.506, 27331.52
4557.435, 27590.23
4559.363, 27758.57
4561.292, 28085.19
4563.220, 28314.16
4565.149, 28675.64
4567.077, 29132.31
4569.006, 29658.38
4570.934, 30472.01
4572.863, 31413.01
4574.791, 32308.68
4576.720, 33273.39
4578.648, 34388.50
4580.577, 35789.70
4582.505, 37306.64
4584.434, 38927.15
4586.362, 40811.88
4588.291, 43014.59
4590.219, 45554.40
4592.147, 48486.73
4594.076, 52012.08
4596.004, 56292.86
4597.933, 61313.04
4599.861, 66933.23
4601.790, 72984.65
4603.718, 79194.95
4605.646, 85435.77
4607.575, 91640.93
4609.503, 97322.22
4611.432, 102321.0
4613.360, 105664.7
4615.289, 109834.6
4617.217, 110007.4
4619.146, 110019.2
4621.074, 110045.8
4623.003, 110077.9
4624.931, 110110.1
4626.860, 110135.8
4628.788, 110147.0
4630.717, 110145.7
4632.645, 110132.3
4634.574, 110107.0
4636.502, 110076.5
4638.431, 110050.7
4640.359, 110040.2
4642.288, 110077.4
4644.216, 111307.3
4646.145, 107224.3
4648.073, 99539.52
4650.001, 89176.26
4651.930, 80317.13
4653.858, 73186.45
4655.787, 67764.53
4657.715, 63080.65
4659.644, 59087.31
4661.572, 56125.96
4663.500, 53743.71
4665.429, 51782.75
4667.357, 50064.84
4669.286, 48449.94
4671.214, 46894.17
4673.143, 45638.65
4675.071, 44642.80
4677.000, 43928.70
4678.928, 43110.27
4680.857, 42303.16
4682.785, 41666.93
4684.714, 41020.43
4686.642, 40381.01
4688.571, 39798.52
4690.499, 39301.54
4692.428, 38868.57
4694.356, 38419.66
4696.285, 38043.77
4698.213, 37736.62
4700.142, 37211.46
4702.070, 36877.25
4703.999, 36598.86
4705.927, 36479.86
4707.855, 36141.89
4709.784, 36018.20
4711.712, 35888.81
4713.641, 35746.00
4715.569, 35581.36
4717.498, 35403.45
4719.426, 35229.08
4721.354, 35080.21
4723.283, 34931.63
4725.211, 34789.55
4727.140, 34652.94
4729.068, 34604.13
4730.997, 34613.09
4732.925, 34566.48
4734.854, 34529.87
4736.782, 34493.53
4738.711, 34359.67
4740.639, 34254.71
4742.568, 34212.18
4744.496, 34190.73
4746.425, 34098.19
4748.353, 33926.55
4750.282, 34019.44
4752.210, 34175.79
4754.139, 34299.64
4756.067, 34031.37
4757.996, 33813.30
4759.924, 33976.48
4761.853, 33919.52
4763.781, 33867.25
4765.709, 34088.07
4767.638, 34066.55
4769.566, 33996.59
4771.495, 34181.55
4773.423, 34235.32
4775.352, 34232.40
4777.280, 34343.07
4779.208, 34403.33
4781.137, 34450.86
4783.065, 34618.27
4784.994, 34727.18
4786.922, 34802.21
4788.851, 34998.16
4790.779, 35147.21
4792.708, 35244.83
4794.636, 35388.66
4796.565, 35478.48
4798.493, 35655.67
4800.422, 35772.10
4802.350, 35989.42
4804.279, 36139.61
4806.207, 36261.54
4808.136, 36423.81
4810.064, 36653.08
4811.993, 37018.14
4813.921, 37312.56
4815.850, 37477.88
4817.778, 37607.72
4819.707, 37792.23
4821.635, 38074.69
4823.563, 38286.45
4825.492, 38431.12
4827.420, 38524.16
4829.349, 38835.51
4831.277, 39128.18
4833.206, 39256.45
4835.134, 39250.31
4837.063, 39237.85
4838.991, 39292.39
4840.919, 39353.37
4842.848, 39399.05
4844.776, 39396.77
4846.705, 39525.61
4848.633, 39618.83
4850.562, 39565.16
4852.490, 39464.73
4854.419, 39410.73
4856.347, 39288.03
4858.276, 39178.74
4860.204, 39072.36
4862.133, 38958.44
4864.061, 38920.28
4865.990, 38886.42
4867.918, 38817.83
4869.847, 38608.36
4871.775, 38474.45
4873.704, 38589.86
4875.632, 38626.00
4877.561, 38597.54
4879.489, 38516.69
4881.417, 38470.48
4883.346, 38489.57
4885.274, 38601.55
4887.203, 38683.99
4889.131, 38686.41
4891.060, 38746.43
4892.988, 38788.73
4894.917, 38740.55
4896.845, 38852.91
4898.773, 38769.33
4900.702, 38748.39
4902.630, 38996.65
4904.559, 39167.23
4906.487, 39295.21
4908.416, 39405.46
4910.344, 39643.99
4912.273, 39801.09
4914.201, 39746.29
4916.130, 39992.41
4918.058, 40258.66
4919.987, 40369.36
4921.915, 40652.30
4923.844, 40875.23
4925.772, 40936.67
4927.701, 41123.57
4929.629, 41285.52
4931.558, 41345.27
4933.486, 41535.30
4935.415, 41686.96
4937.343, 41748.36
4939.271, 41779.91
4941.200, 41832.39
4943.128, 41908.49
4945.057, 41954.92
4946.985, 42006.31
4948.914, 42050.04
4950.842, 42077.54
4952.771, 42062.99
4954.699, 42052.74
4956.627, 42099.54
4958.556, 42133.67
4960.484, 42160.34
4962.413, 42263.98
4964.341, 42351.66
4966.270, 42378.21
4968.198, 42435.50
4970.127, 42445.13
4972.055, 42440.88
4973.984, 42409.60
4975.912, 42309.68
4977.841, 42213.92
4979.769, 42200.73
4981.698, 42236.64
4983.626, 42246.28
4985.555, 42153.09
4987.483, 42020.45
4989.412, 41930.92
4991.340, 41951.03
4993.269, 41938.21
4995.197, 41922.68
4997.125, 41928.09
4999.054, 41943.98
5000.982, 41945.60
5002.911, 41917.36
5004.839, 41886.18
5006.768, 41770.01
5008.696, 41568.18
5010.625, 41451.48
5012.553, 41373.60
5014.481, 41326.43
5016.410, 41345.84
5018.338, 41307.40
5020.267, 41192.58
5022.195, 40976.19
5024.124, 40892.52
5026.052, 40893.76
5027.981, 40878.76
5029.909, 40698.47
5031.838, 40493.21
5033.766, 40450.39
5035.695, 40290.01
5037.623, 40184.13
5039.552, 40257.66
5041.480, 40280.29
5043.409, 40257.34
5045.337, 40198.84
5047.266, 40164.74
5049.194, 40124.60
5051.123, 40069.00
5053.051, 39973.19
5054.979, 39939.35
5056.908, 39953.42
5058.836, 39895.04
5060.765, 39929.83
5062.693, 39987.31
5064.622, 39870.45
5066.550, 39915.05
5068.479, 40030.74
5070.407, 40098.57
5072.335, 40059.01
5074.264, 39973.44
5076.192, 39879.80
5078.121, 39987.82
5080.049, 40063.49
5081.978, 40020.55
5083.906, 40069.92
5085.835, 39939.71
5087.763, 40046.80
5089.692, 39974.70
5091.620, 39945.13
5093.549, 39982.42
5095.477, 40062.66
5097.406, 40241.72
5099.334, 40375.07
5101.263, 40313.46
5103.191, 40244.25
5105.120, 40202.48
5107.048, 40202.74
5108.977, 40229.97
5110.905, 40253.32
5112.833, 40290.54
5114.762, 40541.86
5116.690, 40663.60
5118.619, 40654.30
5120.547, 40673.31
5122.476, 40679.23
5124.404, 40659.22
5126.333, 40712.55
5128.261, 40666.27
5130.189, 40788.08
5132.118, 40885.12
5134.046, 40894.53
5135.975, 40985.94
5137.903, 41172.78
5139.832, 41094.65
5141.760, 41145.01
5143.689, 41322.94
5145.617, 41488.00
5147.546, 41505.05
5149.474, 41486.89
5151.403, 41573.33
5153.331, 41658.61
5155.260, 41680.65
5157.188, 41632.57
5159.117, 41854.98
5161.045, 42012.10
5162.974, 42025.32
5164.902, 41956.54
5166.831, 42021.77
5168.759, 42141.27
5170.688, 42118.83
5172.616, 42275.67
5174.544, 42445.76
5176.473, 42492.29
5178.401, 42650.17
5180.330, 42715.24
5182.258, 42651.36
5184.187, 42713.23
5186.115, 42824.95
5188.043, 42933.45
5189.972, 42977.93
5191.900, 42967.30
5193.829, 42911.90
5195.757, 42961.29
5197.686, 42907.23
5199.614, 42984.89
5201.543, 42967.74
5203.471, 42932.23
5205.400, 42930.90
5207.328, 42955.77
5209.257, 43000.98
5211.185, 42935.75
5213.114, 42879.95
5215.042, 42951.09
5216.971, 42973.63
5218.899, 42975.22
5220.828, 42960.48
5222.756, 42950.12
5224.685, 42780.30
5226.613, 42529.26
5228.542, 42319.25
5230.470, 42398.14
5232.398, 42526.73
5234.327, 42532.39
5236.255, 42568.15
5238.184, 42542.76
5240.112, 42452.46
5242.041, 42392.04
5243.969, 42281.06
5245.897, 42140.90
5247.826, 41996.71
5249.754, 41939.81
5251.683, 41944.18
5253.611, 41991.29
5255.540, 42114.31
5257.468, 42127.40
5259.397, 42056.81
5261.325, 42037.76
5263.254, 42020.25
5265.182, 41991.16
5267.111, 41945.34
5269.039, 41833.87
5270.968, 41872.44
5272.896, 42012.14
5274.825, 41835.78
5276.753, 41888.20
5278.682, 42014.23
5280.610, 41952.64
5282.539, 41895.73
5284.467, 41969.81
5286.396, 42149.78
5288.324, 41975.20
5290.252, 41969.18
5292.181, 42041.13
5294.109, 41893.67
5296.038, 41988.34
5297.966, 42136.00
5299.895, 42220.40
5301.823, 42257.55
5303.751, 42288.77
5305.680, 42282.13
5307.608, 42149.56
5309.537, 42159.04
5311.465, 42244.68
5313.394, 42340.15
5315.322, 42341.83
5317.251, 42347.82
5319.179, 42381.27
5321.108, 42453.34
5323.036, 42364.90
5324.965, 42333.42
5326.893, 42482.01
5328.822, 42359.73
5330.750, 42250.30
5332.679, 42271.67
5334.607, 42559.79
5336.536, 42670.38
5338.464, 42656.67
5340.393, 42591.43
5342.321, 42524.16
5344.250, 42517.13
5346.178, 42490.73
5348.106, 42523.67
5350.035, 42510.38
5351.963, 42603.19
5353.892, 42661.13
5355.820, 42700.07
5357.749, 42686.06
5359.677, 42611.32
5361.605, 42675.00
5363.534, 42617.91
5365.462, 42780.31
5367.391, 42748.34
5369.319, 42877.85
5371.248, 42672.05
5373.176, 42916.09
5375.105, 42892.17
5377.033, 42759.78
5378.962, 42817.86
5380.890, 43062.71
5382.819, 42899.90
5384.747, 42813.46
5386.676, 42765.75
5388.604, 42611.98
5390.533, 42657.48
5392.461, 42708.50
5394.390, 42698.44
5396.318, 42663.39
5398.247, 42610.05
5400.175, 42583.55
5402.104, 42613.30
5404.032, 42630.20
5405.960, 42689.26
5407.889, 42778.49
5409.817, 42857.57
5411.746, 42918.42
5413.674, 42897.57
5415.603, 42802.95
5417.531, 42824.58
5419.459, 42890.52
5421.388, 42936.00
5423.316, 42906.86
5425.245, 42939.72
5427.173, 43005.89
5429.102, 43077.09
5431.030, 43159.23
5432.959, 43038.11
5434.887, 42906.25
5436.816, 42895.23
5438.744, 42950.13
5440.673, 42913.35
5442.601, 42935.24
5444.530, 42942.02
5446.458, 42976.01
5448.387, 43020.22
5450.315, 43089.18
5452.244, 43140.38
5454.172, 43227.40
5456.101, 43316.40
5458.029, 43367.98
5459.958, 43317.14
5461.886, 43223.29
5463.814, 43193.59
5465.743, 43336.15
5467.671, 43447.27
5469.600, 43472.88
5471.528, 43453.13
5473.457, 43528.20
5475.385, 43672.77
5477.313, 43704.16
5479.242, 43587.61
5481.170, 43750.46
5483.099, 43679.05
5485.027, 43550.70
5486.956, 43611.32
5488.884, 43746.56
5490.813, 43864.98
5492.741, 43900.43
5494.670, 44002.46
5496.598, 44057.40
5498.527, 44110.95
5500.455, 44153.44
5502.384, 44165.55
5504.312, 44182.56
5506.241, 44169.48
5508.169, 44135.37
5510.098, 44297.36
5512.026, 44484.09
5513.955, 44598.24
5515.883, 44577.61
5517.812, 44519.43
5519.740, 44447.76
5521.668, 44440.56
5523.597, 44615.02
5525.525, 44856.14
5527.454, 44916.45
5529.382, 44797.62
5531.311, 44715.73
5533.239, 44605.10
5535.167, 44688.63
5537.096, 44975.80
5539.024, 44912.09
5540.953, 44889.66
5542.881, 44891.10
5544.810, 44860.15
5546.738, 44766.70
5548.667, 44852.38
5550.595, 44945.75
5552.524, 44844.13
5554.452, 44832.28
5556.381, 44821.20
5558.309, 44835.31
5560.238, 44837.25
5562.166, 44931.18
5564.095, 44879.11
5566.023, 44846.13
5567.952, 44896.29
5569.880, 44832.00
5571.809, 44817.84
5573.737, 44894.90
5575.666, 44992.16
5577.594, 44945.08
5579.522, 44905.82
5581.451, 44918.13
5583.379, 44795.75
5585.308, 44772.95
5587.236, 44723.41
5589.165, 44592.75
5591.093, 44672.84
5593.021, 44679.59
5594.950, 44625.83
5596.878, 44555.19
5598.807, 44457.88
5600.735, 44427.05
5602.664, 44470.86
5604.592, 44565.43
5606.521, 44584.41
5608.449, 44539.12
5610.378, 44569.21
5612.306, 44765.81
5614.235, 44689.07
5616.163, 44696.18
5618.092, 44745.44
5620.020, 44708.06
5621.949, 44567.87
5623.877, 44544.77
5625.806, 44567.39
5627.734, 44490.19
5629.663, 44466.65
5631.591, 44460.91
5633.520, 44451.09
5635.448, 44454.95
5637.376, 44490.61
5639.305, 44521.96
5641.233, 44557.34
5643.162, 44565.30
5645.090, 44628.43
5647.019, 44567.11
5648.947, 44598.65
5650.875, 44583.88
5652.804, 44688.29
5654.732, 44637.65
5656.661, 44658.51
5658.589, 44680.25
5660.518, 44629.64
5662.446, 44715.88
5664.375, 44750.99
5666.303, 44772.93
5668.232, 44808.53
5670.160, 44810.15
5672.089, 44835.96
5674.017, 44824.93
5675.946, 44820.43
5677.874, 44788.35
5679.803, 44793.22
5681.731, 44762.53
5683.660, 44748.64
5685.588, 44656.30
5687.517, 44660.93
5689.445, 44686.89
5691.374, 44693.00
5693.302, 44798.46
5695.230, 44754.65
5697.159, 44824.41
5699.087, 44789.93
5701.016, 44847.57
5702.944, 44888.56
5704.873, 44841.48
5706.801, 44801.48
5708.729, 44723.02
5710.658, 44746.70
5712.586, 44863.83
5714.515, 44707.93
5716.443, 44803.00
5718.372, 44920.35
5720.300, 44936.10
5722.229, 44875.75
5724.157, 44685.86
5726.086, 44594.59
5728.014, 44631.15
5729.943, 44695.48
5731.871, 44837.25
5733.800, 44845.63
5735.728, 44774.42
5737.657, 44769.37
5739.585, 44838.85
5741.514, 44852.15
5743.442, 44765.73
5745.371, 44585.03
5747.299, 44507.75
5749.228, 44631.23
5751.156, 44763.89
5753.084, 44760.01
5755.013, 44617.54
5756.941, 44484.27
5758.870, 44539.13
5760.798, 44478.07
5762.727, 44573.84
5764.655, 44528.09
5766.583, 44572.04
5768.512, 44617.05
5770.440, 44553.77
5772.369, 44523.55
5774.297, 44552.58
5776.226, 44602.91
5778.154, 44627.71
5780.083, 44624.17
5782.011, 44628.25
5783.940, 44451.59
5785.868, 44560.86
5787.797, 44487.43
5789.725, 44379.71
5791.654, 44392.46
5793.582, 44504.63
5795.511, 44515.54
5797.439, 44637.90
5799.368, 44683.93
5801.296, 44589.17
5803.225, 44688.07
5805.153, 44688.54
5807.082, 44689.38
5809.010, 44500.04
5810.938, 44364.96
5812.867, 44419.17
5814.795, 44424.86
5816.724, 44439.84
5818.652, 44473.71
5820.581, 44446.50
5822.509, 44325.41
5824.438, 44382.91
5826.366, 44431.06
5828.294, 44117.82
5830.223, 44380.27
5832.151, 44336.90
5834.080, 44250.56
5836.008, 44358.76
5837.937, 44388.68
5839.865, 44272.99
5841.794, 44146.03
5843.722, 44085.92
5845.651, 44112.90
5847.579, 44088.86
5849.508, 44235.45
5851.436, 44331.11
5853.365, 44192.90
5855.293, 44110.62
5857.222, 43977.49
5859.150, 43924.07
5861.079, 43971.16
5863.007, 44009.95
5864.936, 44102.30
5866.864, 44108.85
5868.792, 44097.24
5870.721, 44151.98
5872.649, 44089.87
5874.578, 44112.95
5876.506, 44108.35
5878.435, 44036.65
5880.363, 43960.68
5882.292, 43990.19
5884.220, 43865.96
5886.148, 43816.34
5888.077, 43840.57
5890.005, 43837.76
5891.934, 43865.35
5893.862, 43941.48
5895.791, 43928.59
5897.719, 43841.62
5899.648, 43660.68
5901.576, 43699.03
5903.505, 43760.59
5905.433, 43668.21
5907.362, 43689.63
5909.290, 43577.13
5911.219, 43621.39
5913.147, 43739.64
5915.076, 43640.85
5917.004, 43610.08
5918.933, 43469.78
5920.861, 43401.05
5922.790, 43471.95
5924.718, 43434.33
5926.646, 43414.69
5928.575, 43513.08
5930.503, 43358.78
5932.432, 43394.82
5934.360, 43358.06
5936.289, 43343.39
5938.217, 43301.05
5940.146, 43245.23
5942.074, 43210.89
5944.002, 43152.10
5945.931, 43097.61
5947.859, 43031.99
5949.788, 42934.77
5951.716, 43031.41
5953.645, 43191.58
5955.573, 43238.58
5957.502, 43154.56
5959.430, 42998.63
5961.359, 42910.38
5963.287, 43096.78
5965.216, 43091.07
5967.144, 43014.80
5969.073, 43260.99
5971.001, 42957.27
5972.930, 42886.39
5974.858, 42877.34
5976.787, 42847.43
5978.715, 42984.91
5980.644, 42846.50
5982.572, 42864.52
5984.500, 42789.50
5986.429, 42717.95
5988.357, 42725.05
5990.286, 42615.60
5992.214, 42707.75
5994.143, 42729.75
5996.071, 42739.23
5998.000, 42707.23
5999.928, 42620.56
6001.856, 42519.16
6003.785, 42423.60
6005.713, 42357.37
6007.642, 42503.63
6009.570, 42403.08
6011.499, 42293.92
6013.427, 42229.12
6015.356, 42128.11
6017.284, 42113.16
6019.213, 42277.51
6021.141, 42288.78
6023.070, 42177.82
6024.998, 42230.23
6026.927, 42197.75
6028.855, 42172.18
6030.784, 42096.68
6032.712, 42024.31
6034.641, 42119.45
6036.569, 42083.20
6038.498, 42014.30
6040.426, 41879.00
6042.354, 41735.36
6044.283, 41751.71
6046.211, 41535.03
6048.140, 41695.31
6050.068, 41802.68
6051.997, 41713.95
6053.925, 41706.57
6055.854, 41666.27
6057.782, 41575.47
6059.710, 41471.45
6061.639, 41388.84
6063.567, 41353.42
6065.496, 41284.88
6067.424, 41294.12
6069.353, 41193.23
6071.281, 41196.21
6073.210, 41138.49
6075.138, 41069.30
6077.067, 41110.74
6078.995, 40976.35
6080.924, 40975.40
6082.852, 41018.67
6084.781, 40773.75
6086.709, 40673.77
6088.638, 40752.20
6090.566, 40876.62
6092.495, 40891.73
6094.423, 40673.37
6096.352, 40742.55
6098.280, 40702.75
6100.208, 40585.08
6102.137, 40560.58
6104.065, 40457.99
6105.994, 40390.57
6107.922, 40342.74
6109.851, 40356.98
6111.779, 40352.05
6113.708, 40230.36
6115.636, 40114.86
6117.564, 40046.95
6119.493, 39956.10
6121.421, 40011.08
6123.350, 39992.14
6125.278, 40059.75
6127.207, 39835.14
6129.135, 39705.75
6131.064, 39734.47
6132.992, 39677.53
6134.921, 39643.49
6136.849, 39645.66
6138.778, 39743.21
6140.706, 39627.74
6142.635, 39557.57
6144.563, 39549.74
6146.492, 39380.91
6148.420, 39388.51
6150.349, 39420.48
6152.277, 39391.75
6154.206, 39319.76
6156.134, 39280.71
6158.063, 39121.24
6159.991, 39042.27
6161.919, 38945.62
6163.848, 38831.57
6165.776, 39046.67
6167.705, 39103.61
6169.633, 38850.43
6171.562, 38691.40
6173.490, 38845.26
6175.418, 38679.00
6177.347, 38764.14
6179.275, 38726.05
6181.204, 38589.51
6183.132, 38538.79
6185.061, 38486.72
6186.989, 38404.65
6188.918, 38405.59
6190.846, 38453.77
6192.775, 38428.88
6194.703, 38373.19
6196.632, 38329.38
6198.560, 38300.75
6200.489, 38232.87
6202.417, 38201.69
6204.346, 38111.79
6206.274, 38087.42
6208.203, 38033.38
6210.131, 37905.76
6212.060, 37933.98
6213.988, 37719.23
6215.917, 37915.99
6217.845, 37868.71
6219.773, 37810.46
6221.702, 37649.55
6223.630, 37390.84
6225.559, 37249.34
6227.487, 37377.34
6229.416, 37107.08
6231.344, 37395.54
6233.272, 37397.85
6235.201, 37269.04
6237.129, 37250.19
6239.058, 37290.58
6240.986, 37179.94
6242.915, 37105.28
6244.843, 37103.14
6246.772, 37155.77
6248.700, 37160.14
6250.629, 36933.09
6252.557, 36724.37
6254.486, 36696.68
6256.414, 36669.97
6258.343, 36612.86
6260.271, 36595.12
6262.200, 36650.82
6264.128, 36402.59
6266.057, 36494.38
6267.985, 36410.59
6269.914, 36217.19
6271.842, 36272.53
6273.771, 36235.75
6275.699, 36203.02
6277.627, 36014.29
6279.556, 35984.93
6281.484, 36010.62
6283.413, 35818.47
6285.341, 35911.57
6287.270, 35727.61
6289.198, 35694.75
6291.126, 35811.13
6293.055, 35869.24
6294.983, 35699.20
6296.912, 35404.49
6298.840, 35427.10
6300.769, 35343.23
6302.697, 35286.80
6304.626, 35308.81
6306.554, 35269.49
6308.483, 35225.43
6310.411, 35284.30
6312.340, 35155.18
6314.268, 35075.71
6316.197, 35097.25
6318.125, 34890.08
6320.054, 35018.73
6321.982, 34686.12
6323.911, 34732.05
6325.839, 34696.87
6327.768, 34588.87
6329.696, 34685.97
6331.625, 34562.04
6333.553, 34558.45
6335.481, 34592.69
6337.410, 34501.61
6339.338, 34405.25
6341.267, 34440.48
6343.195, 34467.17
6345.124, 34400.25
6347.052, 34024.50
6348.980, 34217.08
6350.909, 34158.71
6352.837, 33840.86
6354.766, 33869.59
6356.694, 33885.07
6358.623, 33802.27
6360.551, 33738.34
6362.480, 33705.20
6364.408, 33689.49
6366.337, 33685.00
6368.265, 33607.98
6370.194, 33534.36
6372.122, 33357.20
6374.051, 33279.30
6375.979, 33340.15
6377.908, 33405.35
6379.836, 33294.42
6381.765, 33171.02
6383.693, 33102.77
6385.622, 32884.09
6387.550, 32877.73
6389.479, 32965.61
6391.407, 32591.50
6393.335, 32747.80
6395.264, 32759.04
6397.192, 32756.82
6399.121, 32747.66
6401.049, 32661.02
6402.978, 32599.61
6404.906, 32363.77
6406.834, 32411.76
6408.763, 32312.41
6410.691, 32240.15
6412.620, 32299.10
6414.548, 32292.94
6416.477, 32267.73
6418.405, 32228.16
6420.334, 32200.76
6422.262, 32084.70
6424.191, 31968.76
6426.119, 31896.83
6428.048, 31822.69
6429.976, 31833.06
6431.905, 31794.40
6433.833, 31664.99
6435.762, 31604.61
6437.690, 31485.45
6439.619, 31351.02
6441.547, 31361.90
6443.476, 31242.62
6445.404, 31192.49
6447.333, 31132.06
6449.261, 31078.80
6451.189, 31082.16
6453.118, 31061.89
6455.046, 30920.16
6456.975, 30925.81
6458.903, 31097.48
6460.832, 30863.10
6462.760, 30914.02
6464.688, 30905.18
6466.617, 30741.23
6468.545, 30684.59
6470.474, 30644.26
6472.402, 30415.36
6474.331, 30482.17
6476.259, 30374.08
6478.188, 30254.19
6480.116, 30280.11
6482.045, 30195.08
6483.973, 30452.94
6485.902, 30132.81
6487.830, 30172.74
6489.759, 30145.17
6491.687, 29982.29
6493.616, 29955.03
6495.544, 29822.96
6497.473, 29778.19
6499.401, 29647.13
6501.330, 29604.75
6503.258, 29674.20
6505.187, 29697.43
6507.115, 29623.60
6509.043, 29532.53
6510.972, 29484.85
6512.900, 29400.11
6514.829, 29279.74
6516.757, 29259.16
6518.686, 29118.96
6520.614, 29056.27
6522.542, 29127.30
6524.471, 29165.83
6526.399, 28914.69
6528.328, 28946.09
6530.256, 28788.04
6532.185, 28828.13
6534.113, 28781.12
6536.042, 28715.27
6537.970, 28767.96
6539.899, 28680.15
6541.827, 28643.27
6543.756, 28597.17
6545.684, 28482.88
6547.613, 28450.66
6549.541, 28289.35
6551.470, 28189.13
6553.398, 28214.78
6555.327, 28214.26
6557.255, 28171.91
6559.184, 28128.88
6561.112, 28107.89
6563.041, 28000.49
6564.969, 27903.85
6566.897, 27873.60
6568.826, 27740.06
6570.754, 27772.60
6572.683, 27691.12
6574.611, 27544.09
6576.540, 27548.03
6578.468, 27541.03
6580.396, 27554.29
6582.325, 27566.50
6584.253, 27399.80
6586.182, 27454.84
6588.110, 27309.87
6590.039, 27171.44
6591.967, 27205.90
6593.896, 27214.12
6595.824, 27084.63
6597.753, 26917.72
6599.681, 26869.24
6601.610, 26973.54
6603.538, 26996.42
6605.467, 26838.43
6607.395, 26800.10
6609.324, 26758.70
6611.252, 26714.50
6613.181, 26700.77
6615.109, 26655.75
6617.038, 26654.59
6618.966, 26454.51
6620.895, 26418.13
6622.823, 26367.88
6624.751, 26288.27
6626.680, 26287.32
6628.608, 26233.74
6630.537, 26074.00
##END=



