##NAMES=Langite
##RRUFFID=R120042
##IDEAL CHEMISTRY=Cu_4_(SO_4_)(OH)_6_·2H_2_O
##LOCALITY=Dunbrack mine, Musquodoboit Harbour, Halifax County, Nova Scotia, Canada
##OWNER=RRUFF
##SOURCE=Donald Doell
##DESCRIPTION=Blue tabular crystals
##STATUS=The identification of this mineral has been confirmed by single-crystal X-ray diffraction
##URL=https://www.rruff.net/odr/rruff_sample/R120042
##DIFFRACTION SAMPLE DESCRIPTION=Single crystal, powder profile is calculated
##CELL PARAMETERS=a: 7.14 b: 6.04 c: 11.231 alpha: 90 beta: 90.08 gamma: 90 volume: 484.4 crystal system: monoclinic
##FILETYPE=Raman Processed
##RAMAN WAVELENGTH=532

215.7366, 1222.378
217.6651, 1231.794
219.5935, 1238.722
221.5220, 1242.800
223.4505, 1243.752
225.3789, 1245.761
227.3074, 1248.745
229.2359, 1252.664
231.1643, 1257.325
233.0928, 1262.271
235.0213, 1268.249
236.9497, 1276.260
238.8782, 1285.980
240.8067, 1293.954
242.7351, 1298.889
244.6636, 1302.315
246.5921, 1305.489
248.5205, 1310.655
250.4490, 1313.777
252.3775, 1313.458
254.3059, 1310.344
256.2344, 1306.771
258.1629, 1303.254
260.0913, 1299.695
262.0198, 1295.813
263.9483, 1290.963
265.8767, 1286.743
267.8052, 1282.924
269.7337, 1279.138
271.6621, 1277.875
273.5906, 1279.914
275.5191, 1283.513
277.4475, 1286.682
279.3760, 1289.164
281.3045, 1290.938
283.2329, 1292.195
285.1614, 1293.172
287.0899, 1292.754
289.0183, 1291.678
290.9468, 1289.610
292.8753, 1286.141
294.8037, 1280.633
296.7322, 1275.965
298.6607, 1272.720
300.5891, 1270.994
302.5176, 1270.495
304.4461, 1270.689
306.3745, 1271.977
308.3030, 1274.527
310.2315, 1278.994
312.1599, 1283.148
314.0884, 1286.215
316.0169, 1288.311
317.9453, 1291.419
319.8738, 1297.452
321.8023, 1303.614
323.7307, 1307.972
325.6592, 1308.966
327.5877, 1310.692
329.5161, 1314.016
331.4446, 1318.546
333.3731, 1322.294
335.3015, 1323.939
337.2300, 1325.442
339.1585, 1327.925
341.0869, 1332.639
343.0154, 1336.553
344.9439, 1339.737
346.8723, 1342.209
348.8008, 1344.064
350.7293, 1345.016
352.6578, 1345.991
354.5862, 1347.236
356.5147, 1348.307
358.4432, 1350.849
360.3716, 1354.873
362.3001, 1360.343
364.2286, 1367.019
366.1570, 1375.296
368.0855, 1384.294
370.0140, 1393.715
371.9424, 1403.652
373.8709, 1414.242
375.7994, 1425.666
377.7278, 1437.835
379.6563, 1450.500
381.5848, 1463.593
383.5132, 1477.423
385.4417, 1492.162
387.3702, 1507.772
389.2986, 1523.265
391.2271, 1537.656
393.1556, 1552.802
395.0840, 1569.867
397.0125, 1590.805
398.9410, 1610.923
400.8694, 1628.280
402.7979, 1644.862
404.7264, 1664.748
406.6548, 1688.774
408.5833, 1715.315
410.5118, 1744.659
412.4402, 1779.726
414.3687, 1808.419
416.2972, 1832.947
418.2256, 1849.741
420.1541, 1856.365
422.0826, 1849.299
424.0110, 1838.550
425.9395, 1825.003
427.8680, 1808.997
429.7964, 1798.382
431.7249, 1793.962
433.6534, 1794.140
435.5818, 1797.528
437.5103, 1803.893
439.4388, 1813.407
441.3672, 1826.654
443.2957, 1842.385
445.2242, 1858.089
447.1526, 1875.141
449.0811, 1889.991
451.0096, 1901.079
452.9380, 1908.454
454.8665, 1915.163
456.7950, 1923.015
458.7234, 1929.920
460.6519, 1933.329
462.5804, 1932.639
464.5089, 1931.748
466.4373, 1931.146
468.3658, 1930.884
470.2943, 1931.677
472.2227, 1938.807
474.1512, 1941.818
476.0797, 1937.538
478.0081, 1926.452
479.9366, 1905.652
481.8651, 1866.973
483.7935, 1822.104
485.7220, 1780.639
487.6505, 1740.120
489.5789, 1706.551
491.5074, 1681.518
493.4359, 1664.281
495.3643, 1651.829
497.2928, 1645.347
499.2213, 1641.968
501.1497, 1640.657
503.0782, 1642.075
505.0067, 1643.376
506.9351, 1646.451
508.8636, 1648.602
510.7921, 1647.577
512.7205, 1642.656
514.6490, 1637.138
516.5775, 1632.694
518.5059, 1628.669
520.4344, 1621.923
522.3629, 1611.884
524.2913, 1599.713
526.2198, 1584.823
528.1483, 1567.251
530.0767, 1550.312
532.0052, 1534.251
533.9337, 1519.181
535.8621, 1504.973
537.7906, 1490.617
539.7191, 1479.566
541.6475, 1474.470
543.5760, 1472.824
545.5045, 1470.427
547.4329, 1464.938
549.3614, 1460.629
551.2899, 1459.076
553.2183, 1460.338
555.1468, 1460.758
557.0753, 1460.043
559.0037, 1459.034
560.9322, 1458.351
562.8607, 1458.300
564.7891, 1458.439
566.7176, 1458.313
568.6461, 1458.668
570.5745, 1460.590
572.5030, 1464.271
574.4315, 1468.608
576.3599, 1472.974
578.2884, 1477.501
580.2169, 1483.235
582.1453, 1490.143
584.0738, 1498.088
586.0023, 1507.280
587.9307, 1517.582
589.8592, 1527.904
591.7877, 1537.599
593.7161, 1547.515
595.6447, 1558.610
597.5731, 1572.962
599.5016, 1584.222
601.4301, 1592.061
603.3585, 1596.999
605.2870, 1599.828
607.2155, 1600.440
609.1439, 1599.867
611.0724, 1597.633
613.0009, 1594.185
614.9293, 1591.799
616.8578, 1590.990
618.7863, 1590.205
620.7147, 1589.531
622.6432, 1588.687
624.5717, 1585.682
626.5001, 1580.392
628.4286, 1572.934
630.3571, 1563.256
632.2855, 1549.709
634.2140, 1538.054
636.1425, 1528.339
638.0709, 1520.605
639.9994, 1514.659
641.9279, 1510.250
643.8563, 1507.442
645.7848, 1506.430
647.7133, 1506.545
649.6417, 1506.777
651.5702, 1507.392
653.4987, 1507.462
655.4271, 1506.525
657.3556, 1504.898
659.2841, 1503.735
661.2125, 1504.460
663.1410, 1504.351
665.0695, 1502.308
666.9979, 1498.162
668.9264, 1494.360
670.8549, 1490.482
672.7833, 1487.346
674.7118, 1485.458
676.6403, 1484.633
678.5687, 1484.580
680.4972, 1485.259
682.4257, 1486.486
684.3541, 1488.234
686.2826, 1491.724
688.2111, 1493.907
690.1395, 1493.699
692.0680, 1492.518
693.9965, 1492.384
695.9249, 1493.584
697.8534, 1495.007
699.7819, 1496.509
701.7103, 1497.961
703.6388, 1499.015
705.5673, 1498.906
707.4957, 1499.321
709.4242, 1500.935
711.3527, 1503.513
713.2811, 1506.095
715.2096, 1508.921
717.1381, 1511.210
719.0665, 1512.333
720.9950, 1512.080
722.9235, 1512.743
724.8519, 1515.678
726.7804, 1518.262
728.7089, 1518.345
730.6373, 1516.270
732.5658, 1516.444
734.4943, 1522.155
736.4227, 1528.161
738.3512, 1530.928
740.2797, 1528.062
742.2081, 1527.440
744.1366, 1530.480
746.0651, 1534.468
747.9935, 1536.917
749.9220, 1537.656
751.8505, 1538.594
753.7789, 1540.749
755.7074, 1543.177
757.6359, 1544.982
759.5643, 1545.799
761.4928, 1546.853
763.4213, 1548.726
765.3497, 1550.775
767.2782, 1551.857
769.2067, 1551.517
771.1351, 1551.889
773.0636, 1553.978
774.9921, 1557.084
776.9205, 1560.198
778.8490, 1563.056
780.7775, 1565.966
782.7059, 1568.969
784.6344, 1571.789
786.5629, 1573.940
788.4913, 1575.065
790.4198, 1576.200
792.3483, 1578.463
794.2767, 1581.251
796.2052, 1582.591
798.1337, 1580.623
800.0621, 1579.898
801.9906, 1582.512
803.9191, 1587.315
805.8475, 1589.615
807.7760, 1587.319
809.7045, 1585.553
811.6329, 1586.660
813.5614, 1589.605
815.4899, 1591.698
817.4183, 1592.078
819.3468, 1592.348
821.2753, 1593.500
823.2037, 1595.240
825.1322, 1595.391
827.0607, 1593.374
828.9891, 1591.091
830.9176, 1589.167
832.8461, 1587.762
834.7745, 1587.165
836.7030, 1587.395
838.6315, 1588.835
840.5599, 1592.251
842.4884, 1597.233
844.4169, 1600.686
846.3453, 1600.687
848.2738, 1600.789
850.2023, 1602.126
852.1307, 1604.118
854.0592, 1605.478
855.9877, 1605.677
857.9161, 1605.718
859.8446, 1606.634
861.7731, 1608.159
863.7015, 1607.598
865.6300, 1602.850
867.5585, 1598.813
869.4869, 1598.081
871.4154, 1599.298
873.3439, 1598.194
875.2723, 1593.206
877.2008, 1588.806
879.1293, 1587.012
881.0577, 1587.306
882.9862, 1587.327
884.9147, 1586.618
886.8431, 1586.242
888.7716, 1585.474
890.7001, 1585.169
892.6285, 1587.740
894.5570, 1594.501
896.4855, 1600.904
898.4139, 1604.661
900.3424, 1606.960
902.2709, 1610.345
904.1993, 1615.878
906.1278, 1620.781
908.0563, 1622.708
909.9847, 1623.896
911.9132, 1629.317
913.8417, 1640.135
915.7701, 1651.048
917.6986, 1661.213
919.6271, 1670.630
921.5555, 1678.875
923.4840, 1684.747
925.4125, 1694.050
927.3410, 1709.152
929.2695, 1727.797
931.1979, 1747.926
933.1264, 1771.449
935.0549, 1792.666
936.9833, 1810.839
938.9118, 1826.415
940.8403, 1838.504
942.7687, 1846.565
944.6972, 1856.438
946.6257, 1868.033
948.5541, 1882.861
950.4826, 1901.553
952.4111, 1923.716
954.3395, 1952.948
956.2680, 1988.245
958.1965, 2030.914
960.1249, 2082.169
962.0534, 2141.833
963.9819, 2209.582
965.9103, 2295.741
967.8388, 2374.815
969.7673, 2444.110
971.6957, 2500.846
973.6242, 2519.790
975.5527, 2483.025
977.4811, 2426.736
979.4096, 2351.383
981.3381, 2262.532
983.2665, 2175.113
985.1950, 2085.610
987.1235, 2004.302
989.0519, 1933.524
990.9804, 1872.780
992.9089, 1820.660
994.8373, 1777.513
996.7658, 1741.767
998.6943, 1714.426
1000.623, 1692.685
1002.551, 1674.397
1004.480, 1660.165
1006.408, 1648.646
1008.337, 1639.400
1010.265, 1633.408
1012.194, 1632.639
1014.122, 1636.666
1016.050, 1640.909
1017.979, 1645.104
1019.907, 1649.028
1021.836, 1652.593
1023.764, 1655.680
1025.693, 1657.963
1027.621, 1658.037
1029.550, 1658.659
1031.478, 1660.269
1033.407, 1662.881
1035.335, 1666.552
1037.264, 1671.245
1039.192, 1677.003
1041.120, 1684.076
1043.049, 1692.208
1044.977, 1701.025
1046.906, 1710.491
1048.834, 1720.599
1050.763, 1730.773
1052.691, 1742.048
1054.620, 1756.665
1056.548, 1776.869
1058.477, 1789.202
1060.405, 1788.635
1062.334, 1786.267
1064.262, 1787.080
1066.191, 1790.173
1068.119, 1791.891
1070.047, 1792.580
1071.976, 1790.547
1073.904, 1784.021
1075.833, 1774.483
1077.761, 1764.154
1079.690, 1752.299
1081.618, 1741.327
1083.547, 1731.070
1085.475, 1722.338
1087.404, 1716.164
1089.332, 1713.279
1091.261, 1710.653
1093.189, 1708.260
1095.118, 1705.984
1097.046, 1703.953
1098.975, 1701.895
1100.903, 1698.934
1102.832, 1694.854
1104.760, 1689.948
1106.688, 1684.285
1108.617, 1678.049
1110.545, 1671.542
1112.474, 1665.147
1114.402, 1658.167
1116.331, 1649.039
1118.259, 1640.526
1120.188, 1635.721
1122.116, 1635.011
1124.045, 1633.443
1125.973, 1629.407
1127.902, 1625.654
1129.830, 1623.375
1131.759, 1622.257
1133.687, 1621.916
1135.615, 1622.763
1137.544, 1623.430
1139.472, 1624.034
1141.401, 1624.212
1143.329, 1623.420
1145.258, 1621.297
1147.186, 1619.163
1149.115, 1617.208
1151.043, 1615.092
1152.972, 1612.543
1154.900, 1609.469
1156.829, 1605.914
1158.757, 1601.676
1160.686, 1597.171
1162.614, 1592.432
1164.542, 1587.722
1166.471, 1583.412
1168.399, 1579.594
1170.328, 1576.455
1172.256, 1573.937
1174.185, 1572.231
1176.113, 1571.672
1178.042, 1572.407
1179.970, 1572.513
1181.899, 1570.994
1183.827, 1569.704
1185.756, 1569.218
1187.684, 1569.376
1189.613, 1570.004
1191.541, 1571.543
1193.469, 1572.455
1195.398, 1571.780
1197.326, 1571.070
1199.255, 1571.513
1201.183, 1573.105
1203.112, 1574.867
1205.040, 1576.721
1206.969, 1578.295
1208.897, 1579.299
1210.826, 1579.736
1212.754, 1579.849
1214.683, 1579.992
1216.611, 1579.515
1218.540, 1578.579
1220.468, 1577.433
1222.396, 1575.507
1224.325, 1573.154
1226.253, 1574.433
1228.182, 1581.843
1230.110, 1589.089
1232.039, 1592.973
1233.967, 1594.616
1235.896, 1595.570
1237.824, 1595.207
1239.753, 1595.465
1241.681, 1597.763
1243.610, 1599.841
1245.538, 1600.801
1247.467, 1600.826
1249.395, 1599.547
1251.323, 1595.944
1253.252, 1593.024
1255.180, 1591.398
1257.109, 1590.899
1259.037, 1591.587
1260.966, 1593.644
1262.894, 1594.840
1264.823, 1593.794
1266.751, 1592.846
1268.680, 1593.292
1270.608, 1594.682
1272.537, 1596.144
1274.465, 1597.742
1276.394, 1599.252
1278.322, 1601.092
1280.250, 1602.626
1282.179, 1602.899
1284.107, 1601.597
1286.036, 1602.496
1287.964, 1608.038
1289.893, 1612.793
1291.821, 1614.428
1293.750, 1614.766
1295.678, 1616.978
1297.607, 1621.919
1299.535, 1625.518
1301.464, 1626.498
1303.392, 1627.104
1305.321, 1628.810
1307.249, 1630.960
1309.177, 1631.634
1311.106, 1630.284
1313.034, 1629.676
1314.963, 1631.316
1316.891, 1633.455
1318.820, 1634.804
1320.748, 1635.485
1322.677, 1636.463
1324.605, 1637.626
1326.534, 1639.380
1328.462, 1642.233
1330.391, 1645.230
1332.319, 1647.438
1334.248, 1648.967
1336.176, 1649.051
1338.104, 1646.371
1340.033, 1644.240
1341.961, 1644.056
1343.890, 1645.217
1345.818, 1646.475
1347.747, 1647.740
1349.675, 1649.478
1351.604, 1652.012
1353.532, 1654.344
1355.461, 1655.849
1357.389, 1656.546
1359.318, 1656.678
1361.246, 1656.280
1363.175, 1655.865
1365.103, 1656.193
1367.031, 1656.391
1368.960, 1655.572
1370.888, 1654.138
1372.817, 1654.264
1374.745, 1657.262
1376.674, 1658.557
1378.602, 1654.830
1380.531, 1650.658
1382.459, 1649.968
1384.388, 1652.797
1386.316, 1654.569
1388.245, 1655.355
1390.173, 1655.415
1392.102, 1654.644
1394.030, 1653.494
1395.958, 1652.399
1397.887, 1651.340
1399.815, 1649.665
1401.744, 1646.217
1403.672, 1643.683
1405.601, 1643.216
1407.529, 1643.827
1409.458, 1644.824
1411.386, 1646.249
1413.315, 1646.849
1415.243, 1645.444
1417.172, 1645.417
1419.100, 1649.598
1421.029, 1654.850
1422.957, 1657.346
1424.885, 1656.905
1426.814, 1657.126
1428.742, 1659.154
1430.671, 1660.528
1432.599, 1659.697
1434.528, 1658.411
1436.456, 1659.139
1438.385, 1662.586
1440.313, 1664.800
1442.242, 1664.910
1444.170, 1664.716
1446.099, 1663.550
1448.027, 1662.795
1449.956, 1664.947
1451.884, 1671.162
1453.813, 1674.180
1455.741, 1671.980
1457.669, 1669.552
1459.598, 1667.779
1461.526, 1666.806
1463.455, 1666.910
1465.383, 1668.126
1467.312, 1669.661
1469.240, 1671.570
1471.169, 1673.447
1473.097, 1675.832
1475.026, 1677.515
1476.954, 1676.866
1478.883, 1674.174
1480.811, 1671.636
1482.740, 1669.272
1484.668, 1668.029
1486.596, 1669.359
1488.525, 1671.508
1490.453, 1673.050
1492.382, 1674.051
1494.310, 1674.561
1496.239, 1673.245
1498.167, 1673.892
1500.096, 1679.626
1502.024, 1685.031
1503.953, 1685.834
1505.881, 1682.691
1507.810, 1681.481
1509.738, 1684.634
1511.667, 1684.984
1513.595, 1678.865
1515.523, 1673.242
1517.452, 1672.691
1519.380, 1675.753
1521.309, 1677.216
1523.237, 1675.445
1525.166, 1674.861
1527.094, 1675.674
1529.023, 1676.940
1530.951, 1678.883
1532.880, 1680.822
1534.808, 1681.483
1536.737, 1680.713
1538.665, 1679.812
1540.594, 1677.542
1542.522, 1677.016
1544.450, 1680.581
1546.379, 1685.466
1548.307, 1688.182
1550.236, 1688.547
1552.164, 1689.481
1554.093, 1691.421
1556.021, 1692.897
1557.950, 1693.066
1559.878, 1693.028
1561.807, 1694.071
1563.735, 1695.671
1565.664, 1695.415
1567.592, 1692.442
1569.521, 1691.132
1571.449, 1694.171
1573.377, 1697.025
1575.306, 1696.990
1577.234, 1695.314
1579.163, 1694.191
1581.091, 1693.709
1583.020, 1692.880
1584.948, 1690.907
1586.877, 1690.021
1588.805, 1692.410
1590.734, 1695.473
1592.662, 1696.700
1594.591, 1696.356
1596.519, 1695.709
1598.448, 1694.169
1600.376, 1694.127
1602.304, 1697.523
1604.233, 1700.693
1606.161, 1700.944
1608.090, 1699.305
1610.018, 1698.422
1611.947, 1698.505
1613.875, 1697.902
1615.804, 1697.080
1617.732, 1695.052
1619.661, 1690.839
1621.589, 1686.219
1623.518, 1682.628
1625.446, 1680.185
1627.375, 1679.506
1629.303, 1680.956
1631.231, 1682.668
1633.160, 1684.114
1635.088, 1685.060
1637.017, 1685.065
1638.945, 1684.364
1640.874, 1683.875
1642.802, 1683.899
1644.731, 1682.780
1646.659, 1679.531
1648.588, 1677.165
1650.516, 1677.265
1652.445, 1678.202
1654.373, 1678.372
1656.302, 1677.898
1658.230, 1678.314
1660.158, 1679.997
1662.087, 1680.968
1664.015, 1680.801
1665.944, 1679.919
1667.872, 1677.876
1669.801, 1675.579
1671.729, 1674.300
1673.658, 1674.177
1675.586, 1674.387
1677.515, 1675.130
1679.443, 1676.096
1681.372, 1677.557
1683.300, 1678.974
1685.229, 1680.125
1687.157, 1680.904
1689.085, 1680.879
1691.014, 1679.543
1692.942, 1679.056
1694.871, 1679.980
1696.799, 1680.635
1698.728, 1681.596
1700.656, 1681.414
1702.585, 1678.115
1704.513, 1673.100
1706.442, 1670.922
1708.370, 1672.595
1710.299, 1673.819
1712.227, 1673.899
1714.156, 1674.066
1716.084, 1674.503
1718.012, 1675.001
1719.941, 1675.453
1721.869, 1675.767
1723.798, 1675.679
1725.726, 1675.069
1727.655, 1674.612
1729.583, 1674.904
1731.512, 1674.750
1733.440, 1673.408
1735.369, 1671.927
1737.297, 1671.248
1739.226, 1671.338
1741.154, 1671.824
1743.083, 1672.835
1745.011, 1673.810
1746.939, 1674.411
1748.868, 1675.208
1750.797, 1676.247
1752.725, 1677.358
1754.653, 1678.754
1756.582, 1680.034
1758.510, 1679.272
1760.439, 1675.903
1762.367, 1673.135
1764.296, 1672.033
1766.224, 1670.815
1768.153, 1668.802
1770.081, 1666.927
1772.010, 1666.025
1773.938, 1665.994
1775.867, 1666.104
1777.795, 1666.261
1779.724, 1667.243
1781.652, 1669.691
1783.580, 1671.617
1785.509, 1671.961
1787.437, 1671.636
1789.366, 1670.473
1791.294, 1669.213
1793.223, 1670.251
1795.151, 1673.662
1797.080, 1675.302
1799.008, 1674.140
1800.937, 1673.015
1802.865, 1673.038
1804.794, 1673.336
1806.722, 1673.564
1808.651, 1673.726
1810.579, 1673.501
1812.507, 1672.981
1814.436, 1673.590
1816.364, 1675.991
1818.293, 1676.676
1820.221, 1673.090
1822.150, 1669.862
1824.078, 1669.848
1826.007, 1671.097
1827.935, 1671.958
1829.864, 1672.406
1831.792, 1671.498
1833.721, 1668.813
1835.649, 1667.998
1837.578, 1671.292
1839.506, 1673.540
1841.434, 1671.539
1843.363, 1669.050
1845.291, 1669.089
1847.220, 1670.640
1849.148, 1671.449
1851.077, 1671.346
1853.005, 1671.882
1854.934, 1674.202
1856.862, 1675.282
1858.791, 1674.012
1860.719, 1672.463
1862.648, 1671.183
1864.576, 1670.487
1866.505, 1671.546
1868.433, 1673.813
1870.361, 1673.252
1872.290, 1667.826
1874.218, 1664.582
1876.147, 1664.824
1878.075, 1665.518
1880.004, 1666.574
1881.932, 1667.505
1883.861, 1667.801
1885.789, 1667.805
1887.718, 1668.055
1889.646, 1668.413
1891.575, 1668.610
1893.503, 1668.376
1895.432, 1668.159
1897.360, 1668.536
1899.288, 1668.172
1901.217, 1666.322
1903.145, 1664.359
1905.074, 1663.664
1907.002, 1663.804
1908.931, 1663.711
1910.859, 1663.354
1912.788, 1662.111
1914.716, 1659.015
1916.645, 1657.671
1918.573, 1659.582
1920.502, 1661.580
1922.430, 1662.037
1924.359, 1662.089
1926.287, 1663.646
1928.215, 1665.584
1930.144, 1664.543
1932.072, 1660.537
1934.001, 1657.756
1935.929, 1656.506
1937.858, 1656.209
1939.786, 1657.771
1941.715, 1658.909
1943.643, 1657.931
1945.572, 1656.855
1947.500, 1658.075
1949.429, 1660.318
1951.357, 1660.395
1953.286, 1658.034
1955.214, 1655.387
1957.142, 1651.483
1959.071, 1649.545
1960.999, 1652.305
1962.928, 1653.786
1964.856, 1650.424
1966.785, 1647.308
1968.713, 1649.386
1970.642, 1653.655
1972.570, 1654.172
1974.499, 1651.503
1976.427, 1649.869
1978.356, 1649.459
1980.284, 1649.777
1982.213, 1650.900
1984.141, 1652.039
1986.069, 1652.440
1987.998, 1653.107
1989.926, 1655.033
1991.855, 1657.222
1993.783, 1658.478
1995.712, 1658.913
1997.640, 1659.046
1999.569, 1659.002
2001.497, 1658.528
2003.426, 1657.152
2005.354, 1656.247
2007.283, 1656.470
2009.211, 1656.380
2011.140, 1655.378
2013.068, 1653.820
2014.996, 1651.690
2016.925, 1649.413
2018.853, 1647.683
2020.782, 1646.601
2022.710, 1647.126
2024.639, 1649.817
2026.567, 1651.106
2028.496, 1649.745
2030.424, 1648.831
2032.353, 1649.370
2034.281, 1650.289
2036.210, 1651.860
2038.138, 1652.708
2040.067, 1650.331
2041.995, 1646.460
2043.923, 1645.968
2045.852, 1648.803
2047.780, 1649.131
2049.709, 1645.569
2051.637, 1642.993
2053.566, 1642.492
2055.494, 1641.831
2057.423, 1640.370
2059.351, 1639.008
2061.280, 1638.805
2063.208, 1638.779
2065.136, 1637.712
2067.065, 1636.136
2068.993, 1634.890
2070.922, 1634.022
2072.850, 1635.635
2074.779, 1640.129
2076.708, 1643.342
2078.636, 1644.038
2080.564, 1643.939
2082.493, 1643.873
2084.421, 1642.561
2086.350, 1638.342
2088.278, 1633.888
2090.207, 1632.384
2092.135, 1632.565
2094.064, 1631.462
2095.992, 1629.297
2097.921, 1628.110
2099.849, 1627.690
2101.778, 1628.348
2103.706, 1631.803
2105.635, 1632.645
2107.563, 1628.156
2109.491, 1623.810
2111.420, 1621.145
2113.348, 1619.810
2115.277, 1620.822
2117.205, 1622.427
2119.134, 1622.266
2121.062, 1620.821
2122.991, 1618.607
2124.919, 1615.691
2126.848, 1615.798
2128.776, 1619.960
2130.705, 1622.836
2132.633, 1623.209
2134.562, 1622.895
2136.490, 1622.084
2138.418, 1620.948
2140.347, 1619.616
2142.275, 1618.142
2144.204, 1615.990
2146.132, 1614.237
2148.061, 1615.672
2149.989, 1619.081
2151.918, 1617.686
2153.846, 1611.763
2155.775, 1610.105
2157.703, 1613.933
2159.632, 1617.111
2161.560, 1618.344
2163.489, 1618.976
2165.417, 1619.716
2167.345, 1619.228
2169.274, 1615.664
2171.202, 1612.139
2173.131, 1611.770
2175.059, 1612.569
2176.988, 1611.928
2178.916, 1610.287
2180.845, 1608.573
2182.773, 1606.853
2184.702, 1605.916
2186.630, 1605.773
2188.559, 1605.612
2190.487, 1605.007
2192.416, 1605.082
2194.344, 1606.304
2196.272, 1607.597
2198.201, 1609.338
2200.129, 1610.119
2202.058, 1608.548
2203.986, 1606.387
2205.915, 1605.634
2207.843, 1605.272
2209.772, 1602.895
2211.700, 1599.260
2213.629, 1598.459
2215.557, 1600.574
2217.486, 1601.275
2219.414, 1600.290
2221.343, 1599.538
2223.271, 1599.087
2225.199, 1599.540
2227.128, 1601.702
2229.056, 1603.299
2230.985, 1602.317
2232.913, 1601.821
2234.842, 1605.145
2236.770, 1608.075
2238.699, 1605.248
2240.627, 1600.704
2242.556, 1601.603
2244.484, 1606.053
2246.413, 1606.961
2248.341, 1604.697
2250.270, 1603.472
2252.198, 1603.369
2254.126, 1604.822
2256.055, 1608.623
2257.983, 1610.150
2259.912, 1607.094
2261.840, 1604.283
2263.769, 1602.816
2265.697, 1601.794
2267.626, 1602.274
2269.554, 1601.439
2271.483, 1595.761
2273.411, 1589.902
2275.340, 1589.193
2277.268, 1591.168
2279.197, 1591.893
2281.125, 1591.810
2283.053, 1591.997
2284.982, 1592.321
2286.910, 1591.874
2288.839, 1590.265
2290.767, 1588.977
2292.696, 1586.993
2294.624, 1587.111
2296.553, 1592.059
2298.481, 1594.597
2300.410, 1592.657
2302.338, 1590.376
2304.267, 1589.056
2306.195, 1587.884
2308.124, 1586.170
2310.052, 1584.925
2311.980, 1584.694
2313.909, 1585.528
2315.837, 1588.472
2317.766, 1591.904
2319.694, 1592.059
2321.623, 1589.734
2323.551, 1588.628
2325.480, 1588.665
2327.408, 1590.774
2329.337, 1595.272
2331.265, 1595.890
2333.194, 1591.555
2335.122, 1587.490
2337.051, 1584.411
2338.979, 1582.327
2340.907, 1582.064
2342.836, 1581.994
2344.764, 1581.744
2346.693, 1581.823
2348.621, 1582.687
2350.550, 1583.443
2352.478, 1582.909
2354.407, 1582.069
2356.335, 1581.966
2358.264, 1581.587
2360.192, 1579.555
2362.121, 1576.748
2364.049, 1575.139
2365.978, 1574.542
2367.906, 1573.263
2369.834, 1571.566
2371.763, 1571.073
2373.691, 1571.992
2375.620, 1572.059
2377.548, 1570.572
2379.477, 1571.083
2381.405, 1574.564
2383.334, 1575.805
2385.262, 1572.641
2387.191, 1570.354
2389.119, 1571.744
2391.048, 1572.559
2392.976, 1570.682
2394.905, 1569.553
2396.833, 1571.657
2398.761, 1573.659
2400.690, 1572.597
2402.618, 1571.295
2404.547, 1572.281
2406.475, 1573.802
2408.404, 1574.511
2410.332, 1574.170
2412.261, 1571.645
2414.189, 1568.182
2416.118, 1567.111
2418.046, 1568.091
2419.975, 1568.957
2421.903, 1569.688
2423.832, 1569.330
2425.760, 1567.882
2427.688, 1568.266
2429.617, 1570.881
2431.545, 1572.072
2433.474, 1570.967
2435.402, 1569.842
2437.331, 1569.099
2439.259, 1568.210
2441.188, 1567.049
2443.116, 1566.210
2445.045, 1565.774
2446.973, 1565.917
2448.902, 1566.888
2450.830, 1567.966
2452.759, 1568.922
2454.687, 1569.435
2456.615, 1568.884
2458.544, 1568.253
2460.472, 1568.890
2462.401, 1569.313
2464.329, 1567.268
2466.258, 1565.219
2468.186, 1566.823
2470.115, 1569.713
2472.043, 1570.232
2473.972, 1569.328
2475.900, 1568.571
2477.829, 1568.077
2479.757, 1569.325
2481.686, 1571.731
2483.614, 1571.335
2485.542, 1568.470
2487.471, 1565.076
2489.399, 1561.512
2491.328, 1560.429
2493.256, 1562.250
2495.185, 1563.577
2497.113, 1563.620
2499.042, 1564.621
2500.970, 1567.218
2502.899, 1568.267
2504.827, 1567.012
2506.756, 1565.644
2508.684, 1564.583
2510.613, 1563.096
2512.541, 1560.086
2514.469, 1559.084
2516.398, 1564.908
2518.326, 1567.133
2520.255, 1558.586
2522.183, 1552.456
2524.112, 1554.682
2526.040, 1557.545
2527.969, 1557.899
2529.897, 1557.625
2531.826, 1557.367
2533.754, 1557.533
2535.683, 1558.992
2537.611, 1560.409
2539.540, 1560.887
2541.468, 1560.615
2543.396, 1559.111
2545.325, 1557.360
2547.253, 1555.864
2549.182, 1554.980
2551.110, 1555.744
2553.039, 1557.072
2554.967, 1557.524
2556.896, 1557.361
2558.824, 1557.073
2560.753, 1556.729
2562.681, 1555.916
2564.610, 1555.161
2566.538, 1555.699
2568.467, 1557.155
2570.395, 1558.510
2572.323, 1559.509
2574.252, 1559.346
2576.180, 1558.042
2578.109, 1557.793
2580.037, 1558.474
2581.966, 1557.753
2583.894, 1555.968
2585.823, 1555.748
2587.751, 1557.404
2589.680, 1559.755
2591.608, 1563.144
2593.537, 1564.388
2595.465, 1562.810
2597.394, 1563.074
2599.322, 1565.381
2601.250, 1567.082
2603.179, 1567.790
2605.107, 1568.422
2607.036, 1569.585
2608.964, 1569.285
2610.893, 1566.574
2612.821, 1565.750
2614.750, 1567.691
2616.678, 1569.317
2618.607, 1570.426
2620.535, 1569.870
2622.464, 1565.948
2624.392, 1563.652
2626.321, 1564.702
2628.249, 1565.572
2630.177, 1566.625
2632.106, 1565.686
2634.034, 1561.239
2635.963, 1558.835
2637.891, 1561.162
2639.820, 1563.122
2641.748, 1564.010
2643.677, 1563.416
2645.605, 1559.820
2647.534, 1557.415
2649.462, 1556.890
2651.391, 1557.901
2653.319, 1562.044
2655.248, 1563.969
2657.176, 1559.481
2659.104, 1556.386
2661.033, 1558.674
2662.961, 1559.850
2664.890, 1557.744
2666.818, 1556.050
2668.747, 1556.289
2670.675, 1557.125
2672.604, 1559.204
2674.532, 1560.055
2676.461, 1557.523
2678.389, 1555.402
2680.318, 1554.938
2682.246, 1554.245
2684.175, 1551.321
2686.103, 1550.137
2688.031, 1554.306
2689.960, 1557.595
2691.888, 1558.055
2693.817, 1557.003
2695.745, 1554.150
2697.674, 1551.796
2699.602, 1550.650
2701.531, 1550.542
2703.459, 1551.792
2705.388, 1553.247
2707.316, 1554.652
2709.245, 1555.629
2711.173, 1556.192
2713.102, 1555.754
2715.030, 1553.022
2716.958, 1551.169
2718.887, 1552.433
2720.815, 1553.270
2722.744, 1552.750
2724.672, 1551.241
2726.601, 1547.701
2728.529, 1546.099
2730.458, 1548.936
2732.386, 1551.649
2734.315, 1552.789
2736.243, 1553.056
2738.172, 1551.669
2740.100, 1550.824
2742.029, 1551.361
2743.957, 1551.562
2745.885, 1550.904
2747.814, 1550.345
2749.742, 1550.404
2751.671, 1550.527
2753.599, 1549.823
2755.528, 1551.185
2757.456, 1555.955
2759.385, 1559.611
2761.313, 1560.331
2763.242, 1560.863
2765.170, 1561.139
2767.099, 1562.180
2769.027, 1564.954
2770.956, 1565.384
2772.884, 1562.565
2774.813, 1559.375
2776.741, 1555.883
2778.669, 1554.340
2780.598, 1556.588
2782.526, 1556.525
2784.455, 1553.247
2786.383, 1552.584
2788.312, 1555.569
2790.240, 1556.313
2792.169, 1552.437
2794.097, 1552.564
2796.026, 1557.849
2797.954, 1558.526
2799.883, 1554.351
2801.811, 1551.165
2803.740, 1549.481
2805.668, 1548.758
2807.596, 1549.044
2809.525, 1551.082
2811.453, 1554.617
2813.382, 1555.370
2815.310, 1553.556
2817.239, 1550.054
2819.167, 1545.821
2821.096, 1546.625
2823.024, 1551.014
2824.953, 1552.335
2826.881, 1551.459
2828.810, 1550.565
2830.738, 1549.880
2832.667, 1550.558
2834.595, 1551.450
2836.523, 1549.816
2838.452, 1547.249
2840.380, 1546.047
2842.309, 1546.129
2844.237, 1548.193
2846.166, 1550.464
2848.094, 1550.231
2850.023, 1549.657
2851.951, 1551.309
2853.880, 1553.033
2855.808, 1553.039
2857.737, 1552.720
2859.665, 1553.021
2861.594, 1553.602
2863.522, 1554.875
2865.450, 1555.485
2867.379, 1554.169
2869.307, 1553.358
2871.236, 1554.948
2873.164, 1555.691
2875.093, 1552.765
2877.021, 1552.124
2878.950, 1556.420
2880.878, 1558.104
2882.807, 1554.225
2884.735, 1551.838
2886.664, 1553.512
2888.592, 1554.354
2890.521, 1553.916
2892.449, 1554.747
2894.377, 1557.172
2896.306, 1558.223
2898.234, 1557.485
2900.163, 1556.120
2902.091, 1554.105
2904.020, 1553.648
2905.948, 1554.596
2907.877, 1556.108
2909.805, 1557.765
2911.734, 1556.866
2913.662, 1554.965
2915.591, 1558.334
2917.519, 1563.268
2919.448, 1561.124
2921.376, 1556.564
2923.304, 1556.061
2925.233, 1557.076
2927.161, 1556.852
2929.090, 1556.497
2931.018, 1557.301
2932.947, 1557.927
2934.875, 1557.205
2936.804, 1556.406
2938.732, 1555.833
2940.661, 1556.019
2942.589, 1558.055
2944.518, 1558.595
2946.446, 1555.346
2948.375, 1552.891
2950.303, 1552.254
2952.231, 1552.393
2954.160, 1553.410
2956.088, 1553.857
2958.017, 1553.280
2959.945, 1553.533
2961.874, 1554.934
2963.802, 1554.014
2965.731, 1551.159
2967.659, 1550.224
2969.588, 1550.948
2971.516, 1550.757
2973.445, 1550.311
2975.373, 1551.584
2977.302, 1553.738
2979.230, 1555.119
2981.158, 1556.186
2983.087, 1558.316
2985.015, 1559.524
2986.944, 1556.955
2988.872, 1554.211
2990.801, 1553.276
2992.729, 1553.655
2994.658, 1555.659
2996.586, 1557.984
2998.515, 1560.870
3000.443, 1561.941
3002.372, 1560.015
3004.300, 1558.825
3006.229, 1560.246
3008.157, 1558.910
3010.085, 1554.016
3012.014, 1551.654
3013.942, 1552.030
3015.871, 1554.549
3017.799, 1558.621
3019.728, 1560.480
3021.656, 1560.742
3023.585, 1561.612
3025.513, 1562.520
3027.442, 1561.989
3029.370, 1561.358
3031.299, 1561.820
3033.227, 1563.514
3035.156, 1567.693
3037.084, 1571.226
3039.012, 1572.054
3040.941, 1572.228
3042.869, 1572.633
3044.798, 1572.603
3046.726, 1571.559
3048.655, 1572.353
3050.583, 1576.570
3052.512, 1578.501
3054.440, 1577.304
3056.369, 1578.079
3058.297, 1580.685
3060.226, 1582.564
3062.154, 1583.675
3064.083, 1583.753
3066.011, 1583.330
3067.939, 1583.081
3069.868, 1583.765
3071.796, 1588.121
3073.725, 1591.660
3075.653, 1589.683
3077.582, 1586.338
3079.510, 1583.015
3081.439, 1581.277
3083.367, 1581.906
3085.296, 1584.473
3087.224, 1590.490
3089.153, 1592.611
3091.081, 1589.349
3093.010, 1589.608
3094.938, 1594.546
3096.866, 1596.395
3098.795, 1595.519
3100.723, 1595.085
3102.652, 1594.933
3104.580, 1593.996
3106.509, 1593.537
3108.437, 1596.407
3110.366, 1599.543
3112.294, 1600.386
3114.223, 1600.332
3116.151, 1599.830
3118.080, 1599.524
3120.008, 1599.563
3121.937, 1600.571
3123.865, 1603.022
3125.793, 1604.922
3127.722, 1605.454
3129.650, 1607.586
3131.579, 1611.042
3133.507, 1614.206
3135.436, 1616.780
3137.364, 1617.622
3139.293, 1617.991
3141.221, 1621.267
3143.150, 1624.293
3145.078, 1622.126
3147.007, 1621.164
3148.935, 1627.695
3150.864, 1632.630
3152.792, 1632.405
3154.720, 1632.046
3156.649, 1632.638
3158.577, 1633.926
3160.506, 1636.120
3162.434, 1637.955
3164.363, 1639.581
3166.291, 1641.862
3168.220, 1644.312
3170.148, 1645.004
3172.077, 1645.018
3174.005, 1645.554
3175.934, 1646.866
3177.862, 1649.575
3179.791, 1652.837
3181.719, 1656.825
3183.647, 1660.136
3185.576, 1661.492
3187.504, 1664.909
3189.433, 1671.531
3191.361, 1674.987
3193.290, 1675.262
3195.218, 1676.940
3197.147, 1679.793
3199.075, 1684.271
3201.004, 1688.200
3202.932, 1686.582
3204.861, 1684.479
3206.789, 1686.802
3208.718, 1689.130
3210.646, 1687.733
3212.574, 1688.508
3214.503, 1692.968
3216.431, 1697.917
3218.360, 1703.560
3220.288, 1704.530
3222.217, 1701.611
3224.145, 1701.261
3226.074, 1703.268
3228.002, 1708.079
3229.931, 1712.847
3231.859, 1712.195
3233.788, 1711.527
3235.716, 1714.993
3237.645, 1718.787
3239.573, 1721.742
3241.501, 1723.631
3243.430, 1723.817
3245.358, 1726.247
3247.287, 1731.395
3249.215, 1734.297
3251.144, 1735.661
3253.072, 1738.470
3255.001, 1741.631
3256.929, 1743.505
3258.858, 1744.585
3260.786, 1745.322
3262.715, 1745.445
3264.643, 1743.407
3266.572, 1743.675
3268.500, 1747.434
3270.428, 1750.180
3272.357, 1751.420
3274.285, 1751.179
3276.214, 1750.083
3278.142, 1750.481
3280.071, 1752.814
3281.999, 1760.068
3283.928, 1765.998
3285.856, 1763.352
3287.785, 1760.479
3289.713, 1760.421
3291.642, 1761.555
3293.570, 1764.571
3295.499, 1765.864
3297.427, 1765.461
3299.355, 1764.979
3301.284, 1764.562
3303.212, 1764.838
3305.141, 1765.511
3307.069, 1766.010
3308.998, 1767.214
3310.926, 1771.137
3312.855, 1773.703
3314.783, 1773.669
3316.712, 1774.059
3318.640, 1775.490
3320.569, 1776.628
3322.497, 1777.631
3324.426, 1782.159
3326.354, 1787.416
3328.282, 1787.992
3330.211, 1786.949
3332.139, 1787.181
3334.068, 1787.038
3335.996, 1785.444
3337.925, 1784.797
3339.853, 1785.667
3341.782, 1787.335
3343.710, 1789.657
3345.639, 1791.246
3347.567, 1792.433
3349.496, 1794.443
3351.424, 1796.323
3353.353, 1797.018
3355.281, 1797.341
3357.209, 1797.152
3359.138, 1798.427
3361.066, 1802.048
3362.995, 1804.763
3364.923, 1806.515
3366.852, 1809.191
3368.780, 1812.114
3370.709, 1812.447
3372.637, 1812.964
3374.566, 1817.907
3376.494, 1822.239
3378.423, 1823.748
3380.351, 1823.589
3382.280, 1821.269
3384.208, 1819.238
3386.136, 1817.941
3388.065, 1823.466
3389.993, 1830.854
3391.922, 1825.508
3393.851, 1818.755
3395.779, 1822.274
3397.708, 1825.926
3399.636, 1825.309
3401.564, 1823.367
3403.493, 1820.339
3405.421, 1818.494
3407.350, 1817.812
3409.278, 1817.685
3411.207, 1817.243
3413.135, 1815.289
3415.064, 1812.055
3416.992, 1806.350
3418.921, 1802.042
3420.849, 1800.285
3422.778, 1799.537
3424.706, 1799.724
3426.635, 1798.229
3428.563, 1795.709
3430.491, 1794.380
3432.420, 1793.258
3434.348, 1790.464
3436.277, 1788.798
3438.205, 1791.051
3440.134, 1790.858
3442.062, 1786.395
3443.991, 1783.978
3445.919, 1783.715
3447.848, 1784.668
3449.776, 1786.500
3451.705, 1790.180
3453.633, 1792.204
3455.562, 1788.481
3457.490, 1786.180
3459.418, 1787.330
3461.347, 1788.724
3463.275, 1790.109
3465.204, 1790.044
3467.132, 1789.743
3469.061, 1792.570
3470.989, 1796.249
3472.918, 1798.928
3474.846, 1801.854
3476.775, 1805.280
3478.703, 1808.564
3480.632, 1811.438
3482.560, 1811.292
3484.489, 1809.835
3486.417, 1813.622
3488.345, 1817.757
3490.274, 1817.278
3492.202, 1816.138
3494.131, 1815.241
3496.059, 1816.144
3497.988, 1819.314
3499.916, 1817.591
3501.845, 1813.251
3503.773, 1813.544
3505.702, 1815.061
3507.630, 1814.837
3509.559, 1813.639
3511.487, 1810.261
3513.416, 1811.339
3515.344, 1817.463
3517.272, 1822.994
3519.201, 1829.219
3521.129, 1840.111
3523.058, 1853.477
3524.986, 1866.198
3526.915, 1882.528
3528.843, 1906.968
3530.772, 1927.680
3532.700, 1944.720
3534.629, 1969.413
3536.557, 1999.793
3538.486, 2033.925
3540.414, 2067.426
3542.343, 2100.155
3544.271, 2125.808
3546.199, 2144.783
3548.128, 2147.072
3550.056, 2132.544
3551.985, 2111.968
3553.913, 2088.560
3555.842, 2069.681
3557.770, 2048.038
3559.699, 2016.783
3561.627, 1986.222
3563.556, 1957.765
3565.484, 1932.261
3567.413, 1908.577
3569.341, 1881.683
3571.270, 1854.149
3573.198, 1827.073
3575.126, 1804.249
3577.055, 1787.446
3578.983, 1776.099
3580.912, 1770.615
3582.840, 1762.568
3584.769, 1752.331
3586.697, 1740.882
3588.626, 1727.661
3590.554, 1710.722
3592.483, 1694.174
3594.411, 1678.675
3596.340, 1663.687
3598.268, 1649.040
3600.197, 1634.718
3602.125, 1620.500
3604.053, 1606.378
3605.982, 1591.925
3607.910, 1576.587
3609.839, 1563.421
3611.767, 1553.021
3613.696, 1542.795
3615.624, 1533.529
3617.553, 1528.078
3619.481, 1522.277
3621.410, 1510.772
3623.338, 1504.266
3625.267, 1505.997
3627.195, 1503.551
3629.124, 1497.589
3631.052, 1492.024
3632.980, 1487.582
3634.909, 1485.240
3636.837, 1484.185
3638.766, 1484.983
3640.694, 1481.444
3642.623, 1473.901
3644.551, 1468.763
3646.480, 1465.533
3648.408, 1463.768
3650.337, 1462.980
3652.265, 1463.302
3654.194, 1461.980
3656.122, 1458.518
3658.051, 1455.158
3659.979, 1453.909
3661.907, 1461.628
3663.836, 1466.157
3665.764, 1458.859
3667.693, 1452.244
3669.621, 1448.691
3671.550, 1446.463
3673.478, 1445.215
3675.407, 1443.756
3677.335, 1443.054
3679.264, 1444.259
3681.192, 1445.174
3683.121, 1445.402
3685.049, 1445.123
3686.978, 1443.921
3688.906, 1438.329
3690.834, 1434.135
3692.763, 1438.662
3694.691, 1440.660
3696.620, 1437.444
3698.548, 1438.037
3700.477, 1441.680
3702.405, 1446.151
3704.334, 1448.455
3706.262, 1443.861
3708.191, 1440.114
3710.119, 1438.711
3712.048, 1438.341
3713.976, 1438.560
3715.905, 1437.871
3717.833, 1437.767
3719.761, 1441.636
3721.690, 1441.868
3723.618, 1436.775
3725.547, 1434.015
3727.475, 1433.545
3729.404, 1435.225
3731.332, 1436.530
3733.261, 1435.169
3735.189, 1433.081
3737.118, 1430.601
3739.046, 1430.105
3740.975, 1431.288
3742.903, 1434.502
3744.832, 1436.447
3746.760, 1433.114
3748.688, 1431.946
3750.617, 1433.861
3752.545, 1431.826
3754.474, 1427.803
3756.402, 1426.398
3758.331, 1425.974
3760.259, 1424.928
3762.188, 1426.996
3764.116, 1431.847
3766.045, 1431.091
3767.973, 1428.167
3769.902, 1430.065
3771.830, 1431.796
3773.759, 1431.046
3775.687, 1430.336
3777.615, 1429.845
3779.544, 1428.554
3781.472, 1427.232
3783.401, 1426.693
3785.329, 1426.446
3787.258, 1426.619
3789.186, 1425.402
3791.115, 1423.387
3793.043, 1422.538
3794.972, 1423.103
3796.900, 1426.720
3798.829, 1427.517
3800.757, 1423.182
3802.686, 1422.340
3804.614, 1423.398
3806.542, 1423.371
3808.471, 1422.076
3810.399, 1418.788
3812.328, 1416.668
3814.256, 1416.092
3816.185, 1417.753
3818.113, 1419.696
3820.042, 1420.138
3821.970, 1418.261
3823.899, 1413.295
3825.827, 1414.899
3827.756, 1420.672
3829.684, 1417.883
3831.613, 1413.809
3833.541, 1414.179
3835.469, 1414.629
3837.398, 1414.538
3839.326, 1414.526
3841.255, 1414.377
3843.183, 1413.009
3845.112, 1412.583
3847.040, 1415.340
3848.969, 1414.355
3850.897, 1410.808
3852.826, 1413.339
3854.754, 1416.361
3856.683, 1413.900
3858.611, 1414.475
3860.540, 1420.457
3862.468, 1417.100
3864.396, 1409.627
3866.325, 1407.092
3868.253, 1407.627
3870.182, 1411.538
3872.110, 1411.821
3874.039, 1409.084
3875.967, 1409.200
3877.896, 1410.562
3879.824, 1412.869
3881.753, 1413.278
3883.681, 1411.023
3885.610, 1408.306
3887.538, 1407.076
3889.467, 1412.263
3891.395, 1415.369
3893.323, 1413.052
3895.252, 1412.313
3897.180, 1412.926
3899.109, 1411.942
3901.037, 1410.420
3902.966, 1407.769
3904.894, 1409.239
3906.823, 1414.399
3908.751, 1413.722
3910.680, 1412.098
3912.608, 1417.162
3914.537, 1418.804
3916.465, 1412.481
3918.394, 1413.550
3920.322, 1417.363
3922.250, 1412.533
3924.179, 1409.026
3926.107, 1411.749
3928.036, 1412.823
3929.964, 1412.058
3931.893, 1411.206
3933.821, 1410.366
3935.750, 1409.806
3937.678, 1408.432
3939.607, 1406.464
3941.535, 1410.078
3943.464, 1414.208
3945.392, 1413.112
3947.321, 1410.283
3949.249, 1406.441
3951.177, 1406.055
3953.106, 1407.476
3955.034, 1408.301
3956.963, 1408.749
3958.891, 1409.337
3960.820, 1407.503
3962.748, 1404.623
3964.677, 1404.058
3966.605, 1404.820
3968.534, 1406.742
3970.462, 1406.722
3972.391, 1405.252
3974.319, 1407.382
3976.248, 1408.164
3978.176, 1402.295
3980.104, 1399.734
3982.033, 1401.425
3983.961, 1403.601
3985.890, 1404.515
3987.818, 1400.885
3989.747, 1399.946
3991.675, 1402.305
3993.604, 1401.461
3995.532, 1399.568
3997.461, 1399.194
3999.389, 1400.031
4001.318, 1402.427
4003.246, 1401.543
4005.175, 1399.089
4007.103, 1397.398
4009.031, 1396.500
4010.960, 1396.628
4012.888, 1394.699
4014.817, 1392.857
4016.745, 1396.952
4018.674, 1398.911
4020.602, 1395.491
4022.531, 1396.177
4024.459, 1399.241
4026.388, 1399.382
4028.316, 1398.387
4030.245, 1396.615
4032.173, 1394.887
4034.102, 1393.358
4036.030, 1393.291
4037.958, 1391.744
4039.887, 1386.444
4041.815, 1385.214
4043.744, 1387.472
4045.672, 1390.633
4047.601, 1392.390
4049.529, 1391.072
4051.458, 1391.647
4053.386, 1392.974
4055.315, 1387.044
4057.243, 1383.108
4059.172, 1389.822
4061.100, 1390.252
4063.029, 1386.468
4064.957, 1388.730
4066.885, 1391.979
4068.814, 1393.449
4070.742, 1393.268
4072.671, 1391.758
4074.599, 1390.017
4076.528, 1388.452
4078.456, 1387.503
4080.385, 1385.925
4082.313, 1384.531
4084.242, 1387.220
4086.170, 1389.944
4088.099, 1390.485
4090.027, 1390.091
4091.956, 1389.287
4093.884, 1389.509
4095.813, 1390.469
4097.741, 1392.887
4099.669, 1393.073
4101.598, 1391.099
4103.526, 1385.898
4105.455, 1383.034
4107.383, 1384.600
4109.312, 1387.694
4111.240, 1390.695
4113.169, 1391.047
4115.097, 1389.329
4117.026, 1385.479
4118.954, 1385.291
4120.883, 1386.693
4122.811, 1385.198
4124.740, 1385.021
4126.668, 1387.542
4128.597, 1391.382
4130.525, 1394.715
4132.454, 1394.593
4134.382, 1393.750
4136.311, 1392.702
4138.239, 1389.482
4140.167, 1386.815
4142.096, 1388.219
4144.024, 1389.223
4145.953, 1389.278
4147.881, 1389.393
4149.810, 1389.095
4151.738, 1387.891
4153.667, 1387.186
4155.595, 1386.666
4157.523, 1383.031
4159.452, 1379.955
4161.380, 1379.338
4163.309, 1381.604
4165.237, 1385.075
4167.166, 1384.794
4169.094, 1383.733
4171.023, 1382.942
4172.951, 1381.390
4174.880, 1379.916
4176.808, 1380.624
4178.737, 1381.205
4180.665, 1381.093
4182.594, 1381.495
4184.522, 1381.281
4186.451, 1378.633
4188.379, 1375.800
4190.308, 1373.351
4192.236, 1372.932
4194.165, 1373.830
4196.093, 1376.001
4198.021, 1377.815
4199.950, 1378.748
4201.878, 1376.848
4203.807, 1375.813
4205.735, 1377.510
4207.664, 1377.351
4209.592, 1376.085
4211.521, 1374.512
4213.449, 1375.280
4215.377, 1378.470
4217.306, 1377.517
4219.234, 1376.300
4221.163, 1380.360
4223.091, 1380.603
4225.020, 1376.966
4226.948, 1374.881
4228.877, 1374.943
4230.805, 1377.747
4232.734, 1379.354
4234.662, 1380.496
4236.591, 1385.649
4238.519, 1386.722
4240.448, 1380.537
4242.376, 1377.657
##END=



