##NAMES=Lannonite
##RRUFFID=R090036
##IDEAL CHEMISTRY=HCa_4_Mg_2_Al_4_(SO_4_)_8_F_9_·32H_2_O
##LOCALITY=Lone Pine mine, Catron County, New Mexico, USA
##OWNER=RRUFF
##SOURCE=Bob Jenkins
##DESCRIPTION=Transparent colorless thin square tabular crystals on matrix
##STATUS=The identification of this mineral has been confirmed by single-crystal X-ray diffraction
##URL=https://www.rruff.net/odr/rruff_sample/R090036
##DIFFRACTION SAMPLE DESCRIPTION=Single crystal, powder profile is calculated
##CELL PARAMETERS=a: 6.847 b: 6.847 c: 27.99 alpha: 90 beta: 90 gamma: 90 volume: 1312.3 crystal system: tetragonal
##FILETYPE=Raman Processed
##RAMAN WAVELENGTH=780

125.8435, 352.8468
127.7719, 352.1940
129.7004, 351.5616
131.6289, 350.7550
133.5574, 350.5122
135.4858, 351.4230
137.4143, 352.2004
139.3428, 352.2453
141.2712, 351.6905
143.1997, 350.9743
145.1281, 350.2172
147.0566, 348.2226
148.9851, 344.0699
150.9135, 339.7159
152.8420, 336.0272
154.7705, 332.6932
156.6989, 328.9574
158.6274, 324.7979
160.5559, 321.4492
162.4843, 319.4377
164.4128, 317.6186
166.3413, 315.4457
168.2697, 313.3064
170.1982, 311.8809
172.1267, 311.0635
174.0551, 309.7679
175.9836, 307.3643
177.9121, 305.7674
179.8405, 306.3605
181.7690, 307.1449
183.6975, 305.9955
185.6259, 303.4759
187.5544, 301.9262
189.4829, 301.7751
191.4113, 301.4304
193.3398, 300.2306
195.2683, 299.0629
197.1967, 298.6386
199.1252, 298.5829
201.0537, 297.8567
202.9821, 296.2997
204.9106, 295.4687
206.8391, 296.0967
208.7675, 296.9276
210.6960, 297.6319
212.6245, 298.2834
214.5529, 299.0363
216.4814, 299.8619
218.4099, 300.4645
220.3383, 300.8360
222.2668, 300.9165
224.1953, 300.5372
226.1237, 299.9980
228.0522, 300.0937
229.9807, 300.1543
231.9091, 298.1801
233.8376, 292.9820
235.7661, 288.9738
237.6945, 286.8721
239.6230, 285.4727
241.5515, 284.6186
243.4799, 284.0178
245.4084, 283.2679
247.3369, 282.3475
249.2654, 281.8133
251.1938, 281.6815
253.1223, 281.9338
255.0508, 283.3271
256.9792, 284.3946
258.9077, 283.7244
260.8362, 282.0211
262.7646, 281.2705
264.6931, 281.9906
266.6216, 282.3947
268.5500, 282.1295
270.4785, 282.1078
272.4070, 282.9536
274.3354, 283.9139
276.2639, 284.3438
278.1924, 284.2619
280.1208, 283.9312
282.0493, 283.1439
283.9778, 282.6260
285.9062, 282.4266
287.8347, 282.5636
289.7632, 283.5342
291.6916, 284.5448
293.6201, 284.5001
295.5486, 283.3588
297.4770, 281.7196
299.4055, 279.2372
301.3340, 277.2337
303.2624, 276.2199
305.1909, 275.5963
307.1194, 274.9710
309.0478, 274.4444
310.9763, 274.4680
312.9048, 275.1646
314.8332, 274.8360
316.7617, 272.9659
318.6902, 271.5596
320.6186, 272.1052
322.5471, 272.3935
324.4756, 270.7350
326.4040, 268.0399
328.3325, 266.4893
330.2609, 266.0874
332.1894, 265.5781
334.1179, 264.9185
336.0463, 264.0089
337.9748, 262.6667
339.9033, 261.2546
341.8317, 259.7733
343.7602, 258.4027
345.6887, 257.7765
347.6171, 257.7865
349.5456, 257.1819
351.4741, 255.4460
353.4025, 254.3040
355.3310, 254.7087
357.2595, 255.3026
359.1879, 255.3673
361.1164, 255.0812
363.0449, 254.8315
364.9733, 254.6142
366.9018, 254.2211
368.8303, 253.4850
370.7587, 252.9690
372.6872, 253.0033
374.6157, 253.0346
376.5441, 252.7551
378.4726, 252.3499
380.4011, 252.0591
382.3295, 251.8631
384.2580, 251.6600
386.1865, 251.3256
388.1149, 251.5201
390.0434, 252.9415
391.9719, 254.0884
393.9003, 254.0088
395.8288, 253.8770
397.7573, 255.0126
399.6857, 256.8695
401.6142, 258.2849
403.5427, 259.1313
405.4711, 260.4357
407.3996, 262.5796
409.3281, 264.7272
411.2565, 266.5907
413.1850, 268.6312
415.1135, 271.1689
417.0419, 274.0702
418.9704, 277.1298
420.8989, 280.3343
422.8273, 283.6699
424.7558, 287.5321
426.6843, 290.7600
428.6127, 293.0579
430.5412, 295.1465
432.4697, 297.3911
434.3981, 299.3848
436.3266, 300.5907
438.2551, 301.4434
440.1835, 303.0247
442.1120, 305.5180
444.0405, 307.4214
445.9689, 308.5493
447.8974, 309.5225
449.8259, 310.8554
451.7543, 311.4072
453.6828, 310.6759
455.6113, 308.7599
457.5397, 305.6521
459.4682, 301.4295
461.3967, 296.2603
463.3251, 289.9668
465.2536, 283.3573
467.1821, 276.1478
469.1105, 269.3582
471.0390, 263.0069
472.9675, 257.5034
474.8959, 253.0735
476.8244, 249.5170
478.7529, 246.9149
480.6813, 245.0496
482.6098, 243.0938
484.5383, 241.0248
486.4667, 239.1563
488.3952, 237.5270
490.3237, 235.9654
492.2521, 234.3154
494.1806, 232.9228
496.1091, 232.1317
498.0375, 231.4209
499.9660, 230.3236
501.8945, 228.9937
503.8229, 227.6990
505.7514, 226.4745
507.6799, 225.7289
509.6083, 225.5563
511.5368, 225.2971
513.4653, 224.6079
515.3937, 224.1996
517.3222, 224.2724
519.2507, 224.7138
521.1791, 225.9016
523.1076, 227.0742
525.0361, 226.7836
526.9645, 225.5327
528.8930, 225.1091
530.8215, 225.5589
532.7499, 225.9068
534.6784, 225.9549
536.6069, 226.1241
538.5353, 226.4728
540.4638, 226.9628
542.3923, 227.6273
544.3207, 228.4334
546.2492, 229.5156
548.1777, 230.5833
550.1061, 231.0788
552.0346, 231.0863
553.9631, 231.1633
555.8915, 231.3601
557.8200, 231.5816
559.7485, 231.7497
561.6769, 232.0006
563.6054, 232.6974
565.5339, 233.0388
567.4623, 232.3571
569.3908, 231.3762
571.3193, 230.7249
573.2477, 230.3393
575.1762, 230.3044
577.1047, 230.5181
579.0331, 229.8333
580.9616, 227.5611
582.8901, 226.6026
584.8185, 228.0073
586.7470, 229.0629
588.6755, 229.1766
590.6039, 229.1839
592.5324, 229.3711
594.4609, 229.6573
596.3893, 230.1450
598.3178, 230.5444
600.2463, 230.3464
602.1747, 229.7038
604.1032, 229.4071
606.0317, 229.5501
607.9601, 229.4299
609.8886, 228.9639
611.8171, 228.5428
613.7455, 228.1771
615.6740, 227.8373
617.6025, 227.2986
619.5309, 227.1789
621.4594, 228.3394
623.3879, 229.5365
625.3163, 229.6198
627.2448, 228.9675
629.1733, 228.3853
631.1017, 227.8364
633.0302, 226.8498
634.9587, 225.4162
636.8871, 223.5868
638.8156, 221.1506
640.7441, 219.2958
642.6725, 218.5827
644.6010, 217.6923
646.5295, 216.2698
648.4579, 214.2975
650.3864, 211.3404
652.3149, 209.6282
654.2433, 206.2013
656.1718, 204.6161
658.1003, 202.7224
660.0287, 199.0492
661.9572, 198.0920
663.8857, 196.3021
665.8141, 194.6530
667.7426, 194.6000
669.6711, 192.1247
671.5995, 192.4144
673.5280, 191.8833
675.4565, 190.8203
677.3849, 189.8646
679.3134, 189.4240
681.2419, 189.0094
683.1703, 188.2883
685.0988, 187.4011
687.0273, 186.5484
688.9557, 185.7079
690.8842, 184.6639
692.8127, 183.5775
694.7411, 182.9883
696.6696, 182.8472
698.5980, 182.4182
700.5265, 181.5834
702.4550, 180.9651
704.3834, 181.0499
706.3119, 180.4332
708.2404, 178.0228
710.1688, 176.3015
712.0973, 176.0727
714.0258, 176.4122
715.9542, 177.4360
717.8827, 178.2924
719.8112, 178.1875
721.7396, 177.5026
723.6681, 176.5367
725.5966, 175.4981
727.5250, 174.7937
729.4535, 174.4179
731.3820, 174.1797
733.3104, 174.0426
735.2389, 174.1102
737.1674, 174.5581
739.0958, 174.7962
741.0243, 174.5323
742.9528, 174.4950
744.8812, 175.2835
746.8097, 175.4106
748.7382, 173.8950
750.6666, 172.5826
752.5951, 172.5164
754.5236, 172.6739
756.4520, 172.2495
758.3805, 171.8852
760.3090, 172.4814
762.2374, 173.2620
764.1659, 172.6839
766.0944, 171.3804
768.0228, 171.4015
769.9513, 172.5370
771.8798, 173.0637
773.8082, 172.9655
775.7367, 172.4847
777.6652, 171.5096
779.5936, 171.1468
781.5221, 171.5538
783.4506, 172.0120
785.3790, 172.6423
787.3075, 172.4623
789.2360, 170.5749
791.1644, 169.3843
793.0929, 170.3460
795.0214, 171.2873
796.9498, 171.2723
798.8783, 170.9543
800.8068, 170.4798
802.7352, 170.0944
804.6637, 170.3044
806.5922, 170.5079
808.5206, 169.5489
810.4491, 169.8873
812.3776, 168.4346
814.3060, 169.6140
816.2345, 169.9605
818.1630, 169.6034
820.0914, 169.2242
822.0199, 168.8597
823.9484, 168.6991
825.8768, 168.7533
827.8053, 168.6609
829.7338, 168.3927
831.6622, 167.8926
833.5907, 166.9808
835.5192, 166.4645
837.4476, 166.7973
839.3761, 166.9253
841.3046, 166.3728
843.2330, 166.0458
845.1615, 166.4968
847.0900, 166.7650
849.0184, 166.4915
850.9469, 165.8968
852.8754, 164.8133
854.8038, 163.7462
856.7323, 163.0314
858.6608, 162.5637
860.5892, 162.3260
862.5177, 162.2273
864.4462, 162.3431
866.3746, 162.4156
868.3031, 161.9798
870.2316, 161.2158
872.1600, 160.3988
874.0885, 159.5979
876.0170, 159.1008
877.9454, 158.8677
879.8739, 158.5423
881.8024, 158.1235
883.7308, 157.8562
885.6593, 157.7930
887.5878, 157.2563
889.5162, 156.0525
891.4447, 155.2894
893.3732, 155.1646
895.3016, 154.8382
897.2301, 154.2896
899.1586, 153.6359
901.0870, 152.7324
903.0155, 152.2007
904.9440, 152.2314
906.8724, 152.2538
908.8009, 152.2160
910.7294, 152.1567
912.6578, 152.1194
914.5863, 151.8261
916.5148, 151.0577
918.4432, 150.2442
920.3717, 149.4230
922.3002, 148.9234
924.2286, 149.1860
926.1571, 149.4128
928.0856, 149.1230
930.0140, 148.7102
931.9425, 148.2419
933.8710, 147.9305
935.7994, 148.0641
937.7279, 148.3810
939.6564, 148.6446
941.5848, 148.8540
943.5133, 148.8000
945.4418, 148.8458
947.3702, 149.6959
949.2987, 150.9371
951.2272, 151.7620
953.1556, 152.5527
955.0841, 153.4484
957.0126, 155.0904
958.9410, 158.5516
960.8695, 163.8264
962.7980, 171.2338
964.7264, 180.1835
966.6549, 189.9651
968.5834, 199.9830
970.5118, 208.7420
972.4403, 216.2749
974.3688, 221.5040
976.2972, 225.7337
978.2257, 232.1268
980.1542, 241.6921
982.0826, 259.2428
984.0111, 283.0168
985.9396, 306.5529
987.8680, 328.6712
989.7965, 344.3260
991.7250, 353.5787
993.6534, 357.3693
995.5819, 356.2873
997.5104, 355.7990
999.4388, 356.1034
1001.367, 356.8063
1003.296, 357.8426
1005.224, 356.0157
1007.153, 351.1701
1009.081, 343.2666
1011.010, 331.9819
1012.938, 323.1018
1014.867, 317.3275
1016.795, 308.4424
1018.724, 296.7194
1020.652, 278.4230
1022.580, 252.0517
1024.509, 228.5733
1026.437, 208.0987
1028.366, 190.4064
1030.294, 175.5311
1032.223, 163.6973
1034.151, 155.0385
1036.080, 148.7964
1038.008, 145.2215
1039.937, 142.4682
1041.865, 140.5949
1043.794, 139.3472
1045.722, 138.8508
1047.651, 138.2881
1049.579, 137.5647
1051.507, 136.8695
1053.436, 136.2694
1055.364, 136.1626
1057.293, 136.5261
1059.221, 136.7333
1061.150, 136.7464
1063.078, 136.3842
1065.007, 135.7326
1066.935, 135.5620
1068.864, 135.8442
1070.792, 136.2287
1072.721, 136.6778
1074.649, 137.2352
1076.578, 137.8890
1078.506, 138.4674
1080.434, 139.0257
1082.363, 139.5772
1084.291, 140.1032
1086.220, 140.7912
1088.148, 141.6392
1090.077, 142.4858
1092.005, 143.3682
1093.934, 144.5412
1095.862, 145.9497
1097.791, 147.4718
1099.719, 149.0043
1101.648, 149.9864
1103.576, 151.6031
1105.505, 152.2823
1107.433, 154.2589
1109.361, 155.5390
1111.290, 156.4292
1113.218, 157.6429
1115.147, 158.1327
1117.075, 159.0436
1119.004, 158.8627
1120.932, 158.9496
1122.861, 159.0118
1124.789, 158.8363
1126.718, 158.1955
1128.646, 156.5690
1130.575, 154.7817
1132.503, 153.8517
1134.432, 152.8502
1136.360, 150.6692
1138.288, 148.4174
1140.217, 147.0046
1142.145, 145.9149
1144.074, 145.0691
1146.002, 143.9472
1147.931, 142.0587
1149.859, 140.0593
1151.788, 138.2501
1153.716, 136.4962
1155.645, 134.6535
1157.573, 133.0745
1159.502, 131.5262
1161.430, 129.9542
1163.359, 128.8645
1165.287, 127.5838
1167.215, 126.3746
1169.144, 125.5602
1171.072, 124.6582
1173.001, 123.9240
1174.929, 123.1862
1176.858, 122.3971
1178.786, 121.8468
1180.715, 121.0445
1182.643, 120.4262
1184.572, 120.0395
1186.500, 119.8592
1188.429, 119.5883
1190.357, 119.2366
1192.286, 118.9998
1194.214, 118.8975
1196.142, 118.8989
1198.071, 118.9746
1199.999, 119.0936
1201.928, 119.2549
1203.856, 119.3481
1205.785, 119.3120
1207.713, 119.1479
1209.642, 118.9151
1211.570, 118.6070
1213.499, 118.3841
1215.427, 118.4611
1217.356, 118.5284
1219.284, 118.3880
1221.213, 118.1705
1223.141, 117.7933
1225.069, 117.5803
1226.998, 117.7913
1228.926, 118.0048
1230.855, 118.2700
1232.783, 118.1518
1234.712, 117.1875
1236.640, 116.5225
1238.569, 116.4510
1240.497, 116.3880
1242.426, 116.2361
1244.354, 116.2397
1246.283, 116.4080
1248.211, 116.6494
1250.140, 117.0006
1252.068, 116.7113
1253.996, 115.8517
1255.925, 115.5999
1257.853, 115.8668
1259.782, 116.3237
1261.710, 116.7127
1263.639, 116.2225
1265.567, 115.4991
1267.496, 115.5002
1269.424, 115.8262
1271.353, 116.1891
1273.281, 116.3960
1275.210, 116.4679
1277.138, 116.4665
1279.067, 116.2207
1280.995, 115.9552
1282.923, 115.7932
1284.852, 115.8060
1286.780, 115.9988
1288.709, 116.2360
1290.637, 116.4996
1292.566, 116.8064
1294.494, 117.1283
1296.423, 117.4542
1298.351, 117.8590
1300.280, 117.7784
1302.208, 117.9108
1304.137, 117.4428
1306.065, 117.7867
1307.994, 117.7581
1309.922, 117.6699
1311.850, 117.7306
1313.779, 117.8063
1315.707, 117.9282
1317.636, 118.0076
1319.564, 117.9384
1321.493, 117.8411
1323.421, 117.7592
1325.350, 117.6418
1327.278, 117.3655
1329.207, 117.4563
1331.135, 118.1392
1333.064, 118.2472
1334.992, 117.6562
1336.921, 117.3334
1338.849, 117.1516
1340.777, 116.2428
1342.706, 115.0794
1344.634, 114.6582
1346.563, 114.5073
1348.491, 114.0875
1350.420, 113.8169
1352.348, 114.1788
1354.277, 114.3583
1356.205, 113.7328
1358.134, 113.2115
1360.062, 113.1799
1361.991, 113.0520
1363.919, 112.6368
1365.848, 112.2967
1367.776, 112.1336
1369.704, 111.8013
1371.633, 111.3660
1373.561, 111.4208
1375.490, 111.6861
1377.418, 111.4894
1379.347, 111.0371
1381.275, 110.6890
1383.204, 110.5072
1385.132, 110.4204
1387.061, 110.4526
1388.989, 110.8015
1390.918, 110.8875
1392.846, 110.1422
1394.775, 109.6039
1396.703, 109.8935
1398.631, 110.1627
1400.560, 110.1783
1402.488, 109.8307
1404.417, 109.7614
1406.345, 109.0484
1408.274, 109.1528
1410.202, 108.7678
1412.131, 108.4328
1414.059, 109.0715
1415.988, 109.6416
1417.916, 109.4377
1419.845, 109.1806
1421.773, 109.1166
1423.702, 108.9072
1425.630, 108.5166
1427.558, 108.3240
1429.487, 108.3956
1431.415, 108.5744
1433.344, 108.5523
1435.272, 108.1688
1437.201, 107.8075
1439.129, 107.8912
1441.058, 107.9944
1442.986, 107.4021
1444.915, 106.9175
1446.843, 107.0647
1448.771, 107.5131
1450.700, 108.3401
1452.628, 108.2081
1454.557, 107.1095
1456.485, 106.3932
1458.414, 105.9659
1460.342, 105.6627
1462.271, 105.6005
1464.199, 105.6231
1466.128, 105.5352
1468.056, 105.2493
1469.985, 104.9568
1471.913, 104.8851
1473.842, 104.9642
1475.770, 104.7549
1477.698, 104.9050
1479.627, 104.6493
1481.555, 104.5710
1483.484, 104.3650
1485.412, 104.1074
1487.341, 104.3161
1489.269, 103.7097
1491.198, 102.8431
1493.126, 102.5879
1495.055, 102.7656
1496.983, 103.2399
1498.912, 103.4258
1500.840, 102.9872
1502.769, 102.5115
1504.697, 102.1769
1506.625, 101.9028
1508.554, 101.6543
1510.482, 101.7109
1512.411, 101.9320
1514.339, 102.3796
1516.268, 102.4011
1518.196, 101.5281
1520.125, 100.7909
1522.053, 100.4706
1523.982, 100.2468
1525.910, 99.98913
1527.839, 99.78197
1529.767, 99.76904
1531.696, 99.66956
1533.624, 99.64025
1535.552, 100.0851
1537.481, 100.5432
1539.409, 100.9242
1541.338, 101.0777
1543.266, 100.8738
1545.195, 100.3632
1547.123, 99.70188
1549.052, 99.37338
1550.980, 99.29913
1552.909, 99.16646
1554.837, 98.92764
1556.766, 98.54689
1558.694, 98.27009
1560.623, 98.07320
1562.551, 98.16954
1564.479, 98.85872
1566.408, 99.11450
1568.336, 98.79039
1570.265, 98.57189
1572.193, 98.47963
1574.122, 98.35055
1576.050, 98.29839
1577.979, 98.12130
1579.907, 97.99378
1581.836, 97.86283
1583.764, 97.72070
1585.693, 97.75515
1587.621, 97.72503
1589.550, 97.77087
1591.478, 97.72234
1593.406, 97.62411
1595.335, 97.49454
1597.263, 97.34060
1599.192, 96.98535
1601.120, 96.69230
1603.049, 96.82204
1604.977, 96.39378
1606.906, 95.59187
1608.834, 95.39307
1610.763, 95.57891
1612.691, 95.93980
1614.620, 95.75694
1616.548, 95.83784
1618.477, 95.21214
1620.405, 95.37967
1622.333, 94.82165
1624.262, 93.98950
1626.190, 93.94522
1628.119, 94.20286
1630.047, 94.44365
1631.976, 94.68461
1633.904, 94.40800
1635.833, 93.82066
1637.761, 93.29990
1639.690, 92.39497
1641.618, 93.41167
1643.547, 93.90580
1645.475, 93.90541
1647.404, 91.93932
1649.332, 92.50354
1651.260, 92.04890
1653.189, 91.54906
1655.117, 92.45947
1657.046, 90.76140
1658.974, 91.64245
1660.903, 91.48904
1662.831, 91.80406
1664.760, 91.09386
1666.688, 90.69585
1668.617, 91.31623
1670.545, 91.36737
1672.474, 90.52566
1674.402, 90.84985
1676.331, 89.08134
1678.259, 89.14271
1680.188, 89.99142
1682.116, 89.18383
1684.044, 89.50935
1685.973, 89.39837
1687.901, 87.31686
1689.830, 88.65292
1691.758, 88.50608
1693.687, 86.83648
1695.615, 88.04503
1697.544, 86.57791
1699.472, 86.06120
1701.401, 86.25867
1703.329, 85.70456
1705.258, 85.61221
1707.186, 85.80865
1709.115, 85.18565
1711.043, 85.00244
1712.971, 84.59871
1714.900, 84.44362
1716.828, 84.07576
1718.757, 84.25066
1720.685, 83.96815
1722.614, 83.01855
1724.542, 82.36300
1726.471, 82.84664
1728.399, 82.80944
1730.328, 81.78189
1732.256, 81.20455
1734.185, 80.89409
1736.113, 80.73040
1738.042, 80.24563
1739.970, 80.54406
1741.898, 79.69568
1743.827, 79.65536
1745.755, 79.78691
1747.684, 79.76180
1749.612, 80.02910
1751.541, 80.12231
1753.469, 79.59647
1755.398, 78.82288
1757.326, 78.31712
1759.255, 78.24444
1761.183, 77.96848
1763.112, 77.66814
1765.040, 77.67715
1766.969, 77.78767
1768.897, 77.88634
1770.825, 77.50163
1772.754, 77.37176
1774.682, 76.64829
1776.611, 76.70189
1778.539, 76.21084
1780.468, 75.89178
1782.396, 76.06471
1784.325, 76.03352
1786.253, 75.75745
1788.182, 75.38045
1790.110, 75.08382
1792.039, 75.13658
1793.967, 75.01749
1795.896, 74.74665
1797.824, 74.47290
1799.752, 74.00568
1801.681, 73.79910
1803.609, 73.47746
1805.538, 72.89660
1807.466, 73.12609
1809.395, 73.22793
1811.323, 72.85261
1813.252, 73.17271
1815.180, 73.80656
1817.109, 73.65755
1819.037, 73.15574
1820.966, 72.08651
1822.894, 71.00364
1824.823, 71.41625
1826.751, 72.11242
1828.679, 72.13396
1830.608, 71.57867
1832.536, 70.95863
1834.465, 70.86512
1836.393, 70.84078
1838.322, 70.54253
1840.250, 70.38919
1842.179, 69.98796
1844.107, 69.43794
1846.036, 69.22906
1847.964, 68.61731
1849.893, 68.06559
1851.821, 68.40288
1853.750, 68.48042
1855.678, 68.31429
1857.606, 68.34866
1859.535, 68.30842
1861.463, 68.03371
1863.392, 67.75198
1865.320, 67.24603
1867.249, 66.71082
1869.177, 66.68177
1871.106, 66.62955
1873.034, 66.38451
1874.963, 66.58385
1876.891, 66.65446
1878.820, 65.94524
1880.748, 65.21223
1882.677, 65.01217
1884.605, 65.47971
1886.533, 65.59901
1888.462, 64.79388
1890.390, 64.40186
1892.319, 64.52708
1894.247, 63.96574
1896.176, 63.36999
1898.104, 63.22412
1900.033, 63.22585
1901.961, 63.33026
1903.890, 63.11739
1905.818, 62.71610
1907.747, 63.08500
1909.675, 63.00121
1911.604, 61.62638
1913.532, 61.06520
1915.460, 61.57112
1917.389, 61.67896
1919.317, 61.53458
1921.246, 61.78860
1923.174, 61.88584
1925.103, 61.47817
1927.031, 61.13307
1928.960, 60.85374
1930.888, 60.63861
1932.817, 60.58207
1934.745, 60.77241
1936.674, 60.72311
1938.602, 60.13389
1940.531, 59.74891
1942.459, 60.13388
1944.387, 60.37726
1946.316, 60.05290
1948.244, 59.83933
1950.173, 59.74678
1952.101, 59.71899
1954.030, 59.61725
1955.958, 59.50020
1957.887, 59.53849
1959.815, 59.34542
1961.744, 59.28950
1963.672, 59.46154
1965.601, 59.19330
1967.529, 58.72047
1969.458, 58.30506
1971.386, 57.66801
1973.314, 57.18091
1975.243, 56.73211
1977.171, 56.32358
1979.100, 56.18079
1981.028, 56.34595
1982.957, 56.42527
1984.885, 56.11826
1986.814, 55.66920
1988.742, 54.94270
1990.671, 54.22112
1992.599, 54.32067
1994.528, 54.59460
1996.456, 54.47645
1998.385, 54.19519
2000.313, 53.97051
2002.241, 53.89717
2004.170, 53.86574
2006.098, 53.90225
2008.027, 53.87864
2009.955, 53.61368
2011.884, 53.39354
2013.812, 53.00946
2015.741, 52.78902
2017.669, 52.49632
2019.598, 52.42233
2021.526, 53.01169
2023.455, 53.34912
2025.383, 52.22252
2027.312, 51.29669
2029.240, 50.95943
2031.168, 51.33310
2033.097, 50.69130
2035.025, 51.34705
2036.954, 50.38434
2038.882, 50.45204
2040.811, 50.61227
2042.739, 50.60420
2044.668, 50.50726
2046.596, 50.14296
2048.525, 49.68438
2050.453, 49.50970
2052.382, 49.41971
2054.310, 49.30225
2056.239, 49.20451
2058.167, 49.09216
2060.095, 48.95062
2062.024, 48.84655
2063.952, 48.62957
2065.881, 48.45842
2067.809, 48.23315
2069.738, 47.97089
2071.666, 47.70705
2073.595, 47.39840
2075.523, 47.20047
2077.452, 47.35339
2079.380, 47.39709
2081.309, 47.17403
2083.237, 47.09726
2085.166, 46.92161
2087.094, 46.73594
2089.022, 46.63655
2090.951, 46.07030
2092.879, 46.29319
2094.808, 46.24242
2096.736, 45.88310
2098.665, 46.17057
2100.593, 46.28517
2102.522, 45.46504
2104.450, 45.11506
2106.379, 45.09270
2108.307, 44.62857
2110.236, 44.31917
2112.164, 44.86763
2114.093, 44.88057
2116.021, 44.32564
2117.949, 44.45734
2119.878, 44.34898
2121.806, 44.17791
2123.735, 43.69453
2125.663, 42.94422
2127.592, 43.26289
2129.520, 43.40595
2131.449, 42.64896
2133.377, 42.18547
2135.306, 42.17762
2137.234, 42.43106
2139.163, 42.62308
2141.091, 42.91875
2143.020, 42.29459
2144.948, 41.70591
2146.876, 42.00749
2148.805, 41.89199
2150.733, 41.78026
2152.662, 41.64745
2154.590, 41.38200
2156.519, 41.37540
2158.447, 41.47183
2160.376, 41.47380
2162.304, 41.24961
2164.233, 40.74110
2166.161, 40.35594
2168.090, 40.25998
2170.018, 40.26052
2171.947, 39.98429
2173.875, 39.69942
2175.803, 39.79321
2177.732, 39.63951
2179.660, 39.46553
2181.589, 39.69180
2183.517, 39.67472
2185.446, 39.38434
2187.374, 39.20937
2189.303, 39.00519
2191.231, 38.75110
2193.160, 38.57042
2195.088, 38.54596
2197.017, 38.34706
2198.945, 38.36657
2200.874, 38.10107
2202.802, 38.09949
2204.730, 37.96886
2206.659, 37.77864
2208.587, 37.87766
2210.516, 37.48948
2212.444, 37.13195
2214.373, 36.96752
2216.301, 37.39541
2218.230, 37.11339
2220.158, 36.77319
2222.087, 37.17912
2224.015, 36.97297
2225.944, 36.15656
2227.872, 35.71996
2229.801, 35.82021
2231.729, 36.38878
2233.657, 36.41014
2235.586, 35.95122
2237.514, 35.65448
2239.443, 35.54013
2241.371, 35.77624
2243.300, 35.94137
2245.228, 35.88002
2247.157, 35.26091
2249.085, 34.69416
2251.014, 34.43615
2252.942, 34.74520
2254.871, 34.98015
2256.799, 34.68447
2258.728, 34.73623
2260.656, 34.02188
2262.584, 34.29705
2264.513, 33.95162
2266.441, 33.60296
2268.370, 34.27403
2270.298, 34.36177
2272.227, 33.73576
2274.155, 33.73949
2276.084, 33.60690
2278.012, 33.10171
2279.941, 33.33841
2281.869, 33.47330
2283.798, 32.85049
2285.726, 32.96533
2287.655, 32.59242
2289.583, 32.91417
2291.511, 32.14326
2293.440, 32.06704
2295.368, 32.27542
2297.297, 32.12858
2299.225, 31.75357
2301.154, 31.53406
2303.082, 31.33370
2305.011, 31.49865
2306.939, 31.65352
2308.868, 31.65182
2310.796, 31.40700
2312.725, 30.98950
2314.653, 30.45997
2316.582, 30.02981
2318.510, 30.09731
2320.438, 30.34458
2322.367, 30.47219
2324.295, 30.29380
2326.224, 30.78356
2328.152, 30.56510
2330.081, 30.91435
2332.009, 30.29626
2333.938, 29.87519
2335.866, 29.47141
2337.795, 29.43239
2339.723, 29.36456
2341.652, 29.33542
2343.580, 29.32502
2345.509, 29.28167
2347.437, 29.21542
2349.365, 29.12823
2351.294, 29.02178
2353.222, 28.87472
2355.151, 28.69694
2357.079, 28.50226
2359.008, 28.32643
2360.936, 28.10732
2362.865, 27.95750
2364.793, 27.79773
2366.722, 27.64852
2368.650, 27.67712
2370.579, 27.79849
2372.507, 27.77173
2374.436, 27.55092
2376.364, 27.52424
2378.292, 27.22110
2380.221, 27.20776
2382.149, 26.83574
2384.078, 26.61409
2386.006, 26.79846
2387.935, 26.49525
2389.863, 26.74718
2391.792, 26.27678
2393.720, 26.55481
2395.649, 26.49535
2397.577, 26.22878
2399.506, 26.10432
2401.434, 25.92315
2403.363, 25.87689
2405.291, 25.49867
2407.219, 25.21318
2409.148, 25.43928
2411.076, 25.47311
2413.005, 25.54670
2414.933, 25.46161
2416.862, 25.62564
2418.790, 25.58939
2420.719, 24.96968
2422.647, 24.60519
2424.576, 24.50794
2426.504, 24.62799
2428.433, 24.57646
2430.361, 24.41448
2432.290, 24.23940
2434.218, 24.10690
2436.146, 24.18422
2438.075, 23.82385
2440.003, 23.45460
2441.932, 23.81401
2443.860, 23.92499
2445.789, 23.69723
2447.717, 23.63445
2449.646, 23.05082
2451.574, 23.12008
2453.503, 22.62145
2455.431, 22.92503
2457.360, 23.20363
2459.288, 22.93800
2461.217, 22.86452
2463.145, 22.67915
2465.073, 22.72600
2467.002, 22.10168
2468.930, 22.03661
2470.859, 21.75261
2472.787, 22.27866
2474.716, 21.85878
2476.644, 22.14700
2478.573, 22.64213
2480.501, 22.35436
2482.430, 22.05503
2484.358, 21.81256
2486.287, 21.52997
2488.215, 21.33658
2490.144, 21.08259
2492.072, 20.98311
2494.000, 20.94277
2495.929, 20.80518
2497.857, 20.48302
2499.786, 20.78083
2501.714, 20.72855
2503.643, 21.41258
2505.571, 20.86525
2507.500, 20.95046
2509.428, 20.66461
2511.357, 20.39704
2513.285, 20.75778
2515.214, 20.08151
2517.142, 19.40730
2519.071, 20.38041
2520.999, 20.82578
2522.927, 20.62070
2524.856, 19.89205
2526.784, 19.52566
2528.713, 19.56485
2530.641, 19.73173
2532.570, 19.47994
2534.498, 18.94251
2536.427, 18.79655
2538.355, 18.97725
2540.284, 19.13920
2542.212, 19.12868
2544.141, 19.12372
2546.069, 18.95482
2547.998, 18.66851
2549.926, 18.42270
2551.854, 18.23396
2553.783, 18.04461
2555.711, 17.97717
2557.640, 18.06416
2559.568, 18.13110
2561.497, 18.83286
2563.425, 19.44397
2565.354, 18.51198
2567.282, 17.95197
2569.211, 18.30304
2571.139, 18.37288
2573.068, 18.10018
2574.996, 18.27222
2576.925, 17.80519
2578.853, 18.11744
2580.781, 17.99252
2582.710, 17.72828
2584.638, 17.61089
2586.567, 17.91388
2588.495, 17.26426
2590.424, 16.65474
2592.352, 16.90060
2594.281, 16.89622
2596.209, 16.63478
2598.138, 16.91541
2600.066, 16.25091
2601.995, 17.01909
2603.923, 17.10282
2605.852, 16.78029
2607.780, 16.30036
2609.708, 15.98087
2611.637, 16.28525
2613.565, 16.53270
2615.494, 16.20499
2617.422, 15.80031
2619.351, 15.64154
2621.279, 16.00668
2623.208, 15.85427
2625.136, 15.58200
2627.065, 15.66213
2628.993, 15.39526
2630.922, 15.12399
2632.850, 15.18348
2634.779, 14.41467
2636.707, 14.10295
2638.635, 15.01986
2640.564, 15.32786
2642.492, 14.98280
2644.421, 14.18411
2646.349, 14.42153
2648.278, 14.91301
2650.206, 15.39004
2652.135, 15.23034
2654.063, 14.72598
2655.992, 14.17118
2657.920, 14.60720
2659.849, 14.62789
2661.777, 13.90584
2663.706, 14.22437
2665.634, 14.52261
2667.563, 14.60500
2669.491, 14.81233
2671.419, 14.34114
2673.348, 13.41111
2675.276, 13.19494
2677.205, 13.44955
2679.133, 13.82356
2681.062, 13.39755
2682.990, 13.18383
2684.919, 13.30432
2686.847, 13.34578
2688.776, 13.85820
2690.704, 14.19046
2692.633, 13.36427
2694.561, 12.87262
2696.490, 12.77550
2698.418, 12.49568
2700.346, 12.96215
2702.275, 12.45691
2704.203, 12.60105
2706.132, 12.49111
2708.060, 12.40875
2709.989, 12.66670
2711.917, 12.49734
2713.846, 12.41583
2715.774, 12.54055
2717.703, 12.39031
2719.631, 12.30669
2721.560, 12.32260
2723.488, 12.01302
2725.417, 11.99360
2727.345, 12.30153
2729.273, 12.51882
2731.202, 12.30229
2733.130, 12.42106
2735.059, 12.06154
2736.987, 12.28675
2738.916, 12.16803
2740.844, 12.17208
2742.773, 12.12034
2744.701, 11.73805
2746.630, 11.75635
2748.558, 11.25769
2750.487, 10.74537
2752.415, 10.93229
2754.344, 11.18570
2756.272, 11.28583
2758.200, 11.09373
2760.129, 11.16179
2762.057, 10.36474
2763.986, 11.03898
2765.914, 10.59912
2767.843, 10.65350
2769.771, 11.13324
2771.700, 10.96347
2773.628, 11.47738
2775.557, 11.74045
2777.485, 10.47254
2779.414, 9.718131
2781.342, 9.795781
2783.271, 10.76067
2785.199, 10.64817
2787.127, 10.42980
2789.056, 10.47421
2790.984, 9.923831
2792.913, 9.705829
2794.841, 9.826185
2796.770, 10.07195
2798.698, 10.08915
2800.627, 9.737895
2802.555, 9.288403
2804.484, 9.403190
2806.412, 9.585129
2808.341, 9.476748
2810.269, 9.267252
2812.198, 9.079573
2814.126, 8.744349
2816.054, 8.112047
2817.983, 8.596628
2819.911, 8.326829
2821.840, 9.265016
2823.768, 8.750178
2825.697, 8.539217
2827.625, 9.245024
2829.554, 9.253714
2831.482, 9.306792
2833.411, 9.486905
2835.339, 8.973078
2837.268, 8.759663
2839.196, 8.891891
2841.125, 8.779397
2843.053, 8.592141
2844.981, 8.496310
2846.910, 8.920287
2848.838, 8.260040
2850.767, 7.811440
2852.695, 8.839511
2854.624, 8.719789
2856.552, 8.533542
2858.481, 8.544728
2860.409, 8.249442
2862.338, 7.927543
2864.266, 7.924606
2866.195, 8.357088
2868.123, 8.182313
2870.052, 7.869628
2871.980, 7.895496
2873.908, 7.615911
2875.837, 7.682100
2877.765, 8.042727
2879.694, 8.131321
2881.622, 8.150521
2883.551, 8.121170
2885.479, 7.515203
2887.408, 7.301111
2889.336, 7.666582
2891.265, 7.177377
2893.193, 7.481435
2895.122, 7.010322
2897.050, 7.091657
2898.979, 7.438676
2900.907, 7.721534
2902.835, 7.614624
2904.764, 7.297406
2906.692, 6.718621
2908.621, 7.026018
2910.549, 8.009528
2912.478, 7.713624
2914.406, 7.640548
2916.335, 7.434751
2918.263, 7.368522
2920.191, 7.203309
2922.120, 7.416517
2924.048, 7.285878
2925.977, 7.577161
2927.905, 7.168226
2929.834, 7.678931
2931.762, 7.277443
2933.691, 6.853188
2935.619, 6.514873
2937.548, 6.509298
2939.476, 6.680891
2941.405, 7.224305
2943.333, 7.531353
2945.261, 7.211386
2947.190, 7.216554
2949.118, 7.194154
2951.047, 6.990234
2952.975, 6.721076
2954.904, 6.543683
2956.832, 6.264634
2958.761, 6.106971
2960.689, 6.229511
2962.618, 6.661161
2964.546, 7.217052
2966.475, 6.038277
2968.403, 5.674180
2970.332, 5.953897
2972.260, 6.232304
2974.188, 6.106774
2976.117, 6.189254
2978.045, 6.112406
2979.974, 5.958269
2981.902, 5.797237
2983.831, 5.576305
2985.759, 5.567989
2987.688, 6.047933
2989.616, 6.256060
2991.545, 5.755615
2993.473, 5.617767
2995.402, 5.484610
2997.330, 5.099564
2999.259, 5.431495
3001.187, 5.248282
3003.115, 5.861200
3005.044, 6.027574
3006.972, 5.870191
3008.901, 5.367134
3010.829, 5.291430
3012.758, 5.594021
3014.686, 5.786605
3016.615, 5.517053
3018.543, 4.852473
3020.472, 4.443743
3022.400, 5.508325
3024.329, 5.940314
3026.257, 5.575615
3028.186, 5.615690
3030.114, 5.589281
3032.042, 5.681798
3033.971, 5.559329
3035.899, 5.518775
3037.828, 5.632708
3039.756, 5.629160
3041.685, 4.768254
3043.613, 4.480634
3045.542, 4.613784
3047.470, 4.700147
3049.399, 4.675414
3051.327, 4.425204
3053.256, 4.476367
3055.184, 4.448838
3057.113, 4.692953
3059.041, 4.496710
3060.969, 4.503194
3062.898, 4.468507
3064.826, 4.769893
3066.755, 4.847438
3068.683, 4.818095
3070.612, 5.353381
3072.540, 4.601691
3074.469, 4.224155
3076.397, 4.577014
3078.326, 4.759677
3080.254, 4.229555
3082.183, 3.741833
3084.111, 4.667870
3086.040, 4.717910
3087.968, 4.714446
3089.896, 4.720776
3091.825, 3.918147
3093.753, 5.102999
3095.682, 5.448406
3097.610, 4.504161
3099.539, 4.220979
3101.467, 3.814305
3103.396, 3.819275
3105.324, 4.193742
3107.253, 4.603356
3109.181, 4.751607
3111.110, 4.418801
3113.038, 3.955667
3114.967, 3.399053
3116.895, 3.654900
3118.823, 3.887607
3120.752, 3.012988
3122.680, 4.012869
3124.609, 4.349481
3126.537, 4.075078
3128.466, 3.718652
3130.394, 3.643612
3132.323, 4.029605
3134.251, 4.070515
3136.180, 4.087138
3138.108, 4.085923
3140.037, 4.152954
3141.965, 4.089093
3143.894, 4.188440
3145.822, 4.092560
3147.750, 4.142550
3149.679, 3.873458
3151.607, 3.389987
3153.536, 3.133663
3155.464, 3.367626
3157.393, 4.549882
3159.321, 4.196182
3161.250, 4.003299
3163.178, 3.852037
3165.107, 3.522350
3167.035, 3.223908
3168.964, 3.179885
3170.892, 3.493992
3172.821, 3.907783
3174.749, 3.526382
3176.677, 3.652973
3178.606, 3.593541
3180.534, 3.288773
3182.463, 4.634136
3184.391, 4.554846
3186.320, 3.855007
3188.248, 3.492982
3190.177, 3.161184
3192.105, 2.930030
3194.034, 2.868284
3195.962, 3.027337
3197.891, 2.838870
3199.819, 3.362013
3201.748, 2.840873
3203.676, 2.406899
3205.604, 2.665230
3207.533, 3.355325
3209.461, 3.557930
3211.390, 2.937843
3213.318, 3.279886
3215.247, 3.278079
3217.175, 2.802153
3219.104, 2.606740
3221.032, 2.881577
3222.961, 3.010029
3224.889, 2.859398
3226.818, 2.742509
3228.746, 3.408291
3230.675, 2.844043
3232.603, 2.804085
3234.531, 3.512303
3236.460, 3.459887
3238.388, 4.014301
3240.317, 3.902372
3242.245, 3.142617
3244.174, 3.302942
3246.102, 3.357893
3248.031, 3.363471
3249.959, 3.293311
3251.888, 3.256054
3253.816, 3.332526
3255.745, 3.294701
3257.673, 2.944636
3259.602, 3.397815
3261.530, 3.122843
3263.458, 2.904315
3265.387, 3.033191
3267.315, 3.079761
3269.244, 2.946150
3271.172, 3.358129
3273.101, 3.691851
3275.029, 3.767627
3276.958, 3.264057
3278.886, 3.129690
3280.815, 3.219788
3282.743, 2.980239
3284.672, 2.998928
3286.600, 2.767118
3288.529, 2.603626
3290.457, 2.608124
3292.385, 2.434218
3294.314, 2.469776
3296.242, 2.459406
3298.171, 2.583921
3300.099, 2.635818
3302.028, 2.813001
3303.956, 3.170002
3305.885, 2.983454
3307.813, 3.197076
3309.742, 2.931167
3311.670, 3.042979
3313.599, 2.742237
3315.527, 2.829395
3317.456, 2.790497
3319.384, 2.738502
3321.313, 2.755736
3323.241, 2.725947
3325.169, 2.132732
3327.098, 2.616452
3329.026, 2.866723
3330.955, 2.623631
3332.883, 2.075895
3334.812, 2.224896
3336.740, 2.228937
3338.669, 1.692965
3340.597, 1.485585
3342.526, 2.141042
3344.454, 3.460553
3346.383, 2.368705
3348.311, 2.152576
3350.240, 3.215174
3352.168, 2.223980
3354.096, 2.913543
3356.025, 2.484745
3357.953, 1.690510
3359.882, 2.182842
3361.810, 2.015016
3363.739, 2.787248
3365.667, 2.658877
3367.596, 2.689792
3369.524, 2.324250
3371.453, 2.392165
3373.381, 2.517266
3375.310, 2.103393
3377.238, 2.163350
3379.167, 2.555498
3381.095, 2.204279
3383.023, 2.144698
3384.952, 2.809703
3386.880, 2.670225
3388.809, 2.159583
3390.737, 2.172550
3392.666, 2.426936
3394.594, 2.426829
3396.523, 2.099870
3398.451, 2.252460
3400.380, 2.224903
3402.308, 2.008439
3404.237, 2.373561
3406.165, 1.907717
3408.094, 1.916738
3410.022, 1.907903
3411.950, 1.597594
3413.879, 1.543602
3415.807, 2.579653
3417.736, 2.522047
3419.664, 1.940476
3421.593, 1.574125
3423.521, 0.8455380
3425.450, 1.435993
3427.378, 2.190362
3429.307, 2.462666
3431.235, 2.241830
3433.164, 2.289699
3435.092, 1.423781
3437.021, 1.751900
3438.949, 2.775230
3440.877, 2.172217
3442.806, 2.978429
3444.734, 2.805775
3446.663, 2.449570
3448.591, 2.403171
3450.520, 2.307308
3452.448, 2.509525
3454.377, 2.291444
3456.305, 2.097859
3458.234, 1.971969
3460.162, 1.504096
3462.091, 1.230991
3464.019, 0.9490885
3465.948, 1.144078
3467.876, 1.921815
3469.804, 2.317014
3471.733, 1.475007
3473.661, 0.9565306
3475.590, 1.560712
3477.518, 1.106126
3479.447, 2.184749
3481.375, 1.370839
3483.304, 1.734165
3485.232, 2.128705
3487.161, 1.621118
3489.089, 2.147854
3491.018, 2.707053
3492.946, 2.311489
3494.875, 1.284195
3496.803, 0.5024674
3498.731, 1.651941
3500.660, 1.164025
3502.588, 1.388181
3504.517, 1.743540
3506.445, 1.364563
3508.374, 1.514353
3510.302, 1.580965
3512.231, 2.186305
3514.159, 1.697689
3516.088, 1.796554
3518.016, 1.790474
3519.945, 1.301019
3521.873, 0.8328102
3523.802, 1.177747
3525.730, 1.007106
3527.658, 1.176183
3529.587, 1.565469
3531.515, 1.696165
3533.444, 1.761914
3535.372, 1.735237
3537.301, 1.704050
3539.229, 1.407250
3541.158, 1.218396
3543.086, 1.021001
3545.015, 0.8952015
3546.943, 0.8972381
3548.872, 0.6887630
3550.800, 0.7189759
3552.729, 0.8249120
3554.657, 1.156071
3556.585, 1.727418
3558.514, 1.682461
3560.442, 1.676092
3562.371, 1.452113
3564.299, 1.464164
3566.228, 1.561904
3568.156, 0.7556245
3570.085, 1.840319
3572.013, 2.593638
3573.942, 2.154883
3575.870, 1.312464
3577.799, 1.288855
3579.727, 1.441890
3581.656, 1.427179
3583.584, 1.030836
3585.512, 1.440645
3587.441, 2.687570
3589.369, 1.953946
3591.298, 1.671250
3593.226, 0.7062539
3595.155, 1.171889
3597.083, 2.494167
3599.012, 2.251695
3600.940, 2.506472
3602.869, 2.071998
3604.797, 2.194462
3606.726, 2.346075
3608.654, 2.223130
3610.583, 2.202350
3612.511, 1.695058
3614.439, 1.945688
3616.368, 2.246699
3618.296, 2.181461
3620.225, 2.698262
3622.153, 3.624689
3624.082, 2.305164
3626.010, 2.093496
3627.939, 2.650555
3629.867, 2.984708
3631.796, 2.912057
3633.724, 2.143906
3635.653, 1.683306
3637.581, 1.789216
3639.510, 2.017646
3641.438, 2.102369
3643.366, 2.403291
3645.295, 1.686272
3647.223, 3.018810
3649.152, 2.383335
3651.080, 1.195222
3653.009, 1.772003
3654.937, 0.5732070
3656.866, 1.945666
3658.794, 0.8858379
3660.723, 1.602535
3662.651, 2.911607
3664.580, 1.564143
3666.508, 1.145483
3668.437, 0.6041992
3670.365, 1.368855
3672.293, 1.717037
3674.222, 0.8954346
3676.150, -0.1630442
3678.079, 0.7186180
3680.007, 0.8978165
3681.936, 1.265002
3683.864, 1.280129
3685.793, 0.8233246
3687.721, 0.5177777
3689.650, 1.447723
3691.578, 1.388180
3693.507, 2.299267
3695.435, 2.452960
3697.364, 1.882432
3699.292, 1.409238
3701.220, 0.1220777
3703.149, -3.3799823E-02
3705.077, -0.2846763
3707.006, -0.2501782
3708.934, 7.7090189E-02
3710.863, 1.212219
3712.791, 2.143056
3714.720, 1.907952
3716.648, 1.328528
3718.577, -0.1551907
3720.505, -0.1782341
3722.434, 1.046860
3724.362, 0.4742781
3726.291, 1.208680
3728.219, 1.090608
3730.147, 0.9267083
3732.076, 0.9054589
3734.004, 0.9018033
3735.933, 0.7277252
3737.861, 8.8906214E-02
3739.790, 0.3305703
3741.718, 1.461352
3743.647, 1.163568
3745.575, 1.028356
3747.504, 1.912248
3749.432, 1.619486
3751.361, 1.698617
3753.289, 1.976957
3755.218, 1.948465
3757.146, 1.861342
3759.074, 1.989487
3761.003, 1.275572
3762.931, 0.6442992
3764.860, 1.070733
3766.788, 1.707871
3768.717, 1.856739
3770.645, 1.510126
3772.574, 0.8135129
3774.502, 0.3171631
3776.431, 0.1551771
3778.359, 0.7818592
3780.288, 8.5518230E-03
3782.216, 0.8418132
3784.145, 1.122595
3786.073, 0.5109493
3788.001, 1.199296
3789.930, 1.209442
3791.858, 1.318730
3793.787, 0.8384554
3795.715, 0.4629623
3797.644, 0.6242388
3799.572, 1.013064
3801.501, 0.9720374
3803.429, 1.042797
3805.358, 0.3180074
3807.286, 0.2102330
3809.215, -1.2284180E-02
3811.143, -0.1939462
3813.072, 0.2944099
3815.000, 0.2807867
3816.928, 0.5918674
3818.857, 0.6966240
3820.785, 1.242711
3822.714, 1.211532
3824.642, 1.503348
3826.571, 1.969514
3828.499, 0.6465757
3830.428, 0.9897743
3832.356, 0.9083607
3834.285, 1.058397
3836.213, 0.8394823
3838.142, 0.9772726
3840.070, 1.091759
3841.999, 0.5469831
3843.927, 1.921578
3845.855, -0.1770081
3847.784, -0.4585145
3849.712, -0.5565982
3851.641, 0.2150048
3853.569, 0.6344377
3855.498, -0.1017158
3857.426, 0.3634936
3859.355, 0.3796008
3861.283, 0.6108106
3863.212, 1.241559
3865.140, -0.3607199
3867.069, -8.5013427E-02
3868.997, 1.346026
3870.926, 0.2254957
3872.854, 1.226242
3874.782, 1.483307
3876.711, -0.3205529
3878.639, 0.7557459
3880.568, 0.9462203
3882.496, 0.6219285
3884.425, 0.5468749
3886.353, 0.6451824
3888.282, 0.2181274
3890.210, 0.7662478
3892.139, 0.4021496
3894.067, 0.3748584
3895.996, 1.217007
3897.924, 0.8291827
3899.853, -0.1051788
3901.781, 0.9191089
3903.709, 6.7298457E-02
3905.638, 0.2886417
3907.566, 1.316962
3909.495, 8.9423768E-02
3911.423, 0.5067638
3913.352, -1.2274040E-02
3915.280, -0.8095059
3917.209, 1.294480
3919.137, 0.4566205
3921.066, 0.5795791
3922.994, 0.9829916
3924.923, 1.859707
3926.851, 1.451748
3928.780, 0.5682744
3930.708, 0.5167148
3932.636, 1.578414
3934.565, 2.491563
3936.493, 1.532620
3938.422, 0.3751464
3940.350, 0.1662319
3942.279, -0.3192347
3944.207, -4.5128521E-02
3946.136, 0.1420827
3948.064, 0.2456261
3949.993, 0.3699610
3951.921, 0.4180464
3953.850, 0.6459821
3955.778, 0.2457739
3957.707, 0.7216539
3959.635, 0.2156367
3961.563, 0.1360399
3963.492, 0.9678920
3965.420, 1.125622
3967.349, 0.1569025
3969.277, 0.6534044
3971.206, 2.2923119E-02
3973.134, 9.0389080E-02
3975.063, 0.2256945
3976.991, 0.4343686
3978.920, 0.2891042
3980.848, 0.8417385
3982.777, 0.9226185
3984.705, 0.5499979
3986.634, 0.7347483
3988.562, 0.3168851
3990.490, 0.4171343
3992.419, 0.3780417
3994.347, -0.1051007
3996.276, 0.9461336
3998.204, -0.7394416
4000.133, -3.5312999E-02
4002.061, 0.5647806
4003.990, 9.2959657E-02
4005.918, -0.1943661
4007.847, 0.1788367
4009.775, 0.4195379
4011.704, 0.4248559
4013.632, 0.4763417
4015.561, 0.4869097
4017.489, 1.0248110E-02
4019.417, 9.4787069E-02
4021.346, 0.3031122
4023.274, -0.4960564
4025.203, -0.5330395
4027.131, 0.5048763
4029.060, -1.5934820E-03
4030.988, 0.9760703
4032.917, 0.4698541
4034.845, 1.433996
4036.774, 0.1931965
4038.702, -0.7223659
4040.631, 0.5793542
4042.559, 0.9684163
4044.488, 0.2240896
4046.416, 0.5714398
4048.344, 0.1850844
4050.273, 0.1120376
4052.201, 0.4463450
4054.130, 1.135584
4056.058, 0.4985625
4057.987, -7.0611447E-02
4059.915, 0.8609890
4061.844, 1.055002
4063.772, 0.5549533
4065.701, 0.7190057
4067.629, 0.3110827
4069.558, 0.2542529
4071.486, 0.5581118
4073.415, 0.7493910
4075.343, 0.4595886
4077.271, 0.5892984
4079.200, 0.2482483
4081.128, 0.5029569
4083.057, 0.9916646
4084.985, 0.8916996
4086.914, 0.5833090
4088.842, 0.5233446
4090.771, 0.9604964
4092.699, -0.4917155
4094.628, 0.3084420
4096.556, -0.1769322
4098.484, 0.2783879
4100.413, 1.113409
4102.341, 0.5769127
4104.270, -0.9041370
4106.198, -1.259272
4108.127, -9.9424653E-02
4110.055, 0.6512188
4111.984, 0.6167361
4113.912, 0.5925125
4115.841, 1.575924
4117.769, 1.620614
4119.698, 1.024168
4121.626, 0.7158256
4123.555, 0.5517218
4125.483, -6.7345358E-02
4127.412, 5.2086901E-02
4129.340, 1.098398
4131.269, 1.341883
4133.197, 0.1590187
4135.125, -0.8611065
4137.054, 0.2574802
4138.982, 0.5917951
4140.911, 1.036148
4142.839, 0.6906402
4144.768, 0.1746899
4146.696, 0.4191970
4148.625, 0.1950565
4150.553, -8.0068640E-02
4152.481, -0.1958284
4154.410, 5.2094851E-02
4156.338, 0.9956843
4158.267, 0.6472653
4160.195, -1.5599530E-02
4162.124, 1.148474
4164.052, 0.2430897
4165.981, 0.6486921
4167.909, 0.6215159
4169.838, 0.6299379
4171.766, 0.4172612
4173.695, 1.140295
4175.623, 0.2434286
4177.552, -0.4951197
4179.480, 0.4701219
4181.409, 0.9242607
4183.337, 0.7745590
4185.266, 5.9687112E-02
4187.194, 8.5411333E-02
4189.123, 0.1752642
4191.051, -0.5917919
4192.979, 7.8589268E-02
4194.908, 0.3787085
4196.836, 0.2798464
4198.765, 0.7959109
4200.693, 5.0792810E-02
4202.622, 0.4749257
4204.550, 0.4519278
4206.479, 0.5714678
4208.407, 0.8525075
4210.335, -0.2530884
4212.264, 1.470615
4214.192, 1.551484
4216.121, 0.5569835
4218.049, -0.2187565
4219.978, 0.9593684
4221.906, 0.5980833
4223.835, 0.5971062
4225.763, 1.6059000E-02
4227.692, 0.3912691
4229.620, -2.0358439E-03
4231.549, -0.1003359
4233.477, -4.8668589E-02
4235.406, 0.5360213
4237.334, 0.2711293
4239.263, -0.5395223
4241.191, 5.7769760E-02
4243.120, -0.1203891
4245.048, -0.6914385
4246.977, 0.2260716
4248.905, -0.1795706
4250.833, -0.7411548
4252.762, 0.1767020
4254.690, 0.2860624
4256.619, 1.015719
4258.547, 0.9788767
4260.476, 1.3928370E-02
4262.404, 0.3032393
4264.333, -0.5223107
4266.261, -0.3326842
4268.189, 6.6679358E-02
4270.118, -1.3130010E-02
4272.046, 0.2801776
4273.975, 1.0154680E-02
4275.903, -0.9915046
4277.832, -1.119205
4279.760, -1.437850
4281.689, -3.348938
4283.617, -3.8165919E-02
4285.546, 0.6322547
4287.474, -0.7475020
4289.403, -1.096088
4291.331, 0.6254987
4293.260, -0.6669385
4295.188, 0.6298990
4297.117, -2.3265650E-02
4299.045, 0.2349537
4300.974, 0.3547859
4302.902, 0.5667363
4304.831, 0.2235433
4306.759, 0.7169542
4308.688, 0.5803047
4310.616, 0.9228126
4312.544, 0.9067175
4314.473, 0.7345215
4316.401, 1.046062
4318.330, 0.2832241
4320.258, 0.7502421
4322.187, 0.5161175
4324.115, -1.052348
4326.043, -9.0330862E-02
4327.972, -0.6974112
4329.900, -0.5178077
4331.829, 0.5814673
4333.757, 0.3600262
4335.686, 0.6946667
4337.614, 1.541801
4339.543, 0.2019832
4341.471, 0.8052259
4343.400, 1.102716
4345.328, 4.5617599E-02
4347.257, -0.1156836
4349.185, -0.1900632
4351.114, -0.2162028
4353.042, -0.2991391
4354.971, -0.4279740
4356.899, -1.080508
4358.828, -1.025575
4360.756, 0.1437576
4362.685, -0.9969968
4364.613, -0.3103352
4366.542, 0.3947522
4368.470, -0.5090367
4370.398, -0.7766277
4372.327, -0.1784154
4374.255, 0.3694080
4376.184, 1.109644
4378.112, 8.6006023E-02
##END=



