##NAMES=Lanthanite-(Nd)
##RRUFFID=R060467
##IDEAL CHEMISTRY=Nd_2_(CO_3_)_3_·8H_2_O
##LOCALITY=Curitiba, Parana, Brazil
##OWNER=RRUFF
##SOURCE=Michael Scott
##DESCRIPTION=Pink tabular crystals
##STATUS=The identification of this mineral is confirmed by single-crystal X-ray diffraction and chemical analysis
##URL=https://www.rruff.net/odr/rruff_sample/R060467
##MEASURED CHEMISTRY=(Nd_0.85_La_0.78_Pr_0.22_Sm_0.09_)(CO_3_)_3.04_·8H_2_O
##DIFFRACTION SAMPLE DESCRIPTION=Single crystal, powder profile is calculated
##CELL PARAMETERS=a: 9.492 b: 16.94 c: 8.94 alpha: 90 beta: 90 gamma: 90 volume: 1437.4 crystal system: orthorhombic
##FILETYPE=Raman RAW
##RAMAN WAVELENGTH=785

5.274658e+001, 4.814906e+001
5.467505e+001, 4.526191e+001
5.660351e+001, 4.278354e+001
5.853198e+001, 4.058033e+001
6.046045e+001, 3.928258e+001
6.238891e+001, 3.904318e+001
6.431738e+001, 3.952856e+001
6.624584e+001, 4.178077e+001
6.817431e+001, 4.407180e+001
7.010278e+001, 4.371096e+001
7.203124e+001, 4.005321e+001
7.395971e+001, 3.792262e+001
7.588818e+001, 3.803085e+001
7.781664e+001, 3.900524e+001
7.974511e+001, 4.169974e+001
8.167358e+001, 4.419736e+001
8.360204e+001, 4.431931e+001
8.553051e+001, 4.194777e+001
8.745898e+001, 4.182389e+001
8.938744e+001, 4.609105e+001
9.131591e+001, 4.855853e+001
9.324438e+001, 4.641615e+001
9.517284e+001, 4.436193e+001
9.710131e+001, 4.503970e+001
9.902978e+001, 4.810396e+001
1.009582e+002, 5.225771e+001
1.028867e+002, 5.720087e+001
1.048152e+002, 6.426379e+001
1.067436e+002, 7.206030e+001
1.086721e+002, 8.472861e+001
1.106006e+002, 1.041642e+002
1.125290e+002, 1.292536e+002
1.144575e+002, 1.565327e+002
1.163860e+002, 1.863183e+002
1.183144e+002, 2.310759e+002
1.202429e+002, 2.917711e+002
1.221714e+002, 3.644838e+002
1.240998e+002, 4.569572e+002
1.260283e+002, 5.524119e+002
1.279568e+002, 6.322447e+002
1.298852e+002, 7.069243e+002
1.318137e+002, 8.133588e+002
1.337422e+002, 9.528093e+002
1.356706e+002, 1.091945e+003
1.375991e+002, 1.217266e+003
1.395276e+002, 1.351066e+003
1.414560e+002, 1.507701e+003
1.433845e+002, 1.672653e+003
1.453130e+002, 1.821312e+003
1.472414e+002, 1.958833e+003
1.491699e+002, 2.112925e+003
1.510984e+002, 2.294337e+003
1.530268e+002, 2.473185e+003
1.549553e+002, 2.636557e+003
1.568838e+002, 2.803583e+003
1.588122e+002, 2.983952e+003
1.607407e+002, 3.177593e+003
1.626692e+002, 3.387507e+003
1.645976e+002, 3.616017e+003
1.665261e+002, 3.824722e+003
1.684546e+002, 3.995669e+003
1.703830e+002, 4.169425e+003
1.723115e+002, 4.358186e+003
1.742400e+002, 4.542626e+003
1.761684e+002, 4.710096e+003
1.780969e+002, 4.866546e+003
1.800254e+002, 5.025388e+003
1.819538e+002, 5.194775e+003
1.838823e+002, 5.342403e+003
1.858108e+002, 5.468997e+003
1.877392e+002, 5.573207e+003
1.896677e+002, 5.639340e+003
1.915962e+002, 5.696235e+003
1.935246e+002, 5.774048e+003
1.954531e+002, 5.867875e+003
1.973816e+002, 5.940801e+003
1.993100e+002, 5.989381e+003
2.012385e+002, 6.025911e+003
2.031670e+002, 6.042585e+003
2.050954e+002, 6.067664e+003
2.070239e+002, 6.119092e+003
2.089524e+002, 6.176189e+003
2.108808e+002, 6.220338e+003
2.128093e+002, 6.254841e+003
2.147378e+002, 6.295166e+003
2.166662e+002, 6.340020e+003
2.185947e+002, 6.395018e+003
2.205232e+002, 6.474535e+003
2.224516e+002, 6.542808e+003
2.243801e+002, 6.570132e+003
2.263086e+002, 6.589366e+003
2.282370e+002, 6.644007e+003
2.301655e+002, 6.722792e+003
2.320940e+002, 6.772977e+003
2.340224e+002, 6.791619e+003
2.359509e+002, 6.810508e+003
2.378794e+002, 6.846230e+003
2.398078e+002, 6.863600e+003
2.417363e+002, 6.847958e+003
2.436648e+002, 6.814238e+003
2.455932e+002, 6.783353e+003
2.475217e+002, 6.745685e+003
2.494502e+002, 6.666544e+003
2.513786e+002, 6.534425e+003
2.533071e+002, 6.430054e+003
2.552356e+002, 6.402746e+003
2.571640e+002, 6.351721e+003
2.590925e+002, 6.245142e+003
2.610210e+002, 6.125265e+003
2.629494e+002, 6.018778e+003
2.648779e+002, 5.920473e+003
2.668064e+002, 5.825010e+003
2.687348e+002, 5.733500e+003
2.706633e+002, 5.633563e+003
2.725918e+002, 5.509142e+003
2.745202e+002, 5.399235e+003
2.764487e+002, 5.320433e+003
2.783772e+002, 5.248410e+003
2.803056e+002, 5.170870e+003
2.822341e+002, 5.090909e+003
2.841626e+002, 5.010479e+003
2.860910e+002, 4.926639e+003
2.880195e+002, 4.840030e+003
2.899480e+002, 4.750317e+003
2.918764e+002, 4.675555e+003
2.938049e+002, 4.626069e+003
2.957334e+002, 4.575903e+003
2.976618e+002, 4.515292e+003
2.995903e+002, 4.439772e+003
3.015188e+002, 4.336182e+003
3.034472e+002, 4.221909e+003
3.053757e+002, 4.144083e+003
3.073042e+002, 4.098459e+003
3.092326e+002, 4.046982e+003
3.111611e+002, 3.991138e+003
3.130896e+002, 3.931970e+003
3.150180e+002, 3.869470e+003
3.169465e+002, 3.806018e+003
3.188750e+002, 3.738508e+003
3.208034e+002, 3.668050e+003
3.227319e+002, 3.596931e+003
3.246604e+002, 3.529424e+003
3.265888e+002, 3.474923e+003
3.285173e+002, 3.437353e+003
3.304458e+002, 3.394990e+003
3.323742e+002, 3.332351e+003
3.343027e+002, 3.277886e+003
3.362312e+002, 3.245795e+003
3.381596e+002, 3.217495e+003
3.400881e+002, 3.180831e+003
3.420166e+002, 3.141006e+003
3.439450e+002, 3.106439e+003
3.458735e+002, 3.072882e+003
3.478020e+002, 3.031604e+003
3.497304e+002, 2.982818e+003
3.516589e+002, 2.942129e+003
3.535874e+002, 2.910673e+003
3.555158e+002, 2.878167e+003
3.574443e+002, 2.844360e+003
3.593728e+002, 2.810635e+003
3.613012e+002, 2.775549e+003
3.632297e+002, 2.740400e+003
3.651582e+002, 2.708581e+003
3.670866e+002, 2.676672e+003
3.690151e+002, 2.641541e+003
3.709436e+002, 2.614145e+003
3.728720e+002, 2.587189e+003
3.748005e+002, 2.549084e+003
3.767290e+002, 2.507916e+003
3.786574e+002, 2.472729e+003
3.805859e+002, 2.440753e+003
3.825144e+002, 2.401981e+003
3.844428e+002, 2.362267e+003
3.863713e+002, 2.333679e+003
3.882998e+002, 2.313336e+003
3.902282e+002, 2.288157e+003
3.921567e+002, 2.258442e+003
3.940851e+002, 2.228386e+003
3.960136e+002, 2.196046e+003
3.979421e+002, 2.164323e+003
3.998705e+002, 2.137374e+003
4.017990e+002, 2.107664e+003
4.037275e+002, 2.067624e+003
4.056559e+002, 2.028463e+003
4.075844e+002, 2.000872e+003
4.095129e+002, 1.980020e+003
4.114413e+002, 1.955770e+003
4.133698e+002, 1.927857e+003
4.152983e+002, 1.896467e+003
4.172267e+002, 1.860972e+003
4.191552e+002, 1.836690e+003
4.210837e+002, 1.834600e+003
4.230121e+002, 1.827387e+003
4.249406e+002, 1.804049e+003
4.268691e+002, 1.779871e+003
4.287975e+002, 1.764112e+003
4.307260e+002, 1.753119e+003
4.326545e+002, 1.743161e+003
4.345829e+002, 1.731852e+003
4.365114e+002, 1.715927e+003
4.384399e+002, 1.698708e+003
4.403683e+002, 1.692953e+003
4.422968e+002, 1.703335e+003
4.442253e+002, 1.705343e+003
4.461537e+002, 1.691943e+003
4.480822e+002, 1.683017e+003
4.500107e+002, 1.686102e+003
4.519391e+002, 1.691477e+003
4.538676e+002, 1.693142e+003
4.557961e+002, 1.695430e+003
4.577245e+002, 1.702343e+003
4.596530e+002, 1.708392e+003
4.615815e+002, 1.709135e+003
4.635099e+002, 1.707457e+003
4.654384e+002, 1.705277e+003
4.673669e+002, 1.699448e+003
4.692953e+002, 1.704346e+003
4.712238e+002, 1.728255e+003
4.731523e+002, 1.746245e+003
4.750807e+002, 1.742707e+003
4.770092e+002, 1.740530e+003
4.789377e+002, 1.757545e+003
4.808661e+002, 1.777908e+003
4.827946e+002, 1.781622e+003
4.847231e+002, 1.776855e+003
4.866516e+002, 1.783367e+003
4.885800e+002, 1.800881e+003
4.905085e+002, 1.819646e+003
4.924370e+002, 1.839670e+003
4.943654e+002, 1.857696e+003
4.962939e+002, 1.871307e+003
4.982224e+002, 1.889594e+003
5.001508e+002, 1.922944e+003
5.020793e+002, 1.950123e+003
5.040078e+002, 1.961899e+003
5.059362e+002, 1.967270e+003
5.078647e+002, 1.968409e+003
5.097932e+002, 1.970015e+003
5.117216e+002, 1.979839e+003
5.136501e+002, 1.995540e+003
5.155786e+002, 2.011067e+003
5.175070e+002, 2.025914e+003
5.194355e+002, 2.040172e+003
5.213640e+002, 2.055263e+003
5.232924e+002, 2.064023e+003
5.252209e+002, 2.061211e+003
5.271494e+002, 2.058500e+003
5.290778e+002, 2.058798e+003
5.310063e+002, 2.058322e+003
5.329348e+002, 2.055142e+003
5.348632e+002, 2.049152e+003
5.367917e+002, 2.040209e+003
5.387202e+002, 2.028633e+003
5.406486e+002, 2.018097e+003
5.425771e+002, 2.006846e+003
5.445056e+002, 1.984566e+003
5.464340e+002, 1.950446e+003
5.483625e+002, 1.930225e+003
5.502910e+002, 1.934396e+003
5.522194e+002, 1.923681e+003
5.541479e+002, 1.890071e+003
5.560764e+002, 1.854262e+003
5.580048e+002, 1.822031e+003
5.599333e+002, 1.790392e+003
5.618618e+002, 1.753172e+003
5.637902e+002, 1.717206e+003
5.657187e+002, 1.693436e+003
5.676472e+002, 1.674509e+003
5.695756e+002, 1.646403e+003
5.715041e+002, 1.611744e+003
5.734326e+002, 1.585427e+003
5.753610e+002, 1.569344e+003
5.772895e+002, 1.551751e+003
5.792180e+002, 1.528034e+003
5.811464e+002, 1.499924e+003
5.830749e+002, 1.471399e+003
5.850034e+002, 1.451012e+003
5.869318e+002, 1.437604e+003
5.888603e+002, 1.419662e+003
5.907888e+002, 1.397014e+003
5.927172e+002, 1.376587e+003
5.946457e+002, 1.352018e+003
5.965742e+002, 1.331552e+003
5.985026e+002, 1.330822e+003
6.004311e+002, 1.329846e+003
6.023596e+002, 1.308279e+003
6.042880e+002, 1.279192e+003
6.062165e+002, 1.256563e+003
6.081450e+002, 1.239162e+003
6.100734e+002, 1.229016e+003
6.120019e+002, 1.227135e+003
6.139304e+002, 1.223623e+003
6.158588e+002, 1.215816e+003
6.177873e+002, 1.204106e+003
6.197158e+002, 1.189369e+003
6.216442e+002, 1.174425e+003
6.235727e+002, 1.156821e+003
6.255012e+002, 1.141095e+003
6.274296e+002, 1.130651e+003
6.293581e+002, 1.120155e+003
6.312866e+002, 1.106260e+003
6.332150e+002, 1.090984e+003
6.351435e+002, 1.077739e+003
6.370720e+002, 1.067376e+003
6.390004e+002, 1.055970e+003
6.409289e+002, 1.044474e+003
6.428574e+002, 1.038839e+003
6.447858e+002, 1.038488e+003
6.467143e+002, 1.036437e+003
6.486428e+002, 1.030685e+003
6.505712e+002, 1.019768e+003
6.524997e+002, 1.002635e+003
6.544282e+002, 9.862996e+002
6.563566e+002, 9.739432e+002
6.582851e+002, 9.585457e+002
6.602136e+002, 9.385833e+002
6.621420e+002, 9.260472e+002
6.640705e+002, 9.218280e+002
6.659990e+002, 9.093364e+002
6.679274e+002, 8.856095e+002
6.698559e+002, 8.651635e+002
6.717844e+002, 8.547024e+002
6.737128e+002, 8.479417e+002
6.756413e+002, 8.319520e+002
6.775698e+002, 8.070142e+002
6.794982e+002, 7.860515e+002
6.814267e+002, 7.678453e+002
6.833552e+002, 7.491991e+002
6.852836e+002, 7.370465e+002
6.872121e+002, 7.273514e+002
6.891406e+002, 7.099610e+002
6.910690e+002, 6.924801e+002
6.929975e+002, 6.845444e+002
6.949260e+002, 6.758809e+002
6.968544e+002, 6.579328e+002
6.987829e+002, 6.370244e+002
7.007114e+002, 6.215139e+002
7.026398e+002, 6.132200e+002
7.045683e+002, 6.072758e+002
7.064968e+002, 5.989553e+002
7.084252e+002, 5.901077e+002
7.103537e+002, 5.828068e+002
7.122822e+002, 5.763991e+002
7.142106e+002, 5.720643e+002
7.161391e+002, 5.740237e+002
7.180676e+002, 5.743974e+002
7.199960e+002, 5.621706e+002
7.219245e+002, 5.479061e+002
7.238530e+002, 5.438004e+002
7.257814e+002, 5.442762e+002
7.277099e+002, 5.433660e+002
7.296384e+002, 5.439547e+002
7.315668e+002, 5.480624e+002
7.334953e+002, 5.503687e+002
7.354238e+002, 5.437958e+002
7.373522e+002, 5.369526e+002
7.392807e+002, 5.410377e+002
7.412092e+002, 5.444479e+002
7.431376e+002, 5.379554e+002
7.450661e+002, 5.363302e+002
7.469946e+002, 5.471683e+002
7.489230e+002, 5.569923e+002
7.508515e+002, 5.613048e+002
7.527800e+002, 5.654945e+002
7.547084e+002, 5.653784e+002
7.566369e+002, 5.630524e+002
7.585654e+002, 5.671135e+002
7.604938e+002, 5.697916e+002
7.624222e+002, 5.640312e+002
7.643507e+002, 5.578610e+002
7.662792e+002, 5.558316e+002
7.682076e+002, 5.527511e+002
7.701361e+002, 5.490706e+002
7.720646e+002, 5.494669e+002
7.739930e+002, 5.503068e+002
7.759215e+002, 5.476339e+002
7.778500e+002, 5.424833e+002
7.797784e+002, 5.400117e+002
7.817069e+002, 5.462122e+002
7.836354e+002, 5.527566e+002
7.855638e+002, 5.545183e+002
7.874923e+002, 5.558857e+002
7.894208e+002, 5.571832e+002
7.913492e+002, 5.627228e+002
7.932777e+002, 5.710136e+002
7.952062e+002, 5.744059e+002
7.971346e+002, 5.731175e+002
7.990631e+002, 5.723007e+002
8.009916e+002, 5.768983e+002
8.029200e+002, 5.848054e+002
8.048485e+002, 5.919921e+002
8.067770e+002, 5.980923e+002
8.087054e+002, 6.038353e+002
8.106339e+002, 6.132106e+002
8.125624e+002, 6.274522e+002
8.144908e+002, 6.406453e+002
8.164193e+002, 6.505559e+002
8.183478e+002, 6.612026e+002
8.202762e+002, 6.670491e+002
8.222047e+002, 6.645583e+002
8.241332e+002, 6.677639e+002
8.260616e+002, 6.820202e+002
8.279901e+002, 6.969719e+002
8.299186e+002, 7.078704e+002
8.318470e+002, 7.125594e+002
8.337755e+002, 7.127554e+002
8.357040e+002, 7.212552e+002
8.376324e+002, 7.386425e+002
8.395609e+002, 7.501072e+002
8.414894e+002, 7.565110e+002
8.434178e+002, 7.674581e+002
8.453463e+002, 7.808003e+002
8.472748e+002, 7.891442e+002
8.492032e+002, 7.914866e+002
8.511317e+002, 8.018163e+002
8.530602e+002, 8.250414e+002
8.549886e+002, 8.438989e+002
8.569171e+002, 8.513910e+002
8.588456e+002, 8.625399e+002
8.607740e+002, 8.843259e+002
8.627025e+002, 9.020919e+002
8.646310e+002, 9.072004e+002
8.665594e+002, 9.122072e+002
8.684879e+002, 9.303149e+002
8.704164e+002, 9.589310e+002
8.723448e+002, 9.832964e+002
8.742733e+002, 9.969638e+002
8.762018e+002, 1.013684e+003
8.781302e+002, 1.044750e+003
8.800587e+002, 1.075823e+003
8.819872e+002, 1.088819e+003
8.839156e+002, 1.098019e+003
8.858441e+002, 1.120845e+003
8.877726e+002, 1.147281e+003
8.897010e+002, 1.170212e+003
8.916295e+002, 1.189132e+003
8.935580e+002, 1.206934e+003
8.954865e+002, 1.230448e+003
8.974149e+002, 1.258334e+003
8.993434e+002, 1.286589e+003
9.012719e+002, 1.311561e+003
9.032003e+002, 1.330464e+003
9.051288e+002, 1.353107e+003
9.070573e+002, 1.392339e+003
9.089857e+002, 1.438371e+003
9.109142e+002, 1.472764e+003
9.128427e+002, 1.497752e+003
9.147711e+002, 1.523848e+003
9.166996e+002, 1.552529e+003
9.186281e+002, 1.581461e+003
9.205565e+002, 1.613706e+003
9.224850e+002, 1.650860e+003
9.244135e+002, 1.688126e+003
9.263419e+002, 1.733639e+003
9.282704e+002, 1.789224e+003
9.301989e+002, 1.826794e+003
9.321273e+002, 1.842761e+003
9.340558e+002, 1.871141e+003
9.359843e+002, 1.918197e+003
9.379127e+002, 1.966412e+003
9.398412e+002, 2.012396e+003
9.417697e+002, 2.054211e+003
9.436981e+002, 2.092304e+003
9.456266e+002, 2.134360e+003
9.475551e+002, 2.181106e+003
9.494835e+002, 2.225493e+003
9.514120e+002, 2.266075e+003
9.533405e+002, 2.311585e+003
9.552689e+002, 2.364427e+003
9.571974e+002, 2.425840e+003
9.591259e+002, 2.491229e+003
9.610543e+002, 2.550546e+003
9.629828e+002, 2.608014e+003
9.649113e+002, 2.663684e+003
9.668397e+002, 2.716016e+003
9.687682e+002, 2.769249e+003
9.706967e+002, 2.825241e+003
9.726251e+002, 2.896468e+003
9.745536e+002, 2.979443e+003
9.764821e+002, 3.053067e+003
9.784105e+002, 3.120392e+003
9.803390e+002, 3.189480e+003
9.822675e+002, 3.259968e+003
9.841959e+002, 3.338013e+003
9.861244e+002, 3.424175e+003
9.880529e+002, 3.520668e+003
9.899813e+002, 3.622970e+003
9.919098e+002, 3.711074e+003
9.938383e+002, 3.788817e+003
9.957667e+002, 3.867851e+003
9.976952e+002, 3.951817e+003
9.996237e+002, 4.054034e+003
1.001552e+003, 4.171706e+003
1.003481e+003, 4.303068e+003
1.005409e+003, 4.439402e+003
1.007338e+003, 4.547756e+003
1.009266e+003, 4.640410e+003
1.011194e+003, 4.752689e+003
1.013123e+003, 4.880437e+003
1.015051e+003, 5.009035e+003
1.016980e+003, 5.141520e+003
1.018908e+003, 5.294214e+003
1.020837e+003, 5.459121e+003
1.022765e+003, 5.612384e+003
1.024694e+003, 5.759169e+003
1.026622e+003, 5.910691e+003
1.028551e+003, 6.069183e+003
1.030479e+003, 6.235230e+003
1.032408e+003, 6.418515e+003
1.034336e+003, 6.632509e+003
1.036265e+003, 6.858690e+003
1.038193e+003, 7.075686e+003
1.040121e+003, 7.298296e+003
1.042050e+003, 7.548873e+003
1.043978e+003, 7.804028e+003
1.045907e+003, 8.026257e+003
1.047835e+003, 8.254860e+003
1.049764e+003, 8.529099e+003
1.051692e+003, 8.848390e+003
1.053621e+003, 9.208547e+003
1.055549e+003, 9.582219e+003
1.057478e+003, 9.953941e+003
1.059406e+003, 1.033316e+004
1.061335e+003, 1.072006e+004
1.063263e+003, 1.114904e+004
1.065192e+003, 1.162679e+004
1.067120e+003, 1.214077e+004
1.069048e+003, 1.269788e+004
1.070977e+003, 1.328416e+004
1.072905e+003, 1.388973e+004
1.074834e+003, 1.453776e+004
1.076762e+003, 1.522953e+004
1.078691e+003, 1.596816e+004
1.080619e+003, 1.676180e+004
1.082548e+003, 1.757956e+004
1.084476e+003, 1.841096e+004
1.086405e+003, 1.926439e+004
1.088333e+003, 2.014710e+004
1.090262e+003, 2.110370e+004
1.092190e+003, 2.214627e+004
1.094119e+003, 2.317306e+004
1.096047e+003, 2.415943e+004
1.097975e+003, 2.515550e+004
1.099904e+003, 2.618116e+004
1.101832e+003, 2.721848e+004
1.103761e+003, 2.825105e+004
1.105689e+003, 2.927804e+004
1.107618e+003, 3.030677e+004
1.109546e+003, 3.122777e+004
1.111475e+003, 3.204726e+004
1.113403e+003, 3.283002e+004
1.115332e+003, 3.356968e+004
1.117260e+003, 3.423296e+004
1.119189e+003, 3.478882e+004
1.121117e+003, 3.531762e+004
1.123046e+003, 3.582629e+004
1.124974e+003, 3.620054e+004
1.126902e+003, 3.646664e+004
1.128831e+003, 3.669339e+004
1.130759e+003, 3.684312e+004
1.132688e+003, 3.686354e+004
1.134616e+003, 3.683775e+004
1.136545e+003, 3.684314e+004
1.138473e+003, 3.684802e+004
1.140402e+003, 3.679245e+004
1.142330e+003, 3.672027e+004
1.144259e+003, 3.669316e+004
1.146187e+003, 3.669134e+004
1.148116e+003, 3.670028e+004
1.150044e+003, 3.675283e+004
1.151973e+003, 3.684201e+004
1.153901e+003, 3.698704e+004
1.155829e+003, 3.718921e+004
1.157758e+003, 3.737304e+004
1.159686e+003, 3.753741e+004
1.161615e+003, 3.776822e+004
1.163543e+003, 3.806691e+004
1.165472e+003, 3.844136e+004
1.167400e+003, 3.889671e+004
1.169329e+003, 3.929201e+004
1.171257e+003, 3.962949e+004
1.173186e+003, 4.006909e+004
1.175114e+003, 4.060218e+004
1.177043e+003, 4.119538e+004
1.178971e+003, 4.187945e+004
1.180900e+003, 4.266585e+004
1.182828e+003, 4.357071e+004
1.184756e+003, 4.460199e+004
1.186685e+003, 4.576254e+004
1.188613e+003, 4.710778e+004
1.190542e+003, 4.862919e+004
1.192470e+003, 5.023043e+004
1.194399e+003, 5.194121e+004
1.196327e+003, 5.387266e+004
1.198256e+003, 5.596487e+004
1.200184e+003, 5.817006e+004
1.202113e+003, 6.035723e+004
1.204041e+003, 6.245891e+004
1.205970e+003, 6.458491e+004
1.207898e+003, 6.678029e+004
1.209827e+003, 6.883338e+004
1.211755e+003, 7.069114e+004
1.213683e+003, 7.237695e+004
1.215612e+003, 7.382455e+004
1.217540e+003, 7.491127e+004
1.219469e+003, 7.573655e+004
1.221397e+003, 7.613197e+004
1.223326e+003, 7.613292e+004
1.225254e+003, 7.588084e+004
1.227183e+003, 7.539182e+004
1.229111e+003, 7.466279e+004
1.231040e+003, 7.370333e+004
1.232968e+003, 7.263414e+004
1.234897e+003, 7.143880e+004
1.236825e+003, 7.014197e+004
1.238754e+003, 6.882253e+004
1.240682e+003, 6.750323e+004
1.242610e+003, 6.631685e+004
1.244539e+003, 6.533773e+004
1.246467e+003, 6.455876e+004
1.248396e+003, 6.404670e+004
1.250324e+003, 6.367956e+004
1.252253e+003, 6.336374e+004
1.254181e+003, 6.316439e+004
1.256110e+003, 6.312563e+004
1.258038e+003, 6.314892e+004
1.259967e+003, 6.329146e+004
1.261895e+003, 6.331919e+004
1.263824e+003, 6.319759e+004
1.265752e+003, 6.299960e+004
1.267681e+003, 6.272074e+004
1.269609e+003, 6.223120e+004
1.271537e+003, 6.154356e+004
1.273466e+003, 6.077520e+004
1.275394e+003, 5.984421e+004
1.277323e+003, 5.856479e+004
1.279251e+003, 5.714366e+004
1.281180e+003, 5.572107e+004
1.283108e+003, 5.424445e+004
1.285037e+003, 5.269045e+004
1.286965e+003, 5.112950e+004
1.288894e+003, 4.956480e+004
1.290822e+003, 4.808768e+004
1.292751e+003, 4.672988e+004
1.294679e+003, 4.543063e+004
1.296608e+003, 4.418365e+004
1.298536e+003, 4.299604e+004
1.300464e+003, 4.186368e+004
1.302393e+003, 4.086715e+004
1.304321e+003, 3.999379e+004
1.306250e+003, 3.914007e+004
1.308178e+003, 3.833694e+004
1.310107e+003, 3.770343e+004
1.312035e+003, 3.714267e+004
1.313964e+003, 3.655454e+004
1.315892e+003, 3.597824e+004
1.317821e+003, 3.541328e+004
1.319749e+003, 3.487612e+004
1.321678e+003, 3.436972e+004
1.323606e+003, 3.397989e+004
1.325535e+003, 3.373416e+004
1.327463e+003, 3.341557e+004
1.329391e+003, 3.300609e+004
1.331320e+003, 3.267627e+004
1.333248e+003, 3.241913e+004
1.335177e+003, 3.217108e+004
1.337105e+003, 3.191421e+004
1.339034e+003, 3.154610e+004
1.340962e+003, 3.117715e+004
1.342891e+003, 3.098202e+004
1.344819e+003, 3.082052e+004
1.346748e+003, 3.061189e+004
1.348676e+003, 3.037262e+004
1.350605e+003, 3.009063e+004
1.352533e+003, 2.979586e+004
1.354462e+003, 2.949027e+004
1.356390e+003, 2.924979e+004
1.358318e+003, 2.907680e+004
1.360247e+003, 2.888569e+004
1.362175e+003, 2.866509e+004
1.364104e+003, 2.837314e+004
1.366032e+003, 2.805927e+004
1.367961e+003, 2.781468e+004
1.369889e+003, 2.759079e+004
1.371818e+003, 2.732580e+004
1.373746e+003, 2.708988e+004
1.375675e+003, 2.692873e+004
1.377603e+003, 2.679570e+004
1.379532e+003, 2.669083e+004
1.381460e+003, 2.658456e+004
1.383389e+003, 2.647795e+004
1.385317e+003, 2.632765e+004
1.387245e+003, 2.613696e+004
1.389174e+003, 2.594982e+004
1.391102e+003, 2.575961e+004
1.393031e+003, 2.554650e+004
1.394959e+003, 2.532085e+004
1.396888e+003, 2.509204e+004
1.398816e+003, 2.486349e+004
1.400745e+003, 2.465471e+004
1.402673e+003, 2.441441e+004
1.404602e+003, 2.411865e+004
1.406530e+003, 2.380091e+004
1.408459e+003, 2.345510e+004
1.410387e+003, 2.314118e+004
1.412316e+003, 2.285344e+004
1.414244e+003, 2.251278e+004
1.416172e+003, 2.213178e+004
1.418101e+003, 2.172408e+004
1.420029e+003, 2.131712e+004
1.421958e+003, 2.093741e+004
1.423886e+003, 2.056547e+004
1.425815e+003, 2.019304e+004
1.427743e+003, 1.981957e+004
1.429672e+003, 1.943253e+004
1.431600e+003, 1.908397e+004
1.433529e+003, 1.877980e+004
1.435457e+003, 1.847022e+004
1.437386e+003, 1.816106e+004
1.439314e+003, 1.789006e+004
1.441243e+003, 1.763037e+004
1.443171e+003, 1.732364e+004
1.445099e+003, 1.703312e+004
1.447028e+003, 1.680929e+004
1.448956e+003, 1.658666e+004
1.450885e+003, 1.633646e+004
1.452813e+003, 1.610139e+004
1.454742e+003, 1.588391e+004
1.456670e+003, 1.573294e+004
1.458599e+003, 1.563680e+004
1.460527e+003, 1.551335e+004
1.462456e+003, 1.538547e+004
1.464384e+003, 1.528391e+004
1.466313e+003, 1.521926e+004
1.468241e+003, 1.522966e+004
1.470170e+003, 1.520952e+004
1.472098e+003, 1.511146e+004
1.474026e+003, 1.502866e+004
1.475955e+003, 1.497579e+004
1.477883e+003, 1.498972e+004
1.479812e+003, 1.505128e+004
1.481740e+003, 1.501819e+004
1.483669e+003, 1.497743e+004
1.485597e+003, 1.510348e+004
1.487526e+003, 1.526623e+004
1.489454e+003, 1.536330e+004
1.491383e+003, 1.547415e+004
1.493311e+003, 1.562282e+004
1.495240e+003, 1.575903e+004
1.497168e+003, 1.587840e+004
1.499097e+003, 1.607741e+004
1.501025e+003, 1.633181e+004
1.502953e+003, 1.652903e+004
1.504882e+003, 1.673060e+004
1.506810e+003, 1.703282e+004
1.508739e+003, 1.735142e+004
1.510667e+003, 1.760938e+004
1.512596e+003, 1.793470e+004
1.514524e+003, 1.835350e+004
1.516453e+003, 1.878578e+004
1.518381e+003, 1.923353e+004
1.520310e+003, 1.978184e+004
1.522238e+003, 2.038554e+004
1.524167e+003, 2.092993e+004
1.526095e+003, 2.151688e+004
1.528023e+003, 2.225157e+004
1.529952e+003, 2.302821e+004
1.531880e+003, 2.381855e+004
1.533809e+003, 2.462128e+004
1.535737e+003, 2.543766e+004
1.537666e+003, 2.629228e+004
1.539594e+003, 2.717053e+004
1.541523e+003, 2.804144e+004
1.543451e+003, 2.888941e+004
1.545380e+003, 2.968593e+004
1.547308e+003, 3.047620e+004
1.549237e+003, 3.134083e+004
1.551165e+003, 3.206348e+004
1.553094e+003, 3.261341e+004
1.555022e+003, 3.313630e+004
1.556950e+003, 3.363243e+004
1.558879e+003, 3.412973e+004
1.560807e+003, 3.453048e+004
1.562736e+003, 3.470347e+004
1.564664e+003, 3.477477e+004
1.566593e+003, 3.479659e+004
1.568521e+003, 3.475774e+004
1.570450e+003, 3.466332e+004
1.572378e+003, 3.448494e+004
1.574307e+003, 3.422124e+004
1.576235e+003, 3.384454e+004
1.578164e+003, 3.340209e+004
1.580092e+003, 3.294187e+004
1.582021e+003, 3.246000e+004
1.583949e+003, 3.196564e+004
1.585877e+003, 3.141243e+004
1.587806e+003, 3.078130e+004
1.589734e+003, 3.019437e+004
1.591663e+003, 2.961398e+004
1.593591e+003, 2.886958e+004
1.595520e+003, 2.806845e+004
1.597448e+003, 2.731913e+004
1.599377e+003, 2.655691e+004
1.601305e+003, 2.574234e+004
1.603234e+003, 2.496973e+004
1.605162e+003, 2.425385e+004
1.607091e+003, 2.358791e+004
1.609019e+003, 2.295457e+004
1.610948e+003, 2.227660e+004
1.612876e+003, 2.165496e+004
1.614804e+003, 2.118024e+004
1.616733e+003, 2.073625e+004
1.618661e+003, 2.028554e+004
1.620590e+003, 1.989749e+004
1.622518e+003, 1.958191e+004
1.624447e+003, 1.936124e+004
1.626375e+003, 1.920721e+004
1.628304e+003, 1.906878e+004
1.630232e+003, 1.898812e+004
1.632161e+003, 1.899729e+004
1.634089e+003, 1.900115e+004
1.636018e+003, 1.898232e+004
1.637946e+003, 1.907134e+004
1.639875e+003, 1.923930e+004
1.641803e+003, 1.937921e+004
1.643731e+003, 1.954007e+004
1.645660e+003, 1.980172e+004
1.647588e+003, 2.003432e+004
1.649517e+003, 2.019674e+004
1.651445e+003, 2.038680e+004
1.653374e+003, 2.061713e+004
1.655302e+003, 2.091247e+004
1.657231e+003, 2.122597e+004
1.659159e+003, 2.146225e+004
1.661088e+003, 2.173754e+004
1.663016e+003, 2.215865e+004
1.664945e+003, 2.246233e+004
1.666873e+003, 2.262946e+004
1.668802e+003, 2.286949e+004
1.670730e+003, 2.315527e+004
1.672658e+003, 2.343109e+004
1.674587e+003, 2.367392e+004
1.676515e+003, 2.387903e+004
1.678444e+003, 2.401819e+004
1.680372e+003, 2.409050e+004
1.682301e+003, 2.406891e+004
1.684229e+003, 2.396779e+004
1.686158e+003, 2.382616e+004
1.688086e+003, 2.365361e+004
1.690015e+003, 2.346944e+004
1.691943e+003, 2.323347e+004
1.693872e+003, 2.294864e+004
1.695800e+003, 2.253392e+004
1.697729e+003, 2.201511e+004
1.699657e+003, 2.153250e+004
1.701585e+003, 2.102170e+004
1.703514e+003, 2.038627e+004
1.705442e+003, 1.975509e+004
1.707371e+003, 1.921215e+004
1.709299e+003, 1.855803e+004
1.711228e+003, 1.781339e+004
1.713156e+003, 1.717249e+004
1.715085e+003, 1.657649e+004
1.717013e+003, 1.597978e+004
1.718942e+003, 1.535445e+004
1.720870e+003, 1.467924e+004
1.722799e+003, 1.399696e+004
1.724727e+003, 1.331795e+004
1.726656e+003, 1.270165e+004
1.728584e+003, 1.215512e+004
1.730512e+003, 1.170889e+004
1.732441e+003, 1.126372e+004
1.734369e+003, 1.078023e+004
1.736298e+003, 1.029292e+004
1.738226e+003, 9.816946e+003
1.740155e+003, 9.447771e+003
1.742083e+003, 9.126675e+003
1.744012e+003, 8.781303e+003
1.745940e+003, 8.484378e+003
1.747869e+003, 8.270702e+003
1.749797e+003, 8.007978e+003
1.751726e+003, 7.709688e+003
1.753654e+003, 7.468445e+003
1.755583e+003, 7.259490e+003
1.757511e+003, 7.067130e+003
1.759439e+003, 6.876266e+003
1.761368e+003, 6.682396e+003
1.763296e+003, 6.507446e+003
1.765225e+003, 6.349851e+003
1.767153e+003, 6.210985e+003
1.769082e+003, 6.072462e+003
1.771010e+003, 5.919830e+003
1.772939e+003, 5.763620e+003
1.774867e+003, 5.606634e+003
1.776796e+003, 5.498686e+003
1.778724e+003, 5.411256e+003
1.780653e+003, 5.270748e+003
1.782581e+003, 5.152725e+003
1.784510e+003, 5.110709e+003
1.786438e+003, 5.022558e+003
1.788366e+003, 4.882082e+003
1.790295e+003, 4.755323e+003
1.792223e+003, 4.649965e+003
1.794152e+003, 4.597480e+003
1.796080e+003, 4.516800e+003
1.798009e+003, 4.373648e+003
1.799937e+003, 4.297533e+003
1.801866e+003, 4.273418e+003
1.803794e+003, 4.219768e+003
1.805723e+003, 4.142883e+003
1.807651e+003, 4.023043e+003
1.809580e+003, 3.948114e+003
1.811508e+003, 3.930616e+003
1.813437e+003, 3.868202e+003
1.815365e+003, 3.779016e+003
1.817293e+003, 3.693292e+003
1.819222e+003, 3.620081e+003
1.821150e+003, 3.576275e+003
1.823079e+003, 3.513920e+003
1.825007e+003, 3.437596e+003
1.826936e+003, 3.407425e+003
1.828864e+003, 3.381375e+003
1.830793e+003, 3.314104e+003
1.832721e+003, 3.244714e+003
1.834650e+003, 3.181901e+003
1.836578e+003, 3.118540e+003
1.838507e+003, 3.061037e+003
1.840435e+003, 3.030404e+003
1.842364e+003, 3.000791e+003
1.844292e+003, 2.969244e+003
1.846220e+003, 2.899128e+003
1.848149e+003, 2.799208e+003
1.850077e+003, 2.770208e+003
1.852006e+003, 2.763412e+003
1.853934e+003, 2.741502e+003
1.855863e+003, 2.706527e+003
1.857791e+003, 2.657344e+003
1.859720e+003, 2.616963e+003
1.861648e+003, 2.578572e+003
1.863577e+003, 2.522252e+003
1.865505e+003, 2.462836e+003
1.867434e+003, 2.404281e+003
1.869362e+003, 2.358473e+003
1.871291e+003, 2.325243e+003
1.873219e+003, 2.305601e+003
1.875147e+003, 2.275428e+003
1.877076e+003, 2.213586e+003
1.879004e+003, 2.175394e+003
1.880933e+003, 2.166153e+003
1.882861e+003, 2.130357e+003
1.884790e+003, 2.090345e+003
1.886718e+003, 2.071147e+003
1.888647e+003, 2.040849e+003
1.890575e+003, 1.995066e+003
1.892504e+003, 1.963726e+003
1.894432e+003, 1.933517e+003
1.896361e+003, 1.883187e+003
1.898289e+003, 1.836135e+003
1.900218e+003, 1.796247e+003
1.902146e+003, 1.775391e+003
1.904074e+003, 1.766125e+003
1.906003e+003, 1.746795e+003
1.907931e+003, 1.721091e+003
1.909860e+003, 1.689082e+003
1.911788e+003, 1.651333e+003
1.913717e+003, 1.611307e+003
1.915645e+003, 1.573120e+003
1.917574e+003, 1.541683e+003
1.919502e+003, 1.530466e+003
1.921431e+003, 1.499713e+003
1.923359e+003, 1.450673e+003
1.925288e+003, 1.431258e+003
1.927216e+003, 1.420173e+003
1.929145e+003, 1.392307e+003
1.931073e+003, 1.359840e+003
1.933001e+003, 1.324704e+003
1.934930e+003, 1.302371e+003
1.936858e+003, 1.287302e+003
1.938787e+003, 1.271913e+003
1.940715e+003, 1.262517e+003
1.942644e+003, 1.260246e+003
1.944572e+003, 1.229431e+003
1.946501e+003, 1.188143e+003
1.948429e+003, 1.169084e+003
1.950358e+003, 1.152396e+003
1.952286e+003, 1.128261e+003
1.954215e+003, 1.105614e+003
1.956143e+003, 1.091413e+003
1.958072e+003, 1.100834e+003
1.960000e+003, 1.096279e+003
1.961928e+003, 1.052529e+003
1.963857e+003, 1.034966e+003
1.965785e+003, 1.030767e+003
1.967714e+003, 1.014036e+003
1.969642e+003, 9.950686e+002
1.971571e+003, 9.745211e+002
1.973499e+003, 9.570013e+002
1.975428e+003, 9.404185e+002
1.977356e+003, 9.153176e+002
1.979285e+003, 8.987466e+002
1.981213e+003, 8.979638e+002
1.983142e+003, 8.857979e+002
1.985070e+003, 8.685314e+002
1.986999e+003, 8.589302e+002
1.988927e+003, 8.482080e+002
1.990855e+003, 8.350930e+002
1.992784e+003, 8.171141e+002
1.994712e+003, 7.992277e+002
1.996641e+003, 7.963568e+002
1.998569e+003, 7.897128e+002
2.000498e+003, 7.740057e+002
2.002426e+003, 7.560646e+002
2.004355e+003, 7.379261e+002
2.006283e+003, 7.247093e+002
2.008212e+003, 7.131871e+002
2.010140e+003, 7.038638e+002
2.012069e+003, 6.905503e+002
2.013997e+003, 6.737336e+002
2.015926e+003, 6.512623e+002
2.017854e+003, 6.427794e+002
2.019782e+003, 6.537069e+002
2.021711e+003, 6.464352e+002
2.023639e+003, 6.299008e+002
2.025568e+003, 6.165339e+002
2.027496e+003, 6.093843e+002
2.029425e+003, 6.085139e+002
2.031353e+003, 5.936187e+002
2.033282e+003, 5.734651e+002
2.035210e+003, 5.584385e+002
2.037139e+003, 5.489899e+002
2.039067e+003, 5.435128e+002
2.040996e+003, 5.384452e+002
2.042924e+003, 5.331476e+002
2.044853e+003, 5.235922e+002
2.046781e+003, 5.123187e+002
2.048709e+003, 5.005430e+002
2.050638e+003, 4.973396e+002
2.052566e+003, 4.965803e+002
2.054495e+003, 4.957163e+002
2.056423e+003, 4.866902e+002
2.058352e+003, 4.713814e+002
2.060280e+003, 4.619224e+002
2.062209e+003, 4.546002e+002
2.064137e+003, 4.478941e+002
2.066066e+003, 4.366434e+002
2.067994e+003, 4.258032e+002
2.069923e+003, 4.309746e+002
2.071851e+003, 4.327549e+002
2.073780e+003, 4.218716e+002
2.075708e+003, 4.118841e+002
2.077636e+003, 4.049136e+002
2.079565e+003, 4.064297e+002
2.081493e+003, 4.044947e+002
2.083422e+003, 3.958548e+002
2.085350e+003, 3.976287e+002
2.087279e+003, 3.997260e+002
2.089207e+003, 3.924899e+002
2.091136e+003, 3.836772e+002
2.093064e+003, 3.753188e+002
2.094993e+003, 3.742078e+002
2.096921e+003, 3.771637e+002
2.098850e+003, 3.840625e+002
2.100778e+003, 3.821079e+002
2.102707e+003, 3.740576e+002
2.104635e+003, 3.681939e+002
2.106563e+003, 3.618819e+002
2.108492e+003, 3.543184e+002
2.110420e+003, 3.570604e+002
2.112349e+003, 3.622733e+002
2.114277e+003, 3.586307e+002
2.116206e+003, 3.617884e+002
2.118134e+003, 3.732240e+002
2.120063e+003, 3.788553e+002
2.121991e+003, 3.775377e+002
2.123920e+003, 3.665321e+002
2.125848e+003, 3.664993e+002
2.127777e+003, 3.729654e+002
2.129705e+003, 3.609093e+002
2.131634e+003, 3.556308e+002
2.133562e+003, 3.658751e+002
2.135490e+003, 3.732193e+002
2.137419e+003, 3.775220e+002
2.139347e+003, 3.806706e+002
2.141276e+003, 3.811679e+002
2.143204e+003, 3.807513e+002
2.145133e+003, 3.835779e+002
2.147061e+003, 3.873646e+002
2.148990e+003, 3.930275e+002
2.150918e+003, 3.940410e+002
2.152847e+003, 3.910294e+002
2.154775e+003, 3.864101e+002
2.156704e+003, 3.827965e+002
2.158632e+003, 3.827730e+002
2.160561e+003, 3.865999e+002
2.162489e+003, 3.877553e+002
2.164417e+003, 3.799534e+002
2.166346e+003, 3.767591e+002
2.168274e+003, 3.755573e+002
2.170203e+003, 3.666825e+002
2.172131e+003, 3.608356e+002
2.174060e+003, 3.606092e+002
2.175988e+003, 3.632242e+002
2.177917e+003, 3.657548e+002
2.179845e+003, 3.612237e+002
2.181774e+003, 3.618758e+002
2.183702e+003, 3.699076e+002
2.185631e+003, 3.712911e+002
2.187559e+003, 3.707111e+002
2.189488e+003, 3.736940e+002
2.191416e+003, 3.637873e+002
2.193344e+003, 3.555925e+002
2.195273e+003, 3.608717e+002
2.197201e+003, 3.678036e+002
2.199130e+003, 3.755477e+002
2.201058e+003, 3.729627e+002
2.202987e+003, 3.661138e+002
2.204915e+003, 3.550616e+002
2.206844e+003, 3.512870e+002
2.208772e+003, 3.518889e+002
2.210701e+003, 3.531232e+002
2.212629e+003, 3.543890e+002
2.214558e+003, 3.567264e+002
2.216486e+003, 3.586579e+002
2.218415e+003, 3.608004e+002
2.220343e+003, 3.627145e+002
2.222271e+003, 3.608517e+002
2.224200e+003, 3.610163e+002
2.226128e+003, 3.628020e+002
2.228057e+003, 3.641454e+002
2.229985e+003, 3.635138e+002
2.231914e+003, 3.657556e+002
2.233842e+003, 3.720490e+002
2.235771e+003, 3.740224e+002
2.237699e+003, 3.664265e+002
2.239628e+003, 3.641750e+002
2.241556e+003, 3.747048e+002
2.243485e+003, 3.751415e+002
2.245413e+003, 3.699182e+002
2.247342e+003, 3.713160e+002
2.249270e+003, 3.711791e+002
2.251198e+003, 3.723940e+002
2.253127e+003, 3.661060e+002
2.255055e+003, 3.577835e+002
2.256984e+003, 3.621290e+002
2.258912e+003, 3.691337e+002
2.260841e+003, 3.660898e+002
2.262769e+003, 3.526638e+002
2.264698e+003, 3.472314e+002
2.266626e+003, 3.501021e+002
2.268555e+003, 3.519102e+002
2.270483e+003, 3.484710e+002
2.272412e+003, 3.417130e+002
2.274340e+003, 3.458155e+002
2.276269e+003, 3.540201e+002
2.278197e+003, 3.458723e+002
2.280125e+003, 3.298905e+002
2.282054e+003, 3.230039e+002
2.283982e+003, 3.368002e+002
2.285911e+003, 3.370166e+002
2.287839e+003, 3.284362e+002
2.289768e+003, 3.270616e+002
2.291696e+003, 3.263908e+002
2.293625e+003, 3.252861e+002
2.295553e+003, 3.199356e+002
2.297482e+003, 3.227733e+002
2.299410e+003, 3.306142e+002
2.301339e+003, 3.168822e+002
2.303267e+003, 3.026064e+002
2.305196e+003, 3.056592e+002
2.307124e+003, 3.067483e+002
2.309052e+003, 3.039501e+002
2.310981e+003, 2.982700e+002
2.312909e+003, 2.976001e+002
2.314838e+003, 3.025986e+002
2.316766e+003, 2.947343e+002
2.318695e+003, 2.915535e+002
2.320623e+003, 2.979013e+002
2.322552e+003, 2.965151e+002
2.324480e+003, 2.872536e+002
2.326409e+003, 2.778324e+002
2.328337e+003, 2.756544e+002
2.330266e+003, 2.779883e+002
2.332194e+003, 2.807350e+002
2.334123e+003, 2.822227e+002
2.336051e+003, 2.840293e+002
2.337979e+003, 2.808779e+002
2.339908e+003, 2.764956e+002
2.341836e+003, 2.671721e+002
2.343765e+003, 2.629195e+002
2.345693e+003, 2.647388e+002
2.347622e+003, 2.631788e+002
2.349550e+003, 2.605865e+002
2.351479e+003, 2.617439e+002
2.353407e+003, 2.553273e+002
2.355336e+003, 2.554678e+002
2.357264e+003, 2.592756e+002
2.359193e+003, 2.500607e+002
2.361121e+003, 2.454640e+002
2.363050e+003, 2.444359e+002
2.364978e+003, 2.434058e+002
2.366906e+003, 2.404509e+002
2.368835e+003, 2.363139e+002
2.370763e+003, 2.329758e+002
2.372692e+003, 2.299385e+002
2.374620e+003, 2.312377e+002
2.376549e+003, 2.361475e+002
2.378477e+003, 2.371192e+002
2.380406e+003, 2.340457e+002
2.382334e+003, 2.260886e+002
2.384263e+003, 2.155368e+002
2.386191e+003, 2.082635e+002
2.388120e+003, 2.133925e+002
2.390048e+003, 2.164484e+002
2.391977e+003, 2.115012e+002
2.393905e+003, 2.128263e+002
2.395833e+003, 2.105458e+002
2.397762e+003, 2.070775e+002
2.399690e+003, 2.094123e+002
2.401619e+003, 2.088286e+002
2.403547e+003, 2.029522e+002
2.405476e+003, 1.971535e+002
2.407404e+003, 1.947888e+002
2.409333e+003, 1.901332e+002
2.411261e+003, 1.876236e+002
2.413190e+003, 1.883536e+002
2.415118e+003, 1.843458e+002
2.417047e+003, 1.799002e+002
2.418975e+003, 1.791158e+002
2.420904e+003, 1.849406e+002
2.422832e+003, 1.842300e+002
2.424760e+003, 1.783033e+002
2.426689e+003, 1.767004e+002
2.428617e+003, 1.816684e+002
2.430546e+003, 1.858592e+002
2.432474e+003, 1.782418e+002
2.434403e+003, 1.708985e+002
2.436331e+003, 1.722499e+002
2.438260e+003, 1.702016e+002
2.440188e+003, 1.655275e+002
2.442117e+003, 1.631198e+002
2.444045e+003, 1.649142e+002
2.445974e+003, 1.687574e+002
2.447902e+003, 1.663018e+002
2.449831e+003, 1.637671e+002
2.451759e+003, 1.581038e+002
2.453688e+003, 1.534168e+002
2.455616e+003, 1.514657e+002
2.457544e+003, 1.510935e+002
2.459473e+003, 1.491755e+002
2.461401e+003, 1.501595e+002
2.463330e+003, 1.563929e+002
2.465258e+003, 1.488201e+002
2.467187e+003, 1.450065e+002
2.469115e+003, 1.480227e+002
2.471044e+003, 1.500105e+002
2.472972e+003, 1.455943e+002
2.474901e+003, 1.380267e+002
2.476829e+003, 1.410192e+002
2.478758e+003, 1.401922e+002
2.480686e+003, 1.372446e+002
2.482615e+003, 1.391345e+002
2.484543e+003, 1.396716e+002
2.486471e+003, 1.352275e+002
2.488400e+003, 1.322370e+002
2.490328e+003, 1.322779e+002
2.492257e+003, 1.298117e+002
2.494185e+003, 1.316680e+002
2.496114e+003, 1.344239e+002
2.498042e+003, 1.335417e+002
2.499971e+003, 1.302110e+002
2.501899e+003, 1.293163e+002
2.503828e+003, 1.317403e+002
2.505756e+003, 1.310093e+002
2.507685e+003, 1.305217e+002
2.509613e+003, 1.294328e+002
2.511542e+003, 1.282490e+002
2.513470e+003, 1.257464e+002
2.515398e+003, 1.210422e+002
2.517327e+003, 1.265252e+002
2.519255e+003, 1.309396e+002
2.521184e+003, 1.218669e+002
2.523112e+003, 1.219769e+002
2.525041e+003, 1.272438e+002
2.526969e+003, 1.328914e+002
2.528898e+003, 1.288410e+002
2.530826e+003, 1.196837e+002
2.532755e+003, 1.171679e+002
2.534683e+003, 1.174306e+002
2.536612e+003, 1.181107e+002
2.538540e+003, 1.258969e+002
2.540469e+003, 1.212219e+002
2.542397e+003, 1.129289e+002
2.544325e+003, 1.147139e+002
2.546254e+003, 1.176290e+002
2.548182e+003, 1.191554e+002
2.550111e+003, 1.159078e+002
2.552039e+003, 1.176224e+002
2.553968e+003, 1.203819e+002
2.555896e+003, 1.259537e+002
2.557825e+003, 1.240989e+002
2.559753e+003, 1.178647e+002
2.561682e+003, 1.178999e+002
2.563610e+003, 1.179653e+002
2.565539e+003, 1.170796e+002
2.567467e+003, 1.151185e+002
2.569396e+003, 1.148183e+002
2.571324e+003, 1.167539e+002
2.573252e+003, 1.211873e+002
2.575181e+003, 1.162912e+002
2.577109e+003, 1.118952e+002
2.579038e+003, 1.183084e+002
2.580966e+003, 1.142983e+002
2.582895e+003, 1.086009e+002
2.584823e+003, 1.094542e+002
2.586752e+003, 1.146215e+002
2.588680e+003, 1.156700e+002
2.590609e+003, 1.075338e+002
2.592537e+003, 1.084700e+002
2.594466e+003, 1.113370e+002
2.596394e+003, 1.110414e+002
2.598323e+003, 1.121364e+002
2.600251e+003, 1.118660e+002
2.602179e+003, 1.089110e+002
2.604108e+003, 1.051223e+002
2.606036e+003, 1.065892e+002
2.607965e+003, 1.142649e+002
2.609893e+003, 1.128884e+002
2.611822e+003, 1.094700e+002
2.613750e+003, 1.076385e+002
2.615679e+003, 1.079263e+002
2.617607e+003, 1.071718e+002
2.619536e+003, 1.049414e+002
2.621464e+003, 1.058813e+002
2.623393e+003, 1.089075e+002
2.625321e+003, 1.116413e+002
2.627250e+003, 1.096522e+002
2.629178e+003, 1.084338e+002
2.631106e+003, 1.076768e+002
2.633035e+003, 1.023003e+002
2.634963e+003, 1.036829e+002
2.636892e+003, 1.078919e+002
2.638820e+003, 1.043428e+002
2.640749e+003, 1.049562e+002
2.642677e+003, 1.078166e+002
2.644606e+003, 1.071584e+002
2.646534e+003, 1.041089e+002
2.648463e+003, 1.038058e+002
2.650391e+003, 1.134015e+002
2.652320e+003, 1.103371e+002
2.654248e+003, 1.042098e+002
2.656177e+003, 1.049214e+002
2.658105e+003, 1.070130e+002
2.660033e+003, 1.083643e+002
2.661962e+003, 1.066764e+002
2.663890e+003, 1.039988e+002
2.665819e+003, 1.033112e+002
2.667747e+003, 1.057198e+002
2.669676e+003, 1.091966e+002
2.671604e+003, 1.094214e+002
2.673533e+003, 1.065200e+002
2.675461e+003, 1.031374e+002
2.677390e+003, 1.034582e+002
2.679318e+003, 1.043874e+002
2.681247e+003, 1.029399e+002
2.683175e+003, 1.025857e+002
2.685104e+003, 1.038494e+002
2.687032e+003, 1.101316e+002
2.688960e+003, 1.070443e+002
2.690889e+003, 1.008180e+002
2.692817e+003, 9.885182e+001
2.694746e+003, 9.896857e+001
2.696674e+003, 9.766962e+001
2.698603e+003, 9.524307e+001
2.700531e+003, 9.996500e+001
2.702460e+003, 1.010080e+002
2.704388e+003, 9.869548e+001
2.706317e+003, 9.336247e+001
2.708245e+003, 9.402995e+001
2.710174e+003, 9.849754e+001
2.712102e+003, 9.961752e+001
2.714031e+003, 9.762966e+001
2.715959e+003, 9.626277e+001
2.717887e+003, 1.003423e+002
2.719816e+003, 9.845090e+001
2.721744e+003, 9.625062e+001
2.723673e+003, 9.230864e+001
2.725601e+003, 8.799558e+001
2.727530e+003, 8.851434e+001
2.729458e+003, 9.274911e+001
2.731387e+003, 9.648762e+001
2.733315e+003, 9.784875e+001
2.735244e+003, 9.598383e+001
2.737172e+003, 9.611771e+001
2.739101e+003, 9.343622e+001
2.741029e+003, 9.465332e+001
2.742958e+003, 9.843380e+001
2.744886e+003, 9.529500e+001
2.746814e+003, 9.090081e+001
2.748743e+003, 9.439592e+001
2.750671e+003, 9.530893e+001
2.752600e+003, 9.569434e+001
2.754528e+003, 9.697132e+001
2.756457e+003, 8.951208e+001
2.758385e+003, 9.024160e+001
2.760314e+003, 9.360147e+001
2.762242e+003, 9.349261e+001
2.764171e+003, 9.546421e+001
2.766099e+003, 9.481834e+001
2.768028e+003, 9.012608e+001
2.769956e+003, 9.173105e+001
2.771885e+003, 9.396777e+001
2.773813e+003, 9.201780e+001
2.775741e+003, 9.091399e+001
2.777670e+003, 9.270403e+001
2.779598e+003, 9.956699e+001
2.781527e+003, 9.970876e+001
2.783455e+003, 1.029670e+002
2.785384e+003, 1.036884e+002
2.787312e+003, 9.453310e+001
2.789241e+003, 9.313438e+001
2.791169e+003, 9.501135e+001
2.793098e+003, 9.179317e+001
2.795026e+003, 9.588857e+001
2.796955e+003, 1.002807e+002
2.798883e+003, 9.627574e+001
2.800812e+003, 9.129144e+001
2.802740e+003, 9.286063e+001
2.804668e+003, 9.526555e+001
2.806597e+003, 9.393396e+001
2.808525e+003, 9.323135e+001
2.810454e+003, 9.140746e+001
2.812382e+003, 9.493140e+001
2.814311e+003, 9.315179e+001
2.816239e+003, 9.143407e+001
2.818168e+003, 9.301476e+001
2.820096e+003, 9.582449e+001
2.822025e+003, 9.351154e+001
2.823953e+003, 9.562629e+001
2.825882e+003, 1.032702e+002
2.827810e+003, 1.022276e+002
2.829739e+003, 9.760798e+001
2.831667e+003, 9.537992e+001
2.833595e+003, 9.422682e+001
2.835524e+003, 9.760353e+001
2.837452e+003, 9.960498e+001
2.839381e+003, 9.993906e+001
2.841309e+003, 1.006275e+002
2.843238e+003, 1.013704e+002
2.845166e+003, 9.734651e+001
2.847095e+003, 1.014555e+002
2.849023e+003, 1.051094e+002
2.850952e+003, 1.047464e+002
2.852880e+003, 1.055986e+002
2.854809e+003, 1.123454e+002
2.856737e+003, 1.173716e+002
2.858666e+003, 1.177161e+002
2.860594e+003, 1.131740e+002
2.862522e+003, 1.079197e+002
2.864451e+003, 1.074031e+002
2.866379e+003, 1.141675e+002
2.868308e+003, 1.194470e+002
2.870236e+003, 1.196345e+002
2.872165e+003, 1.193066e+002
2.874093e+003, 1.216883e+002
2.876022e+003, 1.251285e+002
2.877950e+003, 1.228429e+002
2.879879e+003, 1.204003e+002
2.881807e+003, 1.227158e+002
2.883736e+003, 1.259067e+002
2.885664e+003, 1.217365e+002
2.887593e+003, 1.233456e+002
2.889521e+003, 1.279843e+002
2.891449e+003, 1.272783e+002
2.893378e+003, 1.311021e+002
2.895306e+003, 1.332888e+002
2.897235e+003, 1.288895e+002
2.899163e+003, 1.292342e+002
2.901092e+003, 1.309113e+002
2.903020e+003, 1.328576e+002
2.904949e+003, 1.342138e+002
2.906877e+003, 1.365329e+002
2.908806e+003, 1.414813e+002
2.910734e+003, 1.453829e+002
2.912663e+003, 1.467086e+002
2.914591e+003, 1.434705e+002
2.916520e+003, 1.453040e+002
2.918448e+003, 1.486916e+002
2.920376e+003, 1.422590e+002
2.922305e+003, 1.481373e+002
2.924233e+003, 1.552871e+002
2.926162e+003, 1.517399e+002
2.928090e+003, 1.591073e+002
2.930019e+003, 1.625784e+002
2.931947e+003, 1.545365e+002
2.933876e+003, 1.680306e+002
2.935804e+003, 1.701535e+002
2.937733e+003, 1.580080e+002
2.939661e+003, 1.561730e+002
2.941590e+003, 1.701316e+002
2.943518e+003, 1.852340e+002
2.945447e+003, 1.806802e+002
2.947375e+003, 1.730393e+002
2.949303e+003, 1.769092e+002
2.951232e+003, 1.845647e+002
2.953160e+003, 1.796722e+002
2.955089e+003, 1.912217e+002
2.957017e+003, 1.942464e+002
2.958946e+003, 1.847251e+002
2.960874e+003, 1.903951e+002
2.962803e+003, 1.994452e+002
2.964731e+003, 2.037104e+002
2.966660e+003, 2.025790e+002
2.968588e+003, 2.049001e+002
2.970517e+003, 2.089549e+002
2.972445e+003, 2.138240e+002
2.974374e+003, 2.162192e+002
2.976302e+003, 2.175571e+002
2.978230e+003, 2.243781e+002
2.980159e+003, 2.348909e+002
2.982087e+003, 2.336633e+002
2.984016e+003, 2.316684e+002
2.985944e+003, 2.328645e+002
2.987873e+003, 2.406590e+002
2.989801e+003, 2.335586e+002
2.991729e+003, 2.368294e+002
2.993658e+003, 2.559216e+002
2.995586e+003, 2.570726e+002
2.997515e+003, 2.605851e+002
2.999443e+003, 2.656774e+002
3.001372e+003, 2.729794e+002
3.003300e+003, 2.759999e+002
3.005229e+003, 2.809979e+002
3.007157e+003, 2.847153e+002
3.009086e+003, 2.884254e+002
3.011014e+003, 2.984915e+002
3.012943e+003, 3.080411e+002
3.014871e+003, 3.108517e+002
3.016800e+003, 3.132326e+002
3.018728e+003, 3.202360e+002
3.020656e+003, 3.287199e+002
3.022585e+003, 3.398989e+002
3.024513e+003, 3.343875e+002
3.026442e+003, 3.478808e+002
3.028370e+003, 3.695648e+002
3.030299e+003, 3.799480e+002
3.032227e+003, 3.739068e+002
3.034156e+003, 3.861164e+002
3.036084e+003, 4.062768e+002
3.038013e+003, 4.111552e+002
3.039941e+003, 4.264228e+002
3.041870e+003, 4.437364e+002
3.043798e+003, 4.561754e+002
3.045727e+003, 4.497877e+002
3.047655e+003, 4.583834e+002
3.049583e+003, 4.748827e+002
3.051512e+003, 4.909019e+002
3.053440e+003, 5.087471e+002
3.055369e+003, 5.162160e+002
3.057297e+003, 5.291781e+002
3.059226e+003, 5.587872e+002
3.061154e+003, 5.669263e+002
3.063083e+003, 5.804962e+002
3.065011e+003, 5.892690e+002
3.066940e+003, 5.846229e+002
3.068868e+003, 6.075524e+002
3.070797e+003, 6.238903e+002
3.072725e+003, 6.283881e+002
3.074654e+003, 6.232454e+002
3.076582e+003, 6.303784e+002
3.078510e+003, 6.444099e+002
3.080439e+003, 6.626614e+002
3.082367e+003, 6.845555e+002
3.084296e+003, 6.753440e+002
3.086224e+003, 6.700906e+002
3.088153e+003, 6.771472e+002
3.090081e+003, 6.947047e+002
3.092010e+003, 7.020106e+002
3.093938e+003, 7.018280e+002
3.095867e+003, 7.041885e+002
3.097795e+003, 7.223111e+002
3.099724e+003, 7.113447e+002
3.101652e+003, 7.169750e+002
3.103581e+003, 7.374070e+002
3.105509e+003, 7.346937e+002
3.107438e+003, 7.407584e+002
3.109366e+003, 7.504598e+002
3.111294e+003, 7.588945e+002
3.113223e+003, 7.633575e+002
3.115151e+003, 7.596948e+002
3.117080e+003, 7.829839e+002
3.119008e+003, 8.217808e+002
3.120937e+003, 8.165348e+002
3.122865e+003, 8.228123e+002
3.124794e+003, 8.231709e+002
3.126722e+003, 8.189839e+002
3.128651e+003, 8.361996e+002
3.130579e+003, 8.336442e+002
3.132508e+003, 8.492083e+002
3.134436e+003, 8.870281e+002
3.136365e+003, 9.188976e+002
3.138293e+003, 9.436614e+002
3.140221e+003, 9.557045e+002
3.142150e+003, 9.642613e+002
3.144078e+003, 9.862255e+002
3.146007e+003, 1.024772e+003
3.147935e+003, 1.074467e+003
3.149864e+003, 1.127307e+003
3.151792e+003, 1.173655e+003
3.153721e+003, 1.228387e+003
3.155649e+003, 1.277714e+003
3.157578e+003, 1.330777e+003
3.159506e+003, 1.411362e+003
3.161435e+003, 1.488126e+003
3.163363e+003, 1.565069e+003
3.165292e+003, 1.647613e+003
3.167220e+003, 1.732744e+003
3.169148e+003, 1.809016e+003
3.171077e+003, 1.871059e+003
3.173005e+003, 1.923119e+003
3.174934e+003, 1.975373e+003
3.176862e+003, 2.016262e+003
3.178791e+003, 2.053662e+003
3.180719e+003, 2.085833e+003
3.182648e+003, 2.095157e+003
3.184576e+003, 2.071193e+003
3.186505e+003, 2.060517e+003
3.188433e+003, 2.039232e+003
3.190362e+003, 1.997325e+003
3.192290e+003, 1.942482e+003
3.194219e+003, 1.904001e+003
3.196147e+003, 1.863662e+003
3.198075e+003, 1.817093e+003
3.200004e+003, 1.789968e+003
3.201932e+003, 1.757046e+003
3.203861e+003, 1.750587e+003
3.205789e+003, 1.765498e+003
3.207718e+003, 1.768844e+003
3.209646e+003, 1.772185e+003
3.211575e+003, 1.759559e+003
3.213503e+003, 1.728533e+003
3.215432e+003, 1.689159e+003
3.217360e+003, 1.726137e+003
3.219289e+003, 1.740895e+003
3.221217e+003, 1.717788e+003
3.223146e+003, 1.681362e+003
3.225074e+003, 1.674807e+003
3.227002e+003, 1.660923e+003
3.228931e+003, 1.617472e+003
3.230859e+003, 1.566601e+003
3.232788e+003, 1.544186e+003
3.234716e+003, 1.531631e+003
3.236645e+003, 1.514764e+003
3.238573e+003, 1.499238e+003
3.240502e+003, 1.496039e+003
3.242430e+003, 1.468453e+003
3.244359e+003, 1.443920e+003
3.246287e+003, 1.461465e+003
3.248216e+003, 1.536145e+003
3.250144e+003, 1.507846e+003
3.252073e+003, 1.516447e+003
3.254001e+003, 1.549540e+003
3.255929e+003, 1.580017e+003
3.257858e+003, 1.585131e+003
3.259786e+003, 1.594883e+003
3.261715e+003, 1.600353e+003
3.263643e+003, 1.608167e+003
3.265572e+003, 1.620089e+003
3.267500e+003, 1.604845e+003
3.269429e+003, 1.575700e+003
3.271357e+003, 1.562635e+003
3.273286e+003, 1.583101e+003
3.275214e+003, 1.586546e+003
3.277143e+003, 1.539977e+003
3.279071e+003, 1.496088e+003
3.281000e+003, 1.486277e+003
3.282928e+003, 1.450574e+003
3.284856e+003, 1.431120e+003
3.286785e+003, 1.421694e+003
3.288713e+003, 1.418120e+003
3.290642e+003, 1.425939e+003
3.292570e+003, 1.417843e+003
3.294499e+003, 1.378579e+003
3.296427e+003, 1.343317e+003
3.298356e+003, 1.333809e+003
3.300284e+003, 1.324361e+003
3.302213e+003, 1.290401e+003
3.304141e+003, 1.262883e+003
3.306070e+003, 1.263899e+003
3.307998e+003, 1.288839e+003
3.309927e+003, 1.249986e+003
3.311855e+003, 1.208544e+003
3.313783e+003, 1.193850e+003
3.315712e+003, 1.210368e+003
3.317640e+003, 1.246243e+003
3.319569e+003, 1.237161e+003
3.321497e+003, 1.194220e+003
3.323426e+003, 1.159777e+003
3.325354e+003, 1.157367e+003
3.327283e+003, 1.142777e+003
3.329211e+003, 1.120949e+003
3.331140e+003, 1.083648e+003
3.333068e+003, 1.048302e+003
3.334997e+003, 1.037979e+003
3.336925e+003, 1.032173e+003
3.338854e+003, 1.006396e+003
3.340782e+003, 9.602437e+002
3.342710e+003, 9.115370e+002
3.344639e+003, 8.852867e+002
3.346567e+003, 8.730821e+002
3.348496e+003, 8.310387e+002
3.350424e+003, 7.937248e+002
3.352353e+003, 7.999045e+002
3.354281e+003, 7.567549e+002
3.356210e+003, 7.335330e+002
3.358138e+003, 7.119167e+002
3.360067e+003, 6.874532e+002
3.361995e+003, 6.775609e+002
3.363924e+003, 6.636754e+002
3.365852e+003, 6.393173e+002
3.367781e+003, 6.271426e+002
3.369709e+003, 6.301703e+002
3.371637e+003, 6.168194e+002
3.373566e+003, 5.908460e+002
3.375494e+003, 5.718787e+002
3.377423e+003, 5.679003e+002
3.379351e+003, 5.723667e+002
3.381280e+003, 5.670542e+002
3.383208e+003, 5.532188e+002
3.385137e+003, 5.471583e+002
3.387065e+003, 5.486671e+002
3.388994e+003, 5.464004e+002
3.390922e+003, 5.461451e+002
3.392851e+003, 5.337001e+002
3.394779e+003, 5.209137e+002
3.396708e+003, 5.114327e+002
3.398636e+003, 5.017150e+002
3.400564e+003, 4.959995e+002
3.402493e+003, 4.770578e+002
3.404421e+003, 4.698136e+002
3.406350e+003, 4.730813e+002
3.408278e+003, 4.643864e+002
3.410207e+003, 4.517378e+002
3.412135e+003, 4.509464e+002
3.414064e+003, 4.463100e+002
3.415992e+003, 4.320738e+002
3.417921e+003, 4.174699e+002
3.419849e+003, 4.078628e+002
3.421778e+003, 4.106751e+002
3.423706e+003, 4.188874e+002
3.425635e+003, 4.191740e+002
3.427563e+003, 3.979479e+002
3.429491e+003, 3.752063e+002
3.431420e+003, 3.696350e+002
3.433348e+003, 3.725875e+002
3.435277e+003, 3.714792e+002
3.437205e+003, 3.575161e+002
3.439134e+003, 3.474856e+002
3.441062e+003, 3.479823e+002
3.442991e+003, 3.421879e+002
3.444919e+003, 3.233931e+002
3.446848e+003, 2.996346e+002
3.448776e+003, 3.090319e+002
3.450705e+003, 3.026249e+002
3.452633e+003, 2.821509e+002
3.454562e+003, 2.708651e+002
3.456490e+003, 2.865453e+002
3.458418e+003, 2.712956e+002
3.460347e+003, 2.517934e+002
3.462275e+003, 2.454009e+002
3.464204e+003, 2.425552e+002
3.466132e+003, 2.294648e+002
3.468061e+003, 2.303185e+002
3.469989e+003, 2.236217e+002
3.471918e+003, 2.135431e+002
3.473846e+003, 2.034250e+002
3.475775e+003, 1.946988e+002
3.477703e+003, 1.892537e+002
3.479632e+003, 1.901120e+002
3.481560e+003, 1.969739e+002
3.483489e+003, 1.851744e+002
3.485417e+003, 1.551771e+002
3.487345e+003, 1.604312e+002
3.489274e+003, 1.615021e+002
3.491202e+003, 1.620848e+002
3.493131e+003, 1.612269e+002
3.495059e+003, 1.566242e+002
3.496988e+003, 1.467888e+002
3.498916e+003, 1.418943e+002
3.500845e+003, 1.360915e+002
3.502773e+003, 1.316017e+002
3.504702e+003, 1.267180e+002
3.506630e+003, 1.202582e+002
3.508559e+003, 1.235368e+002
3.510487e+003, 1.246694e+002
3.512416e+003, 1.253152e+002
3.514344e+003, 1.193202e+002
3.516272e+003, 1.086200e+002
3.518201e+003, 1.081059e+002
3.520129e+003, 1.078417e+002
3.522058e+003, 1.046306e+002
3.523986e+003, 1.064578e+002
3.525915e+003, 1.062429e+002
3.527843e+003, 9.367561e+001
3.529772e+003, 8.997782e+001
3.531700e+003, 9.187976e+001
3.533629e+003, 9.512254e+001
3.535557e+003, 9.562782e+001
3.537486e+003, 9.395721e+001
3.539414e+003, 9.591142e+001
3.541343e+003, 8.893163e+001
3.543271e+003, 9.001593e+001
3.545199e+003, 9.263739e+001
3.547128e+003, 8.947179e+001
3.549056e+003, 8.055205e+001
3.550985e+003, 8.024687e+001
3.552913e+003, 7.727647e+001
3.554842e+003, 8.211090e+001
3.556770e+003, 8.093070e+001
3.558699e+003, 7.413538e+001
3.560627e+003, 8.147790e+001
3.562556e+003, 7.958252e+001
3.564484e+003, 7.009961e+001
3.566413e+003, 6.802461e+001
3.568341e+003, 6.762070e+001
3.570270e+003, 6.368307e+001
3.572198e+003, 6.838084e+001
3.574126e+003, 7.026577e+001
3.576055e+003, 6.733813e+001
3.577983e+003, 6.921553e+001
3.579912e+003, 7.134366e+001
3.581840e+003, 6.568486e+001
3.583769e+003, 5.895269e+001
3.585697e+003, 6.870433e+001
3.587626e+003, 6.627416e+001
3.589554e+003, 6.560049e+001
3.591483e+003, 6.406589e+001
3.593411e+003, 5.077454e+001
3.595340e+003, 6.008655e+001
3.597268e+003, 6.125765e+001
3.599197e+003, 5.682285e+001
3.601125e+003, 5.812307e+001
3.603053e+003, 6.298821e+001
3.604982e+003, 6.065124e+001
3.606910e+003, 5.069680e+001
3.608839e+003, 5.830979e+001
3.610767e+003, 5.908725e+001
3.612696e+003, 5.265526e+001
3.614624e+003, 5.096483e+001
3.616553e+003, 5.931357e+001
3.618481e+003, 5.059449e+001
3.620410e+003, 5.137642e+001
3.622338e+003, 5.034546e+001
3.624267e+003, 4.962083e+001
3.626195e+003, 4.963128e+001
3.628124e+003, 4.816835e+001
3.630052e+003, 5.183425e+001
3.631980e+003, 5.720591e+001
3.633909e+003, 5.416379e+001
3.635837e+003, 4.866938e+001
3.637766e+003, 4.467085e+001
3.639694e+003, 4.342711e+001
3.641623e+003, 5.522700e+001
3.643551e+003, 4.741421e+001
3.645480e+003, 4.528114e+001
3.647408e+003, 4.789955e+001
3.649337e+003, 5.136922e+001
3.651265e+003, 5.187925e+001
3.653194e+003, 4.161258e+001
3.655122e+003, 4.763309e+001
3.657051e+003, 4.843197e+001
3.658979e+003, 5.127736e+001
3.660907e+003, 5.007946e+001
3.662836e+003, 4.402131e+001
3.664764e+003, 4.392325e+001
3.666693e+003, 4.135751e+001
3.668621e+003, 4.236012e+001
3.670550e+003, 4.219236e+001
3.672478e+003, 4.637069e+001
3.674407e+003, 4.778237e+001
3.676335e+003, 3.884624e+001
3.678264e+003, 3.992571e+001
3.680192e+003, 4.018274e+001
3.682121e+003, 4.008773e+001
3.684049e+003, 3.972086e+001
3.685978e+003, 4.408128e+001
3.687906e+003, 4.867934e+001
3.689834e+003, 4.166159e+001
3.691763e+003, 4.414667e+001
3.693691e+003, 3.990081e+001
3.695620e+003, 4.029121e+001
3.697548e+003, 3.635250e+001
3.699477e+003, 3.734278e+001
3.701405e+003, 4.853733e+001
3.703334e+003, 4.059882e+001
3.705262e+003, 3.705888e+001
3.707191e+003, 3.686499e+001
3.709119e+003, 3.900328e+001
3.711048e+003, 4.133586e+001
3.712976e+003, 3.889024e+001
3.714905e+003, 3.102766e+001
3.716833e+003, 3.726789e+001
3.718761e+003, 3.136971e+001
3.720690e+003, 3.800010e+001
3.722618e+003, 4.078133e+001
3.724547e+003, 3.666364e+001
3.726475e+003, 3.296569e+001
3.728404e+003, 3.567174e+001
3.730332e+003, 4.200584e+001
3.732261e+003, 4.008498e+001
3.734189e+003, 3.655248e+001
3.736118e+003, 3.352690e+001
3.738046e+003, 3.386786e+001
3.739975e+003, 3.709472e+001
3.741903e+003, 3.967416e+001
3.743832e+003, 4.176707e+001
3.745760e+003, 3.910212e+001
3.747688e+003, 3.524425e+001
3.749617e+003, 3.830327e+001
3.751545e+003, 4.163714e+001
3.753474e+003, 4.239735e+001
3.755402e+003, 4.364933e+001
3.757331e+003, 3.883156e+001
3.759259e+003, 3.630577e+001
3.761188e+003, 2.998326e+001
3.763116e+003, 3.470634e+001
3.765045e+003, 4.067206e+001
3.766973e+003, 4.036139e+001
3.768902e+003, 3.704438e+001
3.770830e+003, 3.432156e+001
3.772759e+003, 3.559188e+001
3.774687e+003, 3.807103e+001
3.776615e+003, 3.567149e+001
3.778544e+003, 3.181757e+001
3.780472e+003, 3.041505e+001
3.782401e+003, 3.285021e+001
3.784329e+003, 3.805302e+001
3.786258e+003, 3.334858e+001
3.788186e+003, 2.969750e+001
3.790115e+003, 3.084170e+001
3.792043e+003, 3.852175e+001
3.793972e+003, 3.960703e+001
3.795900e+003, 3.591990e+001
3.797829e+003, 3.696380e+001
3.799757e+003, 3.267443e+001
3.801686e+003, 3.667714e+001
3.803614e+003, 3.606033e+001
3.805542e+003, 3.425464e+001
3.807471e+003, 3.683332e+001
3.809399e+003, 3.963007e+001
3.811328e+003, 3.722162e+001
3.813256e+003, 3.210245e+001
3.815185e+003, 3.625628e+001
3.817113e+003, 3.274294e+001
3.819042e+003, 3.707092e+001
3.820970e+003, 3.702022e+001
3.822899e+003, 3.510049e+001
3.824827e+003, 3.191626e+001
3.826756e+003, 3.068998e+001
3.828684e+003, 3.642926e+001
3.830613e+003, 3.791394e+001
3.832541e+003, 3.070568e+001
3.834469e+003, 4.065495e+001
3.836398e+003, 3.926756e+001
3.838326e+003, 3.454413e+001
3.840255e+003, 3.142291e+001
3.842183e+003, 3.189609e+001
3.844112e+003, 3.860718e+001
3.846040e+003, 4.099484e+001
3.847969e+003, 3.334817e+001
3.849897e+003, 3.052491e+001
3.851826e+003, 3.354938e+001
3.853754e+003, 3.693855e+001
3.855683e+003, 4.015192e+001
3.857611e+003, 4.148148e+001
3.859540e+003, 3.872862e+001
3.861468e+003, 3.421819e+001
3.863396e+003, 2.716125e+001
3.865325e+003, 3.291035e+001
3.867253e+003, 3.663172e+001
3.869182e+003, 3.537118e+001
3.871110e+003, 3.318680e+001
3.873039e+003, 3.381861e+001
3.874967e+003, 3.596436e+001
3.876896e+003, 3.598911e+001
3.878824e+003, 3.600478e+001
3.880753e+003, 3.593548e+001
3.882681e+003, 3.690639e+001
3.884610e+003, 3.710997e+001
3.886538e+003, 3.213446e+001
3.888467e+003, 3.277095e+001
3.890395e+003, 3.499916e+001
3.892323e+003, 3.344433e+001
3.894252e+003, 3.713575e+001
3.896180e+003, 4.296869e+001
3.898109e+003, 3.832507e+001
3.900037e+003, 3.590038e+001
3.901966e+003, 3.412474e+001
3.903894e+003, 3.176062e+001
3.905823e+003, 3.274063e+001
3.907751e+003, 3.305777e+001
3.909680e+003, 3.187683e+001
3.911608e+003, 3.521895e+001
3.913537e+003, 3.247767e+001
3.915465e+003, 3.192329e+001
3.917394e+003, 3.612615e+001
3.919322e+003, 3.114425e+001
3.921250e+003, 3.208606e+001
3.923179e+003, 2.702720e+001
3.925107e+003, 2.663504e+001
3.927036e+003, 3.347785e+001
3.928964e+003, 3.311394e+001
3.930893e+003, 3.150283e+001
3.932821e+003, 3.405594e+001
3.934750e+003, 3.627719e+001
3.936678e+003, 2.613235e+001
3.938607e+003, 2.985882e+001
3.940535e+003, 3.548080e+001
3.942464e+003, 3.595912e+001
3.944392e+003, 3.124732e+001
3.946321e+003, 2.611178e+001
3.948249e+003, 2.838366e+001
3.950177e+003, 3.641215e+001
3.952106e+003, 3.026595e+001
3.954034e+003, 2.921464e+001
3.955963e+003, 3.177647e+001
3.957891e+003, 3.258350e+001
3.959820e+003, 3.296464e+001
3.961748e+003, 3.104649e+001
3.963677e+003, 2.987764e+001
3.965605e+003, 3.251448e+001
3.967534e+003, 3.550336e+001
3.969462e+003, 3.466350e+001
3.971391e+003, 4.069656e+001
3.973319e+003, 3.397191e+001
3.975248e+003, 3.055872e+001
3.977176e+003, 4.227608e+001
3.979104e+003, 3.822127e+001
3.981033e+003, 3.423783e+001
3.982961e+003, 3.140114e+001
3.984890e+003, 3.188923e+001
3.986818e+003, 3.651452e+001
3.988747e+003, 3.496395e+001
3.990675e+003, 3.588665e+001
3.992604e+003, 3.698658e+001
3.994532e+003, 3.515382e+001
3.996461e+003, 3.527974e+001
3.998389e+003, 3.989357e+001
4.000318e+003, 3.450549e+001
4.002246e+003, 3.122778e+001
4.004175e+003, 2.909183e+001
4.006103e+003, 2.936420e+001
4.008031e+003, 3.311492e+001
4.009960e+003, 3.272205e+001
4.011888e+003, 2.999959e+001
4.013817e+003, 2.809834e+001
4.015745e+003, 2.552544e+001
4.017674e+003, 3.165524e+001
4.019602e+003, 3.361266e+001
4.021531e+003, 2.880289e+001
4.023459e+003, 3.231596e+001
4.025388e+003, 3.472654e+001
4.027316e+003, 3.006254e+001
4.029245e+003, 3.062754e+001
4.031173e+003, 3.928041e+001
4.033102e+003, 4.095152e+001
4.035030e+003, 3.229927e+001
4.036958e+003, 2.717068e+001
4.038887e+003, 3.458425e+001
4.040815e+003, 3.123225e+001
4.042744e+003, 3.705380e+001
4.044672e+003, 3.584915e+001
4.046601e+003, 3.280095e+001
4.048529e+003, 3.379168e+001
4.050458e+003, 3.208538e+001
4.052386e+003, 3.166078e+001
4.054315e+003, 3.403158e+001
4.056243e+003, 3.391844e+001
4.058172e+003, 3.360620e+001
4.060100e+003, 2.632073e+001
4.062029e+003, 2.857429e+001
4.063957e+003, 3.585799e+001
4.065885e+003, 3.322265e+001
4.067814e+003, 3.169741e+001
4.069742e+003, 3.098336e+001
4.071671e+003, 2.849266e+001
4.073599e+003, 2.686374e+001
4.075528e+003, 2.430142e+001
4.077456e+003, 2.805256e+001
4.079385e+003, 2.907374e+001
4.081313e+003, 2.686113e+001
4.083242e+003, 3.601260e+001
4.085170e+003, 2.939285e+001
4.087099e+003, 2.841466e+001
4.089027e+003, 3.325586e+001
4.090956e+003, 2.960348e+001
4.092884e+003, 3.282665e+001
4.094813e+003, 3.441084e+001
4.096741e+003, 2.832085e+001
4.098669e+003, 2.634126e+001
4.100598e+003, 3.168735e+001
4.102526e+003, 2.597818e+001
4.104455e+003, 2.362243e+001
4.106383e+003, 3.005157e+001
4.108312e+003, 3.488151e+001
4.110240e+003, 3.396188e+001
4.112168e+003, 2.801236e+001
4.114097e+003, 3.307844e+001
4.116025e+003, 3.825291e+001
4.117954e+003, 2.509596e+001
4.119882e+003, 2.919484e+001
4.121811e+003, 3.880817e+001
4.123739e+003, 4.007518e+001
4.125668e+003, 2.646394e+001
4.127596e+003, 2.793391e+001
4.129525e+003, 3.296649e+001
4.131453e+003, 3.347532e+001
4.133382e+003, 2.799495e+001
4.135310e+003, 2.871681e+001
4.137239e+003, 3.004686e+001
4.139167e+003, 2.577767e+001
4.141096e+003, 2.723378e+001
4.143024e+003, 3.080437e+001
4.144953e+003, 2.336151e+001
4.146881e+003, 2.365462e+001
4.148810e+003, 2.943021e+001
4.150738e+003, 2.998196e+001
4.152667e+003, 2.670232e+001
4.154595e+003, 3.039031e+001
4.156523e+003, 3.048029e+001
4.158452e+003, 1.786146e+001
4.160380e+003, 2.427242e+001
4.162309e+003, 2.137452e+001
4.164237e+003, 2.597427e+001
4.166166e+003, 3.089925e+001
4.168094e+003, 2.917389e+001
4.170022e+003, 2.894819e+001
4.171951e+003, 2.895057e+001
4.173879e+003, 2.859932e+001
4.175808e+003, 2.926150e+001
4.177736e+003, 3.062053e+001
4.179665e+003, 3.408126e+001
4.181593e+003, 2.487977e+001
4.183522e+003, 2.760285e+001
4.185450e+003, 2.294610e+001
4.187379e+003, 3.269829e+001
4.189307e+003, 2.121433e+001
4.191236e+003, 2.784968e+001
4.193164e+003, 2.917812e+001
4.195093e+003, 3.876085e+001
4.197021e+003, 2.405302e+001
4.198950e+003, 2.492698e+001
4.200878e+003, 2.802780e+001
4.202807e+003, 3.104644e+001
4.204735e+003, 3.311389e+001
4.206664e+003, 3.347120e+001
4.208592e+003, 2.958902e+001
4.210521e+003, 2.687000e+001
4.212449e+003, 2.733802e+001
4.214377e+003, 2.868452e+001
4.216306e+003, 2.767053e+001
4.218234e+003, 3.075192e+001
4.220163e+003, 3.339650e+001
4.222091e+003, 2.356737e+001
4.224020e+003, 2.697360e+001
4.225948e+003, 2.574878e+001
4.227876e+003, 2.512596e+001
4.229805e+003, 3.963440e+001
4.231733e+003, 3.408310e+001
4.233662e+003, 2.657732e+001
4.235590e+003, 2.680431e+001
4.237519e+003, 3.248050e+001
4.239447e+003, 2.655586e+001
4.241376e+003, 3.109413e+001
4.243304e+003, 2.686248e+001
4.245233e+003, 2.877338e+001
4.247161e+003, 2.808980e+001
4.249090e+003, 3.148135e+001
4.251018e+003, 3.294791e+001
4.252947e+003, 3.088992e+001
4.254875e+003, 3.260002e+001
4.256804e+003, 3.473827e+001
4.258732e+003, 2.789487e+001
4.260661e+003, 3.457988e+001
4.262589e+003, 3.409952e+001
4.264518e+003, 2.669927e+001
4.266446e+003, 2.977021e+001
4.268375e+003, 3.030120e+001
4.270303e+003, 2.523791e+001
4.272231e+003, 2.731332e+001
4.274160e+003, 3.184104e+001
4.276088e+003, 3.367737e+001
4.278017e+003, 3.677839e+001
4.279945e+003, 3.636244e+001
4.281874e+003, 3.118449e+001
4.283802e+003, 3.079594e+001
4.285730e+003, 3.514680e+001
4.287659e+003, 2.947570e+001
4.289587e+003, 3.585148e+001
4.291516e+003, 3.544962e+001
4.293444e+003, 3.970884e+001
4.295373e+003, 4.160535e+001
4.297301e+003, 3.353282e+001
4.299230e+003, 3.433773e+001
4.301158e+003, 2.841933e+001
4.303087e+003, 4.112802e+001
4.305015e+003, 3.708405e+001
4.306944e+003, 3.517979e+001
4.308872e+003, 2.424169e+001
4.310801e+003, 2.653063e+001
4.312729e+003, 3.350672e+001
4.314658e+003, 3.202135e+001
4.316586e+003, 3.598939e+001
4.318515e+003, 3.484257e+001
4.320443e+003, 3.324039e+001
4.322372e+003, 3.599215e+001
4.324300e+003, 2.741188e+001
4.326229e+003, 2.724087e+001
4.328157e+003, 3.481602e+001
4.330085e+003, 3.582080e+001
4.332014e+003, 3.580693e+001
4.333942e+003, 3.422473e+001
4.335871e+003, 3.112725e+001
4.337799e+003, 3.566666e+001
4.339728e+003, 3.253989e+001
4.341656e+003, 3.368030e+001
4.343584e+003, 3.396536e+001
4.345513e+003, 2.645664e+001
4.347441e+003, 2.870005e+001
4.349370e+003, 3.207507e+001
4.351298e+003, 3.139716e+001
4.353227e+003, 3.264979e+001
4.355155e+003, 3.406472e+001
4.357084e+003, 3.053482e+001
4.359012e+003, 3.081766e+001
4.360941e+003, 2.853411e+001
4.362869e+003, 3.255843e+001
4.364798e+003, 3.253050e+001
4.366726e+003, 2.296900e+001
4.368655e+003, 2.550051e+001
4.370583e+003, 2.763243e+001
4.372512e+003, 2.739491e+001
4.374440e+003, 3.485874e+001
4.376369e+003, 2.519708e+001
4.378297e+003, 2.603152e+001
4.380226e+003, 3.045202e+001
##END=



