##NAMES=Larderellite
##RRUFFID=R130392
##IDEAL CHEMISTRY=(NH_4_)B_5_O_7_(OH)_2_·H_2_O
##LOCALITY=Larderello Lagoon, Tuscany, Italy
##OWNER=RRUFF
##SOURCE=Bob Jenkins (capsule), Rock Currier (rock piece)
##DESCRIPTION=Soft, vitreous, opaque white botryoidal crust, in part altered on surface to off-white tiny granules of ammonioborite
##STATUS=The identification of this mineral has been confirmed by single-crystal X-ray diffraction
##URL=https://www.rruff.net/odr/rruff_sample/R130392
##DIFFRACTION SAMPLE DESCRIPTION=Single crystal, powder profile is calculated
##CELL PARAMETERS=a: 9.465 b: 7.625 c: 11.647 alpha: 90 beta: 96.94 gamma: 90 volume: 834.4 crystal system: monoclinic
##FILETYPE=Raman Processed
##RAMAN WAVELENGTH=532

213.6081, 170.2339
215.5366, 169.1788
217.4651, 168.6918
219.3935, 169.1580
221.3220, 169.8752
223.2505, 170.5890
225.1789, 171.3230
227.1074, 171.9729
229.0359, 172.6021
230.9643, 173.1820
232.8928, 173.4206
234.8213, 172.7834
236.7497, 172.2387
238.6782, 172.3737
240.6067, 173.2782
242.5351, 174.2122
244.4636, 174.7453
246.3921, 175.0029
248.3205, 175.9193
250.2490, 177.4884
252.1775, 179.6340
254.1059, 182.0916
256.0344, 184.4331
257.9629, 188.1654
259.8913, 193.5108
261.8198, 200.5120
263.7483, 208.4452
265.6767, 217.1103
267.6052, 227.0524
269.5337, 238.2477
271.4621, 249.0816
273.3906, 263.9928
275.3191, 285.6276
277.2475, 311.9099
279.1760, 337.2064
281.1045, 368.4445
283.0329, 391.6798
284.9614, 399.2240
286.8899, 383.4771
288.8183, 363.1136
290.7468, 333.4854
292.6753, 299.8019
294.6037, 272.8592
296.5322, 256.3536
298.4607, 245.1004
300.3891, 238.4225
302.3176, 237.0428
304.2461, 237.1482
306.1745, 239.3620
308.1030, 242.7303
310.0315, 245.3597
311.9599, 249.2002
313.8884, 250.6820
315.8169, 247.5667
317.7453, 239.9163
319.6738, 231.3220
321.6023, 221.0373
323.5307, 210.4184
325.4592, 201.6685
327.3877, 195.3027
329.3161, 190.0855
331.2446, 185.9403
333.1731, 182.7320
335.1015, 180.2724
337.0300, 178.6439
338.9585, 177.6861
340.8869, 177.4055
342.8154, 178.0447
344.7439, 178.9470
346.6723, 180.3338
348.6008, 182.1175
350.5292, 183.0755
352.4577, 182.7500
354.3862, 181.8434
356.3146, 180.6411
358.2431, 178.8858
360.1716, 177.5639
362.1000, 176.7610
364.0285, 176.4669
365.9570, 177.1551
367.8854, 179.2483
369.8139, 181.8543
371.7424, 185.2319
373.6708, 189.6924
375.5993, 192.1182
377.5278, 191.4290
379.4562, 188.4436
381.3847, 184.1730
383.3132, 177.2739
385.2416, 170.6074
387.1701, 165.0344
389.0986, 160.4132
391.0270, 156.3567
392.9555, 152.9547
394.8840, 149.9968
396.8124, 147.3542
398.7409, 144.8835
400.6694, 142.8697
402.5978, 141.5985
404.5263, 140.8720
406.4548, 140.1776
408.3832, 139.4057
410.3117, 138.7109
412.2402, 138.2115
414.1686, 137.9443
416.0971, 137.6669
418.0256, 137.3132
419.9540, 136.9288
421.8825, 136.5820
423.8110, 136.1852
425.7394, 135.9087
427.6679, 135.8104
429.5964, 135.8847
431.5248, 136.0575
433.4533, 136.1941
435.3818, 136.5476
437.3102, 137.2953
439.2387, 138.9339
441.1672, 140.4398
443.0956, 141.4344
445.0241, 142.3111
446.9526, 143.8224
448.8810, 146.0710
450.8095, 148.9473
452.7380, 152.3609
454.6664, 156.3367
456.5949, 160.9505
458.5234, 166.8789
460.4518, 173.0882
462.3803, 178.7356
464.3088, 183.7141
466.2372, 188.3251
468.1657, 193.7171
470.0942, 199.1540
472.0226, 201.1541
473.9511, 197.5505
475.8796, 193.1151
477.8080, 189.4890
479.7365, 186.3400
481.6650, 185.7887
483.5934, 187.3234
485.5219, 191.4665
487.4504, 199.1340
489.3788, 210.0867
491.3073, 223.9951
493.2358, 245.8124
495.1642, 272.4743
497.0927, 287.3087
499.0212, 288.2657
500.9496, 279.7642
502.8781, 258.4364
504.8066, 224.3255
506.7350, 194.7655
508.6635, 173.4853
510.5920, 157.8407
512.5204, 146.0301
514.4489, 140.7137
516.3774, 136.6401
518.3058, 133.9921
520.2343, 132.5341
522.1628, 131.5181
524.0912, 131.1917
526.0197, 130.9922
527.9482, 130.7240
529.8766, 130.3837
531.8051, 130.0302
533.7336, 129.7484
535.6620, 129.4026
537.5905, 128.8617
539.5190, 128.0646
541.4474, 127.3133
543.3759, 126.4875
545.3044, 125.7441
547.2328, 125.4642
549.1613, 125.9563
551.0898, 126.4355
553.0182, 126.4757
554.9467, 126.2696
556.8752, 126.5967
558.8036, 128.5675
560.7321, 130.2848
562.6606, 130.8046
564.5891, 129.6911
566.5175, 128.9810
568.4460, 129.2828
570.3745, 129.7404
572.3029, 129.6142
574.2314, 128.6293
576.1599, 127.5565
578.0883, 126.4251
580.0168, 125.2832
581.9453, 124.2719
583.8737, 123.3153
585.8022, 122.5671
587.7307, 122.2537
589.6591, 122.3186
591.5876, 122.0754
593.5161, 120.9766
595.4445, 120.0265
597.3729, 119.8209
599.3014, 120.4435
601.2299, 121.0947
603.1583, 121.7417
605.0868, 122.3438
607.0153, 122.8282
608.9437, 122.9243
610.8722, 123.4061
612.8007, 124.3998
614.7291, 125.8296
616.6576, 127.5797
618.5861, 129.9499
620.5145, 132.0239
622.4430, 133.6620
624.3715, 134.8454
626.2999, 135.0671
628.2284, 133.6541
630.1569, 131.9077
632.0853, 129.9968
634.0138, 127.9559
635.9423, 126.6424
637.8707, 126.6836
639.7992, 127.0647
641.7277, 127.1636
643.6561, 126.8541
645.5846, 126.5619
647.5131, 126.4752
649.4415, 126.3697
651.3700, 125.9725
653.2985, 125.2441
655.2269, 124.5113
657.1554, 123.7593
659.0839, 123.0770
661.0123, 122.6626
662.9408, 122.7080
664.8693, 122.7834
666.7977, 122.8176
668.7262, 122.8048
670.6547, 122.7420
672.5831, 122.4536
674.5116, 122.3589
676.4401, 122.7347
678.3685, 123.6537
680.2970, 124.1476
682.2255, 123.3001
684.1539, 122.8477
686.0824, 124.3899
688.0109, 127.8092
689.9393, 129.8951
691.8678, 128.9240
693.7963, 127.2789
695.7247, 126.4574
697.6532, 126.7451
699.5817, 127.4599
701.5101, 128.7066
703.4386, 130.3302
705.3671, 131.9994
707.2955, 133.4556
709.2240, 135.9341
711.1525, 139.9667
713.0809, 145.1248
715.0094, 150.9168
716.9379, 158.1870
718.8663, 165.1396
720.7948, 171.8086
722.7233, 177.9829
724.6517, 183.3743
726.5802, 188.0869
728.5087, 191.7378
730.4371, 194.6120
732.3656, 196.5398
734.2941, 196.3755
736.2225, 193.3368
738.1510, 189.1705
740.0795, 183.5006
742.0079, 176.8555
743.9364, 171.3965
745.8649, 167.0116
747.7933, 164.3613
749.7218, 163.5235
751.6503, 164.5305
753.5787, 167.2350
755.5072, 171.8167
757.4357, 177.6728
759.3641, 184.6456
761.2926, 192.7016
763.2211, 201.5972
765.1495, 209.3942
767.0780, 220.1446
769.0065, 235.8118
770.9349, 256.9023
772.8634, 281.5869
774.7919, 321.9654
776.7203, 356.5855
778.6488, 369.6292
780.5773, 361.7856
782.5057, 341.6209
784.4342, 299.0279
786.3627, 252.9054
788.2911, 215.9441
790.2196, 189.4161
792.1481, 169.2532
794.0765, 157.1660
796.0050, 149.3889
797.9335, 143.2136
799.8619, 138.6217
801.7904, 135.0730
803.7189, 133.0334
805.6473, 131.7377
807.5758, 130.5553
809.5043, 129.4850
811.4327, 128.5771
813.3612, 127.7678
815.2897, 127.1202
817.2181, 126.7608
819.1466, 126.7501
821.0751, 126.6530
823.0035, 126.2384
824.9320, 125.8038
826.8605, 125.6332
828.7889, 125.8247
830.7174, 126.0580
832.6459, 126.3436
834.5743, 126.6317
836.5028, 126.8265
838.4313, 126.8358
840.3597, 127.0166
842.2882, 127.5543
844.2167, 128.1809
846.1451, 128.6964
848.0736, 129.1216
850.0021, 129.2928
851.9305, 128.8782
853.8590, 128.4000
855.7875, 128.3705
857.7159, 128.9363
859.6444, 129.6411
861.5729, 130.7870
863.5013, 131.8665
865.4298, 132.2848
867.3583, 131.8651
869.2867, 132.0271
871.2152, 133.4000
873.1437, 135.2225
875.0721, 137.0510
877.0006, 139.1956
878.9291, 140.5284
880.8575, 140.9202
882.7860, 140.5908
884.7145, 139.3968
886.6429, 137.3197
888.5714, 135.7129
890.4999, 134.6873
892.4283, 134.3651
894.3568, 134.9279
896.2853, 136.6388
898.2137, 138.3218
900.1422, 139.6229
902.0707, 141.1804
903.9991, 143.1476
905.9276, 145.5635
907.8561, 149.1925
909.7845, 154.1214
911.7130, 160.4024
913.6415, 167.7600
915.5699, 176.1672
917.4984, 186.5227
919.4269, 198.1469
921.3553, 212.3547
923.2838, 230.0388
925.2123, 251.1032
927.1407, 274.1666
929.0692, 302.9807
930.9976, 328.1442
932.9261, 346.0884
934.8546, 357.6282
936.7830, 363.3323
938.7115, 361.9116
940.6400, 356.2050
942.5684, 347.8568
944.4969, 335.9464
946.4254, 317.0700
948.3538, 287.5561
950.2823, 258.5652
952.2108, 229.9392
954.1392, 204.2198
956.0677, 184.1859
957.9962, 170.6379
959.9246, 160.3935
961.8531, 153.7847
963.7816, 149.3575
965.7100, 145.9276
967.6385, 143.7475
969.5670, 142.1390
971.4954, 141.4888
973.4239, 141.1045
975.3524, 140.3210
977.2808, 139.1576
979.2093, 138.5235
981.1378, 138.7891
983.0662, 139.3930
984.9947, 140.2058
986.9232, 141.2714
988.8516, 141.8283
990.7801, 141.4555
992.7086, 141.0543
994.6370, 140.9303
996.5655, 141.0161
998.4940, 140.9939
1000.422, 140.8495
1002.351, 140.5663
1004.279, 140.0103
1006.208, 139.3095
1008.136, 138.6908
1010.065, 138.1994
1011.993, 137.7001
1013.922, 137.1916
1015.850, 136.6925
1017.779, 136.2230
1019.707, 135.8044
1021.636, 135.4593
1023.564, 135.1148
1025.493, 134.9199
1027.421, 135.0436
1029.349, 135.4438
1031.278, 135.8074
1033.206, 136.0053
1035.135, 136.2291
1037.063, 136.5322
1038.992, 136.9112
1040.920, 137.4008
1042.849, 138.1441
1044.777, 138.8281
1046.706, 139.2516
1048.634, 139.5959
1050.563, 140.3144
1052.491, 141.5424
1054.420, 142.7072
1056.348, 143.7675
1058.276, 144.6339
1060.205, 145.1862
1062.133, 145.3684
1064.062, 145.6388
1065.990, 146.2390
1067.919, 146.8109
1069.847, 147.1218
1071.776, 147.1455
1073.704, 147.2864
1075.633, 147.5102
1077.561, 147.8400
1079.490, 148.4366
1081.418, 149.1023
1083.347, 149.4041
1085.275, 149.2959
1087.203, 148.9397
1089.132, 148.3095
1091.060, 147.5331
1092.989, 146.6850
1094.917, 145.6720
1096.846, 144.9601
1098.774, 144.7529
1100.703, 144.6667
1102.631, 144.5223
1104.560, 144.2913
1106.488, 143.7886
1108.417, 142.6267
1110.345, 141.6427
1112.273, 141.3273
1114.202, 141.3768
1116.130, 141.2427
1118.059, 140.9254
1119.987, 140.4569
1121.916, 139.6657
1123.844, 138.8962
1125.773, 138.4569
1127.701, 138.4146
1129.630, 138.5666
1131.558, 139.0721
1133.487, 139.5783
1135.415, 139.8574
1137.344, 139.9451
1139.272, 140.1700
1141.200, 140.6678
1143.129, 140.9967
1145.057, 140.7729
1146.986, 140.3734
1148.914, 140.3356
1150.843, 140.7740
1152.771, 141.0613
1154.700, 140.8692
1156.628, 140.6915
1158.557, 140.9075
1160.485, 141.5562
1162.414, 141.8808
1164.342, 141.6516
1166.271, 141.4461
1168.199, 141.3611
1170.127, 141.4330
1172.056, 141.7627
1173.984, 142.4269
1175.913, 143.0043
1177.841, 143.2532
1179.770, 143.5171
1181.698, 144.0359
1183.627, 144.7972
1185.555, 145.5731
1187.484, 146.0393
1189.412, 146.8961
1191.341, 148.6381
1193.269, 150.8499
1195.198, 152.5866
1197.126, 153.4513
1199.054, 154.4850
1200.983, 156.0524
1202.911, 157.5637
1204.840, 158.5819
1206.768, 159.1422
1208.697, 159.3864
1210.625, 159.2681
1212.554, 158.9377
1214.482, 158.4797
1216.411, 157.8317
1218.339, 156.7259
1220.268, 154.8299
1222.196, 153.6155
1224.125, 153.5542
1226.053, 154.0097
1227.981, 154.9855
1229.910, 156.4841
1231.838, 156.8352
1233.767, 155.0697
1235.695, 153.5327
1237.624, 152.5210
1239.552, 152.0913
1241.481, 152.5071
1243.409, 153.8349
1245.338, 154.9850
1247.266, 155.7667
1249.195, 156.3539
1251.123, 156.8620
1253.052, 157.2667
1254.980, 157.4224
1256.908, 157.1570
1258.837, 157.0395
1260.765, 157.4180
1262.694, 157.8172
1264.622, 157.7895
1266.551, 157.2461
1268.479, 156.7348
1270.408, 156.2114
1272.336, 155.7824
1274.265, 155.5218
1276.193, 155.3922
1278.122, 155.3259
1280.050, 155.3452
1281.979, 155.3606
1283.907, 155.3631
1285.835, 155.3343
1287.764, 155.1234
1289.692, 154.8367
1291.621, 154.9362
1293.549, 155.6734
1295.478, 156.1575
1297.406, 155.9497
1299.335, 155.5124
1301.263, 155.1666
1303.192, 154.8966
1305.120, 154.9110
1307.049, 155.5305
1308.977, 156.0703
1310.906, 156.0952
1312.834, 156.0457
1314.762, 156.8124
1316.691, 158.9849
1318.619, 160.0528
1320.548, 158.7431
1322.476, 157.5423
1324.405, 157.9899
1326.333, 159.3877
1328.262, 159.9095
1330.190, 159.2994
1332.119, 158.8271
1334.047, 158.7781
1335.976, 159.0149
1337.904, 159.6077
1339.833, 160.4514
1341.761, 160.8634
1343.689, 160.4931
1345.618, 160.3460
1347.546, 160.8038
1349.475, 161.4445
1351.403, 161.9373
1353.332, 162.2819
1355.260, 162.5366
1357.189, 162.5641
1359.117, 162.7195
1361.046, 163.0628
1362.974, 163.5852
1364.903, 164.2838
1366.831, 165.1539
1368.760, 166.0686
1370.688, 167.0101
1372.616, 167.9578
1374.545, 168.8741
1376.473, 169.8154
1378.402, 170.9030
1380.330, 172.1772
1382.259, 173.4171
1384.187, 174.7056
1386.116, 175.8376
1388.044, 176.6922
1389.973, 177.3278
1391.901, 177.8326
1393.830, 178.1790
1395.758, 178.4233
1397.687, 178.8535
1399.615, 178.8290
1401.543, 177.7423
1403.472, 176.0148
1405.400, 174.8846
1407.329, 174.7760
1409.257, 174.4375
1411.186, 173.3923
1413.114, 172.5952
1415.043, 172.6803
1416.971, 173.4141
1418.900, 174.0248
1420.828, 174.4903
1422.757, 174.8612
1424.685, 175.1455
1426.614, 175.3125
1428.542, 175.3445
1430.470, 175.2423
1432.399, 174.9895
1434.327, 174.5273
1436.256, 174.2283
1438.184, 174.2229
1440.113, 174.3536
1442.041, 174.6477
1443.970, 174.9621
1445.898, 174.9023
1447.827, 174.3221
1449.755, 173.8963
1451.684, 173.6624
1453.612, 173.7502
1455.541, 174.3245
1457.469, 175.2772
1459.397, 176.2315
1461.326, 177.0827
1463.254, 178.3882
1465.183, 180.1437
1467.111, 182.4811
1469.040, 185.4869
1470.968, 189.1154
1472.897, 193.2725
1474.825, 198.1711
1476.754, 203.1786
1478.682, 208.6741
1480.611, 213.8342
1482.539, 218.5039
1484.468, 222.5507
1486.396, 225.8596
1488.324, 228.6455
1490.253, 229.6100
1492.181, 227.4409
1494.110, 224.9209
1496.038, 223.0982
1497.967, 221.3830
1499.895, 218.8599
1501.824, 215.5546
1503.752, 212.3497
1505.681, 209.4774
1507.609, 206.5127
1509.538, 203.0741
1511.466, 199.6945
1513.395, 197.0082
1515.323, 194.9078
1517.251, 192.6051
1519.180, 189.8236
1521.108, 187.3371
1523.037, 185.1464
1524.965, 183.5023
1526.894, 182.9865
1528.822, 183.1772
1530.751, 182.1884
1532.679, 179.4570
1534.608, 177.3936
1536.536, 177.1618
1538.465, 177.1431
1540.393, 176.4196
1542.322, 175.3475
1544.250, 174.8026
1546.178, 174.8276
1548.107, 175.1669
1550.035, 176.2041
1551.964, 176.9269
1553.892, 176.7036
1555.821, 176.0523
1557.749, 175.7247
1559.678, 175.7925
1561.606, 175.7845
1563.535, 175.6778
1565.463, 175.5977
1567.392, 175.6013
1569.320, 175.6457
1571.249, 175.6908
1573.177, 175.7270
1575.105, 175.7420
1577.034, 175.5579
1578.962, 175.5951
1580.891, 176.1372
1582.819, 176.6322
1584.748, 176.7072
1586.676, 176.5933
1588.605, 176.8055
1590.533, 177.5150
1592.462, 178.0189
1594.390, 177.7005
1596.319, 177.9490
1598.247, 179.8185
1600.176, 181.9239
1602.104, 182.5487
1604.032, 181.7863
1605.961, 181.7725
1607.889, 182.9291
1609.818, 183.8041
1611.746, 183.9636
1613.675, 183.9795
1615.603, 184.1775
1617.532, 184.5061
1619.460, 184.7492
1621.389, 184.8623
1623.317, 185.4893
1625.246, 187.1566
1627.174, 188.5715
1629.103, 189.0372
1631.031, 189.1844
1632.959, 189.5307
1634.888, 190.0750
1636.816, 190.9329
1638.745, 192.2339
1640.673, 193.3500
1642.602, 194.0602
1644.530, 194.6840
1646.459, 195.4313
1648.387, 196.2058
1650.316, 196.7235
1652.244, 197.0074
1654.173, 197.8840
1656.101, 199.7615
1658.030, 201.3606
1659.958, 202.0055
1661.886, 202.4268
1663.815, 203.2124
1665.743, 204.1798
1667.672, 204.9055
1669.600, 205.3876
1671.529, 205.8221
1673.457, 206.3660
1675.386, 206.6909
1677.314, 206.0158
1679.243, 205.5642
1681.171, 206.8186
1683.100, 209.2648
1685.028, 210.7963
1686.957, 211.1644
1688.885, 211.2183
1690.813, 210.6337
1692.742, 210.5136
1694.670, 212.1904
1696.599, 214.1489
1698.527, 214.7051
1700.456, 213.9386
1702.384, 212.3364
1704.313, 209.8351
1706.241, 206.8994
1708.170, 203.3458
1710.098, 199.8274
1712.027, 196.5347
1713.955, 193.6531
1715.884, 191.6384
1717.812, 190.4100
1719.740, 188.7799
1721.669, 186.3037
1723.597, 184.4834
1725.526, 184.1612
1727.454, 184.0417
1729.383, 183.1764
1731.311, 182.0459
1733.240, 181.5432
1735.168, 181.6258
1737.097, 181.1928
1739.025, 179.8892
1740.954, 178.9295
1742.882, 178.9496
1744.811, 179.1133
1746.739, 178.7837
1748.667, 178.3204
1750.596, 178.3912
1752.524, 178.9484
1754.453, 179.1207
1756.381, 178.6933
1758.310, 178.3116
1760.238, 178.0350
1762.167, 177.9879
1764.095, 178.3228
1766.024, 178.8692
1767.952, 179.4888
1769.880, 180.1298
1771.809, 180.2322
1773.737, 179.4901
1775.666, 179.0594
1777.594, 179.6362
1779.523, 180.1158
1781.451, 179.8377
1783.380, 179.2422
1785.308, 178.8383
1787.237, 178.6298
1789.165, 178.6797
1791.094, 179.1046
1793.022, 179.3776
1794.951, 179.3760
1796.879, 179.2504
1798.807, 178.8889
1800.736, 178.5711
1802.664, 178.6797
1804.593, 179.1210
1806.521, 179.3689
1808.450, 179.3429
1810.378, 179.3928
1812.307, 179.5476
1814.235, 179.7314
1816.164, 179.9578
1818.092, 180.1519
1820.021, 180.2404
1821.949, 180.2594
1823.878, 180.3293
1825.806, 180.5113
1827.734, 180.5108
1829.663, 180.0588
1831.591, 179.8968
1833.520, 180.4013
1835.448, 180.8880
1837.377, 180.8047
1839.305, 180.5873
1841.234, 181.0029
1843.162, 181.9920
1845.091, 182.3055
1847.019, 181.5199
1848.948, 181.0868
1850.876, 181.2693
1852.805, 181.6388
1854.733, 182.4275
1856.661, 183.0661
1858.590, 182.8530
1860.518, 182.1819
1862.447, 182.2249
1864.375, 183.0419
1866.304, 183.5162
1868.232, 183.3850
1870.161, 183.3978
1872.089, 183.6555
1874.018, 184.1937
1875.946, 185.4737
1877.875, 186.7099
1879.803, 186.9595
1881.732, 186.4206
1883.660, 185.6812
1885.589, 184.6864
1887.517, 184.4455
1889.445, 185.4470
1891.374, 186.3668
1893.302, 186.7768
1895.231, 186.9510
1897.159, 187.0076
1899.088, 186.9822
1901.016, 186.8162
1902.945, 186.5759
1904.873, 186.8103
1906.802, 187.7505
1908.730, 188.2677
1910.659, 187.7171
1912.587, 187.4381
1914.516, 188.1025
1916.444, 188.8360
1918.372, 189.0476
1920.301, 188.8972
1922.229, 188.5002
1924.158, 187.8585
1926.086, 187.9058
1928.015, 189.3798
1929.943, 190.0443
1931.872, 189.1820
1933.800, 188.4330
1935.729, 188.2385
1937.657, 188.2593
1939.586, 188.4381
1941.514, 188.6176
1943.443, 188.3950
1945.371, 187.8277
1947.299, 187.7574
1949.228, 188.3105
1951.156, 188.8159
1953.085, 189.2908
1955.013, 189.4215
1956.942, 188.4094
1958.870, 187.8464
1960.799, 189.6377
1962.727, 191.9509
1964.656, 192.0698
1966.584, 190.5363
1968.513, 189.8385
1970.441, 190.1565
1972.370, 190.2552
1974.298, 189.7459
1976.226, 189.4684
1978.155, 189.9181
1980.083, 190.3185
1982.012, 190.1755
1983.940, 189.8779
1985.869, 189.7873
1987.797, 189.9198
1989.726, 190.3835
1991.654, 191.2851
1993.583, 191.8444
1995.511, 191.9286
1997.440, 191.8762
1999.368, 191.6882
2001.297, 191.3960
2003.225, 190.6954
2005.153, 190.2385
2007.082, 190.8889
2009.010, 191.9172
2010.939, 191.7939
2012.867, 190.8157
2014.796, 190.8573
2016.724, 192.1260
2018.653, 192.7744
2020.581, 192.2896
2022.510, 191.8315
2024.438, 191.5937
2026.367, 191.6415
2028.295, 192.2228
2030.224, 192.9041
2032.152, 193.2335
2034.080, 193.3523
2036.009, 193.6977
2037.937, 194.2957
2039.866, 194.2920
2041.794, 193.0479
2043.723, 192.4842
2045.651, 193.1175
2047.580, 193.6479
2049.508, 194.0290
2051.437, 194.0050
2053.365, 193.0090
2055.294, 191.9144
2057.222, 191.6963
2059.151, 192.0695
2061.079, 192.3238
2063.008, 192.4678
2064.936, 192.6085
2066.865, 192.7856
2068.793, 192.7996
2070.721, 192.6076
2072.650, 192.2857
2074.578, 191.4746
2076.507, 190.9977
2078.435, 191.6200
2080.364, 192.4229
2082.292, 192.4111
2084.220, 191.9307
2086.149, 191.7938
2088.077, 191.9984
2090.006, 192.0540
2091.934, 191.9067
2093.863, 191.8907
2095.791, 192.1878
2097.720, 192.2551
2099.648, 191.7692
2101.577, 191.3450
2103.505, 191.0867
2105.434, 191.1271
2107.362, 192.1395
2109.291, 193.1515
2111.219, 192.3679
2113.147, 190.5178
2115.076, 190.2317
2117.004, 191.6146
2118.933, 192.4772
2120.861, 192.5431
2122.790, 192.3917
2124.718, 191.6223
2126.647, 191.2208
2128.575, 191.8901
2130.504, 192.3608
2132.432, 191.7173
2134.361, 190.9688
2136.289, 191.2114
2138.218, 191.9533
2140.146, 192.2413
2142.074, 192.1648
2144.003, 192.0695
2145.931, 191.9447
2147.860, 191.9590
2149.788, 192.1672
2151.717, 192.1932
2153.645, 191.6220
2155.574, 191.4741
2157.502, 192.6662
2159.431, 193.6025
2161.359, 193.1668
2163.288, 192.4224
2165.216, 192.2404
2167.145, 192.4733
2169.073, 192.9512
2171.001, 193.6128
2172.930, 194.2410
2174.858, 194.8274
2176.787, 194.6587
2178.715, 193.4865
2180.644, 192.8466
2182.572, 193.1813
2184.501, 193.5105
2186.429, 193.6110
2188.358, 193.5860
2190.286, 193.3801
2192.215, 193.2081
2194.143, 193.2471
2196.072, 193.3906
2198.000, 193.5951
2199.928, 193.7571
2201.857, 193.4145
2203.785, 192.6236
2205.714, 192.9570
2207.642, 194.5679
2209.571, 195.3025
2211.499, 194.7934
2213.428, 194.4458
2215.356, 194.5621
2217.285, 194.7695
2219.213, 194.9553
2221.142, 195.1582
2223.070, 195.4995
2224.999, 195.7180
2226.927, 195.5039
2228.855, 195.1448
2230.784, 195.0281
2232.712, 195.0624
2234.641, 194.9527
2236.569, 194.7451
2238.498, 194.9163
2240.426, 195.4769
2242.355, 195.5986
2244.283, 195.0955
2246.212, 194.9056
2248.140, 195.3935
2250.069, 195.6459
2251.997, 194.9749
2253.926, 194.7003
2255.854, 195.8881
2257.782, 196.8663
2259.711, 196.2483
2261.639, 195.3438
2263.568, 195.4476
2265.496, 196.0133
2267.425, 196.2319
2269.353, 196.1976
2271.282, 196.1360
2273.210, 196.0879
2275.139, 196.2760
2277.067, 196.7433
2278.996, 196.9946
2280.924, 196.9759
2282.853, 196.7617
2284.781, 195.7917
2286.709, 195.5060
2288.638, 196.7755
2290.566, 197.7500
2292.495, 197.6647
2294.423, 197.4324
2296.352, 197.4886
2298.280, 197.6156
2300.209, 197.6231
2302.137, 197.6328
2304.066, 197.7957
2305.994, 198.0546
2307.923, 198.2925
2309.851, 198.5044
2311.780, 198.7321
2313.708, 198.9734
2315.636, 199.0715
2317.565, 198.9637
2319.493, 199.0423
2321.422, 199.3201
2323.350, 199.9466
2325.279, 201.2031
2327.207, 202.1115
2329.136, 202.3928
2331.064, 202.3191
2332.993, 201.7674
2334.921, 201.1611
2336.850, 200.6961
2338.778, 200.2463
2340.707, 199.4918
2342.635, 198.8917
2344.563, 199.1424
2346.492, 199.8219
2348.420, 200.3300
2350.349, 200.6433
2352.277, 200.5253
2354.206, 200.1036
2356.134, 200.1004
2358.063, 200.5395
2359.991, 201.0826
2361.920, 201.8316
2363.848, 202.2604
2365.777, 202.2762
2367.705, 202.1860
2369.634, 201.9829
2371.562, 201.8364
2373.490, 201.8827
2375.419, 201.8257
2377.347, 201.3020
2379.276, 201.0482
2381.204, 201.5932
2383.133, 202.2719
2385.061, 202.6555
2386.990, 202.9934
2388.918, 203.7192
2390.847, 204.3587
2392.775, 203.9846
2394.704, 203.2986
2396.632, 203.7335
2398.561, 204.8429
2400.489, 205.5215
2402.417, 205.8102
2404.346, 206.0983
2406.274, 206.4069
2408.203, 206.4629
2410.131, 206.1322
2412.060, 206.3258
2413.988, 207.2128
2415.917, 207.8712
2417.845, 208.0953
2419.774, 208.5744
2421.702, 209.6150
2423.631, 210.3041
2425.559, 210.1317
2427.488, 209.9831
2429.416, 210.2507
2431.344, 210.4150
2433.273, 210.0699
2435.201, 209.8326
2437.130, 210.2533
2439.058, 210.6112
2440.987, 210.3864
2442.915, 209.9276
2444.844, 209.3335
2446.772, 208.9107
2448.701, 209.2451
2450.629, 209.9138
2452.558, 210.1816
2454.486, 210.1604
2456.415, 210.0258
2458.343, 209.8344
2460.271, 209.9541
2462.200, 210.3025
2464.128, 210.5554
2466.057, 210.6804
2467.985, 210.5966
2469.914, 210.2824
2471.842, 209.8810
2473.771, 209.2859
2475.699, 209.0456
2477.628, 209.2437
2479.556, 209.6301
2481.485, 210.3069
2483.413, 210.5999
2485.342, 210.1684
2487.270, 209.8329
2489.198, 209.9557
2491.127, 209.9543
2493.055, 209.4234
2494.984, 209.1797
2496.912, 209.7501
2498.841, 210.3154
2500.769, 210.4491
2502.698, 210.6405
2504.626, 211.4460
2506.555, 212.0092
2508.483, 211.3059
2510.412, 210.5919
2512.340, 211.2819
2514.269, 212.2127
2516.197, 211.9789
2518.125, 211.4489
2520.054, 211.8066
2521.982, 212.5020
2523.911, 212.6929
2525.839, 212.6409
2527.768, 212.8821
2529.696, 213.2753
2531.625, 213.4637
2533.553, 213.5130
2535.482, 213.5537
2537.410, 213.6554
2539.339, 214.2461
2541.267, 215.1916
2543.196, 215.5733
2545.124, 215.3533
2547.052, 215.2345
2548.981, 215.1702
2550.909, 215.4424
2552.838, 216.1248
2554.766, 216.6221
2556.695, 216.9216
2558.623, 217.3682
2560.552, 218.0915
2562.480, 218.3428
2564.409, 217.8119
2566.337, 217.5769
2568.266, 217.9890
2570.194, 218.1945
2572.123, 218.0819
2574.051, 217.9323
2575.979, 217.6944
2577.908, 217.6991
2579.836, 218.0373
2581.765, 218.5766
2583.693, 219.4565
2585.622, 220.2240
2587.550, 220.5919
2589.479, 221.1313
2591.407, 222.3642
2593.336, 222.9642
2595.264, 222.0642
2597.193, 221.1857
2599.121, 221.0381
2601.050, 221.0199
2602.978, 220.9113
2604.906, 220.8446
2606.835, 220.7810
2608.763, 220.9730
2610.692, 221.9024
2612.620, 222.5930
2614.549, 222.0706
2616.477, 221.5859
2618.406, 222.0880
2620.334, 222.7645
2622.263, 223.0783
2624.191, 223.2712
2626.120, 223.6391
2628.048, 223.8613
2629.977, 223.1898
2631.905, 222.8335
2633.833, 224.4312
2635.762, 226.2079
2637.690, 226.3434
2639.619, 225.7727
2641.547, 225.1885
2643.476, 224.7564
2645.404, 224.5603
2647.333, 224.7527
2649.261, 226.0573
2651.190, 227.3558
2653.118, 226.7513
2655.047, 225.6627
2656.975, 225.9852
2658.904, 227.0290
2660.832, 228.2854
2662.760, 229.2641
2664.689, 229.0345
2666.617, 228.3540
2668.546, 228.3095
2670.474, 228.6581
2672.403, 229.0937
2674.331, 229.5853
2676.260, 230.2082
2678.188, 230.7443
2680.117, 230.6307
2682.045, 230.3628
2683.974, 230.8507
2685.902, 231.7278
2687.831, 232.5589
2689.759, 233.1251
2691.688, 232.8202
2693.616, 232.1146
2695.544, 231.6899
2697.473, 231.5269
2699.401, 231.5602
2701.330, 231.8654
2703.258, 232.7593
2705.187, 233.9037
2707.115, 234.6808
2709.044, 235.2049
2710.972, 235.8018
2712.901, 236.1700
2714.829, 235.2539
2716.758, 234.1264
2718.686, 235.0536
2720.615, 236.9257
2722.543, 238.0739
2724.471, 238.6259
2726.400, 238.3464
2728.328, 237.9507
2730.257, 238.7832
2732.185, 240.0923
2734.114, 240.6608
2736.042, 240.9398
2737.971, 241.6731
2739.899, 242.5084
2741.828, 243.0052
2743.756, 243.3144
2745.685, 243.4407
2747.613, 243.6684
2749.542, 244.6154
2751.470, 245.6039
2753.398, 245.7081
2755.327, 245.6073
2757.255, 246.1756
2759.184, 246.8315
2761.112, 246.6218
2763.041, 246.5524
2764.969, 248.0027
2766.898, 249.6844
2768.826, 250.4826
2770.755, 251.0010
2772.683, 251.4988
2774.612, 252.2192
2776.540, 253.6493
2778.469, 254.9699
2780.397, 255.4122
2782.325, 255.7878
2784.254, 256.4838
2786.182, 257.5148
2788.111, 259.5060
2790.039, 261.0215
2791.968, 260.8078
2793.896, 260.5923
2795.825, 260.9299
2797.753, 261.8602
2799.682, 264.1189
2801.610, 265.8567
2803.539, 265.7246
2805.467, 265.8157
2807.396, 266.6798
2809.324, 267.9054
2811.252, 269.5320
2813.181, 271.0729
2815.109, 272.7726
2817.038, 273.5988
2818.966, 272.6270
2820.895, 272.9417
2822.823, 275.5622
2824.752, 277.8519
2826.680, 279.0228
2828.609, 280.3811
2830.537, 281.9516
2832.466, 284.1439
2834.394, 287.2234
2836.323, 289.0429
2838.251, 289.0871
2840.179, 289.9823
2842.108, 292.1038
2844.036, 294.6449
2845.965, 297.6696
2847.893, 300.2655
2849.822, 302.4120
2851.750, 304.4432
2853.679, 306.3466
2855.607, 307.9541
2857.536, 309.2899
2859.464, 310.7272
2861.393, 312.2676
2863.321, 313.7605
2865.250, 315.3973
2867.178, 317.8371
2869.106, 320.7402
2871.035, 323.2126
2872.963, 325.4086
2874.892, 327.5638
2876.820, 329.6651
2878.749, 331.7759
2880.677, 333.7612
2882.606, 335.2011
2884.534, 336.7570
2886.463, 339.5274
2888.391, 342.2273
2890.320, 343.7565
2892.248, 345.0081
2894.177, 346.4483
2896.105, 348.0191
2898.033, 349.7471
2899.962, 351.5210
2901.890, 353.5186
2903.819, 355.1188
2905.747, 355.6347
2907.676, 356.5014
2909.604, 358.3350
2911.533, 359.7032
2913.461, 360.2586
2915.390, 360.8282
2917.318, 361.5573
2919.247, 362.4787
2921.175, 363.7826
2923.104, 364.3880
2925.032, 364.2307
2926.960, 364.3108
2928.889, 364.6840
2930.817, 364.5293
2932.746, 363.8631
2934.674, 362.9343
2936.603, 361.8343
2938.531, 360.9813
2940.460, 360.2420
2942.388, 359.2289
2944.317, 358.0390
2946.245, 356.4123
2948.174, 355.1411
2950.102, 356.0231
2952.031, 357.0973
2953.959, 356.2841
2955.887, 354.8463
2957.816, 353.7397
2959.744, 352.4914
2961.673, 350.5692
2963.601, 348.9348
2965.530, 348.5259
2967.458, 347.7192
2969.387, 345.7499
2971.315, 343.7660
2973.244, 341.7729
2975.172, 340.6458
2977.101, 341.1641
2979.029, 340.4762
2980.958, 337.9459
2982.886, 336.3730
2984.814, 335.8008
2986.743, 334.9944
2988.671, 333.9257
2990.600, 333.6519
2992.528, 333.8682
2994.457, 332.6811
2996.385, 330.6237
2998.314, 328.5008
3000.242, 326.9302
3002.171, 327.7861
3004.099, 328.9001
3006.028, 326.9257
3007.956, 324.7507
3009.885, 324.8337
3011.813, 325.2309
3013.741, 324.5934
3015.670, 324.1615
3017.598, 324.5825
3019.527, 324.8414
3021.455, 324.7963
3023.384, 324.0908
3025.312, 321.8539
3027.241, 320.7325
3029.169, 320.9372
3031.098, 321.1446
3033.026, 321.2752
3034.955, 321.0807
3036.883, 320.6003
3038.812, 320.0269
3040.740, 319.4438
3042.668, 319.0562
3044.597, 318.9289
3046.525, 319.4505
3048.454, 320.0314
3050.382, 319.5239
3052.311, 319.1266
3054.239, 320.3811
3056.168, 321.2502
3058.096, 319.6572
3060.025, 318.8044
3061.953, 320.3042
3063.882, 321.3981
3065.810, 321.1351
3067.739, 321.2540
3069.667, 322.2981
3071.595, 323.0323
3073.524, 323.4315
3075.452, 324.2277
3077.381, 325.4053
3079.309, 326.0398
3081.238, 326.4213
3083.166, 328.2444
3085.095, 330.4532
3087.023, 330.5428
3088.952, 330.3904
3090.880, 332.4381
3092.809, 335.1455
3094.737, 337.6399
3096.666, 339.8872
3098.594, 341.4417
3100.522, 343.5225
3102.451, 347.1025
3104.379, 349.8919
3106.308, 351.3252
3108.236, 353.6641
3110.165, 357.2458
3112.093, 361.7908
3114.022, 367.2842
3115.950, 372.7130
3117.879, 378.1018
3119.807, 383.0867
3121.736, 388.4283
3123.664, 395.5537
3125.593, 403.9935
3127.521, 413.0337
3129.449, 423.3447
3131.378, 435.6530
3133.306, 448.9503
3135.235, 462.4462
3137.163, 477.7005
3139.092, 495.4769
3141.020, 513.2866
3142.949, 530.7305
3144.877, 548.1007
3146.806, 565.2988
3148.734, 581.2281
3150.663, 595.2289
3152.591, 605.1214
3154.520, 611.1293
3156.448, 613.5686
3158.376, 612.3799
3160.305, 607.9646
3162.233, 599.6563
3164.162, 585.4532
3166.090, 569.3634
3168.019, 552.3010
3169.947, 534.8217
3171.876, 516.1293
3173.804, 499.3887
3175.733, 484.8996
3177.661, 470.6168
3179.590, 456.5777
3181.518, 443.7251
3183.447, 431.9140
3185.375, 420.5816
3187.303, 410.1850
3189.232, 401.1150
3191.160, 393.5354
3193.089, 388.1061
3195.017, 383.4551
3196.946, 379.0469
3198.874, 374.9778
3200.803, 371.2366
3202.731, 367.9510
3204.660, 365.0049
3206.588, 363.2526
3208.517, 362.6500
3210.445, 362.4520
3212.374, 362.5529
3214.302, 362.3947
3216.230, 362.7807
3218.159, 365.0733
3220.087, 368.2346
3222.016, 371.4579
3223.944, 375.2113
3225.873, 379.5688
3227.801, 384.6785
3229.730, 390.3846
3231.658, 397.6342
3233.587, 406.5541
3235.515, 416.4163
3237.444, 427.0968
3239.372, 437.6498
3241.301, 448.3045
3243.229, 460.3548
3245.157, 471.8190
3247.086, 480.7450
3249.014, 487.8657
3250.943, 494.1733
3252.871, 497.5699
3254.800, 497.4464
3256.728, 495.2406
3258.657, 491.4191
3260.585, 484.4180
3262.514, 474.4355
3264.442, 464.5317
3266.371, 454.5354
3268.299, 443.2378
3270.228, 432.0276
3272.156, 423.2358
3274.084, 415.0524
3276.013, 406.6049
3277.941, 397.7924
3279.870, 387.5992
3281.798, 379.8934
3283.727, 375.4823
3285.655, 370.1473
3287.584, 363.6599
3289.512, 359.8427
3291.441, 357.6147
3293.369, 353.8619
3295.298, 349.7197
3297.226, 346.3760
3299.155, 343.6445
3301.083, 341.4564
3303.011, 339.6527
3304.940, 338.6150
3306.868, 336.8403
3308.797, 334.0985
3310.725, 333.4848
3312.654, 334.5844
3314.582, 332.8046
3316.511, 329.3851
3318.439, 326.5738
3320.368, 324.3442
3322.296, 322.9977
3324.225, 321.7070
3326.153, 320.0904
3328.082, 318.4995
3330.010, 317.0742
3331.938, 315.3416
3333.867, 313.2232
3335.795, 311.9986
3337.724, 311.2662
3339.652, 310.0897
3341.581, 308.4016
3343.509, 305.6753
3345.438, 303.1092
3347.366, 301.3998
3349.295, 300.1446
3351.223, 299.6442
3353.152, 298.4169
3355.080, 296.3872
3357.009, 294.7828
3358.937, 293.6089
3360.865, 292.9358
3362.794, 292.3192
3364.722, 290.5468
3366.651, 289.3770
3368.579, 290.5449
3370.508, 291.9012
3372.436, 293.0188
3374.365, 293.5288
3376.293, 293.1841
3378.222, 293.5601
3380.150, 294.7099
3382.079, 297.1385
3384.007, 300.0466
3385.936, 302.2781
3387.864, 304.4282
3389.792, 307.1012
3391.721, 309.2889
3393.649, 310.7775
3395.578, 311.2066
3397.506, 310.5799
3399.435, 310.1795
3401.363, 309.6925
3403.292, 307.5858
3405.220, 304.5943
3407.148, 301.2631
3409.077, 298.0862
3411.005, 295.5635
3412.934, 292.7461
3414.862, 289.3688
3416.791, 286.3375
3418.719, 283.7363
3420.648, 280.8992
3422.576, 278.0733
3424.505, 275.5746
3426.433, 273.6252
3428.362, 272.8633
3430.290, 272.0424
3432.219, 270.7224
3434.147, 269.0229
3436.075, 266.7339
3438.004, 265.4672
3439.932, 265.0123
3441.861, 264.4855
3443.789, 263.8394
3445.718, 262.9453
3447.646, 262.0767
3449.575, 261.0923
3451.503, 261.0192
3453.432, 262.4611
3455.360, 262.4616
3457.289, 260.9330
3459.217, 260.0144
3461.146, 259.6135
3463.074, 259.8724
3465.002, 260.0221
3466.931, 259.3699
3468.859, 258.5534
3470.788, 257.7125
3472.716, 257.0363
3474.645, 256.5472
3476.573, 256.1593
3478.502, 255.8422
3480.430, 255.8568
3482.359, 255.5012
3484.287, 253.0700
3486.216, 251.9429
3488.144, 253.9481
3490.073, 254.9891
3492.001, 254.1110
3493.929, 253.6861
3495.858, 253.4495
3497.786, 252.4975
3499.715, 251.3571
3501.643, 250.6636
3503.572, 250.1434
3505.500, 249.8022
3507.429, 249.3814
3509.357, 248.8506
3511.286, 248.1539
3513.214, 247.4774
3515.143, 247.6150
3517.071, 248.0764
3519.000, 248.4387
3520.928, 248.5640
3522.856, 248.4456
3524.785, 247.7790
3526.713, 246.5357
3528.642, 246.4293
3530.570, 247.0067
3532.499, 246.1181
3534.427, 245.1490
3536.356, 245.6428
3538.284, 246.3203
3540.213, 246.8524
3542.141, 246.7360
3544.070, 245.9166
3545.998, 245.3690
3547.927, 245.0230
3549.855, 244.4783
3551.783, 244.0456
3553.712, 243.7418
3555.640, 244.2458
3557.569, 246.0257
3559.497, 246.4196
3561.426, 245.1754
3563.354, 244.9259
3565.283, 244.9739
3567.211, 243.8467
3569.140, 242.6682
3571.068, 242.2942
3572.997, 241.9748
3574.925, 241.4362
3576.854, 242.0145
3578.782, 243.4478
3580.710, 243.1050
3582.639, 242.6414
3584.567, 244.8771
3586.496, 246.5859
3588.424, 246.3216
3590.353, 245.5574
3592.281, 244.4659
3594.210, 243.5805
3596.138, 243.0122
3598.067, 242.9963
3599.995, 243.3374
3601.924, 244.0535
3603.852, 244.6071
3605.781, 244.8058
3607.709, 244.9442
3609.637, 244.9434
3611.566, 243.9470
3613.494, 242.7735
3615.423, 242.6872
3617.351, 242.7525
3619.280, 242.1933
3621.208, 243.0320
3623.137, 245.4885
3625.065, 244.7199
3626.994, 242.2596
3628.922, 241.5495
3630.851, 241.8447
3632.779, 243.0517
3634.708, 243.6830
3636.636, 243.1930
3638.564, 242.8721
3640.493, 242.7692
3642.421, 243.2197
3644.350, 243.4124
3646.278, 241.9911
3648.207, 241.0636
3650.135, 242.0630
3652.064, 242.2211
3653.992, 241.5960
3655.921, 241.1246
3657.849, 240.9414
3659.778, 241.5774
3661.706, 242.0396
3663.635, 241.7940
3665.563, 241.2841
3667.491, 240.5865
3669.420, 240.8332
3671.348, 241.4408
3673.277, 241.1667
3675.205, 240.7583
3677.134, 240.3908
3679.062, 240.9326
3680.991, 242.5313
3682.919, 242.1817
3684.848, 240.7943
3686.776, 240.7182
3688.705, 241.2915
3690.633, 242.6243
3692.562, 242.8696
3694.490, 241.5985
3696.418, 240.9257
3698.347, 240.6962
3700.275, 239.5893
3702.204, 239.4439
3704.132, 243.0957
3706.061, 244.1517
3707.989, 240.5344
3709.918, 239.8396
3711.846, 241.3940
3713.775, 242.1908
3715.703, 242.5202
3717.632, 242.7493
3719.560, 242.2929
3721.489, 240.6931
3723.417, 240.9218
3725.345, 242.1181
3727.274, 240.4222
3729.202, 238.8225
3731.131, 240.1432
3733.059, 241.2049
3734.988, 241.0872
3736.916, 241.0378
3738.845, 241.0467
3740.773, 241.1638
3742.702, 241.0051
3744.630, 239.9859
3746.559, 239.6606
3748.487, 240.5713
3750.416, 241.2014
3752.344, 241.5549
3754.272, 241.4826
3756.201, 241.6516
3758.129, 242.8728
3760.058, 242.9897
3761.986, 241.3139
3763.915, 241.3040
3765.843, 242.3198
3767.772, 243.4035
3769.700, 243.8510
3771.629, 243.0813
3773.557, 242.6884
3775.486, 242.9268
3777.414, 242.7324
3779.343, 242.4669
3781.271, 242.7910
3783.199, 243.1719
3785.128, 243.4373
3787.056, 243.5190
3788.985, 243.4068
3790.913, 242.5819
3792.842, 241.8255
3794.770, 242.3642
3796.699, 242.6257
3798.627, 242.0403
3800.556, 242.3015
3802.484, 243.1574
3804.413, 242.7003
3806.341, 242.3601
3808.270, 243.9769
3810.198, 244.5266
3812.126, 243.4145
3814.055, 243.7962
3815.983, 244.8485
3817.912, 244.3658
3819.840, 243.7476
3821.769, 243.8267
3823.697, 243.7572
3825.626, 243.5142
3827.554, 243.8850
3829.483, 244.5587
3831.411, 245.3544
3833.340, 245.7031
3835.268, 245.3332
3837.197, 245.3547
3839.125, 245.6122
3841.053, 244.9942
3842.982, 244.5544
3844.910, 245.5188
3846.839, 245.7273
3848.767, 244.9279
3850.696, 244.7304
3852.624, 244.7706
3854.553, 244.2440
3856.481, 243.9373
3858.410, 244.2787
3860.338, 244.8606
3862.267, 245.6125
3864.195, 246.2538
3866.124, 246.7965
3868.052, 247.3216
3869.980, 247.3447
3871.909, 246.5918
3873.837, 246.5756
3875.766, 246.9436
3877.694, 247.3002
3879.623, 247.2929
3881.551, 246.7387
3883.480, 246.4127
3885.408, 246.4350
3887.337, 247.3427
3889.265, 248.4326
3891.194, 249.4850
3893.122, 249.3905
3895.051, 247.9891
3896.979, 247.9181
3898.907, 248.3372
3900.836, 247.7496
3902.764, 247.1652
3904.693, 246.8282
3906.621, 247.8313
3908.550, 249.4209
3910.478, 248.2708
3912.407, 247.1034
3914.335, 248.1039
3916.264, 248.7893
3918.192, 248.9661
3920.121, 249.0159
3922.049, 249.0351
3923.978, 248.9690
3925.906, 249.3129
3927.834, 250.4462
3929.763, 250.4344
3931.691, 249.8591
3933.620, 250.0173
3935.548, 249.8682
3937.477, 248.8033
3939.405, 248.8130
3941.334, 249.7339
3943.262, 250.4184
3945.191, 251.0152
3947.119, 251.8567
3949.048, 251.8028
3950.976, 250.8396
3952.905, 251.2427
3954.833, 251.5281
3956.761, 249.3452
3958.690, 248.5172
3960.618, 249.6857
3962.547, 250.2858
3964.475, 250.5742
3966.404, 251.2086
3968.332, 251.7398
3970.261, 252.0213
3972.189, 251.9928
3974.118, 251.8182
3976.046, 251.8783
3977.975, 252.0651
3979.903, 252.3212
3981.832, 252.6571
3983.760, 253.0738
3985.688, 253.8322
3987.617, 254.2297
3989.545, 253.4667
3991.474, 253.3893
3993.402, 254.1112
3995.331, 254.3206
3997.259, 254.1632
3999.188, 253.4200
4001.116, 253.3374
4003.045, 254.0424
4004.973, 254.9298
4006.902, 255.5066
4008.830, 255.0293
4010.759, 254.4660
4012.687, 254.0081
4014.615, 254.6143
4016.544, 255.6338
4018.472, 256.3461
4020.401, 256.2892
4022.329, 254.9833
4024.258, 254.7888
4026.186, 255.3729
4028.115, 256.3593
4030.043, 256.8797
4031.972, 256.6125
4033.900, 256.1701
4035.829, 256.1581
4037.757, 259.0474
4039.686, 260.6267
4041.614, 258.6457
4043.542, 257.5457
4045.471, 257.2857
4047.399, 256.7483
4049.328, 257.0544
4051.256, 259.8449
4053.185, 259.8594
4055.113, 258.3570
4057.042, 259.9968
4058.970, 261.2714
4060.899, 260.2411
4062.827, 259.9081
4064.756, 260.3810
4066.684, 261.8010
4068.613, 262.2784
4070.541, 260.3571
4072.469, 259.8748
4074.398, 260.6641
4076.326, 261.1597
4078.255, 261.1353
4080.183, 259.9164
4082.112, 259.7718
4084.040, 260.4548
4085.969, 260.7799
4087.897, 260.9521
4089.826, 260.8978
4091.754, 261.8079
4093.683, 263.2281
4095.611, 263.3672
4097.540, 263.5424
4099.468, 264.6145
4101.396, 264.0559
4103.325, 262.5927
4105.253, 263.0023
4107.182, 263.9146
4109.110, 264.8188
4111.039, 265.2777
4112.967, 265.5146
4114.896, 266.4541
4116.824, 267.0125
4118.752, 266.2642
4120.681, 267.1468
4122.609, 268.6742
4124.538, 268.8712
4126.466, 268.1394
4128.395, 266.4998
4130.323, 266.4785
4132.252, 267.4846
4134.180, 268.7888
4136.109, 269.1809
4138.037, 268.4189
4139.966, 269.1158
4141.894, 270.3741
4143.823, 270.8179
4145.751, 271.2838
4147.680, 271.9483
4149.608, 272.8729
4151.537, 273.8234
4153.465, 274.6436
4155.394, 275.0324
4157.322, 274.9768
4159.250, 274.8624
4161.179, 275.0992
4163.107, 276.3293
4165.036, 277.3350
4166.964, 278.0547
4168.893, 278.8671
4170.821, 279.3990
4172.750, 279.2891
4174.678, 279.0661
4176.606, 279.2122
4178.535, 281.1914
4180.463, 283.1939
4182.392, 284.4833
4184.320, 285.2905
4186.249, 285.9473
4188.177, 287.3111
4190.106, 288.0251
4192.034, 287.8173
4193.963, 287.6738
4195.891, 288.0118
4197.820, 289.5433
4199.748, 290.7416
4201.677, 291.4001
4203.605, 292.3770
4205.534, 293.2420
4207.462, 293.4966
4209.391, 294.1370
4211.319, 295.2559
4213.248, 297.3777
4215.176, 298.9628
4217.104, 299.1256
4219.033, 298.8526
4220.961, 298.9325
4222.890, 301.7029
4224.818, 303.6968
4226.747, 303.7262
4228.675, 304.3075
4230.604, 305.4495
4232.532, 307.5569
4234.460, 309.1624
4236.389, 310.1346
4238.317, 311.1103
4240.246, 312.3334
4242.174, 314.3809
4244.103, 315.1310
##END=



