##NAMES=Larisaite
##RRUFFID=R060879
##IDEAL CHEMISTRY=Na(H_3_O)(UO_2_)_3_(Se^4+^O_3_)_2_O_2_·4H_2_O
##LOCALITY=Repete mine, San Juan County, Utah, USA
##OWNER=RRUFF
##SOURCE=Michael Scott
##DESCRIPTION=Flattened aggregate of greenish yellow platy crystals
##STATUS=The identification of this mineral has been made only by X-ray diffraction
##URL=https://www.rruff.net/odr/rruff_sample/R060879
##DIFFRACTION SAMPLE DESCRIPTION=Powder, using Mo radiation
##CELL PARAMETERS=a: 6.97 b: 7.68 c: 17.26 alpha: 90 beta: 90 gamma: 85.8 volume: 920 crystal system: monoclinic
##FILETYPE=Raman RAW
##RAMAN WAVELENGTH=785

7.521216e+001, 0.000000e+000
7.714063e+001, 4.034761e+002
7.906909e+001, 4.004779e+002
8.099756e+001, 4.003521e+002
8.292603e+001, 4.025977e+002
8.485449e+001, 4.057818e+002
8.678296e+001, 4.109651e+002
8.871143e+001, 4.138939e+002
9.063989e+001, 4.133468e+002
9.256836e+001, 4.120076e+002
9.449683e+001, 4.084888e+002
9.642529e+001, 4.060816e+002
9.835376e+001, 4.101257e+002
1.002822e+002, 4.208604e+002
1.022107e+002, 4.390453e+002
1.041392e+002, 4.600609e+002
1.060676e+002, 4.969147e+002
1.079961e+002, 5.526971e+002
1.099246e+002, 6.286219e+002
1.118530e+002, 7.236637e+002
1.137815e+002, 8.371620e+002
1.157100e+002, 9.828486e+002
1.176384e+002, 1.107241e+003
1.195669e+002, 1.377214e+003
1.214954e+002, 1.812059e+003
1.234238e+002, 2.467702e+003
1.253523e+002, 3.484978e+003
1.272808e+002, 4.847454e+003
1.292092e+002, 6.125909e+003
1.311377e+002, 7.371112e+003
1.330662e+002, 8.375273e+003
1.349946e+002, 8.793537e+003
1.369231e+002, 9.277648e+003
1.388515e+002, 1.014055e+004
1.407800e+002, 1.138790e+004
1.427085e+002, 1.316541e+004
1.446369e+002, 1.560510e+004
1.465654e+002, 1.781584e+004
1.484939e+002, 1.980433e+004
1.504223e+002, 2.130300e+004
1.523508e+002, 2.206010e+004
1.542793e+002, 2.237783e+004
1.562077e+002, 2.267352e+004
1.581362e+002, 2.293350e+004
1.600647e+002, 2.338070e+004
1.619931e+002, 2.406900e+004
1.639216e+002, 2.482934e+004
1.658501e+002, 2.571924e+004
1.677785e+002, 2.655360e+004
1.697070e+002, 2.719218e+004
1.716355e+002, 2.763658e+004
1.735639e+002, 2.790955e+004
1.754924e+002, 2.798472e+004
1.774209e+002, 2.805617e+004
1.793493e+002, 2.815249e+004
1.812778e+002, 2.828021e+004
1.832063e+002, 2.843727e+004
1.851348e+002, 2.862690e+004
1.870632e+002, 2.887115e+004
1.889917e+002, 2.917233e+004
1.909202e+002, 2.943790e+004
1.928486e+002, 2.964816e+004
1.947771e+002, 2.985157e+004
1.967056e+002, 3.007751e+004
1.986340e+002, 3.029440e+004
2.005625e+002, 3.049204e+004
2.024910e+002, 3.066027e+004
2.044194e+002, 3.074611e+004
2.063479e+002, 3.074350e+004
2.082764e+002, 3.071719e+004
2.102048e+002, 3.063699e+004
2.121333e+002, 3.060329e+004
2.140618e+002, 3.068291e+004
2.159902e+002, 3.081854e+004
2.179187e+002, 3.094682e+004
2.198472e+002, 3.106330e+004
2.217756e+002, 3.111137e+004
2.237041e+002, 3.107448e+004
2.256326e+002, 3.101531e+004
2.275610e+002, 3.090042e+004
2.294895e+002, 3.082352e+004
2.314180e+002, 3.085931e+004
2.333464e+002, 3.096429e+004
2.352749e+002, 3.103663e+004
2.372034e+002, 3.107769e+004
2.391318e+002, 3.112521e+004
2.410603e+002, 3.118850e+004
2.429888e+002, 3.124888e+004
2.449172e+002, 3.130077e+004
2.468457e+002, 3.134998e+004
2.487742e+002, 3.140212e+004
2.507026e+002, 3.145588e+004
2.526311e+002, 3.150021e+004
2.545596e+002, 3.153349e+004
2.564880e+002, 3.159112e+004
2.584165e+002, 3.169497e+004
2.603449e+002, 3.179410e+004
2.622734e+002, 3.188802e+004
2.642019e+002, 3.195595e+004
2.661303e+002, 3.196196e+004
2.680588e+002, 3.192500e+004
2.699873e+002, 3.191843e+004
2.719157e+002, 3.194522e+004
2.738442e+002, 3.197415e+004
2.757727e+002, 3.200964e+004
2.777011e+002, 3.203090e+004
2.796296e+002, 3.202388e+004
2.815581e+002, 3.200695e+004
2.834865e+002, 3.201431e+004
2.854150e+002, 3.202417e+004
2.873435e+002, 3.196436e+004
2.892719e+002, 3.182825e+004
2.912004e+002, 3.168864e+004
2.931289e+002, 3.154791e+004
2.950573e+002, 3.142406e+004
2.969858e+002, 3.131249e+004
2.989143e+002, 3.122813e+004
3.008427e+002, 3.118886e+004
3.027712e+002, 3.118775e+004
3.046997e+002, 3.120914e+004
3.066281e+002, 3.125462e+004
3.085566e+002, 3.128299e+004
3.104851e+002, 3.129767e+004
3.124135e+002, 3.127567e+004
3.143420e+002, 3.115992e+004
3.162705e+002, 3.106006e+004
3.181989e+002, 3.107147e+004
3.201274e+002, 3.115381e+004
3.220559e+002, 3.121122e+004
3.239843e+002, 3.124618e+004
3.259128e+002, 3.133524e+004
3.278413e+002, 3.152264e+004
3.297697e+002, 3.168438e+004
3.316982e+002, 3.181324e+004
3.336267e+002, 3.189044e+004
3.355551e+002, 3.188458e+004
3.374836e+002, 3.183155e+004
3.394121e+002, 3.176716e+004
3.413405e+002, 3.170160e+004
3.432690e+002, 3.168514e+004
3.451975e+002, 3.173037e+004
3.471259e+002, 3.180503e+004
3.490544e+002, 3.190768e+004
3.509829e+002, 3.203676e+004
3.529113e+002, 3.221151e+004
3.548398e+002, 3.239596e+004
3.567683e+002, 3.257232e+004
3.586967e+002, 3.272400e+004
3.606252e+002, 3.281772e+004
3.625537e+002, 3.285120e+004
3.644821e+002, 3.281166e+004
3.664106e+002, 3.264062e+004
3.683391e+002, 3.248195e+004
3.702675e+002, 3.235902e+004
3.721960e+002, 3.225204e+004
3.741245e+002, 3.215812e+004
3.760529e+002, 3.207054e+004
3.779814e+002, 3.197342e+004
3.799099e+002, 3.187334e+004
3.818383e+002, 3.180024e+004
3.837668e+002, 3.175450e+004
3.856953e+002, 3.174148e+004
3.876237e+002, 3.174610e+004
3.895522e+002, 3.180468e+004
3.914807e+002, 3.196496e+004
3.934091e+002, 3.214659e+004
3.953376e+002, 3.227163e+004
3.972661e+002, 3.238987e+004
3.991945e+002, 3.257050e+004
4.011230e+002, 3.281255e+004
4.030515e+002, 3.309805e+004
4.049799e+002, 3.341525e+004
4.069084e+002, 3.379823e+004
4.088369e+002, 3.422554e+004
4.107654e+002, 3.474273e+004
4.126938e+002, 3.546511e+004
4.146223e+002, 3.618739e+004
4.165508e+002, 3.679250e+004
4.184792e+002, 3.726430e+004
4.204077e+002, 3.758687e+004
4.223362e+002, 3.775999e+004
4.242646e+002, 3.764977e+004
4.261931e+002, 3.709976e+004
4.281216e+002, 3.655896e+004
4.300500e+002, 3.603831e+004
4.319785e+002, 3.553335e+004
4.339070e+002, 3.502218e+004
4.358354e+002, 3.454738e+004
4.377639e+002, 3.416401e+004
4.396924e+002, 3.382582e+004
4.416208e+002, 3.346090e+004
4.435493e+002, 3.307173e+004
4.454777e+002, 3.272425e+004
4.474062e+002, 3.243399e+004
4.493347e+002, 3.215704e+004
4.512631e+002, 3.184306e+004
4.531916e+002, 3.161530e+004
4.551201e+002, 3.154119e+004
4.570485e+002, 3.151134e+004
4.589770e+002, 3.144250e+004
4.609055e+002, 3.139356e+004
4.628339e+002, 3.145812e+004
4.647624e+002, 3.160572e+004
4.666909e+002, 3.169004e+004
4.686193e+002, 3.171293e+004
4.705478e+002, 3.166971e+004
4.724763e+002, 3.154773e+004
4.744047e+002, 3.140179e+004
4.763332e+002, 3.123532e+004
4.782617e+002, 3.105428e+004
4.801901e+002, 3.085191e+004
4.821186e+002, 3.064306e+004
4.840471e+002, 3.042517e+004
4.859755e+002, 3.021147e+004
4.879040e+002, 3.002780e+004
4.898325e+002, 2.987244e+004
4.917609e+002, 2.973819e+004
4.936894e+002, 2.964127e+004
4.956179e+002, 2.952062e+004
4.975463e+002, 2.936323e+004
4.994748e+002, 2.921741e+004
5.014033e+002, 2.908014e+004
5.033317e+002, 2.898608e+004
5.052602e+002, 2.898893e+004
5.071887e+002, 2.901098e+004
5.091171e+002, 2.899450e+004
5.110456e+002, 2.894499e+004
5.129741e+002, 2.886588e+004
5.149025e+002, 2.875647e+004
5.168310e+002, 2.866998e+004
5.187595e+002, 2.860776e+004
5.206879e+002, 2.856041e+004
5.226164e+002, 2.854117e+004
5.245449e+002, 2.850125e+004
5.264733e+002, 2.841608e+004
5.284018e+002, 2.833211e+004
5.303303e+002, 2.826964e+004
5.322587e+002, 2.822439e+004
5.341872e+002, 2.820551e+004
5.361157e+002, 2.819544e+004
5.380441e+002, 2.815813e+004
5.399726e+002, 2.809715e+004
5.419011e+002, 2.804999e+004
5.438295e+002, 2.801768e+004
5.457580e+002, 2.798065e+004
5.476865e+002, 2.793392e+004
5.496149e+002, 2.789920e+004
5.515434e+002, 2.789590e+004
5.534719e+002, 2.787218e+004
5.554003e+002, 2.778037e+004
5.573288e+002, 2.769680e+004
5.592573e+002, 2.767607e+004
5.611857e+002, 2.767759e+004
5.631142e+002, 2.765475e+004
5.650427e+002, 2.761854e+004
5.669711e+002, 2.761057e+004
5.688996e+002, 2.762738e+004
5.708281e+002, 2.756529e+004
5.727565e+002, 2.741108e+004
5.746850e+002, 2.733629e+004
5.766135e+002, 2.738456e+004
5.785419e+002, 2.740810e+004
5.804704e+002, 2.736052e+004
5.823989e+002, 2.730004e+004
5.843273e+002, 2.724531e+004
5.862558e+002, 2.719206e+004
5.881843e+002, 2.714127e+004
5.901127e+002, 2.708623e+004
5.920412e+002, 2.701515e+004
5.939697e+002, 2.693387e+004
5.958981e+002, 2.685596e+004
5.978266e+002, 2.678101e+004
5.997551e+002, 2.671362e+004
6.016835e+002, 2.665424e+004
6.036120e+002, 2.659409e+004
6.055405e+002, 2.653548e+004
6.074689e+002, 2.646790e+004
6.093974e+002, 2.638674e+004
6.113259e+002, 2.630684e+004
6.132543e+002, 2.623426e+004
6.151828e+002, 2.616389e+004
6.171113e+002, 2.608391e+004
6.190397e+002, 2.601356e+004
6.209682e+002, 2.596850e+004
6.228967e+002, 2.594124e+004
6.248251e+002, 2.592585e+004
6.267536e+002, 2.591817e+004
6.286821e+002, 2.591584e+004
6.306105e+002, 2.591303e+004
6.325390e+002, 2.585366e+004
6.344675e+002, 2.573329e+004
6.363959e+002, 2.566949e+004
6.383244e+002, 2.569465e+004
6.402529e+002, 2.568548e+004
6.421813e+002, 2.559243e+004
6.441098e+002, 2.551104e+004
6.460383e+002, 2.548800e+004
6.479667e+002, 2.545683e+004
6.498952e+002, 2.537910e+004
6.518237e+002, 2.530008e+004
6.537521e+002, 2.524682e+004
6.556806e+002, 2.521672e+004
6.576091e+002, 2.522014e+004
6.595375e+002, 2.523651e+004
6.614660e+002, 2.522692e+004
6.633945e+002, 2.519067e+004
6.653229e+002, 2.510799e+004
6.672514e+002, 2.498687e+004
6.691799e+002, 2.494315e+004
6.711083e+002, 2.499814e+004
6.730368e+002, 2.500005e+004
6.749653e+002, 2.490497e+004
6.768937e+002, 2.483326e+004
6.788222e+002, 2.483450e+004
6.807507e+002, 2.482039e+004
6.826791e+002, 2.473969e+004
6.846076e+002, 2.468459e+004
6.865361e+002, 2.472930e+004
6.884645e+002, 2.476752e+004
6.903930e+002, 2.470118e+004
6.923215e+002, 2.461496e+004
6.942499e+002, 2.460677e+004
6.961784e+002, 2.463363e+004
6.981069e+002, 2.462013e+004
7.000353e+002, 2.459025e+004
7.019638e+002, 2.459845e+004
7.038923e+002, 2.464128e+004
7.058207e+002, 2.470227e+004
7.077492e+002, 2.478004e+004
7.096777e+002, 2.482453e+004
7.116061e+002, 2.481403e+004
7.135346e+002, 2.485569e+004
7.154631e+002, 2.499767e+004
7.173915e+002, 2.510660e+004
7.193200e+002, 2.513432e+004
7.212485e+002, 2.518373e+004
7.231769e+002, 2.529770e+004
7.251054e+002, 2.540343e+004
7.270339e+002, 2.546367e+004
7.289623e+002, 2.552530e+004
7.308908e+002, 2.562993e+004
7.328193e+002, 2.573230e+004
7.347477e+002, 2.580395e+004
7.366762e+002, 2.584583e+004
7.386047e+002, 2.585368e+004
7.405331e+002, 2.583373e+004
7.424616e+002, 2.581149e+004
7.443901e+002, 2.576151e+004
7.463185e+002, 2.560289e+004
7.482470e+002, 2.535340e+004
7.501755e+002, 2.512060e+004
7.521039e+002, 2.490672e+004
7.540324e+002, 2.474125e+004
7.559609e+002, 2.464219e+004
7.578893e+002, 2.451679e+004
7.598178e+002, 2.433910e+004
7.617463e+002, 2.418844e+004
7.636747e+002, 2.405849e+004
7.656032e+002, 2.396377e+004
7.675317e+002, 2.391172e+004
7.694601e+002, 2.387958e+004
7.713886e+002, 2.386973e+004
7.733171e+002, 2.386821e+004
7.752455e+002, 2.384582e+004
7.771740e+002, 2.387062e+004
7.791025e+002, 2.397725e+004
7.810309e+002, 2.414305e+004
7.829594e+002, 2.432547e+004
7.848879e+002, 2.459388e+004
7.868163e+002, 2.497101e+004
7.887448e+002, 2.549794e+004
7.906733e+002, 2.618417e+004
7.926017e+002, 2.707316e+004
7.945302e+002, 2.827943e+004
7.964587e+002, 2.971234e+004
7.983871e+002, 3.128666e+004
8.003156e+002, 3.289713e+004
8.022441e+002, 3.421541e+004
8.041725e+002, 3.521520e+004
8.061010e+002, 3.563675e+004
8.080295e+002, 3.547229e+004
8.099579e+002, 3.492239e+004
8.118864e+002, 3.395372e+004
8.138149e+002, 3.277658e+004
8.157433e+002, 3.129700e+004
8.176718e+002, 2.996891e+004
8.196002e+002, 2.880602e+004
8.215287e+002, 2.777338e+004
8.234572e+002, 2.687499e+004
8.253856e+002, 2.609607e+004
8.273141e+002, 2.544150e+004
8.292426e+002, 2.489030e+004
8.311710e+002, 2.446171e+004
8.330995e+002, 2.406450e+004
8.350280e+002, 2.365199e+004
8.369564e+002, 2.331375e+004
8.388849e+002, 2.310806e+004
8.408134e+002, 2.292902e+004
8.427418e+002, 2.270748e+004
8.446703e+002, 2.253862e+004
8.465988e+002, 2.249532e+004
8.485272e+002, 2.248671e+004
8.504557e+002, 2.244713e+004
8.523842e+002, 2.243716e+004
8.543126e+002, 2.252882e+004
8.562411e+002, 2.263033e+004
8.581696e+002, 2.267267e+004
8.600980e+002, 2.267783e+004
8.620265e+002, 2.267745e+004
8.639550e+002, 2.264779e+004
8.658834e+002, 2.256164e+004
8.678119e+002, 2.242542e+004
8.697404e+002, 2.222158e+004
8.716688e+002, 2.199239e+004
8.735973e+002, 2.182469e+004
8.755258e+002, 2.169177e+004
8.774542e+002, 2.151894e+004
8.793827e+002, 2.132722e+004
8.813112e+002, 2.117949e+004
8.832396e+002, 2.107199e+004
8.851681e+002, 2.100991e+004
8.870966e+002, 2.097782e+004
8.890250e+002, 2.088205e+004
8.909535e+002, 2.073245e+004
8.928820e+002, 2.062280e+004
8.948104e+002, 2.054995e+004
8.967389e+002, 2.047824e+004
8.986674e+002, 2.040769e+004
9.005958e+002, 2.031423e+004
9.025243e+002, 2.020162e+004
9.044528e+002, 2.014704e+004
9.063812e+002, 2.015348e+004
9.083097e+002, 2.016577e+004
9.102382e+002, 2.017881e+004
9.121666e+002, 2.015796e+004
9.140951e+002, 2.009734e+004
9.160236e+002, 2.003321e+004
9.179520e+002, 1.996717e+004
9.198805e+002, 1.992292e+004
9.218090e+002, 1.990639e+004
9.237374e+002, 1.988446e+004
9.256659e+002, 1.985437e+004
9.275944e+002, 1.981193e+004
9.295228e+002, 1.975488e+004
9.314513e+002, 1.970361e+004
9.333798e+002, 1.966268e+004
9.353082e+002, 1.962983e+004
9.372367e+002, 1.961336e+004
9.391652e+002, 1.957131e+004
9.410936e+002, 1.947879e+004
9.430221e+002, 1.942404e+004
9.449506e+002, 1.943341e+004
9.468790e+002, 1.944145e+004
9.488075e+002, 1.942742e+004
9.507360e+002, 1.943165e+004
9.526644e+002, 1.948234e+004
9.545929e+002, 1.949301e+004
9.565214e+002, 1.941828e+004
9.584498e+002, 1.936822e+004
9.603783e+002, 1.938863e+004
9.623068e+002, 1.938090e+004
9.642352e+002, 1.931331e+004
9.661637e+002, 1.925048e+004
9.680922e+002, 1.921653e+004
9.700206e+002, 1.916693e+004
9.719491e+002, 1.906688e+004
9.738776e+002, 1.900271e+004
9.758060e+002, 1.901449e+004
9.777345e+002, 1.901597e+004
9.796630e+002, 1.898929e+004
9.815914e+002, 1.895697e+004
9.835199e+002, 1.891809e+004
9.854484e+002, 1.888084e+004
9.873768e+002, 1.884894e+004
9.893053e+002, 1.881458e+004
9.912338e+002, 1.878215e+004
9.931622e+002, 1.873763e+004
9.950907e+002, 1.866525e+004
9.970192e+002, 1.860528e+004
9.989476e+002, 1.855274e+004
1.000876e+003, 1.853209e+004
1.002805e+003, 1.857782e+004
1.004733e+003, 1.859716e+004
1.006661e+003, 1.856164e+004
1.008590e+003, 1.852618e+004
1.010518e+003, 1.850594e+004
1.012447e+003, 1.847371e+004
1.014375e+003, 1.841047e+004
1.016304e+003, 1.836892e+004
1.018232e+003, 1.837278e+004
1.020161e+003, 1.836514e+004
1.022089e+003, 1.832051e+004
1.024018e+003, 1.830103e+004
1.025946e+003, 1.834807e+004
1.027875e+003, 1.834314e+004
1.029803e+003, 1.822958e+004
1.031732e+003, 1.816823e+004
1.033660e+003, 1.821182e+004
1.035589e+003, 1.820636e+004
1.037517e+003, 1.811617e+004
1.039445e+003, 1.805708e+004
1.041374e+003, 1.804874e+004
1.043302e+003, 1.801877e+004
1.045231e+003, 1.794513e+004
1.047159e+003, 1.791452e+004
1.049088e+003, 1.793754e+004
1.051016e+003, 1.796139e+004
1.052945e+003, 1.799304e+004
1.054873e+003, 1.799109e+004
1.056802e+003, 1.795130e+004
1.058730e+003, 1.792567e+004
1.060659e+003, 1.791829e+004
1.062587e+003, 1.789002e+004
1.064516e+003, 1.784092e+004
1.066444e+003, 1.776520e+004
1.068372e+003, 1.766555e+004
1.070301e+003, 1.762969e+004
1.072229e+003, 1.765102e+004
1.074158e+003, 1.768390e+004
1.076086e+003, 1.772039e+004
1.078015e+003, 1.771298e+004
1.079943e+003, 1.767073e+004
1.081872e+003, 1.762538e+004
1.083800e+003, 1.757779e+004
1.085729e+003, 1.752244e+004
1.087657e+003, 1.747166e+004
1.089586e+003, 1.746344e+004
1.091514e+003, 1.747404e+004
1.093443e+003, 1.744929e+004
1.095371e+003, 1.742288e+004
1.097299e+003, 1.747076e+004
1.099228e+003, 1.752374e+004
1.101156e+003, 1.747993e+004
1.103085e+003, 1.741314e+004
1.105013e+003, 1.738313e+004
1.106942e+003, 1.738661e+004
1.108870e+003, 1.745620e+004
1.110799e+003, 1.750994e+004
1.112727e+003, 1.746544e+004
1.114656e+003, 1.741937e+004
1.116584e+003, 1.744461e+004
1.118513e+003, 1.744823e+004
1.120441e+003, 1.737004e+004
1.122370e+003, 1.730233e+004
1.124298e+003, 1.728344e+004
1.126226e+003, 1.727239e+004
1.128155e+003, 1.726812e+004
1.130083e+003, 1.724130e+004
1.132012e+003, 1.717351e+004
1.133940e+003, 1.713632e+004
1.135869e+003, 1.715273e+004
1.137797e+003, 1.715284e+004
1.139726e+003, 1.712424e+004
1.141654e+003, 1.707417e+004
1.143583e+003, 1.700027e+004
1.145511e+003, 1.697654e+004
1.147440e+003, 1.700596e+004
1.149368e+003, 1.699404e+004
1.151297e+003, 1.694305e+004
1.153225e+003, 1.694171e+004
1.155153e+003, 1.697770e+004
1.157082e+003, 1.695665e+004
1.159010e+003, 1.689933e+004
1.160939e+003, 1.688789e+004
1.162867e+003, 1.689660e+004
1.164796e+003, 1.685693e+004
1.166724e+003, 1.680211e+004
1.168653e+003, 1.677393e+004
1.170581e+003, 1.677910e+004
1.172510e+003, 1.685229e+004
1.174438e+003, 1.692952e+004
1.176367e+003, 1.693833e+004
1.178295e+003, 1.693914e+004
1.180224e+003, 1.698871e+004
1.182152e+003, 1.702405e+004
1.184080e+003, 1.698811e+004
1.186009e+003, 1.696903e+004
1.187937e+003, 1.702323e+004
1.189866e+003, 1.705739e+004
1.191794e+003, 1.703047e+004
1.193723e+003, 1.702663e+004
1.195651e+003, 1.707873e+004
1.197580e+003, 1.707510e+004
1.199508e+003, 1.699265e+004
1.201437e+003, 1.694683e+004
1.203365e+003, 1.694716e+004
1.205294e+003, 1.692721e+004
1.207222e+003, 1.688746e+004
1.209151e+003, 1.685521e+004
1.211079e+003, 1.683336e+004
1.213007e+003, 1.684348e+004
1.214936e+003, 1.686269e+004
1.216864e+003, 1.682947e+004
1.218793e+003, 1.677532e+004
1.220721e+003, 1.674460e+004
1.222650e+003, 1.672451e+004
1.224578e+003, 1.670747e+004
1.226507e+003, 1.668718e+004
1.228435e+003, 1.666680e+004
1.230364e+003, 1.662963e+004
1.232292e+003, 1.654180e+004
1.234221e+003, 1.647885e+004
1.236149e+003, 1.648507e+004
1.238078e+003, 1.649035e+004
1.240006e+003, 1.648349e+004
1.241934e+003, 1.646904e+004
1.243863e+003, 1.644506e+004
1.245791e+003, 1.641710e+004
1.247720e+003, 1.638047e+004
1.249648e+003, 1.636317e+004
1.251577e+003, 1.636475e+004
1.253505e+003, 1.640004e+004
1.255434e+003, 1.645789e+004
1.257362e+003, 1.649171e+004
1.259291e+003, 1.651443e+004
1.261219e+003, 1.655915e+004
1.263148e+003, 1.660153e+004
1.265076e+003, 1.659199e+004
1.267005e+003, 1.659574e+004
1.268933e+003, 1.668624e+004
1.270861e+003, 1.675301e+004
1.272790e+003, 1.671774e+004
1.274718e+003, 1.669851e+004
1.276647e+003, 1.674810e+004
1.278575e+003, 1.678129e+004
1.280504e+003, 1.677821e+004
1.282432e+003, 1.677310e+004
1.284361e+003, 1.677227e+004
1.286289e+003, 1.674938e+004
1.288218e+003, 1.670630e+004
1.290146e+003, 1.671912e+004
1.292075e+003, 1.676644e+004
1.294003e+003, 1.677058e+004
1.295932e+003, 1.673453e+004
1.297860e+003, 1.665456e+004
1.299788e+003, 1.655087e+004
1.301717e+003, 1.642841e+004
1.303645e+003, 1.631896e+004
1.305574e+003, 1.625157e+004
1.307502e+003, 1.618326e+004
1.309431e+003, 1.609119e+004
1.311359e+003, 1.601922e+004
1.313288e+003, 1.598672e+004
1.315216e+003, 1.592451e+004
1.317145e+003, 1.582032e+004
1.319073e+003, 1.572847e+004
1.321002e+003, 1.565311e+004
1.322930e+003, 1.558048e+004
1.324859e+003, 1.550907e+004
1.326787e+003, 1.542762e+004
1.328715e+003, 1.534509e+004
1.330644e+003, 1.528081e+004
1.332572e+003, 1.521933e+004
1.334501e+003, 1.513123e+004
1.336429e+003, 1.505785e+004
1.338358e+003, 1.504706e+004
1.340286e+003, 1.501007e+004
1.342215e+003, 1.490958e+004
1.344143e+003, 1.482721e+004
1.346072e+003, 1.477721e+004
1.348000e+003, 1.475824e+004
1.349929e+003, 1.476703e+004
1.351857e+003, 1.474600e+004
1.353786e+003, 1.470136e+004
1.355714e+003, 1.468131e+004
1.357642e+003, 1.466070e+004
1.359571e+003, 1.457714e+004
1.361499e+003, 1.448333e+004
1.363428e+003, 1.442623e+004
1.365356e+003, 1.439685e+004
1.367285e+003, 1.441638e+004
1.369213e+003, 1.441681e+004
1.371142e+003, 1.437892e+004
1.373070e+003, 1.432610e+004
1.374999e+003, 1.425679e+004
1.376927e+003, 1.422135e+004
1.378856e+003, 1.422099e+004
1.380784e+003, 1.424407e+004
1.382713e+003, 1.428241e+004
1.384641e+003, 1.433678e+004
1.386569e+003, 1.437085e+004
1.388498e+003, 1.431832e+004
1.390426e+003, 1.424695e+004
1.392355e+003, 1.419340e+004
1.394283e+003, 1.416834e+004
1.396212e+003, 1.419555e+004
1.398140e+003, 1.421559e+004
1.400069e+003, 1.422160e+004
1.401997e+003, 1.421514e+004
1.403926e+003, 1.419673e+004
1.405854e+003, 1.418797e+004
1.407783e+003, 1.418483e+004
1.409711e+003, 1.416529e+004
1.411640e+003, 1.414683e+004
1.413568e+003, 1.415821e+004
1.415496e+003, 1.417576e+004
1.417425e+003, 1.416832e+004
1.419353e+003, 1.418394e+004
1.421282e+003, 1.426972e+004
1.423210e+003, 1.432344e+004
1.425139e+003, 1.432900e+004
1.427067e+003, 1.429947e+004
1.428996e+003, 1.423434e+004
1.430924e+003, 1.416649e+004
1.432853e+003, 1.408744e+004
1.434781e+003, 1.394547e+004
1.436710e+003, 1.380864e+004
1.438638e+003, 1.376697e+004
1.440567e+003, 1.373262e+004
1.442495e+003, 1.364343e+004
1.444423e+003, 1.357333e+004
1.446352e+003, 1.355382e+004
1.448280e+003, 1.353013e+004
1.450209e+003, 1.350113e+004
1.452137e+003, 1.342726e+004
1.454066e+003, 1.332845e+004
1.455994e+003, 1.332658e+004
1.457923e+003, 1.335906e+004
1.459851e+003, 1.332354e+004
1.461780e+003, 1.326766e+004
1.463708e+003, 1.320868e+004
1.465637e+003, 1.317326e+004
1.467565e+003, 1.318587e+004
1.469494e+003, 1.315323e+004
1.471422e+003, 1.304971e+004
1.473350e+003, 1.299186e+004
1.475279e+003, 1.297575e+004
1.477207e+003, 1.297721e+004
1.479136e+003, 1.297607e+004
1.481064e+003, 1.292394e+004
1.482993e+003, 1.286834e+004
1.484921e+003, 1.283780e+004
1.486850e+003, 1.283105e+004
1.488778e+003, 1.285986e+004
1.490707e+003, 1.284152e+004
1.492635e+003, 1.275899e+004
1.494564e+003, 1.273046e+004
1.496492e+003, 1.274032e+004
1.498421e+003, 1.269261e+004
1.500349e+003, 1.263557e+004
1.502277e+003, 1.266153e+004
1.504206e+003, 1.268609e+004
1.506134e+003, 1.265256e+004
1.508063e+003, 1.261430e+004
1.509991e+003, 1.258246e+004
1.511920e+003, 1.255778e+004
1.513848e+003, 1.253969e+004
1.515777e+003, 1.252949e+004
1.517705e+003, 1.251987e+004
1.519634e+003, 1.247951e+004
1.521562e+003, 1.244593e+004
1.523491e+003, 1.248576e+004
1.525419e+003, 1.250307e+004
1.527348e+003, 1.244493e+004
1.529276e+003, 1.240088e+004
1.531204e+003, 1.238419e+004
1.533133e+003, 1.236866e+004
1.535061e+003, 1.235159e+004
1.536990e+003, 1.232779e+004
1.538918e+003, 1.230608e+004
1.540847e+003, 1.231665e+004
1.542775e+003, 1.230913e+004
1.544704e+003, 1.222878e+004
1.546632e+003, 1.216754e+004
1.548561e+003, 1.215034e+004
1.550489e+003, 1.209616e+004
1.552418e+003, 1.201049e+004
1.554346e+003, 1.198680e+004
1.556274e+003, 1.199355e+004
1.558203e+003, 1.197195e+004
1.560131e+003, 1.194134e+004
1.562060e+003, 1.191661e+004
1.563988e+003, 1.188728e+004
1.565917e+003, 1.185082e+004
1.567845e+003, 1.180411e+004
1.569774e+003, 1.174975e+004
1.571702e+003, 1.173020e+004
1.573631e+003, 1.172544e+004
1.575559e+003, 1.168460e+004
1.577488e+003, 1.164550e+004
1.579416e+003, 1.164582e+004
1.581344e+003, 1.164209e+004
1.583273e+003, 1.161099e+004
1.585201e+003, 1.159441e+004
1.587130e+003, 1.159171e+004
1.589058e+003, 1.155013e+004
1.590987e+003, 1.147772e+004
1.592915e+003, 1.137140e+004
1.594844e+003, 1.127955e+004
1.596772e+003, 1.124295e+004
1.598701e+003, 1.122355e+004
1.600629e+003, 1.122219e+004
1.602558e+003, 1.119967e+004
1.604486e+003, 1.115585e+004
1.606415e+003, 1.111643e+004
1.608343e+003, 1.107714e+004
1.610271e+003, 1.102083e+004
1.612200e+003, 1.098135e+004
1.614128e+003, 1.099922e+004
1.616057e+003, 1.097730e+004
1.617985e+003, 1.087204e+004
1.619914e+003, 1.084482e+004
1.621842e+003, 1.087350e+004
1.623771e+003, 1.081622e+004
1.625699e+003, 1.073028e+004
1.627628e+003, 1.067379e+004
1.629556e+003, 1.064454e+004
1.631485e+003, 1.065723e+004
1.633413e+003, 1.063026e+004
1.635342e+003, 1.054749e+004
1.637270e+003, 1.049268e+004
1.639198e+003, 1.045926e+004
1.641127e+003, 1.044613e+004
1.643055e+003, 1.041660e+004
1.644984e+003, 1.032214e+004
1.646912e+003, 1.026960e+004
1.648841e+003, 1.029267e+004
1.650769e+003, 1.031663e+004
1.652698e+003, 1.032571e+004
1.654626e+003, 1.023414e+004
1.656555e+003, 1.013158e+004
1.658483e+003, 1.017187e+004
1.660412e+003, 1.019127e+004
1.662340e+003, 1.012153e+004
1.664269e+003, 1.004493e+004
1.666197e+003, 9.975822e+003
1.668125e+003, 9.963859e+003
1.670054e+003, 9.973310e+003
1.671982e+003, 9.927304e+003
1.673911e+003, 9.870609e+003
1.675839e+003, 9.827005e+003
1.677768e+003, 9.800666e+003
1.679696e+003, 9.793126e+003
1.681625e+003, 9.793124e+003
1.683553e+003, 9.790594e+003
1.685482e+003, 9.755233e+003
1.687410e+003, 9.707365e+003
1.689339e+003, 9.669729e+003
1.691267e+003, 9.608793e+003
1.693196e+003, 9.507326e+003
1.695124e+003, 9.498202e+003
1.697052e+003, 9.553808e+003
1.698981e+003, 9.521049e+003
1.700909e+003, 9.443158e+003
1.702838e+003, 9.335405e+003
1.704766e+003, 9.273091e+003
1.706695e+003, 9.296796e+003
1.708623e+003, 9.278474e+003
1.710552e+003, 9.221317e+003
1.712480e+003, 9.202884e+003
1.714409e+003, 9.194119e+003
1.716337e+003, 9.164258e+003
1.718266e+003, 9.118022e+003
1.720194e+003, 9.050645e+003
1.722123e+003, 8.989461e+003
1.724051e+003, 8.936711e+003
1.725979e+003, 8.894200e+003
1.727908e+003, 8.861578e+003
1.729836e+003, 8.840854e+003
1.731765e+003, 8.822385e+003
1.733693e+003, 8.804179e+003
1.735622e+003, 8.777621e+003
1.737550e+003, 8.741771e+003
1.739479e+003, 8.689465e+003
1.741407e+003, 8.633823e+003
1.743336e+003, 8.596180e+003
1.745264e+003, 8.553263e+003
1.747193e+003, 8.485686e+003
1.749121e+003, 8.440149e+003
1.751050e+003, 8.417074e+003
1.752978e+003, 8.413308e+003
1.754906e+003, 8.406510e+003
1.756835e+003, 8.365745e+003
1.758763e+003, 8.330253e+003
1.760692e+003, 8.324104e+003
1.762620e+003, 8.274112e+003
1.764549e+003, 8.193288e+003
1.766477e+003, 8.184517e+003
1.768406e+003, 8.183195e+003
1.770334e+003, 8.123205e+003
1.772263e+003, 8.078072e+003
1.774191e+003, 8.074971e+003
1.776120e+003, 8.046516e+003
1.778048e+003, 8.002242e+003
1.779977e+003, 7.988268e+003
1.781905e+003, 7.972095e+003
1.783833e+003, 7.928854e+003
1.785762e+003, 7.891321e+003
1.787690e+003, 7.867603e+003
1.789619e+003, 7.801371e+003
1.791547e+003, 7.721652e+003
1.793476e+003, 7.701135e+003
1.795404e+003, 7.678501e+003
1.797333e+003, 7.617054e+003
1.799261e+003, 7.599225e+003
1.801190e+003, 7.628274e+003
1.803118e+003, 7.595847e+003
1.805047e+003, 7.539005e+003
1.806975e+003, 7.497130e+003
1.808904e+003, 7.478799e+003
1.810832e+003, 7.491565e+003
1.812760e+003, 7.456585e+003
1.814689e+003, 7.390076e+003
1.816617e+003, 7.366916e+003
1.818546e+003, 7.361560e+003
1.820474e+003, 7.362868e+003
1.822403e+003, 7.341516e+003
1.824331e+003, 7.294825e+003
1.826260e+003, 7.291065e+003
1.828188e+003, 7.297875e+003
1.830117e+003, 7.256914e+003
1.832045e+003, 7.203267e+003
1.833974e+003, 7.145005e+003
1.835902e+003, 7.133730e+003
1.837831e+003, 7.150956e+003
1.839759e+003, 7.088909e+003
1.841688e+003, 7.017076e+003
1.843616e+003, 7.005920e+003
1.845544e+003, 6.993827e+003
1.847473e+003, 6.970703e+003
1.849401e+003, 6.925723e+003
1.851330e+003, 6.872962e+003
1.853258e+003, 6.841227e+003
1.855187e+003, 6.803117e+003
1.857115e+003, 6.739440e+003
1.859044e+003, 6.696925e+003
1.860972e+003, 6.676801e+003
1.862901e+003, 6.687517e+003
1.864829e+003, 6.692115e+003
1.866758e+003, 6.656712e+003
1.868686e+003, 6.612920e+003
1.870615e+003, 6.564976e+003
1.872543e+003, 6.508722e+003
1.874471e+003, 6.464019e+003
1.876400e+003, 6.472322e+003
1.878328e+003, 6.466372e+003
1.880257e+003, 6.416703e+003
1.882185e+003, 6.375501e+003
1.884114e+003, 6.340643e+003
1.886042e+003, 6.300343e+003
1.887971e+003, 6.271159e+003
1.889899e+003, 6.267279e+003
1.891828e+003, 6.259687e+003
1.893756e+003, 6.244964e+003
1.895685e+003, 6.213482e+003
1.897613e+003, 6.179042e+003
1.899542e+003, 6.153792e+003
1.901470e+003, 6.125227e+003
1.903398e+003, 6.091497e+003
1.905327e+003, 6.074831e+003
1.907255e+003, 6.053393e+003
1.909184e+003, 5.986722e+003
1.911112e+003, 5.944106e+003
1.913041e+003, 5.950113e+003
1.914969e+003, 5.944811e+003
1.916898e+003, 5.929451e+003
1.918826e+003, 5.905770e+003
1.920755e+003, 5.881534e+003
1.922683e+003, 5.858443e+003
1.924612e+003, 5.845736e+003
1.926540e+003, 5.840126e+003
1.928469e+003, 5.833699e+003
1.930397e+003, 5.822387e+003
1.932325e+003, 5.800469e+003
1.934254e+003, 5.811340e+003
1.936182e+003, 5.842999e+003
1.938111e+003, 5.815556e+003
1.940039e+003, 5.764782e+003
1.941968e+003, 5.708782e+003
1.943896e+003, 5.670494e+003
1.945825e+003, 5.654365e+003
1.947753e+003, 5.677639e+003
1.949682e+003, 5.691425e+003
1.951610e+003, 5.634780e+003
1.953539e+003, 5.595357e+003
1.955467e+003, 5.580896e+003
1.957396e+003, 5.544802e+003
1.959324e+003, 5.497037e+003
1.961252e+003, 5.444124e+003
1.963181e+003, 5.398575e+003
1.965109e+003, 5.362112e+003
1.967038e+003, 5.326280e+003
1.968966e+003, 5.298187e+003
1.970895e+003, 5.293922e+003
1.972823e+003, 5.286582e+003
1.974752e+003, 5.270557e+003
1.976680e+003, 5.234210e+003
1.978609e+003, 5.194721e+003
1.980537e+003, 5.181212e+003
1.982466e+003, 5.156476e+003
1.984394e+003, 5.112685e+003
1.986323e+003, 5.098767e+003
1.988251e+003, 5.097603e+003
1.990179e+003, 5.085074e+003
1.992108e+003, 5.071211e+003
1.994036e+003, 5.059205e+003
1.995965e+003, 5.018543e+003
1.997893e+003, 4.973928e+003
1.999822e+003, 4.971383e+003
2.001750e+003, 4.946262e+003
2.003679e+003, 4.877857e+003
2.005607e+003, 4.870826e+003
2.007536e+003, 4.882423e+003
2.009464e+003, 4.857934e+003
2.011393e+003, 4.824582e+003
2.013321e+003, 4.787800e+003
2.015250e+003, 4.764757e+003
2.017178e+003, 4.748242e+003
2.019106e+003, 4.731063e+003
2.021035e+003, 4.714604e+003
2.022963e+003, 4.699269e+003
2.024892e+003, 4.672574e+003
2.026820e+003, 4.635157e+003
2.028749e+003, 4.583936e+003
2.030677e+003, 4.539116e+003
2.032606e+003, 4.505000e+003
2.034534e+003, 4.488731e+003
2.036463e+003, 4.476260e+003
2.038391e+003, 4.455357e+003
2.040320e+003, 4.436250e+003
2.042248e+003, 4.421583e+003
2.044177e+003, 4.433444e+003
2.046105e+003, 4.423798e+003
2.048033e+003, 4.357451e+003
2.049962e+003, 4.302973e+003
2.051890e+003, 4.271205e+003
2.053819e+003, 4.280892e+003
2.055747e+003, 4.288379e+003
2.057676e+003, 4.273011e+003
2.059604e+003, 4.243805e+003
2.061533e+003, 4.210195e+003
2.063461e+003, 4.199421e+003
2.065390e+003, 4.172595e+003
2.067318e+003, 4.115530e+003
2.069247e+003, 4.120513e+003
2.071175e+003, 4.145028e+003
2.073104e+003, 4.104517e+003
2.075032e+003, 4.071724e+003
2.076960e+003, 4.060815e+003
2.078889e+003, 4.036191e+003
2.080817e+003, 4.006614e+003
2.082746e+003, 3.982344e+003
2.084674e+003, 3.961555e+003
2.086603e+003, 3.942419e+003
2.088531e+003, 3.912583e+003
2.090460e+003, 3.885323e+003
2.092388e+003, 3.869965e+003
2.094317e+003, 3.867719e+003
2.096245e+003, 3.872008e+003
2.098174e+003, 3.871570e+003
2.100102e+003, 3.847131e+003
2.102031e+003, 3.782370e+003
2.103959e+003, 3.788493e+003
2.105887e+003, 3.815600e+003
2.107816e+003, 3.763632e+003
2.109744e+003, 3.735096e+003
2.111673e+003, 3.748974e+003
2.113601e+003, 3.725722e+003
2.115530e+003, 3.696455e+003
2.117458e+003, 3.694596e+003
2.119387e+003, 3.686732e+003
2.121315e+003, 3.672142e+003
2.123244e+003, 3.671720e+003
2.125172e+003, 3.656263e+003
2.127101e+003, 3.594852e+003
2.129029e+003, 3.570452e+003
2.130958e+003, 3.564781e+003
2.132886e+003, 3.541510e+003
2.134814e+003, 3.526205e+003
2.136743e+003, 3.526254e+003
2.138671e+003, 3.477702e+003
2.140600e+003, 3.430269e+003
2.142528e+003, 3.430813e+003
2.144457e+003, 3.417267e+003
2.146385e+003, 3.390594e+003
2.148314e+003, 3.384126e+003
2.150242e+003, 3.384789e+003
2.152171e+003, 3.388829e+003
2.154099e+003, 3.374893e+003
2.156028e+003, 3.357086e+003
2.157956e+003, 3.364634e+003
2.159885e+003, 3.340211e+003
2.161813e+003, 3.279834e+003
2.163741e+003, 3.257580e+003
2.165670e+003, 3.241202e+003
2.167598e+003, 3.210817e+003
2.169527e+003, 3.191215e+003
2.171455e+003, 3.176606e+003
2.173384e+003, 3.144475e+003
2.175312e+003, 3.127002e+003
2.177241e+003, 3.130792e+003
2.179169e+003, 3.143302e+003
2.181098e+003, 3.136315e+003
2.183026e+003, 3.080084e+003
2.184955e+003, 3.044002e+003
2.186883e+003, 3.029956e+003
2.188812e+003, 3.028323e+003
2.190740e+003, 3.022365e+003
2.192668e+003, 3.007571e+003
2.194597e+003, 2.990781e+003
2.196525e+003, 2.974521e+003
2.198454e+003, 2.959204e+003
2.200382e+003, 2.958734e+003
2.202311e+003, 2.961127e+003
2.204239e+003, 2.926335e+003
2.206168e+003, 2.884093e+003
2.208096e+003, 2.844376e+003
2.210025e+003, 2.856046e+003
2.211953e+003, 2.875739e+003
2.213882e+003, 2.858231e+003
2.215810e+003, 2.835331e+003
2.217739e+003, 2.814729e+003
2.219667e+003, 2.814565e+003
2.221595e+003, 2.806109e+003
2.223524e+003, 2.780781e+003
2.225452e+003, 2.751576e+003
2.227381e+003, 2.728774e+003
2.229309e+003, 2.730207e+003
2.231238e+003, 2.707177e+003
2.233166e+003, 2.670897e+003
2.235095e+003, 2.657385e+003
2.237023e+003, 2.640799e+003
2.238952e+003, 2.614647e+003
2.240880e+003, 2.610545e+003
2.242809e+003, 2.611857e+003
2.244737e+003, 2.609345e+003
2.246666e+003, 2.592472e+003
2.248594e+003, 2.570035e+003
2.250522e+003, 2.558659e+003
2.252451e+003, 2.543840e+003
2.254379e+003, 2.524336e+003
2.256308e+003, 2.512333e+003
2.258236e+003, 2.504539e+003
2.260165e+003, 2.500379e+003
2.262093e+003, 2.488275e+003
2.264022e+003, 2.478765e+003
2.265950e+003, 2.488868e+003
2.267879e+003, 2.466273e+003
2.269807e+003, 2.422945e+003
2.271736e+003, 2.420932e+003
2.273664e+003, 2.415486e+003
2.275593e+003, 2.395079e+003
2.277521e+003, 2.381468e+003
2.279449e+003, 2.380115e+003
2.281378e+003, 2.396414e+003
2.283306e+003, 2.375500e+003
2.285235e+003, 2.341076e+003
2.287163e+003, 2.336679e+003
2.289092e+003, 2.330618e+003
2.291020e+003, 2.318237e+003
2.292949e+003, 2.298279e+003
2.294877e+003, 2.281913e+003
2.296806e+003, 2.272240e+003
2.298734e+003, 2.259994e+003
2.300663e+003, 2.248866e+003
2.302591e+003, 2.245489e+003
2.304520e+003, 2.203155e+003
2.306448e+003, 2.161807e+003
2.308376e+003, 2.210983e+003
2.310305e+003, 2.217705e+003
2.312233e+003, 2.182796e+003
2.314162e+003, 2.181336e+003
2.316090e+003, 2.167017e+003
2.318019e+003, 2.128441e+003
2.319947e+003, 2.119434e+003
2.321876e+003, 2.118023e+003
2.323804e+003, 2.108499e+003
2.325733e+003, 2.109624e+003
2.327661e+003, 2.105405e+003
2.329590e+003, 2.066142e+003
2.331518e+003, 2.042497e+003
2.333447e+003, 2.033287e+003
2.335375e+003, 2.021183e+003
2.337303e+003, 2.016375e+003
2.339232e+003, 2.019668e+003
2.341160e+003, 2.007548e+003
2.343089e+003, 2.001763e+003
2.345017e+003, 2.018004e+003
2.346946e+003, 1.983393e+003
2.348874e+003, 1.944793e+003
2.350803e+003, 1.943143e+003
2.352731e+003, 1.932947e+003
2.354660e+003, 1.919229e+003
2.356588e+003, 1.913904e+003
2.358517e+003, 1.911769e+003
2.360445e+003, 1.908511e+003
2.362374e+003, 1.888768e+003
2.364302e+003, 1.876059e+003
2.366230e+003, 1.875387e+003
2.368159e+003, 1.888289e+003
2.370087e+003, 1.885253e+003
2.372016e+003, 1.854747e+003
2.373944e+003, 1.829355e+003
2.375873e+003, 1.807898e+003
2.377801e+003, 1.788082e+003
2.379730e+003, 1.788237e+003
2.381658e+003, 1.792856e+003
2.383587e+003, 1.782313e+003
2.385515e+003, 1.776864e+003
2.387444e+003, 1.778497e+003
2.389372e+003, 1.797794e+003
2.391301e+003, 1.782911e+003
2.393229e+003, 1.741578e+003
2.395157e+003, 1.728438e+003
2.397086e+003, 1.723171e+003
2.399014e+003, 1.719369e+003
2.400943e+003, 1.713198e+003
2.402871e+003, 1.706845e+003
2.404800e+003, 1.701472e+003
2.406728e+003, 1.702136e+003
2.408657e+003, 1.688850e+003
2.410585e+003, 1.645026e+003
2.412514e+003, 1.656416e+003
2.414442e+003, 1.671159e+003
2.416371e+003, 1.622813e+003
2.418299e+003, 1.611817e+003
2.420228e+003, 1.620330e+003
2.422156e+003, 1.621434e+003
2.424084e+003, 1.614488e+003
2.426013e+003, 1.599909e+003
2.427941e+003, 1.573943e+003
2.429870e+003, 1.564373e+003
2.431798e+003, 1.563993e+003
2.433727e+003, 1.533496e+003
2.435655e+003, 1.516821e+003
2.437584e+003, 1.519182e+003
2.439512e+003, 1.519006e+003
2.441441e+003, 1.520073e+003
2.443369e+003, 1.522456e+003
2.445298e+003, 1.515213e+003
2.447226e+003, 1.506145e+003
2.449155e+003, 1.498685e+003
2.451083e+003, 1.489223e+003
2.453011e+003, 1.483236e+003
2.454940e+003, 1.484883e+003
2.456868e+003, 1.464872e+003
2.458797e+003, 1.447404e+003
2.460725e+003, 1.448866e+003
2.462654e+003, 1.442305e+003
2.464582e+003, 1.436745e+003
2.466511e+003, 1.441742e+003
2.468439e+003, 1.428600e+003
2.470368e+003, 1.409269e+003
2.472296e+003, 1.397224e+003
2.474225e+003, 1.395551e+003
2.476153e+003, 1.397727e+003
2.478082e+003, 1.397702e+003
2.480010e+003, 1.378715e+003
2.481938e+003, 1.355509e+003
2.483867e+003, 1.358108e+003
2.485795e+003, 1.351989e+003
2.487724e+003, 1.338217e+003
2.489652e+003, 1.329393e+003
2.491581e+003, 1.303989e+003
2.493509e+003, 1.278408e+003
2.495438e+003, 1.306952e+003
2.497366e+003, 1.305924e+003
2.499295e+003, 1.281929e+003
2.501223e+003, 1.289660e+003
2.503152e+003, 1.288360e+003
2.505080e+003, 1.274372e+003
2.507009e+003, 1.255580e+003
2.508937e+003, 1.248411e+003
2.510865e+003, 1.247871e+003
2.512794e+003, 1.224355e+003
2.514722e+003, 1.213999e+003
2.516651e+003, 1.217845e+003
2.518579e+003, 1.213468e+003
2.520508e+003, 1.212505e+003
2.522436e+003, 1.214697e+003
2.524365e+003, 1.211871e+003
2.526293e+003, 1.193697e+003
2.528222e+003, 1.165912e+003
2.530150e+003, 1.165202e+003
2.532079e+003, 1.165495e+003
2.534007e+003, 1.161808e+003
2.535936e+003, 1.161332e+003
2.537864e+003, 1.169711e+003
2.539792e+003, 1.182665e+003
2.541721e+003, 1.174661e+003
2.543649e+003, 1.148674e+003
2.545578e+003, 1.115176e+003
2.547506e+003, 1.128602e+003
2.549435e+003, 1.121346e+003
2.551363e+003, 1.091733e+003
2.553292e+003, 1.108250e+003
2.555220e+003, 1.112658e+003
2.557149e+003, 1.098521e+003
2.559077e+003, 1.093743e+003
2.561006e+003, 1.075008e+003
2.562934e+003, 1.048548e+003
2.564863e+003, 1.054697e+003
2.566791e+003, 1.059754e+003
2.568719e+003, 1.057385e+003
2.570648e+003, 1.046556e+003
2.572576e+003, 1.037937e+003
2.574505e+003, 1.031687e+003
2.576433e+003, 1.024139e+003
2.578362e+003, 1.015512e+003
2.580290e+003, 1.007547e+003
2.582219e+003, 1.004798e+003
2.584147e+003, 9.997309e+002
2.586076e+003, 9.924807e+002
2.588004e+003, 9.869384e+002
2.589933e+003, 9.661507e+002
2.591861e+003, 9.471818e+002
2.593790e+003, 9.651329e+002
2.595718e+003, 9.707229e+002
2.597646e+003, 9.660046e+002
2.599575e+003, 9.548632e+002
2.601503e+003, 9.525650e+002
2.603432e+003, 9.517244e+002
2.605360e+003, 9.439283e+002
2.607289e+003, 9.295383e+002
2.609217e+003, 9.189765e+002
2.611146e+003, 9.233381e+002
2.613074e+003, 9.220822e+002
2.615003e+003, 9.210817e+002
2.616931e+003, 9.268320e+002
2.618860e+003, 8.931011e+002
2.620788e+003, 8.683594e+002
2.622717e+003, 8.761299e+002
2.624645e+003, 8.756589e+002
2.626573e+003, 8.716869e+002
2.628502e+003, 8.662317e+002
2.630430e+003, 8.631148e+002
2.632359e+003, 8.568790e+002
2.634287e+003, 8.464276e+002
2.636216e+003, 8.289929e+002
2.638144e+003, 8.255719e+002
2.640073e+003, 8.322134e+002
2.642001e+003, 8.268351e+002
2.643930e+003, 8.271057e+002
2.645858e+003, 8.302322e+002
2.647787e+003, 8.279205e+002
2.649715e+003, 8.164500e+002
2.651644e+003, 8.037889e+002
2.653572e+003, 7.986068e+002
2.655500e+003, 7.989719e+002
2.657429e+003, 7.982757e+002
2.659357e+003, 7.919914e+002
2.661286e+003, 7.771484e+002
2.663214e+003, 7.666238e+002
2.665143e+003, 7.656689e+002
2.667071e+003, 7.604324e+002
2.669000e+003, 7.535151e+002
2.670928e+003, 7.474227e+002
2.672857e+003, 7.480999e+002
2.674785e+003, 7.545780e+002
2.676714e+003, 7.615247e+002
2.678642e+003, 7.570150e+002
2.680571e+003, 7.461292e+002
2.682499e+003, 7.345780e+002
2.684427e+003, 7.309738e+002
2.686356e+003, 7.241886e+002
2.688284e+003, 7.195948e+002
2.690213e+003, 7.288847e+002
2.692141e+003, 7.177725e+002
2.694070e+003, 7.046616e+002
2.695998e+003, 7.035820e+002
2.697927e+003, 6.937019e+002
2.699855e+003, 6.901518e+002
2.701784e+003, 6.955615e+002
2.703712e+003, 6.695397e+002
2.705641e+003, 6.647427e+002
2.707569e+003, 6.791483e+002
2.709498e+003, 6.704238e+002
2.711426e+003, 6.610922e+002
2.713354e+003, 6.556458e+002
2.715283e+003, 6.555385e+002
2.717211e+003, 6.543787e+002
2.719140e+003, 6.467377e+002
2.721068e+003, 6.297635e+002
2.722997e+003, 6.482119e+002
2.724925e+003, 6.561483e+002
2.726854e+003, 6.346976e+002
2.728782e+003, 6.260533e+002
2.730711e+003, 6.278506e+002
2.732639e+003, 6.315703e+002
2.734568e+003, 6.091163e+002
2.736496e+003, 5.949163e+002
2.738425e+003, 5.889748e+002
2.740353e+003, 5.843765e+002
2.742281e+003, 5.880942e+002
2.744210e+003, 5.959679e+002
2.746138e+003, 6.036105e+002
2.748067e+003, 5.811653e+002
2.749995e+003, 5.711687e+002
2.751924e+003, 5.818298e+002
2.753852e+003, 5.782473e+002
2.755781e+003, 5.747255e+002
2.757709e+003, 5.706976e+002
2.759638e+003, 5.548600e+002
2.761566e+003, 5.532922e+002
2.763495e+003, 5.525427e+002
2.765423e+003, 5.349025e+002
2.767352e+003, 5.342262e+002
2.769280e+003, 5.372149e+002
2.771208e+003, 5.371539e+002
2.773137e+003, 5.316330e+002
2.775065e+003, 5.349637e+002
2.776994e+003, 5.388274e+002
2.778922e+003, 5.118765e+002
2.780851e+003, 5.082817e+002
2.782779e+003, 5.117105e+002
2.784708e+003, 4.971430e+002
2.786636e+003, 5.156564e+002
2.788565e+003, 5.238632e+002
2.790493e+003, 5.038415e+002
2.792422e+003, 4.952553e+002
2.794350e+003, 4.919408e+002
2.796279e+003, 4.926604e+002
2.798207e+003, 4.997940e+002
2.800135e+003, 4.910485e+002
2.802064e+003, 4.787978e+002
2.803992e+003, 4.746782e+002
2.805921e+003, 4.724381e+002
2.807849e+003, 4.711940e+002
2.809778e+003, 4.694612e+002
2.811706e+003, 4.642935e+002
2.813635e+003, 4.410356e+002
2.815563e+003, 4.198926e+002
2.817492e+003, 4.350770e+002
2.819420e+003, 4.315563e+002
2.821349e+003, 4.258212e+002
2.823277e+003, 4.284852e+002
2.825206e+003, 4.273044e+002
2.827134e+003, 4.338920e+002
2.829063e+003, 4.424831e+002
2.830991e+003, 4.297050e+002
2.832919e+003, 4.258718e+002
2.834848e+003, 4.259037e+002
2.836776e+003, 4.229487e+002
2.838705e+003, 4.256654e+002
2.840633e+003, 4.165887e+002
2.842562e+003, 3.986614e+002
2.844490e+003, 4.026537e+002
2.846419e+003, 4.004168e+002
2.848347e+003, 3.957754e+002
2.850276e+003, 4.002477e+002
2.852204e+003, 3.985400e+002
2.854133e+003, 3.932555e+002
2.856061e+003, 3.865689e+002
2.857990e+003, 3.823354e+002
2.859918e+003, 3.881686e+002
2.861846e+003, 3.937436e+002
2.863775e+003, 3.844906e+002
2.865703e+003, 3.815097e+002
2.867632e+003, 3.761044e+002
2.869560e+003, 3.650944e+002
2.871489e+003, 3.623266e+002
2.873417e+003, 3.531539e+002
2.875346e+003, 3.449748e+002
2.877274e+003, 3.513011e+002
2.879203e+003, 3.405470e+002
2.881131e+003, 3.358730e+002
2.883060e+003, 3.467191e+002
2.884988e+003, 3.522801e+002
2.886917e+003, 3.510891e+002
2.888845e+003, 3.464973e+002
2.890773e+003, 3.432405e+002
2.892702e+003, 3.371270e+002
2.894630e+003, 3.307386e+002
2.896559e+003, 3.258006e+002
2.898487e+003, 3.232576e+002
2.900416e+003, 3.253795e+002
2.902344e+003, 3.250526e+002
2.904273e+003, 3.135861e+002
2.906201e+003, 3.101676e+002
2.908130e+003, 3.072400e+002
2.910058e+003, 3.041317e+002
2.911987e+003, 3.108390e+002
2.913915e+003, 3.122667e+002
2.915844e+003, 3.066030e+002
2.917772e+003, 2.939400e+002
2.919700e+003, 2.851487e+002
2.921629e+003, 2.887634e+002
2.923557e+003, 2.966904e+002
2.925486e+003, 2.831317e+002
2.927414e+003, 2.861063e+002
2.929343e+003, 2.877701e+002
2.931271e+003, 2.757268e+002
2.933200e+003, 2.730898e+002
2.935128e+003, 2.768602e+002
2.937057e+003, 2.802487e+002
2.938985e+003, 2.751615e+002
2.940914e+003, 2.794648e+002
2.942842e+003, 2.723574e+002
2.944771e+003, 2.530068e+002
2.946699e+003, 2.564083e+002
2.948627e+003, 2.552515e+002
2.950556e+003, 2.533294e+002
2.952484e+003, 2.562222e+002
2.954413e+003, 2.584691e+002
2.956341e+003, 2.552549e+002
2.958270e+003, 2.492751e+002
2.960198e+003, 2.470328e+002
2.962127e+003, 2.419882e+002
2.964055e+003, 2.459300e+002
2.965984e+003, 2.571767e+002
2.967912e+003, 2.459287e+002
2.969841e+003, 2.447659e+002
2.971769e+003, 2.413674e+002
2.973698e+003, 2.240945e+002
2.975626e+003, 2.248088e+002
2.977554e+003, 2.265266e+002
2.979483e+003, 2.266785e+002
2.981411e+003, 2.309712e+002
2.983340e+003, 2.193820e+002
2.985268e+003, 2.184853e+002
2.987197e+003, 2.303457e+002
2.989125e+003, 2.259886e+002
2.991054e+003, 2.228234e+002
2.992982e+003, 2.195275e+002
2.994911e+003, 2.136898e+002
2.996839e+003, 2.031418e+002
2.998768e+003, 2.114524e+002
3.000696e+003, 2.202520e+002
3.002625e+003, 2.031170e+002
3.004553e+003, 2.005217e+002
3.006481e+003, 1.987008e+002
3.008410e+003, 1.973288e+002
3.010338e+003, 2.049416e+002
3.012267e+003, 2.009842e+002
3.014195e+003, 1.970489e+002
3.016124e+003, 1.962330e+002
3.018052e+003, 1.865265e+002
3.019981e+003, 1.812650e+002
3.021909e+003, 1.811466e+002
3.023838e+003, 1.841432e+002
3.025766e+003, 1.821093e+002
3.027695e+003, 1.844067e+002
3.029623e+003, 1.880339e+002
3.031552e+003, 1.880098e+002
3.033480e+003, 1.732470e+002
3.035408e+003, 1.702935e+002
3.037337e+003, 1.729406e+002
3.039265e+003, 1.648008e+002
3.041194e+003, 1.663654e+002
3.043122e+003, 1.682665e+002
3.045051e+003, 1.673892e+002
3.046979e+003, 1.631702e+002
3.048907e+003, 1.692263e+002
3.050836e+003, 1.668629e+002
3.052764e+003, 1.566316e+002
3.054693e+003, 1.572680e+002
3.056621e+003, 1.685203e+002
3.058550e+003, 1.703822e+002
3.060478e+003, 1.593093e+002
3.062407e+003, 1.605593e+002
3.064335e+003, 1.560750e+002
3.066264e+003, 1.527739e+002
3.068192e+003, 1.539675e+002
3.070121e+003, 1.435118e+002
3.072049e+003, 1.479242e+002
3.073978e+003, 1.508980e+002
3.075906e+003, 1.410281e+002
3.077834e+003, 1.494405e+002
3.079763e+003, 1.464951e+002
3.081691e+003, 1.416530e+002
3.083620e+003, 1.455413e+002
3.085548e+003, 1.529104e+002
3.087477e+003, 1.449164e+002
3.089405e+003, 1.346619e+002
3.091334e+003, 1.357539e+002
3.093262e+003, 1.439796e+002
3.095191e+003, 1.414244e+002
3.097119e+003, 1.347175e+002
3.099048e+003, 1.332857e+002
3.100976e+003, 1.328744e+002
3.102905e+003, 1.277244e+002
3.104833e+003, 1.216321e+002
3.106761e+003, 1.196333e+002
3.108690e+003, 1.228851e+002
3.110618e+003, 1.224580e+002
3.112547e+003, 1.221524e+002
3.114475e+003, 1.272051e+002
3.116404e+003, 1.258663e+002
3.118332e+003, 1.222303e+002
3.120261e+003, 1.177178e+002
3.122189e+003, 1.128723e+002
3.124118e+003, 1.168845e+002
3.126046e+003, 1.204680e+002
3.127975e+003, 1.186251e+002
3.129903e+003, 1.092234e+002
3.131832e+003, 1.101262e+002
3.133760e+003, 1.138012e+002
3.135688e+003, 1.123443e+002
3.137617e+003, 1.023148e+002
3.139545e+003, 1.114611e+002
3.141474e+003, 1.133884e+002
3.143402e+003, 1.106159e+002
3.145331e+003, 1.086341e+002
3.147259e+003, 1.057345e+002
3.149188e+003, 1.067426e+002
3.151116e+003, 1.072860e+002
3.153045e+003, 1.054181e+002
3.154973e+003, 1.072310e+002
3.156902e+003, 1.077339e+002
3.158830e+003, 1.082474e+002
3.160759e+003, 1.083260e+002
3.162687e+003, 1.021831e+002
3.164615e+003, 9.843423e+001
3.166544e+003, 1.079403e+002
3.168472e+003, 1.202596e+002
3.170401e+003, 9.788264e+001
3.172329e+003, 1.077310e+002
3.174258e+003, 1.101693e+002
3.176186e+003, 1.024480e+002
3.178115e+003, 1.068302e+002
3.180043e+003, 9.983363e+001
3.181972e+003, 9.339474e+001
3.183900e+003, 9.185893e+001
3.185829e+003, 9.577840e+001
3.187757e+003, 1.044000e+002
3.189686e+003, 1.122628e+002
3.191614e+003, 1.136201e+002
3.193542e+003, 1.060494e+002
3.195471e+003, 1.035895e+002
3.197399e+003, 1.035868e+002
3.199328e+003, 1.040836e+002
3.201256e+003, 1.044887e+002
3.203185e+003, 1.062181e+002
3.205113e+003, 1.096566e+002
3.207042e+003, 1.086770e+002
3.208970e+003, 1.041438e+002
3.210899e+003, 1.034347e+002
3.212827e+003, 1.106023e+002
3.214756e+003, 1.108056e+002
3.216684e+003, 1.072534e+002
3.218613e+003, 1.095294e+002
3.220541e+003, 1.137171e+002
3.222469e+003, 1.071496e+002
3.224398e+003, 1.016215e+002
3.226326e+003, 1.054186e+002
3.228255e+003, 1.047938e+002
3.230183e+003, 1.095942e+002
3.232112e+003, 1.137865e+002
3.234040e+003, 1.145031e+002
3.235969e+003, 1.139026e+002
3.237897e+003, 1.075105e+002
3.239826e+003, 1.060659e+002
3.241754e+003, 1.115395e+002
3.243683e+003, 1.216201e+002
3.245611e+003, 1.192545e+002
3.247540e+003, 1.211844e+002
3.249468e+003, 1.260788e+002
3.251396e+003, 1.311840e+002
3.253325e+003, 1.425678e+002
3.255253e+003, 1.344275e+002
3.257182e+003, 1.291033e+002
3.259110e+003, 1.340795e+002
3.261039e+003, 1.425941e+002
3.262967e+003, 1.374266e+002
3.264896e+003, 1.332025e+002
3.266824e+003, 1.345359e+002
3.268753e+003, 1.388009e+002
3.270681e+003, 1.251019e+002
3.272610e+003, 1.169258e+002
3.274538e+003, 1.211135e+002
3.276467e+003, 1.270390e+002
3.278395e+003, 1.124315e+002
3.280323e+003, 1.122753e+002
3.282252e+003, 1.127443e+002
3.284180e+003, 1.138782e+002
3.286109e+003, 1.175068e+002
3.288037e+003, 1.103424e+002
3.289966e+003, 1.076030e+002
3.291894e+003, 1.020763e+002
3.293823e+003, 9.558601e+001
3.295751e+003, 9.937254e+001
3.297680e+003, 1.009073e+002
3.299608e+003, 9.468185e+001
3.301537e+003, 9.073627e+001
3.303465e+003, 9.550856e+001
3.305394e+003, 9.489239e+001
3.307322e+003, 9.422750e+001
3.309250e+003, 9.310483e+001
3.311179e+003, 9.192767e+001
3.313107e+003, 9.194510e+001
3.315036e+003, 9.223866e+001
3.316964e+003, 8.920739e+001
3.318893e+003, 8.706640e+001
3.320821e+003, 8.864537e+001
3.322750e+003, 9.272853e+001
3.324678e+003, 1.000842e+002
3.326607e+003, 1.058569e+002
3.328535e+003, 1.093817e+002
3.330464e+003, 1.119707e+002
3.332392e+003, 1.180395e+002
3.334321e+003, 1.121721e+002
3.336249e+003, 1.035872e+002
3.338177e+003, 9.974668e+001
3.340106e+003, 1.023831e+002
3.342034e+003, 9.254673e+001
3.343963e+003, 9.404407e+001
3.345891e+003, 9.603626e+001
3.347820e+003, 9.274971e+001
3.349748e+003, 9.425668e+001
3.351677e+003, 9.753503e+001
3.353605e+003, 9.568487e+001
3.355534e+003, 9.127270e+001
3.357462e+003, 8.927963e+001
3.359391e+003, 9.619954e+001
3.361319e+003, 9.170059e+001
3.363248e+003, 8.687688e+001
3.365176e+003, 8.263024e+001
3.367104e+003, 7.732417e+001
3.369033e+003, 9.250932e+001
3.370961e+003, 8.755404e+001
3.372890e+003, 8.066431e+001
3.374818e+003, 7.624290e+001
3.376747e+003, 6.697284e+001
3.378675e+003, 6.872180e+001
3.380604e+003, 6.907098e+001
3.382532e+003, 7.029543e+001
3.384461e+003, 7.147320e+001
3.386389e+003, 6.816778e+001
3.388318e+003, 6.449237e+001
3.390246e+003, 6.517664e+001
3.392175e+003, 6.575192e+001
3.394103e+003, 6.432395e+001
3.396031e+003, 6.249170e+001
3.397960e+003, 5.784720e+001
3.399888e+003, 5.415509e+001
3.401817e+003, 5.428640e+001
3.403745e+003, 5.676526e+001
3.405674e+003, 5.675626e+001
3.407602e+003, 6.037217e+001
3.409531e+003, 6.042230e+001
3.411459e+003, 5.478155e+001
3.413388e+003, 4.856651e+001
3.415316e+003, 5.226406e+001
3.417245e+003, 5.844744e+001
3.419173e+003, 6.047413e+001
3.421102e+003, 6.113381e+001
3.423030e+003, 6.062025e+001
3.424958e+003, 5.413088e+001
3.426887e+003, 5.263474e+001
##END=



