##NAMES=Larnite
##RRUFFID=R070530
##IDEAL CHEMISTRY=Ca_2_(SiO_4_)
##LOCALITY=Larne, County Antrim, Northern Ireland, UK
##OWNER=RRUFF
##SOURCE=Michael Scott
##DESCRIPTION=Light gray massive
##STATUS=The identification of this mineral has been confirmed by single-crystal X-ray diffraction
##URL=https://www.rruff.net/odr/rruff_sample/R070530
##DIFFRACTION SAMPLE DESCRIPTION=Single crystal, powder profile is calculated
##CELL PARAMETERS=a: 5.515 b: 6.764 c: 9.323 alpha: 90 beta: 94.48 gamma: 90 volume: 346.6 crystal system: monoclinic
##FILETYPE=Raman RAW
##RAMAN WAVELENGTH=785

7.084375e+001, 6.760275e+001
7.277222e+001, 6.362928e+001
7.470068e+001, 6.321839e+001
7.662915e+001, 6.656516e+001
7.855762e+001, 7.240044e+001
8.048608e+001, 8.127341e+001
8.241455e+001, 9.200922e+001
8.434302e+001, 1.031821e+002
8.627148e+001, 1.149371e+002
8.819995e+001, 1.308108e+002
9.012842e+001, 1.521850e+002
9.205688e+001, 1.730995e+002
9.398535e+001, 1.921414e+002
9.591382e+001, 1.979141e+002
9.784229e+001, 1.910597e+002
9.977075e+001, 1.858244e+002
1.016992e+002, 1.799577e+002
1.036277e+002, 1.732076e+002
1.055562e+002, 1.674545e+002
1.074846e+002, 1.620314e+002
1.094131e+002, 1.581928e+002
1.113416e+002, 1.573432e+002
1.132700e+002, 1.588332e+002
1.151985e+002, 1.590060e+002
1.171270e+002, 1.573998e+002
1.190554e+002, 1.559549e+002
1.209839e+002, 1.548727e+002
1.229124e+002, 1.542198e+002
1.248408e+002, 1.543927e+002
1.267693e+002, 1.550509e+002
1.286978e+002, 1.546365e+002
1.306262e+002, 1.528204e+002
1.325547e+002, 1.512712e+002
1.344832e+002, 1.506350e+002
1.364116e+002, 1.501881e+002
1.383401e+002, 1.495114e+002
1.402686e+002, 1.487142e+002
1.421970e+002, 1.482599e+002
1.441255e+002, 1.482891e+002
1.460540e+002, 1.477778e+002
1.479824e+002, 1.458931e+002
1.499109e+002, 1.440531e+002
1.518394e+002, 1.424578e+002
1.537678e+002, 1.415130e+002
1.556963e+002, 1.419383e+002
1.576248e+002, 1.437513e+002
1.595532e+002, 1.462974e+002
1.614817e+002, 1.508285e+002
1.634102e+002, 1.544185e+002
1.653386e+002, 1.556565e+002
1.672671e+002, 1.556295e+002
1.691956e+002, 1.558932e+002
1.711240e+002, 1.564197e+002
1.730525e+002, 1.564573e+002
1.749810e+002, 1.550965e+002
1.769094e+002, 1.543035e+002
1.788379e+002, 1.544384e+002
1.807664e+002, 1.553100e+002
1.826948e+002, 1.567766e+002
1.846233e+002, 1.587943e+002
1.865518e+002, 1.612973e+002
1.884802e+002, 1.639543e+002
1.904087e+002, 1.677889e+002
1.923372e+002, 1.735124e+002
1.942656e+002, 1.797981e+002
1.961941e+002, 1.862176e+002
1.981226e+002, 1.924821e+002
2.000510e+002, 1.981169e+002
2.019795e+002, 2.037409e+002
2.039080e+002, 2.067447e+002
2.058364e+002, 2.055057e+002
2.077649e+002, 2.038117e+002
2.096934e+002, 2.031691e+002
2.116218e+002, 2.027670e+002
2.135503e+002, 2.016727e+002
2.154788e+002, 1.997977e+002
2.174072e+002, 1.979385e+002
2.193357e+002, 1.956447e+002
2.212642e+002, 1.941109e+002
2.231926e+002, 1.943171e+002
2.251211e+002, 1.945767e+002
2.270496e+002, 1.933267e+002
2.289780e+002, 1.911675e+002
2.309065e+002, 1.906814e+002
2.328350e+002, 1.930039e+002
2.347634e+002, 1.940868e+002
2.366919e+002, 1.934052e+002
2.386204e+002, 1.920890e+002
2.405488e+002, 1.903679e+002
2.424773e+002, 1.884910e+002
2.444058e+002, 1.867883e+002
2.463342e+002, 1.852734e+002
2.482627e+002, 1.832496e+002
2.501912e+002, 1.801133e+002
2.521196e+002, 1.783471e+002
2.540481e+002, 1.794748e+002
2.559766e+002, 1.812299e+002
2.579050e+002, 1.825343e+002
2.598335e+002, 1.834036e+002
2.617620e+002, 1.834884e+002
2.636904e+002, 1.826050e+002
2.656189e+002, 1.833427e+002
2.675474e+002, 1.862895e+002
2.694758e+002, 1.900449e+002
2.714043e+002, 1.948006e+002
2.733328e+002, 1.994580e+002
2.752612e+002, 2.028479e+002
2.771897e+002, 2.052849e+002
2.791182e+002, 2.085500e+002
2.810466e+002, 2.128177e+002
2.829751e+002, 2.161429e+002
2.849036e+002, 2.177084e+002
2.868320e+002, 2.188378e+002
2.887605e+002, 2.197492e+002
2.906890e+002, 2.207082e+002
2.926174e+002, 2.218265e+002
2.945459e+002, 2.232578e+002
2.964744e+002, 2.255760e+002
2.984028e+002, 2.287518e+002
3.003313e+002, 2.331252e+002
3.022598e+002, 2.403179e+002
3.041882e+002, 2.468804e+002
3.061167e+002, 2.497637e+002
3.080452e+002, 2.521977e+002
3.099736e+002, 2.594468e+002
3.119021e+002, 2.704294e+002
3.138306e+002, 2.812476e+002
3.157590e+002, 2.923499e+002
3.176875e+002, 3.007072e+002
3.196160e+002, 3.050909e+002
3.215445e+002, 3.077423e+002
3.234729e+002, 3.100283e+002
3.254014e+002, 3.108802e+002
3.273299e+002, 3.087264e+002
3.292583e+002, 3.038945e+002
3.311868e+002, 2.978938e+002
3.331153e+002, 2.897563e+002
3.350437e+002, 2.829765e+002
3.369722e+002, 2.788384e+002
3.389007e+002, 2.749987e+002
3.408291e+002, 2.695458e+002
3.427576e+002, 2.645001e+002
3.446861e+002, 2.619120e+002
3.466145e+002, 2.616708e+002
3.485430e+002, 2.628801e+002
3.504715e+002, 2.651783e+002
3.523999e+002, 2.698152e+002
3.543284e+002, 2.779494e+002
3.562569e+002, 2.868756e+002
3.581853e+002, 2.950910e+002
3.601138e+002, 3.040229e+002
3.620423e+002, 3.159187e+002
3.639707e+002, 3.299326e+002
3.658992e+002, 3.407755e+002
3.678277e+002, 3.485896e+002
3.697561e+002, 3.524149e+002
3.716846e+002, 3.508931e+002
3.736131e+002, 3.478393e+002
3.755415e+002, 3.444727e+002
3.774700e+002, 3.399500e+002
3.793985e+002, 3.327826e+002
3.813269e+002, 3.242286e+002
3.832554e+002, 3.176325e+002
3.851839e+002, 3.130285e+002
3.871123e+002, 3.106519e+002
3.890408e+002, 3.110754e+002
3.909693e+002, 3.119930e+002
3.928977e+002, 3.115788e+002
3.948262e+002, 3.133498e+002
3.967547e+002, 3.190391e+002
3.986831e+002, 3.279576e+002
4.006116e+002, 3.392005e+002
4.025401e+002, 3.528109e+002
4.044685e+002, 3.695839e+002
4.063970e+002, 3.897647e+002
4.083255e+002, 4.106334e+002
4.102539e+002, 4.302273e+002
4.121824e+002, 4.535845e+002
4.141109e+002, 4.834016e+002
4.160393e+002, 5.172410e+002
4.179678e+002, 5.555397e+002
4.198963e+002, 5.961006e+002
4.218247e+002, 6.338060e+002
4.237532e+002, 6.686464e+002
4.256817e+002, 6.984680e+002
4.276101e+002, 7.236613e+002
4.295386e+002, 7.414509e+002
4.314671e+002, 7.513994e+002
4.333955e+002, 7.524710e+002
4.353240e+002, 7.424674e+002
4.372525e+002, 7.248496e+002
4.391809e+002, 7.010168e+002
4.411094e+002, 6.728134e+002
4.430379e+002, 6.470953e+002
4.449663e+002, 6.238906e+002
4.468948e+002, 6.000554e+002
4.488233e+002, 5.745797e+002
4.507517e+002, 5.499241e+002
4.526802e+002, 5.262069e+002
4.546087e+002, 5.038781e+002
4.565371e+002, 4.837993e+002
4.584656e+002, 4.647105e+002
4.603941e+002, 4.446972e+002
4.623225e+002, 4.244467e+002
4.642510e+002, 4.058016e+002
4.661795e+002, 3.887901e+002
4.681079e+002, 3.738184e+002
4.700364e+002, 3.611446e+002
4.719649e+002, 3.502770e+002
4.738933e+002, 3.418773e+002
4.758218e+002, 3.342923e+002
4.777503e+002, 3.258399e+002
4.796787e+002, 3.184837e+002
4.816072e+002, 3.152181e+002
4.835357e+002, 3.146085e+002
4.854641e+002, 3.131237e+002
4.873926e+002, 3.105203e+002
4.893211e+002, 3.082791e+002
4.912495e+002, 3.053099e+002
4.931780e+002, 3.046759e+002
4.951065e+002, 3.076616e+002
4.970349e+002, 3.116155e+002
4.989634e+002, 3.155119e+002
5.008919e+002, 3.198535e+002
5.028203e+002, 3.256021e+002
5.047488e+002, 3.318942e+002
5.066773e+002, 3.370817e+002
5.086057e+002, 3.411947e+002
5.105342e+002, 3.437953e+002
5.124626e+002, 3.446929e+002
5.143911e+002, 3.443375e+002
5.163196e+002, 3.425812e+002
5.182480e+002, 3.398193e+002
5.201765e+002, 3.362867e+002
5.221050e+002, 3.315773e+002
5.240334e+002, 3.243990e+002
5.259619e+002, 3.166724e+002
5.278904e+002, 3.106488e+002
5.298188e+002, 3.061877e+002
5.317473e+002, 3.029806e+002
5.336758e+002, 3.017213e+002
5.356042e+002, 2.978608e+002
5.375327e+002, 2.907974e+002
5.394612e+002, 2.832280e+002
5.413896e+002, 2.750858e+002
5.433181e+002, 2.677312e+002
5.452466e+002, 2.618195e+002
5.471750e+002, 2.569237e+002
5.491035e+002, 2.526621e+002
5.510320e+002, 2.493225e+002
5.529604e+002, 2.478044e+002
5.548889e+002, 2.477974e+002
5.568174e+002, 2.470066e+002
5.587458e+002, 2.454168e+002
5.606743e+002, 2.440060e+002
5.626028e+002, 2.429138e+002
5.645313e+002, 2.417128e+002
5.664598e+002, 2.398606e+002
5.683882e+002, 2.386399e+002
5.703167e+002, 2.391006e+002
5.722452e+002, 2.396307e+002
5.741736e+002, 2.387153e+002
5.761021e+002, 2.374346e+002
5.780306e+002, 2.377294e+002
5.799590e+002, 2.390719e+002
5.818875e+002, 2.392502e+002
5.838160e+002, 2.383720e+002
5.857444e+002, 2.377362e+002
5.876729e+002, 2.372920e+002
5.896014e+002, 2.381320e+002
5.915298e+002, 2.417022e+002
5.934583e+002, 2.444974e+002
5.953868e+002, 2.447264e+002
5.973152e+002, 2.451004e+002
5.992437e+002, 2.476178e+002
6.011722e+002, 2.505073e+002
6.031006e+002, 2.516481e+002
6.050291e+002, 2.518839e+002
6.069576e+002, 2.528689e+002
6.088860e+002, 2.544682e+002
6.108145e+002, 2.560853e+002
6.127430e+002, 2.577070e+002
6.146714e+002, 2.591828e+002
6.165999e+002, 2.604395e+002
6.185284e+002, 2.616918e+002
6.204568e+002, 2.633819e+002
6.223853e+002, 2.644923e+002
6.243138e+002, 2.641921e+002
6.262422e+002, 2.638668e+002
6.281707e+002, 2.644620e+002
6.300992e+002, 2.654080e+002
6.320276e+002, 2.668098e+002
6.339561e+002, 2.677869e+002
6.358846e+002, 2.661695e+002
6.378130e+002, 2.622332e+002
6.397415e+002, 2.593461e+002
6.416700e+002, 2.581332e+002
6.435984e+002, 2.557066e+002
6.455269e+002, 2.511452e+002
6.474554e+002, 2.470326e+002
6.493839e+002, 2.434612e+002
6.513123e+002, 2.404454e+002
6.532408e+002, 2.387970e+002
6.551693e+002, 2.365367e+002
6.570977e+002, 2.317067e+002
6.590262e+002, 2.267918e+002
6.609547e+002, 2.235521e+002
6.628831e+002, 2.215885e+002
6.648116e+002, 2.208996e+002
6.667401e+002, 2.209364e+002
6.686685e+002, 2.192518e+002
6.705970e+002, 2.157254e+002
6.725255e+002, 2.133965e+002
6.744539e+002, 2.125093e+002
6.763824e+002, 2.112521e+002
6.783109e+002, 2.092926e+002
6.802393e+002, 2.079618e+002
6.821678e+002, 2.081261e+002
6.840963e+002, 2.075614e+002
6.860247e+002, 2.052115e+002
6.879532e+002, 2.022154e+002
6.898817e+002, 1.984542e+002
6.918101e+002, 1.950640e+002
6.937386e+002, 1.938300e+002
6.956671e+002, 1.928584e+002
6.975955e+002, 1.889478e+002
6.995240e+002, 1.832411e+002
7.014525e+002, 1.789974e+002
7.033809e+002, 1.760818e+002
7.053094e+002, 1.730612e+002
7.072379e+002, 1.699384e+002
7.091663e+002, 1.673579e+002
7.110948e+002, 1.655029e+002
7.130233e+002, 1.630112e+002
7.149517e+002, 1.591528e+002
7.168802e+002, 1.560514e+002
7.188087e+002, 1.548858e+002
7.207371e+002, 1.536292e+002
7.226656e+002, 1.513202e+002
7.245941e+002, 1.492618e+002
7.265225e+002, 1.481614e+002
7.284510e+002, 1.475962e+002
7.303795e+002, 1.474806e+002
7.323079e+002, 1.474629e+002
7.342364e+002, 1.471757e+002
7.361649e+002, 1.465605e+002
7.380933e+002, 1.451961e+002
7.400218e+002, 1.434548e+002
7.419503e+002, 1.428607e+002
7.438787e+002, 1.433675e+002
7.458072e+002, 1.433520e+002
7.477357e+002, 1.425654e+002
7.496641e+002, 1.423051e+002
7.515926e+002, 1.430375e+002
7.535211e+002, 1.434942e+002
7.554495e+002, 1.436238e+002
7.573780e+002, 1.433750e+002
7.593065e+002, 1.424642e+002
7.612349e+002, 1.415700e+002
7.631634e+002, 1.408080e+002
7.650919e+002, 1.402518e+002
7.670203e+002, 1.398974e+002
7.689488e+002, 1.397992e+002
7.708773e+002, 1.403942e+002
7.728057e+002, 1.408995e+002
7.747342e+002, 1.402654e+002
7.766627e+002, 1.391818e+002
7.785911e+002, 1.387776e+002
7.805196e+002, 1.389243e+002
7.824481e+002, 1.393960e+002
7.843765e+002, 1.401138e+002
7.863050e+002, 1.399692e+002
7.882335e+002, 1.388886e+002
7.901619e+002, 1.375590e+002
7.920904e+002, 1.357887e+002
7.940189e+002, 1.343720e+002
7.959473e+002, 1.332005e+002
7.978758e+002, 1.328458e+002
7.998043e+002, 1.338939e+002
8.017327e+002, 1.340724e+002
8.036612e+002, 1.324077e+002
8.055897e+002, 1.310859e+002
8.075181e+002, 1.309154e+002
8.094466e+002, 1.311087e+002
8.113751e+002, 1.314922e+002
8.133035e+002, 1.318535e+002
8.152320e+002, 1.320394e+002
8.171605e+002, 1.321938e+002
8.190889e+002, 1.324598e+002
8.210174e+002, 1.327020e+002
8.229459e+002, 1.325242e+002
8.248743e+002, 1.324514e+002
8.268028e+002, 1.332229e+002
8.287313e+002, 1.346944e+002
8.306597e+002, 1.363572e+002
8.325882e+002, 1.384824e+002
8.345167e+002, 1.417735e+002
8.364451e+002, 1.463623e+002
8.383736e+002, 1.533943e+002
8.403021e+002, 1.625214e+002
8.422305e+002, 1.704763e+002
8.441590e+002, 1.771482e+002
8.460875e+002, 1.827854e+002
8.480159e+002, 1.870473e+002
8.499444e+002, 1.973485e+002
8.518729e+002, 2.161184e+002
8.538013e+002, 2.335999e+002
8.557298e+002, 2.534677e+002
8.576583e+002, 2.556955e+002
8.595867e+002, 2.281532e+002
8.615152e+002, 1.988004e+002
8.634437e+002, 1.681483e+002
8.653721e+002, 1.442043e+002
8.673006e+002, 1.314339e+002
8.692291e+002, 1.220270e+002
8.711575e+002, 1.140685e+002
8.730860e+002, 1.074192e+002
8.750145e+002, 1.024417e+002
8.769429e+002, 9.818378e+001
8.788714e+002, 9.413063e+001
8.807999e+002, 9.043486e+001
8.827283e+002, 8.679025e+001
8.846568e+002, 8.400227e+001
8.865853e+002, 8.288818e+001
8.885137e+002, 8.303056e+001
8.904422e+002, 8.475113e+001
8.923707e+002, 8.678433e+001
8.942991e+002, 8.795287e+001
8.962276e+002, 8.789138e+001
8.981561e+002, 8.520099e+001
9.000845e+002, 8.105169e+001
9.020130e+002, 7.844863e+001
9.039415e+002, 7.710883e+001
9.058699e+002, 7.605763e+001
9.077984e+002, 7.523539e+001
9.097269e+002, 7.414008e+001
9.116553e+002, 7.279482e+001
9.135838e+002, 7.163416e+001
9.155123e+002, 7.065844e+001
9.174407e+002, 6.980766e+001
9.193692e+002, 6.900872e+001
9.212977e+002, 6.903618e+001
9.232261e+002, 7.008983e+001
9.251546e+002, 7.099537e+001
9.270831e+002, 7.193291e+001
9.290115e+002, 7.152411e+001
9.309400e+002, 6.940874e+001
9.328685e+002, 6.768370e+001
9.347969e+002, 6.653609e+001
9.367254e+002, 6.583762e+001
9.386539e+002, 6.568409e+001
9.405823e+002, 6.543419e+001
9.425108e+002, 6.501482e+001
9.444393e+002, 6.431145e+001
9.463677e+002, 6.321641e+001
9.482962e+002, 6.215789e+001
9.502247e+002, 6.122944e+001
9.521531e+002, 6.035749e+001
9.540816e+002, 5.951785e+001
9.560101e+002, 5.873707e+001
9.579385e+002, 5.798955e+001
9.598670e+002, 5.739265e+001
9.617955e+002, 5.715379e+001
9.637239e+002, 5.674456e+001
9.656524e+002, 5.574981e+001
9.675809e+002, 5.495937e+001
9.695093e+002, 5.479541e+001
9.714378e+002, 5.459127e+001
9.733663e+002, 5.423066e+001
9.752947e+002, 5.361146e+001
9.772232e+002, 5.266360e+001
9.791517e+002, 5.149027e+001
9.810801e+002, 4.954766e+001
9.830086e+002, 4.824946e+001
9.849371e+002, 4.880742e+001
9.868655e+002, 4.946689e+001
9.887940e+002, 4.922360e+001
9.907225e+002, 4.889433e+001
9.926509e+002, 4.915353e+001
9.945794e+002, 4.920530e+001
9.965079e+002, 4.824390e+001
9.984363e+002, 4.733651e+001
1.000365e+003, 4.726170e+001
1.002293e+003, 4.736508e+001
1.004222e+003, 4.699755e+001
1.006150e+003, 4.690583e+001
1.008079e+003, 4.796434e+001
1.010007e+003, 4.904720e+001
1.011936e+003, 4.943122e+001
1.013864e+003, 4.940925e+001
1.015793e+003, 4.884591e+001
1.017721e+003, 4.840952e+001
1.019649e+003, 4.856725e+001
1.021578e+003, 4.909528e+001
1.023506e+003, 5.022910e+001
1.025435e+003, 5.114296e+001
1.027363e+003, 5.097618e+001
1.029292e+003, 5.063327e+001
1.031220e+003, 5.065611e+001
1.033149e+003, 5.096558e+001
1.035077e+003, 5.194814e+001
1.037006e+003, 5.261450e+001
1.038934e+003, 5.169087e+001
1.040863e+003, 5.086427e+001
1.042791e+003, 5.159084e+001
1.044719e+003, 5.256994e+001
1.046648e+003, 5.280331e+001
1.048576e+003, 5.308656e+001
1.050505e+003, 5.417992e+001
1.052433e+003, 5.523984e+001
1.054362e+003, 5.558688e+001
1.056290e+003, 5.585358e+001
1.058219e+003, 5.639233e+001
1.060147e+003, 5.707639e+001
1.062076e+003, 5.781227e+001
1.064004e+003, 5.868494e+001
1.065933e+003, 6.005543e+001
1.067861e+003, 6.114841e+001
1.069790e+003, 6.134811e+001
1.071718e+003, 6.135843e+001
1.073647e+003, 6.159933e+001
1.075575e+003, 6.170705e+001
1.077504e+003, 6.107927e+001
1.079432e+003, 6.088258e+001
1.081360e+003, 6.188764e+001
1.083289e+003, 6.315129e+001
1.085217e+003, 6.450353e+001
1.087146e+003, 6.565208e+001
1.089074e+003, 6.596827e+001
1.091003e+003, 6.686184e+001
1.092931e+003, 6.930585e+001
1.094860e+003, 7.167255e+001
1.096788e+003, 7.352830e+001
1.098717e+003, 7.506003e+001
1.100645e+003, 7.601804e+001
1.102574e+003, 7.717319e+001
1.104502e+003, 7.888034e+001
1.106431e+003, 8.052168e+001
1.108359e+003, 8.190121e+001
1.110287e+003, 8.333934e+001
1.112216e+003, 8.432864e+001
1.114144e+003, 8.641982e+001
1.116073e+003, 9.079171e+001
1.118001e+003, 9.434966e+001
1.119930e+003, 9.617636e+001
1.121858e+003, 9.856860e+001
1.123787e+003, 1.021983e+002
1.125715e+003, 1.050817e+002
1.127644e+003, 1.066288e+002
1.129572e+003, 1.088368e+002
1.131501e+003, 1.121110e+002
1.133429e+003, 1.149156e+002
1.135358e+003, 1.170859e+002
1.137286e+003, 1.194016e+002
1.139214e+003, 1.218418e+002
1.141143e+003, 1.246715e+002
1.143071e+003, 1.279657e+002
1.145000e+003, 1.304428e+002
1.146928e+003, 1.321209e+002
1.148857e+003, 1.347504e+002
1.150785e+003, 1.381588e+002
1.152714e+003, 1.405343e+002
1.154642e+003, 1.421447e+002
1.156571e+003, 1.441034e+002
1.158499e+003, 1.466398e+002
1.160428e+003, 1.513913e+002
1.162356e+003, 1.568599e+002
1.164285e+003, 1.583748e+002
1.166213e+003, 1.586405e+002
1.168141e+003, 1.632492e+002
1.170070e+003, 1.694236e+002
1.171998e+003, 1.730980e+002
1.173927e+003, 1.759255e+002
1.175855e+003, 1.797933e+002
1.177784e+003, 1.838173e+002
1.179712e+003, 1.868361e+002
1.181641e+003, 1.901174e+002
1.183569e+003, 1.952525e+002
1.185498e+003, 2.000623e+002
1.187426e+003, 2.025904e+002
1.189355e+003, 2.055480e+002
1.191283e+003, 2.105042e+002
1.193212e+003, 2.154553e+002
1.195140e+003, 2.192174e+002
1.197068e+003, 2.241522e+002
1.198997e+003, 2.315957e+002
1.200925e+003, 2.381342e+002
1.202854e+003, 2.425154e+002
1.204782e+003, 2.483486e+002
1.206711e+003, 2.564435e+002
1.208639e+003, 2.647054e+002
1.210568e+003, 2.728973e+002
1.212496e+003, 2.812708e+002
1.214425e+003, 2.898191e+002
1.216353e+003, 2.985715e+002
1.218282e+003, 3.074395e+002
1.220210e+003, 3.151927e+002
1.222139e+003, 3.224887e+002
1.224067e+003, 3.336103e+002
1.225995e+003, 3.469031e+002
1.227924e+003, 3.565055e+002
1.229852e+003, 3.646005e+002
1.231781e+003, 3.755906e+002
1.233709e+003, 3.884043e+002
1.235638e+003, 4.019534e+002
1.237566e+003, 4.158744e+002
1.239495e+003, 4.295677e+002
1.241423e+003, 4.437222e+002
1.243352e+003, 4.580937e+002
1.245280e+003, 4.743575e+002
1.247209e+003, 4.933254e+002
1.249137e+003, 5.148480e+002
1.251066e+003, 5.400109e+002
1.252994e+003, 5.653507e+002
1.254922e+003, 5.898114e+002
1.256851e+003, 6.140280e+002
1.258779e+003, 6.371758e+002
1.260708e+003, 6.629263e+002
1.262636e+003, 6.917462e+002
1.264565e+003, 7.231636e+002
1.266493e+003, 7.572597e+002
1.268422e+003, 7.939548e+002
1.270350e+003, 8.332495e+002
1.272279e+003, 8.738881e+002
1.274207e+003, 9.165653e+002
1.276136e+003, 9.657694e+002
1.278064e+003, 1.019866e+003
1.279993e+003, 1.073817e+003
1.281921e+003, 1.130587e+003
1.283849e+003, 1.194973e+003
1.285778e+003, 1.265304e+003
1.287706e+003, 1.336345e+003
1.289635e+003, 1.417642e+003
1.291563e+003, 1.518276e+003
1.293492e+003, 1.627917e+003
1.295420e+003, 1.741135e+003
1.297349e+003, 1.864110e+003
1.299277e+003, 1.998022e+003
1.301206e+003, 2.142306e+003
1.303134e+003, 2.295905e+003
1.305063e+003, 2.462757e+003
1.306991e+003, 2.642964e+003
1.308920e+003, 2.842425e+003
1.310848e+003, 3.060718e+003
1.312776e+003, 3.282373e+003
1.314705e+003, 3.510365e+003
1.316633e+003, 3.760302e+003
1.318562e+003, 4.028054e+003
1.320490e+003, 4.309133e+003
1.322419e+003, 4.594461e+003
1.324347e+003, 4.880188e+003
1.326276e+003, 5.150911e+003
1.328204e+003, 5.407995e+003
1.330133e+003, 5.618926e+003
1.332061e+003, 5.772087e+003
1.333990e+003, 5.859041e+003
1.335918e+003, 5.877633e+003
1.337847e+003, 5.827011e+003
1.339775e+003, 5.699467e+003
1.341703e+003, 5.512784e+003
1.343632e+003, 5.259879e+003
1.345560e+003, 4.975772e+003
1.347489e+003, 4.660854e+003
1.349417e+003, 4.341060e+003
1.351346e+003, 4.021255e+003
1.353274e+003, 3.722906e+003
1.355203e+003, 3.444263e+003
1.357131e+003, 3.177386e+003
1.359060e+003, 2.931376e+003
1.360988e+003, 2.716806e+003
1.362917e+003, 2.526617e+003
1.364845e+003, 2.354619e+003
1.366774e+003, 2.208626e+003
1.368702e+003, 2.094781e+003
1.370630e+003, 2.000796e+003
1.372559e+003, 1.923957e+003
1.374487e+003, 1.865505e+003
1.376416e+003, 1.827026e+003
1.378344e+003, 1.798119e+003
1.380273e+003, 1.778470e+003
1.382201e+003, 1.784363e+003
1.384130e+003, 1.811964e+003
1.386058e+003, 1.845662e+003
1.387987e+003, 1.888640e+003
1.389915e+003, 1.945005e+003
1.391844e+003, 2.015815e+003
1.393772e+003, 2.101637e+003
1.395701e+003, 2.203378e+003
1.397629e+003, 2.320880e+003
1.399557e+003, 2.454772e+003
1.401486e+003, 2.605168e+003
1.403414e+003, 2.773845e+003
1.405343e+003, 2.961836e+003
1.407271e+003, 3.160753e+003
1.409200e+003, 3.371756e+003
1.411128e+003, 3.615019e+003
1.413057e+003, 3.890544e+003
1.414985e+003, 4.191248e+003
1.416914e+003, 4.516262e+003
1.418842e+003, 4.866459e+003
1.420771e+003, 5.237183e+003
1.422699e+003, 5.647955e+003
1.424628e+003, 6.038893e+003
1.426556e+003, 6.397233e+003
1.428484e+003, 6.691294e+003
1.430413e+003, 6.927580e+003
1.432341e+003, 7.063666e+003
1.434270e+003, 7.094630e+003
1.436198e+003, 7.038024e+003
1.438127e+003, 6.896371e+003
1.440055e+003, 6.662903e+003
1.441984e+003, 6.364505e+003
1.443912e+003, 6.051037e+003
1.445841e+003, 5.724641e+003
1.447769e+003, 5.376792e+003
1.449698e+003, 5.031158e+003
1.451626e+003, 4.693789e+003
1.453555e+003, 4.379840e+003
1.455483e+003, 4.092982e+003
1.457411e+003, 3.833076e+003
1.459340e+003, 3.600324e+003
1.461268e+003, 3.396521e+003
1.463197e+003, 3.221593e+003
1.465125e+003, 3.071406e+003
1.467054e+003, 2.941951e+003
1.468982e+003, 2.819219e+003
1.470911e+003, 2.712205e+003
1.472839e+003, 2.635038e+003
1.474768e+003, 2.571324e+003
1.476696e+003, 2.512704e+003
1.478625e+003, 2.463398e+003
1.480553e+003, 2.423497e+003
1.482482e+003, 2.397530e+003
1.484410e+003, 2.386049e+003
1.486339e+003, 2.394895e+003
1.488267e+003, 2.422201e+003
1.490195e+003, 2.456782e+003
1.492124e+003, 2.501517e+003
1.494052e+003, 2.559772e+003
1.495981e+003, 2.634316e+003
1.497909e+003, 2.731192e+003
1.499838e+003, 2.840422e+003
1.501766e+003, 2.962504e+003
1.503695e+003, 3.081262e+003
1.505623e+003, 3.192962e+003
1.507552e+003, 3.314632e+003
1.509480e+003, 3.445194e+003
1.511409e+003, 3.564089e+003
1.513337e+003, 3.668292e+003
1.515266e+003, 3.752408e+003
1.517194e+003, 3.817120e+003
1.519122e+003, 3.864678e+003
1.521051e+003, 3.891009e+003
1.522979e+003, 3.891390e+003
1.524908e+003, 3.873426e+003
1.526836e+003, 3.835550e+003
1.528765e+003, 3.800863e+003
1.530693e+003, 3.768673e+003
1.532622e+003, 3.707279e+003
1.534550e+003, 3.626484e+003
1.536479e+003, 3.550783e+003
1.538407e+003, 3.475773e+003
1.540336e+003, 3.396762e+003
1.542264e+003, 3.315547e+003
1.544193e+003, 3.229424e+003
1.546121e+003, 3.147892e+003
1.548049e+003, 3.073470e+003
1.549978e+003, 2.999319e+003
1.551906e+003, 2.925475e+003
1.553835e+003, 2.855968e+003
1.555763e+003, 2.789381e+003
1.557692e+003, 2.717825e+003
1.559620e+003, 2.653416e+003
1.561549e+003, 2.606640e+003
1.563477e+003, 2.569477e+003
1.565406e+003, 2.539792e+003
1.567334e+003, 2.514954e+003
1.569263e+003, 2.494076e+003
1.571191e+003, 2.479409e+003
1.573120e+003, 2.470440e+003
1.575048e+003, 2.464533e+003
1.576976e+003, 2.464005e+003
1.578905e+003, 2.475590e+003
1.580833e+003, 2.489802e+003
1.582762e+003, 2.499866e+003
1.584690e+003, 2.516518e+003
1.586619e+003, 2.542794e+003
1.588547e+003, 2.573734e+003
1.590476e+003, 2.609458e+003
1.592404e+003, 2.659446e+003
1.594333e+003, 2.719833e+003
1.596261e+003, 2.780752e+003
1.598190e+003, 2.848898e+003
1.600118e+003, 2.928494e+003
1.602047e+003, 3.021849e+003
1.603975e+003, 3.130531e+003
1.605903e+003, 3.247759e+003
1.607832e+003, 3.372997e+003
1.609760e+003, 3.511024e+003
1.611689e+003, 3.662768e+003
1.613617e+003, 3.835598e+003
1.615546e+003, 4.015087e+003
1.617474e+003, 4.186229e+003
1.619403e+003, 4.357570e+003
1.621331e+003, 4.533101e+003
1.623260e+003, 4.708055e+003
1.625188e+003, 4.881640e+003
1.627117e+003, 5.054194e+003
1.629045e+003, 5.215865e+003
1.630974e+003, 5.339883e+003
1.632902e+003, 5.436775e+003
1.634830e+003, 5.519804e+003
1.636759e+003, 5.575678e+003
1.638687e+003, 5.594122e+003
1.640616e+003, 5.591308e+003
1.642544e+003, 5.568144e+003
1.644473e+003, 5.533321e+003
1.646401e+003, 5.486093e+003
1.648330e+003, 5.421450e+003
1.650258e+003, 5.346048e+003
1.652187e+003, 5.269591e+003
1.654115e+003, 5.177960e+003
1.656044e+003, 5.058539e+003
1.657972e+003, 4.944706e+003
1.659901e+003, 4.839671e+003
1.661829e+003, 4.733067e+003
1.663757e+003, 4.625727e+003
1.665686e+003, 4.520532e+003
1.667614e+003, 4.415089e+003
1.669543e+003, 4.306354e+003
1.671471e+003, 4.199296e+003
1.673400e+003, 4.093989e+003
1.675328e+003, 4.002063e+003
1.677257e+003, 3.922303e+003
1.679185e+003, 3.826422e+003
1.681114e+003, 3.728094e+003
1.683042e+003, 3.652777e+003
1.684971e+003, 3.581614e+003
1.686899e+003, 3.502948e+003
1.688828e+003, 3.432359e+003
1.690756e+003, 3.372956e+003
1.692684e+003, 3.312049e+003
1.694613e+003, 3.251599e+003
1.696541e+003, 3.198759e+003
1.698470e+003, 3.155183e+003
1.700398e+003, 3.127471e+003
1.702327e+003, 3.100287e+003
1.704255e+003, 3.067240e+003
1.706184e+003, 3.044748e+003
1.708112e+003, 3.033917e+003
1.710041e+003, 3.031974e+003
1.711969e+003, 3.035406e+003
1.713898e+003, 3.039685e+003
1.715826e+003, 3.046250e+003
1.717755e+003, 3.052613e+003
1.719683e+003, 3.071008e+003
1.721611e+003, 3.103086e+003
1.723540e+003, 3.129986e+003
1.725468e+003, 3.155347e+003
1.727397e+003, 3.190493e+003
1.729325e+003, 3.231248e+003
1.731254e+003, 3.275917e+003
1.733182e+003, 3.321375e+003
1.735111e+003, 3.366023e+003
1.737039e+003, 3.416069e+003
1.738968e+003, 3.470015e+003
1.740896e+003, 3.518587e+003
1.742825e+003, 3.565250e+003
1.744753e+003, 3.618273e+003
1.746682e+003, 3.662048e+003
1.748610e+003, 3.690228e+003
1.750538e+003, 3.707255e+003
1.752467e+003, 3.713727e+003
1.754395e+003, 3.714419e+003
1.756324e+003, 3.703278e+003
1.758252e+003, 3.671710e+003
1.760181e+003, 3.624389e+003
1.762109e+003, 3.558884e+003
1.764038e+003, 3.497779e+003
1.765966e+003, 3.443283e+003
1.767895e+003, 3.370352e+003
1.769823e+003, 3.286977e+003
1.771752e+003, 3.204411e+003
1.773680e+003, 3.122712e+003
1.775609e+003, 3.041028e+003
1.777537e+003, 2.966055e+003
1.779465e+003, 2.899017e+003
1.781394e+003, 2.836063e+003
1.783322e+003, 2.775355e+003
1.785251e+003, 2.708696e+003
1.787179e+003, 2.652012e+003
1.789108e+003, 2.614844e+003
1.791036e+003, 2.574393e+003
1.792965e+003, 2.528704e+003
1.794893e+003, 2.497904e+003
1.796822e+003, 2.474709e+003
1.798750e+003, 2.448326e+003
1.800679e+003, 2.420814e+003
1.802607e+003, 2.390628e+003
1.804536e+003, 2.371273e+003
1.806464e+003, 2.363104e+003
1.808392e+003, 2.356045e+003
1.810321e+003, 2.350325e+003
1.812249e+003, 2.348569e+003
1.814178e+003, 2.344777e+003
1.816106e+003, 2.331866e+003
1.818035e+003, 2.331319e+003
1.819963e+003, 2.341005e+003
1.821892e+003, 2.333413e+003
1.823820e+003, 2.320546e+003
1.825749e+003, 2.317207e+003
1.827677e+003, 2.314385e+003
1.829606e+003, 2.310302e+003
1.831534e+003, 2.301201e+003
1.833463e+003, 2.286297e+003
1.835391e+003, 2.258068e+003
1.837319e+003, 2.227889e+003
1.839248e+003, 2.211596e+003
1.841176e+003, 2.182116e+003
1.843105e+003, 2.127872e+003
1.845033e+003, 2.078241e+003
1.846962e+003, 2.030179e+003
1.848890e+003, 1.974135e+003
1.850819e+003, 1.914867e+003
1.852747e+003, 1.855119e+003
1.854676e+003, 1.792271e+003
1.856604e+003, 1.725694e+003
1.858533e+003, 1.663396e+003
1.860461e+003, 1.603615e+003
1.862390e+003, 1.542734e+003
1.864318e+003, 1.483927e+003
1.866246e+003, 1.427776e+003
1.868175e+003, 1.376962e+003
1.870103e+003, 1.331962e+003
1.872032e+003, 1.294705e+003
1.873960e+003, 1.260754e+003
1.875889e+003, 1.224424e+003
1.877817e+003, 1.192998e+003
1.879746e+003, 1.167929e+003
1.881674e+003, 1.145649e+003
1.883603e+003, 1.126538e+003
1.885531e+003, 1.111876e+003
1.887460e+003, 1.101668e+003
1.889388e+003, 1.096187e+003
1.891317e+003, 1.093838e+003
1.893245e+003, 1.094093e+003
1.895173e+003, 1.093402e+003
1.897102e+003, 1.096054e+003
1.899030e+003, 1.107529e+003
1.900959e+003, 1.123897e+003
1.902887e+003, 1.144419e+003
1.904816e+003, 1.164302e+003
1.906744e+003, 1.185625e+003
1.908673e+003, 1.212501e+003
1.910601e+003, 1.243480e+003
1.912530e+003, 1.278899e+003
1.914458e+003, 1.315430e+003
1.916387e+003, 1.352564e+003
1.918315e+003, 1.388700e+003
1.920244e+003, 1.424298e+003
1.922172e+003, 1.459112e+003
1.924100e+003, 1.496009e+003
1.926029e+003, 1.536701e+003
1.927957e+003, 1.570488e+003
1.929886e+003, 1.597354e+003
1.931814e+003, 1.617124e+003
1.933743e+003, 1.630718e+003
1.935671e+003, 1.638984e+003
1.937600e+003, 1.636908e+003
1.939528e+003, 1.625354e+003
1.941457e+003, 1.606763e+003
1.943385e+003, 1.580756e+003
1.945314e+003, 1.547037e+003
1.947242e+003, 1.508020e+003
1.949171e+003, 1.464218e+003
1.951099e+003, 1.417750e+003
1.953027e+003, 1.369724e+003
1.954956e+003, 1.321978e+003
1.956884e+003, 1.271595e+003
1.958813e+003, 1.217924e+003
1.960741e+003, 1.167645e+003
1.962670e+003, 1.120001e+003
1.964598e+003, 1.074058e+003
1.966527e+003, 1.028777e+003
1.968455e+003, 9.836027e+002
1.970384e+003, 9.419064e+002
1.972312e+003, 9.026688e+002
1.974241e+003, 8.609344e+002
1.976169e+003, 8.229559e+002
1.978098e+003, 7.932540e+002
1.980026e+003, 7.626545e+002
1.981954e+003, 7.319468e+002
1.983883e+003, 7.080683e+002
1.985811e+003, 6.852567e+002
1.987740e+003, 6.570875e+002
1.989668e+003, 6.339332e+002
1.991597e+003, 6.157094e+002
1.993525e+003, 5.934266e+002
1.995454e+003, 5.728018e+002
1.997382e+003, 5.616390e+002
1.999311e+003, 5.483820e+002
2.001239e+003, 5.313904e+002
2.003168e+003, 5.172684e+002
2.005096e+003, 5.046098e+002
2.007025e+003, 4.915506e+002
2.008953e+003, 4.793802e+002
2.010881e+003, 4.683761e+002
2.012810e+003, 4.580981e+002
2.014738e+003, 4.489435e+002
2.016667e+003, 4.424007e+002
2.018595e+003, 4.344068e+002
2.020524e+003, 4.233536e+002
2.022452e+003, 4.132113e+002
2.024381e+003, 4.041526e+002
2.026309e+003, 3.975430e+002
2.028238e+003, 3.890278e+002
2.030166e+003, 3.769309e+002
2.032095e+003, 3.687312e+002
2.034023e+003, 3.620855e+002
2.035952e+003, 3.506115e+002
2.037880e+003, 3.411200e+002
2.039808e+003, 3.358668e+002
2.041737e+003, 3.291192e+002
2.043665e+003, 3.205958e+002
2.045594e+003, 3.088619e+002
2.047522e+003, 2.986717e+002
2.049451e+003, 2.915255e+002
2.051379e+003, 2.859285e+002
2.053308e+003, 2.809094e+002
2.055236e+003, 2.749703e+002
2.057165e+003, 2.686541e+002
2.059093e+003, 2.621324e+002
2.061022e+003, 2.560741e+002
2.062950e+003, 2.500192e+002
2.064879e+003, 2.426032e+002
2.066807e+003, 2.357855e+002
2.068736e+003, 2.301697e+002
2.070664e+003, 2.249555e+002
2.072593e+003, 2.202851e+002
2.074521e+003, 2.167929e+002
2.076449e+003, 2.131101e+002
2.078378e+003, 2.089301e+002
2.080306e+003, 2.026325e+002
2.082235e+003, 1.965171e+002
2.084163e+003, 1.944864e+002
2.086092e+003, 1.921781e+002
2.088020e+003, 1.884286e+002
2.089949e+003, 1.841310e+002
2.091877e+003, 1.801131e+002
2.093806e+003, 1.773444e+002
2.095734e+003, 1.751024e+002
2.097663e+003, 1.732135e+002
2.099591e+003, 1.700609e+002
2.101520e+003, 1.658612e+002
2.103448e+003, 1.602726e+002
2.105376e+003, 1.564960e+002
2.107305e+003, 1.547396e+002
2.109233e+003, 1.515807e+002
2.111162e+003, 1.485052e+002
2.113090e+003, 1.466611e+002
2.115019e+003, 1.445616e+002
2.116947e+003, 1.419760e+002
2.118876e+003, 1.382230e+002
2.120804e+003, 1.352791e+002
2.122733e+003, 1.342959e+002
2.124661e+003, 1.318650e+002
2.126590e+003, 1.285384e+002
2.128518e+003, 1.263742e+002
2.130447e+003, 1.249398e+002
2.132375e+003, 1.240805e+002
2.134303e+003, 1.229901e+002
2.136232e+003, 1.211346e+002
2.138160e+003, 1.166163e+002
2.140089e+003, 1.139004e+002
2.142017e+003, 1.137208e+002
2.143946e+003, 1.124658e+002
2.145874e+003, 1.104634e+002
2.147803e+003, 1.075627e+002
2.149731e+003, 1.058104e+002
2.151660e+003, 1.051683e+002
2.153588e+003, 1.041862e+002
2.155517e+003, 1.030606e+002
2.157445e+003, 1.018857e+002
2.159374e+003, 1.008494e+002
2.161302e+003, 9.976067e+001
2.163230e+003, 9.776743e+001
2.165159e+003, 9.624162e+001
2.167087e+003, 9.592253e+001
2.169016e+003, 9.600477e+001
2.170944e+003, 9.560716e+001
2.172873e+003, 9.305856e+001
2.174801e+003, 9.127621e+001
2.176730e+003, 9.082240e+001
2.178658e+003, 9.062724e+001
2.180587e+003, 8.988835e+001
2.182515e+003, 8.788715e+001
2.184444e+003, 8.584230e+001
2.186372e+003, 8.414781e+001
2.188301e+003, 8.422438e+001
2.190229e+003, 8.381077e+001
2.192157e+003, 8.197493e+001
2.194086e+003, 8.116309e+001
2.196014e+003, 8.075209e+001
2.197943e+003, 7.961958e+001
2.199871e+003, 7.867712e+001
2.201800e+003, 7.790730e+001
2.203728e+003, 7.523631e+001
2.205657e+003, 7.305373e+001
2.207585e+003, 7.319305e+001
2.209514e+003, 7.227665e+001
2.211442e+003, 7.069282e+001
2.213371e+003, 7.030180e+001
2.215299e+003, 6.996570e+001
2.217228e+003, 6.935638e+001
2.219156e+003, 6.934486e+001
2.221084e+003, 6.902320e+001
2.223013e+003, 6.678803e+001
2.224941e+003, 6.556221e+001
2.226870e+003, 6.547493e+001
2.228798e+003, 6.617409e+001
2.230727e+003, 6.644182e+001
2.232655e+003, 6.560240e+001
2.234584e+003, 6.502953e+001
2.236512e+003, 6.452020e+001
2.238441e+003, 6.345632e+001
2.240369e+003, 6.322269e+001
2.242298e+003, 6.378683e+001
2.244226e+003, 6.328007e+001
2.246155e+003, 6.279511e+001
2.248083e+003, 6.329194e+001
2.250011e+003, 6.218487e+001
2.251940e+003, 6.066555e+001
2.253868e+003, 6.101941e+001
2.255797e+003, 6.070287e+001
2.257725e+003, 5.934984e+001
2.259654e+003, 5.929879e+001
2.261582e+003, 5.936943e+001
2.263511e+003, 5.886333e+001
2.265439e+003, 5.850637e+001
2.267368e+003, 5.800035e+001
2.269296e+003, 5.650301e+001
2.271225e+003, 5.503292e+001
2.273153e+003, 5.404707e+001
2.275082e+003, 5.587176e+001
2.277010e+003, 5.736329e+001
2.278938e+003, 5.688182e+001
2.280867e+003, 5.517350e+001
2.282795e+003, 5.366497e+001
2.284724e+003, 5.523190e+001
2.286652e+003, 5.597993e+001
2.288581e+003, 5.544102e+001
2.290509e+003, 5.469116e+001
2.292438e+003, 5.389637e+001
2.294366e+003, 5.315718e+001
2.296295e+003, 5.149673e+001
2.298223e+003, 4.995481e+001
2.300152e+003, 5.024624e+001
2.302080e+003, 5.043365e+001
2.304009e+003, 5.024966e+001
2.305937e+003, 4.943221e+001
2.307865e+003, 4.901061e+001
2.309794e+003, 4.939075e+001
2.311722e+003, 4.985597e+001
2.313651e+003, 5.014775e+001
2.315579e+003, 4.998012e+001
2.317508e+003, 4.961341e+001
2.319436e+003, 4.925396e+001
2.321365e+003, 4.924182e+001
2.323293e+003, 4.974152e+001
2.325222e+003, 5.071968e+001
2.327150e+003, 5.067588e+001
2.329079e+003, 5.056154e+001
2.331007e+003, 5.108637e+001
2.332936e+003, 5.037820e+001
2.334864e+003, 4.925339e+001
2.336792e+003, 4.890971e+001
2.338721e+003, 4.828118e+001
2.340649e+003, 4.753931e+001
2.342578e+003, 4.849786e+001
2.344506e+003, 4.867688e+001
2.346435e+003, 4.734171e+001
2.348363e+003, 4.699229e+001
2.350292e+003, 4.711394e+001
2.352220e+003, 4.735483e+001
2.354149e+003, 4.697154e+001
2.356077e+003, 4.664675e+001
2.358006e+003, 4.799607e+001
2.359934e+003, 4.882967e+001
2.361863e+003, 4.882942e+001
2.363791e+003, 4.770196e+001
2.365719e+003, 4.744703e+001
2.367648e+003, 4.851849e+001
2.369576e+003, 4.858967e+001
2.371505e+003, 4.853843e+001
2.373433e+003, 4.922879e+001
2.375362e+003, 4.874336e+001
2.377290e+003, 4.764875e+001
2.379219e+003, 4.663995e+001
2.381147e+003, 4.652290e+001
2.383076e+003, 4.693758e+001
2.385004e+003, 4.650802e+001
2.386933e+003, 4.606924e+001
2.388861e+003, 4.584172e+001
2.390790e+003, 4.534501e+001
2.392718e+003, 4.519836e+001
2.394646e+003, 4.603740e+001
2.396575e+003, 4.620192e+001
2.398503e+003, 4.609688e+001
2.400432e+003, 4.633858e+001
2.402360e+003, 4.530309e+001
2.404289e+003, 4.364668e+001
2.406217e+003, 4.272667e+001
2.408146e+003, 4.248042e+001
2.410074e+003, 4.260332e+001
2.412003e+003, 4.155779e+001
2.413931e+003, 4.087909e+001
2.415860e+003, 4.102278e+001
2.417788e+003, 3.979393e+001
2.419717e+003, 3.902446e+001
2.421645e+003, 3.971465e+001
2.423573e+003, 3.999767e+001
2.425502e+003, 3.971592e+001
2.427430e+003, 3.867570e+001
2.429359e+003, 3.831175e+001
2.431287e+003, 3.851521e+001
2.433216e+003, 3.905599e+001
2.435144e+003, 3.954824e+001
2.437073e+003, 3.951722e+001
2.439001e+003, 3.703778e+001
2.440930e+003, 3.611068e+001
2.442858e+003, 3.715606e+001
2.444787e+003, 3.630206e+001
2.446715e+003, 3.643903e+001
2.448644e+003, 3.870745e+001
2.450572e+003, 3.701222e+001
2.452500e+003, 3.545193e+001
2.454429e+003, 3.752650e+001
2.456357e+003, 3.802143e+001
2.458286e+003, 3.781576e+001
2.460214e+003, 3.814368e+001
2.462143e+003, 3.784170e+001
2.464071e+003, 3.711673e+001
2.466000e+003, 3.606804e+001
2.467928e+003, 3.640794e+001
2.469857e+003, 3.757985e+001
2.471785e+003, 3.777886e+001
2.473714e+003, 3.700657e+001
2.475642e+003, 3.571058e+001
2.477571e+003, 3.657697e+001
2.479499e+003, 3.710271e+001
2.481427e+003, 3.656853e+001
2.483356e+003, 3.630220e+001
2.485284e+003, 3.582922e+001
2.487213e+003, 3.496603e+001
2.489141e+003, 3.515544e+001
2.491070e+003, 3.498604e+001
2.492998e+003, 3.365020e+001
2.494927e+003, 3.258334e+001
2.496855e+003, 3.220662e+001
2.498784e+003, 3.288857e+001
2.500712e+003, 3.249839e+001
2.502641e+003, 3.198641e+001
2.504569e+003, 3.294514e+001
2.506498e+003, 3.221102e+001
2.508426e+003, 3.091980e+001
2.510354e+003, 3.176319e+001
2.512283e+003, 3.187268e+001
2.514211e+003, 3.127839e+001
2.516140e+003, 3.037624e+001
2.518068e+003, 3.105737e+001
2.519997e+003, 3.235355e+001
2.521925e+003, 3.038577e+001
2.523854e+003, 2.962070e+001
2.525782e+003, 3.035705e+001
2.527711e+003, 3.008706e+001
2.529639e+003, 3.040842e+001
2.531568e+003, 3.137728e+001
2.533496e+003, 3.011254e+001
2.535425e+003, 2.929924e+001
2.537353e+003, 2.972639e+001
2.539281e+003, 2.992442e+001
2.541210e+003, 3.011594e+001
2.543138e+003, 3.039241e+001
2.545067e+003, 3.099085e+001
2.546995e+003, 3.126859e+001
2.548924e+003, 3.088177e+001
2.550852e+003, 3.056569e+001
2.552781e+003, 3.079466e+001
2.554709e+003, 3.178526e+001
2.556638e+003, 3.093432e+001
2.558566e+003, 3.034462e+001
2.560495e+003, 3.120985e+001
2.562423e+003, 3.130022e+001
2.564352e+003, 3.100115e+001
2.566280e+003, 3.065117e+001
2.568208e+003, 2.971049e+001
2.570137e+003, 2.925947e+001
2.572065e+003, 3.008253e+001
2.573994e+003, 3.013247e+001
2.575922e+003, 2.964580e+001
2.577851e+003, 2.879311e+001
2.579779e+003, 2.939944e+001
2.581708e+003, 2.990642e+001
2.583636e+003, 2.875162e+001
2.585565e+003, 2.862488e+001
2.587493e+003, 2.894047e+001
2.589422e+003, 2.928110e+001
2.591350e+003, 2.800540e+001
2.593279e+003, 2.658521e+001
2.595207e+003, 2.669391e+001
2.597135e+003, 2.658333e+001
2.599064e+003, 2.648294e+001
2.600992e+003, 2.680277e+001
2.602921e+003, 2.635174e+001
2.604849e+003, 2.592927e+001
2.606778e+003, 2.639234e+001
2.608706e+003, 2.673835e+001
2.610635e+003, 2.630718e+001
2.612563e+003, 2.436302e+001
2.614492e+003, 2.483290e+001
2.616420e+003, 2.546329e+001
2.618349e+003, 2.431936e+001
2.620277e+003, 2.452865e+001
2.622206e+003, 2.514756e+001
2.624134e+003, 2.538412e+001
2.626063e+003, 2.537065e+001
2.627991e+003, 2.499768e+001
2.629919e+003, 2.423375e+001
2.631848e+003, 2.436483e+001
2.633776e+003, 2.472670e+001
2.635705e+003, 2.490751e+001
2.637633e+003, 2.577479e+001
2.639562e+003, 2.593417e+001
2.641490e+003, 2.482695e+001
2.643419e+003, 2.458385e+001
2.645347e+003, 2.452861e+001
2.647276e+003, 2.434188e+001
2.649204e+003, 2.475610e+001
2.651133e+003, 2.472621e+001
2.653061e+003, 2.398344e+001
2.654990e+003, 2.357332e+001
2.656918e+003, 2.326753e+001
2.658846e+003, 2.304742e+001
2.660775e+003, 2.357976e+001
2.662703e+003, 2.383480e+001
2.664632e+003, 2.356700e+001
2.666560e+003, 2.262293e+001
2.668489e+003, 2.247271e+001
2.670417e+003, 2.315874e+001
2.672346e+003, 2.402885e+001
2.674274e+003, 2.408008e+001
2.676203e+003, 2.369605e+001
2.678131e+003, 2.437895e+001
2.680060e+003, 2.352099e+001
2.681988e+003, 2.236341e+001
2.683917e+003, 2.379621e+001
2.685845e+003, 2.405013e+001
2.687773e+003, 2.379765e+001
2.689702e+003, 2.443784e+001
2.691630e+003, 2.497609e+001
2.693559e+003, 2.469389e+001
2.695487e+003, 2.300902e+001
2.697416e+003, 2.260521e+001
2.699344e+003, 2.304727e+001
2.701273e+003, 2.383390e+001
2.703201e+003, 2.337654e+001
2.705130e+003, 2.250927e+001
2.707058e+003, 2.179425e+001
2.708987e+003, 2.228035e+001
2.710915e+003, 2.254374e+001
2.712844e+003, 2.206312e+001
2.714772e+003, 2.037547e+001
2.716700e+003, 2.001182e+001
2.718629e+003, 2.087735e+001
2.720557e+003, 2.090779e+001
2.722486e+003, 2.028419e+001
2.724414e+003, 1.930933e+001
2.726343e+003, 1.811365e+001
2.728271e+003, 1.854385e+001
2.730200e+003, 1.945521e+001
2.732128e+003, 1.895725e+001
2.734057e+003, 1.870410e+001
2.735985e+003, 1.863372e+001
2.737914e+003, 1.865241e+001
2.739842e+003, 1.814421e+001
2.741771e+003, 1.773884e+001
2.743699e+003, 1.781780e+001
2.745627e+003, 1.768991e+001
2.747556e+003, 1.770893e+001
2.749484e+003, 1.787532e+001
2.751413e+003, 1.729329e+001
2.753341e+003, 1.647033e+001
2.755270e+003, 1.585972e+001
2.757198e+003, 1.655393e+001
2.759127e+003, 1.694282e+001
2.761055e+003, 1.687636e+001
2.762984e+003, 1.635803e+001
2.764912e+003, 1.683567e+001
2.766841e+003, 1.730775e+001
2.768769e+003, 1.689757e+001
2.770698e+003, 1.615477e+001
2.772626e+003, 1.545931e+001
2.774554e+003, 1.503255e+001
2.776483e+003, 1.544821e+001
2.778411e+003, 1.572506e+001
2.780340e+003, 1.568850e+001
2.782268e+003, 1.586807e+001
2.784197e+003, 1.555396e+001
2.786125e+003, 1.492100e+001
2.788054e+003, 1.445308e+001
2.789982e+003, 1.402163e+001
2.791911e+003, 1.379765e+001
2.793839e+003, 1.416508e+001
2.795768e+003, 1.351207e+001
2.797696e+003, 1.314024e+001
2.799625e+003, 1.371067e+001
2.801553e+003, 1.413581e+001
2.803481e+003, 1.425383e+001
2.805410e+003, 1.397211e+001
2.807338e+003, 1.285748e+001
2.809267e+003, 1.294043e+001
2.811195e+003, 1.369775e+001
2.813124e+003, 1.408580e+001
2.815052e+003, 1.388295e+001
2.816981e+003, 1.342342e+001
2.818909e+003, 1.298535e+001
2.820838e+003, 1.324638e+001
2.822766e+003, 1.314584e+001
2.824695e+003, 1.256134e+001
2.826623e+003, 1.320631e+001
2.828552e+003, 1.293593e+001
2.830480e+003, 1.220547e+001
2.832408e+003, 1.283875e+001
2.834337e+003, 1.271140e+001
2.836265e+003, 1.237824e+001
2.838194e+003, 1.243121e+001
2.840122e+003, 1.260518e+001
2.842051e+003, 1.243708e+001
2.843979e+003, 1.194306e+001
2.845908e+003, 1.196426e+001
2.847836e+003, 1.209887e+001
2.849765e+003, 1.216519e+001
2.851693e+003, 1.187699e+001
2.853622e+003, 1.245060e+001
2.855550e+003, 1.281683e+001
2.857479e+003, 1.188850e+001
2.859407e+003, 1.105668e+001
2.861335e+003, 1.091414e+001
2.863264e+003, 1.139229e+001
2.865192e+003, 1.110453e+001
2.867121e+003, 1.111541e+001
2.869049e+003, 1.113150e+001
2.870978e+003, 1.044218e+001
2.872906e+003, 1.075205e+001
2.874835e+003, 1.106945e+001
2.876763e+003, 1.075357e+001
2.878692e+003, 1.080633e+001
2.880620e+003, 1.078828e+001
2.882549e+003, 1.069600e+001
2.884477e+003, 1.091364e+001
2.886406e+003, 1.120185e+001
2.888334e+003, 1.088441e+001
2.890262e+003, 9.483900e+000
2.892191e+003, 1.041056e+001
2.894119e+003, 1.065010e+001
2.896048e+003, 9.604423e+000
2.897976e+003, 9.761447e+000
2.899905e+003, 1.046828e+001
2.901833e+003, 1.102726e+001
2.903762e+003, 1.058750e+001
2.905690e+003, 1.018568e+001
2.907619e+003, 1.004410e+001
2.909547e+003, 1.019712e+001
2.911476e+003, 1.030859e+001
2.913404e+003, 1.020132e+001
2.915333e+003, 9.997267e+000
2.917261e+003, 9.916582e+000
2.919189e+003, 1.010685e+001
2.921118e+003, 1.041894e+001
2.923046e+003, 1.072439e+001
2.924975e+003, 9.956785e+000
2.926903e+003, 9.628701e+000
2.928832e+003, 9.721205e+000
2.930760e+003, 9.462740e+000
2.932689e+003, 8.796851e+000
2.934617e+003, 8.641577e+000
2.936546e+003, 9.464233e+000
2.938474e+003, 9.452823e+000
2.940403e+003, 8.843255e+000
2.942331e+003, 8.255030e+000
2.944260e+003, 8.876138e+000
2.946188e+003, 9.100502e+000
2.948116e+003, 8.790153e+000
2.950045e+003, 8.165827e+000
2.951973e+003, 8.907528e+000
2.953902e+003, 9.107840e+000
2.955830e+003, 8.783510e+000
2.957759e+003, 9.102642e+000
2.959687e+003, 8.905903e+000
2.961616e+003, 8.998140e+000
2.963544e+003, 9.660480e+000
2.965473e+003, 8.773055e+000
2.967401e+003, 8.566206e+000
2.969330e+003, 8.813793e+000
2.971258e+003, 8.208847e+000
2.973187e+003, 8.011918e+000
2.975115e+003, 8.289958e+000
2.977043e+003, 8.894586e+000
2.978972e+003, 8.797397e+000
2.980900e+003, 8.877378e+000
2.982829e+003, 8.935596e+000
2.984757e+003, 8.566772e+000
2.986686e+003, 7.852296e+000
2.988614e+003, 8.330732e+000
2.990543e+003, 9.632155e+000
2.992471e+003, 8.398497e+000
2.994400e+003, 7.983163e+000
2.996328e+003, 7.925755e+000
2.998257e+003, 7.594710e+000
3.000185e+003, 8.179597e+000
3.002114e+003, 8.669983e+000
3.004042e+003, 8.699272e+000
3.005970e+003, 8.090399e+000
3.007899e+003, 8.113981e+000
3.009827e+003, 8.256601e+000
3.011756e+003, 8.211973e+000
3.013684e+003, 8.021311e+000
3.015613e+003, 7.892848e+000
3.017541e+003, 7.754912e+000
3.019470e+003, 7.500933e+000
3.021398e+003, 7.990218e+000
3.023327e+003, 8.647534e+000
3.025255e+003, 8.973975e+000
3.027184e+003, 8.101122e+000
3.029112e+003, 8.388769e+000
3.031041e+003, 8.568505e+000
3.032969e+003, 7.989984e+000
3.034897e+003, 8.217416e+000
3.036826e+003, 8.398075e+000
3.038754e+003, 8.405194e+000
3.040683e+003, 8.247321e+000
3.042611e+003, 8.891608e+000
3.044540e+003, 8.770769e+000
3.046468e+003, 7.963941e+000
3.048397e+003, 7.504569e+000
3.050325e+003, 7.655370e+000
3.052254e+003, 8.083691e+000
3.054182e+003, 8.390097e+000
3.056111e+003, 7.377481e+000
3.058039e+003, 7.635655e+000
3.059968e+003, 8.252163e+000
3.061896e+003, 8.407281e+000
3.063824e+003, 9.439529e+000
3.065753e+003, 9.775404e+000
3.067681e+003, 9.507475e+000
3.069610e+003, 9.256816e+000
3.071538e+003, 7.936805e+000
3.073467e+003, 7.813273e+000
3.075395e+003, 8.788035e+000
3.077324e+003, 8.991453e+000
3.079252e+003, 9.033550e+000
3.081181e+003, 8.916257e+000
3.083109e+003, 8.685266e+000
3.085038e+003, 8.477877e+000
3.086966e+003, 8.784911e+000
3.088895e+003, 9.148556e+000
3.090823e+003, 9.176237e+000
3.092751e+003, 8.773129e+000
3.094680e+003, 8.736136e+000
3.096608e+003, 8.877348e+000
3.098537e+003, 8.852569e+000
3.100465e+003, 9.757553e+000
3.102394e+003, 9.581678e+000
3.104322e+003, 8.968634e+000
3.106251e+003, 9.506063e+000
3.108179e+003, 9.594316e+000
3.110108e+003, 9.817749e+000
3.112036e+003, 1.012342e+001
3.113965e+003, 9.893833e+000
3.115893e+003, 1.040106e+001
3.117822e+003, 1.069675e+001
3.119750e+003, 1.058792e+001
3.121678e+003, 1.089255e+001
3.123607e+003, 1.081851e+001
3.125535e+003, 1.100730e+001
3.127464e+003, 1.155601e+001
3.129392e+003, 1.142787e+001
3.131321e+003, 1.218540e+001
3.133249e+003, 1.238930e+001
3.135178e+003, 1.148671e+001
3.137106e+003, 1.190367e+001
3.139035e+003, 1.247812e+001
3.140963e+003, 1.262682e+001
3.142892e+003, 1.221255e+001
3.144820e+003, 1.285688e+001
3.146749e+003, 1.345359e+001
3.148677e+003, 1.370855e+001
3.150605e+003, 1.358894e+001
3.152534e+003, 1.390534e+001
3.154462e+003, 1.427839e+001
3.156391e+003, 1.447583e+001
3.158319e+003, 1.442147e+001
3.160248e+003, 1.521443e+001
3.162176e+003, 1.583698e+001
3.164105e+003, 1.640465e+001
3.166033e+003, 1.715187e+001
3.167962e+003, 1.735505e+001
3.169890e+003, 1.631300e+001
3.171819e+003, 1.584854e+001
3.173747e+003, 1.754984e+001
3.175676e+003, 1.821604e+001
3.177604e+003, 1.869329e+001
3.179532e+003, 1.946796e+001
3.181461e+003, 2.058279e+001
3.183389e+003, 1.976803e+001
3.185318e+003, 2.002174e+001
3.187246e+003, 2.050272e+001
3.189175e+003, 1.987792e+001
3.191103e+003, 2.133539e+001
3.193032e+003, 2.087704e+001
3.194960e+003, 2.000347e+001
3.196889e+003, 2.083564e+001
3.198817e+003, 2.146848e+001
3.200746e+003, 2.200834e+001
3.202674e+003, 2.269554e+001
3.204603e+003, 2.361751e+001
3.206531e+003, 2.367797e+001
3.208459e+003, 2.352489e+001
3.210388e+003, 2.347858e+001
3.212316e+003, 2.371679e+001
3.214245e+003, 2.448328e+001
3.216173e+003, 2.505785e+001
3.218102e+003, 2.611237e+001
3.220030e+003, 2.762209e+001
3.221959e+003, 2.724016e+001
3.223887e+003, 2.688637e+001
3.225816e+003, 2.803261e+001
3.227744e+003, 3.022350e+001
3.229673e+003, 2.979855e+001
3.231601e+003, 3.188079e+001
3.233530e+003, 3.315401e+001
3.235458e+003, 3.282375e+001
3.237386e+003, 3.243348e+001
3.239315e+003, 3.441562e+001
3.241243e+003, 3.536572e+001
3.243172e+003, 3.549364e+001
3.245100e+003, 3.701645e+001
3.247029e+003, 3.933346e+001
3.248957e+003, 4.038939e+001
3.250886e+003, 4.097845e+001
3.252814e+003, 4.260545e+001
3.254743e+003, 4.357145e+001
3.256671e+003, 4.599021e+001
3.258600e+003, 4.872140e+001
3.260528e+003, 5.055037e+001
3.262457e+003, 5.188160e+001
3.264385e+003, 5.476360e+001
3.266313e+003, 5.662885e+001
3.268242e+003, 5.679714e+001
3.270170e+003, 5.832590e+001
3.272099e+003, 6.367368e+001
3.274027e+003, 6.746702e+001
3.275956e+003, 6.978239e+001
3.277884e+003, 7.514140e+001
3.279813e+003, 7.986879e+001
3.281741e+003, 8.481767e+001
3.283670e+003, 9.036898e+001
3.285598e+003, 9.635893e+001
3.287527e+003, 1.002558e+002
3.289455e+003, 1.076237e+002
3.291384e+003, 1.141529e+002
3.293312e+003, 1.173941e+002
3.295240e+003, 1.241022e+002
3.297169e+003, 1.303712e+002
3.299097e+003, 1.350463e+002
3.301026e+003, 1.387132e+002
3.302954e+003, 1.435044e+002
3.304883e+003, 1.455318e+002
3.306811e+003, 1.494859e+002
3.308740e+003, 1.533201e+002
3.310668e+003, 1.533217e+002
3.312597e+003, 1.499657e+002
3.314525e+003, 1.502199e+002
3.316454e+003, 1.507925e+002
3.318382e+003, 1.498971e+002
3.320311e+003, 1.520442e+002
3.322239e+003, 1.478066e+002
3.324167e+003, 1.465290e+002
3.326096e+003, 1.502332e+002
3.328024e+003, 1.552623e+002
3.329953e+003, 1.590153e+002
3.331881e+003, 1.614894e+002
3.333810e+003, 1.637372e+002
3.335738e+003, 1.669055e+002
3.337667e+003, 1.733276e+002
3.339595e+003, 1.752436e+002
3.341524e+003, 1.728515e+002
3.343452e+003, 1.702612e+002
3.345381e+003, 1.735415e+002
3.347309e+003, 1.762998e+002
3.349238e+003, 1.769450e+002
3.351166e+003, 1.754333e+002
3.353094e+003, 1.730439e+002
3.355023e+003, 1.764044e+002
3.356951e+003, 1.774373e+002
3.358880e+003, 1.812752e+002
3.360808e+003, 1.879292e+002
3.362737e+003, 1.927532e+002
3.364665e+003, 1.984780e+002
3.366594e+003, 2.033255e+002
3.368522e+003, 2.087621e+002
3.370451e+003, 2.157596e+002
3.372379e+003, 2.227201e+002
3.374308e+003, 2.314071e+002
3.376236e+003, 2.381977e+002
3.378165e+003, 2.435524e+002
3.380093e+003, 2.500033e+002
3.382021e+003, 2.574285e+002
3.383950e+003, 2.636278e+002
3.385878e+003, 2.703160e+002
3.387807e+003, 2.767234e+002
3.389735e+003, 2.775871e+002
3.391664e+003, 2.838407e+002
3.393592e+003, 2.950597e+002
3.395521e+003, 3.042643e+002
3.397449e+003, 3.066889e+002
3.399378e+003, 3.084597e+002
3.401306e+003, 3.067400e+002
3.403235e+003, 3.031047e+002
3.405163e+003, 2.963683e+002
3.407092e+003, 2.838031e+002
3.409020e+003, 2.676873e+002
3.410948e+003, 2.619498e+002
3.412877e+003, 2.566062e+002
3.414805e+003, 2.470431e+002
3.416734e+003, 2.389856e+002
3.418662e+003, 2.308893e+002
3.420591e+003, 2.336208e+002
3.422519e+003, 2.382160e+002
3.424448e+003, 2.384047e+002
3.426376e+003, 2.419248e+002
3.428305e+003, 2.415097e+002
3.430233e+003, 2.462228e+002
3.432162e+003, 2.533997e+002
3.434090e+003, 2.581391e+002
3.436019e+003, 2.651299e+002
3.437947e+003, 2.681491e+002
3.439875e+003, 2.644705e+002
3.441804e+003, 2.596534e+002
3.443732e+003, 2.597161e+002
3.445661e+003, 2.532627e+002
3.447589e+003, 2.441394e+002
3.449518e+003, 2.404324e+002
3.451446e+003, 2.384409e+002
##END=



