##NAMES=Lazaraskeite
##RRUFFID=R180026
##IDEAL CHEMISTRY=Cu(C_2_H_3_O_3_)_2_
##LOCALITY=Western end of Pusch Ridge in the Santa Catalina Mountains, north of Tucson, Pima County, Arizona, USA
##OWNER=RRUFF
##SOURCE=Warren Lazar
##DESCRIPTION=Pale blue to blue prismatic or bladed crystals, associated with chrysocolla, muscovite, orthoclase, calcite, and quartz. Type specimen (UAMM 22052). This is the structure form-1. R190015 is the structure form-2.
##STATUS=The identification of this mineral is confirmed by single-crystal X-ray diffraction and chemical analysis
##URL=https://www.rruff.net/odr/rruff_sample/R180026
##MEASURED CHEMISTRY=Cu^2+^_1.01_(C_1.994_H_3_O_3_)_2_ ; The C content of 22.6(2) wt.% was obtained from an Elemental Combustion System equipped with mass spectrometry. Crystals are easily damaged by electron beam (lower photo),
##DIFFRACTION SAMPLE DESCRIPTION=Single crystal, powder profile is calculated
##CELL PARAMETERS=a: 5.1049 b: 8.6742 c: 7.7566 alpha: 90 beta: 106.834 gamma: 90 volume:  crystal system: monoclinic
##FILETYPE=Raman RAW
##RAMAN WAVELENGTH=785

7.084375e+001, 6.637772e+002
7.277222e+001, 5.570447e+002
7.470068e+001, 5.467901e+002
7.662915e+001, 6.446696e+002
7.855762e+001, 7.964387e+002
8.048608e+001, 1.008521e+003
8.241455e+001, 1.258786e+003
8.434302e+001, 1.556789e+003
8.627148e+001, 1.897781e+003
8.819995e+001, 2.148598e+003
9.012842e+001, 2.315616e+003
9.205688e+001, 2.400445e+003
9.398535e+001, 2.351087e+003
9.591382e+001, 2.135485e+003
9.784229e+001, 1.835022e+003
9.977075e+001, 1.609576e+003
1.016992e+002, 1.476713e+003
1.036277e+002, 1.422549e+003
1.055562e+002, 1.394309e+003
1.074846e+002, 1.399390e+003
1.094131e+002, 1.398535e+003
1.113416e+002, 1.364329e+003
1.132700e+002, 1.300244e+003
1.151985e+002, 1.235225e+003
1.171270e+002, 1.164936e+003
1.190554e+002, 1.099900e+003
1.209839e+002, 1.040038e+003
1.229124e+002, 9.864525e+002
1.248408e+002, 9.403668e+002
1.267693e+002, 9.013324e+002
1.286978e+002, 8.674899e+002
1.306262e+002, 8.391084e+002
1.325547e+002, 8.125866e+002
1.344832e+002, 7.870558e+002
1.364116e+002, 7.626185e+002
1.383401e+002, 7.386686e+002
1.402686e+002, 7.160845e+002
1.421970e+002, 6.964688e+002
1.441255e+002, 6.793344e+002
1.460540e+002, 6.679303e+002
1.479824e+002, 6.635309e+002
1.499109e+002, 6.645406e+002
1.518394e+002, 6.718378e+002
1.537678e+002, 6.840359e+002
1.556963e+002, 6.988093e+002
1.576248e+002, 7.164884e+002
1.595532e+002, 7.317168e+002
1.614817e+002, 7.450293e+002
1.634102e+002, 7.536610e+002
1.653386e+002, 7.575688e+002
1.672671e+002, 7.553875e+002
1.691956e+002, 7.447435e+002
1.711240e+002, 7.261046e+002
1.730525e+002, 7.053997e+002
1.749810e+002, 6.785487e+002
1.769094e+002, 6.561807e+002
1.788379e+002, 6.416010e+002
1.807664e+002, 6.314651e+002
1.826948e+002, 6.257186e+002
1.846233e+002, 6.223029e+002
1.865518e+002, 6.111071e+002
1.884802e+002, 5.860026e+002
1.904087e+002, 5.619237e+002
1.923372e+002, 5.402759e+002
1.942656e+002, 5.201693e+002
1.961941e+002, 4.995743e+002
1.981226e+002, 4.805409e+002
2.000510e+002, 4.680855e+002
2.019795e+002, 4.644060e+002
2.039080e+002, 4.621306e+002
2.058364e+002, 4.588385e+002
2.077649e+002, 4.592783e+002
2.096934e+002, 4.622104e+002
2.116218e+002, 4.721915e+002
2.135503e+002, 4.926157e+002
2.154788e+002, 5.227135e+002
2.174072e+002, 5.714238e+002
2.193357e+002, 6.474639e+002
2.212642e+002, 7.262831e+002
2.231926e+002, 8.292423e+002
2.251211e+002, 9.052064e+002
2.270496e+002, 9.197577e+002
2.289780e+002, 8.823052e+002
2.309065e+002, 8.262327e+002
2.328350e+002, 7.357708e+002
2.347634e+002, 6.680132e+002
2.366919e+002, 6.317004e+002
2.386204e+002, 6.075291e+002
2.405488e+002, 5.929733e+002
2.424773e+002, 5.811563e+002
2.444058e+002, 5.643693e+002
2.463342e+002, 5.423593e+002
2.482627e+002, 5.179199e+002
2.501912e+002, 4.892526e+002
2.521196e+002, 4.639371e+002
2.540481e+002, 4.441722e+002
2.559766e+002, 4.285701e+002
2.579050e+002, 4.166899e+002
2.598335e+002, 4.081032e+002
2.617620e+002, 4.020794e+002
2.636904e+002, 3.987174e+002
2.656189e+002, 3.968551e+002
2.675474e+002, 3.975274e+002
2.694758e+002, 3.971683e+002
2.714043e+002, 3.929302e+002
2.733328e+002, 3.884411e+002
2.752612e+002, 3.871653e+002
2.771897e+002, 3.883577e+002
2.791182e+002, 3.879424e+002
2.810466e+002, 3.856203e+002
2.829751e+002, 3.847543e+002
2.849036e+002, 3.875245e+002
2.868320e+002, 3.895293e+002
2.887605e+002, 3.877272e+002
2.906890e+002, 3.852987e+002
2.926174e+002, 3.869157e+002
2.945459e+002, 3.915392e+002
2.964744e+002, 3.933285e+002
2.984028e+002, 3.912121e+002
3.003313e+002, 3.904839e+002
3.022598e+002, 3.945980e+002
3.041882e+002, 3.977827e+002
3.061167e+002, 3.967144e+002
3.080452e+002, 3.940070e+002
3.099736e+002, 3.939887e+002
3.119021e+002, 3.957595e+002
3.138306e+002, 3.952365e+002
3.157590e+002, 3.916802e+002
3.176875e+002, 3.869847e+002
3.196160e+002, 3.798253e+002
3.215445e+002, 3.737878e+002
3.234729e+002, 3.717094e+002
3.254014e+002, 3.710401e+002
3.273299e+002, 3.679752e+002
3.292583e+002, 3.630384e+002
3.311868e+002, 3.594230e+002
3.331153e+002, 3.577195e+002
3.350437e+002, 3.566079e+002
3.369722e+002, 3.567009e+002
3.389007e+002, 3.563536e+002
3.408291e+002, 3.542841e+002
3.427576e+002, 3.517653e+002
3.446861e+002, 3.501990e+002
3.466145e+002, 3.495155e+002
3.485430e+002, 3.491294e+002
3.504715e+002, 3.493641e+002
3.523999e+002, 3.491844e+002
3.543284e+002, 3.477184e+002
3.562569e+002, 3.468461e+002
3.581853e+002, 3.478833e+002
3.601138e+002, 3.493578e+002
3.620423e+002, 3.500338e+002
3.639707e+002, 3.499619e+002
3.658992e+002, 3.494442e+002
3.678277e+002, 3.480722e+002
3.697561e+002, 3.472877e+002
3.716846e+002, 3.473607e+002
3.736131e+002, 3.476492e+002
3.755415e+002, 3.486931e+002
3.774700e+002, 3.490904e+002
3.793985e+002, 3.470726e+002
3.813269e+002, 3.437981e+002
3.832554e+002, 3.425661e+002
3.851839e+002, 3.437865e+002
3.871123e+002, 3.450871e+002
3.890408e+002, 3.464509e+002
3.909693e+002, 3.478689e+002
3.928977e+002, 3.493807e+002
3.948262e+002, 3.508834e+002
3.967547e+002, 3.526901e+002
3.986831e+002, 3.542341e+002
4.006116e+002, 3.544553e+002
4.025401e+002, 3.534265e+002
4.044685e+002, 3.530779e+002
4.063970e+002, 3.535350e+002
4.083255e+002, 3.539222e+002
4.102539e+002, 3.545605e+002
4.121824e+002, 3.541715e+002
4.141109e+002, 3.504049e+002
4.160393e+002, 3.472026e+002
4.179678e+002, 3.487585e+002
4.198963e+002, 3.530361e+002
4.218247e+002, 3.537947e+002
4.237532e+002, 3.511791e+002
4.256817e+002, 3.512589e+002
4.276101e+002, 3.553780e+002
4.295386e+002, 3.583033e+002
4.314671e+002, 3.576645e+002
4.333955e+002, 3.565320e+002
4.353240e+002, 3.557366e+002
4.372525e+002, 3.554003e+002
4.391809e+002, 3.563289e+002
4.411094e+002, 3.578267e+002
4.430379e+002, 3.568329e+002
4.449663e+002, 3.533717e+002
4.468948e+002, 3.521920e+002
4.488233e+002, 3.547587e+002
4.507517e+002, 3.577164e+002
4.526802e+002, 3.602064e+002
4.546087e+002, 3.628686e+002
4.565371e+002, 3.657779e+002
4.584656e+002, 3.691800e+002
4.603941e+002, 3.748982e+002
4.623225e+002, 3.811478e+002
4.642510e+002, 3.823559e+002
4.661795e+002, 3.780201e+002
4.681079e+002, 3.734089e+002
4.700364e+002, 3.685742e+002
4.719649e+002, 3.647123e+002
4.738933e+002, 3.625913e+002
4.758218e+002, 3.607622e+002
4.777503e+002, 3.580133e+002
4.796787e+002, 3.555805e+002
4.816072e+002, 3.548262e+002
4.835357e+002, 3.554854e+002
4.854641e+002, 3.571414e+002
4.873926e+002, 3.598731e+002
4.893211e+002, 3.627146e+002
4.912495e+002, 3.655222e+002
4.931780e+002, 3.685353e+002
4.951065e+002, 3.732979e+002
4.970349e+002, 3.762513e+002
4.989634e+002, 3.743688e+002
5.008919e+002, 3.714331e+002
5.028203e+002, 3.706514e+002
5.047488e+002, 3.712309e+002
5.066773e+002, 3.716409e+002
5.086057e+002, 3.718936e+002
5.105342e+002, 3.718925e+002
5.124626e+002, 3.712288e+002
5.143911e+002, 3.711389e+002
5.163196e+002, 3.714195e+002
5.182480e+002, 3.726137e+002
5.201765e+002, 3.742234e+002
5.221050e+002, 3.776385e+002
5.240334e+002, 3.831503e+002
5.259619e+002, 3.913235e+002
5.278904e+002, 4.028950e+002
5.298188e+002, 4.178321e+002
5.317473e+002, 4.373615e+002
5.336758e+002, 4.638074e+002
5.356042e+002, 4.825658e+002
5.375327e+002, 4.945847e+002
5.394612e+002, 4.957443e+002
5.413896e+002, 4.806800e+002
5.433181e+002, 4.633875e+002
5.452466e+002, 4.465732e+002
5.471750e+002, 4.339901e+002
5.491035e+002, 4.283957e+002
5.510320e+002, 4.286310e+002
5.529604e+002, 4.330172e+002
5.548889e+002, 4.415765e+002
5.568174e+002, 4.541054e+002
5.587458e+002, 4.702489e+002
5.606743e+002, 4.932848e+002
5.626028e+002, 5.229518e+002
5.645313e+002, 5.618936e+002
5.664598e+002, 6.113171e+002
5.683882e+002, 6.697648e+002
5.703167e+002, 7.468300e+002
5.722452e+002, 8.204365e+002
5.741736e+002, 8.854520e+002
5.761021e+002, 9.310363e+002
5.780306e+002, 9.400205e+002
5.799590e+002, 9.146243e+002
5.818875e+002, 8.617982e+002
5.838160e+002, 7.835404e+002
5.857444e+002, 7.074360e+002
5.876729e+002, 6.342294e+002
5.896014e+002, 5.736480e+002
5.915298e+002, 5.308611e+002
5.934583e+002, 4.959496e+002
5.953868e+002, 4.666900e+002
5.973152e+002, 4.437056e+002
5.992437e+002, 4.292694e+002
6.011722e+002, 4.195361e+002
6.031006e+002, 4.118804e+002
6.050291e+002, 4.053207e+002
6.069576e+002, 3.974714e+002
6.088860e+002, 3.888796e+002
6.108145e+002, 3.824171e+002
6.127430e+002, 3.783540e+002
6.146714e+002, 3.753191e+002
6.165999e+002, 3.735769e+002
6.185284e+002, 3.721039e+002
6.204568e+002, 3.715792e+002
6.223853e+002, 3.701685e+002
6.243138e+002, 3.657700e+002
6.262422e+002, 3.621832e+002
6.281707e+002, 3.629482e+002
6.300992e+002, 3.647341e+002
6.320276e+002, 3.641438e+002
6.339561e+002, 3.620151e+002
6.358846e+002, 3.595550e+002
6.378130e+002, 3.568793e+002
6.397415e+002, 3.550017e+002
6.416700e+002, 3.536739e+002
6.435984e+002, 3.541772e+002
6.455269e+002, 3.588630e+002
6.474554e+002, 3.608837e+002
6.493839e+002, 3.584030e+002
6.513123e+002, 3.557819e+002
6.532408e+002, 3.538294e+002
6.551693e+002, 3.526244e+002
6.570977e+002, 3.524277e+002
6.590262e+002, 3.528248e+002
6.609547e+002, 3.536000e+002
6.628831e+002, 3.546629e+002
6.648116e+002, 3.559821e+002
6.667401e+002, 3.574405e+002
6.686685e+002, 3.586908e+002
6.705970e+002, 3.597225e+002
6.725255e+002, 3.599103e+002
6.744539e+002, 3.589803e+002
6.763824e+002, 3.586371e+002
6.783109e+002, 3.589767e+002
6.802393e+002, 3.599300e+002
6.821678e+002, 3.615305e+002
6.840963e+002, 3.636935e+002
6.860247e+002, 3.664607e+002
6.879532e+002, 3.697107e+002
6.898817e+002, 3.733068e+002
6.918101e+002, 3.773943e+002
6.937386e+002, 3.818150e+002
6.956671e+002, 3.870059e+002
6.975955e+002, 3.938141e+002
6.995240e+002, 4.018616e+002
7.014525e+002, 4.108339e+002
7.033809e+002, 4.202914e+002
7.053094e+002, 4.270200e+002
7.072379e+002, 4.310081e+002
7.091663e+002, 4.316626e+002
7.110948e+002, 4.288117e+002
7.130233e+002, 4.231180e+002
7.149517e+002, 4.136288e+002
7.168802e+002, 4.043215e+002
7.188087e+002, 3.956252e+002
7.207371e+002, 3.883345e+002
7.226656e+002, 3.836741e+002
7.245941e+002, 3.792165e+002
7.265225e+002, 3.730099e+002
7.284510e+002, 3.672147e+002
7.303795e+002, 3.639425e+002
7.323079e+002, 3.619891e+002
7.342364e+002, 3.601425e+002
7.361649e+002, 3.581688e+002
7.380933e+002, 3.550652e+002
7.400218e+002, 3.514742e+002
7.419503e+002, 3.499399e+002
7.438787e+002, 3.504169e+002
7.458072e+002, 3.508076e+002
7.477357e+002, 3.509560e+002
7.496641e+002, 3.512833e+002
7.515926e+002, 3.521280e+002
7.535211e+002, 3.524900e+002
7.554495e+002, 3.525721e+002
7.573780e+002, 3.517144e+002
7.593065e+002, 3.485718e+002
7.612349e+002, 3.462901e+002
7.631634e+002, 3.464938e+002
7.650919e+002, 3.470657e+002
7.670203e+002, 3.474459e+002
7.689488e+002, 3.470315e+002
7.708773e+002, 3.447945e+002
7.728057e+002, 3.419919e+002
7.747342e+002, 3.390730e+002
7.766627e+002, 3.370475e+002
7.785911e+002, 3.383584e+002
7.805196e+002, 3.418816e+002
7.824481e+002, 3.442271e+002
7.843765e+002, 3.453624e+002
7.863050e+002, 3.439868e+002
7.882335e+002, 3.393977e+002
7.901619e+002, 3.394203e+002
7.920904e+002, 3.462316e+002
7.940189e+002, 3.498066e+002
7.959473e+002, 3.492474e+002
7.978758e+002, 3.483568e+002
7.998043e+002, 3.471099e+002
8.017327e+002, 3.469445e+002
8.036612e+002, 3.488876e+002
8.055897e+002, 3.501412e+002
8.075181e+002, 3.493355e+002
8.094466e+002, 3.485216e+002
8.113751e+002, 3.484560e+002
8.133035e+002, 3.488802e+002
8.152320e+002, 3.504277e+002
8.171605e+002, 3.514266e+002
8.190889e+002, 3.501028e+002
8.210174e+002, 3.482423e+002
8.229459e+002, 3.475323e+002
8.248743e+002, 3.475637e+002
8.268028e+002, 3.477018e+002
8.287313e+002, 3.481801e+002
8.306597e+002, 3.499270e+002
8.325882e+002, 3.523407e+002
8.345167e+002, 3.531592e+002
8.364451e+002, 3.526651e+002
8.383736e+002, 3.523942e+002
8.403021e+002, 3.524419e+002
8.422305e+002, 3.542054e+002
8.441590e+002, 3.576491e+002
8.460875e+002, 3.599380e+002
8.480159e+002, 3.607722e+002
8.499444e+002, 3.613561e+002
8.518729e+002, 3.615031e+002
8.538013e+002, 3.636627e+002
8.557298e+002, 3.695084e+002
8.576583e+002, 3.734590e+002
8.595867e+002, 3.733044e+002
8.615152e+002, 3.734210e+002
8.634437e+002, 3.748654e+002
8.653721e+002, 3.763253e+002
8.673006e+002, 3.779575e+002
8.692291e+002, 3.788262e+002
8.711575e+002, 3.782626e+002
8.730860e+002, 3.772999e+002
8.750145e+002, 3.750297e+002
8.769429e+002, 3.743631e+002
8.788714e+002, 3.787049e+002
8.807999e+002, 3.836007e+002
8.827283e+002, 3.858523e+002
8.846568e+002, 3.865502e+002
8.865853e+002, 3.857691e+002
8.885137e+002, 3.849079e+002
8.904422e+002, 3.863337e+002
8.923707e+002, 3.880627e+002
8.942991e+002, 3.869731e+002
8.962276e+002, 3.845781e+002
8.981561e+002, 3.830745e+002
9.000845e+002, 3.827485e+002
9.020130e+002, 3.847180e+002
9.039415e+002, 3.884616e+002
9.058699e+002, 3.924204e+002
9.077984e+002, 3.963080e+002
9.097269e+002, 3.971486e+002
9.116553e+002, 3.952416e+002
9.135838e+002, 3.976305e+002
9.155123e+002, 4.045800e+002
9.174407e+002, 4.071567e+002
9.193692e+002, 4.043758e+002
9.212977e+002, 4.060497e+002
9.232261e+002, 4.135558e+002
9.251546e+002, 4.176489e+002
9.270831e+002, 4.175859e+002
9.290115e+002, 4.181503e+002
9.309400e+002, 4.196700e+002
9.328685e+002, 4.214187e+002
9.347969e+002, 4.238995e+002
9.367254e+002, 4.232023e+002
9.386539e+002, 4.181520e+002
9.405823e+002, 4.136872e+002
9.425108e+002, 4.109069e+002
9.444393e+002, 4.074660e+002
9.463677e+002, 4.027183e+002
9.482962e+002, 3.979084e+002
9.502247e+002, 3.933802e+002
9.521531e+002, 3.886280e+002
9.540816e+002, 3.838328e+002
9.560101e+002, 3.776521e+002
9.579385e+002, 3.675131e+002
9.598670e+002, 3.611307e+002
9.617955e+002, 3.640873e+002
9.637239e+002, 3.649962e+002
9.656524e+002, 3.579610e+002
9.675809e+002, 3.520641e+002
9.695093e+002, 3.503122e+002
9.714378e+002, 3.497556e+002
9.733663e+002, 3.500945e+002
9.752947e+002, 3.503430e+002
9.772232e+002, 3.508511e+002
9.791517e+002, 3.500820e+002
9.810801e+002, 3.450349e+002
9.830086e+002, 3.419052e+002
9.849371e+002, 3.461620e+002
9.868655e+002, 3.497301e+002
9.887940e+002, 3.472045e+002
9.907225e+002, 3.442252e+002
9.926509e+002, 3.440568e+002
9.945794e+002, 3.445066e+002
9.965079e+002, 3.448060e+002
9.984363e+002, 3.445060e+002
1.000365e+003, 3.430458e+002
1.002293e+003, 3.412115e+002
1.004222e+003, 3.382738e+002
1.006150e+003, 3.367516e+002
1.008079e+003, 3.395859e+002
1.010007e+003, 3.429896e+002
1.011936e+003, 3.448318e+002
1.013864e+003, 3.454273e+002
1.015793e+003, 3.442311e+002
1.017721e+003, 3.429032e+002
1.019649e+003, 3.432113e+002
1.021578e+003, 3.432217e+002
1.023506e+003, 3.406569e+002
1.025435e+003, 3.382719e+002
1.027363e+003, 3.380775e+002
1.029292e+003, 3.389727e+002
1.031220e+003, 3.413109e+002
1.033149e+003, 3.428042e+002
1.035077e+003, 3.400753e+002
1.037006e+003, 3.379698e+002
1.038934e+003, 3.410440e+002
1.040863e+003, 3.449153e+002
1.042791e+003, 3.460754e+002
1.044719e+003, 3.473370e+002
1.046648e+003, 3.508832e+002
1.048576e+003, 3.549695e+002
1.050505e+003, 3.589301e+002
1.052433e+003, 3.623301e+002
1.054362e+003, 3.650893e+002
1.056290e+003, 3.669241e+002
1.058219e+003, 3.682347e+002
1.060147e+003, 3.677992e+002
1.062076e+003, 3.640621e+002
1.064004e+003, 3.593712e+002
1.065933e+003, 3.539576e+002
1.067861e+003, 3.496542e+002
1.069790e+003, 3.485797e+002
1.071718e+003, 3.474174e+002
1.073647e+003, 3.432980e+002
1.075575e+003, 3.400571e+002
1.077504e+003, 3.412093e+002
1.079432e+003, 3.415181e+002
1.081360e+003, 3.365452e+002
1.083289e+003, 3.330699e+002
1.085217e+003, 3.351611e+002
1.087146e+003, 3.377957e+002
1.089074e+003, 3.394066e+002
1.091003e+003, 3.404173e+002
1.092931e+003, 3.413653e+002
1.094860e+003, 3.410703e+002
1.096788e+003, 3.379999e+002
1.098717e+003, 3.354764e+002
1.100645e+003, 3.339960e+002
1.102574e+003, 3.339486e+002
1.104502e+003, 3.363776e+002
1.106431e+003, 3.386315e+002
1.108359e+003, 3.411172e+002
1.110287e+003, 3.417153e+002
1.112216e+003, 3.379318e+002
1.114144e+003, 3.362033e+002
1.116073e+003, 3.387217e+002
1.118001e+003, 3.405726e+002
1.119930e+003, 3.405956e+002
1.121858e+003, 3.415318e+002
1.123787e+003, 3.450802e+002
1.125715e+003, 3.457346e+002
1.127644e+003, 3.414152e+002
1.129572e+003, 3.392706e+002
1.131501e+003, 3.403455e+002
1.133429e+003, 3.409304e+002
1.135358e+003, 3.410367e+002
1.137286e+003, 3.405263e+002
1.139214e+003, 3.393647e+002
1.141143e+003, 3.373894e+002
1.143071e+003, 3.342745e+002
1.145000e+003, 3.362094e+002
1.146928e+003, 3.430554e+002
1.148857e+003, 3.445072e+002
1.150785e+003, 3.413440e+002
1.152714e+003, 3.424245e+002
1.154642e+003, 3.463683e+002
1.156571e+003, 3.451722e+002
1.158499e+003, 3.408698e+002
1.160428e+003, 3.408188e+002
1.162356e+003, 3.430259e+002
1.164285e+003, 3.422871e+002
1.166213e+003, 3.404114e+002
1.168141e+003, 3.408767e+002
1.170070e+003, 3.422905e+002
1.171998e+003, 3.432155e+002
1.173927e+003, 3.431931e+002
1.175855e+003, 3.403668e+002
1.177784e+003, 3.379026e+002
1.179712e+003, 3.395082e+002
1.181641e+003, 3.417361e+002
1.183569e+003, 3.423257e+002
1.185498e+003, 3.423139e+002
1.187426e+003, 3.419047e+002
1.189355e+003, 3.416859e+002
1.191283e+003, 3.420904e+002
1.193212e+003, 3.424137e+002
1.195140e+003, 3.425026e+002
1.197068e+003, 3.422918e+002
1.198997e+003, 3.415018e+002
1.200925e+003, 3.411586e+002
1.202854e+003, 3.414518e+002
1.204782e+003, 3.425764e+002
1.206711e+003, 3.449086e+002
1.208639e+003, 3.459993e+002
1.210568e+003, 3.453143e+002
1.212496e+003, 3.461304e+002
1.214425e+003, 3.487134e+002
1.216353e+003, 3.545557e+002
1.218282e+003, 3.638306e+002
1.220210e+003, 3.786961e+002
1.222139e+003, 3.978047e+002
1.224067e+003, 4.165280e+002
1.225995e+003, 4.326512e+002
1.227924e+003, 4.423320e+002
1.229852e+003, 4.432582e+002
1.231781e+003, 4.258770e+002
1.233709e+003, 4.014333e+002
1.235638e+003, 3.824736e+002
1.237566e+003, 3.691095e+002
1.239495e+003, 3.643358e+002
1.241423e+003, 3.614410e+002
1.243352e+003, 3.542498e+002
1.245280e+003, 3.481676e+002
1.247209e+003, 3.473243e+002
1.249137e+003, 3.468565e+002
1.251066e+003, 3.437933e+002
1.252994e+003, 3.425091e+002
1.254922e+003, 3.457129e+002
1.256851e+003, 3.473129e+002
1.258779e+003, 3.453141e+002
1.260708e+003, 3.439823e+002
1.262636e+003, 3.437756e+002
1.264565e+003, 3.445987e+002
1.266493e+003, 3.466304e+002
1.268422e+003, 3.486917e+002
1.270350e+003, 3.507822e+002
1.272279e+003, 3.525930e+002
1.274207e+003, 3.541750e+002
1.276136e+003, 3.556230e+002
1.278064e+003, 3.572833e+002
1.279993e+003, 3.598487e+002
1.281921e+003, 3.635505e+002
1.283849e+003, 3.679534e+002
1.285778e+003, 3.747454e+002
1.287706e+003, 3.876983e+002
1.289635e+003, 4.011690e+002
1.291563e+003, 4.121648e+002
1.293492e+003, 4.208995e+002
1.295420e+003, 4.279207e+002
1.297349e+003, 4.318250e+002
1.299277e+003, 4.320707e+002
1.301206e+003, 4.293098e+002
1.303134e+003, 4.234775e+002
1.305063e+003, 4.150135e+002
1.306991e+003, 4.038410e+002
1.308920e+003, 3.938588e+002
1.310848e+003, 3.854474e+002
1.312776e+003, 3.789744e+002
1.314705e+003, 3.742885e+002
1.316633e+003, 3.710884e+002
1.318562e+003, 3.687427e+002
1.320490e+003, 3.649147e+002
1.322419e+003, 3.618085e+002
1.324347e+003, 3.637427e+002
1.326276e+003, 3.666806e+002
1.328204e+003, 3.667882e+002
1.330133e+003, 3.662894e+002
1.332061e+003, 3.663022e+002
1.333990e+003, 3.666155e+002
1.335918e+003, 3.671324e+002
1.337847e+003, 3.679844e+002
1.339775e+003, 3.696694e+002
1.341703e+003, 3.703606e+002
1.343632e+003, 3.691177e+002
1.345560e+003, 3.708652e+002
1.347489e+003, 3.757698e+002
1.349417e+003, 3.801945e+002
1.351346e+003, 3.842143e+002
1.353274e+003, 3.880250e+002
1.355203e+003, 3.921585e+002
1.357131e+003, 3.964986e+002
1.359060e+003, 4.032723e+002
1.360988e+003, 4.158325e+002
1.362917e+003, 4.304593e+002
1.364845e+003, 4.433286e+002
1.366774e+003, 4.600807e+002
1.368702e+003, 4.843248e+002
1.370630e+003, 5.100949e+002
1.372559e+003, 5.363848e+002
1.374487e+003, 5.627685e+002
1.376416e+003, 5.913168e+002
1.378344e+003, 6.056271e+002
1.380273e+003, 6.053253e+002
1.382201e+003, 5.937718e+002
1.384130e+003, 5.726352e+002
1.386058e+003, 5.461683e+002
1.387987e+003, 5.177837e+002
1.389915e+003, 4.918731e+002
1.391844e+003, 4.702114e+002
1.393772e+003, 4.555835e+002
1.395701e+003, 4.444208e+002
1.397629e+003, 4.339925e+002
1.399557e+003, 4.284548e+002
1.401486e+003, 4.299142e+002
1.403414e+003, 4.325641e+002
1.405343e+003, 4.352662e+002
1.407271e+003, 4.428518e+002
1.409200e+003, 4.549572e+002
1.411128e+003, 4.607930e+002
1.413057e+003, 4.613880e+002
1.414985e+003, 4.621954e+002
1.416914e+003, 4.628456e+002
1.418842e+003, 4.628340e+002
1.420771e+003, 4.621558e+002
1.422699e+003, 4.596027e+002
1.424628e+003, 4.583262e+002
1.426556e+003, 4.602421e+002
1.428484e+003, 4.635426e+002
1.430413e+003, 4.679887e+002
1.432341e+003, 4.734500e+002
1.434270e+003, 4.801445e+002
1.436198e+003, 4.849762e+002
1.438127e+003, 4.881938e+002
1.440055e+003, 4.933826e+002
1.441984e+003, 4.989194e+002
1.443912e+003, 5.040003e+002
1.445841e+003, 5.029804e+002
1.447769e+003, 4.851214e+002
1.449698e+003, 4.649632e+002
1.451626e+003, 4.502013e+002
1.453555e+003, 4.390588e+002
1.455483e+003, 4.321510e+002
1.457411e+003, 4.261170e+002
1.459340e+003, 4.205746e+002
1.461268e+003, 4.159306e+002
1.463197e+003, 4.122628e+002
1.465125e+003, 4.104849e+002
1.467054e+003, 4.108249e+002
1.468982e+003, 4.143150e+002
1.470911e+003, 4.197714e+002
1.472839e+003, 4.264510e+002
1.474768e+003, 4.335067e+002
1.476696e+003, 4.419137e+002
1.478625e+003, 4.463120e+002
1.480553e+003, 4.440337e+002
1.482482e+003, 4.423944e+002
1.484410e+003, 4.428524e+002
1.486339e+003, 4.379754e+002
1.488267e+003, 4.287358e+002
1.490195e+003, 4.219555e+002
1.492124e+003, 4.161899e+002
1.494052e+003, 4.079061e+002
1.495981e+003, 3.999390e+002
1.497909e+003, 3.949948e+002
1.499838e+003, 3.910142e+002
1.501766e+003, 3.864099e+002
1.503695e+003, 3.861458e+002
1.505623e+003, 3.917597e+002
1.507552e+003, 3.927393e+002
1.509480e+003, 3.887587e+002
1.511409e+003, 3.855147e+002
1.513337e+003, 3.835122e+002
1.515266e+003, 3.845834e+002
1.517194e+003, 3.861742e+002
1.519122e+003, 3.851512e+002
1.521051e+003, 3.839698e+002
1.522979e+003, 3.830228e+002
1.524908e+003, 3.845581e+002
1.526836e+003, 3.898626e+002
1.528765e+003, 3.919941e+002
1.530693e+003, 3.908741e+002
1.532622e+003, 3.921463e+002
1.534550e+003, 3.940137e+002
1.536479e+003, 3.901009e+002
1.538407e+003, 3.857562e+002
1.540336e+003, 3.886127e+002
1.542264e+003, 3.899876e+002
1.544193e+003, 3.836145e+002
1.546121e+003, 3.779841e+002
1.548049e+003, 3.750722e+002
1.549978e+003, 3.710074e+002
1.551906e+003, 3.658815e+002
1.553835e+003, 3.645678e+002
1.555763e+003, 3.649998e+002
1.557692e+003, 3.627336e+002
1.559620e+003, 3.587899e+002
1.561549e+003, 3.521870e+002
1.563477e+003, 3.481049e+002
1.565406e+003, 3.499084e+002
1.567334e+003, 3.509605e+002
1.569263e+003, 3.502233e+002
1.571191e+003, 3.472061e+002
1.573120e+003, 3.427082e+002
1.575048e+003, 3.416769e+002
1.576976e+003, 3.426141e+002
1.578905e+003, 3.437362e+002
1.580833e+003, 3.450870e+002
1.582762e+003, 3.474765e+002
1.584690e+003, 3.475932e+002
1.586619e+003, 3.441013e+002
1.588547e+003, 3.415051e+002
1.590476e+003, 3.404190e+002
1.592404e+003, 3.433649e+002
1.594333e+003, 3.480203e+002
1.596261e+003, 3.490041e+002
1.598190e+003, 3.488886e+002
1.600118e+003, 3.494365e+002
1.602047e+003, 3.509425e+002
1.603975e+003, 3.541656e+002
1.605903e+003, 3.543120e+002
1.607832e+003, 3.510508e+002
1.609760e+003, 3.504149e+002
1.611689e+003, 3.515613e+002
1.613617e+003, 3.518267e+002
1.615546e+003, 3.512606e+002
1.617474e+003, 3.486989e+002
1.619403e+003, 3.475462e+002
1.621331e+003, 3.504221e+002
1.623260e+003, 3.508078e+002
1.625188e+003, 3.480605e+002
1.627117e+003, 3.491690e+002
1.629045e+003, 3.522836e+002
1.630974e+003, 3.507804e+002
1.632902e+003, 3.473944e+002
1.634830e+003, 3.441459e+002
1.636759e+003, 3.417182e+002
1.638687e+003, 3.411653e+002
1.640616e+003, 3.397397e+002
1.642544e+003, 3.371342e+002
1.644473e+003, 3.345993e+002
1.646401e+003, 3.322857e+002
1.648330e+003, 3.310696e+002
1.650258e+003, 3.297201e+002
1.652187e+003, 3.262624e+002
1.654115e+003, 3.240106e+002
1.656044e+003, 3.253160e+002
1.657972e+003, 3.248290e+002
1.659901e+003, 3.219471e+002
1.661829e+003, 3.240242e+002
1.663757e+003, 3.278883e+002
1.665686e+003, 3.239031e+002
1.667614e+003, 3.193010e+002
1.669543e+003, 3.196270e+002
1.671471e+003, 3.200595e+002
1.673400e+003, 3.189886e+002
1.675328e+003, 3.188369e+002
1.677257e+003, 3.196426e+002
1.679185e+003, 3.197267e+002
1.681114e+003, 3.192219e+002
1.683042e+003, 3.183319e+002
1.684971e+003, 3.168122e+002
1.686899e+003, 3.138982e+002
1.688828e+003, 3.130284e+002
1.690756e+003, 3.149511e+002
1.692684e+003, 3.148123e+002
1.694613e+003, 3.129285e+002
1.696541e+003, 3.105560e+002
1.698470e+003, 3.087149e+002
1.700398e+003, 3.083607e+002
1.702327e+003, 3.094225e+002
1.704255e+003, 3.121974e+002
1.706184e+003, 3.144617e+002
1.708112e+003, 3.157763e+002
1.710041e+003, 3.142428e+002
1.711969e+003, 3.113608e+002
1.713898e+003, 3.087710e+002
1.715826e+003, 3.072359e+002
1.717755e+003, 3.082806e+002
1.719683e+003, 3.078441e+002
1.721611e+003, 3.053912e+002
1.723540e+003, 3.056988e+002
1.725468e+003, 3.075927e+002
1.727397e+003, 3.078569e+002
1.729325e+003, 3.069980e+002
1.731254e+003, 3.045527e+002
1.733182e+003, 3.029789e+002
1.735111e+003, 3.030405e+002
1.737039e+003, 3.037030e+002
1.738968e+003, 3.048043e+002
1.740896e+003, 3.064279e+002
1.742825e+003, 3.068315e+002
1.744753e+003, 3.026525e+002
1.746682e+003, 2.999059e+002
1.748610e+003, 3.018098e+002
1.750538e+003, 3.032760e+002
1.752467e+003, 3.038954e+002
1.754395e+003, 3.000425e+002
1.756324e+003, 2.959488e+002
1.758252e+003, 2.989541e+002
1.760181e+003, 3.014578e+002
1.762109e+003, 2.999023e+002
1.764038e+003, 2.985316e+002
1.765966e+003, 2.979094e+002
1.767895e+003, 2.986480e+002
1.769823e+003, 2.995172e+002
1.771752e+003, 2.976745e+002
1.773680e+003, 2.962401e+002
1.775609e+003, 2.967161e+002
1.777537e+003, 2.974048e+002
1.779465e+003, 2.980211e+002
1.781394e+003, 2.981021e+002
1.783322e+003, 2.974621e+002
1.785251e+003, 2.941697e+002
1.787179e+003, 2.930687e+002
1.789108e+003, 2.978000e+002
1.791036e+003, 2.975304e+002
1.792965e+003, 2.915397e+002
1.794893e+003, 2.906787e+002
1.796822e+003, 2.924369e+002
1.798750e+003, 2.930499e+002
1.800679e+003, 2.924966e+002
1.802607e+003, 2.897626e+002
1.804536e+003, 2.903976e+002
1.806464e+003, 2.942439e+002
1.808392e+003, 2.942726e+002
1.810321e+003, 2.922176e+002
1.812249e+003, 2.894134e+002
1.814178e+003, 2.884514e+002
1.816106e+003, 2.924882e+002
1.818035e+003, 2.920990e+002
1.819963e+003, 2.877431e+002
1.821892e+003, 2.868492e+002
1.823820e+003, 2.874850e+002
1.825749e+003, 2.875569e+002
1.827677e+003, 2.874202e+002
1.829606e+003, 2.865186e+002
1.831534e+003, 2.882573e+002
1.833463e+003, 2.914982e+002
1.835391e+003, 2.885530e+002
1.837319e+003, 2.839705e+002
1.839248e+003, 2.808766e+002
1.841176e+003, 2.799501e+002
1.843105e+003, 2.822497e+002
1.845033e+003, 2.825475e+002
1.846962e+003, 2.818410e+002
1.848890e+003, 2.838517e+002
1.850819e+003, 2.850814e+002
1.852747e+003, 2.827673e+002
1.854676e+003, 2.819804e+002
1.856604e+003, 2.836985e+002
1.858533e+003, 2.826962e+002
1.860461e+003, 2.807518e+002
1.862390e+003, 2.813434e+002
1.864318e+003, 2.815894e+002
1.866246e+003, 2.803264e+002
1.868175e+003, 2.791259e+002
1.870103e+003, 2.784289e+002
1.872032e+003, 2.805226e+002
1.873960e+003, 2.822669e+002
1.875889e+003, 2.797801e+002
1.877817e+003, 2.768497e+002
1.879746e+003, 2.741641e+002
1.881674e+003, 2.757018e+002
1.883603e+003, 2.784872e+002
1.885531e+003, 2.737538e+002
1.887460e+003, 2.706470e+002
1.889388e+003, 2.757778e+002
1.891317e+003, 2.766584e+002
1.893245e+003, 2.731170e+002
1.895173e+003, 2.726233e+002
1.897102e+003, 2.725218e+002
1.899030e+003, 2.679297e+002
1.900959e+003, 2.670984e+002
1.902887e+003, 2.723300e+002
1.904816e+003, 2.737642e+002
1.906744e+003, 2.724509e+002
1.908673e+003, 2.718449e+002
1.910601e+003, 2.702994e+002
1.912530e+003, 2.648765e+002
1.914458e+003, 2.636684e+002
1.916387e+003, 2.665987e+002
1.918315e+003, 2.709961e+002
1.920244e+003, 2.741513e+002
1.922172e+003, 2.728849e+002
1.924100e+003, 2.711900e+002
1.926029e+003, 2.698717e+002
1.927957e+003, 2.700089e+002
1.929886e+003, 2.702128e+002
1.931814e+003, 2.670971e+002
1.933743e+003, 2.648143e+002
1.935671e+003, 2.655723e+002
1.937600e+003, 2.644190e+002
1.939528e+003, 2.618035e+002
1.941457e+003, 2.595999e+002
1.943385e+003, 2.596852e+002
1.945314e+003, 2.645197e+002
1.947242e+003, 2.643600e+002
1.949171e+003, 2.585065e+002
1.951099e+003, 2.593661e+002
1.953027e+003, 2.619333e+002
1.954956e+003, 2.605215e+002
1.956884e+003, 2.585702e+002
1.958813e+003, 2.567791e+002
1.960741e+003, 2.550379e+002
1.962670e+003, 2.538797e+002
1.964598e+003, 2.544290e+002
1.966527e+003, 2.560266e+002
1.968455e+003, 2.587304e+002
1.970384e+003, 2.563933e+002
1.972312e+003, 2.520395e+002
1.974241e+003, 2.560581e+002
1.976169e+003, 2.595087e+002
1.978098e+003, 2.568298e+002
1.980026e+003, 2.562595e+002
1.981954e+003, 2.573666e+002
1.983883e+003, 2.553022e+002
1.985811e+003, 2.527483e+002
1.987740e+003, 2.512483e+002
1.989668e+003, 2.519349e+002
1.991597e+003, 2.542814e+002
1.993525e+003, 2.528608e+002
1.995454e+003, 2.510773e+002
1.997382e+003, 2.535745e+002
1.999311e+003, 2.531574e+002
2.001239e+003, 2.489052e+002
2.003168e+003, 2.467726e+002
2.005096e+003, 2.469171e+002
2.007025e+003, 2.510822e+002
2.008953e+003, 2.526311e+002
2.010881e+003, 2.494950e+002
2.012810e+003, 2.476863e+002
2.014738e+003, 2.472712e+002
2.016667e+003, 2.491224e+002
2.018595e+003, 2.499512e+002
2.020524e+003, 2.485082e+002
2.022452e+003, 2.477966e+002
2.024381e+003, 2.471105e+002
2.026309e+003, 2.438905e+002
2.028238e+003, 2.435120e+002
2.030166e+003, 2.481076e+002
2.032095e+003, 2.476127e+002
2.034023e+003, 2.441899e+002
2.035952e+003, 2.418363e+002
2.037880e+003, 2.413779e+002
2.039808e+003, 2.432312e+002
2.041737e+003, 2.425255e+002
2.043665e+003, 2.407428e+002
2.045594e+003, 2.414238e+002
2.047522e+003, 2.426962e+002
2.049451e+003, 2.440997e+002
2.051379e+003, 2.406789e+002
2.053308e+003, 2.359491e+002
2.055236e+003, 2.382231e+002
2.057165e+003, 2.404526e+002
2.059093e+003, 2.404201e+002
2.061022e+003, 2.388167e+002
2.062950e+003, 2.367891e+002
2.064879e+003, 2.370411e+002
2.066807e+003, 2.356888e+002
2.068736e+003, 2.311925e+002
2.070664e+003, 2.310769e+002
2.072593e+003, 2.332354e+002
2.074521e+003, 2.342348e+002
2.076449e+003, 2.340062e+002
2.078378e+003, 2.324055e+002
2.080306e+003, 2.317600e+002
2.082235e+003, 2.316105e+002
2.084163e+003, 2.314720e+002
2.086092e+003, 2.306913e+002
2.088020e+003, 2.289023e+002
2.089949e+003, 2.293888e+002
2.091877e+003, 2.305954e+002
2.093806e+003, 2.309020e+002
2.095734e+003, 2.306192e+002
2.097663e+003, 2.298259e+002
2.099591e+003, 2.287617e+002
2.101520e+003, 2.272473e+002
2.103448e+003, 2.245370e+002
2.105376e+003, 2.238228e+002
2.107305e+003, 2.254634e+002
2.109233e+003, 2.295031e+002
2.111162e+003, 2.306488e+002
2.113090e+003, 2.242470e+002
2.115019e+003, 2.222817e+002
2.116947e+003, 2.247957e+002
2.118876e+003, 2.249803e+002
2.120804e+003, 2.249202e+002
2.122733e+003, 2.257146e+002
2.124661e+003, 2.268007e+002
2.126590e+003, 2.267746e+002
2.128518e+003, 2.194075e+002
2.130447e+003, 2.164908e+002
2.132375e+003, 2.221699e+002
2.134303e+003, 2.224131e+002
2.136232e+003, 2.198963e+002
2.138160e+003, 2.202761e+002
2.140089e+003, 2.204454e+002
2.142017e+003, 2.197394e+002
2.143946e+003, 2.186242e+002
2.145874e+003, 2.176842e+002
2.147803e+003, 2.180075e+002
2.149731e+003, 2.170535e+002
2.151660e+003, 2.150531e+002
2.153588e+003, 2.149483e+002
2.155517e+003, 2.158428e+002
2.157445e+003, 2.187800e+002
2.159374e+003, 2.160658e+002
2.161302e+003, 2.103386e+002
2.163230e+003, 2.100433e+002
2.165159e+003, 2.099535e+002
2.167087e+003, 2.072206e+002
2.169016e+003, 2.091827e+002
2.170944e+003, 2.118218e+002
2.172873e+003, 2.087314e+002
2.174801e+003, 2.070198e+002
2.176730e+003, 2.081134e+002
2.178658e+003, 2.109281e+002
2.180587e+003, 2.119367e+002
2.182515e+003, 2.074786e+002
2.184444e+003, 2.073385e+002
2.186372e+003, 2.104863e+002
2.188301e+003, 2.110741e+002
2.190229e+003, 2.089354e+002
2.192157e+003, 2.037033e+002
2.194086e+003, 2.040630e+002
2.196014e+003, 2.064625e+002
2.197943e+003, 2.049243e+002
2.199871e+003, 2.035084e+002
2.201800e+003, 2.031034e+002
2.203728e+003, 2.039126e+002
2.205657e+003, 2.061641e+002
2.207585e+003, 2.107226e+002
2.209514e+003, 2.104997e+002
2.211442e+003, 2.068017e+002
2.213371e+003, 2.039392e+002
2.215299e+003, 2.015954e+002
2.217228e+003, 1.996537e+002
2.219156e+003, 1.989205e+002
2.221084e+003, 1.993534e+002
2.223013e+003, 2.024219e+002
2.224941e+003, 2.017903e+002
2.226870e+003, 1.987540e+002
2.228798e+003, 2.016115e+002
2.230727e+003, 2.027012e+002
2.232655e+003, 1.974650e+002
2.234584e+003, 1.977040e+002
2.236512e+003, 1.999274e+002
2.238441e+003, 1.981726e+002
2.240369e+003, 1.983459e+002
2.242298e+003, 2.007337e+002
2.244226e+003, 2.002082e+002
2.246155e+003, 1.996817e+002
2.248083e+003, 2.016284e+002
2.250011e+003, 2.000212e+002
2.251940e+003, 1.969814e+002
2.253868e+003, 1.958767e+002
2.255797e+003, 1.961564e+002
2.257725e+003, 1.973932e+002
2.259654e+003, 1.963543e+002
2.261582e+003, 1.946679e+002
2.263511e+003, 1.931530e+002
2.265439e+003, 1.926044e+002
2.267368e+003, 1.928319e+002
2.269296e+003, 1.942557e+002
2.271225e+003, 1.932329e+002
2.273153e+003, 1.898240e+002
2.275082e+003, 1.929757e+002
2.277010e+003, 1.947215e+002
2.278938e+003, 1.905215e+002
2.280867e+003, 1.909049e+002
2.282795e+003, 1.931303e+002
2.284724e+003, 1.912281e+002
2.286652e+003, 1.896455e+002
2.288581e+003, 1.892303e+002
2.290509e+003, 1.907125e+002
2.292438e+003, 1.915571e+002
2.294366e+003, 1.904916e+002
2.296295e+003, 1.900940e+002
2.298223e+003, 1.900491e+002
2.300152e+003, 1.900135e+002
2.302080e+003, 1.889412e+002
2.304009e+003, 1.873920e+002
2.305937e+003, 1.881976e+002
2.307865e+003, 1.884229e+002
2.309794e+003, 1.868997e+002
2.311722e+003, 1.870928e+002
2.313651e+003, 1.874674e+002
2.315579e+003, 1.864281e+002
2.317508e+003, 1.848812e+002
2.319436e+003, 1.833525e+002
2.321365e+003, 1.833030e+002
2.323293e+003, 1.821140e+002
2.325222e+003, 1.794322e+002
2.327150e+003, 1.833202e+002
2.329079e+003, 1.860653e+002
2.331007e+003, 1.824586e+002
2.332936e+003, 1.806377e+002
2.334864e+003, 1.803263e+002
2.336792e+003, 1.809948e+002
2.338721e+003, 1.805576e+002
2.340649e+003, 1.794110e+002
2.342578e+003, 1.809730e+002
2.344506e+003, 1.813903e+002
2.346435e+003, 1.794688e+002
2.348363e+003, 1.779772e+002
2.350292e+003, 1.774985e+002
2.352220e+003, 1.785109e+002
2.354149e+003, 1.783746e+002
2.356077e+003, 1.773883e+002
2.358006e+003, 1.756911e+002
2.359934e+003, 1.757970e+002
2.361863e+003, 1.770799e+002
2.363791e+003, 1.754576e+002
2.365719e+003, 1.734226e+002
2.367648e+003, 1.718946e+002
2.369576e+003, 1.724675e+002
2.371505e+003, 1.731128e+002
2.373433e+003, 1.719290e+002
2.375362e+003, 1.742103e+002
2.377290e+003, 1.768362e+002
2.379219e+003, 1.740497e+002
2.381147e+003, 1.726012e+002
2.383076e+003, 1.725656e+002
2.385004e+003, 1.718002e+002
2.386933e+003, 1.698926e+002
2.388861e+003, 1.669115e+002
2.390790e+003, 1.654489e+002
2.392718e+003, 1.662752e+002
2.394646e+003, 1.714091e+002
2.396575e+003, 1.718547e+002
2.398503e+003, 1.705394e+002
2.400432e+003, 1.705471e+002
2.402360e+003, 1.696489e+002
2.404289e+003, 1.680832e+002
2.406217e+003, 1.660222e+002
2.408146e+003, 1.668978e+002
2.410074e+003, 1.698874e+002
2.412003e+003, 1.676628e+002
2.413931e+003, 1.647085e+002
2.415860e+003, 1.625822e+002
2.417788e+003, 1.620888e+002
2.419717e+003, 1.620377e+002
2.421645e+003, 1.617556e+002
2.423573e+003, 1.597890e+002
2.425502e+003, 1.589398e+002
2.427430e+003, 1.629883e+002
2.429359e+003, 1.605261e+002
2.431287e+003, 1.555003e+002
2.433216e+003, 1.577775e+002
2.435144e+003, 1.593916e+002
2.437073e+003, 1.592666e+002
2.439001e+003, 1.572941e+002
2.440930e+003, 1.564384e+002
2.442858e+003, 1.573344e+002
2.444787e+003, 1.601454e+002
2.446715e+003, 1.617106e+002
2.448644e+003, 1.608076e+002
2.450572e+003, 1.578583e+002
2.452500e+003, 1.554286e+002
2.454429e+003, 1.551118e+002
2.456357e+003, 1.588814e+002
2.458286e+003, 1.624159e+002
2.460214e+003, 1.601981e+002
2.462143e+003, 1.587772e+002
2.464071e+003, 1.572567e+002
2.466000e+003, 1.520688e+002
2.467928e+003, 1.519999e+002
2.469857e+003, 1.555857e+002
2.471785e+003, 1.572451e+002
2.473714e+003, 1.543492e+002
2.475642e+003, 1.481626e+002
2.477571e+003, 1.483240e+002
2.479499e+003, 1.504480e+002
2.481427e+003, 1.528248e+002
2.483356e+003, 1.491104e+002
2.485284e+003, 1.466532e+002
2.487213e+003, 1.485709e+002
2.489141e+003, 1.453735e+002
2.491070e+003, 1.420064e+002
2.492998e+003, 1.414248e+002
2.494927e+003, 1.448908e+002
2.496855e+003, 1.478686e+002
2.498784e+003, 1.466792e+002
2.500712e+003, 1.445599e+002
2.502641e+003, 1.421915e+002
2.504569e+003, 1.394902e+002
2.506498e+003, 1.399532e+002
2.508426e+003, 1.414315e+002
2.510354e+003, 1.394651e+002
2.512283e+003, 1.378981e+002
2.514211e+003, 1.373812e+002
2.516140e+003, 1.388825e+002
2.518068e+003, 1.392070e+002
2.519997e+003, 1.383364e+002
2.521925e+003, 1.371139e+002
2.523854e+003, 1.378931e+002
2.525782e+003, 1.398233e+002
2.527711e+003, 1.371476e+002
2.529639e+003, 1.367608e+002
2.531568e+003, 1.392533e+002
2.533496e+003, 1.353655e+002
2.535425e+003, 1.329987e+002
2.537353e+003, 1.343804e+002
2.539281e+003, 1.326372e+002
2.541210e+003, 1.328125e+002
2.543138e+003, 1.368197e+002
2.545067e+003, 1.357108e+002
2.546995e+003, 1.332070e+002
2.548924e+003, 1.310501e+002
2.550852e+003, 1.322945e+002
2.552781e+003, 1.348546e+002
2.554709e+003, 1.374831e+002
2.556638e+003, 1.330165e+002
2.558566e+003, 1.295512e+002
2.560495e+003, 1.316233e+002
2.562423e+003, 1.299674e+002
2.564352e+003, 1.280161e+002
2.566280e+003, 1.281926e+002
2.568208e+003, 1.273628e+002
2.570137e+003, 1.254310e+002
2.572065e+003, 1.223255e+002
2.573994e+003, 1.266251e+002
2.575922e+003, 1.297393e+002
2.577851e+003, 1.244330e+002
2.579779e+003, 1.211049e+002
2.581708e+003, 1.197472e+002
2.583636e+003, 1.202977e+002
2.585565e+003, 1.183888e+002
2.587493e+003, 1.161625e+002
2.589422e+003, 1.158354e+002
2.591350e+003, 1.155309e+002
2.593279e+003, 1.160621e+002
2.595207e+003, 1.193619e+002
2.597135e+003, 1.188350e+002
2.599064e+003, 1.176589e+002
2.600992e+003, 1.193904e+002
2.602921e+003, 1.209898e+002
2.604849e+003, 1.208767e+002
2.606778e+003, 1.170995e+002
2.608706e+003, 1.146024e+002
2.610635e+003, 1.140140e+002
2.612563e+003, 1.159283e+002
2.614492e+003, 1.168017e+002
2.616420e+003, 1.159841e+002
2.618349e+003, 1.129731e+002
2.620277e+003, 1.155558e+002
2.622206e+003, 1.166913e+002
2.624134e+003, 1.113083e+002
2.626063e+003, 1.130619e+002
2.627991e+003, 1.162296e+002
2.629919e+003, 1.166479e+002
2.631848e+003, 1.149812e+002
2.633776e+003, 1.131678e+002
2.635705e+003, 1.122543e+002
2.637633e+003, 1.118286e+002
2.639562e+003, 1.108897e+002
2.641490e+003, 1.090216e+002
2.643419e+003, 1.067561e+002
2.645347e+003, 1.045963e+002
2.647276e+003, 1.030293e+002
2.649204e+003, 1.069066e+002
2.651133e+003, 1.072239e+002
2.653061e+003, 1.020432e+002
2.654990e+003, 1.050854e+002
2.656918e+003, 1.061277e+002
2.658846e+003, 1.027853e+002
2.660775e+003, 1.021411e+002
2.662703e+003, 1.010315e+002
2.664632e+003, 9.945954e+001
2.666560e+003, 1.036791e+002
2.668489e+003, 1.028555e+002
2.670417e+003, 9.765770e+001
2.672346e+003, 9.778193e+001
2.674274e+003, 1.009919e+002
2.676203e+003, 1.044718e+002
2.678131e+003, 1.026029e+002
2.680060e+003, 1.024145e+002
2.681988e+003, 1.023006e+002
2.683917e+003, 9.670031e+001
2.685845e+003, 9.927607e+001
2.687773e+003, 1.030747e+002
2.689702e+003, 9.736177e+001
2.691630e+003, 9.561393e+001
2.693559e+003, 9.626411e+001
2.695487e+003, 9.668010e+001
2.697416e+003, 9.856982e+001
2.699344e+003, 9.989478e+001
2.701273e+003, 9.928983e+001
2.703201e+003, 9.552122e+001
2.705130e+003, 9.475334e+001
2.707058e+003, 9.866497e+001
2.708987e+003, 9.572444e+001
2.710915e+003, 9.264419e+001
2.712844e+003, 9.166309e+001
2.714772e+003, 9.043866e+001
2.716700e+003, 9.037500e+001
2.718629e+003, 9.151661e+001
2.720557e+003, 9.322518e+001
2.722486e+003, 9.467020e+001
2.724414e+003, 9.481105e+001
2.726343e+003, 9.096004e+001
2.728271e+003, 9.005118e+001
2.730200e+003, 9.143973e+001
2.732128e+003, 9.385406e+001
2.734057e+003, 9.394714e+001
2.735985e+003, 9.251548e+001
2.737914e+003, 9.014058e+001
2.739842e+003, 8.966142e+001
2.741771e+003, 8.888731e+001
2.743699e+003, 8.655104e+001
2.745627e+003, 8.921138e+001
2.747556e+003, 9.090390e+001
2.749484e+003, 8.975588e+001
2.751413e+003, 8.811183e+001
2.753341e+003, 8.653931e+001
2.755270e+003, 8.532201e+001
2.757198e+003, 8.462929e+001
2.759127e+003, 8.613728e+001
2.761055e+003, 8.833385e+001
2.762984e+003, 8.902055e+001
2.764912e+003, 8.571413e+001
2.766841e+003, 8.421759e+001
2.768769e+003, 8.909795e+001
2.770698e+003, 8.644881e+001
2.772626e+003, 8.475526e+001
2.774554e+003, 8.750305e+001
2.776483e+003, 8.705985e+001
2.778411e+003, 8.658838e+001
2.780340e+003, 8.665840e+001
2.782268e+003, 8.566053e+001
2.784197e+003, 8.424426e+001
2.786125e+003, 8.271523e+001
2.788054e+003, 8.078616e+001
2.789982e+003, 8.199126e+001
2.791911e+003, 8.376310e+001
2.793839e+003, 8.314812e+001
2.795768e+003, 8.067931e+001
2.797696e+003, 8.075624e+001
2.799625e+003, 8.526743e+001
2.801553e+003, 7.952311e+001
2.803481e+003, 7.782368e+001
2.805410e+003, 8.145840e+001
2.807338e+003, 8.156474e+001
2.809267e+003, 8.059685e+001
2.811195e+003, 7.965700e+001
2.813124e+003, 7.954447e+001
2.815052e+003, 8.051310e+001
2.816981e+003, 8.089278e+001
2.818909e+003, 7.975170e+001
2.820838e+003, 8.043811e+001
2.822766e+003, 7.971746e+001
2.824695e+003, 7.699323e+001
2.826623e+003, 7.473878e+001
2.828552e+003, 7.817368e+001
2.830480e+003, 8.286485e+001
2.832408e+003, 7.771838e+001
2.834337e+003, 7.475845e+001
2.836265e+003, 7.504252e+001
2.838194e+003, 7.845921e+001
2.840122e+003, 7.592895e+001
2.842051e+003, 7.429801e+001
2.843979e+003, 7.548224e+001
2.845908e+003, 7.521967e+001
2.847836e+003, 7.350249e+001
2.849765e+003, 7.278616e+001
2.851693e+003, 7.849146e+001
2.853622e+003, 7.884030e+001
2.855550e+003, 7.816679e+001
2.857479e+003, 8.146486e+001
2.859407e+003, 7.943033e+001
2.861335e+003, 7.709957e+001
2.863264e+003, 7.619189e+001
2.865192e+003, 7.548763e+001
2.867121e+003, 7.627425e+001
2.869049e+003, 7.670608e+001
2.870978e+003, 7.379270e+001
2.872906e+003, 7.531793e+001
2.874835e+003, 7.630364e+001
2.876763e+003, 7.354390e+001
2.878692e+003, 7.036993e+001
2.880620e+003, 7.193450e+001
2.882549e+003, 7.589126e+001
2.884477e+003, 7.159772e+001
2.886406e+003, 6.936996e+001
2.888334e+003, 6.938503e+001
2.890262e+003, 7.060471e+001
2.892191e+003, 7.135435e+001
2.894119e+003, 7.161327e+001
2.896048e+003, 7.159232e+001
2.897976e+003, 7.194615e+001
2.899905e+003, 7.165941e+001
2.901833e+003, 7.183630e+001
2.903762e+003, 7.498891e+001
2.905690e+003, 7.273843e+001
2.907619e+003, 7.298232e+001
2.909547e+003, 7.884580e+001
2.911476e+003, 8.182990e+001
2.913404e+003, 8.311360e+001
2.915333e+003, 8.371828e+001
2.917261e+003, 8.408829e+001
2.919189e+003, 8.876573e+001
2.921118e+003, 9.317474e+001
2.923046e+003, 9.434734e+001
2.924975e+003, 9.983021e+001
2.926903e+003, 1.055264e+002
2.928832e+003, 1.093472e+002
2.930760e+003, 1.092207e+002
2.932689e+003, 1.085694e+002
2.934617e+003, 1.061112e+002
2.936546e+003, 1.008537e+002
2.938474e+003, 9.350499e+001
2.940403e+003, 8.680627e+001
2.942331e+003, 8.155642e+001
2.944260e+003, 7.772679e+001
2.946188e+003, 7.533607e+001
2.948116e+003, 7.351063e+001
2.950045e+003, 7.134996e+001
2.951973e+003, 6.497990e+001
2.953902e+003, 6.276246e+001
2.955830e+003, 6.402418e+001
2.957759e+003, 6.264003e+001
2.959687e+003, 6.283274e+001
2.961616e+003, 6.624989e+001
2.963544e+003, 7.246858e+001
2.965473e+003, 7.059872e+001
2.967401e+003, 7.660775e+001
2.969330e+003, 8.630415e+001
2.971258e+003, 8.769930e+001
2.973187e+003, 8.469279e+001
2.975115e+003, 7.893953e+001
2.977043e+003, 7.176900e+001
2.978972e+003, 6.619717e+001
2.980900e+003, 6.269233e+001
2.982829e+003, 6.078464e+001
2.984757e+003, 5.992500e+001
2.986686e+003, 5.936576e+001
2.988614e+003, 5.828068e+001
2.990543e+003, 5.656279e+001
2.992471e+003, 5.470984e+001
2.994400e+003, 5.490745e+001
2.996328e+003, 5.462106e+001
2.998257e+003, 5.197047e+001
3.000185e+003, 4.887994e+001
3.002114e+003, 4.871999e+001
3.004042e+003, 5.057235e+001
3.005970e+003, 5.131564e+001
3.007899e+003, 4.931718e+001
3.009827e+003, 4.777382e+001
3.011756e+003, 4.792416e+001
3.013684e+003, 4.851424e+001
3.015613e+003, 4.636511e+001
3.017541e+003, 4.377262e+001
3.019470e+003, 4.360080e+001
3.021398e+003, 4.532642e+001
3.023327e+003, 4.472832e+001
3.025255e+003, 4.279903e+001
3.027184e+003, 4.459753e+001
3.029112e+003, 4.532463e+001
3.031041e+003, 4.505172e+001
3.032969e+003, 4.433249e+001
3.034897e+003, 4.554988e+001
3.036826e+003, 4.459680e+001
3.038754e+003, 4.238861e+001
3.040683e+003, 4.037684e+001
3.042611e+003, 4.501164e+001
3.044540e+003, 4.402758e+001
3.046468e+003, 3.914328e+001
3.048397e+003, 4.076989e+001
3.050325e+003, 4.137986e+001
3.052254e+003, 4.051510e+001
3.054182e+003, 3.874182e+001
3.056111e+003, 3.738322e+001
3.058039e+003, 3.780693e+001
3.059968e+003, 3.833790e+001
3.061896e+003, 3.752764e+001
3.063824e+003, 3.404898e+001
3.065753e+003, 3.453512e+001
3.067681e+003, 3.715615e+001
3.069610e+003, 3.757096e+001
3.071538e+003, 3.723482e+001
3.073467e+003, 3.641081e+001
3.075395e+003, 3.654837e+001
3.077324e+003, 4.143821e+001
3.079252e+003, 4.389607e+001
3.081181e+003, 4.183582e+001
3.083109e+003, 3.699976e+001
3.085038e+003, 3.891702e+001
3.086966e+003, 4.069052e+001
3.088895e+003, 3.999617e+001
3.090823e+003, 3.634322e+001
3.092751e+003, 3.671719e+001
3.094680e+003, 3.826913e+001
3.096608e+003, 3.879433e+001
3.098537e+003, 3.674726e+001
3.100465e+003, 3.637351e+001
3.102394e+003, 3.484657e+001
3.104322e+003, 3.500340e+001
3.106251e+003, 4.149566e+001
3.108179e+003, 3.521235e+001
3.110108e+003, 3.385760e+001
3.112036e+003, 3.770683e+001
3.113965e+003, 3.367047e+001
3.115893e+003, 3.151096e+001
3.117822e+003, 3.114351e+001
3.119750e+003, 3.199493e+001
3.121678e+003, 3.431535e+001
3.123607e+003, 3.437693e+001
3.125535e+003, 3.431083e+001
3.127464e+003, 3.438149e+001
3.129392e+003, 3.002964e+001
3.131321e+003, 3.138256e+001
3.133249e+003, 3.197948e+001
3.135178e+003, 2.825496e+001
3.137106e+003, 2.614982e+001
3.139035e+003, 3.056483e+001
3.140963e+003, 3.372669e+001
3.142892e+003, 2.995600e+001
3.144820e+003, 2.697066e+001
3.146749e+003, 2.571991e+001
3.148677e+003, 2.781949e+001
3.150605e+003, 3.388259e+001
3.152534e+003, 3.064567e+001
3.154462e+003, 2.953349e+001
3.156391e+003, 2.907152e+001
3.158319e+003, 2.633625e+001
3.160248e+003, 3.038854e+001
3.162176e+003, 3.119399e+001
3.164105e+003, 2.990098e+001
3.166033e+003, 2.940626e+001
3.167962e+003, 2.556796e+001
3.169890e+003, 2.602150e+001
3.171819e+003, 2.823700e+001
3.173747e+003, 2.826347e+001
3.175676e+003, 2.973598e+001
3.177604e+003, 3.080616e+001
3.179532e+003, 3.143432e+001
3.181461e+003, 3.182817e+001
3.183389e+003, 2.877927e+001
3.185318e+003, 2.866538e+001
3.187246e+003, 2.877969e+001
3.189175e+003, 2.551723e+001
3.191103e+003, 2.592616e+001
3.193032e+003, 2.782100e+001
3.194960e+003, 3.007178e+001
3.196889e+003, 3.198605e+001
3.198817e+003, 2.885453e+001
3.200746e+003, 2.687107e+001
3.202674e+003, 2.755085e+001
3.204603e+003, 3.037346e+001
3.206531e+003, 2.579910e+001
3.208459e+003, 2.663078e+001
3.210388e+003, 2.833036e+001
3.212316e+003, 2.646320e+001
3.214245e+003, 2.549329e+001
3.216173e+003, 2.395229e+001
3.218102e+003, 2.380877e+001
3.220030e+003, 2.558879e+001
3.221959e+003, 2.584291e+001
3.223887e+003, 2.442994e+001
3.225816e+003, 2.166382e+001
3.227744e+003, 1.896155e+001
3.229673e+003, 1.968627e+001
3.231601e+003, 2.545669e+001
3.233530e+003, 2.706019e+001
3.235458e+003, 2.392863e+001
3.237386e+003, 2.344242e+001
3.239315e+003, 2.383395e+001
3.241243e+003, 2.116990e+001
3.243172e+003, 1.829067e+001
3.245100e+003, 2.190431e+001
3.247029e+003, 2.455484e+001
3.248957e+003, 2.409038e+001
3.250886e+003, 2.434350e+001
3.252814e+003, 3.043854e+001
3.254743e+003, 2.124300e+001
3.256671e+003, 2.457846e+001
3.258600e+003, 2.824218e+001
3.260528e+003, 2.024740e+001
3.262457e+003, 2.172334e+001
3.264385e+003, 2.180065e+001
3.266313e+003, 2.162957e+001
3.268242e+003, 2.157394e+001
3.270170e+003, 1.706478e+001
3.272099e+003, 1.744283e+001
3.274027e+003, 1.822662e+001
3.275956e+003, 1.848738e+001
3.277884e+003, 2.093181e+001
3.279813e+003, 2.502756e+001
3.281741e+003, 2.583551e+001
3.283670e+003, 2.330960e+001
3.285598e+003, 1.943008e+001
3.287527e+003, 1.481215e+001
3.289455e+003, 1.692720e+001
3.291384e+003, 2.188859e+001
3.293312e+003, 2.494702e+001
3.295240e+003, 2.292421e+001
3.297169e+003, 2.223417e+001
3.299097e+003, 2.133312e+001
3.301026e+003, 1.965036e+001
3.302954e+003, 1.780330e+001
3.304883e+003, 2.107508e+001
3.306811e+003, 2.108350e+001
3.308740e+003, 1.730366e+001
3.310668e+003, 1.229241e+001
3.312597e+003, 1.583513e+001
3.314525e+003, 2.095031e+001
3.316454e+003, 2.005447e+001
3.318382e+003, 1.414464e+001
3.320311e+003, 2.084162e+001
3.322239e+003, 2.163684e+001
3.324167e+003, 2.167246e+001
3.326096e+003, 2.145439e+001
3.328024e+003, 1.773279e+001
3.329953e+003, 1.561195e+001
3.331881e+003, 1.831610e+001
3.333810e+003, 1.996817e+001
3.335738e+003, 1.748157e+001
3.337667e+003, 2.069235e+001
3.339595e+003, 1.589816e+001
3.341524e+003, 1.557331e+001
3.343452e+003, 1.913975e+001
3.345381e+003, 1.494805e+001
3.347309e+003, 1.974165e+001
3.349238e+003, 1.965262e+001
3.351166e+003, 1.682672e+001
3.353094e+003, 1.591585e+001
3.355023e+003, 1.543877e+001
3.356951e+003, 1.434501e+001
3.358880e+003, 1.119290e+001
3.360808e+003, 1.049141e+001
3.362737e+003, 2.050223e+001
3.364665e+003, 1.816006e+001
3.366594e+003, 1.577182e+001
3.368522e+003, 1.528323e+001
3.370451e+003, 1.579924e+001
3.372379e+003, 1.706816e+001
3.374308e+003, 1.692144e+001
3.376236e+003, 1.618554e+001
3.378165e+003, 1.746955e+001
3.380093e+003, 2.206398e+001
3.382021e+003, 1.583178e+001
3.383950e+003, 2.086375e+001
3.385878e+003, 2.401777e+001
3.387807e+003, 2.011647e+001
3.389735e+003, 2.112101e+001
3.391664e+003, 1.831540e+001
3.393592e+003, 1.644497e+001
3.395521e+003, 1.512453e+001
3.397449e+003, 1.322763e+001
3.399378e+003, 1.356665e+001
3.401306e+003, 1.685838e+001
3.403235e+003, 1.998874e+001
3.405163e+003, 2.068373e+001
3.407092e+003, 1.768583e+001
3.409020e+003, 1.914285e+001
3.410948e+003, 2.294224e+001
3.412877e+003, 2.697380e+001
3.414805e+003, 2.904932e+001
3.416734e+003, 2.695216e+001
3.418662e+003, 2.943210e+001
3.420591e+003, 3.289702e+001
3.422519e+003, 2.951514e+001
3.424448e+003, 1.938228e+001
3.426376e+003, 1.822188e+001
3.428305e+003, 1.905129e+001
3.430233e+003, 2.025352e+001
3.432162e+003, 2.038013e+001
3.434090e+003, 1.899494e+001
3.436019e+003, 1.864495e+001
3.437947e+003, 2.000505e+001
3.439875e+003, 1.958299e+001
3.441804e+003, 1.739466e+001
3.443732e+003, 1.544238e+001
3.445661e+003, 1.729059e+001
3.447589e+003, 1.598630e+001
3.449518e+003, 1.592092e+001
3.451446e+003, 1.759819e+001
##END=



