##NAMES=Leifite
##RRUFFID=R060219
##IDEAL CHEMISTRY=Na_7_Be_2_(Si_15_Al_3_)O_39_(F,OH)_2_
##LOCALITY=Mont Saint-Hilaire, Rouville County, Quebec, Canada
##OWNER=RRUFF
##SOURCE=Royal Ontario Museum
##DESCRIPTION=Colorless hexagonal prism
##STATUS=The identification of this mineral has been confirmed by X-ray diffraction
##URL=https://www.rruff.net/odr/rruff_sample/R060219
##DIFFRACTION SAMPLE DESCRIPTION=Powder
##CELL PARAMETERS=a: 14.3844 b: 14.3844 c: 4.8721 alpha: 90 beta: 90 gamma: 120 volume: 873.03 crystal system: hexagonal
##FILETYPE=Raman RAW
##RAMAN WAVELENGTH=532

86.13089, 12.46335
88.05936, 13.47717
89.98782, 14.47796
91.91629, 14.75451
93.84476, 13.92050
95.77322, 13.19051
97.70169, 12.83898
99.63016, 12.83645
101.5586, 12.75571
103.4871, 12.41519
105.4156, 12.09432
107.3440, 12.01015
109.2725, 12.19408
111.2010, 12.59291
113.1294, 13.02788
115.0579, 13.51968
116.9864, 14.88198
118.9148, 17.00243
120.8433, 20.05454
122.7718, 24.30334
124.7002, 29.27501
126.6287, 36.01238
128.5572, 44.77995
130.4856, 56.06432
132.4141, 68.04997
134.3426, 80.29314
136.2710, 93.42414
138.1995, 107.9685
140.1280, 124.6059
142.0564, 142.0437
143.9849, 159.4279
145.9134, 176.4114
147.8418, 195.7033
149.7703, 218.5217
151.6988, 242.0120
153.6272, 253.9458
155.5557, 267.0711
157.4842, 277.8537
159.4126, 284.8398
161.3411, 288.9761
163.2696, 291.0919
165.1980, 291.8454
167.1265, 291.2224
169.0550, 288.7124
170.9834, 284.2702
172.9119, 278.6970
174.8404, 272.2771
176.7688, 264.5536
178.6973, 257.2513
180.6258, 249.6025
182.5542, 242.4576
184.4827, 237.1131
186.4112, 233.4086
188.3396, 231.6116
190.2681, 231.7251
192.1966, 234.2423
194.1250, 237.7637
196.0535, 242.3632
197.9820, 247.9582
199.9104, 254.4747
201.8389, 263.8580
203.7674, 272.6171
205.6958, 279.5333
207.6243, 284.9371
209.5528, 288.0903
211.4812, 288.4720
213.4097, 286.5682
215.3382, 282.7474
217.2666, 276.4498
219.1951, 268.9683
221.1236, 260.1396
223.0520, 249.6153
224.9805, 240.2227
226.9090, 232.2005
228.8374, 225.3995
230.7659, 219.7721
232.6944, 214.7324
234.6228, 211.5615
236.5513, 210.5159
238.4798, 211.8546
240.4082, 214.9964
242.3367, 219.7025
244.2652, 226.3293
246.1936, 234.8637
248.1221, 246.3296
250.0506, 258.3075
251.9790, 270.6249
253.9075, 283.6962
255.8360, 294.3732
257.7644, 302.0728
259.6929, 307.2423
261.6214, 310.5119
263.5498, 310.2630
265.4783, 309.6415
267.4068, 308.4589
269.3352, 306.7555
271.2637, 307.2924
273.1922, 310.8778
275.1206, 316.8820
277.0491, 325.2721
278.9776, 338.9730
280.9060, 351.1728
282.8345, 360.6190
284.7630, 368.0131
286.6914, 373.0060
288.6199, 374.6961
290.5484, 374.2187
292.4768, 372.2271
294.4053, 368.8437
296.3338, 363.0598
298.2622, 353.8727
300.1907, 342.6300
302.1192, 331.0488
304.0476, 318.7858
305.9761, 306.4442
307.9046, 293.9666
309.8330, 281.0632
311.7615, 269.1664
313.6900, 258.6970
315.6184, 249.7375
317.5469, 242.3885
319.4754, 236.5859
321.4038, 232.0542
323.3323, 228.9928
325.2608, 227.2399
327.1892, 226.3780
329.1177, 226.0289
331.0462, 226.8217
332.9747, 229.0523
334.9031, 232.4108
336.8316, 237.0142
338.7601, 243.0177
340.6885, 250.4731
342.6170, 259.8477
344.5455, 271.1815
346.4739, 284.1011
348.4024, 298.4706
350.3309, 314.0592
352.2593, 330.7785
354.1878, 348.7133
356.1163, 367.8189
358.0447, 388.1632
359.9732, 409.4651
361.9017, 431.8211
363.8301, 455.7963
365.7586, 481.2700
367.6871, 509.1794
369.6155, 539.6254
371.5440, 572.3768
373.4725, 608.1121
375.4009, 646.8618
377.3294, 685.5335
379.2579, 726.0040
381.1863, 765.4563
383.1148, 796.7752
385.0433, 820.5717
386.9717, 835.1144
388.9002, 836.2064
390.8287, 825.4203
392.7571, 806.7929
394.6856, 778.4749
396.6141, 744.4789
398.5425, 709.1801
400.4710, 672.7686
402.3995, 639.4236
404.3279, 612.1890
406.2564, 589.4410
408.1849, 568.7856
410.1133, 551.7888
412.0418, 535.2687
413.9703, 516.8549
415.8987, 496.3926
417.8272, 475.2852
419.7557, 453.0398
421.6841, 430.3592
423.6126, 408.3082
425.5411, 386.5211
427.4695, 367.5264
429.3980, 351.9972
431.3265, 340.1869
433.2549, 331.9559
435.1834, 327.6963
437.1119, 325.7631
439.0403, 326.8102
440.9688, 330.5327
442.8973, 336.6685
444.8257, 346.1617
446.7542, 357.4700
448.6827, 372.1197
450.6111, 390.0285
452.5396, 413.5171
454.4681, 441.4722
456.3965, 475.3132
458.3250, 515.5250
460.2535, 562.1793
462.1819, 613.4907
464.1104, 667.8982
466.0389, 723.6307
467.9673, 773.7126
469.8958, 816.5414
471.8243, 850.6434
473.7527, 876.1520
475.6812, 894.0499
477.6097, 903.4127
479.5381, 900.4847
481.4666, 907.0891
483.3951, 945.0771
485.3235, 1010.661
487.2520, 1118.181
489.1805, 1282.140
491.1089, 1494.502
493.0374, 1748.845
494.9659, 2108.456
496.8943, 2453.537
498.8228, 2738.009
500.7513, 2931.353
502.6797, 3030.051
504.6082, 2957.534
506.5367, 2768.072
508.4651, 2496.238
510.3936, 2187.190
512.3221, 1890.999
514.2505, 1622.704
516.1790, 1402.525
518.1075, 1233.125
520.0359, 1111.054
521.9644, 1020.902
523.8929, 960.7880
525.8214, 919.4275
527.7498, 877.7448
529.6783, 824.9415
531.6068, 769.2670
533.5352, 710.5799
535.4637, 646.5732
537.3922, 582.3284
539.3206, 521.2312
541.2491, 464.7544
543.1776, 413.0797
545.1060, 369.3266
547.0345, 332.3160
548.9630, 302.5178
550.8914, 278.1080
552.8199, 258.5092
554.7484, 244.3466
556.6768, 231.7614
558.6053, 220.5311
560.5338, 210.7498
562.4622, 202.4847
564.3907, 195.4575
566.3192, 190.0529
568.2476, 186.2878
570.1761, 183.9967
572.1046, 182.6743
574.0330, 182.8596
575.9615, 183.6436
577.8900, 185.1662
579.8184, 186.5882
581.7469, 186.7181
583.6754, 184.7403
585.6038, 181.1513
587.5323, 175.8998
589.4608, 169.3926
591.3892, 162.4315
593.3177, 154.9600
595.2462, 148.3684
597.1746, 143.2372
599.1031, 140.0611
601.0316, 137.6030
602.9600, 135.5909
604.8885, 133.8935
606.8170, 132.9153
608.7454, 132.6310
610.6739, 132.4137
612.6024, 132.0621
614.5308, 131.9153
616.4593, 132.2716
618.3878, 132.6466
620.3162, 133.4189
622.2447, 134.9391
624.1732, 137.1427
626.1016, 139.3286
628.0301, 141.3207
629.9586, 143.2730
631.8870, 145.2780
633.8155, 147.2800
635.7440, 149.3284
637.6724, 151.6599
639.6009, 153.7003
641.5294, 155.0932
643.4578, 155.9063
645.3863, 156.5698
647.3148, 157.0991
649.2432, 157.5928
651.1717, 158.1660
653.1002, 158.9085
655.0286, 159.2701
656.9571, 158.8432
658.8856, 158.3101
660.8140, 158.0885
662.7425, 158.2202
664.6710, 158.7011
666.5994, 159.4590
668.5279, 160.5523
670.4564, 162.0567
672.3848, 163.9184
674.3133, 166.2457
676.2418, 169.2944
678.1702, 172.7763
680.0987, 176.2558
682.0272, 179.4401
683.9556, 183.2334
685.8841, 187.7476
687.8126, 192.9197
689.7410, 198.7915
691.6695, 205.6954
693.5980, 212.9632
695.5264, 220.7766
697.4549, 228.5525
699.3834, 235.5263
701.3118, 242.2195
703.2403, 246.5577
705.1688, 247.7320
707.0972, 245.9401
709.0257, 242.1519
710.9542, 235.8638
712.8826, 228.6251
714.8111, 220.3029
716.7396, 211.0148
718.6680, 201.9271
720.5965, 192.9692
722.5250, 184.5104
724.4534, 176.6677
726.3819, 169.2815
728.3104, 162.4561
730.2388, 156.2370
732.1673, 150.7411
734.0958, 145.9979
736.0242, 141.8427
737.9527, 138.2619
739.8812, 135.3137
741.8096, 132.9044
743.7381, 131.0708
745.6666, 129.7439
747.5950, 128.6177
749.5235, 127.6232
751.4520, 126.8536
753.3804, 126.3683
755.3089, 126.2273
757.2374, 126.3343
759.1658, 126.4961
761.0943, 127.0647
763.0228, 128.3059
764.9512, 130.2055
766.8797, 132.1948
768.8082, 134.2163
770.7366, 136.2963
772.6651, 138.6010
774.5936, 141.1355
776.5220, 143.1209
778.4505, 144.6021
780.3790, 145.4106
782.3074, 145.5847
784.2359, 144.8844
786.1644, 143.4542
788.0928, 141.4056
790.0213, 138.3957
791.9498, 134.8498
793.8782, 130.6578
795.8067, 126.6891
797.7352, 122.6011
799.6636, 119.1653
801.5921, 116.7937
803.5206, 115.5232
805.4490, 114.7337
807.3775, 114.2772
809.3060, 114.3591
811.2344, 115.2621
813.1629, 117.1542
815.0914, 118.9673
817.0198, 119.9057
818.9483, 121.4639
820.8768, 124.4278
822.8052, 128.8441
824.7337, 134.1415
826.6622, 140.6707
828.5906, 147.5836
830.5191, 155.0685
832.4476, 163.0190
834.3760, 169.4267
836.3045, 175.2359
838.2330, 178.4931
840.1614, 177.8811
842.0899, 173.7021
844.0184, 168.0491
845.9468, 159.8423
847.8753, 151.1424
849.8038, 142.3987
851.7322, 133.9502
853.6607, 127.2568
855.5892, 122.6225
857.5176, 119.0509
859.4461, 116.4845
861.3746, 114.7657
863.3030, 113.1033
865.2315, 111.3506
867.1600, 109.7156
869.0884, 108.2760
871.0169, 107.0618
872.9454, 105.8764
874.8738, 104.6540
876.8023, 103.6113
878.7308, 102.9745
880.6592, 102.5042
882.5877, 101.9052
884.5162, 100.9959
886.4446, 100.3890
888.3731, 100.3103
890.3016, 100.4141
892.2300, 100.2596
894.1585, 99.66232
896.0870, 99.32706
898.0154, 99.69152
899.9439, 100.4038
901.8724, 100.6962
903.8008, 100.3480
905.7293, 99.91474
907.6578, 99.61553
909.5862, 99.47805
911.5147, 99.24914
913.4432, 98.65755
915.3716, 98.40046
917.3001, 98.78963
919.2286, 99.58371
921.1570, 100.2053
923.0855, 100.5828
925.0140, 100.9882
926.9424, 101.5585
928.8709, 101.9444
930.7994, 102.5902
932.7278, 102.8668
934.6563, 103.3067
936.5848, 103.7986
938.5132, 104.4300
940.4417, 105.4249
942.3702, 107.1534
944.2986, 109.3258
946.2271, 111.9507
948.1556, 114.7907
950.0840, 117.6318
952.0125, 120.6526
953.9410, 124.5571
955.8694, 129.7815
957.7979, 135.2701
959.7264, 141.0090
961.6548, 146.5036
963.5833, 150.6007
965.5118, 153.5957
967.4402, 155.7391
969.3687, 156.6872
971.2972, 156.6159
973.2256, 155.9794
975.1541, 154.5125
977.0826, 153.1416
979.0110, 152.1241
980.9395, 151.8468
982.8680, 152.3061
984.7964, 152.9011
986.7249, 153.9520
988.6534, 155.7669
990.5818, 158.6548
992.5103, 161.8836
994.4388, 165.1992
996.3672, 169.2974
998.2957, 174.5515
1000.224, 180.7171
1002.153, 187.3754
1004.081, 194.1634
1006.010, 201.6821
1007.938, 210.3013
1009.867, 219.3050
1011.795, 228.4250
1013.723, 236.6304
1015.652, 242.8463
1017.580, 247.8753
1019.509, 252.5246
1021.437, 256.8056
1023.366, 259.5562
1025.294, 261.7729
1027.223, 264.4103
1029.151, 267.0118
1031.080, 269.2954
1033.008, 270.6115
1034.937, 270.4806
1036.865, 268.4645
1038.794, 265.1299
1040.722, 260.4617
1042.651, 255.2529
1044.579, 249.8987
1046.507, 245.0876
1048.436, 240.6362
1050.364, 236.2857
1052.293, 232.7407
1054.221, 230.6201
1056.150, 229.1338
1058.078, 227.0010
1060.007, 224.1072
1061.935, 221.0979
1063.864, 218.3755
1065.792, 216.7380
1067.721, 215.6343
1069.649, 213.7375
1071.578, 212.5947
1073.506, 213.0968
1075.434, 215.1246
1077.363, 217.5472
1079.291, 220.0340
1081.220, 224.0314
1083.148, 230.4928
1085.077, 238.5913
1087.005, 247.5093
1088.934, 257.4531
1090.862, 267.3023
1092.791, 277.3084
1094.719, 287.4108
1096.648, 297.4655
1098.576, 307.8274
1100.505, 320.0528
1102.433, 331.7597
1104.361, 345.7138
1106.290, 363.8332
1108.218, 385.9229
1110.147, 411.4016
1112.075, 442.4645
1114.004, 480.5063
1115.932, 526.9120
1117.861, 581.9058
1119.789, 642.8518
1121.718, 704.1613
1123.646, 757.3868
1125.575, 806.0203
1127.503, 832.5277
1129.432, 827.2454
1131.360, 791.7489
1133.288, 742.9536
1135.217, 679.9520
1137.145, 619.8154
1139.074, 570.6041
1141.002, 531.4468
1142.931, 500.5515
1144.859, 477.9861
1146.788, 459.0019
1148.716, 442.2783
1150.645, 425.4928
1152.573, 406.2638
1154.502, 383.5809
1156.430, 359.5527
1158.359, 335.7062
1160.287, 311.3731
1162.215, 286.5223
1164.144, 262.0067
1166.072, 239.4820
1168.001, 218.8620
1169.929, 200.4554
1171.858, 184.5158
1173.786, 171.1035
1175.715, 159.8512
1177.643, 150.6388
1179.572, 142.4898
1181.500, 135.5720
1183.429, 129.4087
1185.357, 124.0065
1187.286, 119.4911
1189.214, 115.6026
1191.142, 112.0462
1193.071, 108.7438
1194.999, 106.1213
1196.928, 104.2430
1198.856, 102.3708
1200.785, 100.1883
1202.713, 98.22099
1204.642, 97.10268
1206.570, 96.37814
1208.499, 95.47759
1210.427, 94.40745
1212.356, 93.56248
1214.284, 93.20354
1216.213, 92.74785
1218.141, 91.90295
1220.069, 91.11111
1221.998, 90.61747
1223.926, 90.47957
1225.855, 90.07549
1227.783, 89.21807
1229.712, 88.43131
1231.640, 88.03853
1233.569, 87.97117
1235.497, 87.75640
1237.426, 87.28079
1239.354, 86.62448
1241.283, 85.94211
1243.211, 85.67570
1245.140, 85.45260
1247.068, 85.03983
1248.996, 84.66755
1250.925, 84.80235
1252.853, 85.13958
1254.782, 85.16615
1256.710, 85.04604
1258.639, 85.10896
1260.567, 85.60462
1262.496, 85.82226
1264.424, 85.62194
1266.353, 85.22694
1268.281, 84.91167
1270.210, 84.85107
1272.138, 84.82589
1274.067, 84.71261
1275.995, 84.44009
1277.923, 84.09100
1279.852, 84.02568
1281.780, 84.39072
1283.709, 85.18728
1285.637, 85.55962
1287.566, 85.07618
1289.494, 84.59370
1291.423, 84.45577
1293.351, 84.45762
1295.280, 84.31918
1297.208, 83.82556
1299.137, 83.61034
1301.065, 84.02101
1302.994, 84.89503
1304.922, 85.48097
1306.850, 85.43279
1308.779, 85.15479
1310.707, 84.69070
1312.636, 84.36404
1314.564, 84.19370
1316.493, 84.03584
1318.421, 83.76662
1320.350, 83.36340
1322.278, 83.26096
1324.207, 83.73865
1326.135, 84.23548
1328.064, 84.38167
1329.992, 84.30759
1331.921, 84.17089
1333.849, 83.90039
1335.777, 83.65621
1337.706, 83.51839
1339.634, 83.48066
1341.563, 83.29781
1343.491, 83.09450
1345.420, 83.30554
1347.348, 84.53872
1349.277, 85.18672
1351.205, 84.93107
1353.134, 84.53085
1355.062, 84.21733
1356.991, 83.97851
1358.919, 83.91770
1360.848, 84.09682
1362.776, 84.26160
1364.704, 84.40081
1366.633, 84.49711
1368.561, 84.53482
1370.490, 84.53313
1372.418, 84.39314
1374.347, 83.93136
1376.275, 83.67793
1378.204, 83.91170
1380.132, 84.39262
1382.061, 85.00667
1383.989, 85.76167
1385.918, 86.15331
1387.846, 85.96702
1389.775, 85.69202
1391.703, 85.32979
1393.631, 85.06015
1395.560, 85.12146
1397.488, 85.62681
1399.417, 85.84548
1401.345, 85.31882
1403.274, 85.07277
1405.202, 85.72752
1407.131, 86.65775
1409.059, 86.86633
1410.988, 86.20103
1412.916, 85.91654
1414.845, 86.51586
1416.773, 86.95384
1418.702, 86.68370
1420.630, 86.11971
1422.558, 85.72984
1424.487, 85.47914
1426.415, 85.80659
1428.344, 87.23202
1430.272, 88.53448
1432.201, 89.13544
1434.129, 89.22412
1436.058, 88.94487
1437.986, 88.25028
1439.915, 87.92383
1441.843, 88.30897
1443.772, 88.72408
1445.700, 89.08342
1447.629, 89.26165
1449.557, 88.95393
1451.485, 87.90414
1453.414, 87.41710
1455.342, 87.93740
1457.271, 88.57880
1459.199, 89.09905
1461.128, 89.49166
1463.056, 89.86572
1464.985, 90.32930
1466.913, 90.57934
1468.842, 90.28065
1470.770, 90.11954
1472.699, 90.65640
1474.627, 91.30838
1476.556, 91.03939
1478.484, 89.75061
1480.412, 89.29000
1482.341, 90.34284
1484.269, 91.18873
1486.198, 91.14354
1488.126, 90.75648
1490.055, 90.44557
1491.983, 90.21134
1493.912, 90.38381
1495.840, 91.25917
1497.769, 91.81994
1499.697, 91.33004
1501.626, 90.82082
1503.554, 91.34058
1505.483, 92.50645
1507.411, 92.72559
1509.339, 91.54725
1511.268, 90.90574
1513.196, 91.66584
1515.125, 92.62382
1517.053, 93.20849
1518.982, 93.61137
1520.910, 94.02517
1522.839, 94.38940
1524.767, 94.49366
1526.696, 94.17000
1528.624, 93.91279
1530.553, 93.96700
1532.481, 94.04270
1534.410, 93.81448
1536.338, 93.13538
1538.266, 93.08104
1540.195, 94.42583
1542.123, 95.37592
1544.052, 95.05641
1545.980, 94.29996
1547.909, 94.16625
1549.837, 94.57664
1551.766, 94.80117
1553.694, 94.92002
1555.623, 95.01716
1557.551, 95.12082
1559.480, 95.09715
1561.408, 94.82102
1563.337, 94.40238
1565.265, 94.09443
1567.193, 93.65823
1569.122, 93.56776
1571.050, 94.25204
1572.979, 94.90505
1574.907, 95.10573
1576.836, 94.96568
1578.764, 94.48745
1580.693, 93.47482
1582.621, 93.05286
1584.550, 93.86159
1586.478, 94.70767
1588.407, 95.22392
1590.335, 95.38376
1592.264, 95.11116
1594.192, 94.54106
1596.120, 94.20924
1598.049, 94.16653
1599.977, 94.37581
1601.906, 95.28410
1603.834, 95.93769
1605.763, 95.27067
1607.691, 93.98220
1609.620, 93.76823
1611.548, 94.82024
1613.477, 95.65543
1615.405, 95.94758
1617.334, 96.02756
1619.262, 95.71228
1621.191, 95.46729
1623.119, 96.05186
1625.047, 97.32635
1626.976, 97.92651
1628.904, 97.56750
1630.833, 97.09895
1632.761, 96.54234
1634.690, 96.23428
1636.618, 96.59968
1638.547, 97.31865
1640.475, 97.57301
1642.404, 97.28215
1644.332, 97.15221
1646.261, 97.37867
1648.189, 97.59341
1650.118, 97.68942
1652.046, 97.68187
1653.974, 97.47910
1655.903, 97.15590
1657.831, 97.22170
1659.760, 97.88744
1661.688, 98.23804
1663.617, 97.83428
1665.545, 97.36234
1667.474, 97.14043
1669.402, 97.04011
1671.331, 96.84618
1673.259, 96.55744
1675.188, 96.41143
1677.116, 96.45240
1679.045, 96.61033
1680.973, 97.24136
1682.901, 97.61674
1684.830, 96.99859
1686.758, 95.85258
1688.687, 95.47705
1690.615, 95.98535
1692.544, 96.25815
1694.472, 96.06367
1696.401, 95.82310
1698.329, 95.72829
1700.258, 95.58899
1702.186, 95.14875
1704.115, 94.53460
1706.043, 94.32427
1707.972, 94.59863
1709.900, 94.89597
1711.828, 95.15810
1713.757, 95.42610
1715.685, 95.70195
1717.614, 95.98410
1719.542, 96.32234
1721.471, 96.67440
1723.399, 96.80461
1725.328, 96.67452
1727.256, 96.48711
1729.185, 96.21780
1731.113, 96.00828
1733.042, 95.89771
1734.970, 95.89420
1736.899, 96.03250
1738.827, 96.28804
1740.755, 96.53999
1742.684, 96.79874
1744.612, 96.93678
1746.541, 96.75864
1748.469, 96.72008
1750.398, 97.23361
1752.326, 97.81565
1754.255, 98.00924
1756.183, 97.85643
1758.112, 97.51414
1760.040, 96.94503
1761.969, 96.41635
1763.897, 95.90078
1765.826, 95.55492
1767.754, 95.41644
1769.682, 95.50386
1771.611, 96.01451
1773.539, 96.76309
1775.468, 96.99080
1777.396, 96.56594
1779.325, 96.49447
1781.253, 97.17859
1783.182, 97.76684
1785.110, 97.78291
1787.039, 97.69753
1788.967, 98.10360
1790.896, 98.67464
1792.824, 98.36321
1794.753, 97.06633
1796.681, 96.57616
1798.609, 97.53811
1800.538, 98.34081
1802.466, 98.25539
1804.395, 97.98265
1806.323, 97.99031
1808.252, 98.15974
1810.180, 98.34721
1812.109, 98.55099
1814.037, 98.35818
1815.966, 97.49465
1817.894, 96.90296
1819.823, 96.71822
1821.751, 96.95030
1823.680, 98.02773
1825.608, 99.24916
1827.536, 99.56231
1829.465, 99.05373
1831.393, 98.72717
1833.322, 98.58335
1835.250, 98.64851
1837.179, 99.23975
1839.107, 99.63381
1841.036, 99.33507
1842.964, 98.96329
1844.893, 99.24665
1846.821, 98.89762
1848.750, 98.70089
1850.678, 98.84900
1852.607, 98.36410
1854.535, 98.75377
1856.464, 99.08987
1858.392, 99.19175
1860.320, 99.28969
1862.249, 99.45142
1864.177, 99.70870
1866.106, 100.2961
1868.034, 101.1532
1869.963, 101.0975
1871.891, 99.60106
1873.820, 98.68660
1875.748, 98.82375
1877.677, 99.13797
1879.605, 99.61336
1881.534, 99.96593
1883.462, 100.0175
1885.391, 99.77988
1887.319, 99.04018
1889.247, 97.80814
1891.176, 97.59680
1893.104, 98.82136
1895.033, 99.84397
1896.961, 100.2566
1898.890, 100.5113
1900.818, 100.6788
1902.747, 100.9239
1904.675, 101.6075
1906.604, 102.4244
1908.532, 102.5277
1910.461, 101.8959
1912.389, 101.4380
1914.318, 101.3143
1916.246, 101.1292
1918.174, 100.4032
1920.103, 100.0652
1922.031, 100.8766
1923.960, 102.0330
1925.888, 102.8621
1927.817, 103.2999
1929.745, 102.9560
1931.674, 101.5190
1933.602, 100.8228
1935.531, 101.2992
1937.459, 101.8461
1939.388, 102.8313
1941.316, 103.2694
1943.245, 102.0987
1945.173, 100.6790
1947.101, 100.6542
1949.030, 101.5922
1950.958, 101.8119
1952.887, 101.1509
1954.815, 100.8028
1956.744, 100.8539
1958.672, 101.0717
1960.601, 101.5593
1962.529, 101.9873
1964.458, 102.1409
1966.386, 102.2593
1968.315, 102.7374
1970.243, 103.2736
1972.172, 103.0230
1974.100, 102.0724
1976.028, 101.6612
1977.957, 101.9958
1979.885, 102.3324
1981.814, 102.6767
1983.742, 102.7109
1985.671, 101.9213
1987.599, 101.1761
1989.528, 101.2122
1991.456, 101.6579
1993.385, 101.9207
1995.313, 102.0191
1997.242, 102.1141
1999.170, 101.9689
2001.099, 102.4417
2003.027, 104.4864
2004.955, 105.6552
2006.884, 105.0429
2008.812, 104.1256
2010.741, 103.2253
2012.669, 102.7110
2014.598, 103.3022
2016.526, 104.5608
2018.455, 105.0369
2020.383, 104.7502
2022.312, 104.5618
2024.240, 104.5275
2026.169, 104.5130
2028.097, 104.4768
2030.026, 104.4566
2031.954, 104.4605
2033.882, 104.4892
2035.811, 104.5556
2037.739, 104.6483
2039.668, 104.6320
2041.596, 104.6213
2043.525, 105.2408
2045.453, 106.7356
2047.382, 107.3898
2049.310, 106.5014
2051.239, 105.9436
2053.167, 106.0402
2055.096, 106.1758
2057.024, 106.2280
2058.953, 106.2017
2060.881, 105.9666
2062.810, 105.7485
2064.738, 105.9668
2066.667, 105.9451
2068.595, 106.6600
2070.523, 106.4590
2072.452, 106.5539
2074.380, 107.1750
2076.309, 107.2586
2078.237, 106.0418
2080.166, 105.3115
2082.094, 106.3757
2084.023, 107.4519
2085.951, 107.1406
2087.880, 106.3837
2089.808, 106.4008
2091.737, 106.9540
2093.665, 107.2590
2095.594, 107.2940
2097.522, 107.3102
2099.450, 107.1542
2101.379, 107.3959
2103.307, 108.6333
2105.236, 109.2755
2107.164, 108.3029
2109.093, 107.5241
2111.021, 108.1448
2112.950, 108.9566
2114.878, 108.6489
2116.807, 109.3198
2118.735, 108.4443
2120.664, 109.7668
2122.592, 110.4256
2124.521, 110.3407
2126.449, 110.0188
2128.377, 109.1823
2130.306, 108.8101
2132.234, 109.4400
2134.163, 109.9275
2136.091, 109.9105
2138.020, 109.6619
2139.948, 109.0727
2141.877, 108.5696
2143.805, 108.8748
2145.734, 108.3586
2147.662, 109.3263
2149.591, 108.3946
2151.519, 108.3312
2153.448, 109.2507
2155.376, 109.8885
2157.304, 110.0314
2159.233, 110.1139
2161.161, 110.3214
2163.090, 110.3578
2165.018, 110.0413
2166.947, 109.6532
2168.875, 109.1710
2170.804, 108.8799
2172.732, 109.2385
2174.661, 109.9303
2176.589, 110.2754
2178.518, 110.3023
2180.446, 110.4387
2182.375, 110.6970
2184.303, 110.7091
2186.231, 110.4027
2188.160, 110.1118
2190.088, 109.8832
2192.017, 109.7265
2193.945, 109.6781
2195.874, 109.6463
2197.802, 109.4436
2199.731, 109.3739
2201.659, 109.9694
2203.588, 110.6318
2205.516, 110.3240
2207.445, 109.4484
2209.373, 109.2756
2211.302, 109.8076
2213.230, 110.5774
2215.158, 111.6853
2217.087, 111.7749
2219.015, 110.3169
2220.944, 109.5891
2222.872, 110.5215
2224.801, 111.1737
2226.729, 110.4356
2228.658, 109.8268
2230.586, 110.3475
2232.515, 111.0090
2234.443, 110.9353
2236.372, 111.3189
2238.300, 110.8134
2240.229, 111.2777
2242.157, 111.1242
2244.085, 110.4636
2246.014, 110.4621
2247.942, 111.1412
2249.871, 111.7140
2251.799, 112.1239
2253.728, 112.2325
2255.656, 111.7358
2257.585, 111.5842
2259.513, 112.7218
2261.442, 113.2642
2263.370, 111.8475
2265.299, 110.5118
2267.227, 110.6030
2269.156, 111.2244
2271.084, 111.8183
2273.012, 112.1803
2274.941, 111.6613
2276.869, 112.0457
2278.798, 112.0021
2280.726, 111.8108
2282.655, 112.1166
2284.583, 111.5920
2286.512, 111.5999
2288.440, 112.6653
2290.369, 113.1638
2292.297, 112.3055
2294.226, 112.0155
2296.154, 113.1485
2298.083, 113.9929
2300.011, 113.8446
2301.939, 113.6021
2303.868, 113.7450
2305.796, 113.9150
2307.725, 113.8454
2309.653, 113.6414
2311.582, 113.3217
2313.510, 113.0291
2315.439, 112.9836
2317.367, 113.2291
2319.296, 114.0324
2321.224, 115.4254
2323.153, 116.6689
2325.081, 117.7816
2327.010, 118.5032
2328.938, 118.8220
2330.866, 118.5782
2332.795, 117.5726
2334.723, 116.4995
2336.652, 115.3935
2338.580, 114.5218
2340.509, 114.0860
2342.437, 113.7859
2344.366, 113.6804
2346.294, 113.4424
2348.223, 112.4631
2350.151, 111.5927
2352.080, 111.8979
2354.008, 112.7214
2355.937, 113.0541
2357.865, 113.1303
2359.793, 113.6279
2361.722, 113.6977
2363.650, 113.7920
2365.579, 114.0299
2367.507, 113.8284
2369.436, 114.0799
2371.364, 114.0857
2373.293, 113.6420
2375.221, 113.7865
2377.150, 114.9674
2379.078, 115.4787
2381.007, 114.5751
2382.935, 113.8294
2384.864, 113.8608
2386.792, 114.0434
2388.720, 114.2758
2390.649, 114.4384
2392.577, 114.3256
2394.506, 114.2886
2396.434, 114.6582
2398.363, 115.1805
2400.291, 115.5991
2402.220, 115.9747
2404.148, 116.4749
2406.077, 116.9551
2408.005, 117.0276
2409.934, 116.8094
2411.862, 116.7594
2413.791, 116.8818
2415.719, 117.3879
2417.647, 118.3412
2419.576, 119.1298
2421.504, 119.7786
2423.433, 119.9347
2425.361, 119.4805
2427.290, 119.0963
2429.218, 118.7375
2431.147, 118.9220
2433.075, 120.3051
2435.004, 121.3346
2436.932, 121.5003
2438.861, 121.5349
2440.789, 121.4138
2442.718, 121.5279
2444.646, 122.3738
2446.574, 123.0102
2448.503, 122.7751
2450.431, 122.2097
2452.360, 121.5060
2454.288, 120.9258
2456.217, 120.9570
2458.145, 121.1080
2460.074, 120.4860
2462.002, 119.6095
2463.931, 119.5402
2465.859, 119.9990
2467.788, 120.3643
2469.716, 120.6266
2471.645, 120.7965
2473.573, 120.8646
2475.501, 120.6559
2477.430, 120.1327
2479.358, 119.8528
2481.287, 119.8376
2483.215, 119.8089
2485.144, 119.6958
2487.072, 120.3289
2489.001, 122.0522
2490.929, 123.0163
2492.858, 122.5441
2494.786, 122.2716
2496.715, 122.5955
2498.643, 122.8687
2500.572, 123.1585
2502.500, 123.0840
2504.428, 122.3271
2506.357, 121.6770
2508.285, 121.4300
2510.214, 121.3371
2512.142, 121.3383
2514.071, 121.3979
2515.999, 121.5958
2517.928, 121.7210
2519.856, 121.7501
2521.785, 121.5051
2523.713, 120.1886
2525.642, 119.2401
2527.570, 120.4502
2529.499, 122.1420
2531.427, 122.5768
2533.355, 122.2863
2535.284, 121.5304
2537.212, 120.9109
2539.141, 121.9314
2541.069, 123.6824
2542.998, 124.0822
2544.926, 123.5127
2546.855, 122.5707
2548.783, 121.5738
2550.712, 121.9887
2552.640, 121.5488
2554.569, 121.5570
2556.497, 122.0455
2558.426, 121.7427
2560.354, 122.4402
2562.282, 122.5051
2564.211, 121.9208
2566.139, 121.6351
2568.068, 121.7140
2569.996, 121.8114
2571.925, 121.7925
2573.853, 122.2426
2575.782, 123.3249
2577.710, 124.0693
2579.639, 124.4268
2581.567, 124.4845
2583.496, 124.1899
2585.424, 124.0250
2587.353, 124.3520
2589.281, 124.1847
2591.209, 122.7125
2593.138, 122.2765
2595.066, 123.5424
2596.995, 124.4517
2598.923, 124.3894
2600.852, 124.4490
2602.780, 125.1896
2604.709, 125.6482
2606.637, 125.5548
2608.566, 125.2454
2610.494, 124.6676
2612.423, 124.1635
2614.351, 123.7308
2616.280, 123.6011
2618.208, 124.0462
2620.136, 124.5123
2622.065, 124.5684
2623.993, 124.8717
2625.922, 126.2306
2627.850, 127.0958
2629.779, 126.5433
2631.707, 125.7787
2633.636, 125.1317
2635.564, 124.8631
2637.493, 125.4240
2639.421, 126.0245
2641.350, 125.9291
2643.278, 126.0620
2645.207, 127.6219
2647.135, 128.7954
2649.063, 128.0694
2650.992, 127.0528
2652.920, 126.7662
2654.849, 126.7737
2656.777, 126.7245
2658.706, 126.8703
2660.634, 127.9387
2662.563, 128.6875
2664.491, 127.7022
2666.420, 126.5492
2668.348, 126.4321
2670.277, 126.8152
2672.205, 127.4129
2674.134, 128.0283
2676.062, 128.6736
2677.990, 129.0245
2679.919, 128.5269
2681.847, 127.8989
2683.776, 127.7035
2685.704, 127.8209
2687.633, 128.3961
2689.561, 128.9383
2691.490, 128.6339
2693.418, 128.3209
2695.347, 129.2050
2697.275, 130.1193
2699.204, 129.7008
2701.132, 130.1880
2703.061, 129.3899
2704.989, 129.9334
2706.917, 129.5788
2708.846, 129.0943
2710.774, 129.2892
2712.703, 129.7146
2714.631, 130.0827
2716.560, 130.2978
2718.488, 130.2138
2720.417, 129.9744
2722.345, 129.3409
2724.274, 129.0752
2726.202, 130.6255
2728.131, 132.0587
2730.059, 131.0380
2731.988, 129.7695
2733.916, 130.6565
2735.844, 131.8755
2737.773, 131.6880
2739.701, 131.1187
2741.630, 130.8829
2743.558, 130.7670
2745.487, 130.7051
2747.415, 130.5821
2749.344, 129.9184
2751.272, 129.6584
2753.201, 131.2296
2755.129, 132.5699
2757.058, 131.9898
2758.986, 131.1551
2760.915, 131.4119
2762.843, 131.4932
2764.771, 129.7366
2766.700, 128.7097
2768.628, 130.6073
2770.557, 132.4339
2772.485, 132.2368
2774.414, 131.9673
2776.342, 133.0931
2778.271, 133.7322
2780.199, 132.0078
2782.128, 131.1713
2784.056, 133.1398
2785.985, 134.8115
2787.913, 134.7846
2789.842, 134.3029
2791.770, 133.2861
2793.698, 132.7656
2795.627, 133.1208
2797.555, 133.6784
2799.484, 134.3531
2801.412, 134.8603
2803.341, 135.0195
2805.269, 135.1030
2807.198, 135.0188
2809.126, 135.2331
2811.055, 136.0103
2812.983, 136.4622
2814.912, 136.4849
2816.840, 136.0459
2818.769, 134.4901
2820.697, 133.8399
2822.625, 134.2264
2824.554, 135.1955
2826.482, 136.8592
2828.411, 137.4019
2830.339, 136.3000
2832.268, 135.5373
2834.196, 135.1618
2836.125, 135.1280
2838.053, 135.4365
2839.982, 136.0674
2841.910, 136.3217
2843.839, 137.4090
2845.767, 137.3553
2847.696, 137.7382
2849.624, 138.4002
2851.552, 137.6589
2853.481, 136.1217
2855.409, 136.2260
2857.338, 137.4509
2859.266, 138.2250
2861.195, 138.7262
2863.123, 139.8240
2865.052, 140.7161
2866.980, 139.2712
2868.909, 137.2550
2870.837, 137.4690
2872.766, 138.5132
2874.694, 138.6049
2876.623, 138.4626
2878.551, 138.6233
2880.479, 139.1004
2882.408, 140.3583
2884.336, 141.3109
2886.265, 140.6373
2888.193, 140.1418
2890.122, 141.1618
2892.050, 141.9347
2893.979, 141.2174
2895.907, 140.7160
2897.836, 141.3016
2899.764, 141.8733
2901.693, 142.2212
2903.621, 142.3746
2905.550, 142.2529
2907.478, 142.1486
2909.406, 142.0116
2911.335, 142.1012
2913.263, 142.4319
2915.192, 143.0664
2917.120, 144.0797
2919.049, 144.5624
2920.977, 144.3608
2922.906, 144.1726
2924.834, 143.9912
2926.763, 143.7619
2928.691, 143.6075
2930.620, 144.7591
2932.548, 144.2997
2934.477, 146.2913
2936.405, 144.8375
2938.333, 145.5546
2940.262, 146.9910
2942.190, 146.3605
2944.119, 144.9880
2946.047, 144.0526
2947.976, 143.9780
2949.904, 146.1528
2951.833, 148.1763
2953.761, 148.1555
2955.690, 147.5416
2957.618, 146.8653
2959.547, 146.3849
2961.475, 146.2399
2963.404, 146.2724
2965.332, 146.4169
2967.260, 146.8174
2969.189, 146.8410
2971.117, 146.7945
2973.046, 147.2743
2974.974, 146.8198
2976.903, 147.3125
2978.831, 148.1071
2980.760, 149.2741
2982.688, 149.3916
2984.617, 148.4521
2986.545, 147.9891
2988.474, 147.9950
2990.402, 148.6128
2992.331, 149.5834
2994.259, 150.3209
2996.188, 150.8293
2998.116, 151.2506
3000.044, 151.3143
3001.973, 149.9924
3003.901, 149.0773
3005.830, 150.9684
3007.758, 152.9437
3009.687, 153.3325
3011.615, 153.1308
3013.544, 152.1023
3015.472, 151.7656
3017.401, 153.4778
3019.329, 154.1707
3021.258, 152.9586
3023.186, 152.7530
3025.115, 154.4270
3027.043, 155.0085
3028.971, 153.9772
3030.900, 154.0102
3032.828, 154.9698
3034.757, 155.0121
3036.685, 154.3850
3038.614, 154.4882
3040.542, 155.0675
3042.471, 155.4506
3044.399, 155.8114
3046.328, 156.7026
3048.256, 157.3631
3050.185, 156.4830
3052.113, 155.7394
3054.042, 156.5244
3055.970, 157.5366
3057.898, 158.4251
3059.827, 158.9832
3061.755, 158.6614
3063.684, 159.0831
3065.612, 159.0679
3067.541, 159.0668
3069.469, 159.5798
3071.398, 159.2790
3073.326, 160.5821
3075.255, 161.1151
3077.183, 161.0258
3079.112, 160.9749
3081.040, 161.0117
3082.969, 161.3860
3084.897, 161.7457
3086.825, 161.0670
3088.754, 160.5429
3090.682, 161.7530
3092.611, 162.9015
3094.539, 162.2520
3096.468, 162.0567
3098.396, 163.6037
3100.325, 164.4858
3102.253, 163.3139
3104.182, 163.0205
3106.110, 164.1726
3108.039, 164.6530
3109.967, 164.3583
3111.896, 164.6216
3113.824, 165.4161
3115.752, 166.2041
3117.681, 166.8031
3119.609, 166.1161
3121.538, 165.2902
3123.466, 166.4414
3125.395, 167.8448
3127.323, 167.4655
3129.252, 167.0689
3131.180, 167.7053
3133.109, 168.4462
3135.037, 168.8379
3136.966, 169.4993
3138.894, 170.6971
3140.823, 171.2715
3142.751, 171.0076
3144.679, 170.8013
3146.608, 170.6976
3148.536, 170.6874
3150.465, 170.8672
3152.393, 171.7248
3154.322, 172.8234
3156.250, 173.6223
3158.179, 173.9580
3160.107, 173.2489
3162.036, 172.6645
3163.964, 173.1675
3165.893, 173.5728
3167.821, 173.3275
3169.750, 173.3148
3171.678, 173.7538
3173.606, 173.9134
3175.535, 174.6315
3177.463, 174.3342
3179.392, 176.1795
3181.320, 177.5139
3183.249, 178.2184
3185.177, 177.4444
3187.106, 176.5540
3189.034, 178.2130
3190.963, 179.8016
3192.891, 178.7979
3194.820, 177.9704
3196.748, 178.8999
3198.677, 179.8243
3200.605, 180.4814
3202.533, 180.8276
3204.462, 180.8098
3206.390, 180.5099
3208.319, 180.0153
3210.247, 180.6149
3212.176, 180.4079
3214.104, 181.5565
3216.033, 181.0013
3217.961, 181.2420
3219.890, 182.0898
3221.818, 184.1289
3223.747, 185.5111
3225.675, 184.6411
3227.604, 184.4110
3229.532, 185.3718
3231.460, 186.5107
3233.389, 187.7690
3235.317, 188.5155
3237.246, 188.7480
3239.174, 188.2356
3241.103, 187.4819
3243.031, 187.4762
3244.960, 187.9702
3246.888, 189.2044
3248.817, 190.0692
3250.745, 189.3423
3252.674, 189.2084
3254.602, 190.5931
3256.531, 192.0664
3258.459, 193.5347
3260.387, 194.0390
3262.316, 193.5875
3264.244, 194.6004
3266.173, 193.9265
3268.101, 195.1120
3270.030, 193.4017
3271.958, 193.3477
3273.887, 194.0472
3275.815, 195.1616
3277.744, 196.2550
3279.672, 197.3080
3281.601, 197.9358
3283.529, 198.0722
3285.458, 197.9821
3287.386, 197.6987
3289.314, 197.6621
3291.243, 197.6159
3293.171, 196.0236
3295.100, 194.7479
3297.028, 196.9303
3298.957, 198.8824
3300.885, 197.4679
3302.814, 196.2310
3304.742, 196.0925
3306.671, 196.3077
3308.599, 196.9850
3310.528, 197.0907
3312.456, 196.6846
3314.385, 195.5298
3316.313, 194.5431
3318.241, 196.4433
3320.170, 198.6241
3322.098, 198.5260
3324.027, 197.8901
3325.955, 197.2007
3327.884, 197.1809
3329.812, 196.5309
3331.741, 198.0366
3333.669, 196.3450
3335.598, 196.3751
3337.526, 197.6991
3339.455, 198.9090
3341.383, 199.9689
3343.312, 200.7882
3345.240, 201.4614
3347.168, 201.9624
3349.097, 202.5225
3351.025, 203.2132
3352.954, 204.0298
3354.882, 204.9783
3356.811, 206.3830
3358.739, 208.0006
3360.668, 208.8416
3362.596, 208.9855
3364.525, 207.7555
3366.453, 207.0579
3368.382, 208.9257
3370.310, 210.3978
3372.239, 210.0680
3374.167, 211.3795
3376.095, 212.6907
3378.024, 213.8277
3379.952, 215.9465
3381.881, 217.2035
3383.809, 219.2462
3385.738, 221.0768
3387.666, 222.3868
3389.595, 222.3100
3391.523, 222.9191
3393.452, 225.1232
3395.380, 227.1297
3397.309, 228.6829
3399.237, 231.3240
3401.166, 234.4386
3403.094, 235.0556
3405.022, 235.0404
3406.951, 237.3806
3408.879, 240.0589
3410.808, 242.1244
3412.736, 243.5716
3414.665, 246.2296
3416.593, 246.1695
3418.522, 250.2275
3420.450, 252.0853
3422.379, 252.7573
3424.307, 255.7978
3426.236, 259.2336
3428.164, 261.1739
3430.093, 262.4978
3432.021, 263.5529
3433.949, 264.1189
3435.878, 263.8315
3437.806, 265.0894
3439.735, 267.7437
3441.663, 270.5984
3443.592, 273.1071
3445.520, 273.9366
3447.449, 274.6699
3449.377, 276.6098
3451.306, 278.1851
3453.234, 278.2802
3455.163, 279.7192
3457.091, 282.4161
3459.020, 282.1019
3460.948, 283.9987
3462.876, 285.7833
3464.805, 286.5433
3466.733, 289.3490
3468.662, 291.5000
3470.590, 292.9561
3472.519, 293.5960
3474.447, 295.6918
3476.376, 296.9296
3478.304, 298.6499
3480.233, 300.0923
3482.161, 300.8517
3484.090, 302.3679
3486.018, 303.9051
3487.947, 304.8522
3489.875, 306.7516
3491.803, 308.4990
3493.732, 309.8994
3495.660, 312.4341
3497.589, 313.5540
3499.517, 315.2885
3501.446, 318.1063
3503.374, 320.7540
3505.303, 322.7869
3507.231, 323.8980
3509.160, 323.5416
3511.088, 324.0246
3513.017, 325.2526
3514.945, 326.8781
3516.874, 328.4892
3518.802, 329.5370
3520.730, 330.1838
3522.659, 330.1809
3524.587, 330.7933
3526.516, 330.9916
3528.444, 331.2161
3530.373, 331.6880
3532.301, 331.9054
3534.230, 332.7368
3536.158, 333.6340
3538.087, 334.0985
3540.015, 334.5466
3541.944, 334.7873
3543.872, 334.4761
3545.801, 334.2763
3547.729, 332.9677
3549.657, 331.2357
3551.586, 329.7326
3553.514, 329.4107
3555.443, 329.0311
3557.371, 328.0543
3559.300, 326.7762
3561.228, 325.2263
3563.157, 324.5750
3565.085, 324.3663
3567.014, 323.5553
3568.942, 321.9687
3570.871, 320.8947
3572.799, 320.2408
3574.728, 317.7205
3576.656, 317.9305
3578.584, 316.5289
3580.513, 312.9485
3582.441, 309.0647
3584.370, 308.2039
3586.298, 307.9721
3588.227, 307.6520
3590.155, 305.2680
3592.084, 299.9647
3594.012, 296.4893
3595.941, 294.3926
3597.869, 290.5244
3599.798, 286.7773
3601.726, 286.3433
3603.655, 284.3805
3605.583, 278.7065
3607.511, 274.6255
3609.440, 272.7470
3611.368, 269.0586
3613.297, 264.8042
3615.225, 262.1342
3617.154, 260.0076
3619.082, 257.4774
3621.011, 256.2366
3622.939, 254.3258
3624.868, 252.4916
3626.796, 251.4626
3628.725, 249.3429
3630.653, 248.1067
3632.582, 247.2290
3634.510, 245.8235
3636.438, 243.1848
3638.367, 241.7676
3640.295, 241.4966
3642.224, 240.7359
3644.152, 239.8472
3646.081, 239.6303
3648.009, 239.0877
3649.938, 237.7832
3651.866, 235.9731
3653.795, 233.7036
3655.723, 231.5011
3657.652, 229.4658
3659.580, 228.0518
3661.509, 226.4038
3663.437, 223.7911
3665.365, 221.6463
3667.294, 220.4232
3669.222, 218.9518
3671.151, 217.3501
3673.079, 215.8757
3675.008, 214.5654
3676.936, 213.1049
3678.865, 212.6247
3680.793, 214.0573
3682.722, 214.3086
3684.650, 213.7025
3686.579, 214.0139
3688.507, 213.9956
3690.436, 211.9584
3692.364, 210.1148
3694.292, 209.5829
3696.221, 208.1179
3698.149, 206.2846
3700.078, 207.5906
3702.006, 209.6154
3703.935, 209.6729
3705.863, 208.6798
3707.792, 205.8565
3709.720, 205.7318
3711.649, 207.9253
3713.577, 209.4356
3715.506, 210.2259
3717.434, 210.0777
3719.363, 209.4258
3721.291, 207.8690
3723.219, 208.2533
3725.148, 207.1551
3727.076, 208.6770
3729.005, 206.4165
3730.933, 206.0620
3732.862, 206.8033
3734.790, 209.0588
3736.719, 209.4152
3738.647, 208.0357
3740.576, 206.7594
3742.504, 205.9306
3744.433, 206.2668
3746.361, 206.6998
3748.290, 206.9130
3750.218, 207.1347
3752.146, 207.4822
3754.075, 209.1477
3756.003, 210.3512
3757.932, 208.1087
3759.860, 206.7915
3761.789, 207.7480
3763.717, 208.8648
3765.646, 209.8594
3767.574, 210.0351
3769.503, 209.7282
3771.431, 208.8986
3773.360, 208.3762
3775.288, 208.3427
3777.217, 209.0726
3779.145, 210.0965
3781.073, 210.0167
3783.002, 209.6293
3784.930, 209.5224
3786.859, 209.0159
3788.787, 207.9455
3790.716, 207.8430
3792.644, 208.3093
3794.573, 208.5134
3796.501, 208.9971
3798.430, 209.0000
3800.358, 210.4449
3802.287, 209.2040
3804.215, 209.6561
3806.144, 210.2613
3808.072, 208.4718
3810.000, 207.6592
3811.929, 209.0420
3813.857, 209.7860
3815.786, 209.9207
3817.714, 210.6848
3819.643, 211.3344
3821.571, 210.8250
3823.500, 211.1960
3825.428, 212.7823
3827.357, 212.0221
3829.285, 213.1263
3831.214, 212.0961
3833.142, 213.8543
3835.071, 214.1391
3836.999, 213.5526
3838.927, 212.3552
3840.856, 211.7834
3842.784, 211.8189
3844.713, 212.5399
3846.641, 213.5778
3848.570, 215.2668
3850.498, 215.0619
3852.427, 213.9982
3854.355, 215.7611
3856.284, 217.1434
3858.212, 215.7890
3860.141, 214.8474
3862.069, 214.8295
3863.998, 215.4347
3865.926, 216.0685
3867.854, 215.6388
3869.783, 215.4905
3871.711, 216.1773
3873.640, 215.7420
3875.568, 214.8933
3877.497, 217.8806
3879.425, 220.1715
3881.354, 217.4188
3883.282, 215.8311
3885.211, 216.2822
3887.139, 216.9043
3889.068, 217.6375
3890.996, 218.4836
3892.925, 219.3148
3894.853, 220.2488
3896.781, 219.3865
3898.710, 219.9121
3900.638, 218.5357
3902.567, 219.7139
3904.495, 218.9902
3906.424, 219.0884
3908.352, 220.0859
3910.281, 220.9695
3912.209, 221.3860
3914.138, 220.3864
3916.066, 219.9678
3917.995, 221.2439
3919.923, 221.8241
3921.852, 221.6044
3923.780, 221.2335
3925.708, 221.0875
3927.637, 220.8937
3929.565, 222.2359
3931.494, 221.9974
3933.422, 223.9580
3935.351, 222.7711
3937.279, 223.1291
3939.208, 223.8562
3941.136, 224.7991
3943.065, 225.6762
3944.993, 226.0231
3946.922, 224.8109
3948.850, 224.4650
3950.779, 225.4314
3952.707, 225.8225
3954.635, 225.6687
3956.564, 225.8493
3958.492, 226.7774
3960.421, 227.7842
3962.349, 227.5701
3964.278, 227.2393
3966.206, 228.4903
3968.135, 229.1876
3970.063, 228.3763
3971.992, 228.1746
3973.920, 228.5288
3975.849, 229.9055
3977.777, 231.0757
3979.706, 230.3967
3981.634, 230.0323
3983.563, 230.7969
3985.491, 230.7959
3987.419, 230.7077
3989.348, 231.9783
3991.276, 232.3102
3993.205, 231.3074
3995.133, 230.8526
3997.062, 230.9013
3998.990, 231.3820
4000.919, 232.0915
4002.847, 233.1488
4004.776, 233.5016
4006.704, 233.3860
4008.633, 233.4366
4010.561, 233.6630
4012.490, 233.6981
4014.418, 234.3602
4016.346, 234.1188
4018.275, 234.5708
4020.203, 235.0490
4022.132, 234.6257
4024.060, 234.7492
4025.989, 235.6297
4027.917, 235.5817
4029.846, 235.2935
4031.774, 235.6686
4033.703, 236.0099
4035.631, 236.1767
4037.560, 236.5405
4039.488, 237.0128
4041.417, 238.0152
4043.345, 238.8591
4045.273, 239.4788
4047.202, 239.8341
4049.130, 239.6904
4051.059, 239.1102
4052.987, 238.4690
4054.916, 237.9131
4056.844, 238.7805
4058.773, 240.1865
4060.701, 240.7227
4062.630, 240.7225
4064.558, 240.1670
4066.487, 239.7577
4068.415, 240.3558
4070.344, 241.2787
4072.272, 240.9494
4074.200, 241.3771
4076.129, 241.5412
4078.057, 241.3824
4079.986, 241.8621
4081.914, 241.8730
4083.843, 242.3306
4085.771, 242.2957
4087.700, 242.3321
4089.628, 243.0781
4091.557, 243.3823
4093.485, 243.0984
4095.414, 242.9191
4097.342, 242.2572
4099.271, 242.4851
4101.199, 243.9471
4103.127, 245.3247
4105.056, 244.7409
4106.984, 243.8875
4108.913, 244.2134
4110.841, 244.3260
4112.770, 245.1214
4114.698, 245.1634
4116.627, 245.4134
4118.555, 244.4169
4120.484, 245.9221
4122.412, 245.9008
4124.341, 246.6753
4126.269, 247.3162
4128.198, 246.6933
4130.126, 246.5840
4132.055, 248.0337
4133.983, 248.5845
4135.912, 245.3975
4137.840, 244.4386
4139.769, 246.6238
4141.697, 247.3599
4143.625, 247.3291
4145.554, 246.5659
4147.482, 245.2212
4149.411, 244.5859
4151.339, 244.9181
4153.268, 245.2193
4155.196, 246.5844
4157.125, 247.0357
4159.053, 248.7971
4160.981, 249.3136
4162.910, 248.7966
4164.838, 247.6898
4166.767, 248.4980
4168.695, 249.9876
4170.624, 250.2948
4172.552, 249.9454
4174.481, 248.8494
4176.409, 247.7679
4178.338, 247.2153
4180.266, 250.0268
4182.195, 252.3425
4184.123, 252.5913
4186.052, 251.0762
4187.980, 249.4952
4189.909, 251.9943
4191.837, 253.6551
4193.766, 253.1362
4195.694, 252.4655
4197.623, 251.7355
4199.551, 252.2288
4201.479, 252.1072
4203.408, 250.4446
4205.336, 249.8234
4207.265, 250.5818
4209.193, 251.6319
4211.122, 251.9736
4213.050, 252.6727
4214.979, 253.3257
4216.907, 253.5629
4218.835, 254.3300
4220.764, 254.6061
4222.692, 254.7115
4224.621, 255.6694
4226.549, 256.0432
4228.478, 253.7397
4230.406, 252.9768
4232.335, 254.3097
4234.263, 255.2340
4236.192, 255.9212
4238.120, 256.8207
4240.049, 256.0272
4241.977, 254.0467
4243.906, 255.0261
4245.834, 256.1113
4247.763, 255.1554
4249.691, 256.4120
4251.620, 255.9088
4253.548, 256.7252
4255.477, 255.1865
4257.405, 256.1217
4259.333, 255.6349
4261.262, 254.6510
4263.190, 255.1028
4265.119, 255.2099
4267.047, 254.4189
4268.976, 255.0605
4270.904, 256.2420
4272.833, 257.0260
4274.761, 257.8892
4276.689, 258.7247
4278.618, 258.8608
4280.546, 258.8496
4282.475, 258.4399
4284.403, 258.3846
4286.332, 258.1054
4288.260, 257.3466
4290.189, 257.8413
4292.117, 257.6943
4294.046, 258.1382
4295.974, 258.7849
4297.903, 259.1808
4299.831, 258.7731
4301.760, 259.2761
4303.688, 258.3380
4305.617, 259.6343
4307.545, 259.0014
4309.474, 259.3014
4311.402, 260.2897
4313.331, 258.0087
4315.259, 256.6219
4317.188, 258.7765
4319.116, 259.9730
4321.044, 260.1097
4322.973, 258.7185
4324.901, 258.1413
4326.830, 258.9926
4328.758, 260.0781
4330.687, 261.2043
4332.615, 262.7404
4334.543, 261.5543
4336.472, 258.2658
4338.400, 258.4982
4340.329, 259.7724
4342.257, 260.9643
4344.186, 261.5435
4346.114, 261.8231
4348.043, 262.5822
4349.971, 262.9699
4351.900, 262.8214
4353.828, 261.7810
4355.757, 260.9070
4357.685, 261.0384
4359.614, 262.0560
4361.542, 263.2711
4363.471, 262.4013
4365.399, 261.4658
4367.328, 261.2640
4369.256, 260.3442
4371.185, 259.8141
4373.113, 261.5770
4375.042, 263.4134
4376.970, 264.5648
4378.898, 264.8011
4380.827, 265.1654
4382.755, 263.9994
4384.684, 264.8575
4386.612, 263.6645
4388.541, 264.0699
4390.469, 263.7722
4392.397, 262.2365
4394.326, 262.2672
4396.254, 262.8120
4398.183, 263.3922
4400.111, 262.1248
4402.040, 262.5444
4403.968, 261.0132
4405.897, 262.0078
4407.825, 262.2817
4409.754, 262.0774
4411.682, 262.0533
4413.611, 263.1400
4415.539, 262.0938
4417.468, 262.6577
4419.396, 261.8906
4421.325, 263.5145
4423.253, 263.5170
4425.182, 265.4359
4427.110, 266.6422
4429.039, 263.2256
4430.967, 261.6350
4432.896, 262.2010
4434.824, 264.3011
4436.752, 265.6684
4438.681, 265.2639
4440.609, 264.4620
4442.538, 263.8023
4444.466, 263.9948
4446.395, 264.1014
4448.323, 264.0735
4450.251, 263.9952
4452.180, 264.2248
4454.108, 264.8622
4456.037, 264.8703
4457.965, 264.4781
4459.894, 263.7212
4461.822, 263.8064
4463.751, 264.4677
4465.679, 264.7725
4467.608, 264.9153
4469.536, 264.9814
4471.465, 265.6608
4473.393, 266.3072
4475.322, 266.6610
4477.250, 264.9213
4479.179, 266.1440
4481.107, 264.7737
4483.036, 266.9354
4484.964, 268.3092
4486.893, 268.5041
4488.821, 269.0979
4490.750, 267.3117
4492.678, 267.5680
4494.606, 265.7043
4496.535, 262.3956
4498.463, 261.7589
4500.392, 263.8208
4502.320, 266.6439
4504.249, 268.6330
4506.177, 269.0075
4508.105, 267.3592
4510.034, 266.0128
4511.962, 268.1824
4513.891, 268.1830
4515.819, 266.7322
4517.748, 267.1605
4519.676, 267.1527
4521.605, 266.3088
4523.533, 266.3289
4525.462, 266.3905
4527.390, 265.9370
4529.319, 266.3265
4531.247, 266.7691
4533.176, 266.0001
4535.104, 264.8319
4537.033, 263.8304
4538.961, 265.2548
4540.890, 266.3006
4542.818, 266.0386
4544.747, 264.5572
4546.675, 264.1826
4548.604, 266.7735
4550.532, 269.0674
4552.460, 269.6350
4554.389, 265.2682
4556.317, 263.7308
4558.246, 265.2914
4560.174, 265.8544
4562.103, 265.8712
4564.031, 265.5218
4565.959, 264.4920
4567.888, 263.9005
4569.816, 264.7873
4571.745, 263.4296
4573.673, 262.0308
4575.602, 265.2863
4577.530, 266.9954
4579.459, 266.8358
4581.387, 267.1206
4583.316, 267.4230
4585.244, 267.6114
4587.173, 267.3973
4589.101, 267.1326
4591.030, 267.0269
4592.958, 267.4056
4594.887, 267.1905
4596.815, 263.9412
4598.744, 265.1450
4600.672, 268.2854
4602.601, 263.2895
4604.529, 261.6723
4606.458, 265.4886
4608.386, 264.9388
4610.314, 264.2776
4612.243, 265.4357
4614.171, 265.4416
4616.100, 264.8060
4618.028, 263.8565
4619.957, 264.0140
4621.885, 264.9571
4623.813, 266.3990
4625.742, 266.6041
4627.670, 265.8297
4629.599, 266.3977
4631.527, 265.3950
4633.456, 262.6027
4635.384, 264.4159
4637.313, 265.1686
4639.241, 262.1584
4641.170, 262.1394
4643.098, 263.4651
4645.027, 264.9839
4646.955, 264.1498
4648.884, 262.0319
4650.812, 259.7160
4652.741, 260.4797
4654.669, 263.2247
4656.598, 264.3991
4658.526, 264.0444
4660.455, 262.5504
4662.383, 262.4058
4664.312, 262.2310
4666.240, 261.4272
4668.168, 261.3171
4670.097, 261.4146
4672.025, 261.4066
4673.954, 262.5171
4675.882, 263.7296
4677.811, 263.8805
4679.739, 264.4831
4681.667, 262.6070
4683.596, 264.2146
4685.524, 264.0744
4687.453, 262.6261
4689.381, 263.2523
4691.310, 262.9973
4693.238, 261.6028
4695.167, 261.5347
4697.095, 262.7024
4699.024, 265.1402
4700.952, 265.3248
4702.881, 264.3056
4704.809, 262.6359
4706.738, 261.9091
4708.666, 262.1022
4710.595, 263.7822
4712.523, 263.5560
4714.452, 261.9092
4716.380, 258.9471
4718.309, 258.8760
4720.237, 260.6078
4722.166, 261.9343
4724.094, 262.2240
4726.022, 261.7982
4727.951, 262.0528
4729.879, 261.2159
4731.808, 259.5450
4733.736, 261.0992
4735.665, 262.7035
4737.593, 263.2573
4739.521, 261.4130
4741.450, 260.0697
4743.378, 260.6758
4745.307, 261.0062
4747.235, 261.1842
4749.164, 261.2685
4751.092, 260.5794
4753.021, 259.9942
4754.949, 260.3663
4756.878, 259.9202
4758.806, 261.7133
4760.735, 260.0844
4762.663, 260.2532
4764.592, 260.8736
4766.520, 258.9071
4768.449, 259.3666
4770.377, 260.9709
4772.306, 260.1930
4774.234, 259.5638
4776.163, 259.5467
4778.091, 261.0660
4780.020, 260.3003
4781.948, 258.0815
4783.876, 260.2466
4785.805, 262.1735
4787.733, 262.5749
4789.662, 259.2147
4791.590, 257.7047
4793.519, 259.1621
4795.447, 260.6321
4797.375, 260.4895
4799.304, 258.2867
4801.232, 256.9837
4803.161, 257.9102
4805.089, 261.0707
4807.018, 259.9019
4808.946, 258.5045
4810.875, 259.2531
4812.803, 257.1004
4814.732, 256.4082
4816.660, 259.4706
4818.589, 259.4512
4820.517, 258.6783
4822.446, 258.8120
4824.374, 261.2361
4826.303, 262.8777
4828.231, 261.5494
4830.160, 257.8867
4832.088, 254.9329
4834.017, 255.6449
4835.945, 256.5047
4837.874, 257.3501
4839.802, 258.1803
4841.730, 258.6145
4843.659, 258.6344
4845.587, 258.0811
4847.516, 258.0804
4849.444, 257.9581
4851.373, 256.7558
4853.301, 257.5968
4855.229, 258.3780
4857.158, 255.3667
4859.086, 254.8568
4861.015, 255.7779
4862.943, 256.8436
4864.872, 255.3220
4866.800, 253.6806
4868.729, 255.9652
4870.657, 257.2087
4872.586, 257.2448
4874.514, 255.7321
4876.443, 257.4515
4878.371, 259.3178
4880.300, 255.8599
4882.228, 255.7192
4884.157, 256.6482
4886.085, 254.8853
4888.014, 253.0620
4889.942, 252.9841
4891.871, 252.8849
4893.799, 252.4115
4895.728, 254.7739
4897.656, 253.1455
4899.584, 254.7447
4901.513, 256.5979
4903.441, 254.9750
4905.370, 254.7778
4907.298, 254.8044
4909.227, 252.4990
4911.155, 254.1363
4913.083, 255.9430
4915.012, 253.7822
4916.940, 253.8360
4918.869, 255.0386
4920.797, 256.7579
4922.726, 254.0903
4924.654, 252.1326
4926.583, 254.9873
4928.511, 256.1701
4930.440, 255.7725
4932.368, 253.8594
4934.297, 253.4818
4936.225, 253.2238
4938.154, 252.2609
4940.082, 252.4526
4942.011, 252.8851
4943.939, 252.9974
4945.868, 253.2879
4947.796, 253.5787
4949.725, 253.6937
4951.653, 251.8076
4953.582, 249.5290
4955.510, 247.7842
4957.438, 249.1198
4959.367, 249.8906
4961.295, 249.2126
4963.224, 250.6128
4965.152, 250.1126
4967.081, 248.1332
4969.009, 251.1189
4970.938, 251.7081
4972.866, 249.7881
4974.794, 250.9111
4976.723, 251.6797
4978.651, 251.6974
4980.580, 251.7233
4982.508, 251.5775
4984.437, 250.8866
4986.365, 250.1892
4988.294, 249.4185
4990.222, 247.4922
4992.151, 247.1305
4994.079, 247.1911
4996.008, 247.8436
4997.936, 249.8942
4999.865, 250.4163
5001.793, 249.6274
5003.722, 247.7256
5005.650, 248.3034
5007.579, 248.5092
5009.507, 246.6901
5011.436, 247.3210
5013.364, 248.5092
5015.292, 249.3002
5017.221, 248.5039
5019.149, 247.5127
5021.078, 246.6855
5023.006, 245.3354
5024.935, 245.6443
5026.863, 246.8350
5028.792, 244.8865
5030.720, 244.4163
5032.648, 244.8214
5034.577, 243.3059
5036.505, 243.8140
5038.434, 245.1954
5040.362, 245.7051
5042.291, 246.3801
5044.219, 246.4962
5046.148, 245.4444
5048.076, 246.5407
5050.005, 247.1428
5051.933, 245.6455
5053.862, 243.0520
5055.790, 241.9182
5057.719, 242.7759
5059.647, 243.0976
5061.576, 242.7900
5063.504, 242.1034
5065.433, 241.9878
5067.361, 240.6463
5069.290, 239.7599
5071.218, 240.4172
5073.146, 243.0638
5075.075, 241.4117
5077.003, 243.4116
5078.932, 243.2805
5080.860, 241.8480
5082.789, 239.6115
5084.717, 242.4124
5086.646, 243.1809
5088.574, 240.1270
5090.502, 240.8769
5092.431, 241.3839
5094.359, 240.9522
5096.288, 241.4714
5098.216, 242.0485
5100.145, 242.0269
5102.073, 240.3466
5104.002, 239.9682
5105.930, 240.6176
5107.859, 241.9988
5109.787, 241.5160
5111.716, 240.6969
5113.644, 240.4195
5115.573, 239.5276
5117.501, 238.5206
5119.430, 238.0773
5121.358, 238.2690
5123.287, 237.6891
5125.215, 237.8558
5127.144, 237.6690
5129.072, 237.8772
5131.000, 238.6025
5132.929, 238.3285
5134.857, 239.5507
5136.786, 240.0161
5138.714, 238.1607
5140.643, 235.3330
5142.571, 234.5840
5144.500, 236.3166
5146.428, 237.8937
5148.356, 239.1952
5150.285, 239.4946
5152.213, 236.7207
5154.142, 236.1355
5156.070, 236.1369
5157.999, 234.7487
5159.927, 234.9788
5161.856, 235.7985
5163.784, 236.4177
5165.713, 234.6649
5167.641, 235.2816
5169.570, 235.0453
5171.498, 235.3324
5173.427, 234.7760
5175.355, 235.1756
5177.284, 234.3150
5179.212, 235.5132
5181.141, 235.7888
5183.069, 233.2550
5184.998, 235.2654
5186.926, 235.3081
5188.854, 232.8003
5190.783, 234.6323
5192.711, 235.0870
5194.640, 234.7821
5196.568, 236.7217
5198.497, 232.2173
5200.425, 228.8733
5202.354, 232.7365
5204.282, 232.6462
5206.210, 231.3677
5208.139, 230.3258
5210.067, 231.1144
5211.996, 233.1464
5213.924, 234.9756
5215.853, 234.7432
5217.781, 233.4922
5219.710, 231.4391
5221.638, 232.2307
5223.567, 231.1295
5225.495, 232.7869
5227.424, 232.6089
5229.352, 232.2557
5231.281, 230.5393
5233.209, 229.2811
5235.138, 231.4837
5237.066, 231.7449
5238.995, 230.9031
5240.923, 229.6525
5242.852, 228.6957
5244.780, 229.2551
5246.708, 230.2215
5248.637, 227.8388
5250.565, 228.1917
5252.494, 229.7674
5254.422, 230.8378
5256.351, 229.1406
5258.279, 227.6340
5260.208, 227.4774
5262.136, 228.8264
5264.064, 227.4217
5265.993, 228.1043
5267.921, 226.6674
5269.850, 227.3686
5271.778, 227.8613
5273.707, 225.6052
5275.635, 226.0311
5277.564, 227.4575
5279.492, 228.5867
5281.421, 227.5676
5283.349, 226.4241
5285.278, 226.1377
5287.206, 227.3565
5289.135, 227.2413
5291.063, 226.2771
5292.992, 225.0933
5294.920, 224.9994
5296.849, 223.8700
5298.777, 223.3865
5300.706, 225.6006
5302.634, 225.9973
5304.563, 225.3749
5306.491, 224.3485
5308.419, 223.8680
5310.348, 222.7633
5312.276, 221.8790
5314.205, 222.3050
5316.133, 222.6684
5318.062, 222.8082
5319.990, 222.4746
5321.918, 222.8714
5323.847, 220.9261
5325.775, 223.1449
5327.704, 221.2336
5329.632, 221.0098
5331.561, 221.3783
5333.489, 221.4680
5335.418, 220.2841
5337.346, 219.6605
5339.275, 219.7956
5341.203, 220.6595
5343.132, 220.6028
5345.060, 220.2381
5346.989, 219.8797
5348.917, 219.8893
5350.846, 218.1451
5352.774, 216.4179
5354.703, 217.0762
5356.631, 218.1854
5358.560, 219.2574
5360.488, 219.7275
5362.417, 217.8973
5364.345, 216.5106
5366.273, 215.4805
5368.202, 214.4119
5370.130, 213.9738
5372.059, 217.3808
5373.987, 213.4631
5375.916, 216.0003
5377.844, 215.9939
5379.772, 215.0627
5381.701, 215.2354
5383.629, 215.8785
5385.558, 215.6179
5387.486, 214.5256
5389.415, 213.1693
5391.343, 213.8984
5393.272, 213.6483
5395.200, 213.5579
5397.129, 212.4082
5399.057, 213.2449
5400.986, 212.7822
5402.914, 211.3103
5404.843, 210.3190
5406.771, 211.4994
5408.700, 214.2640
5410.628, 215.0566
5412.557, 210.9748
5414.485, 207.6465
5416.414, 210.5661
5418.342, 210.1767
5420.271, 209.1281
5422.199, 208.3527
5424.127, 208.0047
5426.056, 209.1723
5427.984, 208.8106
5429.913, 209.6472
5431.841, 209.0879
5433.770, 210.5667
5435.698, 210.4500
5437.626, 209.6632
5439.555, 208.5991
5441.483, 208.0838
5443.412, 207.7948
5445.340, 206.0251
5447.269, 207.9526
5449.197, 209.1111
5451.126, 206.9644
5453.054, 205.6796
5454.983, 205.0479
5456.911, 204.5761
5458.840, 203.5400
5460.768, 205.2069
5462.697, 204.4122
5464.625, 202.1307
5466.554, 204.9792
5468.482, 203.9903
5470.411, 202.9493
5472.339, 204.0458
5474.268, 203.4960
5476.196, 203.5783
5478.125, 203.7367
5480.053, 202.9041
5481.981, 202.8229
5483.910, 201.9602
5485.838, 201.1816
5487.767, 202.8875
5489.695, 203.9971
5491.624, 203.7219
5493.552, 202.1590
5495.480, 202.4921
5497.409, 200.2315
5499.337, 201.1396
5501.266, 200.2035
5503.194, 198.8577
5505.123, 197.8755
5507.051, 198.0078
5508.980, 197.0551
5510.908, 197.3432
5512.837, 196.5712
5514.765, 197.9120
5516.694, 198.5602
5518.622, 198.6326
5520.551, 198.7654
5522.479, 198.9219
5524.408, 198.0223
5526.336, 195.6206
5528.265, 193.3972
5530.193, 192.5832
5532.122, 194.2865
5534.050, 194.9713
5535.979, 195.4474
5537.907, 196.7595
5539.835, 193.9835
5541.764, 194.8067
5543.692, 198.0102
5545.621, 199.6749
5547.549, 196.7875
5549.478, 195.3735
5551.406, 195.3969
5553.334, 191.8982
5555.263, 193.4514
5557.191, 193.4141
5559.120, 190.6526
5561.048, 190.6895
5562.977, 192.5854
5564.905, 192.9870
5566.834, 191.1720
5568.762, 192.4137
5570.691, 191.5654
5572.619, 190.0787
5574.548, 189.5063
5576.476, 190.5152
5578.405, 192.0786
5580.333, 192.0007
5582.262, 188.9983
5584.190, 189.8012
5586.119, 188.7968
5588.047, 187.6423
5589.976, 189.1203
5591.904, 187.9509
5593.833, 186.8061
5595.761, 186.6977
5597.689, 187.9147
5599.618, 189.7332
5601.546, 189.1972
5603.475, 187.1060
5605.403, 186.1022
5607.332, 186.5101
5609.260, 185.6464
5611.188, 184.1953
5613.117, 184.9095
5615.045, 184.3614
5616.974, 184.0831
5618.902, 184.0493
5620.831, 183.7922
5622.759, 183.8175
5624.688, 183.4285
5626.616, 184.0194
5628.545, 183.4317
5630.473, 183.7773
5632.402, 182.6949
5634.330, 180.9595
5636.259, 183.4612
5638.187, 182.3323
5640.116, 180.8128
5642.044, 180.2437
5643.973, 179.1472
5645.901, 179.1275
5647.830, 179.0835
5649.758, 179.5173
5651.687, 179.3800
5653.615, 179.6488
5655.543, 179.0925
5657.472, 178.0381
5659.400, 179.0080
5661.329, 178.7687
5663.257, 179.1712
5665.186, 179.7482
5667.114, 177.2337
5669.042, 175.1388
5670.971, 175.7052
5672.899, 177.5706
5674.828, 176.4296
5676.756, 176.7409
5678.685, 175.2558
5680.613, 172.8918
5682.542, 174.6054
5684.470, 174.0741
5686.399, 174.4350
5688.327, 175.3328
5690.256, 173.4684
5692.184, 174.0756
5694.113, 174.2873
5696.041, 173.7901
5697.970, 173.5257
5699.898, 174.6814
5701.827, 173.5970
5703.755, 172.2985
5705.684, 174.0028
5707.612, 175.2033
5709.541, 174.2043
5711.469, 172.4034
5713.397, 171.4454
5715.326, 171.6600
5717.254, 170.8432
5719.183, 170.0369
5721.111, 170.3692
5723.040, 172.2700
5724.968, 171.7735
5726.896, 169.5574
5728.825, 167.3018
5730.753, 168.3760
5732.682, 169.5134
5734.610, 171.4204
5736.539, 172.9180
5738.467, 169.4375
5740.396, 167.9548
5742.324, 166.2438
5744.253, 164.8179
5746.181, 166.7336
5748.110, 167.3488
5750.038, 166.6030
5751.967, 165.4788
5753.895, 165.0453
5755.824, 166.3409
5757.752, 166.7265
5759.681, 166.3427
5761.609, 165.9439
5763.538, 165.6991
5765.466, 164.1317
5767.395, 163.0493
5769.323, 163.2312
5771.251, 162.2077
5773.180, 163.6106
5775.108, 163.7741
5777.037, 162.4587
5778.965, 163.2764
5780.894, 161.2133
5782.822, 160.5493
5784.750, 161.1284
5786.679, 160.6892
5788.607, 159.2673
5790.536, 158.6929
5792.464, 159.5240
5794.393, 161.5034
5796.321, 161.9782
5798.250, 158.9754
5800.178, 157.5606
5802.107, 159.2471
5804.035, 160.0898
5805.964, 158.3744
5807.892, 157.0336
5809.821, 157.1729
5811.749, 158.6138
5813.678, 158.7509
5815.606, 156.9970
5817.535, 154.4526
5819.463, 152.6841
5821.392, 154.7685
5823.320, 155.8593
5825.249, 155.7344
5827.177, 154.6733
5829.105, 152.4436
5831.034, 152.4678
5832.962, 151.8406
5834.891, 151.1800
5836.819, 152.5945
5838.748, 152.9033
5840.676, 153.5654
5842.604, 153.6459
5844.533, 152.4395
5846.461, 153.4283
5848.390, 152.4660
5850.318, 154.1290
5852.247, 153.4196
5854.175, 153.3163
5856.104, 152.3525
5858.032, 151.6464
5859.961, 151.7093
5861.889, 152.2618
5863.818, 151.0099
5865.746, 149.6566
5867.675, 149.7995
5869.603, 150.3813
5871.532, 148.5070
5873.460, 150.2700
5875.389, 149.4819
5877.317, 149.0867
5879.246, 151.8738
5881.174, 150.0166
5883.103, 150.1503
5885.031, 149.2845
5886.959, 147.3702
5888.888, 148.2158
5890.816, 146.6790
5892.745, 145.7067
5894.673, 145.9252
5896.602, 146.8225
5898.530, 146.5234
5900.458, 146.9733
5902.387, 146.9635
5904.315, 146.2676
5906.244, 145.5058
5908.172, 145.6448
5910.101, 146.1701
5912.029, 145.0934
5913.958, 145.5599
5915.886, 145.0132
5917.815, 145.3434
5919.743, 145.3404
5921.672, 144.7897
5923.600, 142.8595
5925.529, 142.8110
5927.457, 143.5810
5929.386, 145.3800
5931.314, 146.6727
5933.243, 144.2038
5935.171, 140.9257
5937.100, 140.5626
5939.028, 141.6681
5940.957, 142.0291
5942.885, 139.9994
5944.813, 138.9629
5946.742, 139.5935
5948.670, 140.3515
5950.599, 139.3957
5952.527, 139.1203
5954.456, 137.8951
5956.384, 137.3984
5958.313, 137.7902
5960.241, 136.9818
5962.169, 137.8524
5964.098, 136.5422
5966.026, 136.0161
5967.955, 138.6976
5969.883, 140.1068
5971.812, 140.3116
5973.740, 135.7059
5975.669, 137.3122
5977.597, 136.4290
5979.526, 135.4436
5981.454, 137.9242
5983.383, 134.0181
5985.311, 136.4437
5987.240, 136.3418
5989.168, 137.3967
5991.097, 135.9467
5993.025, 135.2704
5994.954, 137.0997
5996.882, 137.5417
5998.811, 135.8033
6000.739, 136.9318
6002.667, 132.9382
6004.596, 133.6497
6006.524, 132.6062
6008.453, 131.8663
6010.381, 132.6584
6012.310, 133.2931
6014.238, 132.6578
6016.167, 131.7137
6018.095, 130.3549
6020.023, 130.1638
6021.952, 130.4700
6023.880, 130.3663
6025.809, 129.8411
6027.737, 129.7025
6029.666, 128.4920
6031.594, 127.7689
6033.523, 128.5844
6035.451, 128.1903
6037.380, 128.9513
6039.308, 129.6246
6041.237, 129.0523
6043.165, 127.8798
6045.094, 128.0355
6047.022, 127.7537
6048.951, 126.5966
6050.879, 127.9722
6052.808, 125.9878
6054.736, 124.4728
6056.665, 126.4857
6058.593, 126.3700
6060.521, 124.7068
6062.450, 124.0254
6064.378, 124.6676
6066.307, 123.4906
6068.235, 125.7508
6070.164, 123.4031
6072.092, 122.7548
6074.021, 124.3146
6075.949, 122.8687
6077.877, 121.2207
6079.806, 120.9587
6081.734, 121.9950
6083.663, 122.4748
6085.591, 122.4165
6087.520, 122.5833
6089.448, 122.9507
6091.377, 123.0572
6093.305, 121.9225
6095.234, 121.5153
6097.162, 119.7091
6099.091, 119.1701
6101.019, 120.0643
6102.948, 118.0522
6104.876, 118.9723
6106.805, 119.1921
6108.733, 118.9231
6110.662, 118.5991
6112.590, 118.0758
6114.519, 118.2091
6116.447, 116.8961
6118.375, 117.6508
6120.304, 119.0215
6122.232, 117.6444
6124.161, 117.8590
6126.089, 118.7945
6128.018, 118.8520
6129.946, 117.4693
6131.875, 115.3551
6133.803, 115.2466
6135.731, 116.2090
6137.660, 117.0667
6139.588, 116.9535
6141.517, 116.0119
6143.445, 115.3398
6145.374, 115.1302
6147.302, 114.4327
6149.231, 114.8247
6151.159, 115.8945
6153.088, 115.8844
6155.016, 116.5405
6156.945, 114.4548
6158.873, 114.0125
6160.802, 113.9083
6162.730, 112.1547
6164.659, 112.0429
6166.587, 112.1332
6168.516, 112.2868
6170.444, 111.2430
6172.373, 110.6351
6174.301, 114.7952
6176.229, 110.8116
6178.158, 112.5804
6180.086, 112.4901
6182.015, 110.5949
6183.943, 110.7422
6185.872, 109.4714
6187.800, 110.4294
6189.729, 109.9398
6191.657, 109.8885
6193.585, 111.2967
6195.514, 112.1604
6197.442, 109.4665
6199.371, 108.8650
6201.299, 109.2453
6203.228, 109.2707
6205.156, 108.5811
6207.085, 109.0352
6209.013, 107.7259
6210.942, 108.9001
6212.870, 109.0975
6214.799, 108.2092
6216.727, 107.7369
6218.656, 107.3695
6220.584, 108.1325
6222.513, 108.2043
6224.441, 107.5229
6226.370, 106.8496
6228.298, 106.6641
6230.227, 105.7746
6232.155, 105.7172
6234.083, 105.2863
6236.012, 105.3030
6237.940, 104.7063
6239.869, 104.1688
6241.797, 103.9000
6243.726, 103.5036
6245.654, 104.6190
6247.583, 105.2706
6249.511, 105.2023
6251.439, 106.0391
6253.368, 104.9531
6255.296, 103.6944
6257.225, 103.0058
6259.153, 102.8559
6261.082, 103.1799
6263.010, 102.3710
6264.939, 103.9383
6266.867, 101.9131
6268.796, 102.2408
6270.724, 103.4055
6272.653, 99.52086
6274.581, 102.2254
6276.510, 102.2035
6278.438, 102.2240
6280.367, 102.0627
6282.295, 100.5631
6284.224, 100.9844
6286.152, 99.23946
6288.081, 100.2611
6290.009, 101.1167
6291.938, 100.4806
6293.866, 99.22094
6295.794, 98.48071
6297.723, 100.0331
6299.651, 98.73167
6301.580, 100.4622
6303.508, 97.94552
6305.437, 98.10279
6307.365, 97.57177
6309.293, 99.26041
6311.222, 97.77768
6313.150, 97.95042
6315.079, 99.06330
6317.007, 98.51000
6318.936, 98.47630
6320.864, 97.12890
6322.793, 95.51344
6324.721, 95.30158
6326.650, 96.09602
6328.578, 96.54483
6330.507, 95.81348
6332.435, 96.80692
6334.364, 97.30687
6336.292, 96.23978
6338.221, 94.79762
6340.149, 94.37037
6342.078, 95.20390
6344.006, 93.72468
6345.935, 94.72836
6347.863, 93.88553
6349.792, 92.64755
6351.720, 92.71584
6353.648, 93.41230
6355.577, 92.25975
6357.505, 92.51331
6359.434, 93.16639
6361.362, 92.85306
6363.291, 93.17536
6365.219, 93.30924
6367.147, 92.69334
6369.076, 93.46964
6371.004, 93.65500
6372.933, 93.64195
6374.861, 92.86691
6376.790, 90.62038
6378.718, 88.03972
6380.647, 90.99979
6382.575, 94.11259
6384.504, 92.30743
6386.432, 91.71967
6388.361, 92.93840
6390.289, 91.06670
6392.218, 90.67440
6394.146, 91.43081
6396.075, 89.22655
6398.003, 88.70237
6399.932, 90.02961
6401.860, 90.45238
6403.789, 88.18645
6405.717, 89.13396
6407.646, 88.84184
6409.574, 88.68602
6411.502, 88.79167
6413.431, 88.52988
6415.359, 87.72691
6417.288, 87.34789
6419.216, 88.77489
6421.145, 87.40803
6423.073, 88.02579
6425.001, 85.60847
6426.930, 87.59835
6428.858, 87.58103
6430.787, 86.08583
6432.715, 87.53667
6434.644, 86.37981
6436.572, 85.38943
6438.501, 85.47122
6440.429, 85.51627
6442.358, 85.04600
6444.286, 85.32767
6446.215, 84.11718
6448.143, 85.12120
6450.072, 85.30484
6452.000, 84.30022
6453.929, 83.10293
6455.857, 83.01614
6457.786, 81.19471
6459.714, 83.22134
6461.643, 83.67801
6463.571, 83.90068
6465.500, 83.47157
6467.428, 83.36236
6469.356, 82.79218
6471.285, 82.33009
6473.213, 81.50263
6475.142, 80.76052
6477.070, 80.29134
6478.999, 80.04025
6480.927, 80.19058
6482.855, 82.11824
6484.784, 81.18351
6486.712, 82.22535
6488.641, 79.22794
6490.569, 78.17791
6492.498, 79.13741
6494.426, 79.35002
6496.355, 80.87770
6498.283, 81.61919
6500.212, 80.86430
6502.140, 79.12613
6504.069, 77.87963
6505.997, 77.42720
6507.926, 77.36873
6509.854, 77.67900
6511.783, 77.32290
6513.711, 77.59109
6515.640, 77.09908
6517.568, 77.29015
6519.497, 77.26507
6521.425, 77.95182
6523.354, 79.42420
6525.282, 76.07292
6527.210, 75.54831
6529.139, 77.07637
6531.067, 77.52426
6532.996, 76.62151
6534.924, 75.65018
6536.853, 75.59456
6538.781, 76.03989
6540.709, 75.10313
6542.638, 74.04435
6544.566, 72.36699
6546.495, 72.57806
6548.423, 75.49898
6550.352, 73.24764
6552.280, 75.18830
6554.209, 76.67420
6556.137, 76.01371
6558.066, 73.36850
6559.994, 71.48318
6561.923, 72.24667
6563.851, 73.13620
6565.780, 73.09862
6567.708, 73.60109
6569.637, 73.94243
6571.565, 71.94250
6573.494, 74.44772
6575.422, 73.10296
6577.351, 73.10073
6579.279, 73.94272
6581.208, 72.91979
6583.136, 71.98638
6585.064, 72.00800
6586.993, 71.71285
6588.921, 71.15538
6590.850, 71.01460
6592.778, 70.43705
6594.707, 70.24223
6596.635, 70.20461
6598.563, 69.57565
6600.492, 71.10160
6602.420, 71.92908
6604.349, 69.58692
6606.277, 70.19545
6608.206, 69.49558
6610.134, 69.57818
6612.063, 71.35693
6613.991, 69.56303
6615.920, 67.32629
6617.848, 68.39507
6619.777, 69.25613
6621.705, 67.37128
6623.634, 66.90112
6625.562, 67.53671
6627.491, 67.32899
6629.419, 66.76711
##END=



