##NAMES=Leiteite
##RRUFFID=R040011
##IDEAL CHEMISTRY=ZnAs^3+^_2_O_4_
##LOCALITY=Tsumeb mine, Tsumeb, Otavi District, Oshikoto, Namibia
##OWNER=RRUFF
##SOURCE=Dave Bunk Minerals
##DESCRIPTION=Transparent tan colored flexible lamellar crystal
##STATUS=The identification of this mineral has been confirmed by X-ray diffraction and chemical analysis
##URL=https://www.rruff.net/odr/rruff_sample/R040011
##MEASURED CHEMISTRY=Zn_1.00_As^3+^_2.00_O_4_
##DIFFRACTION SAMPLE DESCRIPTION=Powder
##CELL PARAMETERS=a: 4.5443 b: 5.0143 c: 17.6107 alpha: 90 beta: 90.751 gamma: 90 volume: 401.26 crystal system: monoclinic
##FILETYPE=Raman RAW
##RAMAN WAVELENGTH=780

114.1333, 651.6837
116.0618, 667.6188
117.9902, 683.5368
119.9187, 704.6960
121.8472, 730.3865
123.7756, 763.6445
125.7041, 818.1134
127.6326, 864.3340
129.5611, 892.2855
131.4895, 904.7930
133.4180, 905.0969
135.3465, 892.5563
137.2749, 883.4168
139.2034, 876.5095
141.1319, 877.8145
143.0603, 889.0324
144.9888, 910.2581
146.9173, 949.0347
148.8457, 1005.448
150.7742, 1031.699
152.7027, 1013.413
154.6311, 976.0822
156.5596, 906.6063
158.4881, 833.1069
160.4165, 778.9656
162.3450, 743.3898
164.2735, 721.3844
166.2019, 716.9757
168.1304, 720.9113
170.0589, 728.8105
171.9873, 748.6141
173.9158, 787.3613
175.8443, 842.2331
177.7727, 902.1469
179.7012, 980.9618
181.6297, 1041.599
183.5581, 1080.006
185.4866, 1104.032
187.4151, 1113.531
189.3435, 1113.170
191.2720, 1109.200
193.2005, 1097.018
195.1289, 1097.385
197.0574, 1109.018
198.9859, 1134.435
200.9143, 1177.798
202.8428, 1234.418
204.7713, 1302.129
206.6997, 1381.345
208.6282, 1464.666
210.5567, 1544.725
212.4851, 1648.087
214.4136, 1800.893
216.3421, 1959.652
218.2705, 2143.509
220.1990, 2312.920
222.1275, 2299.148
224.0559, 2086.743
225.9844, 1834.774
227.9129, 1521.633
229.8413, 1248.469
231.7698, 1052.902
233.6983, 919.5355
235.6267, 836.1910
237.5552, 804.1319
239.4837, 791.1873
241.4121, 800.1131
243.3406, 817.6880
245.2691, 842.1932
247.1975, 871.6471
249.1260, 903.6033
251.0545, 940.1434
252.9829, 991.0110
254.9114, 1056.851
256.8399, 1109.319
258.7683, 1154.215
260.6968, 1164.432
262.6253, 1124.102
264.5537, 1052.672
266.4822, 959.7506
268.4107, 852.3134
270.3391, 755.8439
272.2676, 671.2556
274.1961, 599.6488
276.1245, 544.1891
278.0530, 497.4252
279.9815, 457.3979
281.9099, 424.2349
283.8384, 397.9586
285.7669, 378.2124
287.6953, 364.3237
289.6238, 358.3076
291.5523, 354.2734
293.4807, 351.5154
295.4092, 350.2351
297.3377, 351.3954
299.2661, 353.5108
301.1946, 355.1627
303.1231, 356.4864
305.0515, 354.0218
306.9800, 344.7459
308.9085, 335.5666
310.8369, 327.5791
312.7654, 319.5798
314.6939, 309.1630
316.6223, 298.8893
318.5508, 293.5778
320.4793, 293.9397
322.4077, 296.3842
324.3362, 300.7063
326.2647, 307.1850
328.1931, 317.4136
330.1216, 328.1437
332.0501, 338.3775
333.9785, 347.1261
335.9070, 351.8382
337.8355, 351.6277
339.7639, 351.9412
341.6924, 352.0852
343.6209, 354.0051
345.5493, 358.4622
347.4778, 364.8173
349.4063, 372.5603
351.3347, 381.6265
353.2632, 392.6307
355.1917, 406.0272
357.1201, 415.8661
359.0486, 421.1831
360.9771, 426.2969
362.9055, 432.1599
364.8340, 438.3347
366.7625, 445.5707
368.6909, 452.4745
370.6194, 456.6647
372.5479, 457.9554
374.4763, 458.7699
376.4048, 459.1720
378.3333, 460.0854
380.2617, 463.6055
382.1902, 464.0705
384.1187, 457.3263
386.0471, 448.2745
387.9756, 440.7140
389.9041, 435.3669
391.8326, 434.0981
393.7610, 436.6390
395.6895, 444.1314
397.6180, 455.6144
399.5464, 475.1924
401.4749, 502.0819
403.4034, 538.3907
405.3318, 581.5091
407.2603, 637.2696
409.1888, 713.5283
411.1172, 810.7334
413.0457, 942.4059
414.9742, 1112.556
416.9026, 1307.860
418.8311, 1555.167
420.7596, 1787.258
422.6880, 1989.573
424.6165, 2158.069
426.5450, 2278.849
428.4734, 2362.779
430.4019, 2426.318
432.3304, 2467.066
434.2588, 2538.699
436.1873, 2637.678
438.1158, 2789.051
440.0442, 3009.491
441.9727, 3265.960
443.9012, 3562.355
445.8296, 3871.155
447.7581, 4165.643
449.6866, 4445.229
451.6150, 4707.427
453.5435, 4959.542
455.4720, 5166.948
457.4004, 5400.448
459.3289, 5482.885
461.2574, 5384.600
463.1858, 5121.622
465.1143, 4633.630
467.0428, 4028.029
468.9712, 3391.206
470.8997, 2742.264
472.8282, 2205.862
474.7566, 1799.066
476.6851, 1469.746
478.6136, 1229.064
480.5420, 1035.654
482.4705, 888.8893
484.3990, 773.2792
486.3274, 686.6022
488.2559, 620.3443
490.1844, 569.5122
492.1128, 532.0615
494.0413, 499.0881
495.9698, 470.5060
497.8982, 449.2332
499.8267, 436.7574
501.7552, 426.2279
503.6836, 414.8878
505.6121, 407.3968
507.5406, 406.2038
509.4690, 409.3661
511.3975, 417.4346
513.3260, 427.7436
515.2545, 434.4662
517.1829, 437.4947
519.1114, 437.6982
521.0399, 434.5382
522.9683, 432.4551
524.8968, 431.2648
526.8253, 433.4016
528.7537, 439.7709
530.6822, 449.7461
532.6107, 463.6180
534.5391, 480.8090
536.4676, 501.5336
538.3961, 524.0925
540.3245, 543.3857
542.2530, 559.6035
544.1815, 577.0319
546.1099, 597.2988
548.0384, 614.6651
549.9669, 633.1486
551.8953, 640.1665
553.8238, 629.6967
555.7523, 609.2772
557.6807, 576.8110
559.6092, 542.4679
561.5377, 521.5623
563.4661, 511.6129
565.3946, 508.2720
567.3231, 511.3441
569.2515, 510.2457
571.1800, 503.0561
573.1085, 494.1617
575.0369, 480.1888
576.9654, 470.1169
578.8939, 464.9603
580.8223, 466.7022
582.7508, 477.1563
584.6793, 494.3873
586.6077, 519.7103
588.5362, 549.1995
590.4647, 572.6658
592.3931, 589.7340
594.3216, 603.2324
596.2501, 610.4545
598.1785, 620.9027
600.1070, 639.4235
602.0355, 653.0919
603.9639, 667.3517
605.8924, 664.0621
607.8209, 630.2316
609.7493, 577.1812
611.6778, 505.8300
613.6063, 429.5330
615.5347, 368.0855
617.4632, 320.9634
619.3917, 284.8297
621.3201, 260.4939
623.2486, 242.5378
625.1771, 231.6206
627.1055, 223.4827
629.0340, 218.0463
630.9625, 214.3686
632.8909, 212.6139
634.8194, 211.5850
636.7479, 210.7326
638.6763, 210.4339
640.6048, 211.3628
642.5333, 212.5697
644.4617, 212.5090
646.3902, 211.6090
648.3187, 211.6174
650.2471, 212.3440
652.1756, 211.3090
654.1041, 208.3962
656.0325, 205.7031
657.9610, 203.6076
659.8895, 201.0118
661.8179, 196.9716
663.7464, 193.7014
665.6749, 192.2968
667.6033, 191.3206
669.5318, 190.1563
671.4603, 188.7638
673.3887, 186.7095
675.3172, 184.7209
677.2457, 184.5022
679.1741, 185.3550
681.1026, 185.1038
683.0311, 183.7940
684.9595, 182.2574
686.8880, 180.4228
688.8165, 179.2923
690.7449, 179.4571
692.6734, 179.3760
694.6019, 178.9706
696.5303, 178.0785
698.4588, 176.0201
700.3873, 174.2393
702.3157, 173.7670
704.2442, 173.9044
706.1727, 173.8416
708.1011, 173.6424
710.0296, 173.7181
711.9581, 174.1220
713.8865, 174.7597
715.8150, 175.6785
717.7435, 177.2234
719.6719, 179.3802
721.6004, 182.0383
723.5289, 185.4645
725.4573, 189.0799
727.3858, 192.6280
729.3143, 196.6236
731.2427, 201.9931
733.1712, 206.4382
735.0997, 208.5973
737.0281, 210.3582
738.9566, 212.3669
740.8851, 215.0067
742.8135, 218.7145
744.7420, 223.0365
746.6705, 227.4123
748.5989, 231.9718
750.5274, 236.9886
752.4559, 242.5429
754.3843, 248.9305
756.3128, 256.0360
758.2413, 261.2268
760.1697, 264.5820
762.0982, 267.0789
764.0267, 268.6460
765.9551, 269.8086
767.8836, 271.3987
769.8121, 269.8861
771.7405, 263.4437
773.6690, 255.4898
775.5975, 246.5163
777.5259, 237.9156
779.4544, 230.0100
781.3829, 222.6598
783.3113, 215.0631
785.2398, 209.1020
787.1683, 206.5834
789.0967, 206.5733
791.0252, 208.9352
792.9537, 212.5944
794.8821, 214.6842
796.8106, 215.8318
798.7391, 218.3739
800.6675, 221.8916
802.5960, 224.2039
804.5245, 225.2360
806.4529, 225.7248
808.3814, 225.9476
810.3099, 224.7144
812.2383, 221.7741
814.1668, 216.9277
816.0953, 209.7771
818.0237, 201.8374
819.9522, 192.5464
821.8807, 183.7709
823.8091, 175.1653
825.7376, 168.4299
827.6661, 165.5363
829.5945, 163.0382
831.5230, 158.1205
833.4515, 153.7378
835.3799, 152.8175
837.3084, 152.8081
839.2369, 151.2585
841.1653, 149.3097
843.0938, 148.3178
845.0223, 147.6898
846.9507, 146.2231
848.8792, 144.3581
850.8077, 143.6004
852.7361, 143.6503
854.6646, 142.6710
856.5931, 140.6927
858.5215, 139.1025
860.4500, 137.9270
862.3785, 136.8414
864.3069, 135.8922
866.2354, 135.2767
868.1639, 135.0095
870.0923, 134.3319
872.0208, 133.2782
873.9493, 131.9449
875.8777, 130.0886
877.8062, 129.0782
879.7347, 129.5351
881.6631, 129.4036
883.5916, 127.8504
885.5201, 126.5593
887.4485, 126.4024
889.3770, 125.8873
891.3055, 124.0235
893.2339, 122.4141
895.1624, 121.8576
897.0909, 121.4004
899.0193, 120.9151
900.9478, 120.2767
902.8763, 119.0244
904.8047, 117.9421
906.7332, 117.6957
908.6617, 117.7224
910.5901, 117.7678
912.5186, 117.6894
914.4471, 117.2936
916.3755, 116.6846
918.3040, 115.6614
920.2325, 114.6291
922.1609, 114.3954
924.0894, 114.3977
926.0179, 114.0761
927.9464, 113.7771
929.8748, 113.2314
931.8033, 112.4156
933.7318, 112.1971
935.6602, 112.4724
937.5887, 112.2125
939.5172, 111.4385
941.4456, 110.8642
943.3741, 110.4838
945.3026, 109.7721
947.2310, 108.8126
949.1595, 108.5654
951.0880, 108.9593
953.0164, 108.7165
954.9449, 107.8452
956.8734, 107.7973
958.8018, 108.7253
960.7303, 108.8159
962.6588, 107.7948
964.5872, 107.3010
966.5157, 107.5720
968.4442, 107.4015
970.3726, 106.6021
972.3011, 106.1358
974.2296, 105.9430
976.1580, 105.7541
978.0865, 105.5981
980.0150, 105.7869
981.9434, 106.4705
983.8719, 107.0938
985.8004, 107.5980
987.7288, 107.5658
989.6573, 107.0187
991.5858, 106.1434
993.5142, 104.4872
995.4427, 104.1339
997.3712, 106.0235
999.2996, 107.2274
1001.228, 106.9933
1003.157, 106.3484
1005.085, 105.3374
1007.013, 104.8523
1008.942, 105.2255
1010.870, 105.2731
1012.799, 104.7298
1014.727, 104.4122
1016.656, 104.4475
1018.584, 104.4594
1020.513, 104.4397
1022.441, 104.2750
1024.370, 103.8656
1026.298, 103.4796
1028.227, 103.2266
1030.155, 103.2539
1032.084, 103.6595
1034.012, 103.5863
1035.941, 102.3520
1037.869, 101.9417
1039.797, 103.8130
1041.726, 104.9304
1043.654, 103.8952
1045.583, 102.7068
1047.511, 101.9620
1049.440, 101.1602
1051.368, 99.88200
1053.297, 99.32337
1055.225, 100.0811
1057.154, 100.3901
1059.082, 100.0159
1061.011, 99.46481
1062.939, 98.14244
1064.868, 97.55702
1066.796, 98.93660
1068.724, 99.63886
1070.653, 98.76606
1072.581, 97.78790
1074.510, 96.84084
1076.438, 96.22844
1078.367, 95.96977
1080.295, 95.84026
1082.224, 95.85796
1084.152, 95.89223
1086.081, 96.04170
1088.009, 95.95372
1089.938, 95.39670
1091.866, 95.39381
1093.795, 96.31300
1095.723, 96.70274
1097.651, 96.32092
1099.580, 95.79250
1101.508, 95.08376
1103.437, 94.58905
1105.365, 94.29148
1107.294, 94.71158
1109.222, 96.02834
1111.151, 96.27299
1113.079, 95.35724
1115.008, 94.93501
1116.936, 95.00396
1118.865, 94.82515
1120.793, 94.37541
1122.722, 93.44955
1124.650, 92.26467
1126.578, 92.40658
1128.507, 93.50622
1130.435, 93.55760
1132.364, 92.71778
1134.292, 92.63806
1136.221, 93.21653
1138.149, 93.14286
1140.078, 92.68987
1142.006, 92.49680
1143.935, 92.53375
1145.863, 93.06877
1147.792, 93.72784
1149.720, 94.21087
1151.649, 94.60178
1153.577, 94.43066
1155.505, 93.99075
1157.434, 93.72046
1159.362, 93.51476
1161.291, 93.24884
1163.219, 93.15572
1165.148, 93.99928
1167.076, 94.74682
1169.005, 93.87288
1170.933, 92.88946
1172.862, 93.16451
1174.790, 93.40416
1176.719, 93.00754
1178.647, 92.56635
1180.576, 91.78701
1182.504, 91.40308
1184.432, 92.20003
1186.361, 92.70391
1188.289, 92.53515
1190.218, 92.20236
1192.146, 91.42505
1194.075, 90.83855
1196.003, 90.92940
1197.932, 91.01491
1199.860, 90.69563
1201.789, 90.48273
1203.717, 90.64680
1205.646, 90.85854
1207.574, 91.01227
1209.503, 90.33299
1211.431, 89.02437
1213.359, 88.86327
1215.288, 89.51252
1217.216, 90.03939
1219.145, 90.56471
1221.073, 90.54284
1223.002, 90.04997
1224.930, 89.79550
1226.859, 90.02317
1228.787, 91.23254
1230.716, 92.18172
1232.644, 91.09786
1234.573, 89.88924
1236.501, 90.22448
1238.430, 90.86464
1240.358, 91.04443
1242.286, 90.93915
1244.215, 90.78746
1246.143, 90.72625
1248.072, 90.80682
1250.000, 90.75485
1251.929, 90.38324
1253.857, 90.10909
1255.786, 90.17052
1257.714, 90.43851
1259.643, 90.63053
1261.571, 90.58337
1263.500, 90.44210
1265.428, 90.20317
1267.357, 90.06215
1269.285, 90.53072
1271.214, 91.22006
1273.142, 91.43743
1275.070, 91.48662
1276.999, 91.72502
1278.927, 92.06396
1280.856, 92.69278
1282.784, 93.30688
1284.713, 93.49275
1286.641, 93.57851
1288.570, 93.75774
1290.498, 93.75124
1292.427, 93.42009
1294.355, 93.56000
1296.284, 94.21706
1298.212, 94.65290
1300.141, 95.25123
1302.069, 95.19564
1303.997, 94.12433
1305.926, 93.73112
1307.854, 93.98880
1309.783, 93.75539
1311.711, 93.31383
1313.640, 93.02376
1315.568, 92.76019
1317.497, 92.92223
1319.425, 93.09697
1321.354, 92.28822
1323.282, 91.59039
1325.211, 92.18789
1327.139, 92.49399
1329.068, 91.38638
1330.996, 90.33453
1332.924, 89.83188
1334.853, 89.69177
1336.781, 90.18702
1338.710, 90.20256
1340.638, 89.37109
1342.567, 89.18050
1344.495, 89.72046
1346.424, 89.71835
1348.352, 89.33373
1350.281, 89.06975
1352.209, 88.83891
1354.138, 89.23859
1356.066, 89.78419
1357.995, 89.35692
1359.923, 88.96138
1361.851, 89.38130
1363.780, 89.60933
1365.708, 89.25996
1367.637, 88.95650
1369.565, 88.84364
1371.494, 88.50588
1373.422, 88.05498
1375.351, 88.14210
1377.279, 88.35271
1379.208, 88.28377
1381.136, 88.24907
1383.065, 87.74175
1384.993, 86.89431
1386.922, 86.20740
1388.850, 85.93827
1390.778, 86.22972
1392.707, 86.58318
1394.635, 87.06298
1396.564, 87.13660
1398.492, 86.57387
1400.421, 86.42020
1402.349, 86.69893
1404.278, 86.60562
1406.206, 86.10168
1408.135, 85.89034
1410.063, 85.89628
1411.992, 85.85837
1413.920, 86.08112
1415.849, 87.13741
1417.777, 87.93696
1419.705, 87.68659
1421.634, 87.27309
1423.562, 86.64902
1425.491, 86.75745
1427.419, 88.12315
1429.348, 88.66298
1431.276, 88.17467
1433.205, 88.74794
1435.133, 90.08095
1437.062, 90.28963
1438.990, 89.75671
1440.919, 89.60020
1442.847, 89.97517
1444.776, 90.82864
1446.704, 91.08968
1448.632, 90.11732
1450.561, 89.37677
1452.489, 89.10689
1454.418, 89.31548
1456.346, 89.81796
1458.275, 89.74914
1460.203, 89.39681
1462.132, 89.71231
1464.060, 90.23274
1465.989, 90.01772
1467.917, 89.57704
1469.846, 89.56504
1471.774, 89.75066
1473.703, 89.49494
1475.631, 88.91600
1477.559, 88.92030
1479.488, 88.79274
1481.416, 88.17939
1483.345, 88.29247
1485.273, 88.55802
1487.202, 88.58739
1489.130, 89.01329
1491.059, 89.60748
1492.987, 89.49165
1494.916, 88.21150
1496.844, 87.42326
1498.773, 87.70615
1500.701, 88.06136
1502.630, 87.90340
1504.558, 87.68000
1506.486, 88.33163
1508.415, 88.14870
1510.343, 86.69408
1512.272, 85.51331
1514.200, 85.14403
1516.129, 85.46730
1518.057, 85.63831
1519.986, 85.60454
1521.914, 85.71535
1523.843, 85.60712
1525.771, 85.21884
1527.700, 84.99157
1529.628, 84.62007
1531.557, 84.18364
1533.485, 84.04256
1535.413, 84.01764
1537.342, 83.89217
1539.270, 83.53987
1541.199, 83.05032
1543.127, 82.72511
1545.056, 82.36325
1546.984, 82.08035
1548.913, 82.29689
1550.841, 82.94730
1552.770, 83.18655
1554.698, 82.00789
1556.627, 80.66725
1558.555, 80.41615
1560.484, 80.52341
1562.412, 80.68465
1564.340, 80.77518
1566.269, 80.67663
1568.197, 80.59409
1570.126, 80.60097
1572.054, 80.23539
1573.983, 79.74321
1575.911, 80.25600
1577.840, 80.88831
1579.768, 80.07756
1581.697, 79.23215
1583.625, 79.45489
1585.554, 79.56416
1587.482, 79.58381
1589.411, 79.23563
1591.339, 78.52138
1593.267, 78.11886
1595.196, 77.82594
1597.124, 77.63612
1599.053, 77.51053
1600.981, 76.98867
1602.910, 77.06670
1604.838, 78.14766
1606.767, 78.40202
1608.695, 78.08746
1610.624, 77.96345
1612.552, 77.56209
1614.481, 77.16567
1616.409, 77.40282
1618.338, 77.07893
1620.266, 76.28654
1622.194, 76.48511
1624.123, 76.97714
1626.051, 76.87653
1627.980, 76.60233
1629.908, 76.19085
1631.837, 75.34451
1633.765, 74.85656
1635.694, 75.26350
1637.622, 75.24870
1639.551, 74.78697
1641.479, 74.84911
1643.408, 75.21461
1645.336, 74.91740
1647.265, 74.43248
1649.193, 74.64653
1651.121, 74.90383
1653.050, 74.72581
1654.978, 74.17410
1656.907, 73.65253
1658.835, 73.42473
1660.764, 73.04891
1662.692, 72.74878
1664.621, 72.47638
1666.549, 71.75203
1668.478, 71.26614
1670.406, 71.35329
1672.335, 70.92628
1674.263, 70.49168
1676.192, 70.59367
1678.120, 70.28719
1680.048, 69.34418
1681.977, 68.83405
1683.905, 69.06578
1685.834, 69.23798
1687.762, 69.01566
1689.691, 69.14581
1691.619, 69.62653
1693.548, 69.85625
1695.476, 69.88956
1697.405, 69.16222
1699.333, 68.37463
1701.262, 68.44025
1703.190, 68.43810
1705.119, 68.17767
1707.047, 67.92616
1708.975, 67.38661
1710.904, 67.30418
1712.832, 67.71074
1714.761, 67.86489
1716.689, 67.67732
1718.618, 66.77346
1720.546, 66.00229
1722.475, 66.45369
1724.403, 66.94648
1726.332, 66.89526
1728.260, 66.58549
1730.189, 66.30888
1732.117, 66.23311
1734.046, 66.17104
1735.974, 65.81256
1737.902, 65.65955
1739.831, 65.55545
1741.759, 64.61197
1743.688, 63.97250
1745.616, 64.74705
1747.545, 64.99014
1749.473, 64.34191
1751.402, 64.15320
1753.330, 64.17186
1755.259, 63.93449
1757.187, 63.93226
1759.116, 64.15474
1761.044, 64.12210
1762.973, 63.91493
1764.901, 64.13776
1766.829, 64.22832
1768.758, 63.04126
1770.686, 62.09221
1772.615, 62.61341
1774.543, 63.17075
1776.472, 63.15841
1778.400, 63.05430
1780.329, 62.77244
1782.257, 62.37694
1784.186, 62.46188
1786.114, 62.71213
1788.043, 62.27155
1789.971, 61.97866
1791.900, 61.91393
1793.828, 61.37274
1795.756, 61.06351
1797.685, 61.12238
1799.613, 61.00422
1801.542, 60.61738
1803.470, 60.32670
1805.399, 60.24814
1807.327, 59.88935
1809.256, 59.72969
1811.184, 59.85734
1813.113, 59.55375
1815.041, 59.38168
1816.970, 59.65342
1818.898, 59.74569
1820.827, 59.76632
1822.755, 59.99813
1824.683, 60.04382
1826.612, 59.26350
1828.540, 58.73272
1830.469, 58.68195
1832.397, 58.79355
1834.326, 59.16360
1836.254, 59.38489
1838.183, 59.11243
1840.111, 58.22697
1842.040, 57.58861
1843.968, 57.49981
1845.897, 57.89593
1847.825, 58.32473
1849.754, 58.15570
1851.682, 57.85678
1853.610, 57.67028
1855.539, 57.33222
1857.467, 57.16714
1859.396, 57.06178
1861.324, 56.74661
1863.253, 56.35386
1865.181, 56.29103
1867.110, 56.67989
1869.038, 56.00725
1870.967, 54.90290
1872.895, 55.02650
1874.824, 55.30215
1876.752, 55.25812
1878.681, 55.09206
1880.609, 54.78792
1882.537, 54.59924
1884.466, 54.55845
1886.394, 54.47496
1888.323, 54.69408
1890.251, 55.23156
1892.180, 55.10256
1894.108, 54.53835
1896.037, 54.11821
1897.965, 53.95158
1899.894, 54.71267
1901.822, 54.82366
1903.751, 53.69163
1905.679, 53.29507
1907.608, 53.58330
1909.536, 53.76022
1911.464, 53.69540
1913.393, 53.51015
1915.321, 53.37322
1917.250, 53.64155
1919.178, 53.49601
1921.107, 52.82795
1923.035, 51.94553
1924.964, 51.63805
1926.892, 51.98906
1928.821, 51.81162
1930.749, 51.36049
1932.678, 50.86691
1934.606, 50.50924
1936.535, 50.11330
1938.463, 49.73924
1940.391, 49.76808
1942.320, 49.77467
1944.248, 49.50718
1946.177, 49.59696
1948.105, 49.82792
1950.034, 50.01631
1951.962, 49.41849
1953.891, 48.58324
1955.819, 48.52227
1957.748, 48.45791
1959.676, 48.33851
1961.605, 48.22111
1963.533, 48.13898
1965.462, 47.80413
1967.390, 47.45484
1969.318, 47.88319
1971.247, 47.81341
1973.175, 47.30815
1975.104, 47.79779
1977.032, 48.05692
1978.961, 47.34745
1980.889, 47.26794
1982.818, 47.45845
1984.746, 47.34104
1986.675, 47.14160
1988.603, 46.27750
1990.532, 46.05442
1992.460, 46.76464
1994.389, 46.13831
1996.317, 45.25338
1998.245, 46.04053
2000.174, 46.37560
2002.102, 46.20515
2004.031, 45.88248
2005.959, 45.31276
2007.888, 45.01815
2009.816, 45.17433
2011.745, 45.62260
2013.673, 45.18617
2015.602, 44.57424
2017.530, 45.07381
2019.459, 45.19159
2021.387, 44.60316
2023.316, 45.00002
2025.244, 45.48310
2027.172, 44.84890
2029.101, 44.23892
2031.029, 44.41042
2032.958, 44.28897
2034.886, 43.88135
2036.815, 43.78411
2038.743, 43.74989
2040.672, 44.17960
2042.600, 44.09286
2044.529, 43.54029
2046.457, 43.77273
2048.386, 43.72679
2050.314, 43.31714
2052.243, 43.30188
2054.171, 43.35736
2056.100, 43.06196
2058.028, 42.86471
2059.957, 43.44805
2061.885, 43.55046
2063.813, 42.99030
2065.742, 42.15408
2067.670, 41.75465
2069.599, 42.23987
2071.527, 42.74883
2073.456, 42.91766
2075.384, 42.28354
2077.313, 41.93824
2079.241, 41.97518
2081.170, 41.90467
2083.098, 41.76607
2085.027, 41.62589
2086.955, 41.65848
2088.884, 41.43639
2090.812, 40.89009
2092.740, 40.65858
2094.669, 40.71162
2096.597, 40.56343
2098.526, 40.21940
2100.454, 40.05635
2102.383, 40.08959
2104.311, 40.10529
2106.240, 39.94937
2108.168, 39.42323
2110.097, 38.80772
2112.025, 38.47993
2113.954, 38.32147
2115.882, 38.32687
2117.811, 38.43002
2119.739, 38.28559
2121.667, 37.90042
2123.596, 37.18848
2125.524, 36.79495
2127.453, 36.76357
2129.381, 36.45724
2131.310, 36.30422
2133.238, 36.70839
2135.167, 36.36708
2137.095, 35.45129
2139.024, 35.27518
2140.952, 35.20520
2142.881, 34.97184
2144.809, 34.89057
2146.738, 34.61384
2148.666, 34.26456
2150.594, 34.19485
2152.523, 34.10497
2154.451, 33.62563
2156.380, 33.17130
2158.308, 33.19437
2160.237, 33.33399
2162.165, 33.18460
2164.094, 33.56908
2166.022, 34.23293
2167.951, 34.26063
2169.879, 33.46072
2171.808, 32.42336
2173.736, 32.79132
2175.665, 32.97128
2177.593, 32.08370
2179.521, 31.68606
2181.450, 31.61266
2183.378, 31.41608
2185.307, 31.46702
2187.235, 31.80646
2189.164, 31.54928
2191.092, 31.05755
2193.021, 31.05920
2194.949, 31.18639
2196.878, 31.25939
2198.806, 31.27854
2200.735, 31.02989
2202.663, 30.63171
2204.592, 30.61335
2206.520, 30.60946
2208.448, 30.76391
2210.377, 30.83324
2212.305, 30.36506
2214.234, 30.35721
2216.162, 30.58419
2218.091, 30.26799
2220.019, 29.93925
2221.948, 29.87693
2223.876, 30.01212
2225.805, 30.04134
2227.733, 30.18744
2229.662, 30.50742
2231.590, 30.66239
2233.519, 30.16973
2235.447, 29.86216
2237.375, 29.72577
2239.304, 29.65306
2241.232, 29.60468
2243.161, 29.47339
2245.089, 29.18762
2247.018, 28.69437
2248.946, 28.84958
2250.875, 28.91331
2252.803, 28.44493
2254.732, 28.03151
2256.660, 27.80798
2258.589, 27.84501
2260.517, 28.19174
2262.446, 28.51976
2264.374, 28.34542
2266.302, 28.30796
2268.231, 28.40320
2270.159, 27.72349
2272.088, 26.99624
2274.016, 27.45954
2275.945, 27.73814
2277.873, 27.46142
2279.802, 26.99412
2281.730, 26.56661
2283.659, 26.17321
2285.587, 26.82681
2287.516, 27.48337
2289.444, 26.60931
2291.373, 25.97065
2293.301, 25.80675
2295.229, 26.02964
2297.158, 26.11818
2299.086, 25.53192
2301.015, 24.67646
2302.943, 24.22062
2304.872, 24.11773
2306.800, 24.05633
2308.729, 23.92224
2310.657, 24.06189
2312.586, 23.86358
2314.514, 22.91324
2316.443, 22.78098
2318.371, 22.89914
2320.300, 22.75838
2322.228, 22.82375
2324.156, 23.05374
2326.085, 23.02567
2328.013, 22.64203
2329.942, 22.30029
2331.870, 22.32527
2333.799, 22.13627
2335.727, 21.85277
2337.656, 21.51064
2339.584, 21.21023
2341.513, 21.62743
2343.441, 21.49956
2345.370, 20.71431
2347.298, 20.25276
2349.227, 20.11877
2351.155, 20.27517
2353.083, 19.95869
2355.012, 19.72924
2356.940, 20.07069
2358.869, 20.24373
2360.797, 20.16902
2362.726, 19.90175
2364.654, 19.78587
2366.583, 19.70231
2368.511, 19.78822
2370.440, 19.95000
2372.368, 20.05099
2374.297, 19.86155
2376.225, 19.63312
2378.154, 19.76929
2380.082, 19.20381
2382.010, 18.56188
2383.939, 19.17288
2385.867, 19.51403
2387.796, 19.31391
2389.724, 19.38243
2391.653, 19.26942
2393.581, 18.89646
2395.510, 19.01341
2397.438, 19.09116
2399.367, 19.35351
2401.295, 19.11541
2403.224, 18.41394
2405.152, 18.38162
2407.081, 18.70129
2409.009, 19.00286
2410.938, 19.04588
2412.866, 18.94484
2414.794, 18.51455
2416.723, 18.87138
2418.651, 19.27940
2420.580, 19.09923
2422.508, 18.80369
2424.437, 18.50767
2426.365, 18.54297
2428.294, 18.53903
2430.222, 18.67219
2432.151, 18.74915
2434.079, 18.61180
2436.008, 18.60351
2437.936, 18.56901
2439.865, 18.48152
2441.793, 18.42304
2443.721, 17.79489
2445.650, 17.29232
2447.578, 17.24779
2449.507, 17.19447
2451.435, 17.27909
2453.364, 17.19385
2455.292, 16.71558
2457.221, 16.39975
2459.149, 16.41131
2461.078, 16.62213
2463.006, 16.87120
2464.935, 16.93741
2466.863, 16.75969
2468.792, 16.32891
2470.720, 16.18964
2472.648, 16.25937
2474.577, 16.19299
2476.505, 15.28481
2478.434, 15.03464
2480.362, 15.79530
2482.291, 15.80689
2484.219, 15.82254
2486.148, 15.50174
2488.076, 15.30414
2490.005, 15.17976
2491.933, 15.28550
2493.862, 15.18008
2495.790, 14.94814
2497.719, 15.09216
2499.647, 15.11190
2501.575, 14.90569
2503.504, 14.81434
2505.432, 14.66314
2507.361, 14.31153
2509.289, 14.09965
2511.218, 14.32436
2513.146, 14.55117
2515.075, 14.21009
2517.003, 13.99745
2518.932, 13.92464
2520.860, 13.75582
2522.789, 13.75227
2524.717, 13.86053
2526.646, 13.60954
2528.574, 13.44511
2530.502, 13.40716
2532.431, 13.22474
2534.359, 12.97207
2536.288, 12.65802
2538.216, 13.03208
2540.145, 13.36844
2542.073, 13.68626
2544.002, 13.60522
2545.930, 13.19060
2547.859, 13.22645
2549.787, 13.39058
2551.716, 13.63821
2553.644, 13.01104
2555.573, 12.64217
2557.501, 12.90926
2559.429, 13.38640
2561.358, 13.23930
2563.286, 12.90349
2565.215, 13.19659
2567.143, 13.15484
2569.072, 12.82885
2571.000, 13.18685
2572.929, 13.26239
2574.857, 13.03594
2576.786, 12.77626
2578.714, 12.73305
2580.643, 12.94190
2582.571, 13.16480
2584.500, 12.91252
2586.428, 12.18987
2588.356, 12.04893
2590.285, 12.23437
2592.213, 12.45445
2594.142, 12.41393
2596.070, 12.20679
2597.999, 12.12247
2599.927, 12.12821
2601.856, 12.13334
2603.784, 12.15351
2605.713, 12.49719
2607.641, 12.79896
2609.570, 12.38172
2611.498, 11.62760
2613.427, 11.47776
2615.355, 11.92684
2617.283, 11.63712
2619.212, 11.35655
2621.140, 11.35833
2623.069, 11.44084
2624.997, 11.50128
2626.926, 11.54453
2628.854, 11.94779
2630.783, 12.01113
2632.711, 11.38225
2634.640, 11.51687
2636.568, 11.49973
2638.497, 11.19348
2640.425, 11.18217
2642.354, 11.13048
2644.282, 11.18537
2646.210, 11.40520
2648.139, 11.28693
2650.067, 10.83852
2651.996, 10.75289
2653.924, 10.73062
2655.853, 10.66815
2657.781, 10.41052
2659.710, 10.35649
2661.638, 10.44265
2663.567, 10.41863
2665.495, 10.52847
2667.424, 10.70007
2669.352, 10.68155
2671.281, 10.38411
2673.209, 10.31527
2675.137, 10.41773
2677.066, 10.44677
2678.994, 10.48226
2680.923, 10.45351
2682.851, 10.38645
2684.780, 10.14379
2686.708, 9.909861
2688.637, 10.00110
2690.565, 10.31343
2692.494, 10.73446
2694.422, 10.76594
2696.351, 10.56260
2698.279, 10.19792
2700.208, 10.47565
2702.136, 10.86263
2704.064, 10.62060
2705.993, 10.16756
2707.921, 10.01727
2709.850, 10.16961
2711.778, 9.856974
2713.707, 9.728130
2715.635, 9.838848
2717.564, 9.639235
2719.492, 9.870453
2721.421, 10.18064
2723.349, 9.278627
2725.278, 9.125239
2727.206, 9.536906
2729.135, 9.401056
2731.063, 9.505306
2732.991, 9.575976
2734.920, 9.000698
2736.848, 9.045453
2738.777, 9.146839
2740.705, 8.865528
2742.634, 9.161932
2744.562, 9.254219
2746.491, 8.530721
2748.419, 8.688240
2750.348, 8.854306
2752.276, 8.578452
2754.205, 8.896055
2756.133, 9.139483
2758.062, 8.949068
2759.990, 8.706737
2761.918, 8.514366
2763.847, 8.591383
2765.775, 8.457917
2767.704, 8.533857
2769.632, 8.801825
2771.561, 8.597982
2773.489, 8.331700
2775.418, 8.159762
2777.346, 8.445254
2779.275, 8.402987
2781.203, 8.261888
2783.132, 8.498352
2785.060, 8.445904
2786.989, 7.994121
2788.917, 7.467050
2790.845, 7.647524
2792.774, 7.730156
2794.702, 7.386151
2796.631, 7.382582
2798.559, 7.829102
2800.488, 7.912286
2802.416, 7.185713
2804.345, 7.220749
2806.273, 7.399673
2808.202, 7.283635
2810.130, 7.521334
2812.059, 7.318830
2813.987, 6.742576
2815.916, 7.021717
2817.844, 7.472692
2819.772, 7.521812
2821.701, 6.973193
2823.629, 6.979211
2825.558, 7.301309
2827.486, 7.433713
2829.415, 7.247157
2831.343, 7.191823
2833.272, 7.406481
2835.200, 7.350980
2837.129, 7.331286
2839.057, 7.118845
2840.986, 6.849673
2842.914, 7.150963
2844.843, 7.438675
2846.771, 7.588782
2848.699, 7.108011
2850.628, 6.757670
2852.556, 7.481477
2854.485, 7.238622
2856.413, 6.873761
2858.342, 6.688960
2860.270, 6.841481
2862.199, 6.816303
2864.127, 6.816319
2866.056, 7.024450
2867.984, 6.890972
2869.913, 6.918901
2871.841, 6.811842
2873.770, 6.452377
2875.698, 6.650952
2877.626, 7.015498
2879.555, 7.131545
2881.483, 6.591715
2883.412, 6.193463
2885.340, 6.696105
2887.269, 6.554738
2889.197, 6.242297
2891.126, 6.394241
2893.054, 6.761729
2894.983, 6.832456
2896.911, 6.798017
2898.840, 6.829576
2900.768, 6.987959
2902.697, 6.896778
2904.625, 6.656436
2906.553, 6.684970
2908.482, 6.601683
2910.410, 6.617624
2912.339, 6.848451
2914.267, 6.666093
2916.196, 6.272477
2918.124, 6.391353
2920.053, 6.297647
2921.981, 5.888175
2923.910, 5.742459
2925.838, 6.185700
2927.767, 6.317795
2929.695, 6.068060
2931.624, 5.612838
2933.552, 5.768330
2935.480, 5.913840
2937.409, 5.384960
2939.337, 5.188885
2941.266, 5.209374
2943.194, 5.232488
2945.123, 4.945580
2947.051, 5.161238
2948.980, 5.408674
2950.908, 5.361009
2952.837, 5.698336
2954.765, 5.304186
2956.694, 4.428110
2958.622, 4.839074
2960.551, 4.940185
2962.479, 4.821950
2964.407, 5.028475
2966.336, 5.176721
2968.264, 5.207513
2970.193, 5.436948
2972.121, 5.582860
2974.050, 5.270068
2975.978, 4.883399
2977.907, 4.768499
2979.835, 4.913899
2981.764, 5.113161
2983.692, 5.236935
2985.621, 4.695803
2987.549, 4.544454
2989.478, 4.699294
2991.406, 5.231246
2993.334, 4.954670
2995.263, 4.381633
2997.191, 4.126180
2999.120, 4.863292
3001.048, 4.563641
3002.977, 4.338998
3004.905, 4.778069
3006.834, 4.598932
3008.762, 4.801438
3010.691, 4.875211
3012.619, 3.812739
3014.548, 3.798115
3016.476, 3.956115
3018.405, 3.828539
3020.333, 3.925147
3022.261, 4.098505
3024.190, 4.461868
3026.118, 4.580796
3028.047, 4.576817
3029.975, 4.574605
3031.904, 4.439763
3033.832, 4.519136
3035.761, 4.843672
3037.689, 4.917772
3039.618, 4.767327
3041.546, 4.360786
3043.475, 4.530557
3045.403, 4.965131
3047.332, 4.479496
3049.260, 4.838481
3051.188, 4.916636
3053.117, 4.547332
3055.045, 4.819023
3056.974, 4.903274
3058.902, 4.709019
3060.831, 4.388431
3062.759, 4.445179
3064.688, 4.102141
3066.616, 4.020720
3068.545, 4.342891
3070.473, 4.407930
3072.402, 4.408458
3074.330, 4.175469
3076.259, 3.884928
3078.187, 3.406425
3080.115, 3.595795
3082.044, 4.171639
3083.972, 3.728869
3085.901, 3.357404
3087.829, 3.436916
3089.758, 3.593596
3091.686, 3.418702
3093.615, 3.576327
3095.543, 3.853148
3097.472, 4.118545
3099.400, 3.834444
3101.329, 3.993973
3103.257, 4.445277
3105.186, 4.298545
3107.114, 3.601081
3109.042, 3.528757
3110.971, 3.981444
3112.899, 3.953524
3114.828, 3.995204
3116.756, 4.107289
3118.685, 4.591059
3120.613, 4.388579
3122.542, 4.109744
3124.470, 3.920749
3126.399, 3.874005
3128.327, 4.135768
3130.256, 3.661891
3132.184, 3.513134
3134.113, 3.839006
3136.041, 4.303564
3137.969, 4.097208
3139.898, 3.407583
3141.826, 2.939043
3143.755, 3.577717
3145.683, 3.790955
3147.612, 3.407732
3149.540, 2.692100
3151.469, 3.171360
3153.397, 3.124176
3155.326, 3.508458
3157.254, 8.023115
3159.183, 5.684599
3161.111, 3.323386
3163.040, 3.172813
3164.968, 3.853871
3166.896, 3.556703
3168.825, 3.233947
3170.753, 3.240653
3172.682, 3.227347
3174.610, 3.090479
3176.539, 2.992164
3178.467, 3.146405
3180.396, 3.938883
3182.324, 3.908256
3184.253, 3.606131
3186.181, 3.418624
3188.110, 4.010115
3190.038, 4.156578
3191.967, 3.961893
3193.895, 3.487276
3195.823, 3.660020
3197.752, 3.902836
3199.680, 3.547489
3201.609, 3.016400
3203.537, 2.997510
3205.466, 2.980976
3207.394, 3.123774
3209.323, 3.149634
3211.251, 2.925068
3213.180, 3.081504
3215.108, 3.109205
3217.037, 3.031613
3218.965, 2.717780
3220.894, 2.509408
3222.822, 2.623435
3224.750, 2.744527
3226.679, 2.668177
3228.607, 2.901519
3230.536, 2.828625
3232.464, 2.481529
3234.393, 2.141466
3236.321, 2.849397
3238.250, 3.010266
3240.178, 2.786438
3242.107, 3.443458
3244.035, 3.176705
3245.964, 3.070312
3247.892, 3.098567
3249.821, 2.964918
3251.749, 3.105146
3253.677, 3.460288
3255.606, 3.592335
3257.534, 3.576230
3259.463, 3.258004
3261.391, 3.093322
3263.320, 3.382671
3265.248, 4.123894
3267.177, 3.526376
3269.105, 3.181503
3271.034, 3.204874
3272.962, 3.313776
3274.891, 3.284889
3276.819, 3.088360
3278.748, 3.194897
3280.676, 3.422828
3282.604, 3.010487
3284.533, 3.020675
3286.461, 2.502748
3288.390, 1.968799
3290.318, 2.689132
3292.247, 2.947149
3294.175, 2.664083
3296.104, 2.240123
3298.032, 2.065574
3299.961, 2.356840
3301.889, 2.518926
3303.818, 2.620043
3305.746, 2.669509
3307.675, 2.303751
3309.603, 3.093663
3311.531, 3.474174
3313.460, 3.136931
3315.388, 2.762404
3317.317, 3.445567
3319.245, 3.559947
3321.174, 3.126746
3323.102, 2.917084
3325.031, 3.716311
3326.959, 3.551389
3328.888, 3.297548
3330.816, 3.645199
3332.745, 3.558636
3334.673, 3.827227
3336.602, 3.773096
3338.530, 3.447400
3340.458, 3.369339
3342.387, 3.213470
3344.315, 3.202104
3346.244, 3.194446
3348.172, 2.935767
3350.101, 2.419020
3352.029, 2.743404
3353.958, 2.490564
3355.886, 1.815303
3357.815, 2.324669
3359.743, 2.647341
3361.672, 2.503942
3363.600, 2.188989
3365.529, 2.039448
3367.457, 1.978182
3369.385, 1.995957
3371.314, 2.148017
3373.242, 2.343483
3375.171, 2.200219
3377.099, 1.889274
3379.028, 2.399581
3380.956, 2.779940
3382.885, 2.311332
3384.813, 3.207592
3386.742, 2.642286
3388.670, 2.404505
3390.599, 2.984795
3392.527, 3.535739
3394.456, 3.124884
3396.384, 3.341847
3398.313, 3.365267
3400.241, 2.742359
3402.169, 2.937703
3404.098, 3.508515
3406.026, 3.811351
3407.955, 3.656715
3409.883, 3.169925
3411.812, 2.882719
3413.740, 3.212950
3415.669, 3.590281
3417.597, 3.535170
3419.526, 2.851665
3421.454, 2.474430
3423.383, 2.083060
3425.311, 1.989402
3427.240, 2.348301
3429.168, 2.421927
3431.096, 2.630264
3433.025, 2.385972
3434.953, 2.008252
3436.882, 2.081236
3438.810, 2.672937
3440.739, 3.027777
3442.667, 3.174914
3444.596, 2.946350
3446.524, 2.066014
3448.453, 2.611661
3450.381, 2.710156
3452.310, 2.447886
3454.238, 2.248195
3456.167, 2.462618
3458.095, 2.813636
3460.023, 2.916434
3461.952, 2.915226
3463.880, 3.074916
3465.809, 3.694018
3467.737, 4.615082
3469.666, 3.510884
3471.594, 2.564548
3473.523, 3.253992
3475.451, 2.549980
3477.380, 3.449602
3479.308, 3.194359
3481.237, 2.423099
3483.165, 2.515123
3485.094, 2.906043
3487.022, 2.867705
3488.950, 2.480547
3490.879, 2.023764
3492.807, 1.756919
3494.736, 1.850170
3496.664, 2.118977
3498.593, 2.093612
3500.521, 1.919506
3502.450, 1.876027
3504.378, 1.788818
3506.307, 1.757828
3508.235, 1.557363
3510.164, 1.633526
3512.092, 2.166054
3514.021, 1.532479
3515.949, 2.176004
3517.877, 1.970242
3519.806, 1.866527
3521.734, 2.866881
3523.663, 2.487588
3525.591, 2.355573
3527.520, 2.831324
3529.448, 3.030176
3531.377, 2.592957
3533.305, 2.872801
3535.234, 3.232512
3537.162, 3.139184
3539.091, 3.065962
3541.019, 3.203937
3542.948, 3.072544
3544.876, 3.614284
3546.804, 3.082384
3548.733, 2.888987
3550.661, 3.145957
3552.590, 2.509073
3554.518, 2.455863
3556.447, 2.583228
3558.375, 2.715225
3560.304, 2.707318
3562.232, 2.490970
3564.161, 2.376986
3566.089, 1.715374
3568.018, 1.337914
3569.946, 1.530738
3571.875, 1.986469
3573.803, 1.814477
3575.731, 2.335466
3577.660, 2.051267
3579.588, 1.899841
3581.517, 2.131557
3583.445, 1.641351
3585.374, 2.249704
3587.302, 1.856663
3589.231, 1.885633
3591.159, 2.269039
3593.088, 2.172739
3595.016, 2.377418
3596.945, 2.289688
3598.873, 2.315784
3600.802, 2.844978
3602.730, 3.462493
3604.658, 2.900399
3606.587, 2.254362
3608.515, 2.781293
3610.444, 3.329505
3612.372, 3.572420
3614.301, 3.697885
3616.229, 2.957484
3618.158, 2.930640
3620.086, 3.136549
3622.015, 3.226022
3623.943, 3.060476
3625.872, 2.677241
3627.800, 2.988680
3629.729, 2.927916
3631.657, 2.569129
3633.585, 2.572206
3635.514, 2.895983
3637.442, 1.861640
3639.371, 1.590860
3641.299, 2.031146
3643.228, 2.034209
3645.156, 1.679517
3647.085, 1.690374
3649.013, 1.702063
3650.942, 1.780771
3652.870, 1.717278
3654.799, 1.767052
3656.727, 1.941859
3658.656, 1.992390
3660.584, 2.791906
3662.512, 2.389376
3664.441, 2.222558
3666.369, 2.389760
3668.298, 2.615894
3670.226, 2.926225
3672.155, 3.087552
3674.083, 2.835046
3676.012, 2.572277
3677.940, 2.777163
3679.869, 3.217410
3681.797, 3.036561
3683.726, 2.509702
3685.654, 3.114735
3687.583, 2.863995
3689.511, 2.184797
3691.439, 2.086805
3693.368, 2.516100
3695.296, 2.311487
3697.225, 2.681948
3699.153, 2.510701
3701.082, 1.908490
3703.010, 1.535743
3704.939, 1.736871
3706.867, 1.754793
3708.796, 1.504192
3710.724, 1.195102
3712.653, 1.452473
3714.581, 1.939632
3716.510, 1.586112
3718.438, 1.424504
3720.366, 1.738312
3722.295, 1.603887
3724.223, 1.350664
3726.152, 1.135835
3728.080, 0.9362366
3730.009, 1.676669
3731.937, 1.307587
3733.866, 1.739856
3735.794, 2.244547
3737.723, 2.121023
3739.651, 1.817577
3741.580, 2.650314
3743.508, 2.644136
3745.437, 2.481988
3747.365, 2.998569
3749.293, 2.662369
3751.222, 1.683571
3753.150, 2.060759
3755.079, 2.526075
3757.007, 2.522805
3758.936, 2.266431
3760.864, 2.443122
3762.793, 2.553603
3764.721, 2.060729
3766.650, 1.700557
3768.578, 1.912049
3770.507, 2.557606
3772.435, 1.945774
3774.364, 1.296646
3776.292, 1.475131
3778.220, 1.849728
3780.149, 1.958069
3782.077, 1.896424
3784.006, 1.889210
3785.934, 1.638062
3787.863, 1.607586
3789.791, 1.714732
3791.720, 1.138812
3793.648, 2.126758
3795.577, 2.016219
3797.505, 1.864408
3799.434, 1.796455
3801.362, 1.921166
3803.291, 2.196732
3805.219, 2.243969
3807.147, 2.790235
3809.076, 2.491196
3811.004, 2.433901
3812.933, 2.595118
3814.861, 2.792660
3816.790, 2.820557
3818.718, 2.416534
3820.647, 2.441813
3822.575, 2.547694
3824.504, 1.918462
3826.432, 2.009768
3828.361, 2.272740
3830.289, 1.963512
3832.218, 1.871808
3834.146, 1.600626
3836.074, 1.398843
3838.003, 1.223259
3839.931, 1.160239
3841.860, 1.350628
3843.788, 1.555977
3845.717, 1.335049
3847.645, 1.344043
3849.574, 1.312479
3851.502, 1.381791
3853.431, 1.404794
3855.359, 1.123390
3857.288, 0.7956542
3859.216, 0.9901646
3861.145, 1.773594
3863.073, 2.330427
3865.001, 1.958588
3866.930, 1.791986
3868.858, 2.136000
3870.787, 2.207921
3872.715, 2.075007
3874.644, 2.755259
3876.572, 2.981519
3878.501, 2.710188
3880.429, 2.474604
3882.358, 3.001500
3884.286, 3.198427
3886.215, 2.806001
3888.143, 2.567316
3890.072, 2.881798
3892.000, 2.674755
3893.928, 2.152399
3895.857, 2.230499
3897.785, 2.155409
3899.714, 1.521611
3901.642, 1.242597
3903.571, 1.754711
3905.499, 1.402655
3907.428, 1.299543
3909.356, 1.578392
3911.285, 1.548183
3913.213, 1.133105
3915.142, 1.034533
3917.070, 1.341792
3918.999, 1.378809
3920.927, 0.8465829
3922.855, 1.456901
3924.784, 1.342295
3926.712, 1.233571
3928.641, 1.180761
3930.569, 1.261456
3932.498, 1.613834
3934.426, 2.130360
3936.355, 2.302338
3938.283, 1.168824
3940.212, 1.014762
3942.140, 2.657899
3944.069, 2.758171
3945.997, 2.496920
3947.926, 2.240406
3949.854, 2.070403
3951.782, 2.557577
3953.711, 3.289701
3955.639, 2.441960
3957.568, 2.490972
3959.496, 2.507305
3961.425, 2.654908
3963.353, 2.084137
3965.282, 1.372503
3967.210, 1.419253
3969.139, 1.809770
3971.067, 1.796259
3972.996, 1.214224
3974.924, 1.136227
3976.853, 1.229785
3978.781, 0.9885272
3980.709, 1.240406
3982.638, 1.324397
3984.566, 1.157177
3986.495, 0.8833224
3988.423, 1.024961
3990.352, 0.7231035
3992.280, 1.218095
3994.209, 1.685817
3996.137, 1.668584
3998.066, 1.616871
3999.994, 1.997956
4001.923, 2.034915
4003.851, 1.691359
4005.780, 1.754005
4007.708, 1.914845
4009.636, 0.7663289
4011.565, 1.385604
4013.493, 0.5222313
4015.422, 1.763769
4017.350, 1.582474
4019.279, 0.8349680
4021.207, 0.9324164
4023.136, 1.302524
4025.064, 1.190634
4026.993, 0.7963843
4028.921, 0.2901459
4030.850, 0.7585725
4032.778, 1.059017
4034.707, 0.5907525
4036.635, 0.1767372
4038.563, 0.6868500
4040.492, 0.6546363
4042.420, 0.1457866
4044.349, 0.4405163
4046.277, 1.061951
4048.206, 0.4066028
4050.134, 1.237018
4052.063, 0.6293925
4053.991, 1.363234
4055.920, 1.222302
4057.848, 0.4883835
4059.777, 0.6593679
4061.705, 1.411808
4063.634, 1.626455
4065.562, 1.211344
4067.490, 0.8546950
4069.419, 1.051290
4071.347, 1.534052
4073.276, 1.752846
4075.204, 1.609617
4077.133, 1.788220
4079.061, 1.336880
4080.990, 0.9830378
4082.918, 1.176170
4084.847, 1.092019
4086.775, 0.5226945
4088.704, 0.4981799
4090.632, 1.423761
4092.561, 1.226622
4094.489, 0.7502197
4096.417, 0.8449302
4098.346, 0.6326960
4100.274, 0.1661175
4102.203, 0.1480242
4104.131, 0.2510630
4106.060, 0.1807456
4107.988, 0.4615352
4109.917, 0.5119425
4111.845, 0.4349509
4113.774, 1.050095
4115.702, 0.8425677
4117.631, 0.9103540
4119.559, 1.146475
4121.488, 0.9981514
4123.416, 1.136537
4125.345, 1.157330
4127.273, 1.233854
4129.202, 1.930825
4131.130, 2.115275
4133.059, 1.561010
4134.987, 1.735460
4136.916, 1.170324
4138.844, 2.332419
4140.772, 1.390973
4142.701, 1.713757
4144.629, 1.956939
4146.558, 1.460695
4148.486, 1.213928
4150.415, 0.9922577
4152.343, 0.6670303
4154.271, 0.8239335
4156.200, 0.7551281
4158.128, 1.332528
4160.057, 0.4664696
4161.985, 0.8195931
4163.914, 0.6012790
4165.842, 1.112757
4167.771, 0.3463524
4169.699, 0.1798029
4171.628, 0.3716401
4173.556, 0.6018834
4175.485, 0.5946678
4177.413, 0.7586846
4179.342, 1.292302
4181.270, 0.8356962
4183.199, 0.3702466
4185.127, 0.7085932
4187.056, 0.2516650
4188.984, 1.130990
4190.913, 1.164252
4192.841, 0.6933331
4194.770, 0.8040619
4196.698, 1.052861
4198.626, 1.139606
4200.555, 1.379333
4202.483, 1.535340
4204.412, 1.328019
4206.340, 0.9117944
4208.269, 0.6719576
4210.197, 0.8033335
4212.125, 0.3881012
4214.054, 1.076527
4215.982, 0.2546097
4217.911, 0.8339086
4219.839, 0.2506196
4221.768, 0.3192179
4223.696, 0.9228646
4225.625, 0.9440898
4227.553, 0.5670201
4229.482, 1.032676
4231.410, 0.7858481
4233.339, 0.5970767
4235.267, 0.3885654
4237.196, 0.2118244
4239.124, 1.480136
4241.053, 0.6701446
4242.981, 0.5395821
4244.910, 1.001946
4246.838, 0.8439462
4248.767, 0.5876309
4250.695, 1.173115
4252.624, 1.421952
4254.552, 1.314408
4256.480, 0.9647182
4258.409, 1.028173
4260.337, 1.018059
4262.266, 1.193019
4264.194, 1.228891
4266.123, 1.035217
4268.051, 0.6309372
4269.979, 0.2328620
4271.908, 0.2368915
4273.836, 0.5377892
4275.765, 1.018954
4277.693, 1.248929
4279.622, 0.4300728
4281.550, -0.1799356
4283.479, 5.9045270E-02
4285.407, 1.099013
4287.336, -0.2962230
4289.264, 7.0225030E-02
4291.193, 0.2812448
4293.121, 0.1700507
4295.050, -0.3453494
4296.978, 0.4501835
4298.907, 0.2761436
4300.835, 0.4111566
4302.764, 0.4779276
4304.692, 0.3370911
4306.621, 0.3114526
4308.549, 0.7168566
4310.478, 0.6849144
4312.406, 0.4219029
4314.334, 0.8662627
4316.263, 0.3865274
4318.191, 0.7312037
4320.120, 1.110357
4322.048, 1.045885
4323.977, 0.2904265
4325.905, 0.8390536
4327.833, 1.438811
4329.762, 0.9065781
4331.690, 0.7608687
##END=



