##NAMES=Leucophosphite
##RRUFFID=R080126
##IDEAL CHEMISTRY=KFe^3+^_2_(PO_4_)_2_(OH)·2H_2_O
##LOCALITY=Tip Top mine, Custer County, South Dakota, USA
##OWNER=RRUFF
##SOURCE=Thomas A. Loomis
##DESCRIPTION=Violet subhedral crystals on a matrix of rockbridgeite and associated with pale yellow acicular segelerite (R080127).
##STATUS=The identification of this mineral has been confirmed by single-crystal X-ray diffraction
##URL=https://www.rruff.net/odr/rruff_sample/R080126
##DIFFRACTION SAMPLE DESCRIPTION=Single crystal, powder profile is calculated
##CELL PARAMETERS=a: 9.755 b: 9.668 c: 9.778 alpha: 90 beta: 102.41 gamma: 90 volume: 900.5 crystal system: monoclinic
##FILETYPE=Raman Processed
##RAMAN WAVELENGTH=532

137.0576, 2546.375
138.9861, 2593.554
140.9146, 2623.483
142.8430, 2642.078
144.7715, 2665.194
146.7000, 2692.331
148.6284, 2724.879
150.5569, 2765.076
152.4854, 2816.223
154.4138, 2867.452
156.3423, 2920.879
158.2708, 2975.454
160.1992, 3017.501
162.1277, 3048.289
164.0562, 3067.666
165.9846, 3072.599
167.9131, 3062.456
169.8416, 3044.932
171.7700, 3020.152
173.6985, 2986.989
175.6270, 2960.007
177.5554, 2934.932
179.4839, 2918.142
181.4124, 2912.420
183.3408, 2918.901
185.2693, 2935.495
187.1978, 2963.930
189.1262, 3004.326
191.0547, 3043.206
192.9832, 3080.764
194.9116, 3115.376
196.8401, 3145.880
198.7686, 3160.667
200.6970, 3183.475
202.6255, 3219.929
204.5540, 3268.036
206.4824, 3318.100
208.4109, 3373.589
210.3394, 3428.423
212.2678, 3477.633
214.1963, 3521.139
216.1248, 3561.971
218.0532, 3604.057
219.9817, 3647.399
221.9102, 3673.377
223.8386, 3674.972
225.7671, 3664.930
227.6956, 3651.630
229.6240, 3634.569
231.5525, 3615.507
233.4810, 3593.031
235.4094, 3567.731
237.3379, 3550.096
239.2664, 3545.421
241.1948, 3545.657
243.1233, 3545.962
245.0518, 3549.168
246.9802, 3546.519
248.9087, 3536.334
250.8372, 3518.878
252.7656, 3494.625
254.6941, 3456.643
256.6226, 3418.094
258.5510, 3386.159
260.4795, 3360.913
262.4080, 3344.067
264.3364, 3337.263
266.2649, 3339.801
268.1934, 3349.826
270.1218, 3371.355
272.0503, 3396.216
273.9788, 3423.425
275.9072, 3453.657
277.8357, 3482.247
279.7642, 3504.193
281.6926, 3524.884
283.6211, 3549.738
285.5496, 3580.852
287.4780, 3615.235
289.4065, 3656.521
291.3350, 3703.131
293.2634, 3743.565
295.1919, 3776.626
297.1204, 3804.267
299.0488, 3821.674
300.9773, 3823.323
302.9058, 3820.588
304.8342, 3818.855
306.7627, 3816.197
308.6912, 3808.920
310.6196, 3793.154
312.5481, 3775.587
314.4766, 3760.136
316.4050, 3747.395
318.3335, 3734.886
320.2620, 3722.408
322.1904, 3708.216
324.1189, 3690.038
326.0474, 3665.417
327.9758, 3641.410
329.9043, 3619.820
331.8328, 3600.239
333.7612, 3579.243
335.6897, 3556.843
337.6182, 3532.808
339.5467, 3505.091
341.4751, 3470.861
343.4036, 3439.524
345.3321, 3414.607
347.2605, 3393.962
349.1890, 3372.602
351.1175, 3350.015
353.0459, 3329.424
354.9744, 3311.160
356.9029, 3294.327
358.8313, 3281.458
360.7598, 3276.262
362.6883, 3276.931
364.6167, 3280.124
366.5452, 3283.121
368.4737, 3289.654
370.4021, 3301.296
372.3306, 3317.276
374.2591, 3337.500
376.1875, 3362.348
378.1160, 3391.708
380.0445, 3425.906
381.9729, 3464.195
383.9014, 3507.620
385.8299, 3557.544
387.7583, 3610.823
389.6868, 3664.988
391.6153, 3723.177
393.5437, 3785.105
395.4722, 3848.896
397.4007, 3912.963
399.3291, 3973.651
401.2576, 4034.160
403.1861, 4091.076
405.1145, 4140.131
407.0430, 4179.610
408.9715, 4209.901
410.8999, 4229.552
412.8284, 4237.876
414.7569, 4233.998
416.6853, 4213.594
418.6138, 4179.187
420.5423, 4131.679
422.4707, 4071.304
424.3992, 4003.204
426.3277, 3928.693
428.2561, 3849.423
430.1846, 3766.940
432.1131, 3679.513
434.0415, 3593.162
435.9700, 3505.907
437.8985, 3418.006
439.8269, 3331.847
441.7554, 3249.771
443.6839, 3172.140
445.6123, 3098.012
447.5408, 3027.777
449.4693, 2967.442
451.3977, 2916.685
453.3262, 2873.837
455.2547, 2836.975
457.1831, 2805.920
459.1116, 2785.832
461.0401, 2776.117
462.9685, 2776.631
464.8970, 2787.995
466.8255, 2811.339
468.7539, 2838.240
470.6824, 2866.737
472.6109, 2896.141
474.5393, 2923.975
476.4678, 2945.811
478.3963, 2962.068
480.3247, 2971.924
482.2532, 2975.963
484.1817, 2975.039
486.1101, 2971.437
488.0386, 2963.750
489.9671, 2949.633
491.8955, 2930.013
493.8240, 2903.239
495.7525, 2868.455
497.6809, 2824.501
499.6094, 2771.088
501.5379, 2702.117
503.4663, 2628.178
505.3948, 2552.651
507.3233, 2479.258
509.2517, 2404.350
511.1802, 2327.371
513.1086, 2257.761
515.0371, 2198.633
516.9656, 2148.588
518.8940, 2101.867
520.8225, 2061.879
522.7510, 2027.701
524.6794, 1997.449
526.6079, 1965.387
528.5364, 1936.213
530.4648, 1911.435
532.3933, 1893.057
534.3218, 1884.130
536.2502, 1880.030
538.1787, 1882.222
540.1072, 1894.573
542.0356, 1917.366
543.9641, 1943.449
545.8926, 1969.524
547.8210, 1991.924
549.7495, 2010.303
551.6780, 2024.317
553.6064, 2033.336
555.5349, 2033.495
557.4634, 2029.398
559.3918, 2023.085
561.3203, 2016.530
563.2488, 2016.592
565.1772, 2022.965
567.1057, 2037.116
569.0342, 2060.667
570.9626, 2092.036
572.8911, 2130.083
574.8196, 2177.730
576.7480, 2234.736
578.6765, 2292.819
580.6050, 2349.593
582.5335, 2408.817
584.4620, 2468.005
586.3904, 2529.413
588.3189, 2604.030
590.2474, 2690.108
592.1758, 2789.646
594.1043, 2904.385
596.0328, 3039.052
597.9612, 3181.611
599.8897, 3341.386
601.8182, 3499.366
603.7466, 3651.005
605.6751, 3792.177
607.6036, 3906.811
609.5320, 3985.249
611.4605, 4035.859
613.3890, 4063.925
615.3174, 4070.259
617.2459, 4081.331
619.1744, 4101.088
621.1028, 4131.300
623.0313, 4167.503
624.9598, 4215.829
626.8882, 4252.256
628.8167, 4282.481
630.7452, 4289.842
632.6736, 4258.865
634.6021, 4183.047
636.5306, 4066.980
638.4590, 3899.157
640.3875, 3702.107
642.3160, 3501.161
644.2444, 3295.598
646.1729, 3108.701
648.1014, 2947.005
650.0298, 2807.184
651.9583, 2684.516
653.8868, 2584.693
655.8152, 2496.438
657.7437, 2417.365
659.6722, 2346.917
661.6006, 2276.257
663.5291, 2200.259
665.4576, 2126.484
667.3860, 2060.935
669.3145, 2001.239
671.2430, 1949.479
673.1714, 1907.182
675.0999, 1873.368
677.0284, 1847.777
678.9568, 1833.036
680.8853, 1817.920
682.8138, 1800.601
684.7422, 1786.009
686.6707, 1777.158
688.5992, 1774.432
690.5276, 1772.380
692.4561, 1770.226
694.3846, 1768.135
696.3130, 1765.344
698.2415, 1761.051
700.1700, 1758.046
702.0984, 1757.045
704.0269, 1756.751
705.9554, 1757.186
707.8839, 1759.564
709.8123, 1761.491
711.7408, 1762.582
713.6693, 1762.991
715.5977, 1762.423
717.5262, 1759.468
719.4547, 1758.969
721.3831, 1764.560
723.3116, 1773.134
725.2401, 1779.360
727.1685, 1781.193
729.0970, 1782.144
731.0255, 1782.674
732.9539, 1784.054
734.8824, 1785.153
736.8109, 1784.834
738.7393, 1786.088
740.6678, 1791.591
742.5963, 1799.605
744.5247, 1805.570
746.4532, 1808.375
748.3817, 1810.260
750.3101, 1810.831
752.2386, 1810.750
754.1671, 1811.992
756.0955, 1815.298
758.0240, 1818.880
759.9525, 1822.506
761.8809, 1826.030
763.8094, 1828.958
765.7379, 1829.258
767.6663, 1831.185
769.5948, 1837.789
771.5233, 1846.835
773.4517, 1850.434
775.3802, 1844.174
777.3087, 1838.881
779.2371, 1839.651
781.1656, 1845.286
783.0941, 1848.497
785.0225, 1848.097
786.9510, 1847.242
788.8795, 1846.678
790.8079, 1846.931
792.7364, 1847.889
794.6649, 1850.016
796.5933, 1851.959
798.5218, 1852.929
800.4503, 1853.092
802.3787, 1854.122
804.3072, 1855.619
806.2357, 1858.184
808.1641, 1863.092
810.0926, 1869.724
812.0211, 1874.115
813.9495, 1873.815
815.8780, 1874.373
817.8065, 1878.300
819.7349, 1885.648
821.6634, 1893.344
823.5919, 1901.601
825.5203, 1909.179
827.4488, 1915.827
829.3773, 1922.314
831.3057, 1928.105
833.2342, 1932.766
835.1627, 1936.255
837.0911, 1938.207
839.0196, 1939.764
840.9481, 1943.762
842.8765, 1954.803
844.8050, 1963.786
846.7335, 1965.445
848.6619, 1962.761
850.5904, 1966.401
852.5189, 1979.367
854.4473, 1991.995
856.3758, 1999.395
858.3043, 2003.777
860.2327, 2010.780
862.1612, 2022.876
864.0897, 2035.073
866.0181, 2045.969
867.9466, 2055.642
869.8751, 2064.504
871.8035, 2071.144
873.7320, 2077.890
875.6605, 2087.244
877.5889, 2097.665
879.5174, 2104.591
881.4459, 2106.021
883.3743, 2108.681
885.3028, 2116.127
887.2313, 2124.135
889.1597, 2127.658
891.0882, 2125.450
893.0167, 2122.840
894.9451, 2120.590
896.8736, 2119.939
898.8021, 2120.200
900.7305, 2120.543
902.6590, 2121.036
904.5875, 2120.514
906.5159, 2122.521
908.4444, 2129.748
910.3729, 2140.711
912.3013, 2151.710
914.2298, 2160.908
916.1583, 2173.490
918.0867, 2191.976
920.0152, 2215.788
921.9437, 2242.771
923.8721, 2271.779
925.8006, 2304.351
927.7291, 2341.427
929.6575, 2384.645
931.5860, 2436.352
933.5145, 2495.578
935.4429, 2562.810
937.3714, 2638.698
939.2999, 2724.867
941.2283, 2818.690
943.1568, 2920.799
945.0853, 3032.805
947.0137, 3155.100
948.9422, 3284.743
950.8707, 3415.638
952.7991, 3545.187
954.7276, 3683.399
956.6561, 3833.956
958.5845, 3997.844
960.5130, 4176.376
962.4415, 4360.128
964.3699, 4551.486
966.2984, 4752.642
968.2269, 4970.351
970.1553, 5203.413
972.0838, 5454.288
974.0123, 5705.229
975.9407, 5951.719
977.8692, 6191.532
979.7977, 6438.373
981.7261, 6686.007
983.6546, 6888.788
985.5831, 7045.408
987.5115, 7155.391
989.4400, 7204.142
991.3685, 7198.349
993.2969, 7158.995
995.2254, 7086.113
997.1539, 6991.853
999.0823, 6878.902
1001.011, 6753.024
1002.939, 6639.388
1004.868, 6539.483
1006.796, 6451.181
1008.725, 6374.939
1010.653, 6308.792
1012.582, 6247.197
1014.510, 6191.298
1016.439, 6139.538
1018.367, 6091.005
1020.295, 6050.595
1022.224, 6021.636
1024.152, 6000.914
1026.081, 5987.905
1028.009, 5985.774
1029.938, 5995.464
1031.866, 6012.016
1033.795, 6030.010
1035.723, 6047.551
1037.652, 6065.685
1039.580, 6080.088
1041.509, 6088.996
1043.437, 6085.583
1045.365, 6062.997
1047.294, 6020.546
1049.222, 5954.752
1051.151, 5865.104
1053.079, 5750.215
1055.008, 5606.509
1056.936, 5436.250
1058.865, 5250.595
1060.793, 5050.820
1062.722, 4842.224
1064.650, 4635.335
1066.579, 4432.611
1068.507, 4240.420
1070.436, 4056.607
1072.364, 3885.204
1074.292, 3732.023
1076.221, 3598.993
1078.150, 3485.501
1080.078, 3390.999
1082.006, 3309.001
1083.935, 3236.842
1085.863, 3177.532
1087.792, 3132.551
1089.720, 3103.893
1091.649, 3081.674
1093.577, 3062.918
1095.506, 3048.412
1097.434, 3036.356
1099.363, 3023.688
1101.291, 3013.284
1103.220, 3008.025
1105.148, 3005.184
1107.077, 2998.922
1109.005, 2984.760
1110.933, 2966.340
1112.862, 2948.314
1114.790, 2930.201
1116.719, 2911.155
1118.647, 2890.814
1120.576, 2876.419
1122.504, 2867.872
1124.433, 2867.418
1126.361, 2872.329
1128.290, 2877.835
1130.218, 2876.979
1132.147, 2869.058
1134.075, 2853.853
1136.004, 2835.653
1137.932, 2815.454
1139.860, 2794.173
1141.789, 2772.649
1143.717, 2751.742
1145.646, 2726.333
1147.574, 2700.215
1149.503, 2677.107
1151.431, 2659.164
1153.360, 2648.791
1155.288, 2643.970
1157.217, 2639.021
1159.145, 2636.162
1161.074, 2638.626
1163.002, 2647.858
1164.931, 2664.128
1166.859, 2678.744
1168.787, 2688.618
1170.716, 2696.466
1172.644, 2702.104
1174.573, 2704.990
1176.501, 2704.109
1178.430, 2703.380
1180.358, 2693.239
1182.287, 2669.419
1184.215, 2635.049
1186.144, 2598.920
1188.072, 2559.352
1190.001, 2525.424
1191.929, 2501.537
1193.858, 2481.601
1195.786, 2460.771
1197.714, 2439.513
1199.643, 2420.491
1201.571, 2403.114
1203.500, 2389.189
1205.428, 2381.665
1207.357, 2378.816
1209.285, 2372.615
1211.214, 2358.466
1213.142, 2344.342
1215.071, 2336.169
1216.999, 2333.275
1218.928, 2332.418
1220.856, 2332.907
1222.785, 2330.400
1224.713, 2321.612
1226.641, 2313.916
1228.570, 2310.845
1230.498, 2310.831
1232.427, 2311.556
1234.355, 2313.214
1236.284, 2312.895
1238.212, 2307.728
1240.141, 2305.233
1242.069, 2308.484
1243.998, 2316.358
1245.926, 2321.323
1247.855, 2321.959
1249.783, 2321.219
1251.712, 2318.314
1253.640, 2315.473
1255.568, 2315.138
1257.497, 2318.049
1259.425, 2319.922
1261.354, 2322.309
1263.282, 2322.331
1265.211, 2316.722
1267.139, 2307.969
1269.068, 2302.783
1270.996, 2302.174
1272.925, 2302.107
1274.853, 2302.328
1276.782, 2302.721
1278.710, 2301.256
1280.639, 2298.018
1282.567, 2297.563
1284.495, 2301.916
1286.424, 2306.015
1288.352, 2307.151
1290.281, 2306.579
1292.209, 2308.477
1294.138, 2315.875
1296.066, 2316.792
1297.995, 2302.901
1299.923, 2292.493
1301.852, 2295.030
1303.780, 2305.860
1305.709, 2313.056
1307.637, 2315.389
1309.566, 2317.134
1311.494, 2318.328
1313.422, 2320.452
1315.351, 2324.696
1317.279, 2329.243
1319.208, 2329.573
1321.136, 2324.006
1323.065, 2319.583
1324.993, 2318.677
1326.922, 2319.770
1328.850, 2322.191
1330.779, 2326.203
1332.707, 2330.508
1334.636, 2335.379
1336.564, 2339.373
1338.493, 2340.419
1340.421, 2341.618
1342.349, 2346.933
1344.278, 2358.100
1346.206, 2365.401
1348.135, 2366.532
1350.063, 2366.764
1351.992, 2367.824
1353.920, 2369.135
1355.849, 2369.959
1357.777, 2370.186
1359.706, 2372.017
1361.634, 2377.031
1363.563, 2382.428
1365.491, 2386.286
1367.420, 2389.268
1369.348, 2392.962
1371.276, 2397.532
1373.205, 2401.623
1375.133, 2405.166
1377.062, 2408.135
1378.990, 2408.930
1380.919, 2408.029
1382.847, 2410.922
1384.776, 2422.028
1386.704, 2429.386
1388.633, 2428.495
1390.561, 2425.920
1392.490, 2426.173
1394.418, 2429.294
1396.347, 2433.715
1398.275, 2441.365
1400.203, 2447.038
1402.132, 2449.288
1404.060, 2449.877
1405.989, 2449.928
1407.917, 2449.650
1409.846, 2449.752
1411.774, 2450.266
1413.703, 2451.384
1415.631, 2453.305
1417.560, 2455.830
1419.488, 2458.917
1421.417, 2462.621
1423.345, 2466.346
1425.274, 2468.950
1427.202, 2473.504
1429.130, 2484.282
1431.059, 2494.758
1432.987, 2498.374
1434.916, 2495.339
1436.844, 2494.909
1438.773, 2499.021
1440.701, 2502.863
1442.630, 2507.167
1444.558, 2510.271
1446.487, 2509.626
1448.415, 2505.312
1450.344, 2504.305
1452.272, 2508.026
1454.201, 2513.287
1456.129, 2521.812
1458.057, 2529.734
1459.986, 2531.201
1461.914, 2526.584
1463.843, 2529.656
1465.771, 2547.140
1467.700, 2558.495
1469.628, 2554.400
1471.557, 2548.488
1473.485, 2552.208
1475.414, 2562.445
1477.342, 2568.790
1479.271, 2570.218
1481.199, 2572.273
1483.128, 2577.029
1485.056, 2582.041
1486.984, 2586.428
1488.913, 2590.038
1490.841, 2590.037
1492.770, 2584.211
1494.698, 2582.629
1496.627, 2589.881
1498.555, 2599.345
1500.484, 2608.372
1502.412, 2616.081
1504.341, 2620.567
1506.269, 2620.810
1508.198, 2622.596
1510.126, 2628.647
1512.055, 2634.415
1513.983, 2637.696
1515.911, 2640.495
1517.840, 2644.911
1519.768, 2650.418
1521.697, 2654.956
1523.625, 2658.054
1525.554, 2661.627
1527.482, 2666.556
1529.411, 2671.197
1531.339, 2674.116
1533.268, 2675.371
1535.196, 2677.244
1537.125, 2679.698
1539.053, 2683.535
1540.982, 2687.827
1542.910, 2693.810
1544.839, 2703.960
1546.767, 2717.278
1548.695, 2726.796
1550.624, 2731.953
1552.552, 2735.634
1554.481, 2735.125
1556.409, 2735.362
1558.338, 2742.063
1560.266, 2752.598
1562.195, 2757.167
1564.123, 2753.976
1566.052, 2754.552
1567.980, 2762.197
1569.909, 2770.343
1571.837, 2777.558
1573.766, 2782.797
1575.694, 2782.916
1577.622, 2778.525
1579.551, 2780.089
1581.479, 2792.229
1583.408, 2801.834
1585.336, 2804.218
1587.265, 2804.526
1589.193, 2804.137
1591.122, 2804.479
1593.050, 2810.974
1594.979, 2824.381
1596.907, 2833.689
1598.836, 2834.896
1600.764, 2834.954
1602.693, 2835.900
1604.621, 2837.567
1606.549, 2841.002
1608.478, 2846.454
1610.406, 2850.483
1612.335, 2852.452
1614.263, 2853.891
1616.192, 2855.280
1618.120, 2857.452
1620.049, 2860.749
1621.977, 2865.215
1623.906, 2871.409
1625.834, 2879.781
1627.763, 2885.653
1629.691, 2884.740
1631.620, 2885.214
1633.548, 2892.770
1635.476, 2901.481
1637.405, 2903.866
1639.333, 2900.223
1641.262, 2897.760
1643.190, 2897.579
1645.119, 2897.605
1647.047, 2897.903
1648.976, 2897.669
1650.904, 2895.789
1652.833, 2892.995
1654.761, 2891.677
1656.690, 2887.938
1658.618, 2890.087
1660.547, 2881.215
1662.475, 2874.310
1664.403, 2871.760
1666.332, 2872.519
1668.260, 2876.623
1670.189, 2883.591
1672.117, 2890.694
1674.046, 2898.942
1675.974, 2902.702
1677.903, 2895.021
1679.831, 2889.300
1681.760, 2890.619
1683.688, 2895.148
1685.617, 2899.830
1687.545, 2904.757
1689.474, 2905.469
1691.402, 2899.643
1693.330, 2896.563
1695.259, 2899.946
1697.187, 2904.513
1699.116, 2908.388
1701.044, 2912.036
1702.973, 2915.908
1704.901, 2919.759
1706.830, 2923.428
1708.758, 2925.764
1710.687, 2928.877
1712.615, 2934.209
1714.544, 2938.565
1716.472, 2939.345
1718.401, 2938.515
1720.329, 2940.011
1722.257, 2944.457
1724.186, 2948.437
1726.114, 2952.790
1728.043, 2955.335
1729.971, 2952.409
1731.900, 2950.870
1733.828, 2955.939
1735.757, 2964.375
1737.685, 2969.877
1739.614, 2972.316
1741.542, 2973.898
1743.471, 2975.108
1745.399, 2975.914
1747.328, 2975.470
1749.256, 2976.244
1751.184, 2978.959
1753.113, 2983.768
1755.041, 2991.490
1756.970, 3001.878
1758.898, 3010.924
1760.827, 3018.769
1762.755, 3022.999
1764.684, 3020.853
1766.612, 3017.696
1768.541, 3017.544
1770.469, 3018.419
1772.398, 3015.316
1774.326, 3008.808
1776.255, 3009.120
1778.183, 3018.463
1780.111, 3029.196
1782.040, 3041.111
1783.968, 3051.119
1785.897, 3056.903
1787.825, 3059.930
1789.754, 3061.475
1791.682, 3061.742
1793.611, 3062.758
1795.539, 3065.015
1797.468, 3066.499
1799.396, 3066.351
1801.325, 3066.522
1803.253, 3068.762
1805.182, 3071.393
1807.110, 3072.928
1809.038, 3073.673
1810.967, 3073.896
1812.895, 3073.317
1814.824, 3075.323
1816.752, 3081.624
1818.681, 3087.780
1820.609, 3092.992
1822.538, 3096.646
1824.466, 3097.755
1826.395, 3097.228
1828.323, 3096.206
1830.252, 3094.728
1832.180, 3096.121
1834.109, 3101.693
1836.037, 3106.902
1837.965, 3110.445
1839.894, 3113.344
1841.822, 3115.448
1843.751, 3117.646
1845.679, 3121.415
1847.608, 3126.680
1849.536, 3131.456
1851.465, 3135.011
1853.393, 3140.997
1855.322, 3155.627
1857.250, 3164.137
1859.179, 3154.117
1861.107, 3144.344
1863.036, 3153.239
1864.964, 3171.250
1866.892, 3176.189
1868.821, 3166.053
1870.749, 3161.423
1872.678, 3166.108
1874.606, 3171.039
1876.535, 3176.999
1878.463, 3182.185
1880.392, 3186.285
1882.320, 3188.792
1884.249, 3186.815
1886.177, 3182.037
1888.106, 3183.432
1890.034, 3191.446
1891.963, 3199.364
1893.891, 3208.439
1895.819, 3213.377
1897.748, 3209.103
1899.676, 3206.354
1901.605, 3214.621
1903.533, 3225.093
1905.462, 3224.836
1907.390, 3217.562
1909.319, 3218.832
1911.247, 3229.743
1913.176, 3238.530
1915.104, 3242.948
1917.033, 3245.767
1918.961, 3245.311
1920.890, 3246.413
1922.818, 3252.542
1924.746, 3261.589
1926.675, 3272.341
1928.603, 3283.886
1930.532, 3290.179
1932.460, 3289.463
1934.389, 3291.738
1936.317, 3300.624
1938.246, 3308.467
1940.174, 3315.037
1942.103, 3319.100
1944.031, 3315.831
1945.960, 3312.520
1947.888, 3321.559
1949.817, 3340.184
1951.745, 3349.855
1953.673, 3346.964
1955.602, 3346.306
1957.530, 3348.948
1959.459, 3352.006
1961.387, 3354.765
1963.316, 3358.375
1965.244, 3365.006
1967.173, 3371.951
1969.101, 3376.693
1971.030, 3379.583
1972.958, 3381.156
1974.887, 3381.442
1976.815, 3380.120
1978.744, 3374.764
1980.672, 3376.645
1982.600, 3394.616
1984.529, 3408.894
1986.457, 3405.991
1988.386, 3399.747
1990.314, 3402.729
1992.243, 3409.995
1994.171, 3411.815
1996.100, 3408.586
1998.028, 3406.786
1999.957, 3407.276
2001.885, 3407.732
2003.814, 3404.289
2005.742, 3406.688
2007.671, 3425.417
2009.599, 3440.519
2011.527, 3437.027
2013.456, 3426.963
2015.384, 3424.657
2017.313, 3427.941
2019.241, 3427.841
2021.170, 3423.885
2023.098, 3424.690
2025.027, 3432.236
2026.955, 3438.101
2028.884, 3439.480
2030.812, 3441.643
2032.741, 3449.072
2034.669, 3455.745
2036.598, 3456.117
2038.526, 3454.277
2040.454, 3456.350
2042.383, 3461.188
2044.311, 3462.622
2046.240, 3459.325
2048.168, 3460.260
2050.097, 3466.515
2052.025, 3474.666
2053.954, 3488.361
2055.882, 3498.054
2057.811, 3497.844
2059.739, 3496.150
2061.667, 3500.743
2063.596, 3507.332
2065.525, 3509.161
2067.453, 3507.043
2069.382, 3503.642
2071.310, 3498.423
2073.239, 3498.020
2075.167, 3503.210
2077.095, 3509.551
2079.024, 3518.781
2080.952, 3522.540
2082.881, 3511.363
2084.809, 3501.389
2086.738, 3506.477
2088.666, 3517.107
2090.595, 3521.843
2092.523, 3522.432
2094.452, 3522.676
2096.380, 3521.901
2098.309, 3525.457
2100.237, 3535.839
2102.166, 3542.925
2104.094, 3543.700
2106.022, 3544.669
2107.951, 3547.429
2109.879, 3550.959
2111.808, 3555.927
2113.736, 3561.319
2115.665, 3568.115
2117.593, 3573.676
2119.522, 3570.729
2121.450, 3561.911
2123.379, 3560.309
2125.307, 3566.501
2127.236, 3572.664
2129.164, 3579.641
2131.093, 3583.485
2133.021, 3581.991
2134.949, 3580.626
2136.878, 3580.399
2138.806, 3581.323
2140.735, 3582.958
2142.663, 3585.464
2144.592, 3588.759
2146.520, 3592.906
2148.449, 3599.327
2150.377, 3607.537
2152.306, 3613.823
2154.234, 3618.435
2156.163, 3619.780
2158.091, 3616.056
2160.020, 3617.182
2161.948, 3630.019
2163.876, 3637.944
2165.805, 3631.486
2167.733, 3622.975
2169.662, 3616.356
2171.590, 3613.526
2173.519, 3618.635
2175.447, 3628.018
2177.376, 3634.404
2179.304, 3638.829
2181.233, 3648.377
2183.161, 3650.652
2185.090, 3653.466
2187.018, 3659.704
2188.947, 3657.318
2190.875, 3666.847
2192.803, 3673.553
2194.732, 3672.021
2196.660, 3669.810
2198.589, 3671.300
2200.517, 3672.613
2202.446, 3669.950
2204.374, 3666.611
2206.303, 3665.707
2208.231, 3667.053
2210.160, 3671.230
2212.088, 3673.499
2214.017, 3677.905
2215.945, 3683.505
2217.874, 3687.999
2219.802, 3696.531
2221.730, 3703.500
2223.659, 3707.022
2225.587, 3710.816
2227.516, 3717.648
2229.444, 3721.961
2231.373, 3718.770
2233.301, 3715.605
2235.230, 3719.681
2237.158, 3724.874
2239.087, 3722.771
2241.015, 3718.090
2242.944, 3720.456
2244.872, 3728.516
2246.801, 3735.971
2248.729, 3742.392
2250.657, 3739.621
2252.586, 3725.306
2254.514, 3721.639
2256.443, 3736.789
2258.371, 3746.086
2260.300, 3738.243
2262.228, 3733.342
2264.157, 3737.257
2266.085, 3744.469
2268.014, 3757.526
2269.942, 3767.416
2271.871, 3764.314
2273.799, 3757.286
2275.728, 3755.979
2277.656, 3759.161
2279.584, 3766.239
2281.513, 3775.297
2283.441, 3778.421
2285.370, 3775.475
2287.298, 3775.007
2289.227, 3776.761
2291.155, 3782.249
2293.084, 3796.448
2295.012, 3805.816
2296.941, 3809.054
2298.869, 3809.079
2300.798, 3802.937
2302.726, 3799.557
2304.655, 3805.911
2306.583, 3811.202
2308.511, 3805.803
2310.440, 3799.543
2312.368, 3802.096
2314.297, 3808.682
2316.225, 3814.127
2318.154, 3817.855
2320.082, 3815.644
2322.011, 3809.339
2323.939, 3815.280
2325.868, 3834.022
2327.796, 3841.888
2329.725, 3837.002
2331.653, 3833.770
2333.582, 3833.505
2335.510, 3833.902
2337.438, 3833.992
2339.367, 3835.332
2341.295, 3837.857
2343.224, 3842.488
2345.152, 3855.352
2347.081, 3863.155
2349.009, 3855.083
2350.938, 3845.194
2352.866, 3843.249
2354.795, 3844.538
2356.723, 3843.063
2358.652, 3842.620
2360.580, 3851.209
2362.509, 3864.137
2364.437, 3868.909
2366.365, 3867.115
2368.294, 3869.875
2370.222, 3877.585
2372.151, 3878.609
2374.079, 3871.172
2376.008, 3871.025
2377.936, 3881.404
2379.865, 3882.932
2381.793, 3868.750
2383.722, 3862.871
2385.650, 3875.352
2387.579, 3888.271
2389.507, 3898.344
2391.436, 3905.811
2393.364, 3909.811
2395.292, 3911.816
2397.221, 3908.284
2399.149, 3907.225
2401.078, 3917.876
2403.006, 3929.450
2404.935, 3931.102
2406.863, 3929.356
2408.792, 3935.209
2410.720, 3942.664
2412.649, 3936.377
2414.577, 3922.027
2416.506, 3919.967
2418.434, 3928.793
2420.363, 3936.355
2422.291, 3942.382
2424.219, 3945.462
2426.148, 3945.602
2428.076, 3938.156
2430.005, 3919.971
2431.933, 3912.725
2433.862, 3926.091
2435.790, 3936.489
2437.719, 3941.302
2439.647, 3944.699
2441.576, 3944.704
2443.504, 3947.390
2445.433, 3954.730
2447.361, 3963.285
2449.290, 3974.592
2451.218, 3982.082
2453.146, 3979.775
2455.075, 3976.133
2457.003, 3975.541
2458.932, 3977.230
2460.860, 3980.594
2462.789, 3985.977
2464.717, 3997.206
2466.646, 4007.979
2468.574, 4008.159
2470.503, 4003.228
2472.431, 4001.645
2474.360, 4002.682
2476.288, 4004.811
2478.217, 4007.807
2480.145, 4009.980
2482.073, 4011.437
2484.002, 4014.604
2485.930, 4019.208
2487.859, 4024.546
2489.787, 4030.329
2491.716, 4028.222
2493.644, 4014.678
2495.573, 4009.819
2497.501, 4019.644
2499.430, 4028.241
2501.358, 4036.305
2503.287, 4042.551
2505.215, 4046.457
2507.144, 4049.331
2509.072, 4049.260
2511.000, 4052.280
2512.929, 4062.447
2514.857, 4070.786
2516.786, 4075.234
2518.714, 4077.313
2520.643, 4074.833
2522.571, 4075.417
2524.500, 4086.340
2526.428, 4094.837
2528.357, 4089.078
2530.285, 4084.826
2532.214, 4093.832
2534.142, 4105.075
2536.071, 4112.663
2537.999, 4115.646
2539.927, 4108.841
2541.856, 4101.946
2543.784, 4109.038
2545.713, 4104.195
2547.641, 4115.130
2549.570, 4107.434
2551.498, 4108.526
2553.427, 4114.704
2555.355, 4121.257
2557.284, 4126.524
2559.212, 4124.919
2561.141, 4128.854
2563.069, 4122.184
2564.998, 4129.227
2566.926, 4130.788
2568.854, 4128.426
2570.783, 4131.251
2572.711, 4138.292
2574.640, 4138.812
2576.568, 4142.311
2578.497, 4146.045
2580.425, 4145.789
2582.354, 4151.446
2584.282, 4152.183
2586.211, 4153.092
2588.139, 4154.173
2590.068, 4157.252
2591.996, 4162.694
2593.925, 4169.171
2595.853, 4177.218
2597.781, 4180.433
2599.710, 4177.443
2601.638, 4175.368
2603.567, 4174.618
2605.495, 4175.316
2607.424, 4177.731
2609.352, 4181.162
2611.281, 4188.077
2613.209, 4187.875
2615.138, 4177.115
2617.066, 4171.096
2618.995, 4173.720
2620.923, 4179.813
2622.852, 4190.000
2624.780, 4199.979
2626.708, 4208.894
2628.637, 4216.511
2630.565, 4221.973
2632.494, 4227.629
2634.422, 4235.397
2636.351, 4240.726
2638.279, 4239.403
2640.208, 4240.743
2642.136, 4249.487
2644.065, 4256.697
2645.993, 4259.852
2647.922, 4261.768
2649.850, 4263.812
2651.779, 4263.528
2653.707, 4253.774
2655.635, 4251.900
2657.564, 4272.622
2659.492, 4288.873
2661.421, 4292.767
2663.349, 4290.230
2665.278, 4278.163
2667.206, 4269.913
2669.135, 4273.743
2671.063, 4278.815
2672.992, 4282.054
2674.920, 4283.234
2676.849, 4278.002
2678.777, 4277.229
2680.706, 4287.770
2682.634, 4298.878
2684.563, 4308.232
2686.491, 4313.286
2688.419, 4308.904
2690.348, 4306.332
2692.276, 4310.179
2694.205, 4317.533
2696.133, 4330.493
2698.062, 4340.135
2699.990, 4339.622
2701.919, 4337.733
2703.847, 4338.879
2705.776, 4339.441
2707.704, 4336.879
2709.633, 4336.033
2711.561, 4339.564
2713.490, 4344.596
2715.418, 4353.554
2717.346, 4357.376
2719.275, 4342.727
2721.203, 4335.079
2723.132, 4350.513
2725.060, 4363.451
2726.989, 4362.188
2728.917, 4361.040
2730.846, 4371.808
2732.774, 4376.690
2734.703, 4359.968
2736.631, 4351.889
2738.560, 4367.873
2740.488, 4381.259
2742.417, 4381.956
2744.345, 4379.317
2746.273, 4369.612
2748.202, 4368.317
2750.130, 4389.273
2752.059, 4403.478
2753.987, 4402.457
2755.916, 4399.442
2757.844, 4395.908
2759.773, 4396.970
2761.701, 4410.019
2763.630, 4417.233
2765.558, 4410.665
2767.487, 4408.796
2769.415, 4417.397
2771.344, 4421.403
2773.272, 4413.512
2775.200, 4410.325
2777.129, 4418.618
2779.057, 4425.932
2780.986, 4432.271
2782.914, 4435.722
2784.843, 4435.533
2786.771, 4436.611
2788.700, 4438.920
2790.628, 4445.519
2792.557, 4458.800
2794.485, 4465.756
2796.414, 4464.181
2798.342, 4464.311
2800.271, 4466.845
2802.199, 4471.112
2804.127, 4478.908
2806.056, 4479.073
2807.984, 4471.033
2809.913, 4470.206
2811.841, 4476.681
2813.770, 4472.417
2815.698, 4457.181
2817.627, 4454.598
2819.555, 4464.181
2821.484, 4470.947
2823.412, 4474.788
2825.341, 4471.915
2827.269, 4466.261
2829.198, 4478.304
2831.126, 4501.175
2833.054, 4509.715
2834.983, 4508.234
2836.911, 4509.619
2838.840, 4511.706
2840.768, 4507.932
2842.697, 4511.581
2844.625, 4507.366
2846.554, 4515.187
2848.482, 4519.399
2850.411, 4520.925
2852.339, 4519.935
2854.268, 4518.802
2856.196, 4518.858
2858.125, 4521.409
2860.053, 4526.763
2861.981, 4535.528
2863.910, 4551.134
2865.838, 4564.521
2867.767, 4570.452
2869.695, 4570.985
2871.624, 4560.128
2873.552, 4554.860
2875.481, 4565.000
2877.409, 4576.443
2879.338, 4586.899
2881.266, 4593.668
2883.195, 4594.896
2885.123, 4594.843
2887.052, 4593.153
2888.980, 4593.685
2890.908, 4597.099
2892.837, 4601.355
2894.765, 4606.952
2896.694, 4609.353
2898.622, 4612.754
2900.551, 4614.894
2902.479, 4615.548
2904.408, 4617.666
2906.336, 4614.795
2908.265, 4615.706
2910.193, 4620.413
2912.122, 4630.275
2914.050, 4631.721
2915.979, 4645.475
2917.907, 4642.305
2919.835, 4648.413
2921.764, 4658.514
2923.692, 4658.941
2925.621, 4656.386
2927.549, 4660.950
2929.478, 4669.752
2931.406, 4684.505
2933.335, 4695.942
2935.263, 4692.132
2937.192, 4685.725
2939.120, 4685.040
2941.049, 4686.558
2942.977, 4690.339
2944.906, 4693.318
2946.834, 4692.231
2948.762, 4693.188
2950.691, 4697.423
2952.619, 4702.826
2954.548, 4709.389
2956.476, 4714.843
2958.405, 4721.522
2960.333, 4719.851
2962.262, 4730.027
2964.190, 4713.120
2966.119, 4738.841
2968.047, 4746.943
2969.976, 4736.237
2971.904, 4733.563
2973.833, 4737.536
2975.761, 4745.611
2977.689, 4754.068
2979.618, 4749.456
2981.546, 4758.846
2983.475, 4751.619
2985.403, 4768.704
2987.332, 4780.358
2989.260, 4786.425
2991.189, 4781.312
2993.117, 4777.106
2995.046, 4784.263
2996.974, 4792.249
2998.903, 4795.863
3000.831, 4799.269
3002.760, 4804.917
3004.688, 4808.881
3006.616, 4810.757
3008.545, 4810.228
3010.473, 4806.673
3012.402, 4808.529
3014.330, 4818.604
3016.259, 4827.778
3018.187, 4835.770
3020.116, 4841.287
3022.044, 4844.302
3023.973, 4846.032
3025.901, 4847.260
3027.830, 4851.152
3029.758, 4856.930
3031.687, 4864.736
3033.615, 4871.883
3035.543, 4875.348
3037.472, 4876.854
3039.400, 4876.495
3041.329, 4877.743
3043.257, 4882.916
3045.186, 4890.539
3047.114, 4903.177
3049.043, 4912.643
3050.971, 4913.623
3052.900, 4917.244
3054.828, 4924.225
3056.757, 4930.456
3058.685, 4934.721
3060.614, 4940.816
3062.542, 4949.167
3064.470, 4948.258
3066.399, 4942.177
3068.327, 4946.513
3070.256, 4957.549
3072.184, 4967.028
3074.113, 4975.801
3076.041, 4987.457
3077.970, 4995.296
3079.898, 4987.964
3081.827, 4981.956
3083.755, 4986.630
3085.684, 4997.429
3087.612, 5017.422
3089.541, 5030.226
3091.469, 5025.360
3093.397, 5026.498
3095.326, 5037.562
3097.254, 5040.696
3099.183, 5047.558
3101.111, 5042.378
3103.040, 5059.376
3104.968, 5069.760
3106.897, 5072.565
3108.825, 5057.851
3110.754, 5041.043
3112.682, 5046.968
3114.611, 5059.681
3116.539, 5067.515
3118.468, 5070.839
3120.396, 5066.319
3122.324, 5064.800
3124.253, 5069.423
3126.181, 5082.193
3128.110, 5083.985
3130.038, 5087.929
3131.967, 5099.418
3133.895, 5096.787
3135.824, 5108.950
3137.752, 5126.907
3139.681, 5145.710
3141.609, 5146.202
3143.538, 5138.277
3145.466, 5139.246
3147.395, 5143.806
3149.323, 5146.496
3151.251, 5150.970
3153.180, 5164.229
3155.108, 5172.448
3157.037, 5163.838
3158.965, 5165.495
3160.894, 5184.985
3162.822, 5198.516
3164.751, 5200.994
3166.679, 5205.952
3168.608, 5213.235
3170.536, 5219.347
3172.465, 5226.709
3174.393, 5247.063
3176.322, 5249.841
3178.250, 5268.613
3180.178, 5264.741
3182.107, 5273.916
3184.035, 5281.622
3185.964, 5275.642
3187.892, 5276.078
3189.821, 5289.389
3191.749, 5301.287
3193.678, 5308.261
3195.606, 5316.871
3197.535, 5326.994
3199.463, 5333.800
3201.392, 5339.475
3203.320, 5353.925
3205.249, 5361.579
3207.177, 5377.741
3209.105, 5382.879
3211.034, 5396.604
3212.962, 5406.952
3214.891, 5402.329
3216.819, 5403.979
3218.748, 5417.379
3220.676, 5434.534
3222.605, 5456.306
3224.533, 5464.593
3226.462, 5459.762
3228.390, 5465.876
3230.319, 5479.021
3232.247, 5491.405
3234.176, 5500.904
3236.104, 5503.888
3238.032, 5505.176
3239.961, 5506.022
3241.889, 5511.154
3243.818, 5524.282
3245.746, 5537.857
3247.675, 5550.188
3249.603, 5561.897
3251.532, 5572.858
3253.460, 5571.225
3255.389, 5561.029
3257.317, 5561.737
3259.246, 5569.964
3261.174, 5584.135
3263.103, 5597.009
3265.031, 5599.130
3266.959, 5601.642
3268.888, 5611.049
3270.816, 5618.423
3272.745, 5621.277
3274.673, 5627.234
3276.602, 5637.251
3278.530, 5637.843
3280.459, 5632.039
3282.387, 5637.052
3284.316, 5648.247
3286.244, 5658.736
3288.173, 5668.550
3290.101, 5681.120
3292.030, 5686.316
3293.958, 5675.830
3295.886, 5672.186
3297.815, 5685.585
3299.743, 5699.032
3301.672, 5712.759
3303.600, 5730.611
3305.529, 5740.666
3307.457, 5758.598
3309.386, 5763.884
3311.314, 5777.022
3313.243, 5790.491
3315.171, 5798.871
3317.100, 5807.412
3319.028, 5819.024
3320.957, 5831.149
3322.885, 5844.730
3324.813, 5855.768
3326.742, 5864.220
3328.670, 5867.054
3330.599, 5868.521
3332.527, 5879.626
3334.456, 5890.817
3336.384, 5887.269
3338.313, 5889.024
3340.241, 5892.883
3342.170, 5892.027
3344.098, 5898.675
3346.027, 5889.449
3347.955, 5895.897
3349.884, 5883.680
3351.812, 5860.069
3353.740, 5844.296
3355.669, 5835.892
3357.597, 5839.650
3359.526, 5839.743
3361.454, 5820.485
3363.383, 5808.067
3365.311, 5808.195
3367.240, 5810.947
3369.168, 5815.534
3371.097, 5807.179
3373.025, 5790.812
3374.954, 5781.261
3376.882, 5774.183
3378.811, 5768.255
3380.739, 5756.650
3382.667, 5731.458
3384.596, 5713.705
3386.524, 5711.532
3388.453, 5713.219
3390.381, 5717.917
3392.310, 5719.440
3394.238, 5718.910
3396.167, 5719.224
3398.095, 5721.098
3400.024, 5726.663
3401.952, 5730.939
3403.881, 5730.376
3405.809, 5728.382
3407.738, 5725.166
3409.666, 5720.768
3411.594, 5716.274
3413.523, 5724.385
3415.451, 5737.136
3417.380, 5740.901
3419.308, 5737.601
3421.237, 5718.493
3423.165, 5710.994
3425.094, 5727.651
3427.022, 5738.271
3428.951, 5737.178
3430.879, 5734.062
3432.808, 5729.677
3434.736, 5728.171
3436.665, 5726.358
3438.593, 5715.818
3440.521, 5709.910
3442.450, 5719.573
3444.378, 5728.556
3446.307, 5735.339
3448.235, 5725.673
3450.164, 5701.354
3452.092, 5691.939
3454.021, 5691.611
3455.949, 5691.376
3457.878, 5689.340
3459.806, 5683.222
3461.735, 5678.831
3463.663, 5680.776
3465.592, 5672.413
3467.520, 5650.873
3469.448, 5622.313
3471.377, 5593.432
3473.305, 5591.095
3475.234, 5594.396
3477.162, 5580.609
3479.091, 5570.936
3481.019, 5577.439
3482.948, 5570.424
3484.876, 5542.890
3486.805, 5514.716
3488.733, 5489.586
3490.662, 5480.146
3492.590, 5478.518
3494.519, 5483.261
3496.447, 5477.372
3498.375, 5446.234
3500.304, 5422.697
3502.232, 5410.393
3504.161, 5415.729
3506.089, 5429.337
3508.018, 5415.190
3509.946, 5390.015
3511.875, 5371.876
3513.803, 5358.250
3515.732, 5349.683
3517.660, 5344.521
3519.589, 5342.757
3521.517, 5338.040
3523.446, 5331.393
3525.374, 5327.871
3527.302, 5327.921
3529.231, 5333.292
3531.159, 5339.368
3533.088, 5342.013
3535.016, 5353.085
3536.945, 5359.301
3538.873, 5371.390
3540.802, 5382.549
3542.730, 5401.311
3544.659, 5426.545
3546.587, 5449.926
3548.516, 5470.035
3550.444, 5485.720
3552.373, 5504.666
3554.301, 5528.332
3556.229, 5544.348
3558.158, 5549.592
3560.086, 5535.630
3562.015, 5510.429
3563.943, 5471.524
3565.872, 5439.182
3567.800, 5419.700
3569.729, 5394.335
3571.657, 5361.972
3573.586, 5320.562
3575.514, 5276.899
3577.443, 5236.871
3579.371, 5207.347
3581.300, 5193.448
3583.228, 5182.541
3585.156, 5173.139
3587.085, 5154.112
3589.013, 5130.129
3590.942, 5118.028
3592.870, 5108.911
3594.799, 5090.299
3596.727, 5078.153
3598.656, 5082.081
3600.584, 5077.635
3602.513, 5064.465
3604.441, 5056.826
3606.370, 5051.737
3608.298, 5042.714
3610.227, 5035.248
3612.155, 5033.855
3614.083, 5028.438
3616.012, 5015.217
3617.940, 5018.554
3619.869, 5031.069
3621.797, 5026.604
3623.726, 5017.154
3625.654, 5013.185
3627.583, 5008.935
3629.511, 4999.860
3631.440, 4995.497
3633.368, 4995.740
3635.297, 5001.548
3637.225, 5007.696
3639.154, 5007.382
3641.082, 5002.139
3643.010, 5005.211
3644.939, 4983.458
3646.867, 4998.313
3648.796, 4991.039
3650.724, 4974.278
3652.653, 4974.695
3654.581, 4980.479
3656.510, 4987.488
3658.438, 4988.713
3660.367, 4982.811
3662.295, 4980.342
3664.224, 4978.352
3666.152, 4959.889
3668.081, 4947.903
3670.009, 4966.868
3671.938, 4980.217
3673.866, 4977.933
3675.794, 4970.659
3677.723, 4960.684
3679.651, 4955.283
3681.580, 4954.155
3683.508, 4958.305
3685.437, 4963.735
3687.365, 4970.087
3689.294, 4974.439
3691.222, 4976.388
3693.151, 4976.688
3695.079, 4972.936
3697.008, 4975.283
3698.936, 4975.270
3700.865, 4970.815
3702.793, 4973.894
3704.721, 4959.907
3706.650, 4949.108
3708.578, 4944.523
3710.507, 4954.036
3712.435, 4962.419
3714.364, 4965.276
3716.292, 4956.393
3718.221, 4961.456
3720.149, 4945.469
3722.078, 4955.821
3724.006, 4943.600
3725.935, 4931.361
3727.863, 4929.120
3729.792, 4929.715
3731.720, 4932.929
3733.648, 4933.300
3735.577, 4936.370
3737.505, 4954.549
3739.434, 4965.701
3741.362, 4955.679
3743.291, 4948.507
3745.219, 4943.907
3747.148, 4937.260
3749.076, 4932.456
3751.005, 4935.814
3752.933, 4939.294
3754.862, 4941.468
3756.790, 4935.162
3758.719, 4941.928
3760.647, 4934.417
3762.575, 4948.109
3764.504, 4955.392
3766.432, 4955.849
3768.361, 4947.212
3770.289, 4937.315
3772.218, 4928.715
3774.146, 4929.343
3776.075, 4933.197
3778.003, 4938.155
3779.932, 4938.197
3781.860, 4930.990
3783.789, 4928.840
3785.717, 4930.185
3787.646, 4934.114
3789.574, 4933.216
3791.502, 4940.764
3793.431, 4943.041
3795.359, 4949.620
3797.288, 4952.139
3799.216, 4944.811
3801.145, 4949.884
3803.073, 4949.179
3805.002, 4934.404
3806.930, 4933.369
3808.859, 4943.232
3810.787, 4931.349
3812.716, 4917.256
3814.644, 4921.334
3816.573, 4927.833
3818.501, 4934.050
3820.429, 4936.341
3822.358, 4935.975
3824.286, 4933.815
3826.215, 4933.472
3828.143, 4932.806
3830.072, 4930.162
3832.000, 4931.872
3833.929, 4927.677
3835.857, 4926.592
3837.786, 4930.625
3839.714, 4933.109
3841.643, 4931.423
3843.571, 4930.433
3845.500, 4930.085
3847.428, 4927.628
3849.356, 4927.165
3851.285, 4933.377
3853.213, 4934.163
3855.142, 4927.014
3857.070, 4936.605
3858.999, 4950.866
3860.927, 4947.206
3862.856, 4941.054
3864.784, 4937.827
3866.713, 4938.067
3868.641, 4940.804
3870.570, 4943.685
3872.498, 4943.044
3874.427, 4943.786
3876.355, 4927.834
3878.283, 4939.788
3880.212, 4936.642
3882.140, 4929.234
3884.069, 4938.963
3885.997, 4944.742
3887.926, 4937.949
3889.854, 4931.075
3891.783, 4926.339
3893.711, 4927.753
3895.640, 4931.462
3897.568, 4939.274
3899.497, 4931.994
3901.425, 4937.980
3903.354, 4935.138
3905.282, 4937.476
3907.210, 4930.155
3909.139, 4921.477
3911.067, 4918.071
3912.996, 4920.882
3914.924, 4928.149
3916.853, 4930.672
3918.781, 4928.954
3920.710, 4925.245
3922.638, 4922.755
3924.567, 4921.052
3926.495, 4908.115
3928.424, 4897.317
3930.352, 4910.228
3932.281, 4918.465
3934.209, 4912.865
3936.137, 4902.732
3938.066, 4896.178
3939.994, 4907.115
3941.923, 4915.992
3943.851, 4915.815
3945.780, 4916.139
3947.708, 4918.561
3949.637, 4919.390
3951.565, 4916.888
3953.494, 4914.381
3955.422, 4910.130
3957.351, 4904.315
3959.279, 4901.103
3961.208, 4893.537
3963.136, 4890.638
3965.064, 4888.977
3966.993, 4885.119
3968.921, 4886.235
3970.850, 4887.486
3972.778, 4883.127
3974.707, 4875.680
3976.635, 4869.878
3978.564, 4870.000
3980.492, 4876.651
3982.421, 4879.650
3984.349, 4879.620
3986.278, 4880.962
3988.206, 4867.761
3990.135, 4856.817
3992.063, 4862.761
3993.991, 4867.975
3995.920, 4874.256
3997.848, 4875.931
3999.777, 4874.687
4001.705, 4867.522
4003.634, 4864.838
4005.562, 4879.277
4007.491, 4880.357
4009.419, 4870.439
4011.348, 4867.107
4013.276, 4863.802
4015.205, 4856.104
4017.133, 4862.662
4019.062, 4860.219
4020.990, 4868.391
4022.918, 4862.472
4024.847, 4870.301
4026.775, 4868.022
4028.704, 4861.723
4030.632, 4864.575
4032.561, 4870.532
4034.489, 4878.940
4036.418, 4875.587
4038.346, 4876.288
4040.275, 4867.784
4042.203, 4868.184
4044.132, 4856.472
4046.060, 4850.707
4047.989, 4847.617
4049.917, 4852.615
4051.845, 4856.064
4053.774, 4842.777
4055.702, 4833.142
4057.631, 4830.532
4059.559, 4840.907
4061.488, 4851.853
4063.416, 4848.782
4065.345, 4842.673
4067.273, 4835.442
4069.202, 4842.854
4071.130, 4852.284
4073.059, 4841.177
4074.987, 4835.197
4076.916, 4841.255
4078.844, 4838.419
4080.772, 4831.079
4082.701, 4825.776
4084.629, 4823.721
4086.558, 4827.175
4088.486, 4825.546
4090.415, 4823.418
4092.343, 4826.286
4094.272, 4826.753
4096.200, 4831.667
4098.129, 4830.853
4100.057, 4838.173
4101.986, 4838.774
4103.914, 4830.500
4105.843, 4831.833
4107.771, 4824.918
4109.700, 4821.517
4111.628, 4814.066
4113.557, 4804.081
4115.485, 4801.408
4117.414, 4802.546
4119.342, 4805.380
4121.271, 4803.256
4123.199, 4804.380
4125.127, 4800.275
4127.056, 4809.053
4128.984, 4793.851
4130.913, 4791.743
4132.841, 4795.581
4134.770, 4799.864
4136.698, 4801.183
4138.626, 4799.712
4140.555, 4788.066
4142.483, 4779.591
4144.412, 4787.257
4146.340, 4790.896
4148.269, 4789.923
4150.197, 4791.933
4152.126, 4790.167
4154.054, 4776.439
4155.983, 4771.982
4157.911, 4775.072
4159.840, 4773.356
4161.768, 4772.364
4163.697, 4774.120
4165.625, 4771.550
4167.554, 4765.984
4169.482, 4766.351
4171.411, 4763.158
4173.339, 4753.717
4175.268, 4747.114
4177.196, 4745.358
4179.125, 4740.317
4181.053, 4736.108
4182.981, 4740.112
4184.910, 4733.166
4186.838, 4741.224
4188.767, 4752.113
4190.695, 4756.162
4192.624, 4747.215
4194.552, 4744.542
4196.480, 4747.778
4198.409, 4750.630
4200.337, 4746.588
4202.266, 4735.731
4204.194, 4730.298
4206.123, 4725.765
4208.051, 4717.494
4209.980, 4716.298
4211.908, 4714.418
4213.837, 4727.744
4215.765, 4714.372
4217.694, 4716.524
4219.622, 4715.253
4221.551, 4706.604
4223.479, 4700.684
4225.408, 4696.916
4227.336, 4693.929
4229.265, 4689.897
4231.193, 4685.216
4233.122, 4687.609
4235.050, 4689.923
4236.979, 4678.211
4238.907, 4675.562
4240.835, 4684.913
4242.764, 4693.491
4244.692, 4696.566
4246.621, 4689.245
4248.549, 4680.186
4250.478, 4671.004
4252.406, 4660.381
4254.334, 4661.007
4256.263, 4658.845
4258.191, 4653.077
4260.120, 4664.811
4262.048, 4654.379
4263.977, 4657.935
4265.905, 4678.514
4267.834, 4684.941
4269.762, 4678.142
4271.691, 4654.280
4273.619, 4645.673
4275.548, 4657.976
4277.476, 4652.802
4279.405, 4645.114
4281.333, 4650.803
4283.262, 4654.268
4285.190, 4655.306
4287.119, 4656.797
4289.047, 4656.273
4290.976, 4658.582
4292.904, 4652.892
4294.833, 4658.862
4296.761, 4656.386
4298.689, 4643.063
4300.618, 4615.569
4302.546, 4611.772
4304.475, 4620.927
4306.403, 4630.977
4308.332, 4630.868
4310.260, 4619.970
4312.188, 4627.640
4314.117, 4633.739
4316.045, 4615.015
4317.974, 4611.713
4319.902, 4620.692
4321.831, 4620.527
4323.759, 4615.725
4325.688, 4605.973
4327.616, 4601.016
4329.545, 4598.238
4331.473, 4589.543
4333.402, 4594.208
4335.330, 4586.834
4337.259, 4584.676
4339.187, 4581.968
4341.116, 4582.585
4343.044, 4588.265
4344.973, 4596.421
4346.901, 4602.840
4348.830, 4608.155
4350.758, 4613.414
4352.687, 4603.651
4354.615, 4590.268
4356.543, 4590.312
4358.472, 4588.815
4360.400, 4583.459
4362.329, 4584.363
4364.257, 4580.847
4366.186, 4564.032
4368.114, 4568.899
4370.042, 4564.208
4371.971, 4572.903
4373.899, 4565.069
4375.828, 4566.749
4377.756, 4567.268
4379.685, 4567.776
4381.613, 4569.786
4383.542, 4576.610
4385.470, 4583.089
4387.399, 4567.233
4389.327, 4553.126
4391.256, 4550.412
4393.184, 4560.118
4395.113, 4569.478
4397.041, 4558.370
4398.970, 4555.223
4400.898, 4560.356
4402.827, 4545.293
4404.755, 4532.343
4406.684, 4536.388
4408.612, 4534.767
4410.541, 4529.825
4412.469, 4526.837
4414.397, 4520.092
4416.326, 4509.571
4418.254, 4507.821
4420.183, 4507.585
4422.111, 4504.383
4424.040, 4509.884
4425.968, 4515.249
4427.896, 4498.786
4429.825, 4489.396
4431.753, 4490.762
4433.682, 4489.551
4435.610, 4489.109
4437.539, 4492.332
4439.467, 4495.720
4441.396, 4495.113
4443.324, 4492.758
4445.253, 4493.551
4447.181, 4483.407
4449.110, 4486.026
4451.038, 4481.210
4452.967, 4465.318
4454.895, 4463.439
4456.824, 4468.478
4458.752, 4470.012
4460.681, 4461.575
4462.609, 4446.118
4464.538, 4461.042
4466.466, 4468.960
4468.395, 4450.829
4470.323, 4437.491
4472.251, 4431.731
4474.180, 4434.227
4476.108, 4444.691
4478.037, 4456.373
4479.965, 4437.432
4481.894, 4421.631
4483.822, 4428.647
4485.750, 4424.710
4487.679, 4413.456
4489.607, 4419.802
4491.536, 4396.355
4493.464, 4421.749
4495.393, 4435.562
4497.321, 4436.232
4499.250, 4424.935
4501.178, 4420.058
4503.107, 4416.470
4505.035, 4411.312
4506.964, 4395.796
4508.892, 4380.195
4510.821, 4386.682
4512.749, 4392.336
4514.678, 4392.522
4516.606, 4383.456
4518.535, 4376.409
4520.463, 4376.588
4522.392, 4382.132
4524.320, 4382.835
4526.249, 4383.750
4528.177, 4366.618
4530.105, 4382.514
4532.034, 4364.597
4533.962, 4358.396
4535.891, 4373.566
4537.819, 4364.790
4539.748, 4357.387
4541.676, 4374.782
4543.604, 4371.054
4545.533, 4357.697
4547.461, 4350.731
4549.390, 4345.313
4551.318, 4340.625
4553.247, 4335.323
4555.175, 4334.227
4557.104, 4338.281
4559.032, 4342.477
4560.961, 4342.577
4562.889, 4333.545
4564.818, 4322.278
4566.746, 4317.848
4568.675, 4316.848
4570.603, 4315.520
4572.532, 4319.367
4574.460, 4317.022
4576.389, 4314.361
4578.317, 4306.688
4580.246, 4299.601
4582.174, 4302.307
4584.103, 4298.393
4586.031, 4294.397
4587.959, 4296.860
4589.888, 4286.623
4591.816, 4280.358
4593.745, 4276.884
4595.673, 4278.353
4597.602, 4275.257
4599.530, 4268.169
4601.458, 4277.831
4603.387, 4278.047
4605.315, 4253.091
4607.244, 4253.935
4609.172, 4264.877
4611.101, 4273.983
4613.029, 4265.845
4614.958, 4251.425
4616.886, 4252.935
4618.815, 4246.581
4620.743, 4234.220
4622.672, 4233.612
4624.600, 4237.860
4626.529, 4243.804
4628.457, 4241.084
4630.386, 4239.790
4632.314, 4235.642
4634.243, 4232.121
4636.171, 4223.362
4638.100, 4223.539
4640.028, 4217.437
4641.957, 4210.144
4643.885, 4214.950
4645.813, 4212.331
4647.742, 4203.837
4649.670, 4208.536
4651.599, 4212.303
4653.527, 4211.004
4655.456, 4196.780
4657.384, 4182.044
4659.313, 4172.220
4661.241, 4181.094
4663.169, 4188.555
4665.098, 4174.500
4667.026, 4166.584
4668.955, 4164.151
4670.883, 4166.862
4672.812, 4161.969
4674.740, 4152.926
4676.669, 4151.660
4678.597, 4145.617
4680.526, 4136.210
4682.454, 4139.245
4684.383, 4148.712
4686.311, 4161.279
4688.240, 4161.016
4690.168, 4150.886
4692.097, 4133.231
4694.025, 4135.080
4695.954, 4138.811
4697.882, 4125.316
4699.811, 4134.902
4701.739, 4148.280
4703.667, 4143.669
4705.596, 4132.202
4707.524, 4118.422
4709.453, 4103.300
4711.381, 4103.643
4713.310, 4113.570
4715.238, 4110.353
4717.167, 4103.006
4719.095, 4095.339
4721.023, 4091.958
4722.952, 4086.150
4724.880, 4083.752
4726.809, 4077.912
4728.737, 4074.836
4730.666, 4070.688
4732.594, 4068.469
4734.523, 4069.728
4736.451, 4066.340
4738.380, 4072.377
4740.308, 4074.183
4742.237, 4071.282
4744.165, 4061.125
4746.094, 4051.706
4748.022, 4054.027
4749.951, 4050.970
4751.879, 4045.675
4753.808, 4047.167
4755.736, 4045.372
4757.665, 4039.418
4759.593, 4027.771
4761.521, 4022.353
4763.450, 4022.736
4765.378, 4023.350
4767.307, 4019.225
4769.235, 4009.748
4771.164, 4013.076
4773.092, 4006.938
4775.021, 4010.479
4776.949, 4001.623
4778.877, 3990.906
4780.806, 3988.016
4782.734, 3978.546
4784.663, 3986.723
4786.591, 3980.642
4788.520, 3978.384
4790.448, 3979.743
4792.377, 3972.929
4794.305, 3975.718
4796.234, 3974.519
4798.162, 3957.202
4800.091, 3951.660
4802.019, 3953.951
4803.948, 3961.852
4805.876, 3954.033
4807.805, 3940.817
4809.733, 3932.083
4811.662, 3938.624
4813.590, 3946.458
4815.519, 3939.220
4817.447, 3927.342
4819.375, 3917.113
4821.304, 3918.154
4823.232, 3910.530
4825.161, 3904.181
4827.089, 3921.818
4829.018, 3915.672
4830.946, 3899.443
4832.875, 3913.707
4834.803, 3906.031
4836.731, 3888.050
4838.660, 3898.535
4840.588, 3897.287
4842.517, 3887.024
4844.445, 3887.237
4846.374, 3884.665
4848.302, 3878.960
4850.231, 3871.934
4852.159, 3877.280
4854.088, 3887.955
4856.016, 3876.280
4857.945, 3880.612
4859.873, 3873.670
4861.802, 3878.389
4863.730, 3859.341
4865.659, 3844.093
4867.587, 3839.314
4869.516, 3830.427
4871.444, 3820.648
4873.373, 3831.154
4875.301, 3837.275
4877.229, 3835.689
4879.158, 3828.238
4881.086, 3826.400
4883.015, 3824.414
4884.943, 3790.585
4886.872, 3778.182
4888.800, 3787.978
4890.729, 3797.635
4892.657, 3799.829
4894.585, 3796.958
4896.514, 3800.605
4898.442, 3791.337
4900.371, 3775.218
4902.299, 3778.635
4904.228, 3774.828
4906.156, 3765.635
4908.085, 3764.481
4910.013, 3758.479
4911.942, 3753.567
4913.870, 3753.262
4915.799, 3746.777
4917.727, 3751.736
4919.656, 3753.869
4921.584, 3751.884
4923.513, 3749.081
4925.441, 3752.777
4927.370, 3748.870
4929.298, 3741.225
4931.227, 3737.130
4933.155, 3740.384
4935.083, 3739.735
4937.012, 3733.863
4938.940, 3716.659
4940.869, 3724.154
4942.797, 3715.296
4944.726, 3715.193
4946.654, 3713.884
4948.583, 3698.303
4950.511, 3695.169
4952.439, 3696.845
4954.368, 3696.870
4956.296, 3700.779
4958.225, 3697.794
4960.153, 3695.420
4962.082, 3696.483
4964.010, 3682.743
4965.939, 3690.610
4967.867, 3677.109
4969.796, 3662.622
4971.724, 3657.053
4973.653, 3657.442
4975.581, 3655.620
4977.510, 3649.277
4979.438, 3640.963
4981.367, 3642.610
4983.295, 3649.851
4985.224, 3623.114
4987.152, 3618.304
4989.081, 3633.302
4991.009, 3619.647
4992.938, 3619.503
4994.866, 3629.299
4996.794, 3627.882
4998.723, 3624.875
5000.651, 3617.460
5002.580, 3597.480
5004.508, 3587.399
5006.437, 3584.425
5008.365, 3583.575
5010.293, 3580.120
5012.222, 3575.784
5014.150, 3572.807
5016.079, 3566.338
5018.007, 3555.992
5019.936, 3543.469
5021.864, 3545.026
5023.793, 3568.199
5025.721, 3546.588
5027.650, 3553.658
5029.578, 3554.154
5031.507, 3541.361
5033.435, 3535.549
5035.364, 3523.973
5037.292, 3511.522
5039.221, 3520.059
5041.149, 3520.679
5043.078, 3518.856
5045.006, 3532.496
5046.935, 3523.461
5048.863, 3509.830
5050.792, 3517.483
5052.720, 3503.821
5054.648, 3497.309
5056.577, 3520.816
5058.505, 3528.459
5060.434, 3518.341
5062.362, 3493.818
5064.291, 3483.016
5066.219, 3467.546
5068.147, 3448.501
5070.076, 3467.575
5072.004, 3469.649
5073.933, 3456.195
5075.861, 3457.121
5077.790, 3450.866
5079.718, 3441.646
5081.647, 3437.360
5083.575, 3438.500
5085.504, 3441.671
5087.432, 3444.157
5089.361, 3446.107
5091.289, 3444.368
5093.218, 3437.477
5095.146, 3419.840
5097.075, 3413.093
5099.003, 3420.551
5100.932, 3430.023
5102.860, 3429.585
5104.789, 3421.171
5106.717, 3410.907
5108.646, 3407.756
5110.574, 3404.825
5112.502, 3389.682
5114.431, 3397.735
5116.359, 3393.648
5118.288, 3385.842
5120.216, 3367.540
5122.145, 3374.990
5124.073, 3368.541
5126.001, 3368.032
5127.930, 3363.032
5129.858, 3357.538
5131.787, 3367.415
5133.715, 3370.439
5135.644, 3365.193
5137.572, 3351.686
5139.501, 3356.280
5141.429, 3359.626
5143.358, 3348.289
5145.286, 3352.202
5147.215, 3348.266
5149.143, 3332.758
5151.072, 3319.832
5153.000, 3309.525
5154.929, 3304.594
5156.857, 3313.455
5158.786, 3309.519
5160.714, 3307.050
5162.643, 3320.004
5164.571, 3321.103
5166.500, 3314.591
5168.428, 3304.665
5170.356, 3302.889
5172.285, 3293.775
5174.213, 3280.076
5176.142, 3278.584
5178.070, 3282.203
5179.999, 3286.038
5181.927, 3286.056
5183.855, 3282.733
5185.784, 3265.651
5187.712, 3271.626
5189.641, 3258.212
5191.569, 3252.062
5193.498, 3255.995
5195.426, 3254.964
5197.355, 3254.541
5199.283, 3253.003
5201.212, 3246.181
5203.140, 3243.710
5205.069, 3237.709
5206.997, 3224.470
5208.926, 3223.270
5210.854, 3232.825
5212.783, 3242.990
5214.711, 3222.280
5216.640, 3214.716
5218.568, 3217.449
5220.497, 3224.493
5222.425, 3213.571
5224.354, 3207.951
5226.282, 3215.256
5228.210, 3195.160
5230.139, 3189.038
5232.067, 3193.688
5233.996, 3175.528
5235.924, 3172.083
5237.853, 3174.473
5239.781, 3171.695
5241.709, 3168.326
5243.638, 3165.929
5245.566, 3164.860
5247.495, 3165.079
5249.423, 3160.592
5251.352, 3153.794
5253.280, 3151.629
5255.209, 3136.325
5257.137, 3131.107
5259.066, 3146.587
5260.994, 3131.062
5262.923, 3126.104
5264.851, 3131.803
5266.780, 3116.980
5268.708, 3113.868
5270.637, 3116.735
5272.565, 3118.259
5274.494, 3111.966
5276.422, 3104.197
5278.351, 3098.043
5280.279, 3096.373
5282.208, 3090.801
5284.136, 3086.835
5286.064, 3094.872
5287.993, 3098.608
5289.921, 3089.479
5291.850, 3067.279
5293.778, 3053.492
5295.707, 3054.087
5297.635, 3061.552
5299.563, 3065.045
5301.492, 3062.583
5303.420, 3060.705
5305.349, 3054.790
5307.277, 3049.387
5309.206, 3040.995
5311.134, 3036.962
5313.063, 3028.462
5314.991, 3023.691
5316.920, 3018.353
5318.848, 3013.667
5320.777, 3009.415
5322.705, 3004.690
5324.634, 3002.712
5326.562, 3009.748
5328.491, 3006.575
5330.419, 2996.200
5332.348, 2983.802
5334.276, 2988.775
5336.205, 2988.860
5338.133, 2983.027
5340.062, 2982.877
5341.990, 2977.528
5343.918, 2970.383
5345.847, 2963.721
5347.775, 2949.338
5349.704, 2951.664
5351.632, 2963.957
5353.561, 2966.388
5355.489, 2953.299
5357.417, 2937.273
5359.346, 2927.030
5361.274, 2936.557
5363.203, 2935.084
5365.131, 2923.778
5367.060, 2914.225
5368.988, 2917.915
5370.917, 2928.102
5372.845, 2936.270
5374.774, 2919.654
5376.702, 2901.947
5378.631, 2889.405
5380.559, 2884.640
5382.488, 2883.053
5384.416, 2881.585
5386.345, 2878.954
5388.273, 2874.637
5390.202, 2873.024
5392.130, 2866.483
5394.059, 2864.883
5395.987, 2859.625
5397.916, 2862.758
5399.844, 2855.995
5401.772, 2860.808
5403.701, 2847.434
5405.629, 2838.091
5407.558, 2843.222
5409.486, 2831.557
5411.415, 2828.593
5413.343, 2829.289
5415.271, 2821.633
5417.200, 2806.076
5419.128, 2801.961
5421.057, 2807.823
5422.985, 2785.927
5424.914, 2789.334
5426.842, 2794.238
5428.771, 2780.321
5430.699, 2792.413
5432.628, 2784.740
5434.556, 2764.021
5436.485, 2761.621
5438.413, 2752.370
5440.342, 2743.027
5442.270, 2737.667
5444.199, 2736.390
5446.127, 2745.728
5448.056, 2753.840
5449.984, 2750.410
5451.913, 2741.566
5453.841, 2729.812
5455.770, 2718.409
5457.698, 2710.673
5459.626, 2706.264
5461.555, 2712.867
5463.483, 2705.355
5465.412, 2707.246
5467.340, 2713.950
5469.269, 2699.703
5471.197, 2699.564
5473.125, 2686.713
5475.054, 2682.436
5476.982, 2680.648
5478.911, 2665.062
5480.839, 2669.358
5482.768, 2670.792
5484.696, 2664.166
5486.625, 2660.099
5488.553, 2663.365
5490.482, 2663.738
5492.410, 2655.538
5494.339, 2640.468
5496.267, 2624.628
5498.196, 2621.183
5500.124, 2615.646
5502.053, 2622.531
5503.981, 2616.181
5505.910, 2621.613
5507.838, 2623.053
5509.767, 2622.533
5511.695, 2607.718
5513.624, 2585.448
5515.552, 2583.096
5517.480, 2590.452
5519.409, 2597.109
5521.337, 2597.711
5523.266, 2589.865
5525.194, 2587.487
5527.123, 2590.791
5529.051, 2579.470
5530.979, 2580.320
5532.908, 2562.304
5534.836, 2548.764
5536.765, 2539.510
5538.693, 2544.962
5540.622, 2545.121
5542.550, 2538.506
5544.479, 2532.089
5546.407, 2537.408
5548.336, 2537.109
5550.264, 2529.476
5552.193, 2531.056
5554.121, 2522.229
5556.050, 2516.556
5557.978, 2517.847
5559.907, 2511.556
5561.835, 2502.170
5563.764, 2494.306
5565.692, 2490.783
5567.621, 2493.708
5569.549, 2492.113
5571.478, 2486.193
5573.406, 2478.081
5575.334, 2476.272
5577.263, 2464.969
5579.191, 2454.825
5581.120, 2461.073
5583.048, 2456.438
5584.977, 2452.592
5586.905, 2451.018
5588.833, 2449.738
5590.762, 2444.088
5592.690, 2447.469
5594.619, 2450.453
5596.547, 2433.666
5598.476, 2441.485
5600.404, 2434.987
5602.333, 2415.215
5604.261, 2410.846
5606.190, 2416.715
5608.118, 2413.920
5610.047, 2404.195
5611.975, 2406.497
5613.904, 2391.755
5615.832, 2384.865
5617.761, 2389.107
5619.689, 2387.263
5621.618, 2394.564
5623.546, 2391.387
5625.475, 2375.477
5627.403, 2363.597
5629.332, 2355.970
5631.260, 2358.490
5633.188, 2363.785
5635.117, 2335.139
5637.045, 2352.160
5638.974, 2358.413
5640.902, 2338.008
5642.831, 2325.752
5644.759, 2319.592
5646.688, 2317.070
5648.616, 2318.458
5650.544, 2330.028
5652.473, 2317.319
5654.401, 2320.685
5656.330, 2317.305
5658.258, 2311.204
5660.187, 2307.269
5662.115, 2296.140
5664.044, 2287.659
5665.972, 2286.323
5667.901, 2285.903
5669.829, 2287.685
5671.758, 2285.594
5673.686, 2264.826
5675.615, 2259.413
5677.543, 2258.357
5679.472, 2254.970
5681.400, 2247.778
5683.329, 2248.868
5685.257, 2248.182
5687.186, 2247.021
5689.114, 2251.637
5691.042, 2249.451
5692.971, 2249.937
5694.899, 2241.935
5696.828, 2239.319
5698.756, 2225.103
5700.685, 2214.062
5702.613, 2212.410
5704.542, 2214.968
5706.470, 2206.052
5708.398, 2208.322
5710.327, 2208.921
5712.255, 2194.645
5714.184, 2190.625
5716.112, 2190.038
5718.041, 2184.720
5719.969, 2172.840
5721.898, 2171.213
5723.826, 2185.346
5725.755, 2188.652
5727.683, 2171.621
5729.612, 2156.015
5731.540, 2160.793
5733.469, 2158.547
5735.397, 2145.700
5737.326, 2145.573
5739.254, 2148.667
5741.183, 2147.702
5743.111, 2142.251
5745.040, 2135.186
5746.968, 2134.417
5748.896, 2131.612
5750.825, 2125.743
5752.753, 2118.760
5754.682, 2112.719
5756.610, 2116.188
5758.539, 2115.958
5760.467, 2102.867
5762.396, 2094.454
5764.324, 2082.240
5766.252, 2078.072
5768.181, 2082.698
5770.109, 2075.463
5772.038, 2075.740
5773.966, 2072.532
5775.895, 2068.272
5777.823, 2075.370
5779.752, 2080.866
5781.680, 2072.029
5783.609, 2057.454
5785.537, 2049.687
5787.466, 2050.325
5789.394, 2053.722
5791.323, 2057.524
5793.251, 2058.400
5795.180, 2055.929
5797.108, 2041.117
5799.037, 2041.826
5800.965, 2034.854
5802.894, 2015.406
5804.822, 2023.254
5806.750, 2020.145
5808.679, 2008.521
5810.607, 2006.373
5812.536, 2021.091
5814.464, 2018.694
5816.393, 2006.724
5818.321, 1997.326
5820.250, 1996.900
5822.178, 1985.804
5824.106, 1984.036
5826.035, 1990.204
5827.963, 1985.673
5829.892, 1977.042
5831.820, 1963.860
5833.749, 1954.866
5835.677, 1956.176
5837.606, 1951.214
5839.534, 1947.777
5841.463, 1958.975
5843.391, 1942.122
5845.320, 1946.282
5847.248, 1944.462
5849.177, 1932.464
5851.105, 1920.336
5853.034, 1920.978
5854.962, 1914.304
5856.891, 1924.567
5858.819, 1915.142
5860.748, 1911.373
5862.676, 1918.947
5864.604, 1906.631
5866.533, 1901.723
5868.461, 1906.252
5870.390, 1908.636
5872.318, 1899.835
5874.247, 1888.850
5876.175, 1886.661
5878.104, 1877.742
5880.032, 1887.358
5881.960, 1870.943
5883.889, 1872.143
5885.817, 1881.057
5887.746, 1875.648
5889.674, 1873.661
5891.603, 1872.708
5893.531, 1866.560
5895.460, 1855.189
5897.388, 1845.902
5899.317, 1852.322
5901.245, 1855.485
5903.174, 1848.130
5905.102, 1832.045
5907.031, 1837.670
5908.959, 1827.441
5910.888, 1817.787
5912.816, 1818.767
5914.745, 1829.381
5916.673, 1821.741
5918.602, 1821.748
5920.530, 1816.651
5922.458, 1813.355
5924.387, 1809.531
5926.315, 1807.066
5928.244, 1806.573
5930.172, 1803.255
5932.101, 1786.694
5934.029, 1784.532
5935.958, 1776.506
5937.886, 1779.203
5939.814, 1788.873
5941.743, 1777.980
5943.671, 1773.710
5945.600, 1766.402
5947.528, 1761.498
5949.457, 1756.242
5951.385, 1752.081
5953.314, 1747.862
5955.242, 1745.516
5957.171, 1745.533
5959.099, 1743.027
5961.028, 1739.330
5962.956, 1749.215
5964.885, 1751.360
5966.813, 1742.712
5968.742, 1735.939
5970.670, 1730.822
5972.599, 1721.982
5974.527, 1717.532
5976.456, 1722.623
5978.384, 1739.578
5980.313, 1740.066
5982.241, 1732.303
5984.169, 1722.708
5986.098, 1712.811
5988.026, 1708.680
5989.955, 1696.604
5991.883, 1697.523
5993.812, 1690.724
5995.740, 1678.855
5997.668, 1682.886
5999.597, 1668.671
6001.525, 1665.113
6003.454, 1668.298
6005.382, 1662.795
6007.311, 1660.113
6009.239, 1662.651
6011.168, 1655.399
6013.096, 1646.930
6015.025, 1652.678
6016.953, 1652.271
6018.882, 1648.883
6020.810, 1641.152
6022.739, 1635.054
6024.667, 1632.135
6026.596, 1628.404
6028.524, 1627.248
6030.453, 1624.263
6032.381, 1624.874
6034.310, 1621.455
6036.238, 1620.009
6038.167, 1622.065
6040.095, 1616.432
6042.023, 1603.364
6043.952, 1593.240
6045.880, 1600.824
6047.809, 1600.226
6049.737, 1602.922
6051.666, 1603.819
6053.594, 1585.695
6055.522, 1582.544
6057.451, 1582.509
6059.379, 1579.365
6061.308, 1576.335
6063.236, 1579.873
6065.165, 1573.981
6067.093, 1575.563
6069.022, 1568.315
6070.950, 1552.734
6072.879, 1541.975
6074.807, 1547.268
6076.736, 1538.416
6078.664, 1539.531
6080.593, 1546.762
6082.521, 1542.266
6084.450, 1530.985
6086.378, 1527.509
6088.307, 1516.953
6090.235, 1509.117
6092.164, 1515.745
6094.092, 1514.759
6096.021, 1519.306
6097.949, 1505.654
6099.877, 1496.499
6101.806, 1509.031
6103.734, 1519.417
6105.663, 1505.296
6107.591, 1494.839
6109.520, 1494.476
6111.448, 1497.095
6113.376, 1486.821
6115.305, 1486.232
6117.233, 1481.496
6119.162, 1475.175
6121.090, 1469.303
6123.019, 1462.413
6124.947, 1464.069
6126.876, 1470.411
6128.804, 1462.219
6130.733, 1450.804
6132.661, 1455.429
6134.590, 1465.873
6136.518, 1451.776
6138.447, 1449.834
6140.375, 1449.178
6142.304, 1438.697
6144.232, 1440.749
6146.161, 1445.081
6148.089, 1440.775
6150.018, 1433.115
6151.946, 1426.378
6153.875, 1420.229
6155.803, 1417.590
6157.731, 1415.276
6159.660, 1409.473
6161.588, 1400.826
6163.517, 1393.515
6165.445, 1399.016
6167.374, 1400.633
6169.302, 1394.719
6171.230, 1396.027
6173.159, 1391.975
6175.087, 1387.919
6177.016, 1386.196
6178.944, 1384.823
6180.873, 1383.600
6182.801, 1383.515
6184.730, 1382.947
6186.658, 1380.188
6188.587, 1379.332
6190.515, 1376.682
6192.444, 1373.293
6194.372, 1368.699
6196.301, 1364.803
6198.229, 1359.930
6200.158, 1356.625
6202.086, 1353.632
6204.015, 1352.092
6205.943, 1350.286
6207.872, 1347.051
6209.800, 1344.429
6211.729, 1346.166
6213.657, 1337.882
6215.585, 1327.847
6217.514, 1336.746
6219.442, 1337.496
6221.371, 1322.188
6223.299, 1316.404
6225.228, 1312.926
6227.156, 1308.139
6229.084, 1305.858
6231.013, 1316.412
6232.941, 1303.580
6234.870, 1305.471
6236.798, 1307.666
6238.727, 1295.484
6240.655, 1299.199
6242.584, 1291.392
6244.512, 1284.755
6246.441, 1282.432
6248.369, 1282.399
6250.298, 1282.333
6252.226, 1283.212
6254.155, 1277.708
6256.083, 1279.740
6258.012, 1282.349
6259.940, 1279.259
6261.869, 1272.341
6263.797, 1268.794
6265.726, 1265.461
6267.654, 1263.232
6269.583, 1261.465
6271.511, 1258.624
6273.439, 1257.438
6275.368, 1248.917
6277.296, 1242.314
6279.225, 1243.521
6281.153, 1242.088
6283.082, 1240.448
6285.010, 1238.942
6286.938, 1239.638
6288.867, 1234.109
6290.795, 1239.487
6292.724, 1237.973
6294.652, 1233.195
6296.581, 1220.927
6298.509, 1214.113
6300.438, 1218.983
6302.366, 1216.758
6304.295, 1210.870
6306.223, 1209.389
6308.152, 1213.252
6310.080, 1204.890
6312.009, 1202.989
6313.937, 1206.075
6315.866, 1200.549
6317.794, 1187.482
6319.723, 1181.909
6321.651, 1181.302
6323.580, 1188.477
6325.508, 1190.282
6327.437, 1188.990
6329.365, 1183.984
6331.293, 1175.010
6333.222, 1184.760
6335.150, 1172.587
6337.079, 1170.105
6339.007, 1167.983
6340.936, 1163.947
6342.864, 1163.904
6344.792, 1161.756
6346.721, 1153.915
6348.649, 1151.327
6350.578, 1150.273
6352.506, 1148.591
6354.435, 1146.756
6356.363, 1144.974
6358.292, 1143.066
6360.220, 1140.609
6362.149, 1138.124
6364.077, 1135.342
6366.006, 1130.558
6367.934, 1127.468
6369.863, 1130.150
6371.791, 1121.733
6373.720, 1126.136
6375.648, 1126.134
6377.577, 1124.186
6379.505, 1128.508
6381.434, 1121.310
6383.362, 1113.898
6385.291, 1113.914
6387.219, 1104.811
6389.147, 1102.391
6391.076, 1106.940
6393.004, 1098.165
6394.933, 1095.979
6396.861, 1093.087
6398.790, 1088.152
6400.718, 1081.692
6402.646, 1082.054
6404.575, 1078.968
6406.503, 1077.417
6408.432, 1075.819
6410.360, 1076.183
6412.289, 1070.702
6414.217, 1070.447
6416.146, 1074.801
6418.074, 1071.458
6420.003, 1069.722
6421.931, 1062.798
6423.860, 1057.219
6425.788, 1061.595
6427.717, 1064.431
6429.645, 1058.375
6431.574, 1049.471
6433.502, 1040.793
6435.431, 1042.637
6437.359, 1037.804
6439.288, 1048.014
6441.216, 1040.108
6443.145, 1046.217
6445.073, 1054.462
6447.001, 1038.832
6448.930, 1034.499
6450.858, 1030.847
6452.787, 1034.169
6454.715, 1033.394
6456.644, 1024.281
6458.572, 1024.713
6460.500, 1028.043
6462.429, 1018.768
6464.357, 1018.311
6466.286, 1019.468
6468.214, 1019.035
6470.143, 1014.419
6472.071, 1014.192
6474.000, 1007.550
6475.928, 1008.786
6477.857, 1007.199
6479.785, 1002.737
6481.714, 1000.639
6483.642, 999.4255
6485.571, 997.4188
6487.499, 997.0111
6489.428, 995.4215
6491.356, 994.3846
6493.285, 992.8611
6495.213, 987.1211
6497.142, 982.8322
6499.070, 982.6818
6500.999, 974.3685
6502.927, 975.1472
6504.855, 967.3877
6506.784, 963.3205
6508.712, 969.5182
6510.641, 974.8624
6512.569, 969.8825
6514.498, 964.3838
6516.426, 966.0372
6518.354, 959.2057
6520.283, 961.2050
6522.211, 959.8138
6524.140, 950.0503
6526.068, 945.5667
6527.997, 958.6949
6529.925, 944.2072
6531.854, 956.2344
6533.782, 950.1786
6535.711, 941.6693
6537.639, 937.9679
6539.568, 941.1432
6541.496, 944.5957
6543.425, 930.8704
6545.353, 939.9479
6547.282, 926.3906
6549.210, 933.5435
6551.139, 929.5275
6553.067, 921.0471
6554.996, 921.3553
6556.924, 923.2772
6558.853, 919.1947
6560.781, 924.8157
6562.709, 920.0692
6564.638, 924.3976
6566.566, 920.5842
6568.495, 912.0927
6570.423, 908.6662
6572.352, 908.7651
6574.280, 914.4541
6576.208, 910.4542
6578.137, 904.5373
6580.065, 900.7603
6581.994, 898.7596
6583.922, 897.8013
6585.851, 895.1963
6587.779, 892.0306
6589.708, 907.0420
6591.636, 896.1644
6593.565, 898.8989
6595.493, 887.8954
6597.422, 884.7100
6599.350, 889.5368
6601.279, 891.7805
##END=



