##NAMES=Leucophosphite
##RRUFFID=R060338
##IDEAL CHEMISTRY=KFe^3+^_2_(PO_4_)_2_(OH)·2H_2_O
##LOCALITY=Gunheath pit, St. Austell, Cornwall, England
##OWNER=RRUFF
##SOURCE=Michael Scott
##DESCRIPTION=White to pale pink spherical aggregates associated with green chalcosiderite, R060339, and orange cyrilovite, R060504
##STATUS=The identification of this mineral is confirmed by single-crystal X-ray diffraction and chemical analysis
##URL=https://www.rruff.net/odr/rruff_sample/R060338
##MEASURED CHEMISTRY=K_1.00_(Fe^3+^_1.90_Al_0.10_)(P_1.00_O_4_)_2_(OH)·2.75H_2_O ; H_2_O estimated by difference  (OH) by charge balance
##DIFFRACTION SAMPLE DESCRIPTION=Single crystal, powder profile is calculated
##CELL PARAMETERS=a: 9.745 b: 9.65 c: 9.716 alpha: 90 beta: 102.41 gamma: 90 volume: 892.4 crystal system: monoclinic
##FILETYPE=Raman RAW
##RAMAN WAVELENGTH=532

159.7231, 1783.643
161.6516, 1909.552
163.5801, 2015.011
165.5085, 2093.048
167.4370, 2088.196
169.3655, 2047.274
171.2939, 2010.375
173.2224, 1978.668
175.1509, 1950.985
177.0793, 1931.628
179.0078, 1919.943
180.9363, 1916.975
182.8647, 1927.857
184.7932, 1955.020
186.7217, 1987.194
188.6501, 2021.831
190.5786, 2059.965
192.5071, 2091.757
194.4355, 2112.741
196.3640, 2129.879
198.2925, 2151.295
200.2209, 2177.877
202.1494, 2205.884
204.0779, 2233.682
206.0063, 2261.034
207.9348, 2290.348
209.8633, 2324.470
211.7918, 2358.419
213.7202, 2388.263
215.6487, 2414.135
217.5772, 2435.826
219.5056, 2450.449
221.4341, 2457.746
223.3626, 2464.022
225.2910, 2471.697
227.2195, 2477.559
229.1480, 2479.126
231.0764, 2471.788
233.0049, 2465.492
234.9334, 2459.675
236.8618, 2455.194
238.7903, 2460.794
240.7188, 2475.486
242.6472, 2501.513
244.5757, 2544.651
246.5042, 2606.387
248.4326, 2676.880
250.3611, 2758.329
252.2896, 2850.104
254.2180, 2933.823
256.1465, 3012.799
258.0750, 3082.719
260.0034, 3136.304
261.9319, 3169.161
263.8604, 3201.488
265.7888, 3235.041
267.7173, 3269.833
269.6458, 3309.375
271.5742, 3361.718
273.5027, 3414.615
275.4312, 3465.781
277.3596, 3519.932
279.2881, 3561.908
281.2166, 3587.829
283.1450, 3598.007
285.0735, 3595.557
287.0020, 3573.984
288.9304, 3543.649
290.8589, 3508.956
292.7874, 3467.562
294.7158, 3429.890
296.6443, 3398.939
298.5728, 3376.818
300.5012, 3363.863
302.4297, 3366.514
304.3582, 3371.563
306.2866, 3376.752
308.2151, 3379.244
310.1436, 3366.716
312.0720, 3331.409
314.0005, 3286.109
315.9290, 3239.771
317.8574, 3188.095
319.7859, 3144.046
321.7144, 3110.392
323.6428, 3087.087
325.5713, 3070.531
327.4998, 3068.826
329.4282, 3068.303
331.3567, 3063.237
333.2852, 3052.148
335.2137, 3033.184
337.1421, 3001.208
339.0706, 2955.041
340.9991, 2896.423
342.9275, 2816.697
344.8560, 2730.436
346.7845, 2641.547
348.7129, 2555.126
350.6414, 2474.787
352.5699, 2402.469
354.4983, 2341.654
356.4268, 2293.748
358.3553, 2264.168
360.2837, 2242.865
362.2122, 2228.667
364.1407, 2220.872
366.0691, 2219.322
367.9976, 2222.649
369.9261, 2232.260
371.8545, 2248.775
373.7830, 2272.811
375.7115, 2299.366
377.6399, 2329.261
379.5684, 2360.984
381.4969, 2392.490
383.4253, 2422.883
385.3538, 2457.822
387.2823, 2498.451
389.2107, 2545.398
391.1392, 2595.930
393.0677, 2652.039
394.9961, 2714.450
396.9246, 2783.609
398.8531, 2862.417
400.7815, 2938.509
402.7100, 3012.922
404.6385, 3080.820
406.5669, 3141.833
408.4954, 3195.556
410.4239, 3231.443
412.3523, 3248.132
414.2808, 3243.824
416.2093, 3220.935
418.1377, 3175.334
420.0662, 3119.118
421.9947, 3058.124
423.9231, 2992.464
425.8516, 2926.376
427.7801, 2864.211
429.7085, 2806.560
431.6370, 2748.714
433.5655, 2689.062
435.4939, 2630.650
437.4224, 2572.471
439.3509, 2511.512
441.2793, 2452.712
443.2078, 2394.611
445.1363, 2339.758
447.0647, 2287.454
448.9932, 2241.637
450.9217, 2203.858
452.8501, 2174.274
454.7786, 2153.544
456.7071, 2144.044
458.6355, 2144.360
460.5640, 2151.827
462.4925, 2167.126
464.4209, 2188.644
466.3494, 2215.703
468.2779, 2252.254
470.2063, 2292.235
472.1348, 2336.373
474.0633, 2381.843
475.9917, 2423.280
477.9202, 2462.155
479.8487, 2492.661
481.7771, 2513.563
483.7056, 2516.490
485.6341, 2508.585
487.5625, 2489.608
489.4910, 2460.695
491.4195, 2420.278
493.3479, 2368.858
495.2764, 2313.579
497.2049, 2256.003
499.1333, 2195.316
501.0618, 2131.512
502.9903, 2061.758
504.9187, 1991.914
506.8472, 1922.086
508.7757, 1855.745
510.7041, 1795.867
512.6326, 1740.388
514.5610, 1690.057
516.4895, 1648.558
518.4180, 1616.017
520.3464, 1587.267
522.2749, 1561.895
524.2034, 1539.347
526.1318, 1519.793
528.0603, 1501.878
529.9888, 1487.910
531.9172, 1479.024
533.8457, 1474.793
535.7742, 1474.124
537.7026, 1477.839
539.6311, 1485.010
541.5596, 1495.433
543.4880, 1509.807
545.4165, 1523.961
547.3450, 1538.433
549.2734, 1551.267
551.2019, 1562.094
553.1304, 1570.771
555.0588, 1578.379
556.9873, 1584.182
558.9158, 1589.934
560.8442, 1596.891
562.7727, 1604.741
564.7012, 1615.603
566.6296, 1629.715
568.5581, 1646.217
570.4866, 1667.433
572.4150, 1692.916
574.3435, 1723.256
576.2720, 1758.924
578.2005, 1801.504
580.1290, 1849.530
582.0574, 1905.192
583.9859, 1964.712
585.9144, 2025.250
587.8428, 2086.266
589.7713, 2150.494
591.6998, 2212.356
593.6282, 2279.561
595.5567, 2360.204
597.4852, 2453.889
599.4136, 2557.677
601.3421, 2676.852
603.2706, 2805.560
605.1990, 2930.476
607.1275, 3059.394
609.0560, 3172.680
610.9844, 3269.730
612.9129, 3343.443
614.8414, 3395.795
616.7698, 3420.373
618.6983, 3431.016
620.6268, 3426.102
622.5552, 3413.087
624.4837, 3395.896
626.4122, 3377.574
628.3406, 3350.835
630.2691, 3317.915
632.1976, 3276.355
634.1260, 3210.480
636.0545, 3116.921
637.9830, 3003.088
639.9114, 2863.609
641.8399, 2700.159
643.7684, 2545.190
645.6968, 2396.873
647.6253, 2263.383
649.5538, 2149.036
651.4822, 2057.169
653.4107, 1977.773
655.3392, 1913.076
657.2676, 1857.986
659.1961, 1808.388
661.1246, 1764.280
663.0530, 1723.084
664.9815, 1683.246
666.9100, 1646.370
668.8384, 1615.472
670.7669, 1592.835
672.6954, 1573.984
674.6238, 1559.283
676.5523, 1548.291
678.4808, 1539.537
680.4092, 1533.533
682.3377, 1528.679
684.2662, 1524.154
686.1946, 1520.101
688.1231, 1517.549
690.0516, 1517.793
691.9800, 1517.968
693.9085, 1516.779
695.8370, 1514.760
697.7654, 1513.774
699.6939, 1514.472
701.6224, 1515.639
703.5508, 1516.736
705.4793, 1517.754
707.4078, 1519.151
709.3362, 1521.406
711.2647, 1523.610
713.1932, 1525.008
715.1216, 1525.734
717.0501, 1527.891
718.9786, 1533.343
720.9070, 1539.297
722.8355, 1544.379
724.7640, 1548.540
726.6924, 1551.921
728.6209, 1553.230
730.5494, 1554.609
732.4778, 1557.623
734.4063, 1562.408
736.3348, 1567.842
738.2632, 1574.080
740.1917, 1580.498
742.1202, 1586.570
744.0486, 1592.506
745.9771, 1598.533
747.9056, 1604.800
749.8340, 1610.720
751.7625, 1616.639
753.6910, 1622.765
755.6194, 1629.173
757.5479, 1635.912
759.4764, 1642.939
761.4048, 1649.709
763.3333, 1656.043
765.2618, 1662.554
767.1902, 1669.506
769.1187, 1675.932
771.0472, 1681.615
772.9756, 1686.213
774.9041, 1691.517
776.8326, 1697.974
778.7610, 1704.230
780.6895, 1709.959
782.6180, 1715.657
784.5464, 1720.072
786.4749, 1721.859
788.4034, 1722.815
790.3318, 1725.408
792.2603, 1731.275
794.1888, 1736.182
796.1172, 1738.406
798.0457, 1738.316
799.9742, 1738.719
801.9026, 1739.288
803.8311, 1740.682
805.7596, 1743.657
807.6880, 1747.873
809.6165, 1751.638
811.5450, 1754.721
813.4734, 1757.813
815.4019, 1760.673
817.3304, 1762.563
819.2589, 1765.842
821.1873, 1771.382
823.1158, 1777.526
825.0443, 1783.337
826.9727, 1789.344
828.9012, 1796.379
830.8297, 1804.886
832.7581, 1812.946
834.6866, 1820.011
836.6151, 1826.076
838.5435, 1832.659
840.4720, 1840.310
842.4005, 1847.131
844.3289, 1852.832
846.2574, 1857.123
848.1859, 1860.209
850.1143, 1862.415
852.0428, 1862.428
853.9713, 1859.107
855.8997, 1854.304
857.8282, 1848.420
859.7567, 1840.828
861.6851, 1833.206
863.6136, 1826.258
865.5421, 1818.084
867.4705, 1807.510
869.3990, 1795.395
871.3275, 1784.925
873.2559, 1778.474
875.1844, 1771.112
877.1129, 1761.677
879.0413, 1753.950
880.9698, 1748.822
882.8983, 1745.957
884.8267, 1741.964
886.7552, 1737.039
888.6837, 1733.005
890.6121, 1731.634
892.5406, 1734.400
894.4691, 1738.528
896.3975, 1741.775
898.3260, 1742.261
900.2545, 1743.577
902.1829, 1747.456
904.1114, 1748.676
906.0399, 1754.462
907.9683, 1754.058
909.8968, 1755.502
911.8253, 1759.216
913.7537, 1764.597
915.6822, 1771.808
917.6107, 1781.202
919.5391, 1792.077
921.4676, 1803.778
923.3961, 1816.808
925.3245, 1832.009
927.2530, 1849.957
929.1815, 1868.931
931.1099, 1888.450
933.0384, 1909.393
934.9669, 1931.777
936.8953, 1957.723
938.8238, 1988.211
940.7523, 2022.304
942.6807, 2061.913
944.6092, 2107.919
946.5377, 2162.079
948.4661, 2225.588
950.3946, 2299.452
952.3231, 2380.080
954.2515, 2466.456
956.1800, 2563.397
958.1085, 2661.334
960.0369, 2760.462
961.9654, 2865.924
963.8939, 2976.786
965.8223, 3090.164
967.7508, 3215.762
969.6793, 3343.480
971.6077, 3472.683
973.5362, 3605.833
975.4647, 3744.333
977.3931, 3880.524
979.3216, 4027.106
981.2501, 4176.580
983.1785, 4326.485
985.1070, 4484.763
987.0355, 4663.384
988.9639, 4846.439
990.8924, 5016.324
992.8209, 5162.635
994.7493, 5267.597
996.6778, 5321.102
998.6063, 5333.159
1000.535, 5278.962
1002.463, 5161.713
1004.392, 5012.062
1006.320, 4838.071
1008.249, 4650.765
1010.177, 4492.228
1012.106, 4376.424
1014.034, 4295.931
1015.962, 4248.661
1017.891, 4232.287
1019.819, 4225.808
1021.748, 4230.719
1023.676, 4242.591
1025.605, 4256.277
1027.533, 4273.959
1029.462, 4306.409
1031.390, 4347.624
1033.319, 4402.733
1035.247, 4465.066
1037.176, 4533.442
1039.104, 4612.372
1041.032, 4710.884
1042.961, 4826.798
1044.889, 4973.113
1046.818, 5151.728
1048.746, 5352.664
1050.675, 5561.406
1052.603, 5781.211
1054.532, 5995.394
1056.460, 6150.588
1058.389, 6232.501
1060.317, 6225.039
1062.246, 6101.010
1064.174, 5859.565
1066.103, 5544.526
1068.031, 5171.876
1069.959, 4773.128
1071.888, 4393.389
1073.817, 4035.612
1075.745, 3728.647
1077.673, 3473.982
1079.602, 3270.378
1081.530, 3110.865
1083.459, 2993.770
1085.387, 2895.763
1087.316, 2817.129
1089.244, 2746.219
1091.173, 2686.448
1093.101, 2639.420
1095.030, 2602.859
1096.958, 2580.031
1098.887, 2565.883
1100.815, 2553.957
1102.744, 2544.382
1104.672, 2536.348
1106.600, 2530.237
1108.529, 2521.605
1110.457, 2507.547
1112.386, 2488.001
1114.314, 2464.086
1116.243, 2436.362
1118.171, 2412.326
1120.100, 2392.418
1122.028, 2377.281
1123.957, 2369.512
1125.885, 2369.890
1127.814, 2375.602
1129.742, 2384.069
1131.671, 2393.178
1133.599, 2404.591
1135.527, 2415.382
1137.456, 2419.485
1139.384, 2415.551
1141.313, 2402.234
1143.241, 2380.210
1145.170, 2356.402
1147.098, 2333.739
1149.027, 2312.583
1150.955, 2294.719
1152.884, 2279.130
1154.812, 2268.345
1156.741, 2263.919
1158.669, 2265.308
1160.598, 2272.406
1162.526, 2287.040
1164.454, 2303.917
1166.383, 2320.882
1168.311, 2339.028
1170.240, 2358.313
1172.168, 2379.541
1174.097, 2398.365
1176.025, 2418.392
1177.954, 2427.862
1179.882, 2422.582
1181.811, 2405.012
1183.739, 2382.073
1185.668, 2353.595
1187.596, 2322.199
1189.525, 2287.504
1191.453, 2252.205
1193.381, 2220.371
1195.310, 2192.446
1197.238, 2166.055
1199.167, 2139.160
1201.095, 2114.972
1203.024, 2093.980
1204.952, 2075.750
1206.881, 2060.178
1208.809, 2047.912
1210.738, 2036.566
1212.666, 2025.825
1214.595, 2016.644
1216.523, 2010.949
1218.452, 2009.324
1220.380, 2007.876
1222.308, 2005.133
1224.237, 2001.837
1226.165, 1999.182
1228.094, 1997.741
1230.022, 1998.050
1231.951, 2000.717
1233.879, 2002.295
1235.808, 2000.630
1237.736, 2000.119
1239.665, 2003.625
1241.593, 2010.218
1243.522, 2012.173
1245.450, 2006.229
1247.379, 2001.561
1249.307, 2001.039
1251.235, 2003.793
1253.164, 2006.244
1255.092, 2008.365
1257.021, 2010.385
1258.949, 2011.842
1260.878, 2013.395
1262.806, 2013.749
1264.735, 2014.085
1266.663, 2013.794
1268.592, 2012.217
1270.520, 2010.481
1272.449, 2008.400
1274.377, 2007.311
1276.306, 2008.488
1278.234, 2012.179
1280.162, 2015.083
1282.091, 2018.544
1284.019, 2019.795
1285.948, 2016.001
1287.876, 2010.338
1289.805, 2007.808
1291.733, 2007.969
1293.662, 2008.013
1295.590, 2006.936
1297.519, 2007.054
1299.447, 2009.222
1301.376, 2012.008
1303.304, 2013.305
1305.233, 2012.977
1307.161, 2011.733
1309.089, 2008.499
1311.018, 2006.169
1312.946, 2007.052
1314.875, 2011.323
1316.803, 2014.154
1318.732, 2013.859
1320.660, 2013.715
1322.589, 2014.311
1324.517, 2015.836
1326.446, 2017.476
1328.374, 2018.842
1330.303, 2020.515
1332.231, 2023.409
1334.160, 2025.412
1336.088, 2025.570
1338.016, 2025.035
1339.945, 2024.467
1341.873, 2023.660
1343.802, 2024.084
1345.730, 2026.875
1347.659, 2030.088
1349.587, 2032.723
1351.516, 2035.004
1353.444, 2037.183
1355.373, 2038.775
1357.301, 2041.292
1359.230, 2046.213
1361.158, 2050.792
1363.087, 2052.995
1365.015, 2053.123
1366.943, 2054.188
1368.872, 2058.070
1370.800, 2060.332
1372.729, 2059.412
1374.657, 2057.993
1376.586, 2057.959
1378.514, 2059.325
1380.443, 2061.706
1382.371, 2066.041
1384.300, 2069.245
1386.228, 2068.774
1388.157, 2067.917
1390.085, 2070.283
1392.014, 2075.184
1393.942, 2078.094
1395.870, 2078.348
1397.799, 2077.172
1399.727, 2073.179
1401.656, 2069.577
1403.584, 2069.664
1405.513, 2073.498
1407.441, 2076.945
1409.370, 2079.994
1411.298, 2082.785
1413.227, 2084.573
1415.155, 2086.331
1417.084, 2089.069
1419.012, 2092.491
1420.941, 2096.448
1422.869, 2102.130
1424.797, 2106.562
1426.726, 2108.410
1428.654, 2109.012
1430.583, 2109.873
1432.511, 2110.945
1434.440, 2112.378
1436.368, 2114.732
1438.297, 2117.020
1440.225, 2118.733
1442.154, 2120.119
1444.082, 2121.597
1446.011, 2123.113
1447.939, 2124.488
1449.868, 2125.999
1451.796, 2126.639
1453.724, 2124.637
1455.653, 2122.631
1457.581, 2124.033
1459.510, 2128.440
1461.438, 2130.636
1463.367, 2129.041
1465.295, 2128.318
1467.224, 2130.056
1469.152, 2132.985
1471.081, 2136.863
1473.009, 2141.599
1474.938, 2143.659
1476.866, 2140.608
1478.795, 2138.806
1480.723, 2140.870
1482.651, 2143.252
1484.580, 2142.745
1486.508, 2139.945
1488.437, 2140.042
1490.365, 2145.949
1492.294, 2150.923
1494.222, 2153.360
1496.151, 2155.526
1498.079, 2159.063
1500.008, 2163.180
1501.936, 2165.755
1503.865, 2166.134
1505.793, 2166.551
1507.722, 2167.621
1509.650, 2168.793
1511.578, 2169.634
1513.507, 2170.493
1515.435, 2172.999
1517.364, 2178.034
1519.292, 2181.499
1521.221, 2181.000
1523.149, 2180.967
1525.078, 2183.923
1527.006, 2187.959
1528.935, 2190.457
1530.863, 2191.614
1532.792, 2194.055
1534.720, 2198.973
1536.649, 2202.905
1538.577, 2203.540
1540.505, 2203.643
1542.434, 2206.289
1544.362, 2211.168
1546.291, 2214.209
1548.219, 2213.800
1550.148, 2214.656
1552.076, 2219.156
1554.005, 2224.567
1555.933, 2228.964
1557.862, 2232.150
1559.790, 2235.238
1561.719, 2238.637
1563.647, 2240.687
1565.576, 2239.294
1567.504, 2239.357
1569.432, 2244.409
1571.361, 2251.701
1573.289, 2255.952
1575.218, 2255.974
1577.146, 2258.398
1579.075, 2265.433
1581.003, 2272.330
1582.932, 2277.365
1584.860, 2281.753
1586.789, 2287.168
1588.717, 2293.441
1590.646, 2297.598
1592.574, 2298.088
1594.503, 2298.862
1596.431, 2300.335
1598.359, 2301.896
1600.288, 2303.185
1602.216, 2304.651
1604.145, 2307.219
1606.073, 2311.794
1608.002, 2315.441
1609.930, 2318.282
1611.859, 2319.989
1613.787, 2318.935
1615.716, 2317.632
1617.644, 2319.013
1619.573, 2322.853
1621.501, 2326.645
1623.430, 2331.318
1625.358, 2334.241
1627.286, 2332.895
1629.215, 2331.979
1631.143, 2335.857
1633.072, 2341.827
1635.000, 2342.642
1636.929, 2337.090
1638.857, 2336.561
1640.786, 2346.348
1642.714, 2354.421
1644.643, 2356.057
1646.571, 2354.895
1648.500, 2353.777
1650.428, 2352.556
1652.357, 2351.133
1654.285, 2349.623
1656.214, 2347.417
1658.142, 2344.543
1660.070, 2341.123
1661.999, 2337.214
1663.927, 2333.075
1665.856, 2328.765
1667.784, 2324.417
1669.713, 2320.966
1671.641, 2318.386
1673.570, 2317.060
1675.498, 2318.021
1677.427, 2319.381
1679.355, 2319.566
1681.284, 2319.386
1683.212, 2320.525
1685.141, 2322.892
1687.069, 2325.080
1688.997, 2327.315
1690.926, 2328.096
1692.854, 2325.789
1694.783, 2322.756
1696.711, 2321.032
1698.640, 2320.121
1700.568, 2318.356
1702.497, 2315.523
1704.425, 2314.214
1706.354, 2316.320
1708.282, 2317.260
1710.211, 2313.827
1712.139, 2309.778
1714.068, 2309.041
1715.996, 2310.824
1717.924, 2311.728
1719.853, 2311.346
1721.781, 2313.583
1723.710, 2321.427
1725.638, 2328.039
1727.567, 2328.426
1729.495, 2327.063
1731.424, 2328.852
1733.352, 2332.518
1735.281, 2333.559
1737.209, 2331.084
1739.138, 2330.015
1741.066, 2332.302
1742.995, 2335.273
1744.923, 2339.799
1746.851, 2343.656
1748.780, 2343.425
1750.708, 2340.324
1752.637, 2339.669
1754.565, 2341.831
1756.494, 2344.096
1758.422, 2346.419
1760.351, 2347.685
1762.279, 2346.282
1764.208, 2344.425
1766.136, 2344.982
1768.065, 2343.907
1769.993, 2343.383
1771.922, 2344.526
1773.850, 2343.436
1775.778, 2346.000
1777.707, 2348.359
1779.635, 2348.658
1781.564, 2348.782
1783.492, 2350.499
1785.421, 2353.247
1787.349, 2355.327
1789.278, 2356.500
1791.206, 2357.845
1793.135, 2360.120
1795.063, 2361.570
1796.992, 2361.330
1798.920, 2360.843
1800.849, 2360.996
1802.777, 2361.794
1804.705, 2363.169
1806.634, 2365.176
1808.562, 2367.769
1810.491, 2371.193
1812.419, 2374.744
1814.348, 2378.574
1816.276, 2381.862
1818.205, 2383.242
1820.133, 2384.040
1822.062, 2386.590
1823.990, 2390.726
1825.919, 2393.333
1827.847, 2394.016
1829.776, 2394.319
1831.704, 2395.012
1833.632, 2395.083
1835.561, 2393.135
1837.489, 2391.715
1839.418, 2394.226
1841.346, 2399.074
1843.275, 2399.760
1845.203, 2394.759
1847.132, 2393.604
1849.060, 2398.717
1850.989, 2403.483
1852.917, 2406.966
1854.846, 2408.842
1856.774, 2408.352
1858.703, 2406.566
1860.631, 2404.884
1862.559, 2403.365
1864.488, 2402.081
1866.416, 2401.003
1868.345, 2400.849
1870.273, 2402.009
1872.202, 2404.023
1874.130, 2408.563
1876.059, 2412.300
1877.987, 2411.235
1879.916, 2407.886
1881.844, 2407.236
1883.773, 2409.133
1885.701, 2411.616
1887.630, 2414.415
1889.558, 2417.125
1891.486, 2419.714
1893.415, 2421.879
1895.343, 2423.599
1897.272, 2424.991
1899.200, 2426.228
1901.129, 2427.539
1903.057, 2429.531
1904.986, 2432.922
1906.914, 2434.433
1908.843, 2430.860
1910.771, 2430.271
1912.700, 2434.876
1914.628, 2440.971
1916.557, 2447.415
1918.485, 2453.292
1920.413, 2457.017
1922.342, 2458.975
1924.270, 2462.214
1926.199, 2467.600
1928.127, 2471.981
1930.056, 2475.528
1931.984, 2478.195
1933.913, 2478.196
1935.841, 2479.512
1937.770, 2485.711
1939.698, 2492.825
1941.627, 2496.099
1943.555, 2496.138
1945.484, 2496.023
1947.412, 2495.931
1949.340, 2494.298
1951.269, 2490.450
1953.197, 2487.230
1955.126, 2484.613
1957.054, 2484.385
1958.983, 2488.713
1960.911, 2495.055
1962.840, 2501.506
1964.768, 2507.599
1966.697, 2512.130
1968.625, 2514.875
1970.554, 2515.860
1972.482, 2513.904
1974.411, 2512.293
1976.339, 2510.876
1978.267, 2510.807
1980.196, 2514.105
1982.124, 2517.911
1984.053, 2519.980
1985.981, 2520.965
1987.910, 2521.957
1989.838, 2522.937
1991.767, 2523.211
1993.695, 2521.970
1995.624, 2521.462
1997.552, 2521.559
1999.481, 2522.455
2001.409, 2524.986
2003.338, 2527.509
2005.266, 2530.621
2007.194, 2532.356
2009.123, 2528.472
2011.051, 2521.123
2012.980, 2518.220
2014.908, 2519.950
2016.837, 2520.905
2018.765, 2520.318
2020.694, 2519.990
2022.622, 2520.767
2024.551, 2521.713
2026.479, 2522.932
2028.408, 2523.987
2030.336, 2524.104
2032.265, 2523.811
2034.193, 2523.882
2036.121, 2524.131
2038.050, 2524.698
2039.978, 2525.380
2041.907, 2526.595
2043.835, 2529.619
2045.764, 2531.451
2047.692, 2531.207
2049.621, 2531.047
2051.549, 2530.931
2053.478, 2532.305
2055.406, 2538.032
2057.334, 2544.936
2059.263, 2545.884
2061.192, 2541.854
2063.120, 2540.113
2065.049, 2541.005
2066.977, 2542.344
2068.906, 2544.918
2070.834, 2545.491
2072.762, 2541.634
2074.691, 2538.354
2076.619, 2538.069
2078.548, 2539.243
2080.476, 2542.100
2082.405, 2544.775
2084.333, 2542.625
2086.262, 2536.643
2088.190, 2535.781
2090.119, 2541.776
2092.047, 2545.000
2093.976, 2543.122
2095.904, 2543.585
2097.833, 2548.629
2099.761, 2553.546
2101.689, 2557.185
2103.618, 2558.842
2105.546, 2557.707
2107.475, 2554.775
2109.403, 2550.263
2111.332, 2545.572
2113.260, 2544.519
2115.189, 2547.338
2117.117, 2549.819
2119.046, 2551.659
2120.974, 2553.512
2122.903, 2554.793
2124.831, 2556.258
2126.760, 2559.173
2128.688, 2560.385
2130.616, 2556.962
2132.545, 2553.177
2134.473, 2552.319
2136.402, 2553.675
2138.330, 2556.987
2140.259, 2561.301
2142.187, 2562.545
2144.116, 2560.607
2146.044, 2559.359
2147.973, 2559.198
2149.901, 2559.368
2151.830, 2560.504
2153.758, 2561.464
2155.687, 2562.175
2157.615, 2562.969
2159.543, 2564.127
2161.472, 2564.893
2163.400, 2563.185
2165.329, 2560.757
2167.257, 2560.696
2169.186, 2562.392
2171.114, 2564.832
2173.043, 2568.241
2174.971, 2568.647
2176.900, 2566.010
2178.828, 2563.550
2180.757, 2561.234
2182.685, 2561.502
2184.614, 2567.238
2186.542, 2571.469
2188.470, 2567.176
2190.399, 2564.249
2192.327, 2572.646
2194.256, 2583.460
2196.184, 2585.593
2198.113, 2582.416
2200.041, 2582.030
2201.970, 2584.238
2203.898, 2584.076
2205.827, 2581.214
2207.755, 2579.515
2209.684, 2579.322
2211.612, 2579.177
2213.541, 2578.813
2215.469, 2578.736
2217.397, 2579.810
2219.326, 2580.612
2221.254, 2579.995
2223.183, 2579.476
2225.111, 2580.060
2227.040, 2581.291
2228.968, 2582.418
2230.897, 2583.732
2232.825, 2586.665
2234.754, 2587.694
2236.682, 2589.349
2238.611, 2591.406
2240.539, 2591.754
2242.468, 2594.358
2244.396, 2595.126
2246.324, 2593.466
2248.253, 2589.646
2250.181, 2579.247
2252.110, 2573.454
2254.038, 2580.550
2255.967, 2588.536
2257.895, 2589.651
2259.824, 2588.883
2261.752, 2590.828
2263.681, 2594.078
2265.609, 2596.403
2267.538, 2597.920
2269.466, 2599.158
2271.395, 2600.096
2273.323, 2601.223
2275.251, 2602.590
2277.180, 2604.083
2279.108, 2606.082
2281.037, 2607.204
2282.965, 2605.895
2284.894, 2605.969
2286.822, 2609.875
2288.751, 2612.593
2290.679, 2610.538
2292.608, 2609.075
2294.536, 2612.629
2296.465, 2616.347
2298.393, 2614.608
2300.322, 2612.022
2302.250, 2616.815
2304.178, 2613.109
2306.107, 2622.450
2308.035, 2613.001
2309.964, 2610.639
2311.892, 2616.256
2313.821, 2620.403
2315.749, 2622.908
2317.678, 2624.222
2319.606, 2624.103
2321.535, 2623.692
2323.463, 2624.174
2325.392, 2621.669
2327.320, 2611.631
2329.249, 2604.881
2331.177, 2608.379
2333.105, 2613.855
2335.034, 2617.475
2336.962, 2619.765
2338.891, 2620.632
2340.819, 2620.398
2342.748, 2618.679
2344.676, 2616.409
2346.605, 2616.229
2348.533, 2617.479
2350.462, 2618.134
2352.390, 2618.376
2354.319, 2618.169
2356.247, 2617.568
2358.176, 2617.839
2360.104, 2616.701
2362.032, 2615.382
2363.961, 2615.404
2365.889, 2614.608
2367.818, 2613.398
2369.746, 2613.837
2371.675, 2613.277
2373.603, 2612.477
2375.532, 2611.260
2377.460, 2611.072
2379.389, 2612.880
2381.317, 2615.513
2383.246, 2618.089
2385.174, 2620.281
2387.103, 2622.397
2389.031, 2623.144
2390.959, 2619.469
2392.888, 2619.736
2394.816, 2617.850
2396.745, 2615.135
2398.673, 2613.995
2400.602, 2609.979
2402.530, 2606.770
2404.459, 2604.072
2406.387, 2605.806
2408.316, 2614.936
2410.244, 2618.704
2412.173, 2614.810
2414.101, 2611.687
2416.030, 2610.406
2417.958, 2609.579
2419.886, 2609.819
2421.815, 2608.696
2423.743, 2602.969
2425.672, 2599.527
2427.600, 2602.156
2429.529, 2606.298
2431.457, 2610.268
2433.386, 2614.361
2435.314, 2619.161
2437.243, 2623.665
2439.171, 2626.694
2441.100, 2628.509
2443.028, 2629.027
2444.957, 2628.218
2446.885, 2625.935
2448.813, 2622.580
2450.742, 2619.678
2452.670, 2617.343
2454.599, 2615.154
2456.527, 2613.611
2458.456, 2612.104
2460.384, 2611.116
2462.313, 2613.411
2464.241, 2619.206
2466.170, 2622.254
2468.098, 2619.976
2470.027, 2621.035
2471.955, 2629.209
2473.884, 2632.692
2475.812, 2629.261
2477.740, 2625.067
2479.669, 2620.948
2481.597, 2616.924
2483.526, 2613.032
2485.454, 2610.832
2487.383, 2612.710
2489.311, 2614.759
2491.240, 2614.907
2493.168, 2615.957
2495.097, 2619.879
2497.025, 2623.719
2498.954, 2624.871
2500.882, 2625.156
2502.811, 2624.989
2504.739, 2624.783
2506.667, 2626.050
2508.596, 2626.544
2510.524, 2623.467
2512.453, 2618.683
2514.381, 2614.083
2516.310, 2610.784
2518.238, 2611.235
2520.167, 2614.313
2522.095, 2617.893
2524.024, 2621.016
2525.952, 2619.837
2527.881, 2615.322
2529.809, 2614.849
2531.738, 2618.045
2533.666, 2620.608
2535.594, 2622.656
2537.523, 2619.229
2539.451, 2610.658
2541.380, 2607.659
2543.308, 2611.442
2545.237, 2614.658
2547.165, 2616.596
2549.094, 2617.788
2551.022, 2617.417
2552.951, 2618.350
2554.879, 2621.513
2556.808, 2622.403
2558.736, 2619.562
2560.665, 2618.376
2562.593, 2621.022
2564.521, 2622.972
2566.450, 2622.033
2568.378, 2622.135
2570.307, 2624.527
2572.235, 2626.806
2574.164, 2629.318
2576.092, 2629.663
2578.021, 2624.521
2579.949, 2621.960
2581.878, 2628.574
2583.806, 2633.929
2585.735, 2631.803
2587.663, 2629.935
2589.592, 2633.138
2591.520, 2635.889
2593.448, 2633.934
2595.377, 2632.641
2597.305, 2637.016
2599.234, 2640.901
2601.162, 2639.044
2603.091, 2635.988
2605.019, 2635.573
2606.948, 2635.723
2608.876, 2635.009
2610.805, 2634.189
2612.733, 2633.183
2614.662, 2633.376
2616.590, 2636.358
2618.519, 2640.841
2620.447, 2645.897
2622.375, 2650.475
2624.304, 2653.458
2626.232, 2654.676
2628.161, 2653.715
2630.089, 2651.202
2632.018, 2646.680
2633.946, 2642.527
2635.875, 2644.794
2637.803, 2649.064
2639.732, 2644.419
2641.660, 2648.489
2643.589, 2640.120
2645.517, 2648.185
2647.446, 2646.119
2649.374, 2638.965
2651.302, 2638.300
2653.231, 2641.973
2655.159, 2644.815
2657.088, 2646.724
2659.016, 2647.386
2660.945, 2646.917
2662.873, 2645.224
2664.802, 2643.004
2666.730, 2642.357
2668.659, 2643.027
2670.587, 2643.765
2672.516, 2644.553
2674.444, 2645.269
2676.373, 2645.814
2678.301, 2645.789
2680.229, 2645.612
2682.158, 2648.723
2684.086, 2647.482
2686.015, 2646.016
2687.943, 2646.322
2689.872, 2641.941
2691.800, 2639.415
2693.729, 2639.619
2695.657, 2641.849
2697.586, 2642.843
2699.514, 2642.899
2701.443, 2643.700
2703.371, 2645.041
2705.300, 2643.485
2707.228, 2644.970
2709.156, 2641.271
2711.085, 2645.264
2713.013, 2645.952
2714.942, 2644.111
2716.870, 2646.186
2718.799, 2651.194
2720.727, 2654.160
2722.656, 2655.104
2724.584, 2652.025
2726.513, 2653.833
2728.441, 2653.330
2730.370, 2652.865
2732.298, 2654.232
2734.227, 2652.850
2736.155, 2653.846
2738.083, 2656.514
2740.012, 2659.340
2741.940, 2662.040
2743.869, 2664.522
2745.797, 2665.972
2747.726, 2661.586
2749.654, 2654.414
2751.583, 2654.399
2753.511, 2658.721
2755.440, 2660.911
2757.368, 2661.587
2759.297, 2661.820
2761.225, 2662.107
2763.154, 2664.961
2765.082, 2668.141
2767.010, 2665.395
2768.939, 2660.821
2770.867, 2662.016
2772.796, 2665.867
2774.724, 2667.375
2776.653, 2667.455
2778.581, 2667.141
2780.510, 2666.606
2782.438, 2665.188
2784.367, 2664.510
2786.295, 2668.496
2788.224, 2672.537
2790.152, 2669.562
2792.081, 2671.485
2794.009, 2666.741
2795.938, 2668.982
2797.866, 2666.368
2799.794, 2663.565
2801.723, 2664.955
2803.651, 2667.322
2805.580, 2668.865
2807.508, 2669.265
2809.437, 2668.260
2811.365, 2666.874
2813.294, 2666.622
2815.222, 2665.908
2817.151, 2663.592
2819.079, 2661.179
2821.008, 2657.816
2822.936, 2656.745
2824.865, 2659.850
2826.793, 2663.971
2828.721, 2668.473
2830.650, 2671.877
2832.578, 2673.714
2834.507, 2674.012
2836.435, 2672.031
2838.364, 2670.985
2840.292, 2673.913
2842.221, 2674.764
2844.149, 2672.156
2846.078, 2669.645
2848.006, 2667.634
2849.935, 2665.540
2851.863, 2662.436
2853.792, 2662.552
2855.720, 2668.455
2857.648, 2671.262
2859.577, 2670.572
2861.505, 2669.955
2863.434, 2669.642
2865.362, 2671.379
2867.291, 2675.262
2869.219, 2678.293
2871.148, 2680.344
2873.076, 2680.974
2875.005, 2680.440
2876.933, 2679.397
2878.862, 2678.659
2880.790, 2681.850
2882.719, 2687.366
2884.647, 2690.097
2886.575, 2690.364
2888.504, 2687.634
2890.432, 2684.109
2892.361, 2684.202
2894.289, 2685.292
2896.218, 2683.428
2898.146, 2680.868
2900.075, 2678.494
2902.003, 2678.459
2903.932, 2684.052
2905.860, 2690.230
2907.789, 2693.078
2909.717, 2695.100
2911.646, 2698.752
2913.574, 2700.505
2915.502, 2697.784
2917.431, 2695.203
2919.359, 2693.731
2921.288, 2694.548
2923.216, 2698.355
2925.145, 2702.349
2927.073, 2705.542
2929.002, 2708.970
2930.930, 2708.574
2932.859, 2715.192
2934.787, 2707.370
2936.716, 2703.472
2938.644, 2704.456
2940.573, 2708.954
2942.501, 2709.035
2944.429, 2712.962
2946.358, 2716.409
2948.286, 2719.511
2950.215, 2723.106
2952.143, 2729.688
2954.072, 2730.699
2956.000, 2735.717
2957.929, 2741.659
2959.857, 2740.839
2961.786, 2746.537
2963.714, 2745.041
2965.643, 2751.747
2967.571, 2752.128
2969.500, 2750.747
2971.428, 2750.522
2973.356, 2750.660
2975.285, 2750.784
2977.213, 2751.494
2979.142, 2753.265
2981.070, 2755.577
2982.999, 2758.178
2984.927, 2761.810
2986.856, 2767.458
2988.784, 2770.527
2990.713, 2767.405
2992.641, 2768.914
2994.570, 2775.423
2996.498, 2781.055
2998.427, 2785.513
3000.355, 2789.653
3002.283, 2793.496
3004.212, 2796.848
3006.140, 2800.081
3008.069, 2804.700
3009.997, 2810.198
3011.926, 2816.668
3013.854, 2822.538
3015.783, 2823.278
3017.711, 2825.079
3019.640, 2836.319
3021.568, 2846.314
3023.497, 2845.064
3025.425, 2844.336
3027.354, 2851.013
3029.282, 2857.053
3031.210, 2860.477
3033.139, 2863.644
3035.067, 2867.288
3036.996, 2871.819
3038.924, 2877.724
3040.853, 2882.934
3042.781, 2887.237
3044.710, 2888.753
3046.638, 2887.626
3048.567, 2888.245
3050.495, 2891.337
3052.424, 2902.694
3054.352, 2917.745
3056.281, 2926.897
3058.209, 2933.617
3060.137, 2942.527
3062.066, 2951.131
3063.994, 2956.581
3065.923, 2960.867
3067.851, 2963.859
3069.780, 2968.199
3071.708, 2970.716
3073.637, 2971.600
3075.565, 2976.769
3077.494, 2973.720
3079.422, 2978.423
3081.351, 2983.447
3083.279, 2988.393
3085.208, 2997.091
3087.136, 3008.944
3089.064, 3017.434
3090.993, 3023.246
3092.921, 3029.476
3094.850, 3035.022
3096.778, 3034.585
3098.707, 3034.969
3100.635, 3046.245
3102.564, 3058.930
3104.492, 3064.666
3106.421, 3070.199
3108.349, 3079.097
3110.278, 3087.640
3112.206, 3093.482
3114.135, 3101.123
3116.063, 3111.179
3117.991, 3121.016
3119.920, 3130.437
3121.848, 3135.500
3123.777, 3136.505
3125.705, 3141.345
3127.634, 3148.792
3129.562, 3154.177
3131.491, 3159.257
3133.419, 3168.480
3135.348, 3177.517
3137.276, 3180.648
3139.205, 3183.357
3141.133, 3188.940
3143.062, 3195.987
3144.990, 3204.531
3146.918, 3213.533
3148.847, 3222.905
3150.775, 3232.052
3152.704, 3240.590
3154.632, 3248.826
3156.561, 3256.778
3158.489, 3268.650
3160.418, 3282.038
3162.346, 3286.365
3164.275, 3296.344
3166.203, 3297.215
3168.132, 3307.793
3170.060, 3308.747
3171.989, 3309.802
3173.917, 3319.466
3175.845, 3328.280
3177.774, 3333.673
3179.702, 3338.134
3181.631, 3341.312
3183.559, 3345.549
3185.488, 3350.356
3187.416, 3358.619
3189.345, 3369.349
3191.273, 3378.857
3193.202, 3386.091
3195.130, 3387.785
3197.059, 3386.936
3198.987, 3387.552
3200.916, 3388.070
3202.844, 3386.107
3204.772, 3386.722
3206.701, 3392.671
3208.629, 3399.361
3210.558, 3405.948
3212.486, 3411.894
3214.415, 3416.845
3216.343, 3421.562
3218.272, 3426.302
3220.200, 3435.383
3222.129, 3445.739
3224.057, 3448.977
3225.986, 3449.285
3227.914, 3450.354
3229.843, 3453.540
3231.771, 3463.170
3233.699, 3469.858
3235.628, 3469.570
3237.556, 3470.528
3239.485, 3474.278
3241.413, 3482.255
3243.342, 3494.593
3245.270, 3501.825
3247.199, 3505.254
3249.127, 3510.901
3251.056, 3518.811
3252.984, 3530.922
3254.913, 3542.996
3256.841, 3551.185
3258.770, 3558.340
3260.698, 3567.149
3262.626, 3572.964
3264.555, 3573.921
3266.483, 3577.513
3268.412, 3585.105
3270.340, 3593.618
3272.269, 3602.844
3274.197, 3612.104
3276.126, 3621.981
3278.054, 3634.816
3279.983, 3648.107
3281.911, 3657.511
3283.840, 3669.520
3285.768, 3687.999
3287.697, 3709.125
3289.625, 3731.177
3291.553, 3756.624
3293.482, 3785.564
3295.410, 3813.385
3297.339, 3840.228
3299.267, 3868.696
3301.196, 3897.987
3303.124, 3924.693
3305.053, 3953.865
3306.981, 3992.972
3308.910, 4032.004
3310.838, 4066.023
3312.767, 4100.886
3314.695, 4140.950
3316.624, 4174.571
3318.552, 4201.900
3320.480, 4227.897
3322.409, 4252.626
3324.337, 4279.163
3326.266, 4299.286
3328.194, 4297.575
3330.123, 4288.921
3332.051, 4286.637
3333.980, 4274.307
3335.908, 4246.299
3337.837, 4214.523
3339.765, 4181.817
3341.694, 4139.770
3343.622, 4089.633
3345.551, 4042.044
3347.479, 3996.233
3349.407, 3950.913
3351.336, 3906.031
3353.264, 3859.980
3355.193, 3816.643
3357.121, 3775.726
3359.050, 3741.751
3360.978, 3715.780
3362.907, 3688.379
3364.835, 3658.925
3366.764, 3626.622
3368.692, 3594.646
3370.621, 3573.891
3372.549, 3554.609
3374.478, 3523.374
3376.406, 3496.713
3378.334, 3485.001
3380.263, 3470.070
3382.191, 3446.163
3384.120, 3431.036
3386.048, 3425.106
3387.977, 3409.010
3389.905, 3400.217
3391.834, 3383.389
3393.762, 3380.156
3395.691, 3366.972
3397.619, 3355.884
3399.548, 3353.695
3401.476, 3351.684
3403.405, 3348.308
3405.333, 3346.107
3407.261, 3345.786
3409.190, 3353.917
3411.118, 3353.930
3413.047, 3364.151
3414.975, 3362.901
3416.904, 3371.429
3418.832, 3379.203
3420.761, 3381.240
3422.689, 3389.831
3424.618, 3408.042
3426.546, 3421.628
3428.475, 3431.483
3430.403, 3443.219
3432.332, 3456.348
3434.260, 3470.988
3436.188, 3485.494
3438.117, 3500.177
3440.045, 3511.378
3441.974, 3516.868
3443.902, 3523.364
3445.831, 3531.048
3447.759, 3535.547
3449.688, 3538.059
3451.616, 3542.080
3453.545, 3544.287
3455.473, 3543.007
3457.402, 3536.607
3459.330, 3522.949
3461.259, 3507.583
3463.187, 3491.228
3465.115, 3469.417
3467.044, 3443.719
3468.972, 3418.930
3470.901, 3394.784
3472.829, 3370.397
3474.758, 3346.788
3476.686, 3327.031
3478.615, 3301.845
3480.543, 3269.597
3482.472, 3233.391
3484.400, 3195.125
3486.329, 3164.731
3488.257, 3140.358
3490.186, 3124.298
3492.114, 3103.476
3494.042, 3064.284
3495.971, 3033.669
3497.899, 3021.908
3499.828, 3004.251
3501.756, 2980.608
3503.685, 2963.862
3505.613, 2948.126
3507.542, 2920.708
3509.470, 2893.723
3511.399, 2874.454
3513.327, 2860.094
3515.256, 2843.311
3517.184, 2830.714
3519.113, 2820.605
3521.041, 2808.360
3522.969, 2800.100
3524.898, 2791.162
3526.826, 2779.792
3528.755, 2761.926
3530.683, 2747.358
3532.612, 2738.922
3534.540, 2727.559
3536.469, 2713.106
3538.397, 2698.214
3540.326, 2685.723
3542.254, 2683.925
3544.183, 2681.156
3546.111, 2668.275
3548.040, 2656.607
3549.968, 2648.162
3551.896, 2636.341
3553.825, 2622.005
3555.753, 2615.944
3557.682, 2605.287
3559.610, 2600.554
3561.539, 2590.198
3563.467, 2585.901
3565.396, 2580.473
3567.324, 2572.534
3569.253, 2563.415
3571.181, 2553.715
3573.110, 2546.803
3575.038, 2539.933
3576.967, 2528.595
3578.895, 2520.140
3580.823, 2518.108
3582.752, 2514.792
3584.680, 2509.387
3586.609, 2506.696
3588.537, 2504.513
3590.466, 2496.327
3592.394, 2489.962
3594.323, 2493.264
3596.251, 2492.687
3598.180, 2481.344
3600.108, 2475.341
3602.037, 2473.094
3603.965, 2465.088
3605.894, 2457.523
3607.822, 2461.990
3609.750, 2464.585
3611.679, 2458.031
3613.607, 2452.438
3615.536, 2448.856
3617.464, 2446.562
3619.393, 2444.207
3621.321, 2436.327
3623.250, 2430.632
3625.178, 2433.728
3627.107, 2436.260
3629.035, 2436.139
3630.964, 2432.633
3632.892, 2426.805
3634.821, 2423.243
3636.749, 2421.483
3638.677, 2422.641
3640.606, 2422.006
3642.534, 2415.776
3644.463, 2411.351
3646.391, 2408.757
3648.320, 2406.281
3650.248, 2404.130
3652.177, 2401.429
3654.105, 2398.847
3656.034, 2397.000
3657.962, 2393.282
3659.891, 2392.493
3661.819, 2389.651
3663.748, 2385.561
3665.676, 2381.490
3667.604, 2379.341
3669.533, 2376.344
3671.461, 2375.386
3673.390, 2374.188
3675.318, 2372.949
3677.247, 2370.905
3679.175, 2368.204
3681.104, 2366.471
3683.032, 2362.656
3684.961, 2360.433
3686.889, 2359.555
3688.818, 2360.600
3690.746, 2362.638
3692.675, 2360.167
3694.603, 2355.993
3696.531, 2352.316
3698.460, 2350.324
3700.388, 2350.704
3702.317, 2351.383
3704.245, 2351.780
3706.174, 2349.798
3708.102, 2346.876
3710.031, 2344.457
3711.959, 2342.875
3713.888, 2343.702
3715.816, 2340.964
3717.745, 2334.599
3719.673, 2325.067
3721.602, 2316.580
3723.530, 2315.291
3725.458, 2316.157
3727.387, 2317.230
3729.315, 2319.494
3731.244, 2322.261
3733.172, 2320.416
3735.101, 2318.289
3737.029, 2324.947
3738.958, 2327.742
3740.886, 2318.618
3742.815, 2314.053
3744.743, 2314.110
3746.672, 2309.251
3748.600, 2304.780
3750.529, 2308.925
3752.457, 2312.269
3754.385, 2310.601
3756.314, 2306.115
3758.242, 2300.118
3760.171, 2300.551
3762.099, 2303.584
3764.028, 2307.480
3765.956, 2306.629
3767.885, 2297.231
3769.813, 2290.419
3771.742, 2286.290
3773.670, 2282.844
3775.599, 2281.581
3777.527, 2285.915
3779.456, 2286.990
3781.384, 2281.710
3783.313, 2277.459
3785.241, 2275.321
3787.169, 2280.062
3789.098, 2282.882
3791.026, 2275.156
3792.955, 2273.504
3794.883, 2281.787
3796.812, 2284.348
3798.740, 2282.656
3800.669, 2278.377
3802.597, 2274.265
3804.526, 2271.360
3806.454, 2269.736
3808.383, 2269.122
3810.311, 2268.391
3812.240, 2268.007
3814.168, 2267.655
3816.096, 2267.000
3818.025, 2267.423
3819.953, 2266.407
3821.882, 2266.642
3823.810, 2267.547
3825.739, 2267.149
3827.667, 2264.470
3829.596, 2257.422
3831.524, 2244.725
3833.453, 2240.141
3835.381, 2241.921
3837.310, 2247.275
3839.238, 2251.555
3841.167, 2251.818
3843.095, 2250.200
3845.023, 2246.959
3846.952, 2246.134
3848.880, 2245.436
3850.809, 2242.219
3852.737, 2238.665
3854.666, 2235.490
3856.594, 2234.074
3858.523, 2234.071
3860.451, 2234.821
3862.380, 2234.644
3864.308, 2234.373
3866.237, 2229.703
3868.165, 2232.492
3870.094, 2230.468
3872.022, 2227.471
3873.950, 2230.192
3875.879, 2232.069
3877.807, 2230.510
3879.736, 2228.288
3881.664, 2225.636
3883.593, 2223.267
3885.521, 2222.100
3887.450, 2217.116
3889.378, 2221.040
3891.307, 2209.204
3893.235, 2204.778
3895.164, 2204.357
3897.092, 2205.340
3899.021, 2205.733
3900.949, 2204.453
3902.877, 2208.181
3904.806, 2213.302
3906.734, 2206.999
3908.663, 2201.374
3910.591, 2207.341
3912.520, 2208.643
3914.448, 2203.366
3916.377, 2200.673
3918.305, 2198.605
3920.234, 2194.790
3922.162, 2190.206
3924.091, 2186.113
3926.019, 2187.406
3927.948, 2189.532
3929.876, 2186.531
3931.804, 2182.830
3933.733, 2178.464
3935.661, 2176.386
3937.590, 2175.847
3939.518, 2176.069
3941.447, 2176.403
3943.375, 2174.602
3945.304, 2172.624
3947.232, 2171.586
3949.161, 2171.116
3951.089, 2170.185
3953.018, 2165.509
3954.946, 2159.807
3956.875, 2156.260
3958.803, 2153.381
3960.731, 2150.786
3962.660, 2152.671
3964.588, 2154.901
3966.517, 2157.022
3968.445, 2157.067
3970.374, 2153.059
3972.302, 2148.481
3974.231, 2146.457
3976.159, 2141.711
3978.088, 2142.697
3980.016, 2135.447
3981.945, 2132.902
3983.873, 2133.658
3985.802, 2134.598
3987.730, 2133.352
3989.658, 2130.869
3991.587, 2130.015
3993.515, 2130.724
3995.444, 2132.811
3997.372, 2132.299
3999.301, 2131.663
4001.229, 2131.376
4003.158, 2127.310
4005.086, 2126.995
4007.015, 2121.943
4008.943, 2115.053
4010.872, 2111.948
4012.800, 2111.617
4014.729, 2111.034
4016.657, 2111.111
4018.585, 2112.354
4020.514, 2111.181
4022.442, 2110.410
4024.371, 2109.815
4026.299, 2107.713
4028.228, 2105.996
4030.156, 2104.731
4032.085, 2101.114
4034.013, 2099.827
4035.942, 2100.221
4037.870, 2101.104
4039.799, 2098.907
4041.727, 2100.480
4043.656, 2095.213
4045.584, 2092.510
4047.512, 2090.303
4049.441, 2087.604
4051.369, 2085.053
4053.298, 2085.032
4055.226, 2085.177
4057.155, 2081.148
4059.083, 2079.511
4061.012, 2080.516
4062.940, 2079.496
4064.869, 2077.399
4066.797, 2073.327
4068.726, 2070.671
4070.654, 2069.557
4072.583, 2068.291
4074.511, 2067.208
4076.439, 2066.283
4078.368, 2063.223
4080.296, 2059.706
4082.225, 2060.169
4084.153, 2058.559
4086.082, 2051.784
4088.010, 2050.300
4089.939, 2050.437
4091.867, 2052.927
4093.796, 2055.006
4095.724, 2052.285
4097.653, 2048.783
4099.581, 2045.697
4101.510, 2042.985
4103.438, 2039.227
4105.367, 2033.146
4107.295, 2030.890
4109.224, 2031.786
4111.152, 2032.588
4113.081, 2032.643
4115.009, 2030.237
4116.938, 2028.318
4118.866, 2026.781
4120.794, 2026.315
4122.723, 2025.104
4124.651, 2023.479
4126.580, 2022.290
4128.508, 2020.378
4130.437, 2019.322
4132.365, 2018.416
4134.293, 2017.429
4136.222, 2019.077
4138.150, 2014.108
4140.079, 2010.620
4142.007, 2008.839
4143.936, 2010.032
4145.864, 2009.643
4147.793, 2007.887
4149.721, 2005.608
4151.650, 2003.682
4153.578, 2003.410
4155.507, 2004.207
4157.435, 2004.718
4159.364, 1997.415
4161.292, 1990.601
4163.221, 1990.262
4165.149, 1989.789
4167.078, 1989.184
4169.006, 1992.337
4170.935, 1992.062
4172.863, 1982.791
4174.792, 1979.724
4176.720, 1981.547
4178.648, 1984.717
4180.577, 1987.043
4182.505, 1984.869
4184.434, 1979.150
4186.362, 1973.030
4188.291, 1974.017
4190.219, 1974.948
4192.147, 1972.984
4194.076, 1971.496
4196.004, 1969.217
4197.933, 1967.584
4199.861, 1965.670
4201.790, 1963.704
4203.718, 1962.407
4205.647, 1959.842
4207.575, 1959.266
4209.504, 1958.161
4211.432, 1955.422
4213.361, 1952.381
4215.289, 1949.968
4217.218, 1948.611
4219.146, 1947.934
4221.075, 1948.957
4223.003, 1947.598
4224.932, 1944.424
4226.860, 1942.722
4228.789, 1938.864
4230.717, 1932.523
4232.646, 1933.176
4234.574, 1935.514
4236.502, 1935.129
4238.431, 1928.947
4240.359, 1929.448
4242.288, 1920.919
4244.216, 1925.128
4246.145, 1922.891
4248.073, 1921.941
4250.001, 1921.803
4251.930, 1918.180
4253.858, 1911.645
4255.787, 1912.640
4257.715, 1902.017
4259.644, 1910.327
4261.572, 1910.744
4263.501, 1907.550
4265.429, 1902.331
4267.358, 1903.342
4269.286, 1906.270
4271.215, 1902.771
4273.143, 1899.444
4275.072, 1897.613
4277.000, 1895.697
4278.929, 1894.911
4280.857, 1897.726
4282.786, 1897.779
4284.714, 1894.978
4286.643, 1893.604
4288.571, 1892.280
4290.500, 1890.122
4292.428, 1887.071
4294.356, 1885.044
4296.285, 1892.647
4298.213, 1896.035
4300.142, 1890.363
4302.070, 1881.668
4303.999, 1874.841
4305.927, 1878.398
4307.855, 1881.240
4309.784, 1881.108
4311.712, 1877.658
4313.641, 1873.226
4315.569, 1868.301
4317.498, 1869.946
4319.426, 1875.073
4321.355, 1868.891
4323.283, 1863.876
4325.212, 1866.749
4327.140, 1862.319
4329.069, 1855.318
4330.997, 1855.490
4332.926, 1856.459
4334.854, 1856.520
4336.783, 1855.432
4338.711, 1854.343
4340.640, 1851.665
4342.568, 1850.705
4344.497, 1846.865
4346.425, 1845.499
4348.354, 1844.556
4350.282, 1842.225
4352.210, 1846.033
4354.139, 1850.155
4356.067, 1849.491
4357.996, 1849.897
4359.924, 1849.673
4361.853, 1848.275
4363.781, 1844.563
4365.709, 1847.513
4367.638, 1842.878
4369.566, 1834.346
4371.495, 1835.453
4373.423, 1838.416
4375.352, 1840.776
4377.280, 1840.510
4379.209, 1838.646
4381.137, 1836.367
4383.066, 1832.481
4384.994, 1827.344
4386.923, 1822.442
4388.851, 1818.313
4390.780, 1815.114
4392.708, 1815.174
4394.637, 1815.040
4396.565, 1812.266
4398.494, 1811.563
4400.422, 1807.850
4402.351, 1807.327
4404.279, 1804.862
4406.208, 1801.395
4408.136, 1799.498
4410.064, 1798.322
4411.993, 1794.701
4413.921, 1795.210
4415.850, 1800.820
4417.778, 1793.006
4419.707, 1785.216
4421.635, 1789.374
4423.563, 1791.308
4425.492, 1791.050
4427.420, 1791.320
4429.349, 1788.355
4431.277, 1787.716
4433.206, 1782.903
4435.134, 1783.826
4437.063, 1776.838
4438.991, 1773.724
4440.920, 1774.270
4442.848, 1769.972
4444.777, 1768.707
4446.705, 1767.184
4448.634, 1765.168
4450.562, 1765.500
4452.491, 1765.200
4454.419, 1762.190
4456.348, 1757.700
4458.276, 1753.421
4460.205, 1751.392
4462.133, 1751.968
4464.062, 1754.752
4465.990, 1756.067
4467.918, 1752.798
4469.847, 1752.067
4471.775, 1752.214
4473.704, 1749.089
4475.632, 1746.521
4477.561, 1744.888
4479.489, 1740.640
4481.417, 1737.030
4483.346, 1735.737
4485.274, 1733.115
4487.203, 1735.228
4489.131, 1731.334
4491.060, 1730.254
4492.988, 1731.690
4494.917, 1728.899
4496.845, 1727.623
4498.774, 1726.938
4500.702, 1724.799
4502.631, 1724.469
4504.559, 1721.901
4506.488, 1720.689
4508.416, 1719.588
4510.345, 1716.920
4512.273, 1711.493
4514.202, 1712.575
4516.130, 1709.660
4518.059, 1708.238
4519.987, 1713.853
4521.916, 1715.590
4523.844, 1713.272
4525.772, 1703.916
4527.701, 1701.435
4529.629, 1705.643
4531.558, 1705.295
4533.486, 1704.166
4535.415, 1703.525
4537.343, 1702.271
4539.271, 1699.733
4541.200, 1694.762
4543.128, 1691.533
4545.057, 1690.471
4546.985, 1687.834
4548.914, 1692.035
4550.842, 1685.638
4552.771, 1688.377
4554.699, 1687.955
4556.628, 1678.435
4558.556, 1676.408
4560.485, 1676.339
4562.413, 1672.286
4564.342, 1672.232
4566.270, 1673.922
4568.199, 1670.749
4570.127, 1667.994
4572.056, 1666.733
4573.984, 1666.358
4575.913, 1665.531
4577.841, 1663.093
4579.770, 1668.841
4581.698, 1672.235
4583.626, 1662.426
4585.555, 1663.445
4587.483, 1668.461
4589.412, 1659.372
4591.340, 1653.550
4593.269, 1652.786
4595.197, 1648.910
4597.125, 1647.059
4599.054, 1649.364
4600.982, 1648.102
4602.911, 1648.544
4604.839, 1655.247
4606.768, 1648.806
4608.696, 1639.103
4610.625, 1642.985
4612.553, 1642.451
4614.482, 1637.684
4616.410, 1634.109
4618.339, 1633.304
4620.267, 1634.841
4622.196, 1628.142
4624.124, 1623.105
4626.053, 1623.925
4627.981, 1626.113
4629.910, 1626.206
4631.838, 1620.255
4633.767, 1616.651
4635.695, 1615.073
4637.624, 1615.592
4639.552, 1613.551
4641.480, 1609.307
4643.409, 1604.245
4645.337, 1602.093
4647.266, 1603.096
4649.194, 1605.449
4651.123, 1606.670
4653.051, 1605.561
4654.979, 1602.981
4656.908, 1599.809
4658.836, 1596.552
4660.765, 1593.639
4662.693, 1592.258
4664.622, 1588.043
4666.550, 1587.141
4668.479, 1582.379
4670.407, 1584.488
4672.336, 1585.854
4674.264, 1584.979
4676.193, 1587.233
4678.121, 1585.038
4680.050, 1577.321
4681.978, 1575.425
4683.907, 1574.439
4685.835, 1571.877
4687.764, 1571.024
4689.692, 1569.809
4691.621, 1568.690
4693.549, 1568.208
4695.478, 1566.874
4697.406, 1566.622
4699.334, 1562.352
4701.263, 1556.398
4703.191, 1554.353
4705.120, 1554.542
4707.048, 1555.646
4708.977, 1553.232
4710.905, 1549.739
4712.833, 1546.492
4714.762, 1543.825
4716.690, 1540.167
4718.619, 1539.400
4720.547, 1535.859
4722.476, 1536.235
4724.404, 1539.792
4726.333, 1539.060
4728.261, 1535.524
4730.190, 1529.851
4732.118, 1528.304
4734.047, 1528.391
4735.975, 1527.489
4737.904, 1524.575
4739.832, 1520.052
4741.761, 1513.266
4743.689, 1510.981
4745.618, 1511.691
4747.546, 1509.651
4749.475, 1509.565
4751.403, 1510.874
4753.332, 1508.599
4755.260, 1506.347
4757.188, 1504.651
4759.117, 1499.078
4761.045, 1498.337
4762.974, 1504.638
4764.902, 1504.355
4766.831, 1499.437
4768.759, 1491.344
4770.688, 1494.316
4772.616, 1497.855
4774.544, 1495.390
4776.473, 1494.367
4778.401, 1494.349
4780.330, 1495.013
4782.258, 1497.493
4784.187, 1496.536
4786.115, 1485.875
4788.044, 1483.731
4789.972, 1484.957
4791.901, 1481.703
4793.829, 1482.731
4795.758, 1483.779
4797.686, 1476.042
4799.615, 1477.315
4801.543, 1481.959
4803.472, 1476.276
4805.400, 1470.082
4807.329, 1464.719
4809.257, 1459.165
4811.186, 1458.992
4813.114, 1462.276
4815.042, 1464.061
4816.971, 1458.082
4818.899, 1460.370
4820.828, 1456.576
4822.756, 1457.481
4824.685, 1449.824
4826.613, 1446.002
4828.542, 1443.641
4830.470, 1442.539
4832.398, 1440.633
4834.327, 1440.599
4836.255, 1438.826
4838.184, 1439.335
4840.112, 1438.513
4842.041, 1437.654
4843.969, 1436.360
4845.898, 1435.164
4847.826, 1432.292
4849.755, 1428.808
4851.683, 1425.671
4853.612, 1423.420
4855.540, 1425.521
4857.469, 1426.997
4859.397, 1426.058
4861.326, 1423.744
4863.254, 1420.538
4865.183, 1416.762
4867.111, 1414.235
4869.040, 1414.146
4870.968, 1416.285
4872.896, 1413.216
4874.825, 1408.668
4876.753, 1404.458
4878.682, 1407.217
4880.610, 1408.103
4882.539, 1403.798
4884.467, 1396.288
4886.396, 1392.810
4888.324, 1395.647
4890.252, 1396.278
4892.181, 1394.573
4894.109, 1390.610
4896.038, 1388.653
4897.966, 1385.222
4899.895, 1379.903
4901.823, 1380.111
4903.752, 1378.776
4905.680, 1373.949
4907.609, 1378.070
4909.537, 1381.578
4911.466, 1380.866
4913.394, 1373.093
4915.323, 1369.118
4917.251, 1371.372
4919.180, 1368.292
4921.108, 1366.122
4923.037, 1365.515
4924.965, 1364.226
4926.894, 1363.727
4928.822, 1362.385
4930.750, 1361.621
4932.679, 1357.980
4934.607, 1353.056
4936.536, 1349.669
4938.464, 1347.137
4940.393, 1345.068
4942.321, 1342.395
4944.250, 1342.721
4946.178, 1344.223
4948.106, 1339.261
4950.035, 1339.263
4951.963, 1341.412
4953.892, 1335.557
4955.820, 1331.833
4957.749, 1330.092
4959.677, 1328.110
4961.606, 1325.128
4963.534, 1323.259
4965.463, 1326.896
4967.391, 1326.045
4969.320, 1323.281
4971.248, 1321.956
4973.177, 1319.739
4975.105, 1319.710
4977.034, 1314.842
4978.962, 1312.041
4980.891, 1308.708
4982.819, 1302.513
4984.748, 1301.149
4986.676, 1302.694
4988.604, 1305.479
4990.533, 1302.773
4992.461, 1298.540
4994.390, 1294.926
4996.318, 1295.099
4998.247, 1294.654
5000.175, 1292.290
5002.104, 1286.440
5004.032, 1288.124
5005.960, 1285.430
5007.889, 1289.583
5009.817, 1283.970
5011.746, 1279.964
5013.674, 1278.689
5015.603, 1273.885
5017.531, 1278.375
5019.460, 1278.466
5021.388, 1277.994
5023.317, 1276.476
5025.245, 1272.879
5027.174, 1270.905
5029.102, 1268.637
5031.031, 1263.960
5032.959, 1264.625
5034.888, 1265.036
5036.816, 1261.802
5038.745, 1261.362
5040.673, 1259.341
5042.602, 1257.335
5044.530, 1255.395
5046.458, 1253.247
5048.387, 1251.589
5050.315, 1250.190
5052.244, 1245.170
5054.172, 1246.571
5056.101, 1244.198
5058.029, 1239.640
5059.958, 1235.836
5061.886, 1236.941
5063.814, 1239.999
5065.743, 1240.073
5067.671, 1233.005
5069.600, 1228.259
5071.528, 1225.242
5073.457, 1223.275
5075.385, 1221.017
5077.314, 1219.097
5079.242, 1219.287
5081.171, 1216.950
5083.099, 1217.413
5085.028, 1219.081
5086.956, 1220.258
5088.885, 1217.681
5090.813, 1214.046
5092.742, 1215.504
5094.670, 1210.866
5096.599, 1205.672
5098.527, 1205.819
5100.456, 1206.399
5102.384, 1206.067
5104.313, 1204.324
5106.241, 1202.306
5108.169, 1197.375
5110.098, 1197.646
5112.026, 1192.473
5113.955, 1195.956
5115.883, 1198.334
5117.812, 1196.725
5119.740, 1193.655
5121.668, 1190.424
5123.597, 1188.222
5125.525, 1185.817
5127.454, 1183.877
5129.382, 1182.807
5131.311, 1182.092
5133.239, 1180.996
5135.168, 1179.334
5137.096, 1177.552
5139.025, 1176.147
5140.953, 1175.367
5142.882, 1175.827
5144.810, 1173.961
5146.739, 1171.642
5148.667, 1172.153
5150.596, 1169.446
5152.524, 1166.914
5154.453, 1166.322
5156.381, 1163.104
5158.310, 1160.955
5160.238, 1158.798
5162.167, 1156.563
5164.095, 1156.046
5166.023, 1156.064
5167.952, 1151.304
5169.880, 1152.016
5171.809, 1152.737
5173.737, 1148.469
5175.666, 1146.370
5177.594, 1145.707
5179.522, 1145.548
5181.451, 1142.255
5183.379, 1139.341
5185.308, 1138.105
5187.236, 1140.095
5189.165, 1138.613
5191.093, 1135.484
5193.022, 1133.209
5194.950, 1131.664
5196.879, 1129.343
5198.807, 1125.870
5200.736, 1124.943
5202.664, 1125.176
5204.593, 1126.172
5206.521, 1128.672
5208.450, 1127.197
5210.378, 1123.326
5212.307, 1118.293
5214.235, 1118.605
5216.164, 1116.987
5218.092, 1111.123
5220.021, 1108.901
5221.949, 1110.788
5223.877, 1113.590
5225.806, 1110.374
5227.734, 1106.353
5229.663, 1102.453
5231.591, 1098.727
5233.520, 1101.539
5235.448, 1102.824
5237.376, 1100.012
5239.305, 1095.644
5241.233, 1095.281
5243.162, 1097.030
5245.090, 1096.909
5247.019, 1091.640
5248.947, 1089.556
5250.876, 1087.688
5252.804, 1089.296
5254.733, 1084.231
5256.661, 1082.977
5258.590, 1082.362
5260.518, 1079.626
5262.447, 1076.772
5264.375, 1076.490
5266.304, 1076.803
5268.232, 1076.895
5270.161, 1076.268
5272.089, 1073.317
5274.018, 1072.237
5275.946, 1072.560
5277.875, 1073.592
5279.803, 1067.393
5281.731, 1061.496
5283.660, 1060.667
5285.588, 1062.108
5287.517, 1061.156
5289.445, 1058.147
5291.374, 1056.299
5293.302, 1053.403
5295.230, 1050.900
5297.159, 1050.242
5299.087, 1048.090
5301.016, 1048.255
5302.944, 1050.288
5304.873, 1049.082
5306.801, 1047.691
5308.730, 1044.680
5310.658, 1042.935
5312.587, 1040.622
5314.515, 1038.263
5316.444, 1035.692
5318.372, 1033.837
5320.301, 1030.684
5322.229, 1027.162
5324.158, 1024.563
5326.086, 1023.181
5328.015, 1020.404
5329.943, 1018.822
5331.872, 1017.960
5333.800, 1016.151
5335.729, 1014.938
5337.657, 1019.099
5339.585, 1013.049
5341.514, 1009.602
5343.442, 1010.295
5345.371, 1004.556
5347.299, 1003.475
5349.228, 1004.568
5351.156, 1002.888
5353.084, 1003.610
5355.013, 1002.793
5356.941, 999.9902
5358.870, 1000.270
5360.798, 993.2648
5362.727, 987.4411
5364.655, 992.0907
5366.584, 992.8557
5368.512, 990.7604
5370.441, 987.5789
5372.369, 986.6592
5374.298, 986.5406
5376.226, 984.2711
5378.155, 983.7032
5380.083, 978.8494
5382.012, 979.2755
5383.940, 977.2018
5385.869, 970.3674
5387.797, 969.8513
5389.726, 970.5526
5391.654, 969.0053
5393.583, 967.2141
5395.511, 968.6653
5397.439, 966.2928
5399.368, 968.8671
5401.296, 964.5436
5403.225, 962.4891
5405.153, 963.4892
5407.082, 961.4616
5409.010, 959.6562
5410.938, 957.1594
5412.867, 952.4034
5414.795, 946.5507
5416.724, 945.0113
5418.652, 947.6498
5420.581, 951.3237
5422.509, 948.2535
5424.438, 943.6537
5426.366, 941.1444
5428.295, 937.3011
5430.223, 937.6105
5432.152, 937.8756
5434.080, 930.3454
5436.009, 929.4139
5437.937, 931.4879
5439.866, 932.4054
5441.794, 924.4843
5443.723, 920.1242
5445.651, 918.3377
5447.580, 917.4552
5449.508, 921.7902
5451.437, 922.5782
5453.365, 919.4455
5455.293, 914.5643
5457.222, 911.1121
5459.150, 910.5641
5461.079, 911.6068
5463.007, 908.6393
5464.936, 907.9545
5466.864, 907.0047
5468.792, 904.0663
5470.721, 903.5914
5472.649, 902.4003
5474.578, 901.1547
5476.506, 900.3867
5478.435, 899.2948
5480.363, 897.0319
5482.292, 893.9749
5484.220, 891.3251
5486.149, 888.7175
5488.077, 887.0246
5490.006, 886.4151
5491.934, 885.3386
5493.863, 882.5587
5495.791, 880.7278
5497.720, 882.8666
5499.648, 876.1309
5501.577, 874.1645
5503.505, 875.4869
5505.434, 872.0551
5507.362, 871.6116
5509.291, 870.1572
5511.219, 868.9319
5513.147, 867.1019
5515.076, 865.6761
5517.004, 864.8337
5518.933, 864.8234
5520.861, 865.1659
5522.790, 864.4797
5524.718, 863.3196
5526.646, 862.3417
5528.575, 861.3963
5530.503, 858.8330
5532.432, 854.2684
5534.360, 847.6350
5536.289, 848.6803
5538.217, 845.9840
5540.146, 840.3882
5542.074, 844.3972
5544.003, 839.8339
5545.931, 835.9372
5547.860, 836.9774
5549.788, 842.8485
5551.717, 839.0956
5553.645, 834.5810
5555.574, 834.2890
5557.502, 830.1765
5559.431, 825.0020
5561.359, 822.2487
5563.288, 823.9398
5565.216, 826.6394
5567.145, 825.9924
5569.073, 824.8384
5571.001, 827.4499
5572.930, 820.9507
5574.858, 818.1758
5576.787, 817.9437
5578.715, 814.2522
5580.644, 813.1495
5582.572, 813.4827
5584.500, 813.1006
5586.429, 809.3781
5588.357, 804.9641
5590.286, 803.1017
5592.214, 803.6308
5594.143, 803.6393
5596.071, 803.4631
5598.000, 800.8776
5599.928, 799.9705
5601.857, 796.4974
5603.785, 796.0809
5605.714, 794.8244
5607.642, 792.9695
5609.571, 792.3136
5611.499, 786.6542
5613.428, 781.4707
5615.356, 779.9866
5617.285, 781.4382
5619.213, 779.7870
5621.142, 777.1709
5623.070, 775.6893
5624.999, 774.2443
5626.927, 772.1550
5628.855, 770.8510
5630.784, 769.1570
5632.712, 767.8226
5634.641, 764.7875
5636.569, 764.8638
5638.498, 763.1296
5640.426, 760.4977
5642.354, 759.8319
5644.283, 760.3328
5646.211, 760.9144
5648.140, 760.2826
5650.068, 755.3699
5651.997, 751.9700
5653.925, 753.1777
5655.854, 748.5940
5657.782, 747.7119
5659.711, 748.6270
5661.639, 748.6121
5663.568, 746.7478
5665.496, 742.9397
5667.425, 743.4035
5669.353, 748.6542
5671.282, 739.1540
5673.210, 739.6390
5675.139, 740.5602
5677.067, 735.1103
5678.996, 728.8182
5680.924, 729.6525
5682.853, 734.1534
5684.781, 739.0157
5686.709, 743.7768
5688.638, 734.0839
5690.566, 723.9445
5692.495, 720.7277
5694.423, 721.0698
5696.352, 720.7314
5698.280, 720.4068
5700.208, 720.1171
5702.137, 718.7068
5704.065, 716.3837
5705.994, 714.7077
5707.922, 713.8094
5709.851, 713.0319
5711.779, 708.9971
5713.708, 706.3942
5715.636, 706.4919
5717.565, 709.3287
5719.493, 700.4269
5721.422, 699.0408
5723.350, 701.5862
5725.279, 697.5433
5727.207, 697.4470
5729.136, 697.5375
5731.064, 695.3675
5732.993, 690.9357
5734.921, 695.5895
5736.850, 693.1934
5738.778, 688.0172
5740.707, 685.5560
5742.635, 683.1482
5744.563, 683.7815
5746.492, 679.9288
5748.420, 682.9460
5750.349, 683.3412
5752.277, 678.4811
5754.206, 675.3712
5756.134, 675.9149
5758.063, 678.0129
5759.991, 677.0726
5761.919, 672.0283
5763.848, 668.0500
5765.776, 670.7582
5767.705, 661.1822
5769.633, 659.5836
5771.562, 663.5730
5773.490, 665.9736
5775.419, 660.8085
5777.347, 658.5594
5779.276, 657.7478
5781.204, 656.4362
5783.133, 654.0883
5785.061, 654.8321
5786.990, 654.5699
5788.918, 652.4984
5790.847, 650.8923
5792.775, 647.7843
5794.704, 649.0196
5796.632, 650.2590
5798.561, 645.1045
5800.489, 642.3480
5802.417, 640.7786
5804.346, 640.4932
5806.274, 641.5579
5808.203, 643.7650
5810.131, 640.4938
5812.060, 635.2930
5813.988, 632.1533
5815.917, 634.4645
5817.845, 634.3837
5819.773, 633.7203
5821.702, 633.4491
5823.630, 633.5220
5825.559, 627.2830
5827.487, 626.1139
5829.416, 625.7385
5831.344, 623.2596
5833.273, 621.5222
5835.201, 621.8862
5837.130, 617.0414
5839.058, 614.9731
5840.987, 613.5453
5842.915, 615.0398
5844.844, 612.1644
5846.772, 610.7411
5848.701, 609.0403
5850.629, 607.2464
5852.558, 607.0029
5854.486, 603.9221
5856.415, 603.8867
5858.343, 605.9277
5860.271, 602.8341
5862.200, 602.8566
5864.128, 602.4438
5866.057, 598.1374
5867.985, 596.8564
5869.914, 600.2548
5871.842, 600.8583
5873.771, 597.0447
5875.699, 595.5498
5877.627, 592.1148
5879.556, 591.8545
5881.484, 592.9113
5883.413, 591.7943
5885.341, 590.4650
5887.270, 586.9269
5889.198, 584.4094
5891.127, 583.7067
5893.055, 582.5925
5894.984, 580.9339
5896.912, 579.7947
5898.841, 579.7194
5900.769, 580.3251
5902.698, 578.1989
5904.626, 573.8901
5906.555, 571.2462
5908.483, 570.7068
5910.412, 569.9367
5912.340, 571.4588
5914.269, 573.1056
5916.197, 573.5180
5918.125, 571.6682
5920.054, 565.3063
5921.982, 562.5574
5923.911, 561.4520
5925.839, 560.6485
5927.768, 559.8157
5929.696, 558.4980
5931.625, 560.9049
5933.553, 559.1786
5935.481, 558.9257
5937.410, 556.1427
5939.338, 556.3647
5941.267, 552.3702
5943.195, 549.1012
5945.124, 549.6368
5947.052, 546.1198
5948.981, 548.2408
5950.909, 548.0826
5952.838, 545.5881
5954.766, 545.3848
5956.695, 544.6534
5958.623, 543.8936
5960.552, 544.4318
5962.480, 544.8163
5964.409, 545.2135
5966.337, 546.0877
5968.266, 545.9887
5970.194, 544.9708
5972.123, 540.2768
5974.051, 540.3295
5975.979, 538.4799
5977.908, 536.5517
5979.836, 537.2723
5981.765, 533.1127
5983.693, 533.7913
5985.622, 532.5380
5987.550, 532.1693
5989.479, 529.8860
5991.407, 528.1946
5993.335, 528.4176
5995.264, 527.5797
5997.192, 525.0771
5999.121, 522.4927
6001.049, 517.1648
6002.978, 516.2748
6004.906, 512.1663
6006.835, 511.8810
6008.763, 515.0930
6010.692, 512.6971
6012.620, 510.7785
6014.549, 510.2230
6016.477, 508.4941
6018.406, 505.6660
6020.334, 506.9305
6022.263, 506.4795
6024.191, 503.8127
6026.120, 500.0497
6028.048, 496.9605
6029.977, 498.1408
6031.905, 497.2619
6033.833, 496.4454
6035.762, 497.4135
6037.690, 498.5739
6039.619, 489.0769
6041.547, 490.1451
6043.476, 490.5235
6045.404, 489.4562
6047.333, 489.9404
6049.261, 488.0695
6051.189, 489.4539
6053.118, 485.1404
6055.046, 485.0774
6056.975, 485.5463
6058.903, 480.4325
6060.832, 482.0736
6062.760, 482.0080
6064.689, 479.1652
6066.617, 475.6963
6068.546, 473.7773
6070.474, 475.6001
6072.403, 474.4177
6074.331, 472.8627
6076.260, 472.6230
6078.188, 468.2743
6080.117, 463.0571
6082.045, 463.2350
6083.974, 466.0629
6085.902, 467.3141
6087.831, 464.0877
6089.759, 464.8511
6091.688, 460.3106
6093.616, 460.0117
6095.544, 458.3888
6097.473, 459.8135
6099.401, 455.7841
6101.330, 456.6389
6103.258, 456.1713
6105.187, 454.1310
6107.115, 455.1748
6109.043, 449.5981
6110.972, 449.0236
6112.900, 449.8699
6114.829, 447.5412
6116.757, 447.9160
6118.686, 450.5234
6120.614, 447.6447
6122.543, 444.8869
6124.471, 445.6235
6126.400, 446.6254
6128.328, 442.4858
6130.257, 439.8351
6132.185, 440.2487
6134.114, 440.2374
6136.042, 438.1927
6137.971, 436.6464
6139.899, 440.0285
6141.828, 438.6958
6143.756, 435.9054
6145.685, 433.8089
6147.613, 431.7505
6149.542, 430.2425
6151.470, 430.8712
6153.398, 428.0036
6155.327, 427.1176
6157.255, 426.3168
6159.184, 422.8955
6161.112, 425.1453
6163.041, 423.5197
6164.969, 419.9740
6166.897, 418.3097
6168.826, 419.5396
6170.754, 417.4807
6172.683, 418.2602
6174.611, 416.4348
6176.540, 415.5276
6178.468, 415.4920
6180.397, 415.4546
6182.325, 414.0135
6184.254, 414.1838
6186.182, 411.7666
6188.111, 410.9287
6190.039, 409.3694
6191.968, 408.0374
6193.896, 406.8930
6195.825, 406.7207
6197.753, 404.1245
6199.682, 403.5921
6201.610, 401.6855
6203.539, 403.4715
6205.467, 402.6392
6207.396, 399.5515
6209.324, 397.5219
6211.252, 400.8453
6213.181, 396.3185
6215.109, 395.3936
6217.038, 398.9928
6218.966, 400.0001
6220.895, 394.1100
6222.823, 391.1037
6224.751, 392.5351
6226.680, 391.1367
6228.608, 389.6046
6230.537, 389.4254
6232.465, 388.8768
6234.394, 387.0118
6236.322, 384.9595
6238.251, 386.6699
6240.179, 384.8019
6242.108, 384.5071
6244.036, 385.0717
6245.965, 383.1644
6247.893, 379.7812
6249.822, 378.6497
6251.750, 377.8046
6253.679, 376.9860
6255.607, 377.3515
6257.536, 376.8329
6259.464, 376.3895
6261.393, 375.6082
6263.321, 375.6985
6265.250, 376.0148
6267.178, 375.8163
6269.106, 373.9480
6271.035, 375.1656
6272.963, 373.2835
6274.892, 370.7971
6276.820, 369.3901
6278.749, 366.3014
6280.677, 364.2820
6282.605, 365.1960
6284.534, 364.8601
6286.462, 363.1018
6288.391, 363.4161
6290.319, 364.6257
6292.248, 362.2052
6294.176, 359.3795
6296.105, 359.1776
6298.033, 360.4799
6299.962, 359.9623
6301.890, 359.1534
6303.819, 357.4781
6305.747, 354.1524
6307.676, 355.4687
6309.604, 357.2536
6311.533, 349.5705
6313.461, 351.5500
6315.390, 350.7016
6317.318, 351.9556
6319.247, 349.2851
6321.175, 346.4084
6323.104, 351.4074
6325.032, 348.5432
6326.960, 348.1755
6328.889, 344.7433
6330.817, 343.9837
6332.746, 344.9662
6334.674, 343.1786
6336.603, 341.8680
6338.531, 339.1069
6340.459, 340.0513
6342.388, 340.2442
6344.316, 339.5674
6346.245, 338.8975
6348.173, 335.0917
6350.102, 337.1670
6352.030, 332.6105
6353.959, 333.0309
6355.887, 333.7530
6357.816, 330.9965
6359.744, 332.1296
6361.673, 330.5800
6363.601, 328.2248
6365.530, 328.6088
6367.458, 330.2498
6369.387, 330.5606
6371.315, 328.2177
6373.244, 328.2475
6375.172, 325.7536
6377.101, 325.4742
6379.029, 323.5340
6380.958, 322.2939
6382.886, 322.5966
6384.814, 325.2505
6386.743, 322.6375
6388.671, 321.1356
6390.600, 320.0670
6392.528, 317.6487
6394.457, 316.8010
6396.385, 314.4934
6398.313, 314.6414
6400.242, 313.7939
6402.170, 313.1473
6404.099, 315.5607
6406.027, 315.3747
6407.956, 311.0507
6409.884, 313.5595
6411.813, 309.8729
6413.741, 307.8554
6415.670, 308.6817
6417.598, 310.1686
6419.527, 308.9373
6421.455, 304.0571
6423.384, 303.0977
6425.312, 303.7796
6427.241, 304.8273
6429.169, 302.7062
6431.098, 300.8929
6433.026, 302.1965
6434.955, 300.3792
6436.883, 298.8940
6438.812, 299.6133
6440.740, 301.2661
6442.668, 301.8349
6444.597, 301.2301
6446.525, 299.3047
6448.454, 296.1695
6450.382, 296.0031
6452.311, 292.5222
6454.239, 295.8102
6456.167, 295.4368
6458.096, 294.2544
6460.024, 296.2489
6461.953, 291.7443
6463.881, 291.2169
6465.810, 290.5423
6467.738, 288.8136
6469.667, 289.3053
6471.595, 291.0966
6473.524, 290.1966
6475.452, 284.6579
6477.381, 285.8635
6479.309, 285.8359
6481.238, 287.5091
6483.166, 285.6779
6485.095, 284.9569
6487.023, 287.2956
6488.952, 284.5549
6490.880, 283.1987
6492.809, 281.6986
6494.737, 282.8305
6496.666, 281.0471
6498.594, 280.5033
6500.522, 282.0479
6502.451, 278.9330
6504.379, 274.9466
6506.308, 276.1626
6508.236, 276.2048
6510.165, 275.3786
6512.093, 274.3453
6514.021, 274.6332
6515.950, 276.2275
6517.878, 274.3029
6519.807, 273.7596
6521.735, 272.5407
6523.664, 269.0454
6525.592, 270.3815
6527.521, 271.5324
6529.449, 268.5293
6531.378, 271.1453
6533.306, 270.3149
6535.235, 267.5240
6537.163, 265.9573
6539.092, 267.9499
6541.020, 265.5223
6542.949, 266.3248
6544.877, 263.9123
6546.806, 266.8145
6548.734, 263.8872
6550.663, 264.0485
6552.591, 263.4403
6554.520, 260.3658
6556.448, 260.7706
6558.376, 263.1919
6560.305, 257.0287
6562.233, 256.2940
6564.162, 259.6736
6566.090, 260.9227
6568.019, 258.2574
6569.947, 257.4074
6571.875, 257.2217
6573.804, 255.5973
6575.732, 255.1986
6577.661, 254.7517
6579.589, 254.0736
6581.518, 253.8271
6583.446, 254.0511
6585.375, 253.0422
6587.303, 252.5848
6589.232, 251.9117
6591.160, 250.7773
6593.089, 250.5544
6595.017, 249.4426
6596.946, 249.4200
6598.874, 248.2380
6600.803, 248.7227
6602.731, 246.5489
6604.660, 247.5670
6606.588, 246.1333
6608.517, 245.5308
6610.445, 243.5260
6612.374, 243.3717
6614.302, 242.5029
6616.230, 240.0390
6618.159, 240.4204
6620.087, 242.6542
6622.016, 239.2723
6623.944, 239.3967
6625.873, 239.1083
6627.801, 237.8100
6629.729, 235.8043
##END=



