##NAMES=Lianbinite
##RRUFFID=R220025
##IDEAL CHEMISTRY=(NH_4_)(C_2_H_3_O_3_)(C_2_H_4_O_3_)
##LOCALITY=Pusch Ridge, Santa Catalina Mountains, Tucson, Arizona, USA
##OWNER=RRUFF
##SOURCE=Warren Lazar
##DESCRIPTION=Colorless bladed or prismatic crystals, on top of quartz matrix. Co-type sample
##STATUS=The identification of this mineral is confirmed by single-crystal X-ray diffraction and chemical analysis
##URL=https://www.rruff.net/odr/rruff_sample/R220025
##MEASURED CHEMISTRY=(N_0.98_H_4.06_)(C_1.98_H_3_O_3_)(C_1.99_H_4_O_3_) ; 
##DIFFRACTION SAMPLE DESCRIPTION=Powder, using Gandolfi mode
##CELL PARAMETERS=a: 3.9136 b: 18.7568 c: 10.7195 alpha: 90 beta: 107.479 gamma: 90 volume: 750.56 crystal system: monoclinic
##FILETYPE=Raman RAW
##RAMAN WAVELENGTH=532

9.324341e+001, 0.000000e+000
9.517188e+001, 7.978232e+002
9.710034e+001, 7.819679e+002
9.902881e+001, 8.078011e+002
1.009573e+002, 9.587701e+002
1.028857e+002, 1.102749e+003
1.048142e+002, 1.205700e+003
1.067427e+002, 1.272113e+003
1.086711e+002, 1.290507e+003
1.105996e+002, 1.233408e+003
1.125281e+002, 1.136817e+003
1.144565e+002, 1.046175e+003
1.163850e+002, 9.498840e+002
1.183135e+002, 8.653292e+002
1.202419e+002, 8.016075e+002
1.221704e+002, 7.549899e+002
1.240989e+002, 7.268541e+002
1.260273e+002, 7.168881e+002
1.279558e+002, 7.254307e+002
1.298843e+002, 7.434866e+002
1.318127e+002, 7.839724e+002
1.337412e+002, 8.265072e+002
1.356697e+002, 8.561511e+002
1.375981e+002, 8.672925e+002
1.395266e+002, 8.656286e+002
1.414551e+002, 8.466971e+002
1.433835e+002, 8.073341e+002
1.453120e+002, 7.701276e+002
1.472405e+002, 7.371257e+002
1.491689e+002, 7.081693e+002
1.510974e+002, 6.835626e+002
1.530259e+002, 6.666302e+002
1.549543e+002, 6.519942e+002
1.568828e+002, 6.383566e+002
1.588113e+002, 6.255816e+002
1.607397e+002, 6.143180e+002
1.626682e+002, 6.041653e+002
1.645967e+002, 5.955543e+002
1.665251e+002, 5.900641e+002
1.684536e+002, 5.891246e+002
1.703821e+002, 5.900858e+002
1.723105e+002, 5.916517e+002
1.742390e+002, 5.941791e+002
1.761675e+002, 5.963971e+002
1.780959e+002, 5.977935e+002
1.800244e+002, 5.986018e+002
1.819529e+002, 6.001642e+002
1.838813e+002, 6.034037e+002
1.858098e+002, 6.071099e+002
1.877383e+002, 6.105089e+002
1.896667e+002, 6.166035e+002
1.915952e+002, 6.195641e+002
1.935237e+002, 6.183652e+002
1.954521e+002, 6.135298e+002
1.973806e+002, 6.066456e+002
1.993091e+002, 5.968297e+002
2.012375e+002, 5.855323e+002
2.031660e+002, 5.735529e+002
2.050945e+002, 5.600417e+002
2.070229e+002, 5.470325e+002
2.089514e+002, 5.343278e+002
2.108799e+002, 5.217321e+002
2.128083e+002, 5.120560e+002
2.147368e+002, 5.077736e+002
2.166653e+002, 5.052908e+002
2.185938e+002, 5.000742e+002
2.205222e+002, 4.903019e+002
2.224507e+002, 4.812766e+002
2.243792e+002, 4.749596e+002
2.263076e+002, 4.724130e+002
2.282361e+002, 4.688298e+002
2.301646e+002, 4.631960e+002
2.320930e+002, 4.570992e+002
2.340215e+002, 4.523764e+002
2.359500e+002, 4.497844e+002
2.378784e+002, 4.477956e+002
2.398069e+002, 4.460709e+002
2.417354e+002, 4.448330e+002
2.436638e+002, 4.432113e+002
2.455923e+002, 4.407956e+002
2.475208e+002, 4.380654e+002
2.494492e+002, 4.355322e+002
2.513777e+002, 4.326678e+002
2.533062e+002, 4.304793e+002
2.552346e+002, 4.297131e+002
2.571631e+002, 4.305407e+002
2.590916e+002, 4.304483e+002
2.610200e+002, 4.283750e+002
2.629485e+002, 4.254459e+002
2.648770e+002, 4.230427e+002
2.668054e+002, 4.225780e+002
2.687339e+002, 4.213947e+002
2.706624e+002, 4.177592e+002
2.725908e+002, 4.118388e+002
2.745193e+002, 4.079743e+002
2.764478e+002, 4.088161e+002
2.783762e+002, 4.115607e+002
2.803047e+002, 4.127783e+002
2.822332e+002, 4.113710e+002
2.841616e+002, 4.097823e+002
2.860901e+002, 4.083384e+002
2.880186e+002, 4.069924e+002
2.899470e+002, 4.065146e+002
2.918755e+002, 4.072900e+002
2.938040e+002, 4.087596e+002
2.957324e+002, 4.102437e+002
2.976609e+002, 4.111952e+002
2.995894e+002, 4.129564e+002
3.015178e+002, 4.161193e+002
3.034463e+002, 4.207219e+002
3.053748e+002, 4.253771e+002
3.073032e+002, 4.301398e+002
3.092317e+002, 4.348942e+002
3.111602e+002, 4.392796e+002
3.130886e+002, 4.426647e+002
3.150171e+002, 4.473652e+002
3.169456e+002, 4.547292e+002
3.188740e+002, 4.648615e+002
3.208025e+002, 4.734697e+002
3.227310e+002, 4.813441e+002
3.246594e+002, 4.873346e+002
3.265879e+002, 4.907881e+002
3.285164e+002, 4.916151e+002
3.304448e+002, 4.902613e+002
3.323733e+002, 4.864614e+002
3.343018e+002, 4.804256e+002
3.362302e+002, 4.742774e+002
3.381587e+002, 4.667632e+002
3.400872e+002, 4.601566e+002
3.420156e+002, 4.557148e+002
3.439441e+002, 4.542270e+002
3.458726e+002, 4.525149e+002
3.478010e+002, 4.495880e+002
3.497295e+002, 4.461418e+002
3.516580e+002, 4.439880e+002
3.535864e+002, 4.436952e+002
3.555149e+002, 4.439393e+002
3.574434e+002, 4.445399e+002
3.593718e+002, 4.463117e+002
3.613003e+002, 4.458477e+002
3.632288e+002, 4.416050e+002
3.651572e+002, 4.357729e+002
3.670857e+002, 4.313145e+002
3.690142e+002, 4.287856e+002
3.709426e+002, 4.265729e+002
3.728711e+002, 4.239163e+002
3.747996e+002, 4.206239e+002
3.767280e+002, 4.182167e+002
3.786565e+002, 4.171884e+002
3.805850e+002, 4.165593e+002
3.825134e+002, 4.155422e+002
3.844419e+002, 4.139651e+002
3.863704e+002, 4.124221e+002
3.882988e+002, 4.112796e+002
3.902273e+002, 4.104519e+002
3.921558e+002, 4.091944e+002
3.940842e+002, 4.069290e+002
3.960127e+002, 4.050079e+002
3.979412e+002, 4.040551e+002
3.998696e+002, 4.041881e+002
4.017981e+002, 4.048719e+002
4.037266e+002, 4.060013e+002
4.056550e+002, 4.075020e+002
4.075835e+002, 4.093311e+002
4.095120e+002, 4.119072e+002
4.114404e+002, 4.137824e+002
4.133689e+002, 4.140602e+002
4.152974e+002, 4.125016e+002
4.172258e+002, 4.115768e+002
4.191543e+002, 4.123178e+002
4.210828e+002, 4.131096e+002
4.230112e+002, 4.123458e+002
4.249397e+002, 4.096122e+002
4.268682e+002, 4.075401e+002
4.287966e+002, 4.072246e+002
4.307251e+002, 4.082785e+002
4.326536e+002, 4.092545e+002
4.345820e+002, 4.100670e+002
4.365105e+002, 4.109178e+002
4.384390e+002, 4.118731e+002
4.403674e+002, 4.128936e+002
4.422959e+002, 4.139376e+002
4.442244e+002, 4.152379e+002
4.461528e+002, 4.163920e+002
4.480813e+002, 4.168583e+002
4.500098e+002, 4.153491e+002
4.519382e+002, 4.147472e+002
4.538667e+002, 4.163894e+002
4.557952e+002, 4.195172e+002
4.577236e+002, 4.218135e+002
4.596521e+002, 4.221158e+002
4.615806e+002, 4.222581e+002
4.635090e+002, 4.230006e+002
4.654375e+002, 4.244944e+002
4.673660e+002, 4.263588e+002
4.692944e+002, 4.290112e+002
4.712229e+002, 4.319757e+002
4.731514e+002, 4.345924e+002
4.750798e+002, 4.358199e+002
4.770083e+002, 4.381767e+002
4.789368e+002, 4.416533e+002
4.808652e+002, 4.466007e+002
4.827937e+002, 4.541825e+002
4.847222e+002, 4.647802e+002
4.866506e+002, 4.778987e+002
4.885791e+002, 4.925390e+002
4.905076e+002, 5.077677e+002
4.924360e+002, 5.274295e+002
4.943645e+002, 5.490983e+002
4.962930e+002, 5.758622e+002
4.982214e+002, 6.144729e+002
5.001499e+002, 6.740071e+002
5.020784e+002, 7.243637e+002
5.040068e+002, 7.617150e+002
5.059353e+002, 7.863109e+002
5.078638e+002, 7.806070e+002
5.097922e+002, 7.232570e+002
5.117207e+002, 6.575946e+002
5.136492e+002, 6.033711e+002
5.155776e+002, 5.591555e+002
5.175061e+002, 5.268218e+002
5.194346e+002, 5.104928e+002
5.213630e+002, 5.046653e+002
5.232915e+002, 5.049239e+002
5.252200e+002, 5.108837e+002
5.271484e+002, 5.233834e+002
5.290769e+002, 5.447668e+002
5.310054e+002, 5.732670e+002
5.329338e+002, 6.049562e+002
5.348623e+002, 6.501342e+002
5.367908e+002, 6.858925e+002
5.387192e+002, 7.041361e+002
5.406477e+002, 7.024616e+002
5.425762e+002, 6.866300e+002
5.445046e+002, 6.426134e+002
5.464331e+002, 5.935775e+002
5.483616e+002, 5.564745e+002
5.502900e+002, 5.332922e+002
5.522185e+002, 5.166625e+002
5.541470e+002, 5.049474e+002
5.560754e+002, 4.979915e+002
5.580039e+002, 4.961384e+002
5.599324e+002, 5.014323e+002
5.618608e+002, 5.079504e+002
5.637893e+002, 5.143745e+002
5.657178e+002, 5.206050e+002
5.676462e+002, 5.259501e+002
5.695747e+002, 5.313482e+002
5.715032e+002, 5.349205e+002
5.734316e+002, 5.355816e+002
5.753601e+002, 5.330190e+002
5.772886e+002, 5.284783e+002
5.792170e+002, 5.206537e+002
5.811455e+002, 5.115786e+002
5.830740e+002, 5.031030e+002
5.850024e+002, 4.955305e+002
5.869309e+002, 4.881469e+002
5.888594e+002, 4.799684e+002
5.907878e+002, 4.719629e+002
5.927163e+002, 4.666147e+002
5.946448e+002, 4.652518e+002
5.965732e+002, 4.642502e+002
5.985017e+002, 4.621694e+002
6.004302e+002, 4.591220e+002
6.023586e+002, 4.565131e+002
6.042871e+002, 4.536140e+002
6.062156e+002, 4.517682e+002
6.081440e+002, 4.522120e+002
6.100725e+002, 4.551288e+002
6.120010e+002, 4.574885e+002
6.139294e+002, 4.584345e+002
6.158579e+002, 4.588085e+002
6.177864e+002, 4.592729e+002
6.197148e+002, 4.597144e+002
6.216433e+002, 4.603555e+002
6.235718e+002, 4.612320e+002
6.255002e+002, 4.623098e+002
6.274287e+002, 4.635467e+002
6.293572e+002, 4.649999e+002
6.312856e+002, 4.666480e+002
6.332141e+002, 4.687064e+002
6.351426e+002, 4.711133e+002
6.370710e+002, 4.732704e+002
6.389995e+002, 4.747119e+002
6.409280e+002, 4.763744e+002
6.428564e+002, 4.785275e+002
6.447849e+002, 4.811205e+002
6.467134e+002, 4.839544e+002
6.486418e+002, 4.866101e+002
6.505703e+002, 4.898217e+002
6.524988e+002, 4.940986e+002
6.544272e+002, 5.000530e+002
6.563557e+002, 5.055540e+002
6.582842e+002, 5.103319e+002
6.602126e+002, 5.149612e+002
6.621411e+002, 5.202510e+002
6.640696e+002, 5.265375e+002
6.659980e+002, 5.321899e+002
6.679265e+002, 5.367141e+002
6.698550e+002, 5.403878e+002
6.717834e+002, 5.434793e+002
6.737119e+002, 5.449852e+002
6.756404e+002, 5.467872e+002
6.775688e+002, 5.494464e+002
6.794973e+002, 5.523706e+002
6.814258e+002, 5.543740e+002
6.833542e+002, 5.557079e+002
6.852827e+002, 5.555465e+002
6.872112e+002, 5.535856e+002
6.891396e+002, 5.499595e+002
6.910681e+002, 5.458384e+002
6.929966e+002, 5.399774e+002
6.949250e+002, 5.350055e+002
6.968535e+002, 5.327047e+002
6.987820e+002, 5.327205e+002
7.007104e+002, 5.317491e+002
7.026389e+002, 5.280326e+002
7.045674e+002, 5.244186e+002
7.064958e+002, 5.224586e+002
7.084243e+002, 5.227758e+002
7.103528e+002, 5.230165e+002
7.122813e+002, 5.238135e+002
7.142097e+002, 5.241874e+002
7.161382e+002, 5.232772e+002
7.180667e+002, 5.211719e+002
7.199951e+002, 5.185687e+002
7.219236e+002, 5.140162e+002
7.238521e+002, 5.100073e+002
7.257805e+002, 5.090390e+002
7.277090e+002, 5.146880e+002
7.296375e+002, 5.181259e+002
7.315659e+002, 5.173124e+002
7.334944e+002, 5.144788e+002
7.354229e+002, 5.129904e+002
7.373513e+002, 5.132122e+002
7.392798e+002, 5.133411e+002
7.412083e+002, 5.129952e+002
7.431367e+002, 5.121288e+002
7.450652e+002, 5.106017e+002
7.469937e+002, 5.073721e+002
7.489221e+002, 5.047379e+002
7.508506e+002, 5.031774e+002
7.527791e+002, 5.025858e+002
7.547075e+002, 5.024568e+002
7.566360e+002, 5.031505e+002
7.585645e+002, 5.037174e+002
7.604929e+002, 5.038021e+002
7.624214e+002, 5.034609e+002
7.643499e+002, 5.029792e+002
7.662783e+002, 5.019923e+002
7.682068e+002, 5.011851e+002
7.701353e+002, 5.011888e+002
7.720637e+002, 5.016662e+002
7.739922e+002, 5.007286e+002
7.759207e+002, 4.967339e+002
7.778491e+002, 4.935462e+002
7.797776e+002, 4.933148e+002
7.817061e+002, 4.960550e+002
7.836345e+002, 4.976557e+002
7.855630e+002, 4.970475e+002
7.874915e+002, 4.964574e+002
7.894199e+002, 4.968436e+002
7.913484e+002, 4.982244e+002
7.932769e+002, 4.996327e+002
7.952053e+002, 5.012237e+002
7.971338e+002, 5.025132e+002
7.990623e+002, 5.028964e+002
8.009907e+002, 5.022179e+002
8.029192e+002, 5.025700e+002
8.048477e+002, 5.048376e+002
8.067761e+002, 5.073660e+002
8.087046e+002, 5.096239e+002
8.106331e+002, 5.116476e+002
8.125615e+002, 5.128812e+002
8.144900e+002, 5.129265e+002
8.164185e+002, 5.126656e+002
8.183469e+002, 5.122333e+002
8.202754e+002, 5.115442e+002
8.222039e+002, 5.122523e+002
8.241323e+002, 5.161791e+002
8.260608e+002, 5.200031e+002
8.279893e+002, 5.216610e+002
8.299177e+002, 5.205051e+002
8.318462e+002, 5.202832e+002
8.337747e+002, 5.219138e+002
8.357031e+002, 5.236393e+002
8.376316e+002, 5.243988e+002
8.395601e+002, 5.242181e+002
8.414885e+002, 5.242430e+002
8.434170e+002, 5.253271e+002
8.453455e+002, 5.261745e+002
8.472739e+002, 5.257675e+002
8.492024e+002, 5.236450e+002
8.511309e+002, 5.233491e+002
8.530593e+002, 5.258672e+002
8.549878e+002, 5.293334e+002
8.569163e+002, 5.329709e+002
8.588447e+002, 5.367314e+002
8.607732e+002, 5.401407e+002
8.627017e+002, 5.424352e+002
8.646301e+002, 5.449389e+002
8.665586e+002, 5.480217e+002
8.684871e+002, 5.515885e+002
8.704155e+002, 5.566929e+002
8.723440e+002, 5.614429e+002
8.742725e+002, 5.692787e+002
8.762009e+002, 5.806398e+002
8.781294e+002, 5.959195e+002
8.800579e+002, 6.189938e+002
8.819863e+002, 6.456268e+002
8.839148e+002, 6.872779e+002
8.858433e+002, 7.416466e+002
8.877717e+002, 8.079657e+002
8.897002e+002, 9.164176e+002
8.916287e+002, 1.095449e+003
8.935571e+002, 1.283193e+003
8.954856e+002, 1.518170e+003
8.974141e+002, 1.759913e+003
8.993425e+002, 1.812729e+003
9.012710e+002, 1.571515e+003
9.031995e+002, 1.294609e+003
9.051279e+002, 1.066226e+003
9.070564e+002, 8.856180e+002
9.089849e+002, 7.560031e+002
9.109133e+002, 7.060216e+002
9.128418e+002, 6.794794e+002
9.147703e+002, 6.716078e+002
9.166987e+002, 6.803855e+002
9.186272e+002, 6.977299e+002
9.205557e+002, 7.222567e+002
9.224841e+002, 7.566236e+002
9.244126e+002, 7.998452e+002
9.263411e+002, 8.544987e+002
9.282695e+002, 9.285687e+002
9.301980e+002, 1.037729e+003
9.321265e+002, 1.135571e+003
9.340549e+002, 1.247053e+003
9.359834e+002, 1.332473e+003
9.379119e+002, 1.319940e+003
9.398403e+002, 1.159538e+003
9.417688e+002, 1.009235e+003
9.436973e+002, 8.770352e+002
9.456257e+002, 7.705614e+002
9.475542e+002, 6.973810e+002
9.494827e+002, 6.610372e+002
9.514111e+002, 6.342910e+002
9.533396e+002, 6.148022e+002
9.552681e+002, 6.005377e+002
9.571965e+002, 5.907552e+002
9.591250e+002, 5.863888e+002
9.610535e+002, 5.840709e+002
9.629819e+002, 5.853207e+002
9.649104e+002, 5.870319e+002
9.668389e+002, 5.871034e+002
9.687673e+002, 5.856825e+002
9.706958e+002, 5.845863e+002
9.726243e+002, 5.839937e+002
9.745527e+002, 5.838546e+002
9.764812e+002, 5.841991e+002
9.784097e+002, 5.850715e+002
9.803381e+002, 5.863129e+002
9.822666e+002, 5.885739e+002
9.841951e+002, 5.906406e+002
9.861235e+002, 5.915473e+002
9.880520e+002, 5.920018e+002
9.899805e+002, 5.941688e+002
9.919089e+002, 5.976513e+002
9.938374e+002, 6.031969e+002
9.957659e+002, 6.138651e+002
9.976943e+002, 6.255134e+002
9.996228e+002, 6.327653e+002
1.001551e+003, 6.351531e+002
1.003480e+003, 6.339120e+002
1.005408e+003, 6.267743e+002
1.007337e+003, 6.180480e+002
1.009265e+003, 6.116585e+002
1.011194e+003, 6.083180e+002
1.013122e+003, 6.060696e+002
1.015051e+003, 6.060448e+002
1.016979e+003, 6.062636e+002
1.018907e+003, 6.053077e+002
1.020836e+003, 6.033409e+002
1.022764e+003, 6.013582e+002
1.024693e+003, 5.990300e+002
1.026621e+003, 5.973180e+002
1.028550e+003, 5.960733e+002
1.030478e+003, 5.955081e+002
1.032407e+003, 5.973068e+002
1.034335e+003, 6.050661e+002
1.036264e+003, 6.109557e+002
1.038192e+003, 6.124221e+002
1.040121e+003, 6.112104e+002
1.042049e+003, 6.108307e+002
1.043978e+003, 6.109810e+002
1.045906e+003, 6.124006e+002
1.047834e+003, 6.171329e+002
1.049763e+003, 6.219789e+002
1.051691e+003, 6.236563e+002
1.053620e+003, 6.215246e+002
1.055548e+003, 6.207289e+002
1.057477e+003, 6.235638e+002
1.059405e+003, 6.267279e+002
1.061334e+003, 6.280373e+002
1.063262e+003, 6.272614e+002
1.065191e+003, 6.287063e+002
1.067119e+003, 6.338214e+002
1.069048e+003, 6.392009e+002
1.070976e+003, 6.441002e+002
1.072905e+003, 6.482821e+002
1.074833e+003, 6.507220e+002
1.076761e+003, 6.495182e+002
1.078690e+003, 6.515455e+002
1.080618e+003, 6.594551e+002
1.082547e+003, 6.716383e+002
1.084475e+003, 6.871230e+002
1.086404e+003, 7.074127e+002
1.088332e+003, 7.270240e+002
1.090261e+003, 7.409982e+002
1.092189e+003, 7.579885e+002
1.094118e+003, 7.838667e+002
1.096046e+003, 8.193228e+002
1.097975e+003, 8.598666e+002
1.099903e+003, 9.261842e+002
1.101832e+003, 9.721895e+002
1.103760e+003, 9.718252e+002
1.105688e+003, 9.374969e+002
1.107617e+003, 8.909664e+002
1.109545e+003, 8.234916e+002
1.111474e+003, 7.675430e+002
1.113402e+003, 7.351273e+002
1.115331e+003, 7.160184e+002
1.117259e+003, 6.999761e+002
1.119188e+003, 6.866012e+002
1.121116e+003, 6.777780e+002
1.123045e+003, 6.763442e+002
1.124973e+003, 6.767307e+002
1.126902e+003, 6.759424e+002
1.128830e+003, 6.742264e+002
1.130759e+003, 6.732335e+002
1.132687e+003, 6.731400e+002
1.134615e+003, 6.736046e+002
1.136544e+003, 6.747197e+002
1.138472e+003, 6.761231e+002
1.140401e+003, 6.773311e+002
1.142329e+003, 6.783149e+002
1.144258e+003, 6.787276e+002
1.146186e+003, 6.774719e+002
1.148115e+003, 6.763622e+002
1.150043e+003, 6.769929e+002
1.151972e+003, 6.797998e+002
1.153900e+003, 6.821403e+002
1.155829e+003, 6.846509e+002
1.157757e+003, 6.863127e+002
1.159686e+003, 6.862316e+002
1.161614e+003, 6.850934e+002
1.163542e+003, 6.845552e+002
1.165471e+003, 6.844223e+002
1.167399e+003, 6.852716e+002
1.169328e+003, 6.878192e+002
1.171256e+003, 6.909105e+002
1.173185e+003, 6.935594e+002
1.175113e+003, 6.956969e+002
1.177042e+003, 6.976978e+002
1.178970e+003, 6.998829e+002
1.180899e+003, 7.016962e+002
1.182827e+003, 7.023691e+002
1.184756e+003, 7.024118e+002
1.186684e+003, 7.040917e+002
1.188613e+003, 7.090875e+002
1.190541e+003, 7.131114e+002
1.192469e+003, 7.151170e+002
1.194398e+003, 7.161703e+002
1.196326e+003, 7.170571e+002
1.198255e+003, 7.177383e+002
1.200183e+003, 7.194148e+002
1.202112e+003, 7.232076e+002
1.204040e+003, 7.268020e+002
1.205969e+003, 7.280930e+002
1.207897e+003, 7.283337e+002
1.209826e+003, 7.319203e+002
1.211754e+003, 7.410518e+002
1.213683e+003, 7.493513e+002
1.215611e+003, 7.542922e+002
1.217540e+003, 7.589420e+002
1.219468e+003, 7.660511e+002
1.221396e+003, 7.758706e+002
1.223325e+003, 7.865374e+002
1.225253e+003, 7.958038e+002
1.227182e+003, 8.080109e+002
1.229110e+003, 8.235793e+002
1.231039e+003, 8.436860e+002
1.232967e+003, 8.687767e+002
1.234896e+003, 8.965348e+002
1.236824e+003, 9.388040e+002
1.238753e+003, 9.993890e+002
1.240681e+003, 1.075826e+003
1.242610e+003, 1.173265e+003
1.244538e+003, 1.290251e+003
1.246467e+003, 1.391939e+003
1.248395e+003, 1.500880e+003
1.250323e+003, 1.554376e+003
1.252252e+003, 1.514328e+003
1.254180e+003, 1.417340e+003
1.256109e+003, 1.319531e+003
1.258037e+003, 1.210931e+003
1.259966e+003, 1.124264e+003
1.261894e+003, 1.065221e+003
1.263823e+003, 1.022278e+003
1.265751e+003, 9.904928e+002
1.267680e+003, 9.707155e+002
1.269608e+003, 9.636764e+002
1.271537e+003, 9.728280e+002
1.273465e+003, 9.858456e+002
1.275394e+003, 1.008520e+003
1.277322e+003, 1.026488e+003
1.279250e+003, 1.026944e+003
1.281179e+003, 1.010104e+003
1.283107e+003, 9.885396e+002
1.285036e+003, 9.580835e+002
1.286964e+003, 9.314019e+002
1.288893e+003, 9.132806e+002
1.290821e+003, 9.015641e+002
1.292750e+003, 8.923387e+002
1.294678e+003, 8.856860e+002
1.296607e+003, 8.819217e+002
1.298535e+003, 8.839137e+002
1.300464e+003, 8.858302e+002
1.302392e+003, 8.849753e+002
1.304321e+003, 8.815153e+002
1.306249e+003, 8.759681e+002
1.308177e+003, 8.664840e+002
1.310106e+003, 8.590612e+002
1.312034e+003, 8.548366e+002
1.313963e+003, 8.531780e+002
1.315891e+003, 8.541533e+002
1.317820e+003, 8.574288e+002
1.319748e+003, 8.613197e+002
1.321677e+003, 8.660472e+002
1.323605e+003, 8.705602e+002
1.325534e+003, 8.732964e+002
1.327462e+003, 8.762294e+002
1.329391e+003, 8.818859e+002
1.331319e+003, 8.905999e+002
1.333248e+003, 8.996522e+002
1.335176e+003, 9.092444e+002
1.337104e+003, 9.187591e+002
1.339033e+003, 9.277593e+002
1.340961e+003, 9.366243e+002
1.342890e+003, 9.461581e+002
1.344818e+003, 9.571784e+002
1.346747e+003, 9.671678e+002
1.348675e+003, 9.743827e+002
1.350604e+003, 9.821396e+002
1.352532e+003, 9.930795e+002
1.354461e+003, 1.005972e+003
1.356389e+003, 1.016638e+003
1.358318e+003, 1.024903e+003
1.360246e+003, 1.032057e+003
1.362175e+003, 1.036434e+003
1.364103e+003, 1.041857e+003
1.366031e+003, 1.050946e+003
1.367960e+003, 1.063329e+003
1.369888e+003, 1.077342e+003
1.371817e+003, 1.091376e+003
1.373745e+003, 1.111353e+003
1.375674e+003, 1.142252e+003
1.377602e+003, 1.177153e+003
1.379531e+003, 1.211819e+003
1.381459e+003, 1.246059e+003
1.383388e+003, 1.277614e+003
1.385316e+003, 1.306574e+003
1.387245e+003, 1.331940e+003
1.389173e+003, 1.354949e+003
1.391102e+003, 1.373427e+003
1.393030e+003, 1.386084e+003
1.394958e+003, 1.393406e+003
1.396887e+003, 1.391302e+003
1.398815e+003, 1.373682e+003
1.400744e+003, 1.355856e+003
1.402672e+003, 1.339951e+003
1.404601e+003, 1.326359e+003
1.406529e+003, 1.314881e+003
1.408458e+003, 1.305320e+003
1.410386e+003, 1.302165e+003
1.412315e+003, 1.307779e+003
1.414243e+003, 1.316481e+003
1.416172e+003, 1.322983e+003
1.418100e+003, 1.333584e+003
1.420029e+003, 1.357961e+003
1.421957e+003, 1.395632e+003
1.423885e+003, 1.430631e+003
1.425814e+003, 1.461102e+003
1.427742e+003, 1.488302e+003
1.429671e+003, 1.511156e+003
1.431599e+003, 1.531759e+003
1.433528e+003, 1.556910e+003
1.435456e+003, 1.587890e+003
1.437385e+003, 1.597721e+003
1.439313e+003, 1.585233e+003
1.441242e+003, 1.547454e+003
1.443170e+003, 1.469473e+003
1.445099e+003, 1.375232e+003
1.447027e+003, 1.294070e+003
1.448956e+003, 1.226444e+003
1.450884e+003, 1.169519e+003
1.452813e+003, 1.124933e+003
1.454741e+003, 1.089293e+003
1.456669e+003, 1.064467e+003
1.458598e+003, 1.046838e+003
1.460526e+003, 1.032375e+003
1.462455e+003, 1.021310e+003
1.464383e+003, 1.012528e+003
1.466312e+003, 1.005192e+003
1.468240e+003, 1.000931e+003
1.470169e+003, 1.001036e+003
1.472097e+003, 1.003682e+003
1.474026e+003, 1.007689e+003
1.475954e+003, 1.013022e+003
1.477883e+003, 1.016742e+003
1.479811e+003, 1.018446e+003
1.481740e+003, 1.019505e+003
1.483668e+003, 1.021620e+003
1.485596e+003, 1.022421e+003
1.487525e+003, 1.019292e+003
1.489453e+003, 1.012705e+003
1.491382e+003, 1.004709e+003
1.493310e+003, 9.947546e+002
1.495239e+003, 9.845133e+002
1.497167e+003, 9.729984e+002
1.499096e+003, 9.625047e+002
1.501024e+003, 9.553484e+002
1.502953e+003, 9.506963e+002
1.504881e+003, 9.448267e+002
1.506810e+003, 9.370799e+002
1.508738e+003, 9.308405e+002
1.510667e+003, 9.278478e+002
1.512595e+003, 9.258508e+002
1.514523e+003, 9.237702e+002
1.516452e+003, 9.216418e+002
1.518380e+003, 9.195408e+002
1.520309e+003, 9.171155e+002
1.522237e+003, 9.154913e+002
1.524166e+003, 9.156751e+002
1.526094e+003, 9.156797e+002
1.528023e+003, 9.143809e+002
1.529951e+003, 9.127318e+002
1.531880e+003, 9.124423e+002
1.533808e+003, 9.140516e+002
1.535737e+003, 9.154454e+002
1.537665e+003, 9.161414e+002
1.539594e+003, 9.171028e+002
1.541522e+003, 9.186872e+002
1.543450e+003, 9.203448e+002
1.545379e+003, 9.209369e+002
1.547307e+003, 9.202318e+002
1.549236e+003, 9.220078e+002
1.551164e+003, 9.288629e+002
1.553093e+003, 9.344761e+002
1.555021e+003, 9.378868e+002
1.556950e+003, 9.400913e+002
1.558878e+003, 9.413042e+002
1.560807e+003, 9.418943e+002
1.562735e+003, 9.435237e+002
1.564664e+003, 9.462574e+002
1.566592e+003, 9.495746e+002
1.568521e+003, 9.532466e+002
1.570449e+003, 9.574242e+002
1.572377e+003, 9.617694e+002
1.574306e+003, 9.666842e+002
1.576234e+003, 9.734700e+002
1.578163e+003, 9.822957e+002
1.580091e+003, 9.895539e+002
1.582020e+003, 9.941383e+002
1.583948e+003, 9.987109e+002
1.585877e+003, 1.003738e+003
1.587805e+003, 1.009805e+003
1.589734e+003, 1.018582e+003
1.591662e+003, 1.029274e+003
1.593591e+003, 1.037365e+003
1.595519e+003, 1.041852e+003
1.597448e+003, 1.046379e+003
1.599376e+003, 1.051704e+003
1.601304e+003, 1.057322e+003
1.603233e+003, 1.063958e+003
1.605161e+003, 1.070179e+003
1.607090e+003, 1.072805e+003
1.609018e+003, 1.071513e+003
1.610947e+003, 1.070737e+003
1.612875e+003, 1.071854e+003
1.614804e+003, 1.072211e+003
1.616732e+003, 1.069873e+003
1.618661e+003, 1.066955e+003
1.620589e+003, 1.065344e+003
1.622518e+003, 1.064954e+003
1.624446e+003, 1.065025e+003
1.626375e+003, 1.065219e+003
1.628303e+003, 1.066889e+003
1.630231e+003, 1.070917e+003
1.632160e+003, 1.075804e+003
1.634088e+003, 1.081460e+003
1.636017e+003, 1.087113e+003
1.637945e+003, 1.091288e+003
1.639874e+003, 1.094010e+003
1.641802e+003, 1.095421e+003
1.643731e+003, 1.094241e+003
1.645659e+003, 1.094503e+003
1.647588e+003, 1.098108e+003
1.649516e+003, 1.103311e+003
1.651445e+003, 1.109508e+003
1.653373e+003, 1.116272e+003
1.655302e+003, 1.120975e+003
1.657230e+003, 1.122188e+003
1.659158e+003, 1.127112e+003
1.661087e+003, 1.139846e+003
1.663015e+003, 1.152128e+003
1.664944e+003, 1.159221e+003
1.666872e+003, 1.164883e+003
1.668801e+003, 1.173866e+003
1.670729e+003, 1.186143e+003
1.672658e+003, 1.198906e+003
1.674586e+003, 1.212349e+003
1.676515e+003, 1.226310e+003
1.678443e+003, 1.243351e+003
1.680372e+003, 1.258671e+003
1.682300e+003, 1.269191e+003
1.684229e+003, 1.276669e+003
1.686157e+003, 1.284353e+003
1.688085e+003, 1.292133e+003
1.690014e+003, 1.298739e+003
1.691942e+003, 1.304780e+003
1.693871e+003, 1.307252e+003
1.695799e+003, 1.301970e+003
1.697728e+003, 1.295942e+003
1.699656e+003, 1.295073e+003
1.701585e+003, 1.296908e+003
1.703513e+003, 1.294081e+003
1.705442e+003, 1.286099e+003
1.707370e+003, 1.278200e+003
1.709299e+003, 1.272105e+003
1.711227e+003, 1.264363e+003
1.713156e+003, 1.252731e+003
1.715084e+003, 1.240471e+003
1.717012e+003, 1.230153e+003
1.718941e+003, 1.221199e+003
1.720869e+003, 1.211719e+003
1.722798e+003, 1.202083e+003
1.724726e+003, 1.189465e+003
1.726655e+003, 1.171282e+003
1.728583e+003, 1.153661e+003
1.730512e+003, 1.137459e+003
1.732440e+003, 1.123512e+003
1.734369e+003, 1.113797e+003
1.736297e+003, 1.107099e+003
1.738226e+003, 1.097131e+003
1.740154e+003, 1.082799e+003
1.742083e+003, 1.071185e+003
1.744011e+003, 1.064189e+003
1.745939e+003, 1.058377e+003
1.747868e+003, 1.052644e+003
1.749796e+003, 1.047794e+003
1.751725e+003, 1.044868e+003
1.753653e+003, 1.043526e+003
1.755582e+003, 1.042213e+003
1.757510e+003, 1.040930e+003
1.759439e+003, 1.039475e+003
1.761367e+003, 1.037061e+003
1.763296e+003, 1.035429e+003
1.765224e+003, 1.035347e+003
1.767153e+003, 1.035744e+003
1.769081e+003, 1.036311e+003
1.771010e+003, 1.036713e+003
1.772938e+003, 1.035666e+003
1.774866e+003, 1.033131e+003
1.776795e+003, 1.032382e+003
1.778723e+003, 1.034738e+003
1.780652e+003, 1.037230e+003
1.782580e+003, 1.037466e+003
1.784509e+003, 1.038994e+003
1.786437e+003, 1.046287e+003
1.788366e+003, 1.055618e+003
1.790294e+003, 1.059742e+003
1.792223e+003, 1.058601e+003
1.794151e+003, 1.056353e+003
1.796080e+003, 1.053089e+003
1.798008e+003, 1.049917e+003
1.799937e+003, 1.047212e+003
1.801865e+003, 1.044727e+003
1.803793e+003, 1.041126e+003
1.805722e+003, 1.038304e+003
1.807650e+003, 1.039831e+003
1.809579e+003, 1.044943e+003
1.811507e+003, 1.047374e+003
1.813436e+003, 1.045503e+003
1.815364e+003, 1.045788e+003
1.817293e+003, 1.052389e+003
1.819221e+003, 1.057661e+003
1.821150e+003, 1.056351e+003
1.823078e+003, 1.053560e+003
1.825007e+003, 1.055770e+003
1.826935e+003, 1.061454e+003
1.828864e+003, 1.062844e+003
1.830792e+003, 1.058457e+003
1.832720e+003, 1.057624e+003
1.834649e+003, 1.064594e+003
1.836577e+003, 1.069984e+003
1.838506e+003, 1.069745e+003
1.840434e+003, 1.068467e+003
1.842363e+003, 1.069430e+003
1.844291e+003, 1.071686e+003
1.846220e+003, 1.073174e+003
1.848148e+003, 1.073714e+003
1.850077e+003, 1.075320e+003
1.852005e+003, 1.079708e+003
1.853934e+003, 1.082709e+003
1.855862e+003, 1.083887e+003
1.857791e+003, 1.084204e+003
1.859719e+003, 1.083056e+003
1.861647e+003, 1.082108e+003
1.863576e+003, 1.083308e+003
1.865504e+003, 1.086258e+003
1.867433e+003, 1.089248e+003
1.869361e+003, 1.092515e+003
1.871290e+003, 1.094275e+003
1.873218e+003, 1.093273e+003
1.875147e+003, 1.092491e+003
1.877075e+003, 1.092823e+003
1.879004e+003, 1.093496e+003
1.880932e+003, 1.093761e+003
1.882861e+003, 1.094480e+003
1.884789e+003, 1.097477e+003
1.886718e+003, 1.102545e+003
1.888646e+003, 1.105870e+003
1.890574e+003, 1.106722e+003
1.892503e+003, 1.108379e+003
1.894431e+003, 1.112069e+003
1.896360e+003, 1.115073e+003
1.898288e+003, 1.116078e+003
1.900217e+003, 1.116308e+003
1.902145e+003, 1.115833e+003
1.904074e+003, 1.115566e+003
1.906002e+003, 1.117843e+003
1.907931e+003, 1.122269e+003
1.909859e+003, 1.124779e+003
1.911788e+003, 1.125058e+003
1.913716e+003, 1.123083e+003
1.915645e+003, 1.115731e+003
1.917573e+003, 1.111344e+003
1.919501e+003, 1.116655e+003
1.921430e+003, 1.123597e+003
1.923358e+003, 1.124635e+003
1.925287e+003, 1.122529e+003
1.927215e+003, 1.124101e+003
1.929144e+003, 1.129782e+003
1.931072e+003, 1.131649e+003
1.933001e+003, 1.125866e+003
1.934929e+003, 1.123614e+003
1.936858e+003, 1.128854e+003
1.938786e+003, 1.133313e+003
1.940715e+003, 1.133326e+003
1.942643e+003, 1.131969e+003
1.944572e+003, 1.131600e+003
1.946500e+003, 1.131885e+003
1.948428e+003, 1.132260e+003
1.950357e+003, 1.132884e+003
1.952285e+003, 1.132942e+003
1.954214e+003, 1.132449e+003
1.956142e+003, 1.131975e+003
1.958071e+003, 1.132158e+003
1.959999e+003, 1.131646e+003
1.961928e+003, 1.128878e+003
1.963856e+003, 1.126333e+003
1.965785e+003, 1.125253e+003
1.967713e+003, 1.125508e+003
1.969642e+003, 1.127457e+003
1.971570e+003, 1.130703e+003
1.973499e+003, 1.133274e+003
1.975427e+003, 1.135160e+003
1.977355e+003, 1.135938e+003
1.979284e+003, 1.134789e+003
1.981212e+003, 1.134616e+003
1.983141e+003, 1.136649e+003
1.985069e+003, 1.139768e+003
1.986998e+003, 1.144530e+003
1.988926e+003, 1.149187e+003
1.990855e+003, 1.150689e+003
1.992783e+003, 1.150059e+003
1.994712e+003, 1.152021e+003
1.996640e+003, 1.157328e+003
1.998569e+003, 1.160659e+003
2.000497e+003, 1.161578e+003
2.002426e+003, 1.160705e+003
2.004354e+003, 1.156772e+003
2.006282e+003, 1.152556e+003
2.008211e+003, 1.148997e+003
2.010139e+003, 1.145829e+003
2.012068e+003, 1.143480e+003
2.013996e+003, 1.141343e+003
2.015925e+003, 1.137197e+003
2.017853e+003, 1.131568e+003
2.019782e+003, 1.130605e+003
2.021710e+003, 1.135360e+003
2.023639e+003, 1.137994e+003
2.025567e+003, 1.136589e+003
2.027496e+003, 1.135361e+003
2.029424e+003, 1.136355e+003
2.031353e+003, 1.136659e+003
2.033281e+003, 1.133218e+003
2.035209e+003, 1.129468e+003
2.037138e+003, 1.128858e+003
2.039066e+003, 1.130412e+003
2.040995e+003, 1.132457e+003
2.042923e+003, 1.135025e+003
2.044852e+003, 1.135519e+003
2.046780e+003, 1.132515e+003
2.048709e+003, 1.131501e+003
2.050637e+003, 1.134299e+003
2.052566e+003, 1.137014e+003
2.054494e+003, 1.138725e+003
2.056423e+003, 1.140156e+003
2.058351e+003, 1.141115e+003
2.060280e+003, 1.142109e+003
2.062208e+003, 1.144008e+003
2.064136e+003, 1.146260e+003
2.066065e+003, 1.147682e+003
2.067993e+003, 1.148323e+003
2.069922e+003, 1.147655e+003
2.071850e+003, 1.145523e+003
2.073779e+003, 1.143805e+003
2.075707e+003, 1.142562e+003
2.077636e+003, 1.142513e+003
2.079564e+003, 1.144674e+003
2.081493e+003, 1.146928e+003
2.083421e+003, 1.148707e+003
2.085350e+003, 1.149473e+003
2.087278e+003, 1.147844e+003
2.089207e+003, 1.145149e+003
2.091135e+003, 1.144275e+003
2.093063e+003, 1.145059e+003
2.094992e+003, 1.145362e+003
2.096920e+003, 1.144770e+003
2.098849e+003, 1.145147e+003
2.100777e+003, 1.147576e+003
2.102706e+003, 1.149455e+003
2.104634e+003, 1.150980e+003
2.106563e+003, 1.151564e+003
2.108491e+003, 1.149374e+003
2.110420e+003, 1.147957e+003
2.112348e+003, 1.150706e+003
2.114277e+003, 1.154401e+003
2.116205e+003, 1.154239e+003
2.118134e+003, 1.151516e+003
2.120062e+003, 1.150345e+003
2.121990e+003, 1.150650e+003
2.123919e+003, 1.151147e+003
2.125847e+003, 1.152440e+003
2.127776e+003, 1.151761e+003
2.129704e+003, 1.146835e+003
2.131633e+003, 1.143597e+003
2.133561e+003, 1.144677e+003
2.135490e+003, 1.146101e+003
2.137418e+003, 1.146214e+003
2.139347e+003, 1.145912e+003
2.141275e+003, 1.145915e+003
2.143204e+003, 1.145783e+003
2.145132e+003, 1.144224e+003
2.147061e+003, 1.141844e+003
2.148989e+003, 1.142154e+003
2.150917e+003, 1.145046e+003
2.152846e+003, 1.145873e+003
2.154774e+003, 1.143837e+003
2.156703e+003, 1.143430e+003
2.158631e+003, 1.146656e+003
2.160560e+003, 1.148741e+003
2.162488e+003, 1.146439e+003
2.164417e+003, 1.145034e+003
2.166345e+003, 1.147928e+003
2.168274e+003, 1.151238e+003
2.170202e+003, 1.151713e+003
2.172131e+003, 1.150870e+003
2.174059e+003, 1.150829e+003
2.175988e+003, 1.151420e+003
2.177916e+003, 1.152336e+003
2.179844e+003, 1.153598e+003
2.181773e+003, 1.152171e+003
2.183701e+003, 1.147466e+003
2.185630e+003, 1.145049e+003
2.187558e+003, 1.146174e+003
2.189487e+003, 1.147488e+003
2.191415e+003, 1.149054e+003
2.193344e+003, 1.148965e+003
2.195272e+003, 1.143744e+003
2.197201e+003, 1.139891e+003
2.199129e+003, 1.142939e+003
2.201058e+003, 1.147547e+003
2.202986e+003, 1.148140e+003
2.204915e+003, 1.146571e+003
2.206843e+003, 1.146156e+003
2.208771e+003, 1.146793e+003
2.210700e+003, 1.147546e+003
2.212628e+003, 1.148466e+003
2.214557e+003, 1.150491e+003
2.216485e+003, 1.153775e+003
2.218414e+003, 1.157544e+003
2.220342e+003, 1.162328e+003
2.222271e+003, 1.165115e+003
2.224199e+003, 1.164375e+003
2.226128e+003, 1.162535e+003
2.228056e+003, 1.158129e+003
2.229985e+003, 1.155953e+003
2.231913e+003, 1.160925e+003
2.233842e+003, 1.167756e+003
2.235770e+003, 1.172205e+003
2.237698e+003, 1.174586e+003
2.239627e+003, 1.174384e+003
2.241555e+003, 1.172380e+003
2.243484e+003, 1.171962e+003
2.245412e+003, 1.172899e+003
2.247341e+003, 1.174463e+003
2.249269e+003, 1.176493e+003
2.251198e+003, 1.179340e+003
2.253126e+003, 1.184370e+003
2.255055e+003, 1.185181e+003
2.256983e+003, 1.175363e+003
2.258912e+003, 1.170920e+003
2.260840e+003, 1.181851e+003
2.262769e+003, 1.191326e+003
2.264697e+003, 1.190397e+003
2.266625e+003, 1.187494e+003
2.268554e+003, 1.187930e+003
2.270482e+003, 1.189742e+003
2.272411e+003, 1.190049e+003
2.274339e+003, 1.190504e+003
2.276268e+003, 1.195828e+003
2.278196e+003, 1.203862e+003
2.280125e+003, 1.206758e+003
2.282053e+003, 1.204775e+003
2.283982e+003, 1.204243e+003
2.285910e+003, 1.205297e+003
2.287839e+003, 1.207822e+003
2.289767e+003, 1.214318e+003
2.291696e+003, 1.217617e+003
2.293624e+003, 1.216052e+003
2.295552e+003, 1.213874e+003
2.297481e+003, 1.211378e+003
2.299409e+003, 1.209517e+003
2.301338e+003, 1.207537e+003
2.303266e+003, 1.208032e+003
2.305195e+003, 1.215201e+003
2.307123e+003, 1.222457e+003
2.309052e+003, 1.224278e+003
2.310980e+003, 1.222449e+003
2.312909e+003, 1.217287e+003
2.314837e+003, 1.211174e+003
2.316766e+003, 1.210629e+003
2.318694e+003, 1.214949e+003
2.320623e+003, 1.219021e+003
2.322551e+003, 1.223125e+003
2.324479e+003, 1.224939e+003
2.326408e+003, 1.223938e+003
2.328336e+003, 1.226071e+003
2.330265e+003, 1.232629e+003
2.332193e+003, 1.237296e+003
2.334122e+003, 1.237740e+003
2.336050e+003, 1.238284e+003
2.337979e+003, 1.241574e+003
2.339907e+003, 1.242747e+003
2.341836e+003, 1.238327e+003
2.343764e+003, 1.234310e+003
2.345693e+003, 1.233958e+003
2.347621e+003, 1.235047e+003
2.349550e+003, 1.236706e+003
2.351478e+003, 1.238347e+003
2.353406e+003, 1.239695e+003
2.355335e+003, 1.240344e+003
2.357263e+003, 1.239256e+003
2.359192e+003, 1.237239e+003
2.361120e+003, 1.235963e+003
2.363049e+003, 1.235601e+003
2.364977e+003, 1.236980e+003
2.366906e+003, 1.240321e+003
2.368834e+003, 1.242065e+003
2.370763e+003, 1.241316e+003
2.372691e+003, 1.242645e+003
2.374620e+003, 1.246331e+003
2.376548e+003, 1.250510e+003
2.378477e+003, 1.255780e+003
2.380405e+003, 1.257642e+003
2.382333e+003, 1.252283e+003
2.384262e+003, 1.249677e+003
2.386190e+003, 1.256071e+003
2.388119e+003, 1.261677e+003
2.390047e+003, 1.262261e+003
2.391976e+003, 1.261997e+003
2.393904e+003, 1.262955e+003
2.395833e+003, 1.264034e+003
2.397761e+003, 1.263925e+003
2.399690e+003, 1.263944e+003
2.401618e+003, 1.265630e+003
2.403547e+003, 1.268096e+003
2.405475e+003, 1.270691e+003
2.407404e+003, 1.272960e+003
2.409332e+003, 1.273185e+003
2.411260e+003, 1.272261e+003
2.413189e+003, 1.273977e+003
2.415117e+003, 1.278118e+003
2.417046e+003, 1.281459e+003
2.418974e+003, 1.283897e+003
2.420903e+003, 1.289474e+003
2.422831e+003, 1.298663e+003
2.424760e+003, 1.303751e+003
2.426688e+003, 1.303699e+003
2.428617e+003, 1.301161e+003
2.430545e+003, 1.293769e+003
2.432474e+003, 1.290886e+003
2.434402e+003, 1.298536e+003
2.436331e+003, 1.303281e+003
2.438259e+003, 1.300824e+003
2.440188e+003, 1.299056e+003
2.442116e+003, 1.300080e+003
2.444044e+003, 1.301592e+003
2.445973e+003, 1.303581e+003
2.447901e+003, 1.303832e+003
2.449830e+003, 1.298696e+003
2.451758e+003, 1.293939e+003
2.453687e+003, 1.295027e+003
2.455615e+003, 1.297243e+003
2.457544e+003, 1.296951e+003
2.459472e+003, 1.294982e+003
2.461401e+003, 1.290740e+003
2.463329e+003, 1.286711e+003
2.465258e+003, 1.287985e+003
2.467186e+003, 1.291694e+003
2.469115e+003, 1.290268e+003
2.471043e+003, 1.286551e+003
2.472971e+003, 1.291311e+003
2.474900e+003, 1.302613e+003
2.476828e+003, 1.307096e+003
2.478757e+003, 1.304677e+003
2.480685e+003, 1.307634e+003
2.482614e+003, 1.316071e+003
2.484542e+003, 1.322574e+003
2.486471e+003, 1.326867e+003
2.488399e+003, 1.328723e+003
2.490328e+003, 1.328120e+003
2.492256e+003, 1.325421e+003
2.494185e+003, 1.320355e+003
2.496113e+003, 1.314197e+003
2.498042e+003, 1.306252e+003
2.499970e+003, 1.299172e+003
2.501898e+003, 1.292438e+003
2.503827e+003, 1.289028e+003
2.505755e+003, 1.290842e+003
2.507684e+003, 1.292926e+003
2.509612e+003, 1.293419e+003
2.511541e+003, 1.294017e+003
2.513469e+003, 1.294544e+003
2.515398e+003, 1.296048e+003
2.517326e+003, 1.299535e+003
2.519255e+003, 1.302992e+003
2.521183e+003, 1.304998e+003
2.523112e+003, 1.306958e+003
2.525040e+003, 1.310650e+003
2.526969e+003, 1.313601e+003
2.528897e+003, 1.314332e+003
2.530825e+003, 1.313542e+003
2.532754e+003, 1.310876e+003
2.534682e+003, 1.308290e+003
2.536611e+003, 1.308115e+003
2.538539e+003, 1.309023e+003
2.540468e+003, 1.308775e+003
2.542396e+003, 1.308325e+003
2.544325e+003, 1.310845e+003
2.546253e+003, 1.313090e+003
2.548182e+003, 1.307789e+003
2.550110e+003, 1.298731e+003
2.552039e+003, 1.295140e+003
2.553967e+003, 1.296056e+003
2.555896e+003, 1.298791e+003
2.557824e+003, 1.302690e+003
2.559752e+003, 1.302395e+003
2.561681e+003, 1.299143e+003
2.563609e+003, 1.299923e+003
2.565538e+003, 1.304081e+003
2.567466e+003, 1.305619e+003
2.569395e+003, 1.304277e+003
2.571323e+003, 1.302241e+003
2.573252e+003, 1.299182e+003
2.575180e+003, 1.299700e+003
2.577109e+003, 1.304272e+003
2.579037e+003, 1.304571e+003
2.580966e+003, 1.300031e+003
2.582894e+003, 1.297938e+003
2.584823e+003, 1.299661e+003
2.586751e+003, 1.300531e+003
2.588679e+003, 1.299752e+003
2.590608e+003, 1.298928e+003
2.592536e+003, 1.297232e+003
2.594465e+003, 1.298239e+003
2.596393e+003, 1.302983e+003
2.598322e+003, 1.305266e+003
2.600250e+003, 1.302949e+003
2.602179e+003, 1.301476e+003
2.604107e+003, 1.302909e+003
2.606036e+003, 1.303587e+003
2.607964e+003, 1.303466e+003
2.609893e+003, 1.302798e+003
2.611821e+003, 1.301200e+003
2.613750e+003, 1.301421e+003
2.615678e+003, 1.305211e+003
2.617606e+003, 1.307895e+003
2.619535e+003, 1.305922e+003
2.621463e+003, 1.305508e+003
2.623392e+003, 1.309916e+003
2.625320e+003, 1.312348e+003
2.627249e+003, 1.310840e+003
2.629177e+003, 1.307660e+003
2.631106e+003, 1.301830e+003
2.633034e+003, 1.298548e+003
2.634963e+003, 1.302159e+003
2.636891e+003, 1.305755e+003
2.638820e+003, 1.306975e+003
2.640748e+003, 1.307562e+003
2.642677e+003, 1.307018e+003
2.644605e+003, 1.307448e+003
2.646533e+003, 1.310819e+003
2.648462e+003, 1.312783e+003
2.650390e+003, 1.309514e+003
2.652319e+003, 1.306774e+003
2.654247e+003, 1.306671e+003
2.656176e+003, 1.308935e+003
2.658104e+003, 1.315943e+003
2.660033e+003, 1.321839e+003
2.661961e+003, 1.323715e+003
2.663890e+003, 1.323734e+003
2.665818e+003, 1.321863e+003
2.667747e+003, 1.319978e+003
2.669675e+003, 1.318843e+003
2.671604e+003, 1.318502e+003
2.673532e+003, 1.319398e+003
2.675460e+003, 1.320719e+003
2.677389e+003, 1.322385e+003
2.679317e+003, 1.323960e+003
2.681246e+003, 1.324576e+003
2.683174e+003, 1.325913e+003
2.685103e+003, 1.329601e+003
2.687031e+003, 1.333571e+003
2.688960e+003, 1.336328e+003
2.690888e+003, 1.339080e+003
2.692817e+003, 1.343230e+003
2.694745e+003, 1.346966e+003
2.696674e+003, 1.348659e+003
2.698602e+003, 1.350554e+003
2.700531e+003, 1.353516e+003
2.702459e+003, 1.358067e+003
2.704387e+003, 1.365991e+003
2.706316e+003, 1.373314e+003
2.708244e+003, 1.377312e+003
2.710173e+003, 1.379199e+003
2.712101e+003, 1.377453e+003
2.714030e+003, 1.376349e+003
2.715958e+003, 1.380931e+003
2.717887e+003, 1.384235e+003
2.719815e+003, 1.379973e+003
2.721744e+003, 1.376339e+003
2.723672e+003, 1.378900e+003
2.725601e+003, 1.382995e+003
2.727529e+003, 1.387276e+003
2.729458e+003, 1.390494e+003
2.731386e+003, 1.390224e+003
2.733314e+003, 1.390715e+003
2.735243e+003, 1.395059e+003
2.737171e+003, 1.399619e+003
2.739100e+003, 1.402345e+003
2.741028e+003, 1.405447e+003
2.742957e+003, 1.410782e+003
2.744885e+003, 1.415925e+003
2.746814e+003, 1.419716e+003
2.748742e+003, 1.422941e+003
2.750671e+003, 1.424104e+003
2.752599e+003, 1.427562e+003
2.754528e+003, 1.437130e+003
2.756456e+003, 1.444626e+003
2.758385e+003, 1.445349e+003
2.760313e+003, 1.444592e+003
2.762241e+003, 1.442441e+003
2.764170e+003, 1.442255e+003
2.766098e+003, 1.446814e+003
2.768027e+003, 1.449931e+003
2.769955e+003, 1.448499e+003
2.771884e+003, 1.448807e+003
2.773812e+003, 1.457241e+003
2.775741e+003, 1.461219e+003
2.777669e+003, 1.453259e+003
2.779598e+003, 1.448900e+003
2.781526e+003, 1.450985e+003
2.783455e+003, 1.456661e+003
2.785383e+003, 1.466395e+003
2.787312e+003, 1.475551e+003
2.789240e+003, 1.481417e+003
2.791168e+003, 1.488332e+003
2.793097e+003, 1.496547e+003
2.795025e+003, 1.505308e+003
2.796954e+003, 1.514731e+003
2.798882e+003, 1.524026e+003
2.800811e+003, 1.533133e+003
2.802739e+003, 1.543276e+003
2.804668e+003, 1.554109e+003
2.806596e+003, 1.568205e+003
2.808525e+003, 1.585742e+003
2.810453e+003, 1.606181e+003
2.812382e+003, 1.629463e+003
2.814310e+003, 1.654935e+003
2.816239e+003, 1.681953e+003
2.818167e+003, 1.714237e+003
2.820095e+003, 1.751393e+003
2.822024e+003, 1.798863e+003
2.823952e+003, 1.855782e+003
2.825881e+003, 1.906211e+003
2.827809e+003, 1.949677e+003
2.829738e+003, 1.992864e+003
2.831666e+003, 2.035280e+003
2.833595e+003, 2.070991e+003
2.835523e+003, 2.098223e+003
2.837452e+003, 2.102030e+003
2.839380e+003, 2.086803e+003
2.841309e+003, 2.064975e+003
2.843237e+003, 2.038518e+003
2.845166e+003, 2.009718e+003
2.847094e+003, 1.981298e+003
2.849022e+003, 1.960343e+003
2.850951e+003, 1.944450e+003
2.852879e+003, 1.927541e+003
2.854808e+003, 1.914066e+003
2.856736e+003, 1.912823e+003
2.858665e+003, 1.916986e+003
2.860593e+003, 1.916929e+003
2.862522e+003, 1.918448e+003
2.864450e+003, 1.926064e+003
2.866379e+003, 1.940063e+003
2.868307e+003, 1.963531e+003
2.870236e+003, 1.990195e+003
2.872164e+003, 2.011897e+003
2.874093e+003, 2.040216e+003
2.876021e+003, 2.081429e+003
2.877949e+003, 2.131099e+003
2.879878e+003, 2.187898e+003
2.881806e+003, 2.251200e+003
2.883735e+003, 2.319512e+003
2.885663e+003, 2.397040e+003
2.887592e+003, 2.487435e+003
2.889520e+003, 2.581085e+003
2.891449e+003, 2.678031e+003
2.893377e+003, 2.771079e+003
2.895306e+003, 2.860746e+003
2.897234e+003, 2.940231e+003
2.899163e+003, 3.008554e+003
2.901091e+003, 3.065151e+003
2.903020e+003, 3.106303e+003
2.904948e+003, 3.166938e+003
2.906876e+003, 3.249047e+003
2.908805e+003, 3.372018e+003
2.910733e+003, 3.538426e+003
2.912662e+003, 3.742191e+003
2.914590e+003, 3.973440e+003
2.916519e+003, 4.140483e+003
2.918447e+003, 4.233898e+003
2.920376e+003, 4.224109e+003
2.922304e+003, 4.125227e+003
2.924233e+003, 3.977630e+003
2.926161e+003, 3.796252e+003
2.928090e+003, 3.614022e+003
2.930018e+003, 3.428507e+003
2.931947e+003, 3.223764e+003
2.933875e+003, 3.025624e+003
2.935803e+003, 2.851239e+003
2.937732e+003, 2.724810e+003
2.939660e+003, 2.666527e+003
2.941589e+003, 2.668224e+003
2.943517e+003, 2.768200e+003
2.945446e+003, 2.863701e+003
2.947374e+003, 2.936841e+003
2.949303e+003, 2.911964e+003
2.951231e+003, 2.728634e+003
2.953160e+003, 2.522058e+003
2.955088e+003, 2.316817e+003
2.957017e+003, 2.142772e+003
2.958945e+003, 2.007917e+003
2.960874e+003, 1.904165e+003
2.962802e+003, 1.833936e+003
2.964730e+003, 1.779456e+003
2.966659e+003, 1.740010e+003
2.968587e+003, 1.708211e+003
2.970516e+003, 1.683839e+003
2.972444e+003, 1.665810e+003
2.974373e+003, 1.653890e+003
2.976301e+003, 1.644192e+003
2.978230e+003, 1.636188e+003
2.980158e+003, 1.626492e+003
2.982087e+003, 1.616829e+003
2.984015e+003, 1.613784e+003
2.985944e+003, 1.614763e+003
2.987872e+003, 1.614845e+003
2.989801e+003, 1.615427e+003
2.991729e+003, 1.618911e+003
2.993657e+003, 1.623115e+003
2.995586e+003, 1.625738e+003
2.997514e+003, 1.628188e+003
2.999443e+003, 1.630595e+003
3.001371e+003, 1.634381e+003
3.003300e+003, 1.639917e+003
3.005228e+003, 1.647880e+003
3.007157e+003, 1.661273e+003
3.009085e+003, 1.670282e+003
3.011014e+003, 1.670377e+003
3.012942e+003, 1.675683e+003
3.014871e+003, 1.692921e+003
3.016799e+003, 1.705375e+003
3.018728e+003, 1.711865e+003
3.020656e+003, 1.722149e+003
3.022584e+003, 1.736095e+003
3.024513e+003, 1.742892e+003
3.026441e+003, 1.744046e+003
3.028370e+003, 1.753231e+003
3.030298e+003, 1.767186e+003
3.032227e+003, 1.773470e+003
3.034155e+003, 1.778053e+003
3.036084e+003, 1.793583e+003
3.038012e+003, 1.810489e+003
3.039941e+003, 1.814845e+003
3.041869e+003, 1.817488e+003
3.043798e+003, 1.827988e+003
3.045726e+003, 1.837599e+003
3.047655e+003, 1.838938e+003
3.049583e+003, 1.842238e+003
3.051511e+003, 1.854463e+003
3.053440e+003, 1.862548e+003
3.055368e+003, 1.863478e+003
3.057297e+003, 1.862607e+003
3.059225e+003, 1.858108e+003
3.061154e+003, 1.862386e+003
3.063082e+003, 1.876669e+003
3.065011e+003, 1.880354e+003
3.066939e+003, 1.874290e+003
3.068868e+003, 1.873960e+003
3.070796e+003, 1.877113e+003
3.072725e+003, 1.872931e+003
3.074653e+003, 1.865574e+003
3.076582e+003, 1.864058e+003
3.078510e+003, 1.864906e+003
3.080438e+003, 1.865815e+003
3.082367e+003, 1.865113e+003
3.084295e+003, 1.858800e+003
3.086224e+003, 1.854214e+003
3.088152e+003, 1.856310e+003
3.090081e+003, 1.857347e+003
3.092009e+003, 1.853473e+003
3.093938e+003, 1.849403e+003
3.095866e+003, 1.845608e+003
3.097795e+003, 1.841924e+003
3.099723e+003, 1.838185e+003
3.101652e+003, 1.835919e+003
3.103580e+003, 1.835199e+003
3.105509e+003, 1.830290e+003
3.107437e+003, 1.822666e+003
3.109365e+003, 1.820493e+003
3.111294e+003, 1.819952e+003
3.113222e+003, 1.812323e+003
3.115151e+003, 1.802032e+003
3.117079e+003, 1.792944e+003
3.119008e+003, 1.786446e+003
3.120936e+003, 1.784134e+003
3.122865e+003, 1.783291e+003
3.124793e+003, 1.783404e+003
3.126722e+003, 1.782174e+003
3.128650e+003, 1.778623e+003
3.130579e+003, 1.774365e+003
3.132507e+003, 1.769461e+003
3.134436e+003, 1.764905e+003
3.136364e+003, 1.760901e+003
3.138292e+003, 1.756655e+003
3.140221e+003, 1.752914e+003
3.142149e+003, 1.754499e+003
3.144078e+003, 1.758531e+003
3.146006e+003, 1.755469e+003
3.147935e+003, 1.750384e+003
3.149863e+003, 1.749399e+003
3.151792e+003, 1.751443e+003
3.153720e+003, 1.756849e+003
3.155649e+003, 1.762384e+003
3.157577e+003, 1.764338e+003
3.159506e+003, 1.769688e+003
3.161434e+003, 1.783150e+003
3.163363e+003, 1.790889e+003
3.165291e+003, 1.788339e+003
3.167219e+003, 1.786664e+003
3.169148e+003, 1.786428e+003
3.171076e+003, 1.791169e+003
3.173005e+003, 1.800128e+003
3.174933e+003, 1.807948e+003
3.176862e+003, 1.814984e+003
3.178790e+003, 1.820569e+003
3.180719e+003, 1.826932e+003
3.182647e+003, 1.836370e+003
3.184576e+003, 1.847291e+003
3.186504e+003, 1.859261e+003
3.188433e+003, 1.870992e+003
3.190361e+003, 1.882360e+003
3.192290e+003, 1.893452e+003
3.194218e+003, 1.904562e+003
3.196146e+003, 1.915809e+003
3.198075e+003, 1.927345e+003
3.200003e+003, 1.943540e+003
3.201932e+003, 1.963599e+003
3.203860e+003, 1.979660e+003
3.205789e+003, 1.994084e+003
3.207717e+003, 2.015690e+003
3.209646e+003, 2.036445e+003
3.211574e+003, 2.044213e+003
3.213503e+003, 2.051867e+003
3.215431e+003, 2.071865e+003
3.217360e+003, 2.089264e+003
3.219288e+003, 2.099143e+003
3.221217e+003, 2.107097e+003
3.223145e+003, 2.114715e+003
3.225073e+003, 2.119246e+003
3.227002e+003, 2.120653e+003
3.228930e+003, 2.127052e+003
3.230859e+003, 2.135807e+003
3.232787e+003, 2.132850e+003
3.234716e+003, 2.123763e+003
3.236644e+003, 2.119722e+003
3.238573e+003, 2.115892e+003
3.240501e+003, 2.107219e+003
3.242430e+003, 2.097945e+003
3.244358e+003, 2.090835e+003
3.246287e+003, 2.082845e+003
3.248215e+003, 2.073581e+003
3.250144e+003, 2.061018e+003
3.252072e+003, 2.043788e+003
3.254000e+003, 2.026837e+003
3.255929e+003, 2.009395e+003
3.257857e+003, 1.986251e+003
3.259786e+003, 1.959433e+003
3.261714e+003, 1.934034e+003
3.263643e+003, 1.907820e+003
3.265571e+003, 1.875611e+003
3.267500e+003, 1.845945e+003
3.269428e+003, 1.826078e+003
3.271357e+003, 1.806538e+003
3.273285e+003, 1.783806e+003
3.275214e+003, 1.763818e+003
3.277142e+003, 1.747300e+003
3.279071e+003, 1.732458e+003
3.280999e+003, 1.718840e+003
3.282927e+003, 1.702584e+003
3.284856e+003, 1.684987e+003
3.286784e+003, 1.667775e+003
3.288713e+003, 1.652851e+003
3.290641e+003, 1.644337e+003
3.292570e+003, 1.636448e+003
3.294498e+003, 1.627220e+003
3.296427e+003, 1.614923e+003
3.298355e+003, 1.595354e+003
3.300284e+003, 1.579921e+003
3.302212e+003, 1.568989e+003
3.304141e+003, 1.560442e+003
3.306069e+003, 1.553711e+003
3.307998e+003, 1.547634e+003
3.309926e+003, 1.541083e+003
3.311854e+003, 1.530103e+003
3.313783e+003, 1.519561e+003
3.315711e+003, 1.516844e+003
3.317640e+003, 1.510478e+003
3.319568e+003, 1.493316e+003
3.321497e+003, 1.479087e+003
3.323425e+003, 1.470444e+003
3.325354e+003, 1.469104e+003
3.327282e+003, 1.474907e+003
3.329211e+003, 1.468311e+003
3.331139e+003, 1.454770e+003
3.333068e+003, 1.452526e+003
3.334996e+003, 1.452061e+003
3.336925e+003, 1.436875e+003
3.338853e+003, 1.424040e+003
3.340781e+003, 1.427887e+003
3.342710e+003, 1.428210e+003
3.344638e+003, 1.418944e+003
3.346567e+003, 1.409976e+003
3.348495e+003, 1.402270e+003
3.350424e+003, 1.399545e+003
3.352352e+003, 1.400488e+003
3.354281e+003, 1.400727e+003
3.356209e+003, 1.399197e+003
3.358138e+003, 1.392747e+003
3.360066e+003, 1.386992e+003
3.361995e+003, 1.389193e+003
3.363923e+003, 1.387706e+003
3.365852e+003, 1.378030e+003
3.367780e+003, 1.371672e+003
3.369708e+003, 1.371112e+003
3.371637e+003, 1.369568e+003
3.373565e+003, 1.367114e+003
3.375494e+003, 1.364435e+003
3.377422e+003, 1.360746e+003
3.379351e+003, 1.353476e+003
3.381279e+003, 1.346376e+003
3.383208e+003, 1.342629e+003
3.385136e+003, 1.338315e+003
3.387065e+003, 1.330647e+003
3.388993e+003, 1.327052e+003
3.390922e+003, 1.328065e+003
3.392850e+003, 1.330700e+003
3.394779e+003, 1.333276e+003
3.396707e+003, 1.327506e+003
3.398635e+003, 1.319695e+003
3.400564e+003, 1.318359e+003
3.402492e+003, 1.318047e+003
3.404421e+003, 1.316435e+003
3.406349e+003, 1.312080e+003
3.408278e+003, 1.303224e+003
3.410206e+003, 1.301521e+003
3.412135e+003, 1.308208e+003
3.414063e+003, 1.304700e+003
3.415992e+003, 1.295412e+003
3.417920e+003, 1.291405e+003
3.419849e+003, 1.289401e+003
3.421777e+003, 1.285726e+003
3.423706e+003, 1.283235e+003
3.425634e+003, 1.283356e+003
3.427563e+003, 1.284123e+003
3.429491e+003, 1.285005e+003
3.431419e+003, 1.287023e+003
3.433348e+003, 1.288692e+003
3.435276e+003, 1.281494e+003
3.437205e+003, 1.271163e+003
3.439133e+003, 1.268436e+003
3.441062e+003, 1.267442e+003
3.442990e+003, 1.264189e+003
3.444919e+003, 1.262475e+003
3.446847e+003, 1.264213e+003
3.448776e+003, 1.262627e+003
3.450704e+003, 1.257129e+003
3.452633e+003, 1.255247e+003
3.454561e+003, 1.254480e+003
3.456490e+003, 1.244802e+003
3.458418e+003, 1.235697e+003
3.460346e+003, 1.238886e+003
3.462275e+003, 1.240619e+003
3.464203e+003, 1.235495e+003
3.466132e+003, 1.230772e+003
3.468060e+003, 1.227821e+003
3.469989e+003, 1.226554e+003
3.471917e+003, 1.226086e+003
3.473846e+003, 1.221385e+003
3.475774e+003, 1.215917e+003
3.477703e+003, 1.212994e+003
3.479631e+003, 1.212615e+003
3.481560e+003, 1.216282e+003
3.483488e+003, 1.216599e+003
3.485417e+003, 1.209989e+003
3.487345e+003, 1.208341e+003
3.489273e+003, 1.210718e+003
3.491202e+003, 1.212985e+003
3.493130e+003, 1.214597e+003
3.495059e+003, 1.214953e+003
3.496987e+003, 1.213802e+003
3.498916e+003, 1.209118e+003
3.500844e+003, 1.207096e+003
3.502773e+003, 1.209376e+003
3.504701e+003, 1.208841e+003
3.506630e+003, 1.205823e+003
3.508558e+003, 1.204608e+003
3.510487e+003, 1.204173e+003
3.512415e+003, 1.204094e+003
3.514344e+003, 1.202276e+003
3.516272e+003, 1.194812e+003
3.518200e+003, 1.191190e+003
3.520129e+003, 1.192847e+003
3.522057e+003, 1.196126e+003
3.523986e+003, 1.199811e+003
3.525914e+003, 1.199178e+003
3.527843e+003, 1.196029e+003
3.529771e+003, 1.191272e+003
3.531700e+003, 1.188375e+003
3.533628e+003, 1.191356e+003
3.535557e+003, 1.191547e+003
3.537485e+003, 1.187312e+003
3.539414e+003, 1.185975e+003
3.541342e+003, 1.186980e+003
3.543271e+003, 1.187693e+003
3.545199e+003, 1.186640e+003
3.547127e+003, 1.180068e+003
3.549056e+003, 1.175358e+003
3.550984e+003, 1.175896e+003
3.552913e+003, 1.176898e+003
3.554841e+003, 1.177539e+003
3.556770e+003, 1.177657e+003
3.558698e+003, 1.177382e+003
3.560627e+003, 1.177449e+003
3.562555e+003, 1.177453e+003
3.564484e+003, 1.176803e+003
3.566412e+003, 1.176894e+003
3.568341e+003, 1.179235e+003
3.570269e+003, 1.177306e+003
3.572198e+003, 1.171076e+003
3.574126e+003, 1.172763e+003
3.576054e+003, 1.177720e+003
3.577983e+003, 1.177203e+003
3.579911e+003, 1.176265e+003
3.581840e+003, 1.179325e+003
3.583768e+003, 1.178688e+003
3.585697e+003, 1.170814e+003
3.587625e+003, 1.165298e+003
3.589554e+003, 1.162702e+003
3.591482e+003, 1.166990e+003
3.593411e+003, 1.170708e+003
3.595339e+003, 1.160391e+003
3.597268e+003, 1.152838e+003
3.599196e+003, 1.155666e+003
3.601125e+003, 1.160642e+003
3.603053e+003, 1.166778e+003
3.604981e+003, 1.168084e+003
3.606910e+003, 1.166206e+003
3.608838e+003, 1.162808e+003
3.610767e+003, 1.161218e+003
3.612695e+003, 1.166205e+003
3.614624e+003, 1.166266e+003
3.616552e+003, 1.157142e+003
3.618481e+003, 1.157650e+003
3.620409e+003, 1.164968e+003
3.622338e+003, 1.163760e+003
3.624266e+003, 1.160496e+003
3.626195e+003, 1.163220e+003
3.628123e+003, 1.164687e+003
3.630052e+003, 1.160070e+003
3.631980e+003, 1.159867e+003
3.633908e+003, 1.163260e+003
3.635837e+003, 1.156857e+003
3.637765e+003, 1.148065e+003
3.639694e+003, 1.153185e+003
3.641622e+003, 1.156722e+003
3.643551e+003, 1.147097e+003
3.645479e+003, 1.142065e+003
3.647408e+003, 1.143417e+003
3.649336e+003, 1.143782e+003
3.651265e+003, 1.143938e+003
3.653193e+003, 1.148078e+003
3.655122e+003, 1.150939e+003
3.657050e+003, 1.146442e+003
3.658979e+003, 1.144458e+003
3.660907e+003, 1.146837e+003
3.662835e+003, 1.149105e+003
3.664764e+003, 1.150546e+003
3.666692e+003, 1.149379e+003
3.668621e+003, 1.146607e+003
3.670549e+003, 1.140658e+003
3.672478e+003, 1.139226e+003
3.674406e+003, 1.145807e+003
3.676335e+003, 1.148229e+003
3.678263e+003, 1.146459e+003
3.680192e+003, 1.144192e+003
3.682120e+003, 1.142963e+003
3.684049e+003, 1.145839e+003
3.685977e+003, 1.147475e+003
3.687906e+003, 1.145181e+003
3.689834e+003, 1.142742e+003
3.691762e+003, 1.140943e+003
3.693691e+003, 1.145659e+003
3.695619e+003, 1.150668e+003
3.697548e+003, 1.146294e+003
3.699476e+003, 1.141730e+003
3.701405e+003, 1.140327e+003
3.703333e+003, 1.143165e+003
3.705262e+003, 1.148989e+003
3.707190e+003, 1.146841e+003
3.709119e+003, 1.141515e+003
3.711047e+003, 1.140281e+003
3.712976e+003, 1.139110e+003
3.714904e+003, 1.134676e+003
3.716833e+003, 1.135219e+003
3.718761e+003, 1.140122e+003
3.720689e+003, 1.139129e+003
3.722618e+003, 1.136016e+003
3.724546e+003, 1.136894e+003
3.726475e+003, 1.137703e+003
3.728403e+003, 1.136407e+003
3.730332e+003, 1.134630e+003
3.732260e+003, 1.132900e+003
3.734189e+003, 1.135033e+003
3.736117e+003, 1.138016e+003
3.738046e+003, 1.137808e+003
3.739974e+003, 1.135858e+003
3.741903e+003, 1.130552e+003
3.743831e+003, 1.129620e+003
3.745760e+003, 1.132402e+003
3.747688e+003, 1.134034e+003
3.749616e+003, 1.133918e+003
3.751545e+003, 1.129412e+003
3.753473e+003, 1.127084e+003
3.755402e+003, 1.131319e+003
3.757330e+003, 1.132919e+003
3.759259e+003, 1.132764e+003
3.761187e+003, 1.137478e+003
3.763116e+003, 1.140847e+003
3.765044e+003, 1.132934e+003
3.766973e+003, 1.129765e+003
3.768901e+003, 1.140154e+003
3.770830e+003, 1.144458e+003
3.772758e+003, 1.143617e+003
3.774687e+003, 1.139370e+003
3.776615e+003, 1.135873e+003
3.778543e+003, 1.137085e+003
3.780472e+003, 1.138169e+003
3.782400e+003, 1.138282e+003
3.784329e+003, 1.135795e+003
3.786257e+003, 1.132382e+003
3.788186e+003, 1.131845e+003
3.790114e+003, 1.131691e+003
3.792043e+003, 1.129945e+003
3.793971e+003, 1.130881e+003
3.795900e+003, 1.135216e+003
3.797828e+003, 1.129753e+003
3.799757e+003, 1.123120e+003
3.801685e+003, 1.131542e+003
3.803614e+003, 1.137754e+003
3.805542e+003, 1.135094e+003
3.807470e+003, 1.131035e+003
3.809399e+003, 1.126891e+003
3.811327e+003, 1.126550e+003
3.813256e+003, 1.127460e+003
3.815184e+003, 1.128370e+003
3.817113e+003, 1.126289e+003
3.819041e+003, 1.120372e+003
3.820970e+003, 1.118068e+003
3.822898e+003, 1.118557e+003
3.824827e+003, 1.118780e+003
3.826755e+003, 1.119292e+003
3.828684e+003, 1.120762e+003
3.830612e+003, 1.122474e+003
3.832541e+003, 1.124070e+003
3.834469e+003, 1.120378e+003
3.836397e+003, 1.115712e+003
3.838326e+003, 1.117240e+003
3.840254e+003, 1.119323e+003
3.842183e+003, 1.119728e+003
3.844111e+003, 1.120203e+003
3.846040e+003, 1.120245e+003
3.847968e+003, 1.116088e+003
3.849897e+003, 1.113056e+003
3.851825e+003, 1.116729e+003
3.853754e+003, 1.118499e+003
3.855682e+003, 1.116771e+003
3.857611e+003, 1.117636e+003
3.859539e+003, 1.119754e+003
3.861468e+003, 1.121920e+003
3.863396e+003, 1.121036e+003
3.865324e+003, 1.114085e+003
3.867253e+003, 1.111177e+003
3.869181e+003, 1.111800e+003
3.871110e+003, 1.109411e+003
3.873038e+003, 1.107730e+003
3.874967e+003, 1.110970e+003
3.876895e+003, 1.114091e+003
3.878824e+003, 1.116105e+003
3.880752e+003, 1.117477e+003
3.882681e+003, 1.117587e+003
3.884609e+003, 1.114241e+003
3.886538e+003, 1.112389e+003
3.888466e+003, 1.114250e+003
3.890395e+003, 1.115246e+003
3.892323e+003, 1.114889e+003
3.894251e+003, 1.111853e+003
3.896180e+003, 1.109041e+003
3.898108e+003, 1.108062e+003
3.900037e+003, 1.111056e+003
3.901965e+003, 1.117672e+003
3.903894e+003, 1.116330e+003
3.905822e+003, 1.111991e+003
3.907751e+003, 1.113048e+003
3.909679e+003, 1.111991e+003
3.911608e+003, 1.104613e+003
3.913536e+003, 1.106063e+003
3.915465e+003, 1.112806e+003
3.917393e+003, 1.113302e+003
3.919322e+003, 1.112626e+003
3.921250e+003, 1.113766e+003
3.923178e+003, 1.114212e+003
3.925107e+003, 1.114143e+003
3.927035e+003, 1.117169e+003
3.928964e+003, 1.120161e+003
3.930892e+003, 1.120789e+003
3.932821e+003, 1.117624e+003
3.934749e+003, 1.109559e+003
3.936678e+003, 1.106724e+003
3.938606e+003, 1.107762e+003
3.940535e+003, 1.111228e+003
3.942463e+003, 1.115849e+003
3.944392e+003, 1.121871e+003
3.946320e+003, 1.119729e+003
3.948249e+003, 1.112859e+003
3.950177e+003, 1.111824e+003
3.952105e+003, 1.112556e+003
3.954034e+003, 1.112891e+003
3.955962e+003, 1.113008e+003
3.957891e+003, 1.113328e+003
3.959819e+003, 1.120210e+003
3.961748e+003, 1.123453e+003
3.963676e+003, 1.110209e+003
3.965605e+003, 1.106879e+003
3.967533e+003, 1.115315e+003
3.969462e+003, 1.111696e+003
3.971390e+003, 1.105250e+003
3.973319e+003, 1.108559e+003
3.975247e+003, 1.109809e+003
3.977176e+003, 1.104830e+003
3.979104e+003, 1.102927e+003
3.981032e+003, 1.103940e+003
3.982961e+003, 1.109787e+003
3.984889e+003, 1.113149e+003
3.986818e+003, 1.111483e+003
3.988746e+003, 1.112236e+003
3.990675e+003, 1.113952e+003
3.992603e+003, 1.110193e+003
3.994532e+003, 1.107744e+003
3.996460e+003, 1.110420e+003
3.998389e+003, 1.112126e+003
4.000317e+003, 1.112149e+003
4.002246e+003, 1.108002e+003
4.004174e+003, 1.105181e+003
4.006103e+003, 1.109224e+003
4.008031e+003, 1.109443e+003
4.009959e+003, 1.106305e+003
4.011888e+003, 1.106044e+003
4.013816e+003, 1.106287e+003
4.015745e+003, 1.105172e+003
4.017673e+003, 1.104592e+003
4.019602e+003, 1.104768e+003
4.021530e+003, 1.101872e+003
4.023459e+003, 1.099874e+003
4.025387e+003, 1.104488e+003
4.027316e+003, 1.106648e+003
4.029244e+003, 1.104802e+003
4.031173e+003, 1.099760e+003
4.033101e+003, 1.096103e+003
4.035030e+003, 1.102085e+003
4.036958e+003, 1.102237e+003
4.038886e+003, 1.094711e+003
4.040815e+003, 1.089705e+003
4.042743e+003, 1.087624e+003
4.044672e+003, 1.089159e+003
4.046600e+003, 1.091434e+003
4.048529e+003, 1.093792e+003
4.050457e+003, 1.092082e+003
4.052386e+003, 1.089727e+003
4.054314e+003, 1.093506e+003
4.056243e+003, 1.094173e+003
4.058171e+003, 1.088478e+003
4.060100e+003, 1.088952e+003
4.062028e+003, 1.092783e+003
4.063957e+003, 1.097467e+003
4.065885e+003, 1.099150e+003
4.067813e+003, 1.097011e+003
4.069742e+003, 1.095687e+003
4.071670e+003, 1.095107e+003
4.073599e+003, 1.094925e+003
4.075527e+003, 1.095136e+003
4.077456e+003, 1.095769e+003
4.079384e+003, 1.094287e+003
4.081313e+003, 1.092430e+003
4.083241e+003, 1.092684e+003
4.085170e+003, 1.094675e+003
4.087098e+003, 1.099039e+003
4.089027e+003, 1.098386e+003
4.090955e+003, 1.096212e+003
4.092884e+003, 1.098256e+003
4.094812e+003, 1.098917e+003
4.096740e+003, 1.096732e+003
4.098669e+003, 1.090894e+003
4.100598e+003, 1.085265e+003
4.102526e+003, 1.086395e+003
4.104454e+003, 1.084773e+003
4.106383e+003, 1.079179e+003
4.108312e+003, 1.078191e+003
4.110240e+003, 1.079971e+003
4.112168e+003, 1.083281e+003
4.114097e+003, 1.083887e+003
4.116025e+003, 1.080981e+003
4.117954e+003, 1.086057e+003
4.119882e+003, 1.091203e+003
4.121811e+003, 1.086624e+003
4.123739e+003, 1.083719e+003
4.125667e+003, 1.084091e+003
4.127596e+003, 1.084019e+003
4.129524e+003, 1.084574e+003
4.131453e+003, 1.086792e+003
4.133381e+003, 1.090000e+003
4.135310e+003, 1.093494e+003
4.137238e+003, 1.094686e+003
4.139167e+003, 1.093578e+003
4.141095e+003, 1.089804e+003
4.143023e+003, 1.085830e+003
4.144952e+003, 1.082383e+003
4.146881e+003, 1.080167e+003
4.148809e+003, 1.080872e+003
4.150737e+003, 1.085880e+003
4.152666e+003, 1.086797e+003
4.154595e+003, 1.085129e+003
4.156523e+003, 1.086732e+003
4.158451e+003, 1.089299e+003
4.160380e+003, 1.092048e+003
4.162309e+003, 1.095365e+003
4.164237e+003, 1.097637e+003
4.166165e+003, 1.094660e+003
4.168094e+003, 1.091366e+003
4.170022e+003, 1.088857e+003
4.171951e+003, 1.092088e+003
4.173879e+003, 1.095985e+003
4.175808e+003, 1.091776e+003
4.177736e+003, 1.089602e+003
4.179665e+003, 1.091242e+003
4.181593e+003, 1.095743e+003
4.183521e+003, 1.097852e+003
4.185450e+003, 1.089628e+003
4.187378e+003, 1.087373e+003
4.189307e+003, 1.091184e+003
4.191235e+003, 1.090958e+003
4.193164e+003, 1.090478e+003
4.195092e+003, 1.092819e+003
4.197021e+003, 1.090095e+003
4.198949e+003, 1.085280e+003
4.200878e+003, 1.088919e+003
4.202806e+003, 1.090904e+003
4.204734e+003, 1.087594e+003
4.206663e+003, 1.081996e+003
4.208592e+003, 1.077358e+003
4.210520e+003, 1.078507e+003
4.212448e+003, 1.082473e+003
4.214377e+003, 1.088160e+003
4.216306e+003, 1.090428e+003
4.218234e+003, 1.090038e+003
4.220162e+003, 1.086803e+003
4.222091e+003, 1.085512e+003
4.224020e+003, 1.085799e+003
4.225948e+003, 1.080132e+003
4.227876e+003, 1.077630e+003
4.229805e+003, 1.084659e+003
4.231733e+003, 1.084070e+003
4.233662e+003, 1.080070e+003
4.235590e+003, 1.087201e+003
4.237519e+003, 1.092830e+003
##END=



