##NAMES=Likasite
##RRUFFID=R060327
##IDEAL CHEMISTRY=Cu_3_(NO_3_)(OH)_5_·2H_2_O
##LOCALITY=Dzhezkazgan, Kazakhstan
##OWNER=RRUFF
##SOURCE=Michael Scott
##DESCRIPTION=Blue granular
##STATUS=The identification of this mineral is not yet confirmed
##URL=https://www.rruff.net/odr/rruff_sample/R060327
##FILETYPE=Raman Processed
##RAMAN WAVELENGTH=780

74.70068, 36.54629
76.62915, 37.78699
78.55762, 40.20370
80.48608, 43.15741
82.41455, 46.88106
84.34302, 52.25729
86.27148, 60.19328
88.19995, 67.70768
90.12842, 75.41943
92.05688, 81.50397
93.98535, 81.20213
95.91382, 74.29102
97.84229, 67.94855
99.77075, 61.98679
101.6992, 57.44728
103.6277, 54.40136
105.5562, 52.12439
107.4846, 50.15963
109.4131, 48.44829
111.3416, 47.11154
113.2700, 46.35826
115.1985, 45.40544
117.1270, 43.94971
119.0554, 42.41883
120.9839, 40.93148
122.9124, 39.55314
124.8408, 38.58171
126.7693, 37.99647
128.6978, 37.89674
130.6262, 38.52224
132.5547, 39.37178
134.4832, 40.55598
136.4116, 41.71334
138.3401, 41.79366
140.2686, 40.28108
142.1970, 38.52581
144.1255, 36.26458
146.0540, 34.07978
147.9824, 32.22755
149.9109, 30.64793
151.8394, 29.26768
153.7678, 28.08912
155.6963, 27.16956
157.6248, 26.59144
159.5532, 26.13281
161.4817, 25.83612
163.4102, 25.52153
165.3386, 24.91824
167.2671, 23.96497
169.1956, 23.22472
171.1240, 22.77798
173.0525, 22.34086
174.9810, 21.82798
176.9094, 21.26566
178.8379, 20.59256
180.7664, 19.84232
182.6948, 19.42511
184.6233, 19.42314
186.5518, 19.36872
188.4802, 19.10468
190.4087, 18.78824
192.3372, 18.46045
194.2656, 18.14999
196.1941, 17.96499
198.1226, 17.90595
200.0510, 17.84027
201.9795, 17.75506
203.9080, 17.64121
205.8364, 17.43359
207.7649, 17.23391
209.6934, 17.22547
211.6218, 17.37815
213.5503, 17.41766
215.4788, 17.25413
217.4072, 17.17900
219.3357, 17.34904
221.2642, 17.55506
223.1926, 17.64238
225.1211, 17.65159
227.0496, 17.71154
228.9780, 17.83042
230.9065, 17.92261
232.8350, 17.98001
234.7634, 17.99204
236.6919, 17.95977
238.6204, 17.87494
240.5488, 17.69271
242.4773, 17.43930
244.4058, 17.26927
246.3342, 17.29892
248.2627, 17.19794
250.1912, 16.75849
252.1196, 16.34162
254.0481, 16.16689
255.9766, 16.17657
257.9051, 16.31884
259.8335, 16.63442
261.7620, 16.75708
263.6905, 16.50649
265.6189, 16.27009
267.5474, 16.14386
269.4759, 16.05918
271.4043, 15.97480
273.3328, 15.88434
275.2613, 15.75191
277.1897, 15.49493
279.1182, 15.38568
281.0467, 15.61468
282.9751, 15.75300
284.9036, 15.49203
286.8321, 15.17270
288.7605, 15.18575
290.6890, 15.51328
292.6175, 15.61485
294.5459, 15.36776
296.4744, 15.14183
298.4029, 14.93581
300.3313, 14.78957
302.2598, 14.74105
304.1883, 14.75251
306.1167, 14.78363
308.0452, 14.83398
309.9737, 14.93440
311.9021, 15.11898
313.8306, 15.24302
315.7591, 15.29581
317.6875, 15.25321
319.6160, 15.00921
321.5445, 14.72754
323.4729, 14.66267
325.4014, 14.81796
327.3299, 14.95436
329.2583, 15.12220
331.1868, 15.05620
333.1153, 14.47118
335.0437, 13.96398
336.9722, 13.87222
338.9007, 13.97867
340.8291, 13.98409
342.7576, 13.90416
344.6861, 13.96778
346.6145, 14.23071
348.5430, 14.31437
350.4715, 13.97891
352.3999, 13.65808
354.3284, 13.50645
356.2569, 13.46631
358.1853, 13.49127
360.1138, 13.57624
362.0423, 13.70361
363.9707, 13.88513
365.8992, 13.99992
367.8277, 13.99151
369.7561, 13.95834
371.6846, 13.89853
373.6131, 13.85187
375.5415, 13.89558
377.4700, 13.96557
379.3985, 13.90737
381.3269, 13.71799
383.2554, 13.52435
385.1839, 13.33540
387.1123, 13.15994
389.0408, 12.91772
390.9693, 12.78087
392.8977, 12.97521
394.8262, 13.26490
396.7547, 13.30623
398.6831, 13.13390
400.6116, 12.98446
402.5401, 12.85862
404.4685, 12.79660
406.3970, 12.86541
408.3255, 12.90486
410.2539, 12.80850
412.1824, 12.70522
414.1109, 12.73567
416.0393, 12.83594
417.9678, 12.85788
419.8963, 12.79206
421.8247, 12.68513
423.7532, 12.47485
425.6817, 12.32712
427.6101, 12.25816
429.5386, 12.25910
431.4671, 12.38195
433.3955, 12.53054
435.3240, 12.60092
437.2525, 12.60544
439.1809, 12.61926
441.1094, 12.64216
443.0379, 12.67070
444.9664, 12.67181
446.8948, 12.75684
448.8233, 13.05819
450.7518, 13.31220
452.6802, 13.29074
454.6087, 13.19110
456.5372, 13.32928
458.4656, 13.65683
460.3941, 13.70699
462.3226, 13.43417
464.2510, 13.23016
466.1795, 13.13336
468.1080, 13.08702
470.0364, 13.11961
471.9649, 13.13320
473.8934, 12.98657
475.8218, 12.85353
477.7503, 13.00439
479.6788, 13.38294
481.6072, 13.69260
483.5357, 13.93534
485.4642, 14.12286
487.3926, 14.24272
489.3211, 14.35538
491.2496, 14.57362
493.1780, 14.66918
495.1065, 14.38633
497.0350, 14.07244
498.9634, 14.13625
500.8919, 14.45464
502.8204, 14.67757
504.7488, 14.81702
506.6773, 15.03312
508.6058, 15.40131
510.5342, 15.59618
512.4627, 15.40680
514.3912, 15.22079
516.3196, 15.13154
518.2481, 15.08937
520.1766, 15.12062
522.1050, 15.13848
524.0335, 14.97657
525.9620, 14.68955
527.8904, 14.48778
529.8189, 14.40402
531.7474, 14.21276
533.6758, 13.80186
535.6043, 13.42836
537.5328, 13.14000
539.4612, 12.87118
541.3897, 12.57182
543.3182, 12.30175
545.2466, 12.14200
547.1751, 12.03396
549.1036, 11.89615
551.0320, 11.72768
552.9605, 11.52557
554.8890, 11.26565
556.8174, 11.04146
558.7459, 10.81062
560.6744, 10.68454
562.6028, 10.77058
564.5313, 10.83564
566.4598, 10.70966
568.3882, 10.58852
570.3167, 10.68806
572.2452, 10.85673
574.1736, 10.79360
576.1021, 10.52792
578.0306, 10.38351
579.9590, 10.38071
581.8875, 10.44256
583.8160, 10.61403
585.7444, 10.70672
587.6729, 10.62482
589.6014, 10.58411
591.5298, 10.74702
593.4583, 10.89633
595.3868, 10.85424
597.3152, 10.75716
599.2437, 10.80545
601.1722, 10.93818
603.1006, 10.93658
605.0291, 10.79743
606.9576, 10.69298
608.8860, 10.62151
610.8145, 10.61191
612.7430, 10.69701
614.6714, 10.75062
616.5999, 10.69573
618.5284, 10.66256
620.4568, 10.73997
622.3853, 10.81575
624.3138, 10.78317
626.2422, 10.71587
628.1707, 10.72521
630.0992, 10.78711
632.0276, 10.84975
633.9561, 10.90140
635.8846, 10.80739
637.8130, 10.53407
639.7415, 10.42633
641.6700, 10.63066
643.5984, 10.75955
645.5269, 10.66857
647.4554, 10.57771
649.3839, 10.55714
651.3123, 10.55415
653.2408, 10.50345
655.1693, 10.48031
657.0977, 10.60904
659.0262, 10.80472
660.9547, 10.95241
662.8831, 11.03228
664.8116, 10.92605
666.7401, 10.61564
668.6685, 10.43264
670.5970, 10.43068
672.5255, 10.47576
674.4539, 10.61617
676.3824, 10.70366
678.3109, 10.68352
680.2393, 10.65203
682.1678, 10.62514
684.0963, 10.62433
686.0247, 10.69264
687.9532, 10.76867
689.8817, 10.76430
691.8101, 10.74270
693.7386, 10.85411
695.6671, 11.06028
697.5955, 11.11301
699.5240, 10.98192
701.4525, 11.02579
703.3809, 11.30812
705.3094, 11.59525
707.2379, 11.92136
709.1663, 12.14709
711.0948, 12.16430
713.0233, 12.29062
714.9517, 12.75070
716.8802, 13.14381
718.8087, 13.30929
720.7371, 13.26490
722.6656, 12.87221
724.5941, 12.41148
726.5225, 12.22150
728.4510, 12.17200
730.3795, 11.97100
732.3079, 11.67908
734.2364, 11.59623
736.1649, 11.71690
738.0933, 11.76882
740.0218, 11.75025
741.9503, 11.71360
743.8787, 11.66420
745.8072, 11.58707
747.7357, 11.45440
749.6641, 11.37976
751.5926, 11.39009
753.5211, 11.47376
755.4495, 11.67509
757.3780, 11.87887
759.3065, 12.06427
761.2349, 12.19533
763.1634, 12.24087
765.0919, 12.22153
767.0203, 12.10320
768.9488, 11.97140
770.8773, 12.00193
772.8057, 12.12211
774.7342, 12.13957
776.6627, 12.08579
778.5911, 12.08790
780.5196, 12.14872
782.4481, 12.26466
784.3765, 12.45769
786.3050, 12.47312
788.2335, 12.21779
790.1619, 12.00251
792.0904, 11.83936
794.0189, 11.76068
795.9473, 11.78320
797.8758, 11.86812
799.8043, 12.11180
801.7327, 12.26013
803.6612, 12.08207
805.5897, 11.94526
807.5181, 12.13964
809.4466, 12.37329
811.3751, 12.42502
813.3036, 12.39555
815.2321, 12.33714
817.1605, 12.29908
819.0890, 12.37235
821.0175, 12.51024
822.9459, 12.62516
824.8744, 12.70842
826.8029, 12.69350
828.7313, 12.59103
830.6598, 12.58203
832.5883, 12.66714
834.5167, 12.86039
836.4452, 13.22277
838.3737, 13.40730
840.3021, 13.41226
842.2306, 13.20123
844.1591, 12.65929
846.0875, 12.39559
848.0160, 12.60182
849.9445, 12.76972
851.8729, 12.78332
853.8014, 12.71015
855.7299, 12.50503
857.6583, 12.36093
859.5868, 12.46756
861.5153, 12.47688
863.4437, 12.10121
865.3722, 11.76259
867.3007, 11.69318
869.2291, 11.74689
871.1576, 11.92621
873.0861, 12.06045
875.0145, 11.94613
876.9430, 11.73330
878.8715, 11.55382
880.7999, 11.43467
882.7284, 11.50786
884.6569, 11.62086
886.5853, 11.36212
888.5138, 10.93861
890.4423, 10.97536
892.3707, 11.27725
894.2992, 11.20057
896.2277, 10.85386
898.1561, 10.75211
900.0846, 10.86005
902.0131, 10.82952
903.9415, 10.65575
905.8700, 10.53340
907.7985, 10.47621
909.7269, 10.38644
911.6554, 10.24247
913.5839, 10.20584
915.5123, 10.33983
917.4408, 10.36905
919.3693, 10.20279
921.2977, 10.12225
923.2262, 10.22269
925.1547, 10.25741
927.0831, 10.16778
929.0116, 10.09530
930.9401, 10.05781
932.8685, 10.02751
934.7970, 9.997743
936.7255, 9.979440
938.6539, 9.959939
940.5824, 9.988070
942.5109, 10.16247
944.4393, 10.21692
946.3678, 9.962036
948.2963, 9.766280
950.2247, 9.819785
952.1532, 9.882840
954.0817, 9.817309
956.0101, 9.784543
957.9386, 9.877653
959.8671, 10.00982
961.7955, 10.20739
963.7240, 10.31800
965.6525, 10.15561
967.5809, 10.00488
969.5094, 10.03658
971.4379, 10.13629
973.3663, 10.25228
975.2948, 10.37945
977.2233, 10.54698
979.1517, 10.68530
981.0802, 10.75034
983.0087, 10.74568
984.9371, 10.59358
986.8656, 10.46302
988.7941, 10.65335
990.7225, 10.79868
992.6510, 10.37952
994.5795, 9.865809
996.5079, 9.795417
998.4364, 9.889845
1000.365, 9.860907
1002.293, 9.782785
1004.222, 9.682620
1006.150, 9.644621
1008.079, 9.885716
1010.007, 10.14523
1011.936, 10.02480
1013.864, 9.781816
1015.793, 9.713881
1017.721, 9.764791
1019.650, 9.885860
1021.578, 10.05680
1023.506, 10.26267
1025.435, 10.49092
1027.363, 10.74215
1029.292, 10.98964
1031.220, 11.13672
1033.149, 11.31448
1035.077, 11.52623
1037.006, 12.02470
1038.934, 12.83005
1040.863, 14.39285
1042.791, 17.47556
1044.720, 21.45380
1046.648, 27.25207
1048.577, 31.89057
1050.505, 31.22979
1052.433, 28.01819
1054.362, 24.45313
1056.290, 21.11878
1058.219, 18.79241
1060.147, 16.94384
1062.076, 14.97795
1064.004, 13.21089
1065.933, 12.00472
1067.861, 11.13295
1069.790, 10.43049
1071.718, 9.885140
1073.647, 9.496854
1075.575, 9.248820
1077.504, 9.189320
1079.432, 9.187175
1081.360, 9.154143
1083.289, 9.106693
1085.217, 9.057137
1087.146, 8.998832
1089.074, 8.867697
1091.003, 8.805488
1092.931, 9.028131
1094.860, 9.181005
1096.788, 8.944153
1098.717, 8.728359
1100.645, 8.779470
1102.574, 8.871481
1104.502, 8.981686
1106.431, 8.978254
1108.359, 8.632508
1110.287, 8.434865
1112.216, 8.707952
1114.144, 8.925532
1116.073, 8.909273
1118.001, 8.843824
1119.930, 8.738841
1121.858, 8.656219
1123.787, 8.580486
1125.715, 8.591071
1127.644, 8.778738
1129.572, 8.870588
1131.501, 8.757311
1133.429, 8.732393
1135.358, 8.888031
1137.286, 8.963347
1139.214, 8.931437
1141.143, 8.805292
1143.071, 8.537652
1145.000, 8.416700
1146.928, 8.476831
1148.857, 8.577795
1150.785, 8.722793
1152.714, 8.798324
1154.642, 8.800537
1156.571, 8.751925
1158.499, 8.654993
1160.428, 8.541309
1162.356, 8.427539
1164.285, 8.478873
1166.213, 8.652587
1168.141, 8.770801
1170.070, 8.846830
1171.998, 8.958284
1173.927, 9.029474
1175.855, 8.814840
1177.784, 8.527659
1179.712, 8.538022
1181.641, 8.643056
1183.569, 8.551129
1185.498, 8.477999
1187.426, 8.729255
1189.355, 8.956442
1191.283, 8.836945
1193.212, 8.704161
1195.140, 8.769562
1197.068, 8.814494
1198.997, 8.695487
1200.925, 8.636891
1202.854, 8.742582
1204.782, 8.867587
1206.711, 8.995256
1208.639, 9.039700
1210.568, 8.961604
1212.496, 8.895983
1214.425, 8.860787
1216.353, 8.915691
1218.282, 9.075489
1220.210, 9.006063
1222.139, 8.700308
1224.067, 8.612677
1225.995, 8.741623
1227.924, 8.919906
1229.852, 9.102812
1231.781, 9.084015
1233.709, 8.969212
1235.638, 9.089568
1237.566, 9.284786
1239.495, 9.223003
1241.423, 9.098039
1243.352, 9.156781
1245.280, 9.293124
1247.209, 9.466675
1249.137, 9.586918
1251.066, 9.550159
1252.994, 9.503040
1254.922, 9.523654
1256.851, 9.549242
1258.779, 9.546783
1260.708, 9.566956
1262.636, 9.633944
1264.565, 9.696942
1266.493, 9.785659
1268.422, 9.766006
1270.350, 9.549701
1272.279, 9.635097
1274.207, 10.04945
1276.136, 10.17520
1278.064, 10.06357
1279.993, 10.15125
1281.921, 10.34536
1283.849, 10.29708
1285.778, 10.19026
1287.706, 10.40489
1289.635, 10.69335
1291.563, 10.77450
1293.492, 10.80716
1295.420, 10.88419
1297.349, 10.98864
1299.277, 11.18161
1301.206, 11.20463
1303.134, 10.83184
1305.063, 10.79979
1306.991, 11.38055
1308.920, 11.72124
1310.848, 11.68243
1312.776, 11.55473
1314.705, 11.36967
1316.633, 11.34351
1318.562, 11.45513
1320.490, 11.56828
1322.419, 11.66096
1324.347, 11.64274
1326.276, 11.59497
1328.204, 11.61593
1330.133, 11.71167
1332.061, 12.02740
1333.990, 12.21290
1335.918, 11.85658
1337.847, 11.62952
1339.775, 11.95564
1341.703, 12.08883
1343.632, 11.84218
1345.560, 11.62301
1347.489, 11.45965
1349.417, 11.56859
1351.346, 11.91695
1353.274, 11.89298
1355.203, 11.60493
1357.131, 11.53781
1359.060, 11.57382
1360.988, 11.48513
1362.917, 11.34757
1364.845, 11.18629
1366.774, 11.09712
1368.702, 11.21827
1370.630, 11.31290
1372.559, 11.26166
1374.487, 11.19926
1376.416, 11.13042
1378.344, 11.11190
1380.273, 11.15114
1382.201, 11.23036
1384.130, 11.34744
1386.058, 11.39627
1387.987, 11.40152
1389.915, 11.46501
1391.844, 11.53635
1393.772, 11.51334
1395.701, 11.48365
1397.629, 11.60855
1399.557, 11.57665
1401.486, 11.11043
1403.414, 10.82627
1405.343, 10.92627
1407.271, 11.18294
1409.200, 11.59881
1411.128, 11.61363
1413.057, 11.21599
1414.985, 11.03255
1416.914, 10.98133
1418.842, 10.79090
1420.771, 10.55031
1422.699, 10.33317
1424.628, 10.22414
1426.556, 10.40203
1428.484, 10.52910
1430.413, 10.42954
1432.341, 10.36798
1434.270, 10.40052
1436.198, 10.44995
1438.127, 10.50456
1440.055, 10.46417
1441.984, 10.36714
1443.912, 10.45251
1445.841, 10.59009
1447.769, 10.49790
1449.698, 10.37899
1451.626, 10.47268
1453.555, 10.55998
1455.483, 10.57965
1457.411, 10.44718
1459.340, 10.01050
1461.268, 9.805979
1463.197, 9.886716
1465.125, 9.885496
1467.054, 9.820636
1468.982, 9.871632
1470.911, 9.971833
1472.839, 10.00595
1474.768, 10.00220
1476.696, 9.954739
1478.625, 9.929317
1480.553, 9.948771
1482.482, 10.02164
1484.410, 10.20468
1486.339, 10.24918
1488.267, 10.13910
1490.195, 10.04567
1492.124, 9.983431
1494.052, 10.03169
1495.981, 10.12513
1497.909, 10.22530
1499.838, 10.24002
1501.766, 10.04971
1503.695, 9.941541
1505.623, 10.03251
1507.552, 10.10331
1509.480, 10.12450
1511.409, 9.974558
1513.337, 9.723608
1515.266, 9.803743
1517.194, 10.02303
1519.122, 10.04510
1521.051, 10.02273
1522.979, 10.12586
1524.908, 10.12623
1526.836, 9.901346
1528.765, 9.800332
1530.693, 9.876634
1532.622, 10.00406
1534.550, 10.13343
1536.479, 10.01396
1538.407, 9.841496
1540.336, 10.00424
1542.264, 10.19933
1544.193, 10.16109
1546.121, 10.12081
1548.049, 10.14453
1549.978, 10.20630
1551.906, 10.30525
1553.835, 10.41367
1555.763, 10.52271
1557.692, 10.62970
1559.620, 10.68832
1561.549, 10.57322
1563.477, 10.48791
1565.406, 10.62164
1567.334, 10.70437
1569.263, 10.61745
1571.191, 10.58545
1573.120, 10.61166
1575.048, 10.68501
1576.977, 10.81214
1578.905, 11.10789
1580.833, 11.33015
1582.762, 11.18625
1584.690, 11.08019
1586.619, 11.21409
1588.547, 11.30704
1590.476, 11.30497
1592.404, 11.34774
1594.333, 11.39859
1596.261, 11.21928
1598.190, 10.99509
1600.118, 10.98409
1602.047, 11.03263
1603.975, 11.08745
1605.904, 11.13181
1607.832, 11.17079
1609.760, 11.05019
1611.689, 10.80891
1613.617, 10.78951
1615.546, 10.85538
1617.474, 10.75453
1619.403, 10.67212
1621.331, 10.79073
1623.260, 10.77359
1625.188, 10.54097
1627.117, 10.28984
1629.045, 10.05420
1630.974, 9.887056
1632.902, 9.812207
1634.831, 9.921204
1636.759, 10.06231
1638.688, 10.20745
1640.616, 10.17440
1642.544, 9.893632
1644.473, 9.746774
1646.401, 9.730831
1648.330, 9.675006
1650.258, 9.638770
1652.187, 9.817584
1654.115, 9.886303
1656.044, 9.511062
1657.972, 9.267694
1659.901, 9.265825
1661.829, 9.295167
1663.758, 9.333815
1665.686, 9.265223
1667.615, 9.202414
1669.543, 9.352309
1671.471, 9.409444
1673.400, 9.135233
1675.328, 8.993505
1677.257, 9.048886
1679.185, 9.148807
1681.114, 9.248053
1683.042, 9.188746
1684.971, 9.078558
1686.899, 8.976960
1688.828, 8.924391
1690.756, 8.938878
1692.685, 9.000158
1694.613, 9.088673
1696.542, 8.984748
1698.470, 8.820651
1700.398, 8.798929
1702.327, 8.852206
1704.255, 8.970915
1706.184, 9.063740
1708.112, 9.113874
1710.041, 9.054585
1711.969, 8.940133
1713.898, 8.922387
1715.826, 8.938931
1717.755, 8.919173
1719.683, 8.962051
1721.612, 9.109446
1723.540, 9.075365
1725.469, 8.894719
1727.397, 8.875497
1729.325, 8.923434
1731.254, 8.924242
1733.182, 8.923191
1735.111, 8.937101
1737.039, 8.981447
1738.968, 9.042713
1740.896, 8.901216
1742.825, 8.709392
1744.753, 8.740714
1746.682, 8.819162
1748.610, 8.912887
1750.539, 8.810394
1752.467, 8.470114
1754.396, 8.578240
1756.324, 8.867138
1758.252, 8.573344
1760.181, 8.320689
1762.109, 8.659358
1764.038, 8.872492
1765.966, 8.791607
1767.895, 8.754886
1769.823, 8.758828
1771.752, 8.820586
1773.680, 8.874208
1775.609, 8.883727
1777.537, 8.824814
1779.466, 8.652244
1781.394, 8.787931
1783.323, 9.083716
1785.251, 9.002753
1787.179, 8.827456
1789.108, 8.748381
1791.036, 8.702698
1792.965, 8.677987
1794.893, 8.636654
1796.822, 8.605218
1798.750, 8.684646
1800.679, 8.797586
1802.607, 8.937471
1804.536, 8.908688
1806.464, 8.673994
1808.393, 8.618672
1810.321, 8.691830
1812.250, 8.774233
1814.178, 8.802878
1816.106, 8.685135
1818.035, 8.633525
1819.963, 8.671277
1821.892, 8.647586
1823.820, 8.630704
1825.749, 8.818410
1827.677, 8.977388
1829.606, 8.923716
1831.534, 8.916092
1833.463, 8.965578
1835.391, 9.004324
1837.320, 8.994429
1839.248, 8.826402
1841.177, 8.714070
1843.105, 8.823811
1845.033, 8.793015
1846.962, 8.657492
1848.890, 8.765075
1850.819, 8.880864
1852.747, 8.713639
1854.676, 8.616530
1856.604, 8.718250
1858.533, 8.813229
1860.461, 8.892072
1862.390, 8.971558
1864.318, 8.920618
1866.247, 8.554687
1868.175, 8.452321
1870.104, 8.710132
1872.032, 8.822397
1873.960, 8.822303
1875.889, 8.737219
1877.817, 8.586585
1879.746, 8.333019
1881.674, 8.404088
1883.603, 8.733653
1885.531, 8.987878
1887.460, 9.069209
1889.388, 8.801272
1891.317, 8.670482
1893.245, 8.758918
1895.174, 8.757832
1897.102, 8.700885
1899.031, 8.640006
1900.959, 8.624063
1902.887, 8.691740
1904.816, 8.613382
1906.744, 8.425942
1908.673, 8.301068
1910.601, 8.327518
1912.530, 8.739336
1914.458, 8.940505
1916.387, 8.864847
1918.315, 8.928928
1920.244, 9.005963
1922.172, 8.823424
1924.101, 8.688296
1926.029, 8.729214
1927.958, 8.805797
1929.886, 8.888152
1931.814, 8.880173
1933.743, 8.874230
1935.671, 8.956934
1937.600, 9.005439
1939.528, 9.005855
1941.457, 8.814712
1943.385, 8.623621
1945.314, 8.600796
1947.242, 8.721132
1949.171, 9.024107
1951.099, 9.024980
1953.028, 8.855318
1954.956, 8.663273
1956.885, 8.652581
1958.813, 8.960538
1960.741, 9.010395
1962.670, 8.881348
1964.598, 8.895913
1966.527, 8.965182
1968.455, 9.060527
1970.384, 9.062800
1972.312, 8.978806
1974.241, 8.901671
1976.169, 8.906362
1978.098, 9.136165
1980.026, 9.142777
1981.955, 8.889469
1983.883, 8.762602
1985.812, 8.747766
1987.740, 8.910356
1989.668, 8.924277
1991.597, 8.742403
1993.525, 8.966048
1995.454, 9.277171
1997.382, 9.083476
1999.311, 8.943069
2001.239, 9.006914
2003.168, 9.231317
2005.096, 9.423513
2007.025, 9.134009
2008.953, 8.900828
2010.882, 8.955960
2012.810, 9.130096
2014.739, 9.295094
2016.667, 9.115785
2018.595, 8.901153
2020.524, 8.726088
2022.452, 8.920453
2024.381, 9.307789
2026.309, 9.216501
2028.238, 9.068678
2030.166, 9.080912
2032.095, 9.121511
2034.023, 9.171622
2035.952, 9.161272
2037.880, 9.213305
2039.809, 9.457045
2041.737, 9.376278
2043.666, 9.079545
2045.594, 9.185486
2047.522, 9.366292
2049.451, 9.479582
2051.379, 9.319574
2053.308, 8.995233
2055.236, 8.981534
2057.165, 9.104855
2059.093, 9.286775
2061.022, 9.412846
2062.950, 9.465397
2064.879, 9.384612
2066.807, 9.331994
2068.736, 9.391250
2070.664, 9.498885
2072.593, 9.623003
2074.521, 9.752792
2076.449, 9.719989
2078.378, 9.394306
2080.306, 9.264130
2082.235, 9.332750
2084.163, 9.622743
2086.092, 9.728863
2088.020, 9.427760
2089.949, 9.234756
2091.877, 9.187786
2093.806, 9.327140
2095.734, 9.502628
2097.663, 9.677360
2099.591, 9.693243
2101.520, 9.645392
2103.448, 9.690996
2105.376, 9.739738
2107.305, 9.759484
2109.233, 9.916885
2111.162, 9.980160
2113.090, 9.580636
2115.019, 9.365509
2116.947, 9.463954
2118.876, 9.560523
2120.804, 9.675709
2122.733, 9.806292
2124.661, 10.11433
2126.590, 10.51722
2128.518, 10.16293
2130.447, 9.888393
2132.375, 10.24488
2134.303, 10.37120
2136.232, 10.24538
2138.160, 9.925542
2140.089, 9.882447
2142.017, 10.33219
2143.946, 10.13888
2145.874, 9.713074
2147.803, 9.935263
2149.731, 10.27301
2151.660, 10.57418
2153.588, 10.41222
2155.517, 10.13471
2157.445, 10.11827
2159.374, 10.26789
2161.302, 10.48249
2163.230, 10.18319
2165.159, 9.964758
2167.087, 10.37410
2169.016, 10.41428
2170.944, 10.20926
2172.873, 10.17320
2174.801, 10.29068
2176.730, 10.59703
2178.658, 10.44795
2180.587, 10.18914
2182.515, 10.27678
2184.444, 10.47256
2186.372, 10.72670
2188.301, 11.19606
2190.229, 11.50588
2192.157, 11.30975
2194.086, 11.20531
2196.014, 11.17139
2197.943, 10.98147
2199.871, 10.84543
2201.800, 10.84399
2203.728, 10.95574
2205.657, 11.08291
2207.585, 11.12596
2209.514, 11.05616
2211.442, 10.92724
2213.371, 11.16464
2215.299, 11.36979
2217.228, 11.33447
2219.156, 11.26389
2221.084, 11.21603
2223.013, 11.36825
2224.941, 11.23252
2226.870, 10.79451
2228.798, 11.05294
2230.727, 11.44265
2232.655, 11.50443
2234.584, 11.60513
2236.512, 11.66488
2238.441, 11.26204
2240.369, 11.04593
2242.298, 11.18414
2244.226, 11.41161
2246.155, 11.56818
2248.083, 11.38235
2250.011, 11.52625
2251.940, 11.85026
2253.868, 11.61648
2255.797, 11.52016
2257.725, 11.87494
2259.654, 11.61293
2261.582, 11.26731
2263.511, 11.50766
2265.439, 11.62989
2267.368, 11.62100
2269.296, 11.76480
2271.225, 11.80817
2273.153, 11.60030
2275.082, 11.72671
2277.010, 11.83447
2278.938, 11.48464
2280.867, 11.58454
2282.795, 12.02798
2284.724, 12.16297
2286.652, 12.10978
2288.581, 11.90483
2290.509, 12.12466
2292.438, 12.41709
2294.366, 12.49167
2296.295, 12.36777
2298.223, 12.16817
2300.152, 12.20341
2302.080, 12.20230
2304.009, 12.12810
2305.937, 12.34450
2307.865, 12.56752
2309.794, 12.59071
2311.722, 12.73610
2313.651, 12.88003
2315.579, 12.64872
2317.508, 12.67080
2319.436, 12.96359
2321.365, 13.15817
2323.293, 13.17122
2325.222, 12.94952
2327.150, 12.97461
2329.079, 13.06905
2331.007, 12.97648
2332.936, 13.04589
2334.864, 13.19631
2336.792, 13.10970
2338.721, 13.04556
2340.649, 13.07298
2342.578, 13.19161
2344.506, 13.17875
2346.435, 12.72473
2348.363, 13.08017
2350.292, 13.64659
2352.220, 13.58903
2354.149, 13.53082
2356.077, 13.54709
2358.006, 13.54601
2359.934, 13.56389
2361.863, 13.61343
2363.791, 13.70085
2365.719, 13.81429
2367.648, 13.96241
2369.576, 13.74003
2371.505, 13.53755
2373.433, 13.98455
2375.362, 14.28386
2377.290, 14.38137
2379.219, 14.47413
2381.147, 14.48299
2383.076, 14.39983
2385.004, 14.27105
2386.933, 14.25135
2388.861, 14.41938
2390.790, 14.56228
2392.718, 14.54782
2394.646, 14.00742
2396.575, 14.18140
2398.503, 14.70046
2400.432, 14.61734
2402.360, 14.55660
2404.289, 14.61902
2406.217, 14.76548
2408.146, 14.80724
2410.074, 14.67952
2412.003, 14.79980
2413.931, 14.92858
2415.860, 14.86613
2417.788, 14.87921
2419.717, 14.88186
2421.645, 14.71176
2423.573, 14.82532
2425.502, 15.12257
2427.430, 15.34514
2429.359, 15.58132
2431.287, 15.77212
2433.216, 15.40920
2435.144, 15.18280
2437.073, 15.30530
2439.001, 15.48730
2440.930, 15.57688
2442.858, 15.50181
2444.787, 15.61437
2446.715, 15.73755
2448.644, 15.72379
2450.572, 15.55266
2452.500, 15.45173
2454.429, 15.78883
2456.357, 16.09878
2458.286, 16.28400
2460.214, 16.21136
2462.143, 16.12613
2464.071, 16.09227
2466.000, 16.17031
2467.928, 16.25879
2469.857, 16.32603
2471.785, 16.33484
2473.714, 16.40320
2475.642, 16.57464
2477.571, 16.46947
2479.499, 16.40555
2481.427, 16.67131
2483.356, 16.45390
2485.284, 16.18058
2487.213, 16.29549
2489.141, 16.46625
2491.070, 16.63311
2492.998, 16.73541
2494.927, 16.84972
2496.855, 16.98977
2498.784, 17.20140
2500.712, 17.24315
2502.641, 17.18990
2504.569, 17.32757
2506.498, 17.48053
2508.426, 17.57576
2510.354, 17.34366
2512.283, 17.37606
2514.211, 17.75443
2516.140, 17.97526
2518.068, 17.94209
2519.997, 17.67780
2521.925, 17.64596
2523.854, 17.82910
2525.782, 18.15572
2527.711, 17.89101
2529.639, 17.75283
2531.568, 18.09653
2533.496, 18.19352
2535.425, 18.19374
2537.353, 18.22023
2539.281, 18.03995
2541.210, 17.95840
2543.138, 18.28626
2545.067, 18.47815
2546.995, 18.60979
2548.924, 18.80672
2550.852, 18.96106
2552.781, 18.92256
2554.709, 18.28015
2556.638, 18.38286
2558.566, 18.90953
2560.495, 19.48046
2562.423, 19.54233
2564.352, 19.36867
2566.280, 19.41951
2568.208, 19.22968
2570.137, 19.05839
2572.065, 19.43437
2573.994, 19.60726
2575.922, 19.55201
2577.851, 19.28586
2579.779, 19.50782
2581.708, 19.99053
2583.636, 20.21059
2585.565, 20.16128
2587.493, 19.99611
2589.422, 20.03226
2591.350, 19.95637
2593.279, 19.79200
2595.207, 19.62821
2597.135, 19.61474
2599.064, 19.72647
2600.992, 19.96780
2602.921, 19.85621
2604.849, 19.60140
2606.778, 19.75836
2608.706, 20.13091
2610.635, 20.47164
2612.563, 20.32288
2614.492, 20.09570
2616.420, 19.98809
2618.349, 20.34931
2620.277, 20.41983
2622.206, 20.33702
2624.134, 20.51042
2626.063, 20.56501
2627.991, 20.55844
2629.919, 20.65290
2631.848, 20.64187
2633.776, 20.65691
2635.705, 20.96027
2637.633, 20.85254
2639.562, 20.72162
2641.490, 21.15410
2643.419, 21.01270
2645.347, 20.73213
2647.276, 20.84102
2649.204, 21.05662
2651.133, 21.15473
2653.061, 20.96594
2654.990, 21.16711
2656.918, 21.25196
2658.846, 20.84410
2660.775, 20.96396
2662.703, 21.13788
2664.632, 21.07005
2666.560, 21.42854
2668.489, 21.54565
2670.417, 21.17523
2672.346, 21.22007
2674.274, 21.50831
2676.203, 21.82480
2678.131, 21.21333
2680.060, 20.71384
2681.988, 20.71208
2683.917, 21.80161
2685.845, 21.97026
2687.773, 21.26984
2689.702, 21.50414
2691.630, 21.69285
2693.559, 21.67283
2695.487, 21.56995
2697.416, 21.24434
2699.344, 20.83174
2701.273, 20.49086
2703.201, 20.73612
2705.130, 21.09902
2707.058, 20.95741
2708.987, 21.15708
2710.915, 21.37848
2712.844, 21.30528
2714.772, 21.33939
2716.700, 21.22797
2718.629, 20.86295
2720.557, 21.52025
2722.486, 21.85665
2724.414, 21.40772
2726.343, 21.28404
2728.271, 21.35108
2730.200, 21.52354
2732.128, 21.78403
2734.057, 21.58801
2735.985, 21.13202
2737.914, 21.10472
2739.842, 21.20734
2741.771, 21.24044
2743.699, 20.82006
2745.627, 21.19376
2747.556, 21.61207
2749.484, 21.34417
2751.413, 20.72745
2753.341, 20.46496
2755.270, 20.89373
2757.198, 21.32665
2759.127, 21.43179
2761.055, 21.18006
2762.984, 20.72239
2764.912, 21.23875
2766.841, 22.08000
2768.769, 21.17153
2770.698, 20.84377
2772.626, 20.93058
2774.554, 20.83525
2776.483, 20.99094
2778.411, 21.16445
2780.340, 21.16493
2782.268, 20.73602
2784.197, 20.50565
2786.125, 20.65801
2788.054, 20.36638
2789.982, 20.19436
2791.911, 20.25713
2793.839, 20.56031
2795.768, 20.63834
2797.696, 20.57424
2799.625, 20.56166
2801.553, 20.35895
2803.481, 20.07574
2805.410, 19.81984
2807.338, 20.19596
2809.267, 20.31822
2811.195, 20.01707
2813.124, 19.90569
2815.052, 19.93665
2816.981, 20.00301
2818.909, 19.94582
2820.838, 19.78347
2822.766, 19.64539
2824.695, 19.69415
2826.623, 19.57504
2828.552, 19.63030
2830.480, 19.97233
2832.408, 19.79782
2834.337, 19.51424
2836.265, 19.23957
2838.194, 18.99986
2840.122, 18.70267
2842.051, 18.58390
2843.979, 18.88688
2845.908, 18.94484
2847.836, 18.70482
2849.765, 18.23939
2851.693, 18.21786
2853.622, 18.40422
2855.550, 18.63117
2857.479, 18.69220
2859.407, 18.49420
2861.335, 18.33808
2863.264, 18.49478
2865.192, 18.64891
2867.121, 18.42986
2869.049, 17.87816
2870.978, 17.74905
2872.906, 17.69997
2874.835, 17.69899
2876.763, 17.97566
2878.692, 17.55689
2880.620, 17.04604
2882.549, 16.92612
2884.477, 17.44214
2886.406, 17.41881
2888.334, 16.87436
2890.262, 16.98213
2892.191, 16.99377
2894.119, 17.01549
2896.048, 17.35955
2897.976, 16.71775
2899.905, 16.26687
2901.833, 16.45861
2903.762, 16.58299
2905.690, 16.36869
2907.619, 16.14169
2909.547, 16.43882
2911.476, 16.44747
2913.404, 16.24756
2915.333, 15.98145
2917.261, 16.04994
2919.189, 16.17088
2921.118, 16.03639
2923.046, 15.04638
2924.975, 15.33417
2926.903, 15.77583
2928.832, 15.63898
2930.760, 15.75535
2932.689, 15.71613
2934.617, 15.49392
2936.546, 15.26644
2938.474, 15.11983
2940.403, 15.00208
2942.331, 14.87621
2944.260, 14.81685
2946.188, 14.71948
2948.116, 14.54656
2950.045, 14.17026
2951.973, 14.36884
2953.902, 14.48758
2955.830, 14.02554
2957.759, 13.66144
2959.687, 13.66777
2961.616, 13.83043
2963.544, 13.62590
2965.473, 13.56831
2967.401, 13.59184
2969.330, 13.60809
2971.258, 13.51527
2973.187, 13.32584
2975.115, 13.22303
2977.043, 13.47610
2978.972, 13.31085
2980.900, 13.07679
2982.829, 12.98543
2984.757, 13.18684
2986.686, 12.63692
2988.614, 12.14215
2990.543, 12.72685
2992.471, 12.44782
2994.400, 12.15326
2996.328, 12.08618
2998.257, 11.93577
3000.185, 11.83107
3002.114, 11.88464
3004.042, 12.12696
3005.970, 11.92298
3007.899, 11.58025
3009.827, 11.21492
3011.756, 10.74212
3013.684, 11.14078
3015.613, 11.47136
3017.541, 11.36777
3019.470, 11.45807
3021.398, 11.17359
3023.327, 10.90183
3025.255, 11.04815
3027.184, 10.83146
3029.112, 10.71798
3031.041, 10.68361
3032.969, 10.42183
3034.898, 10.45780
3036.826, 10.39754
3038.755, 10.09965
3040.683, 9.924830
3042.612, 9.867472
3044.540, 9.871962
3046.469, 9.883505
3048.397, 9.841914
3050.325, 9.651800
3052.254, 9.457915
3054.182, 9.571081
3056.111, 9.007274
3058.039, 8.681796
3059.968, 8.805017
3061.896, 8.914583
3063.825, 9.047312
3065.753, 8.959078
3067.682, 8.567428
3069.610, 8.561804
3071.539, 8.635461
3073.467, 8.683391
3075.396, 8.667593
3077.324, 8.478670
3079.252, 8.385805
3081.181, 8.391217
3083.109, 8.384418
3085.038, 8.084699
3086.966, 7.952224
3088.895, 8.034415
3090.823, 7.893785
3092.752, 7.836630
3094.680, 7.762549
3096.609, 7.631177
3098.537, 7.678096
3100.466, 7.477013
3102.394, 7.366413
3104.323, 7.534705
3106.251, 7.154585
3108.179, 6.993067
3110.108, 6.999789
3112.036, 6.942765
3113.965, 6.945144
3115.893, 6.762459
3117.822, 6.573587
3119.750, 6.775237
3121.679, 6.479331
3123.607, 6.442847
3125.536, 6.621551
3127.464, 6.457322
3129.393, 6.316225
3131.321, 6.316534
3133.250, 6.351351
3135.178, 6.029406
3137.106, 5.900770
3139.035, 5.948058
3140.963, 6.092208
3142.892, 6.214954
3144.820, 6.205783
3146.749, 6.199395
3148.677, 6.180815
3150.606, 5.731784
3152.534, 5.278803
3154.463, 5.139884
3156.391, 5.370182
3158.320, 5.588311
3160.248, 5.567146
3162.177, 5.404045
3164.105, 5.232419
3166.033, 5.328319
3167.962, 5.044976
3169.890, 4.860525
3171.819, 5.034596
3173.747, 4.949116
3175.676, 4.787838
3177.604, 4.729256
3179.533, 4.819989
3181.461, 4.727880
3183.390, 4.741028
3185.318, 4.755691
3187.247, 4.656086
3189.175, 4.339334
3191.104, 4.216365
3193.032, 4.227259
3194.960, 4.258010
3196.889, 4.133610
3198.817, 4.323183
3200.746, 4.373880
3202.674, 4.103957
3204.603, 4.172107
3206.531, 4.165669
3208.460, 4.104855
3210.388, 4.028311
3212.317, 3.883864
3214.245, 4.123801
3216.174, 4.061801
3218.102, 3.659945
3220.031, 3.824117
3221.959, 3.843846
3223.887, 3.783518
3225.816, 3.708428
3227.744, 3.637772
3229.673, 3.589585
3231.601, 3.596335
3233.530, 3.616052
3235.458, 3.600699
3237.387, 3.096642
3239.315, 3.148906
3241.244, 3.430358
3243.172, 3.152530
3245.101, 3.325426
3247.029, 3.197298
3248.958, 3.058321
3250.886, 3.288699
3252.814, 3.295414
3254.743, 3.167111
3256.671, 2.977880
3258.600, 2.808702
3260.528, 2.858489
3262.457, 2.805026
3264.385, 2.787107
3266.314, 2.814052
3268.242, 2.663007
3270.171, 2.808964
3272.099, 2.899559
3274.028, 2.829008
3275.956, 2.684275
3277.885, 2.787696
3279.813, 2.863900
3281.741, 2.857071
3283.670, 2.783740
3285.598, 2.424287
3287.527, 2.793392
3289.455, 2.875691
3291.384, 2.216445
3293.312, 2.219042
3295.241, 2.394533
3297.169, 2.540608
3299.098, 2.556326
3301.026, 2.355977
3302.955, 2.430295
3304.883, 2.384726
3306.812, 2.232179
3308.740, 2.126885
3310.668, 2.313120
3312.597, 2.382244
3314.525, 2.237588
3316.454, 1.989548
3318.382, 2.048402
3320.311, 2.105408
3322.239, 2.396614
3324.168, 2.613612
3326.096, 2.206845
3328.025, 2.109279
3329.953, 1.855270
3331.882, 1.708770
3333.810, 1.926591
3335.739, 2.360631
3337.667, 2.412423
3339.595, 2.202263
3341.524, 1.955441
3343.452, 1.913424
3345.381, 1.924974
3347.309, 1.781608
3349.238, 1.614185
3351.166, 1.585196
3353.095, 1.681842
3355.023, 1.940455
3356.952, 1.981577
3358.880, 1.782571
3360.809, 1.653350
3362.737, 1.693189
3364.666, 1.846120
3366.594, 1.975036
3368.522, 1.971738
3370.451, 1.785519
3372.379, 1.379377
3374.308, 1.368452
3376.236, 1.632744
3378.165, 1.615054
3380.093, 1.579674
3382.022, 1.297999
3383.950, 1.345255
3385.879, 1.791859
3387.807, 1.560342
3389.736, 1.429174
3391.664, 1.708907
3393.593, 1.985611
3395.521, 1.785244
3397.449, 1.467812
3399.378, 1.709277
3401.306, 1.575768
3403.235, 1.265560
3405.163, 2.086604
3407.092, 2.651624
3409.020, 3.039185
3410.949, 3.758464
3412.877, 5.491305
3414.806, 9.272263
3416.734, 10.11669
3418.663, 9.181578
3420.591, 7.675103
3422.520, 6.286194
3424.448, 5.055641
3426.376, 5.316200
3428.305, 5.556247
3430.233, 5.083579
3432.162, 4.004782
3434.090, 2.736499
3436.019, 2.534981
3437.947, 2.281014
3439.876, 1.858629
3441.804, 2.068745
3443.733, 1.960003
3445.661, 1.465202
3447.590, 1.356493
3449.518, 1.686451
3451.447, 1.602301
##END=



