##NAMES=Linarite
##RRUFFID=R060472
##IDEAL CHEMISTRY=CuPb(SO_4_)(OH)_2_
##LOCALITY=Tiger, Arizona, USA
##OWNER=RRUFF
##SOURCE=Michael Scott
##DESCRIPTION=Blue tabular crystals
##STATUS=The identification of this mineral is confirmed by single-crystal X-ray diffraction and chemical analysis
##URL=https://www.rruff.net/odr/rruff_sample/R060472
##MEASURED CHEMISTRY=Pb_1.00_Cu_1.00_(S_1.00_O_4_)(OH)_2_
##DIFFRACTION SAMPLE DESCRIPTION=Single crystal, powder profile is calculated
##CELL PARAMETERS=a: 9.684 b: 5.6442 c: 4.6823 alpha: 90 beta: 102.636 gamma: 90 volume: 294.74 crystal system: monoclinic
##FILETYPE=Raman Processed
##RAMAN WAVELENGTH=780

137.9021, 82.96545
139.8306, 79.11296
141.7590, 75.23630
143.6875, 73.74571
145.6160, 74.79046
147.5444, 75.70971
149.4729, 76.32286
151.4014, 76.40125
153.3298, 75.41406
155.2583, 74.07439
157.1868, 73.49256
159.1152, 73.65324
161.0437, 73.14250
162.9722, 71.08652
164.9006, 69.25371
166.8291, 68.08626
168.7576, 67.24575
170.6860, 66.51891
172.6145, 65.86872
174.5430, 64.97500
176.4714, 63.51737
178.3999, 62.22978
180.3284, 61.47976
182.2568, 60.62977
184.1853, 58.64563
186.1138, 56.22069
188.0422, 55.61657
189.9707, 58.51849
191.8992, 60.17533
193.8276, 59.29179
195.7561, 58.52677
197.6846, 59.78323
199.6130, 61.63863
201.5415, 61.86316
203.4700, 59.87669
205.3984, 58.58751
207.3269, 57.94500
209.2554, 57.99944
211.1838, 59.99620
213.1123, 61.62998
215.0408, 60.11315
216.9692, 55.76345
218.8977, 54.65995
220.8262, 58.30589
222.7546, 60.57372
224.6831, 59.28170
226.6116, 57.98632
228.5400, 59.19005
230.4685, 61.58254
232.3970, 62.27994
234.3254, 60.94556
236.2539, 59.46098
238.1824, 57.57672
240.1108, 56.17240
242.0393, 55.71010
243.9678, 55.79249
245.8962, 56.37542
247.8247, 57.33546
249.7532, 57.73766
251.6816, 57.61015
253.6101, 56.90587
255.5386, 55.04005
257.4670, 53.39433
259.3955, 52.73509
261.3240, 52.61455
263.2524, 52.25535
265.1809, 51.69772
267.1094, 51.62217
269.0378, 52.32724
270.9663, 52.76735
272.8948, 52.04859
274.8232, 51.56425
276.7517, 52.55074
278.6802, 54.35408
280.6086, 55.51892
282.5371, 56.07483
284.4656, 55.46413
286.3940, 52.29083
288.3225, 50.23738
290.2510, 51.16574
292.1794, 52.82241
294.1079, 53.23161
296.0364, 52.78843
297.9648, 52.48791
299.8933, 52.30973
301.8218, 52.61871
303.7502, 54.68904
305.6787, 55.66620
307.6072, 53.48079
309.5356, 50.80947
311.4641, 50.78008
313.3926, 52.48499
315.3210, 53.50832
317.2495, 53.48138
319.1780, 53.60630
321.1064, 54.46745
323.0349, 54.90238
324.9634, 54.14344
326.8918, 53.06944
328.8203, 52.28819
330.7488, 51.90437
332.6772, 52.48714
334.6057, 54.63438
336.5342, 56.29002
338.4626, 57.78831
340.3911, 58.26513
342.3196, 56.21000
344.2480, 54.04475
346.1765, 54.21433
348.1050, 56.08277
350.0334, 56.43044
351.9619, 54.05984
353.8904, 53.09536
355.8188, 54.46144
357.7473, 55.70199
359.6758, 56.42601
361.6042, 56.32013
363.5327, 54.46401
365.4612, 51.75224
367.3896, 51.14611
369.3181, 53.46708
371.2466, 54.43517
373.1750, 53.45461
375.1035, 52.58063
377.0320, 53.04835
378.9604, 52.93092
380.8889, 50.06541
382.8174, 46.37761
384.7458, 45.75257
386.6743, 48.39363
388.6028, 49.39038
390.5313, 48.30620
392.4597, 47.47549
394.3882, 47.21223
396.3167, 47.65061
398.2451, 49.14685
400.1736, 51.05090
402.1021, 52.78540
404.0305, 54.34064
405.9590, 55.90451
407.8875, 57.57713
409.8159, 57.68331
411.7444, 54.82233
413.6729, 53.31353
415.6013, 56.51385
417.5298, 59.48782
419.4583, 58.48571
421.3867, 55.62343
423.3152, 54.88967
425.2437, 55.95534
427.1721, 56.67339
429.1006, 56.85859
431.0291, 57.16407
432.9575, 58.05863
434.8860, 58.62854
436.8145, 58.42065
438.7429, 57.94348
440.6714, 57.72486
442.5999, 57.52944
444.5283, 56.66066
446.4568, 55.21231
448.3853, 54.43190
450.3137, 54.81925
452.2422, 54.82517
454.1707, 54.02777
456.0991, 53.01783
458.0276, 51.80212
459.9561, 50.65257
461.8845, 49.75648
463.8130, 49.15934
465.7415, 48.94699
467.6699, 49.12328
469.5984, 49.75938
471.5269, 51.22420
473.4553, 52.45947
475.3838, 52.61093
477.3123, 53.51679
479.2407, 57.14783
481.1692, 60.70609
483.0977, 61.24953
485.0261, 60.11816
486.9546, 59.98497
488.8831, 61.00808
490.8115, 61.16184
492.7400, 59.58873
494.6685, 58.47234
496.5969, 57.97848
498.5254, 57.72111
500.4539, 57.42461
502.3823, 57.49631
504.3108, 58.97293
506.2393, 60.55623
508.1677, 59.91404
510.0962, 57.18039
512.0247, 54.94731
513.9531, 53.32408
515.8816, 51.93341
517.8101, 50.86105
519.7385, 49.81717
521.6670, 48.80254
523.5955, 47.67566
525.5239, 46.11579
527.4524, 44.62385
529.3809, 43.65550
531.3093, 43.15821
533.2378, 43.09515
535.1663, 43.51468
537.0947, 43.47831
539.0232, 42.84813
540.9517, 42.49519
542.8801, 42.64499
544.8086, 42.91765
546.7371, 43.43331
548.6655, 43.70684
550.5940, 43.50663
552.5225, 42.89442
554.4509, 41.55825
556.3794, 39.87982
558.3079, 39.56082
560.2363, 40.47146
562.1648, 40.61849
564.0933, 39.55116
566.0217, 39.76857
567.9502, 43.23891
569.8787, 45.23988
571.8071, 42.67995
573.7356, 40.38860
575.6641, 41.47653
577.5925, 43.98329
579.5210, 45.77139
581.4495, 47.09068
583.3779, 48.82934
585.3064, 50.81069
587.2349, 51.36902
589.1633, 49.93050
591.0918, 50.12347
593.0203, 53.87989
594.9487, 56.85070
596.8772, 56.93807
598.8057, 57.81848
600.7341, 61.38602
602.6626, 66.13972
604.5911, 72.51372
606.5195, 78.09752
608.4480, 78.70462
610.3765, 75.61138
612.3049, 73.16293
614.2334, 71.49977
616.1619, 70.74201
618.0903, 71.16031
620.0188, 71.94507
621.9473, 74.51491
623.8757, 75.14960
625.8042, 71.40551
627.7327, 67.52718
629.6611, 66.05525
631.5896, 65.10270
633.5181, 62.71928
635.4465, 59.94901
637.3750, 59.15660
639.3035, 59.69677
641.2319, 56.95054
643.1604, 49.91795
645.0889, 45.85009
647.0173, 45.90986
648.9458, 45.97757
650.8743, 46.07540
652.8027, 45.68760
654.7312, 44.19013
656.6597, 43.03502
658.5881, 43.25147
660.5166, 43.68839
662.4451, 43.33894
664.3735, 42.93508
666.3020, 43.77207
668.2305, 45.17689
670.1589, 45.09375
672.0874, 43.62404
674.0159, 42.57423
675.9443, 41.88767
677.8728, 42.31228
679.8013, 44.22658
681.7297, 45.47506
683.6582, 45.63298
685.5867, 45.11742
687.5151, 43.39896
689.4436, 42.12131
691.3721, 42.39133
693.3005, 42.83363
695.2290, 42.24798
697.1575, 41.55934
699.0859, 42.30837
701.0144, 43.59952
702.9429, 42.71636
704.8713, 44.69199
706.7998, 41.91432
708.7283, 46.45476
710.6567, 48.31087
712.5852, 46.84203
714.5137, 45.15111
716.4421, 43.36836
718.3706, 42.46273
720.2991, 43.54597
722.2275, 44.07267
724.1560, 42.64299
726.0845, 41.61946
728.0129, 42.77384
729.9414, 43.93224
731.8699, 42.83966
733.7983, 41.40295
735.7268, 42.11557
737.6553, 43.88502
739.5837, 44.97921
741.5122, 45.51113
743.4407, 45.63462
745.3691, 45.43699
747.2976, 45.83503
749.2261, 47.01980
751.1545, 47.59754
753.0830, 47.18172
755.0115, 46.89545
756.9399, 47.00295
758.8684, 46.89748
760.7969, 45.86002
762.7253, 45.60543
764.6538, 47.09221
766.5823, 48.83867
768.5107, 50.47966
770.4392, 51.73265
772.3677, 52.51637
774.2961, 52.68401
776.2246, 51.79387
778.1531, 50.46849
780.0815, 49.47937
782.0100, 48.82055
783.9385, 48.34263
785.8669, 48.15014
787.7954, 49.10537
789.7239, 51.26350
791.6523, 53.22021
793.5808, 55.04112
795.5093, 56.35459
797.4377, 57.31023
799.3662, 56.90308
801.2947, 54.48717
803.2231, 52.84575
805.1516, 52.86890
807.0801, 52.64702
809.0085, 50.96967
810.9370, 50.32871
812.8655, 52.78273
814.7939, 54.96278
816.7224, 55.11151
818.6509, 54.65107
820.5793, 54.31412
822.5078, 53.95152
824.4363, 52.84345
826.3647, 52.12974
828.2932, 54.02324
830.2217, 56.91085
832.1501, 58.07513
834.0786, 57.70150
836.0071, 55.50426
837.9355, 52.22629
839.8640, 51.61415
841.7925, 53.13772
843.7209, 53.03809
845.6494, 51.34155
847.5779, 50.87142
849.5063, 51.87410
851.4348, 53.37848
853.3633, 55.62781
855.2917, 55.92433
857.2202, 52.86302
859.1487, 51.14003
861.0771, 52.24572
863.0056, 53.30141
864.9341, 54.33024
866.8625, 54.45061
868.7910, 53.29097
870.7195, 51.46989
872.6479, 47.64851
874.5764, 45.43989
876.5049, 47.79616
878.4333, 50.54031
880.3618, 51.55507
882.2903, 51.61204
884.2188, 51.51828
886.1472, 50.46187
888.0757, 45.72272
890.0042, 41.55094
891.9326, 44.10702
893.8611, 48.49244
895.7896, 48.20906
897.7180, 45.83141
899.6465, 45.83702
901.5750, 47.14740
903.5034, 47.39985
905.4319, 46.75366
907.3604, 45.35133
909.2888, 43.51265
911.2173, 43.12836
913.1458, 44.09148
915.0742, 45.06664
917.0027, 46.05204
918.9312, 47.58006
920.8596, 49.76185
922.7881, 50.67984
924.7166, 49.78892
926.6450, 51.48376
928.5735, 55.96802
930.5020, 61.34451
932.4304, 69.61643
934.3589, 76.87601
936.2874, 91.29650
938.2158, 106.0166
940.1443, 120.8030
942.0728, 134.5414
944.0012, 147.9724
945.9297, 155.1645
947.8582, 153.7202
949.7866, 150.9672
951.7151, 147.5628
953.6436, 146.6091
955.5720, 149.9621
957.5005, 152.8109
959.4290, 154.0872
961.3574, 154.0773
963.2859, 152.1697
965.2144, 150.3331
967.1428, 152.3818
969.0713, 149.2845
970.9998, 135.7590
972.9282, 120.9031
974.8567, 106.0027
976.7852, 92.85500
978.7136, 81.77032
980.6421, 73.14220
982.5706, 67.90043
984.4990, 64.07281
986.4275, 61.46342
988.3560, 58.97472
990.2844, 55.80407
992.2129, 52.91926
994.1414, 50.89576
996.0698, 49.27349
997.9983, 47.30524
999.9268, 46.28768
1001.855, 48.10437
1003.784, 49.73560
1005.712, 48.50150
1007.641, 47.23345
1009.569, 48.25005
1011.498, 49.48849
1013.426, 49.33045
1015.354, 49.04261
1017.283, 49.54239
1019.211, 50.27914
1021.140, 51.72924
1023.068, 52.12112
1024.997, 48.89418
1026.925, 45.71042
1028.854, 45.14370
1030.782, 45.95388
1032.711, 48.16206
1034.639, 50.13082
1036.568, 50.53666
1038.496, 50.34682
1040.425, 50.00261
1042.353, 49.68591
1044.281, 50.19472
1046.210, 49.93925
1048.138, 46.10423
1050.067, 43.27504
1051.995, 45.95132
1053.924, 49.01971
1055.852, 48.67505
1057.781, 47.98062
1059.709, 50.32732
1061.638, 51.19276
1063.566, 46.06159
1065.495, 40.71062
1067.423, 38.33661
1069.352, 37.33464
1071.280, 37.74626
1073.208, 37.86509
1075.137, 35.55875
1077.065, 34.37827
1078.994, 37.03645
1080.922, 40.07143
1082.851, 42.76241
1084.779, 43.96730
1086.708, 41.68878
1088.636, 40.07336
1090.565, 41.77754
1092.493, 43.03151
1094.422, 41.44443
1096.350, 40.71510
1098.279, 43.42776
1100.207, 44.97861
1102.135, 42.06739
1104.064, 41.08500
1105.992, 45.83185
1107.921, 48.92265
1109.849, 47.48783
1111.778, 46.54251
1113.706, 47.09475
1115.635, 47.94253
1117.563, 49.10431
1119.492, 50.22189
1121.420, 51.53677
1123.349, 52.22579
1125.277, 52.17351
1127.206, 51.59449
1129.134, 50.11896
1131.063, 49.14963
1132.991, 48.92004
1134.919, 48.62391
1136.848, 48.28023
1138.776, 47.62445
1140.705, 46.39543
1142.633, 46.62328
1144.562, 48.71665
1146.490, 47.81691
1148.419, 43.88055
1150.347, 40.02349
1152.276, 36.40456
1154.204, 35.98237
1156.133, 38.00241
1158.061, 37.47655
1159.990, 35.23855
1161.918, 34.45245
1163.846, 34.66052
1165.775, 34.33150
1167.703, 34.25847
1169.632, 36.67684
1171.560, 39.90858
1173.489, 41.88461
1175.417, 42.48011
1177.346, 40.82363
1179.274, 38.54265
1181.203, 36.06065
1183.131, 35.20836
1185.060, 39.77778
1186.988, 43.24898
1188.917, 40.23595
1190.845, 36.90327
1192.773, 36.24006
1194.702, 35.83728
1196.630, 34.69250
1198.559, 34.09258
1200.487, 34.52787
1202.416, 35.21749
1204.344, 36.07035
1206.273, 36.97689
1208.201, 38.12340
1210.130, 37.90701
1212.058, 39.25764
1213.987, 39.81128
1215.915, 39.98334
1217.844, 40.79967
1219.772, 38.62726
1221.700, 37.66279
1223.629, 37.81085
1225.557, 37.23466
1227.486, 36.13621
1229.414, 35.32173
1231.343, 34.79792
1233.271, 34.84362
1235.200, 34.90158
1237.128, 33.49784
1239.057, 32.23658
1240.985, 33.34364
1242.914, 35.08353
1244.842, 36.28149
1246.771, 36.95768
1248.699, 37.28024
1250.627, 36.83422
1252.556, 34.42427
1254.484, 32.96598
1256.413, 33.86064
1258.341, 35.02430
1260.270, 36.65855
1262.198, 36.75939
1264.127, 34.17334
1266.055, 32.88344
1267.984, 33.32836
1269.912, 34.05094
1271.841, 35.08794
1273.769, 35.27252
1275.698, 34.77752
1277.626, 35.25826
1279.554, 36.21502
1281.483, 35.64527
1283.411, 36.41730
1285.340, 35.52944
1287.268, 36.91929
1289.197, 37.01504
1291.125, 36.85351
1293.054, 37.44549
1294.982, 37.81903
1296.911, 37.69978
1298.839, 36.76469
1300.768, 34.28775
1302.696, 32.90483
1304.625, 33.53284
1306.553, 33.67435
1308.481, 32.78783
1310.410, 33.75648
1312.338, 36.72281
1314.267, 37.82999
1316.195, 37.17646
1318.124, 36.53864
1320.052, 36.09252
1321.981, 36.61879
1323.909, 37.24733
1325.838, 35.66961
1327.766, 34.22000
1329.695, 36.56273
1331.623, 38.76112
1333.552, 37.03947
1335.480, 35.65589
1337.408, 37.42656
1339.337, 38.42912
1341.265, 37.05946
1343.194, 36.11183
1345.122, 35.93631
1347.051, 35.72194
1348.979, 35.42910
1350.908, 34.94551
1352.836, 34.35353
1354.765, 34.30306
1356.693, 34.62259
1358.622, 34.72973
1360.550, 34.98043
1362.479, 36.00747
1364.407, 37.24163
1366.335, 39.11766
1368.264, 39.41145
1370.192, 34.98248
1372.121, 33.08155
1374.049, 38.23723
1375.978, 39.83945
1377.906, 34.08210
1379.835, 32.94987
1381.763, 37.56335
1383.692, 39.15747
1385.620, 38.19656
1387.549, 37.69274
1389.477, 37.52880
1391.406, 37.26612
1393.334, 37.33684
1395.262, 39.07874
1397.191, 40.21522
1399.119, 38.48641
1401.048, 37.36523
1402.976, 38.57043
1404.905, 38.86028
1406.833, 37.25186
1408.762, 36.65574
1410.690, 37.42885
1412.619, 38.47825
1414.547, 39.62769
1416.476, 40.44989
1418.404, 40.65619
1420.333, 38.93780
1422.261, 36.93354
1424.189, 36.73402
1426.118, 36.99987
1428.046, 36.82622
1429.975, 36.86954
1431.903, 37.57735
1433.832, 37.88289
1435.760, 37.66589
1437.689, 36.63635
1439.617, 34.90649
1441.546, 34.12148
1443.474, 33.99869
1445.403, 32.82187
1447.331, 32.08847
1449.260, 34.76788
1451.188, 37.90617
1453.116, 39.30811
1455.045, 39.89415
1456.973, 39.65801
1458.902, 39.53001
1460.830, 40.10152
1462.759, 39.30463
1464.687, 36.92715
1466.616, 36.48122
1468.544, 37.51646
1470.473, 38.50594
1472.401, 38.78959
1474.330, 36.29375
1476.258, 34.17421
1478.187, 35.00357
1480.115, 36.34290
1482.043, 37.78422
1483.972, 37.65516
1485.900, 34.92040
1487.829, 33.94378
1489.757, 34.81185
1491.686, 36.86283
1493.614, 39.15161
1495.543, 38.82525
1497.471, 37.11756
1499.400, 34.03435
1501.328, 32.81247
1503.257, 37.02214
1505.185, 37.10957
1507.114, 36.88895
1509.042, 38.46725
1510.970, 37.97451
1512.899, 38.71407
1514.827, 37.82814
1516.756, 37.18718
1518.684, 36.59003
1520.613, 34.90124
1522.541, 34.33349
1524.470, 34.76733
1526.398, 34.68636
1528.327, 36.78284
1530.255, 35.65142
1532.184, 37.58903
1534.112, 37.13554
1536.041, 35.08630
1537.969, 36.54808
1539.897, 38.66606
1541.826, 36.17997
1543.754, 33.87516
1545.683, 36.21944
1547.611, 37.71105
1549.540, 35.82132
1551.468, 36.48783
1553.397, 36.06707
1555.325, 35.21400
1557.254, 35.50364
1559.182, 34.39162
1561.111, 34.62623
1563.039, 35.07515
1564.968, 35.30372
1566.896, 35.90732
1568.824, 34.53592
1570.753, 37.29415
1572.681, 39.26007
1574.610, 40.41161
1576.538, 39.07878
1578.467, 40.56302
1580.395, 38.68176
1582.324, 40.48186
1584.252, 38.80048
1586.181, 36.97880
1588.109, 36.00387
1590.038, 36.34123
1591.966, 38.31493
1593.895, 39.65215
1595.823, 40.31798
1597.751, 39.88688
1599.680, 39.02211
1601.608, 37.84946
1603.537, 38.08205
1605.465, 37.24289
1607.394, 36.07083
1609.322, 36.88287
1611.251, 34.57674
1613.179, 35.08875
1615.108, 36.76678
1617.036, 38.59040
1618.965, 39.47685
1620.893, 38.87515
1622.822, 35.49854
1624.750, 33.09811
1626.678, 32.43716
1628.607, 31.93466
1630.535, 31.57632
1632.464, 33.09797
1634.392, 34.20049
1636.321, 28.78082
1638.249, 25.06183
1640.178, 30.57242
1642.106, 34.98584
1644.035, 36.42849
1645.963, 37.51101
1647.892, 38.40645
1649.820, 39.28595
1651.749, 39.64785
1653.677, 38.03573
1655.605, 36.83422
1657.534, 38.47906
1659.462, 38.55802
1661.391, 35.73805
1663.319, 36.10392
1665.248, 38.64525
1667.176, 37.54504
1669.105, 35.23088
1671.033, 33.63878
1672.962, 33.67244
1674.890, 37.01320
1676.819, 38.70766
1678.747, 38.05758
1680.676, 36.55209
1682.604, 34.95818
1684.532, 36.40795
1686.461, 37.93066
1688.389, 36.85620
1690.318, 35.99391
1692.246, 36.23108
1694.175, 37.05308
1696.103, 38.32715
1698.032, 39.66429
1699.960, 40.29887
1701.889, 37.77011
1703.817, 35.99604
1705.746, 37.22848
1707.674, 37.99731
1709.603, 37.62494
1711.531, 39.10080
1713.459, 41.24700
1715.388, 39.54615
1717.316, 37.32166
1719.245, 38.77522
1721.173, 38.13247
1723.102, 37.53101
1725.030, 38.38955
1726.959, 36.69677
1728.887, 38.07791
1730.816, 37.78695
1732.744, 35.34480
1734.673, 33.99428
1736.601, 35.74158
1738.530, 36.78396
1740.458, 36.85822
1742.386, 36.98771
1744.315, 37.42324
1746.243, 39.20558
1748.172, 40.25142
1750.100, 38.44971
1752.029, 37.39960
1753.957, 37.61731
1755.886, 36.92131
1757.814, 35.64314
1759.743, 34.35800
1761.671, 33.68030
1763.600, 34.20815
1765.528, 35.26838
1767.457, 37.16700
1769.385, 37.17624
1771.313, 35.83194
1773.242, 35.23312
1775.170, 33.98785
1777.099, 34.27501
1779.027, 28.46657
1780.956, 33.74116
1782.884, 33.78994
1784.813, 30.59963
1786.741, 33.78326
1788.670, 37.18288
1790.598, 35.33709
1792.527, 34.00233
1794.455, 34.80072
1796.384, 35.13783
1798.312, 35.29182
1800.240, 37.38675
1802.169, 39.16156
1804.097, 38.73214
1806.026, 37.11400
1807.954, 34.40849
1809.883, 34.94589
1811.811, 33.06567
1813.740, 34.41893
1815.668, 31.80607
1817.597, 33.73748
1819.525, 34.67049
1821.454, 33.78178
1823.382, 33.80638
1825.311, 34.75409
1827.239, 33.99454
1829.167, 33.23852
1831.096, 33.95582
1833.024, 31.44269
1834.953, 32.05744
1836.881, 33.02438
1838.810, 33.43693
1840.738, 31.56185
1842.667, 29.62176
1844.595, 28.33948
1846.524, 28.55783
1848.452, 30.14968
1850.381, 33.10011
1852.309, 34.68217
1854.238, 29.78497
1856.166, 26.77431
1858.094, 29.13823
1860.023, 33.44011
1861.951, 38.06500
1863.880, 35.14607
1865.808, 30.69212
1867.737, 27.97640
1869.665, 28.15522
1871.594, 31.75077
1873.522, 34.83731
1875.451, 36.64452
1877.379, 34.66082
1879.308, 32.49583
1881.236, 31.46992
1883.165, 31.64203
1885.093, 32.66149
1887.021, 32.44067
1888.950, 31.58894
1890.878, 29.96780
1892.807, 30.54403
1894.735, 34.14230
1896.664, 34.30357
1898.592, 32.40492
1900.521, 31.66230
1902.449, 31.21444
1904.378, 30.54335
1906.306, 30.75518
1908.235, 31.82206
1910.163, 33.09407
1912.092, 33.76758
1914.020, 32.38309
1915.948, 31.46150
1917.877, 31.45666
1919.805, 31.53705
1921.734, 31.31964
1923.662, 29.09945
1925.591, 28.63745
1927.519, 29.40437
1929.448, 33.57533
1931.376, 31.47523
1933.305, 32.37599
1935.233, 32.99569
1937.162, 29.81822
1939.090, 27.13346
1941.019, 25.52541
1942.947, 28.19990
1944.875, 31.29976
1946.804, 29.05589
1948.732, 27.21924
1950.661, 28.08358
1952.589, 27.51596
1954.518, 26.73591
1956.446, 29.89114
1958.375, 31.99397
1960.303, 30.18053
1962.232, 28.11571
1964.160, 26.55872
1966.089, 28.79056
1968.017, 31.32112
1969.946, 31.87204
1971.874, 31.37266
1973.802, 30.25313
1975.731, 33.14994
1977.659, 35.90114
1979.588, 33.41625
1981.516, 31.08855
1983.445, 30.16609
1985.373, 33.21553
1987.302, 36.58696
1989.230, 33.29171
1991.159, 30.17013
1993.087, 28.97641
1995.016, 31.40322
1996.944, 34.31879
1998.873, 29.17657
2000.801, 26.49841
2002.729, 30.42406
2004.658, 32.79508
2006.586, 33.42265
2008.515, 33.84005
2010.443, 33.38088
2012.372, 31.26657
2014.300, 30.28973
2016.229, 30.22587
2018.157, 29.41746
2020.086, 28.96831
2022.014, 30.13755
2023.943, 30.84082
2025.871, 30.63995
2027.800, 31.19468
2029.728, 31.32251
2031.656, 30.04835
2033.585, 31.87750
2035.513, 28.80289
2037.442, 29.36446
2039.370, 30.61517
2041.299, 30.32710
2043.227, 30.15954
2045.156, 30.25152
2047.084, 30.37186
2049.013, 29.89618
2050.941, 30.08980
2052.870, 30.19370
2054.798, 30.01725
2056.727, 30.56482
2058.655, 30.45515
2060.583, 30.43805
2062.512, 30.21968
2064.440, 29.73196
2066.369, 29.54591
2068.297, 27.66820
2070.226, 28.73453
2072.154, 29.11456
2074.083, 28.52640
2076.011, 26.47811
2077.940, 26.32807
2079.868, 31.26789
2081.797, 32.63131
2083.725, 30.60465
2085.654, 30.83830
2087.582, 31.13996
2089.510, 30.20107
2091.439, 28.75010
2093.367, 27.18750
2095.296, 26.27498
2097.224, 26.07725
2099.153, 26.64277
2101.081, 28.20814
2103.010, 29.88189
2104.938, 30.01157
2106.867, 28.43503
2108.795, 29.17988
2110.724, 25.32716
2112.652, 28.25131
2114.581, 26.59319
2116.509, 25.41266
2118.438, 26.42823
2120.366, 26.37207
2122.294, 25.96876
2124.223, 25.97054
2126.151, 26.74351
2128.080, 28.31345
2130.008, 27.17976
2131.937, 25.66244
2133.865, 25.36443
2135.794, 27.97240
2137.722, 32.27371
2139.651, 27.16975
2141.579, 23.29235
2143.508, 27.86455
2145.436, 27.94168
2147.365, 24.21171
2149.293, 19.85720
2151.221, 19.09118
2153.150, 23.63204
2155.078, 28.09249
2157.007, 31.15190
2158.935, 30.58460
2160.864, 28.74230
2162.792, 26.32504
2164.721, 26.41461
2166.649, 26.63183
2168.578, 23.99866
2170.506, 22.77413
2172.435, 23.04279
2174.363, 22.71188
2176.292, 22.46260
2178.220, 22.63235
2180.148, 23.15152
2182.077, 24.25848
2184.005, 26.97738
2185.934, 29.08145
2187.862, 30.02564
2189.791, 28.08391
2191.719, 26.10072
2193.648, 27.64258
2195.576, 29.01088
2197.505, 29.52783
2199.433, 27.92134
2201.362, 25.16851
2203.290, 20.53805
2205.219, 19.10258
2207.147, 20.39241
2209.075, 24.48413
2211.004, 27.22593
2212.932, 27.50702
2214.861, 21.86400
2216.789, 17.10701
2218.718, 19.25802
2220.646, 20.50303
2222.575, 20.76606
2224.503, 23.32349
2226.432, 25.66044
2228.360, 26.85830
2230.289, 26.38004
2232.217, 26.07015
2234.146, 29.02179
2236.074, 28.32421
2238.002, 24.54366
2239.931, 28.50129
2241.859, 30.06924
2243.788, 24.39338
2245.716, 23.61008
2247.645, 25.63074
2249.573, 27.06527
2251.502, 26.04171
2253.430, 28.80617
2255.359, 27.55050
2257.287, 31.27368
2259.216, 30.39174
2261.144, 28.85266
2263.073, 26.51555
2265.001, 26.34333
2266.929, 25.51888
2268.858, 25.04382
2270.786, 26.21062
2272.715, 25.11940
2274.643, 27.28186
2276.572, 23.10867
2278.500, 26.78360
2280.429, 24.57460
2282.357, 22.24660
2284.286, 21.06661
2286.214, 24.19736
2288.143, 26.28877
2290.071, 23.64175
2292.000, 20.93216
2293.928, 19.33627
2295.856, 21.23683
2297.785, 19.77908
2299.713, 21.15654
2301.642, 18.95659
2303.570, 22.70410
2305.499, 23.34802
2307.427, 22.10104
2309.356, 21.61219
2311.284, 20.92089
2313.213, 20.40344
2315.141, 19.56372
2317.070, 19.77705
2318.998, 20.44951
2320.927, 20.35079
2322.855, 23.51814
2324.783, 26.03698
2326.712, 24.83768
2328.640, 22.21157
2330.569, 20.39437
2332.497, 20.44770
2334.426, 25.39377
2336.354, 21.43868
2338.283, 24.17671
2340.211, 26.08102
2342.140, 23.52184
2344.068, 26.62427
2345.997, 29.58361
2347.925, 23.79321
2349.854, 21.93142
2351.782, 22.99943
2353.710, 21.90671
2355.639, 22.26328
2357.567, 24.48696
2359.496, 23.80374
2361.424, 22.95159
2363.353, 23.75647
2365.281, 23.79513
2367.210, 23.14785
2369.138, 21.80725
2371.067, 20.28625
2372.995, 19.15825
2374.924, 20.04416
2376.852, 20.55145
2378.781, 20.28274
2380.709, 21.70379
2382.637, 22.26570
2384.566, 20.69161
2386.494, 21.33849
2388.423, 22.37043
2390.351, 21.88774
2392.280, 22.40495
2394.208, 23.86703
2396.137, 26.90134
2398.065, 26.92964
2399.994, 23.90481
2401.922, 20.11923
2403.851, 19.32063
2405.779, 17.99996
2407.708, 17.40483
2409.636, 18.53221
2411.564, 18.31720
2413.493, 20.39026
2415.421, 21.95711
2417.350, 18.29599
2419.278, 17.25070
2421.207, 18.94281
2423.135, 17.33018
2425.064, 18.68530
2426.992, 18.20240
2428.921, 19.93794
2430.849, 21.51267
2432.778, 20.57829
2434.706, 20.25554
2436.635, 20.56010
2438.563, 21.65503
2440.491, 23.47155
2442.420, 24.07940
2444.348, 20.86974
2446.277, 20.61261
2448.205, 22.03380
2450.134, 22.81596
2452.062, 22.73293
2453.991, 22.18713
2455.919, 22.86313
2457.848, 20.17137
2459.776, 15.17534
2461.705, 22.61108
2463.633, 25.60028
2465.562, 19.18806
2467.490, 19.86508
2469.418, 22.37653
2471.347, 23.94084
2473.275, 26.03930
2475.204, 26.02767
2477.132, 21.69680
2479.061, 18.82419
2480.989, 18.05344
2482.918, 16.82060
2484.846, 19.79748
2486.775, 17.60079
2488.703, 20.06857
2490.632, 21.29560
2492.560, 20.77142
2494.489, 22.10371
2496.417, 18.97386
2498.345, 22.07623
2500.274, 20.03130
2502.202, 18.54590
2504.131, 18.81288
2506.059, 18.40443
2507.988, 17.62517
2509.916, 16.61549
2511.845, 16.34215
2513.773, 16.82252
2515.702, 17.97194
2517.630, 15.93881
2519.559, 14.00847
2521.487, 13.78750
2523.416, 14.37307
2525.344, 12.40451
2527.272, 17.06790
2529.201, 18.39329
2531.129, 18.76323
2533.058, 20.99965
2534.986, 21.65954
2536.915, 20.51836
2538.843, 17.07763
2540.772, 17.01511
2542.700, 18.42939
2544.629, 17.13127
2546.557, 18.33633
2548.486, 20.97330
2550.414, 21.96527
2552.343, 21.47830
2554.271, 20.34358
2556.199, 20.61714
2558.128, 20.04728
2560.056, 19.32627
2561.985, 22.81491
2563.913, 19.97193
2565.842, 22.18915
2567.770, 21.60884
2569.699, 24.72033
2571.627, 22.30877
2573.556, 23.91507
2575.484, 23.19336
2577.413, 20.12135
2579.341, 20.08523
2581.270, 20.20004
2583.198, 20.03408
2585.126, 18.94347
2587.055, 18.59377
2588.983, 16.44520
2590.912, 16.40421
2592.840, 15.46505
2594.769, 13.13405
2596.697, 17.84632
2598.626, 20.30164
2600.554, 18.65101
2602.483, 16.82035
2604.411, 15.74728
2606.340, 15.40585
2608.268, 12.74360
2610.197, 14.98504
2612.125, 13.95985
2614.053, 17.12704
2615.982, 15.09195
2617.910, 17.81163
2619.839, 20.05744
2621.767, 19.08749
2623.696, 15.40276
2625.624, 12.64591
2627.553, 14.13891
2629.481, 18.53173
2631.410, 19.02993
2633.338, 18.31874
2635.267, 17.37933
2637.195, 17.10389
2639.124, 16.72625
2641.052, 16.49862
2642.980, 15.48888
2644.909, 16.96824
2646.837, 14.01459
2648.766, 13.80624
2650.694, 14.55987
2652.623, 15.22032
2654.551, 13.99511
2656.480, 14.14391
2658.408, 15.36305
2660.337, 16.55975
2662.265, 18.90722
2664.194, 20.68872
2666.122, 19.75080
2668.051, 17.39581
2669.979, 15.50187
2671.907, 15.80347
2673.836, 14.33135
2675.764, 13.34554
2677.693, 14.73323
2679.621, 18.59237
2681.550, 20.07809
2683.478, 16.74706
2685.407, 15.55170
2687.335, 15.81208
2689.264, 16.88303
2691.192, 19.44581
2693.121, 19.25436
2695.049, 15.63049
2696.978, 12.77199
2698.906, 12.41070
2700.834, 14.47893
2702.763, 13.40019
2704.691, 17.94721
2706.620, 14.99595
2708.548, 18.69080
2710.477, 20.76373
2712.405, 19.89111
2714.334, 14.80030
2716.262, 15.69412
2718.191, 17.14054
2720.119, 8.118577
2722.048, 9.845596
2723.976, 16.14820
2725.905, 21.85056
2727.833, 16.63695
2729.761, 13.16346
2731.690, 19.81539
2733.618, 13.96698
2735.547, 10.47140
2737.475, 14.50343
2739.404, 18.06899
2741.332, 16.66349
2743.261, 18.24147
2745.189, 17.65361
2747.118, 16.95320
2749.046, 12.07062
2750.975, 11.17570
2752.903, 14.50675
2754.832, 18.33993
2756.760, 18.89131
2758.688, 20.53139
2760.617, 20.64871
2762.545, 19.39405
2764.474, 17.94027
2766.402, 13.43580
2768.331, 8.647274
2770.259, 15.02867
2772.188, 17.20492
2774.116, 14.62709
2776.045, 18.44746
2777.973, 18.94575
2779.902, 16.27094
2781.830, 12.03479
2783.759, 11.76307
2785.687, 14.07560
2787.615, 17.88429
2789.544, 21.24261
2791.472, 19.81223
2793.401, 12.05152
2795.329, 17.47001
2797.258, 17.00949
2799.186, 10.22585
2801.115, 14.96933
2803.043, 15.89808
2804.972, 13.86849
2806.900, 13.51818
2808.829, 15.84256
2810.757, 17.19730
2812.686, 15.12937
2814.614, 13.44139
2816.542, 14.00158
2818.471, 16.71116
2820.399, 16.16462
2822.328, 16.91824
2824.256, 18.92121
2826.185, 19.86427
2828.113, 19.06092
2830.042, 17.90287
2831.970, 17.95758
2833.899, 13.39620
2835.827, 10.75980
2837.756, 12.53886
2839.684, 13.56244
2841.613, 13.70979
2843.541, 12.71685
2845.469, 14.48546
2847.398, 15.00845
2849.326, 16.76169
2851.255, 17.07024
2853.183, 17.60702
2855.112, 17.17350
2857.040, 15.24926
2858.969, 13.92690
2860.897, 12.08132
2862.826, 11.05721
2864.754, 14.83010
2866.683, 19.14055
2868.611, 19.59372
2870.540, 13.09082
2872.468, 11.47234
2874.396, 11.72178
2876.325, 12.24105
2878.253, 13.67460
2880.182, 13.54334
2882.110, 13.68211
2884.039, 18.28769
2885.967, 14.70314
2887.896, 12.57417
2889.824, 17.21836
2891.753, 15.72324
2893.681, 14.67005
2895.610, 14.56486
2897.538, 9.404118
2899.467, 11.44821
2901.395, 12.80717
2903.323, 4.260163
2905.252, 9.941068
2907.180, 12.64582
2909.109, 9.332644
2911.037, 17.86474
2912.966, 14.49291
2914.894, 7.623011
2916.823, 15.97857
2918.751, 14.18510
2920.680, 10.16340
2922.608, 8.773334
2924.537, 14.25359
2926.465, 15.87348
2928.394, 14.82019
2930.322, 16.02820
2932.250, 13.13107
2934.179, 11.95858
2936.107, 15.29989
2938.036, 14.75422
2939.964, 10.92670
2941.893, 8.264111
2943.821, 13.86842
2945.750, 10.87197
2947.678, 11.09867
2949.607, 18.47243
2951.535, 10.18214
2953.464, 7.145483
2955.392, 9.582996
2957.321, 9.883691
2959.249, 12.10352
2961.177, 12.38398
2963.106, 9.731932
2965.034, 9.738235
2966.963, 9.305691
2968.891, 9.039356
2970.820, 11.40936
2972.748, 9.891787
2974.677, 8.731232
2976.605, 9.853329
2978.534, 13.42274
2980.462, 14.72539
2982.391, 13.26566
2984.319, 8.698593
2986.248, 7.396892
2988.176, 8.205026
2990.104, 10.26890
2992.033, 12.93856
2993.961, 13.01012
2995.890, 11.11218
2997.818, 8.331955
2999.747, 10.70548
3001.675, 10.83142
3003.604, 8.892426
3005.532, 8.679611
3007.461, 10.04901
3009.389, 10.57251
3011.318, 9.627801
3013.246, 10.39019
3015.175, 9.024075
3017.103, 9.186615
3019.031, 9.423203
3020.960, 11.83689
3022.888, 11.15911
3024.817, 14.29672
3026.745, 17.85560
3028.674, 13.46735
3030.602, 7.871707
3032.531, 5.462915
3034.459, 5.358196
3036.388, 3.179315
3038.316, 4.208588
3040.245, 4.702425
3042.173, 7.489783
3044.102, 12.77378
3046.030, 16.76260
3047.958, 16.06012
3049.887, 12.28370
3051.815, 8.804586
3053.744, 7.771142
3055.672, 12.34049
3057.601, 8.378964
3059.529, 5.120836
3061.458, 11.19165
3063.386, 10.85547
3065.315, 5.702749
3067.243, 2.256020
3069.172, 9.048473
3071.100, 13.88626
3073.029, 13.48841
3074.957, 10.11721
3076.885, 13.58647
3078.814, 9.782681
3080.742, 7.357184
3082.671, 10.42158
3084.599, 11.85040
3086.528, 12.48225
3088.456, 12.10908
3090.385, 10.56926
3092.313, 10.60200
3094.242, 9.786975
3096.170, 9.267883
3098.099, 12.53610
3100.027, 5.917573
3101.956, 4.866607
3103.884, 9.973426
3105.813, 13.42321
3107.741, 11.03746
3109.669, 10.63062
3111.598, 12.39063
3113.526, 5.408212
3115.455, 6.343357
3117.383, 6.894004
3119.312, 3.438049
3121.240, 8.291101
3123.169, 5.827567
3125.097, 2.594304
3127.026, 4.156312
3128.954, 8.892897
3130.883, 12.72397
3132.811, 13.70509
3134.740, 11.53483
3136.668, 12.27852
3138.596, 8.377300
3140.525, 3.868443
3142.453, 4.571661
3144.382, 7.304350
3146.310, 11.88266
3148.239, 14.37220
3150.167, 14.69731
3152.096, 13.16217
3154.024, 13.89620
3155.953, 11.85444
3157.881, 11.18610
3159.810, 10.98723
3161.738, 9.272817
3163.667, 7.015665
3165.595, 6.328755
3167.523, 11.38716
3169.452, 12.53836
3171.380, 8.672212
3173.309, 3.244631
3175.237, 7.674949
3177.166, 11.26497
3179.094, 12.37564
3181.023, 14.96175
3182.951, 12.72708
3184.880, 10.57112
3186.808, 9.630701
3188.737, 8.627546
3190.665, 12.01083
3192.594, 13.32767
3194.522, 10.21717
3196.450, 2.680305
3198.379, 6.251844
3200.307, 9.592169
3202.236, 11.28047
3204.164, 15.20891
3206.093, 7.560449
3208.021, 12.02695
3209.950, 19.12601
3211.878, 6.913829
3213.807, 6.890513
3215.735, 8.689299
3217.664, 11.26903
3219.592, 16.97291
3221.521, 7.946603
3223.449, 8.744719
3225.377, 14.06900
3227.306, 14.39537
3229.234, 14.47044
3231.163, 9.651561
3233.091, 5.240839
3235.020, 5.507117
3236.948, 9.413716
3238.877, 9.858186
3240.805, 11.52037
3242.734, 15.17039
3244.662, 9.931388
3246.591, 10.37789
3248.519, 11.58648
3250.448, 9.687536
3252.376, 10.96957
3254.304, 7.325998
3256.233, 12.06029
3258.161, 12.45350
3260.090, 13.64080
3262.018, 9.614438
3263.947, 11.15810
3265.875, 12.17176
3267.804, 10.78207
3269.732, 12.88493
3271.661, 9.593682
3273.589, 14.30011
3275.518, 11.99681
3277.446, 10.41044
3279.375, 12.34542
3281.303, 10.67513
3283.231, 5.716359
3285.160, 10.99787
3287.088, 5.557325
3289.017, 4.475074
3290.945, 9.583920
3292.874, 12.46487
3294.802, 4.810050
3296.731, 4.719507
3298.659, 8.707749
3300.588, 9.026989
3302.516, 9.502797
3304.445, 7.212380
3306.373, 6.398960
3308.302, 8.536652
3310.230, 10.07491
3312.158, 10.15111
3314.087, 8.040084
3316.015, 4.720138
3317.944, 1.896117
3319.872, 0.7466257
3321.801, 2.032737
3323.729, 2.144413
3325.658, 5.100399
3327.586, 6.698110
3329.515, 10.06709
3331.443, 14.82085
3333.372, 12.86113
3335.300, 3.744289
3337.229, 2.704122
3339.157, 2.318371
3341.085, 3.761544
3343.014, 4.098660
3344.942, 9.310573
3346.871, 7.444798
3348.799, 6.968691
3350.728, 9.986814
3352.656, 6.730063
3354.585, 11.16117
3356.513, 5.315478
3358.442, 5.581111
3360.370, 9.956876
3362.299, 12.11876
3364.227, 10.76628
3366.156, 10.31535
3368.084, 11.20238
3370.012, 9.312146
3371.941, 6.365163
3373.869, 10.12326
3375.798, 12.49792
3377.726, 6.457709
3379.655, 5.883730
3381.583, 7.696278
3383.512, 10.38911
3385.440, 12.47026
3387.369, 12.48157
3389.297, 7.707444
3391.226, 6.672887
3393.154, 8.343469
3395.083, 10.12386
3397.011, 10.08522
3398.939, 10.69072
3400.868, 10.03053
3402.796, 9.221690
3404.725, 9.098499
3406.653, 5.285696
3408.582, 7.335808
3410.510, 2.534216
3412.439, 3.542178
3414.367, 7.429870
3416.296, 4.683238
3418.224, 6.334570
3420.153, 8.199994
3422.081, 7.324523
3424.010, 10.46977
3425.938, 9.151073
3427.866, 9.646432
3429.795, 11.65852
3431.723, 12.88620
3433.652, 10.64267
3435.580, 13.05784
3437.509, 12.27850
3439.437, 8.123669
3441.366, 4.393473
3443.294, 7.874741
3445.223, 12.66087
3447.151, 10.32035
3449.080, 6.774741
3451.008, 12.63069
3452.937, 12.03252
3454.865, 12.35357
3456.793, 10.62440
3458.722, 7.578263
##END=



