##NAMES=Liottite
##RRUFFID=R120045
##IDEAL CHEMISTRY=Na_16_Ca_8_Si_18_Al_18_O_72_(SO_4_)_5_Cl_4_
##LOCALITY=Case Collina (Toscopomici quarry), Pitigliano, Grosseto Province, Tuscany, Italy
##OWNER=RRUFF
##SOURCE=R. Van Dommelen
##DESCRIPTION=Pseudhexagonal colorless crystals, associated with grossular
##STATUS=The identification of this mineral has been confirmed only by single crystal X-ray diffraction
##URL=https://www.rruff.net/odr/rruff_sample/R120045
##DIFFRACTION SAMPLE DESCRIPTION=Single crystal, powder profile is calculated
##CELL PARAMETERS=a: 12.868 b: 12.868 c: 16.107 alpha: 90 beta: 90 gamma: 120 volume: 2309.8 crystal system: hexagonal
##FILETYPE=Raman RAW
##RAMAN WAVELENGTH=780

7.931860e+001, 0.000000e+000
8.124707e+001, 7.922307e+002
8.317554e+001, 7.182850e+002
8.510400e+001, 7.383533e+002
8.703247e+001, 8.609828e+002
8.896094e+001, 1.008401e+003
9.088940e+001, 1.192552e+003
9.281787e+001, 1.375292e+003
9.474634e+001, 1.516396e+003
9.667480e+001, 1.522547e+003
9.860327e+001, 1.504084e+003
1.005317e+002, 1.476736e+003
1.024602e+002, 1.442715e+003
1.043887e+002, 1.398708e+003
1.063171e+002, 1.357837e+003
1.082456e+002, 1.318269e+003
1.101741e+002, 1.283793e+003
1.121025e+002, 1.257229e+003
1.140310e+002, 1.237308e+003
1.159595e+002, 1.224342e+003
1.178879e+002, 1.216378e+003
1.198164e+002, 1.214764e+003
1.217449e+002, 1.220166e+003
1.236733e+002, 1.230648e+003
1.256018e+002, 1.246043e+003
1.275303e+002, 1.266097e+003
1.294587e+002, 1.285213e+003
1.313872e+002, 1.302121e+003
1.333157e+002, 1.320929e+003
1.352441e+002, 1.344331e+003
1.371726e+002, 1.369017e+003
1.391011e+002, 1.393462e+003
1.410295e+002, 1.417293e+003
1.429580e+002, 1.438350e+003
1.448865e+002, 1.456747e+003
1.468149e+002, 1.472035e+003
1.487434e+002, 1.483417e+003
1.506719e+002, 1.492184e+003
1.526003e+002, 1.499895e+003
1.545288e+002, 1.505328e+003
1.564573e+002, 1.503564e+003
1.583857e+002, 1.492910e+003
1.603142e+002, 1.485021e+003
1.622427e+002, 1.485505e+003
1.641711e+002, 1.486919e+003
1.660996e+002, 1.486696e+003
1.680281e+002, 1.484759e+003
1.699565e+002, 1.480562e+003
1.718850e+002, 1.473962e+003
1.738135e+002, 1.468316e+003
1.757419e+002, 1.467766e+003
1.776704e+002, 1.464075e+003
1.795989e+002, 1.452589e+003
1.815273e+002, 1.437386e+003
1.834558e+002, 1.423972e+003
1.853843e+002, 1.412223e+003
1.873127e+002, 1.402033e+003
1.892412e+002, 1.395590e+003
1.911697e+002, 1.387276e+003
1.930981e+002, 1.374941e+003
1.950266e+002, 1.360941e+003
1.969551e+002, 1.348081e+003
1.988835e+002, 1.335495e+003
2.008120e+002, 1.320003e+003
2.027405e+002, 1.300447e+003
2.046689e+002, 1.279931e+003
2.065974e+002, 1.259786e+003
2.085259e+002, 1.238046e+003
2.104543e+002, 1.212660e+003
2.123828e+002, 1.185039e+003
2.143113e+002, 1.157414e+003
2.162397e+002, 1.129704e+003
2.181682e+002, 1.102893e+003
2.200967e+002, 1.077059e+003
2.220251e+002, 1.051962e+003
2.239536e+002, 1.027088e+003
2.258821e+002, 1.003387e+003
2.278105e+002, 9.815810e+002
2.297390e+002, 9.616855e+002
2.316675e+002, 9.431758e+002
2.335959e+002, 9.257430e+002
2.355244e+002, 9.102162e+002
2.374529e+002, 8.989634e+002
2.393813e+002, 8.873461e+002
2.413098e+002, 8.711776e+002
2.432383e+002, 8.529315e+002
2.451667e+002, 8.381751e+002
2.470952e+002, 8.285143e+002
2.490237e+002, 8.179252e+002
2.509521e+002, 8.055124e+002
2.528806e+002, 7.936334e+002
2.548091e+002, 7.838213e+002
2.567375e+002, 7.742991e+002
2.586660e+002, 7.632222e+002
2.605945e+002, 7.507736e+002
2.625229e+002, 7.393950e+002
2.644514e+002, 7.291024e+002
2.663799e+002, 7.197550e+002
2.683083e+002, 7.117791e+002
2.702368e+002, 7.041434e+002
2.721653e+002, 6.952352e+002
2.740938e+002, 6.869108e+002
2.760222e+002, 6.821237e+002
2.779507e+002, 6.812340e+002
2.798792e+002, 6.812864e+002
2.818076e+002, 6.820547e+002
2.837361e+002, 6.843748e+002
2.856646e+002, 6.892491e+002
2.875930e+002, 6.949227e+002
2.895215e+002, 7.007380e+002
2.914500e+002, 7.063853e+002
2.933784e+002, 7.110902e+002
2.953069e+002, 7.147508e+002
2.972354e+002, 7.180298e+002
2.991638e+002, 7.213797e+002
3.010923e+002, 7.232609e+002
3.030208e+002, 7.237717e+002
3.049492e+002, 7.219305e+002
3.068777e+002, 7.155438e+002
3.088062e+002, 7.061967e+002
3.107346e+002, 6.989968e+002
3.126631e+002, 6.937859e+002
3.145916e+002, 6.905826e+002
3.165200e+002, 6.885815e+002
3.184485e+002, 6.904941e+002
3.203770e+002, 6.985438e+002
3.223054e+002, 7.092246e+002
3.242339e+002, 7.218147e+002
3.261624e+002, 7.346287e+002
3.280908e+002, 7.425042e+002
3.300193e+002, 7.455450e+002
3.319477e+002, 7.445625e+002
3.338762e+002, 7.388312e+002
3.358047e+002, 7.304310e+002
3.377331e+002, 7.195910e+002
3.396616e+002, 7.069608e+002
3.415901e+002, 6.919518e+002
3.435185e+002, 6.757367e+002
3.454470e+002, 6.614559e+002
3.473755e+002, 6.491172e+002
3.493039e+002, 6.375123e+002
3.512324e+002, 6.263028e+002
3.531609e+002, 6.160668e+002
3.550893e+002, 6.064710e+002
3.570178e+002, 5.983187e+002
3.589463e+002, 5.924714e+002
3.608747e+002, 5.884957e+002
3.628032e+002, 5.850391e+002
3.647317e+002, 5.821127e+002
3.666601e+002, 5.818260e+002
3.685886e+002, 5.861060e+002
3.705171e+002, 5.902684e+002
3.724455e+002, 5.927173e+002
3.743740e+002, 5.957821e+002
3.763025e+002, 6.000002e+002
3.782309e+002, 6.062415e+002
3.801594e+002, 6.152737e+002
3.820879e+002, 6.271181e+002
3.840163e+002, 6.419354e+002
3.859448e+002, 6.616450e+002
3.878733e+002, 6.806806e+002
3.898017e+002, 6.998606e+002
3.917302e+002, 7.167863e+002
3.936587e+002, 7.300223e+002
3.955871e+002, 7.408114e+002
3.975156e+002, 7.497452e+002
3.994441e+002, 7.573533e+002
4.013725e+002, 7.654592e+002
4.033010e+002, 7.724260e+002
4.052295e+002, 7.847987e+002
4.071579e+002, 7.999920e+002
4.090864e+002, 8.238693e+002
4.110149e+002, 8.575021e+002
4.129433e+002, 9.007177e+002
4.148718e+002, 9.540994e+002
4.168003e+002, 1.016308e+003
4.187287e+002, 1.086315e+003
4.206572e+002, 1.164391e+003
4.225857e+002, 1.247367e+003
4.245141e+002, 1.340078e+003
4.264426e+002, 1.425099e+003
4.283711e+002, 1.496913e+003
4.302995e+002, 1.567422e+003
4.322280e+002, 1.636805e+003
4.341565e+002, 1.712329e+003
4.360849e+002, 1.799283e+003
4.380134e+002, 1.897279e+003
4.399419e+002, 2.004663e+003
4.418703e+002, 2.121316e+003
4.437988e+002, 2.254672e+003
4.457273e+002, 2.411208e+003
4.476557e+002, 2.565827e+003
4.495842e+002, 2.732711e+003
4.515127e+002, 2.862643e+003
4.534411e+002, 2.941564e+003
4.553696e+002, 2.965900e+003
4.572981e+002, 2.926686e+003
4.592265e+002, 2.828270e+003
4.611550e+002, 2.680872e+003
4.630835e+002, 2.483200e+003
4.650119e+002, 2.276930e+003
4.669404e+002, 2.058592e+003
4.688689e+002, 1.854834e+003
4.707973e+002, 1.673388e+003
4.727258e+002, 1.511026e+003
4.746543e+002, 1.366762e+003
4.765827e+002, 1.239920e+003
4.785112e+002, 1.130871e+003
4.804397e+002, 1.038456e+003
4.823681e+002, 9.591616e+002
4.842966e+002, 8.923228e+002
4.862251e+002, 8.358731e+002
4.881535e+002, 7.902343e+002
4.900820e+002, 7.528676e+002
4.920105e+002, 7.267883e+002
4.939389e+002, 7.045706e+002
4.958674e+002, 6.850135e+002
4.977959e+002, 6.671509e+002
4.997243e+002, 6.495363e+002
5.016528e+002, 6.331735e+002
5.035813e+002, 6.210604e+002
5.055097e+002, 6.125250e+002
5.074382e+002, 6.020974e+002
5.093667e+002, 5.883110e+002
5.112951e+002, 5.773678e+002
5.132236e+002, 5.733756e+002
5.151521e+002, 5.682796e+002
5.170806e+002, 5.593956e+002
5.190090e+002, 5.496760e+002
5.209375e+002, 5.400859e+002
5.228660e+002, 5.314753e+002
5.247944e+002, 5.256512e+002
5.267229e+002, 5.217047e+002
5.286514e+002, 5.164688e+002
5.305798e+002, 5.095295e+002
5.325083e+002, 5.041703e+002
5.344368e+002, 5.016100e+002
5.363652e+002, 4.992795e+002
5.382937e+002, 4.964028e+002
5.402222e+002, 4.944312e+002
5.421506e+002, 4.946101e+002
5.440791e+002, 4.952968e+002
5.460076e+002, 4.957666e+002
5.479360e+002, 4.953853e+002
5.498645e+002, 4.921024e+002
5.517930e+002, 4.863877e+002
5.537214e+002, 4.844077e+002
5.556499e+002, 4.886147e+002
5.575784e+002, 4.899165e+002
5.595068e+002, 4.856838e+002
5.614353e+002, 4.829864e+002
5.633638e+002, 4.836894e+002
5.652922e+002, 4.849063e+002
5.672207e+002, 4.853555e+002
5.691492e+002, 4.857369e+002
5.710776e+002, 4.860561e+002
5.730061e+002, 4.869487e+002
5.749345e+002, 4.897933e+002
5.768630e+002, 4.944500e+002
5.787914e+002, 4.988332e+002
5.807199e+002, 5.020191e+002
5.826484e+002, 5.089674e+002
5.845768e+002, 5.212489e+002
5.865053e+002, 5.327670e+002
5.884338e+002, 5.408817e+002
5.903622e+002, 5.508150e+002
5.922907e+002, 5.631260e+002
5.942192e+002, 5.804412e+002
5.961476e+002, 6.033466e+002
5.980761e+002, 6.328771e+002
6.000046e+002, 6.696399e+002
6.019330e+002, 7.141819e+002
6.038615e+002, 7.699738e+002
6.057900e+002, 8.379034e+002
6.077184e+002, 9.083367e+002
6.096469e+002, 9.836901e+002
6.115754e+002, 1.045712e+003
6.135038e+002, 1.092014e+003
6.154323e+002, 1.123596e+003
6.173608e+002, 1.142802e+003
6.192892e+002, 1.143383e+003
6.212177e+002, 1.117310e+003
6.231462e+002, 1.078046e+003
6.250746e+002, 1.031306e+003
6.270031e+002, 9.818372e+002
6.289316e+002, 9.337193e+002
6.308600e+002, 8.897682e+002
6.327885e+002, 8.628895e+002
6.347170e+002, 8.519934e+002
6.366454e+002, 8.456489e+002
6.385739e+002, 8.439006e+002
6.405024e+002, 8.407252e+002
6.424308e+002, 8.391749e+002
6.443593e+002, 8.259247e+002
6.462878e+002, 7.923409e+002
6.482162e+002, 7.535082e+002
6.501447e+002, 7.099514e+002
6.520732e+002, 6.685681e+002
6.540016e+002, 6.332825e+002
6.559301e+002, 6.042543e+002
6.578586e+002, 5.833294e+002
6.597870e+002, 5.685020e+002
6.617155e+002, 5.558589e+002
6.636440e+002, 5.449321e+002
6.655724e+002, 5.332979e+002
6.675009e+002, 5.207820e+002
6.694294e+002, 5.078130e+002
6.713578e+002, 4.948300e+002
6.732863e+002, 4.803905e+002
6.752148e+002, 4.625091e+002
6.771432e+002, 4.460345e+002
6.790717e+002, 4.319960e+002
6.810002e+002, 4.197101e+002
6.829286e+002, 4.094758e+002
6.848571e+002, 4.001858e+002
6.867856e+002, 3.907101e+002
6.887141e+002, 3.818703e+002
6.906425e+002, 3.745616e+002
6.925710e+002, 3.686519e+002
6.944995e+002, 3.644544e+002
6.964279e+002, 3.617152e+002
6.983564e+002, 3.566532e+002
7.002849e+002, 3.479764e+002
7.022133e+002, 3.425580e+002
7.041418e+002, 3.439773e+002
7.060703e+002, 3.422540e+002
7.079987e+002, 3.349760e+002
7.099272e+002, 3.288282e+002
7.118557e+002, 3.247516e+002
7.137841e+002, 3.225839e+002
7.157126e+002, 3.240280e+002
7.176411e+002, 3.249760e+002
7.195695e+002, 3.217253e+002
7.214980e+002, 3.178347e+002
7.234265e+002, 3.165068e+002
7.253549e+002, 3.164190e+002
7.272834e+002, 3.154433e+002
7.292119e+002, 3.140089e+002
7.311403e+002, 3.137703e+002
7.330688e+002, 3.146349e+002
7.349973e+002, 3.145161e+002
7.369257e+002, 3.132440e+002
7.388542e+002, 3.117803e+002
7.407827e+002, 3.098002e+002
7.427111e+002, 3.095089e+002
7.446396e+002, 3.118612e+002
7.465681e+002, 3.130422e+002
7.484965e+002, 3.107635e+002
7.504250e+002, 3.106228e+002
7.523535e+002, 3.161260e+002
7.542819e+002, 3.220336e+002
7.562104e+002, 3.262464e+002
7.581389e+002, 3.296507e+002
7.600673e+002, 3.336909e+002
7.619958e+002, 3.363806e+002
7.639243e+002, 3.361845e+002
7.658527e+002, 3.328985e+002
7.677812e+002, 3.248282e+002
7.697097e+002, 3.137053e+002
7.716381e+002, 3.037875e+002
7.735666e+002, 2.953487e+002
7.754951e+002, 2.904676e+002
7.774235e+002, 2.888177e+002
7.793520e+002, 2.857940e+002
7.812805e+002, 2.809977e+002
7.832089e+002, 2.787711e+002
7.851374e+002, 2.803985e+002
7.870659e+002, 2.803389e+002
7.889943e+002, 2.766130e+002
7.909228e+002, 2.737321e+002
7.928513e+002, 2.731444e+002
7.947797e+002, 2.729142e+002
7.967082e+002, 2.725388e+002
7.986367e+002, 2.725139e+002
8.005651e+002, 2.724001e+002
8.024936e+002, 2.735240e+002
8.044221e+002, 2.774698e+002
8.063505e+002, 2.822022e+002
8.082790e+002, 2.883853e+002
8.102075e+002, 2.922270e+002
8.121359e+002, 2.864388e+002
8.140644e+002, 2.770384e+002
8.159929e+002, 2.729420e+002
8.179213e+002, 2.728985e+002
8.198498e+002, 2.753316e+002
8.217783e+002, 2.792124e+002
8.237067e+002, 2.800518e+002
8.256352e+002, 2.779385e+002
8.275637e+002, 2.767827e+002
8.294921e+002, 2.767867e+002
8.314206e+002, 2.770825e+002
8.333491e+002, 2.776408e+002
8.352775e+002, 2.785276e+002
8.372060e+002, 2.808273e+002
8.391345e+002, 2.814676e+002
8.410629e+002, 2.786056e+002
8.429914e+002, 2.774848e+002
8.449199e+002, 2.801248e+002
8.468483e+002, 2.819399e+002
8.487768e+002, 2.811841e+002
8.507053e+002, 2.806034e+002
8.526337e+002, 2.811030e+002
8.545622e+002, 2.821069e+002
8.564907e+002, 2.832552e+002
8.584191e+002, 2.849186e+002
8.603476e+002, 2.883790e+002
8.622761e+002, 2.911236e+002
8.642045e+002, 2.906541e+002
8.661330e+002, 2.894097e+002
8.680615e+002, 2.900492e+002
8.699899e+002, 2.908199e+002
8.719184e+002, 2.882325e+002
8.738469e+002, 2.852327e+002
8.757753e+002, 2.877964e+002
8.777038e+002, 2.933495e+002
8.796323e+002, 2.955959e+002
8.815607e+002, 2.955730e+002
8.834892e+002, 2.971855e+002
8.854177e+002, 2.999778e+002
8.873461e+002, 3.007668e+002
8.892746e+002, 2.997777e+002
8.912031e+002, 3.009941e+002
8.931315e+002, 3.042872e+002
8.950600e+002, 3.062524e+002
8.969885e+002, 3.068026e+002
8.989169e+002, 3.060413e+002
9.008454e+002, 3.038533e+002
9.027739e+002, 3.040132e+002
9.047023e+002, 3.071783e+002
9.066308e+002, 3.095741e+002
9.085593e+002, 3.106234e+002
9.104877e+002, 3.112941e+002
9.124162e+002, 3.116353e+002
9.143447e+002, 3.120966e+002
9.162731e+002, 3.124024e+002
9.182016e+002, 3.140207e+002
9.201301e+002, 3.177982e+002
9.220585e+002, 3.218512e+002
9.239870e+002, 3.264157e+002
9.259155e+002, 3.300202e+002
9.278439e+002, 3.303194e+002
9.297724e+002, 3.326713e+002
9.317009e+002, 3.396385e+002
9.336293e+002, 3.474761e+002
9.355578e+002, 3.549432e+002
9.374863e+002, 3.626256e+002
9.394147e+002, 3.713742e+002
9.413432e+002, 3.796413e+002
9.432717e+002, 3.842884e+002
9.452001e+002, 3.913094e+002
9.471286e+002, 4.047459e+002
9.490571e+002, 4.217588e+002
9.509855e+002, 4.394088e+002
9.529140e+002, 4.608902e+002
9.548425e+002, 4.862006e+002
9.567709e+002, 5.195040e+002
9.586994e+002, 5.591214e+002
9.606279e+002, 6.143633e+002
9.625563e+002, 6.864362e+002
9.644848e+002, 7.867293e+002
9.664133e+002, 9.153919e+002
9.683417e+002, 1.090977e+003
9.702702e+002, 1.322172e+003
9.721987e+002, 1.623422e+003
9.741271e+002, 2.010648e+003
9.760556e+002, 2.481957e+003
9.779841e+002, 3.059191e+003
9.799125e+002, 3.700593e+003
9.818410e+002, 4.381278e+003
9.837695e+002, 5.045557e+003
9.856979e+002, 5.648327e+003
9.876264e+002, 6.120250e+003
9.895549e+002, 6.335673e+003
9.914833e+002, 6.298996e+003
9.934118e+002, 5.968986e+003
9.953403e+002, 5.421260e+003
9.972687e+002, 4.793109e+003
9.991972e+002, 4.130577e+003
1.001126e+003, 3.553133e+003
1.003054e+003, 3.050855e+003
1.004983e+003, 2.597303e+003
1.006911e+003, 2.191243e+003
1.008840e+003, 1.824501e+003
1.010768e+003, 1.503899e+003
1.012696e+003, 1.254702e+003
1.014625e+003, 1.072470e+003
1.016553e+003, 9.498980e+002
1.018482e+003, 8.786629e+002
1.020410e+003, 8.328640e+002
1.022339e+003, 8.087166e+002
1.024267e+003, 7.944139e+002
1.026196e+003, 7.883180e+002
1.028124e+003, 7.836912e+002
1.030053e+003, 7.816122e+002
1.031981e+003, 7.857841e+002
1.033910e+003, 7.961136e+002
1.035838e+003, 8.130016e+002
1.037767e+003, 8.354453e+002
1.039695e+003, 8.591266e+002
1.041624e+003, 8.850624e+002
1.043552e+003, 9.173035e+002
1.045480e+003, 9.547957e+002
1.047409e+003, 9.972347e+002
1.049337e+003, 1.041143e+003
1.051266e+003, 1.077359e+003
1.053194e+003, 1.105666e+003
1.055123e+003, 1.126283e+003
1.057051e+003, 1.138449e+003
1.058980e+003, 1.141240e+003
1.060908e+003, 1.133299e+003
1.062837e+003, 1.107335e+003
1.064765e+003, 1.069589e+003
1.066694e+003, 1.032906e+003
1.068622e+003, 9.976935e+002
1.070550e+003, 9.631909e+002
1.072479e+003, 9.315486e+002
1.074407e+003, 9.079494e+002
1.076336e+003, 8.904339e+002
1.078264e+003, 8.737725e+002
1.080193e+003, 8.610473e+002
1.082121e+003, 8.599528e+002
1.084050e+003, 8.655643e+002
1.085978e+003, 8.699922e+002
1.087907e+003, 8.746295e+002
1.089835e+003, 8.806683e+002
1.091764e+003, 8.893791e+002
1.093692e+003, 9.038531e+002
1.095620e+003, 9.210783e+002
1.097549e+003, 9.378272e+002
1.099477e+003, 9.540999e+002
1.101406e+003, 9.695305e+002
1.103334e+003, 9.848622e+002
1.105263e+003, 1.001448e+003
1.107191e+003, 1.017668e+003
1.109120e+003, 1.033102e+003
1.111048e+003, 1.046029e+003
1.112977e+003, 1.051989e+003
1.114905e+003, 1.058520e+003
1.116834e+003, 1.071829e+003
1.118762e+003, 1.087422e+003
1.120691e+003, 1.101478e+003
1.122619e+003, 1.117893e+003
1.124547e+003, 1.137863e+003
1.126476e+003, 1.162661e+003
1.128404e+003, 1.195039e+003
1.130333e+003, 1.228820e+003
1.132261e+003, 1.261130e+003
1.134190e+003, 1.293958e+003
1.136118e+003, 1.326142e+003
1.138047e+003, 1.363311e+003
1.139975e+003, 1.408087e+003
1.141904e+003, 1.457216e+003
1.143832e+003, 1.510265e+003
1.145761e+003, 1.566149e+003
1.147689e+003, 1.624170e+003
1.149618e+003, 1.686173e+003
1.151546e+003, 1.751530e+003
1.153474e+003, 1.825127e+003
1.155403e+003, 1.908118e+003
1.157331e+003, 1.998308e+003
1.159260e+003, 2.095601e+003
1.161188e+003, 2.198057e+003
1.163117e+003, 2.305261e+003
1.165045e+003, 2.422649e+003
1.166974e+003, 2.550795e+003
1.168902e+003, 2.689266e+003
1.170831e+003, 2.837889e+003
1.172759e+003, 2.998511e+003
1.174688e+003, 3.169460e+003
1.176616e+003, 3.341911e+003
1.178545e+003, 3.514121e+003
1.180473e+003, 3.682046e+003
1.182401e+003, 3.844941e+003
1.184330e+003, 4.003537e+003
1.186258e+003, 4.154115e+003
1.188187e+003, 4.289295e+003
1.190115e+003, 4.408856e+003
1.192044e+003, 4.514881e+003
1.193972e+003, 4.602271e+003
1.195901e+003, 4.663640e+003
1.197829e+003, 4.700849e+003
1.199758e+003, 4.714993e+003
1.201686e+003, 4.706871e+003
1.203615e+003, 4.670394e+003
1.205543e+003, 4.621429e+003
1.207472e+003, 4.569756e+003
1.209400e+003, 4.512635e+003
1.211328e+003, 4.444514e+003
1.213257e+003, 4.378022e+003
1.215185e+003, 4.318408e+003
1.217114e+003, 4.261882e+003
1.219042e+003, 4.202501e+003
1.220971e+003, 4.156328e+003
1.222899e+003, 4.127096e+003
1.224828e+003, 4.111213e+003
1.226756e+003, 4.109225e+003
1.228685e+003, 4.116711e+003
1.230613e+003, 4.134396e+003
1.232542e+003, 4.157831e+003
1.234470e+003, 4.188663e+003
1.236399e+003, 4.214369e+003
1.238327e+003, 4.234848e+003
1.240255e+003, 4.233577e+003
1.242184e+003, 4.211582e+003
1.244112e+003, 4.175362e+003
1.246041e+003, 4.124635e+003
1.247969e+003, 4.059732e+003
1.249898e+003, 3.978728e+003
1.251826e+003, 3.870405e+003
1.253755e+003, 3.750186e+003
1.255683e+003, 3.637229e+003
1.257612e+003, 3.526341e+003
1.259540e+003, 3.411982e+003
1.261469e+003, 3.297899e+003
1.263397e+003, 3.180098e+003
1.265326e+003, 3.073228e+003
1.267254e+003, 2.986342e+003
1.269182e+003, 2.907189e+003
1.271111e+003, 2.831223e+003
1.273039e+003, 2.766744e+003
1.274968e+003, 2.717343e+003
1.276896e+003, 2.671167e+003
1.278825e+003, 2.625293e+003
1.280753e+003, 2.594139e+003
1.282682e+003, 2.578911e+003
1.284610e+003, 2.569883e+003
1.286539e+003, 2.566742e+003
1.288467e+003, 2.571608e+003
1.290396e+003, 2.585592e+003
1.292324e+003, 2.610998e+003
1.294253e+003, 2.649353e+003
1.296181e+003, 2.703355e+003
1.298109e+003, 2.771578e+003
1.300038e+003, 2.847189e+003
1.301966e+003, 2.942148e+003
1.303895e+003, 3.068999e+003
1.305823e+003, 3.218082e+003
1.307752e+003, 3.383003e+003
1.309680e+003, 3.568233e+003
1.311609e+003, 3.777314e+003
1.313537e+003, 4.004167e+003
1.315466e+003, 4.253841e+003
1.317394e+003, 4.509115e+003
1.319323e+003, 4.774455e+003
1.321251e+003, 5.030609e+003
1.323180e+003, 5.279892e+003
1.325108e+003, 5.505642e+003
1.327036e+003, 5.706975e+003
1.328965e+003, 5.865202e+003
1.330893e+003, 5.980883e+003
1.332822e+003, 6.056299e+003
1.334750e+003, 6.091206e+003
1.336679e+003, 6.081433e+003
1.338607e+003, 6.034860e+003
1.340536e+003, 5.955475e+003
1.342464e+003, 5.848193e+003
1.344393e+003, 5.712063e+003
1.346321e+003, 5.554835e+003
1.348250e+003, 5.373517e+003
1.350178e+003, 5.190944e+003
1.352107e+003, 5.011382e+003
1.354035e+003, 4.842249e+003
1.355964e+003, 4.684611e+003
1.357892e+003, 4.539753e+003
1.359820e+003, 4.408068e+003
1.361749e+003, 4.303899e+003
1.363677e+003, 4.224609e+003
1.365606e+003, 4.156376e+003
1.367534e+003, 4.101760e+003
1.369463e+003, 4.072829e+003
1.371391e+003, 4.054377e+003
1.373320e+003, 4.027516e+003
1.375248e+003, 4.001116e+003
1.377177e+003, 3.982911e+003
1.379105e+003, 3.965527e+003
1.381034e+003, 3.949113e+003
1.382962e+003, 3.926438e+003
1.384891e+003, 3.898894e+003
1.386819e+003, 3.849032e+003
1.388747e+003, 3.774109e+003
1.390676e+003, 3.697921e+003
1.392604e+003, 3.622016e+003
1.394533e+003, 3.545067e+003
1.396461e+003, 3.463695e+003
1.398390e+003, 3.364645e+003
1.400318e+003, 3.258470e+003
1.402247e+003, 3.157353e+003
1.404175e+003, 3.062301e+003
1.406104e+003, 2.973709e+003
1.408032e+003, 2.892466e+003
1.409961e+003, 2.822878e+003
1.411889e+003, 2.753565e+003
1.413818e+003, 2.675786e+003
1.415746e+003, 2.612196e+003
1.417674e+003, 2.566201e+003
1.419603e+003, 2.520993e+003
1.421531e+003, 2.476929e+003
1.423460e+003, 2.447502e+003
1.425388e+003, 2.429334e+003
1.427317e+003, 2.413288e+003
1.429245e+003, 2.399945e+003
1.431174e+003, 2.391710e+003
1.433102e+003, 2.383652e+003
1.435031e+003, 2.367367e+003
1.436959e+003, 2.359945e+003
1.438888e+003, 2.371548e+003
1.440816e+003, 2.385334e+003
1.442745e+003, 2.398408e+003
1.444673e+003, 2.410620e+003
1.446601e+003, 2.421633e+003
1.448530e+003, 2.437827e+003
1.450458e+003, 2.458203e+003
1.452387e+003, 2.476620e+003
1.454315e+003, 2.497019e+003
1.456244e+003, 2.528113e+003
1.458172e+003, 2.562345e+003
1.460101e+003, 2.592882e+003
1.462029e+003, 2.625667e+003
1.463958e+003, 2.662185e+003
1.465886e+003, 2.705059e+003
1.467815e+003, 2.755447e+003
1.469743e+003, 2.810001e+003
1.471672e+003, 2.868129e+003
1.473600e+003, 2.916776e+003
1.475528e+003, 2.960114e+003
1.477457e+003, 3.015821e+003
1.479385e+003, 3.076313e+003
1.481314e+003, 3.127977e+003
1.483242e+003, 3.180646e+003
1.485171e+003, 3.243652e+003
1.487099e+003, 3.306793e+003
1.489028e+003, 3.366551e+003
1.490956e+003, 3.427738e+003
1.492885e+003, 3.491552e+003
1.494813e+003, 3.549677e+003
1.496742e+003, 3.602828e+003
1.498670e+003, 3.659857e+003
1.500599e+003, 3.718258e+003
1.502527e+003, 3.770319e+003
1.504455e+003, 3.823013e+003
1.506384e+003, 3.884843e+003
1.508312e+003, 3.948610e+003
1.510241e+003, 4.015386e+003
1.512169e+003, 4.073190e+003
1.514098e+003, 4.117240e+003
1.516026e+003, 4.162885e+003
1.517955e+003, 4.210701e+003
1.519883e+003, 4.260414e+003
1.521812e+003, 4.311436e+003
1.523740e+003, 4.364988e+003
1.525669e+003, 4.416745e+003
1.527597e+003, 4.461532e+003
1.529526e+003, 4.504103e+003
1.531454e+003, 4.546435e+003
1.533382e+003, 4.590075e+003
1.535311e+003, 4.637103e+003
1.537239e+003, 4.682155e+003
1.539168e+003, 4.725213e+003
1.541096e+003, 4.757693e+003
1.543025e+003, 4.784735e+003
1.544953e+003, 4.826004e+003
1.546882e+003, 4.869693e+003
1.548810e+003, 4.901881e+003
1.550739e+003, 4.933449e+003
1.552667e+003, 4.968333e+003
1.554596e+003, 5.008836e+003
1.556524e+003, 5.056431e+003
1.558453e+003, 5.101778e+003
1.560381e+003, 5.144272e+003
1.562309e+003, 5.190003e+003
1.564238e+003, 5.239008e+003
1.566166e+003, 5.295709e+003
1.568095e+003, 5.350636e+003
1.570023e+003, 5.390469e+003
1.571952e+003, 5.434530e+003
1.573880e+003, 5.490483e+003
1.575809e+003, 5.546052e+003
1.577737e+003, 5.599411e+003
1.579666e+003, 5.654617e+003
1.581594e+003, 5.712357e+003
1.583523e+003, 5.775827e+003
1.585451e+003, 5.840691e+003
1.587380e+003, 5.898196e+003
1.589308e+003, 5.957825e+003
1.591236e+003, 6.027549e+003
1.593165e+003, 6.095320e+003
1.595093e+003, 6.158336e+003
1.597022e+003, 6.223881e+003
1.598950e+003, 6.291001e+003
1.600879e+003, 6.349464e+003
1.602807e+003, 6.402943e+003
1.604736e+003, 6.455812e+003
1.606664e+003, 6.511759e+003
1.608593e+003, 6.580308e+003
1.610521e+003, 6.640197e+003
1.612450e+003, 6.679420e+003
1.614378e+003, 6.730992e+003
1.616307e+003, 6.795712e+003
1.618235e+003, 6.853648e+003
1.620163e+003, 6.902757e+003
1.622092e+003, 6.935060e+003
1.624020e+003, 6.964531e+003
1.625949e+003, 7.006630e+003
1.627877e+003, 7.042576e+003
1.629806e+003, 7.065728e+003
1.631734e+003, 7.078300e+003
1.633663e+003, 7.079651e+003
1.635591e+003, 7.090451e+003
1.637520e+003, 7.100780e+003
1.639448e+003, 7.083730e+003
1.641377e+003, 7.052107e+003
1.643305e+003, 7.013297e+003
1.645234e+003, 6.971500e+003
1.647162e+003, 6.928241e+003
1.649090e+003, 6.883546e+003
1.651019e+003, 6.837184e+003
1.652947e+003, 6.786982e+003
1.654876e+003, 6.726774e+003
1.656804e+003, 6.637781e+003
1.658733e+003, 6.539309e+003
1.660661e+003, 6.445774e+003
1.662590e+003, 6.344393e+003
1.664518e+003, 6.230308e+003
1.666447e+003, 6.129123e+003
1.668375e+003, 6.040045e+003
1.670304e+003, 5.927043e+003
1.672232e+003, 5.801728e+003
1.674161e+003, 5.681507e+003
1.676089e+003, 5.560854e+003
1.678017e+003, 5.437167e+003
1.679946e+003, 5.307535e+003
1.681874e+003, 5.170938e+003
1.683803e+003, 5.050233e+003
1.685731e+003, 4.939055e+003
1.687660e+003, 4.805438e+003
1.689588e+003, 4.667069e+003
1.691517e+003, 4.540333e+003
1.693445e+003, 4.423980e+003
1.695374e+003, 4.319399e+003
1.697302e+003, 4.217065e+003
1.699231e+003, 4.115466e+003
1.701159e+003, 4.006283e+003
1.703088e+003, 3.897742e+003
1.705016e+003, 3.806175e+003
1.706944e+003, 3.722085e+003
1.708873e+003, 3.639719e+003
1.710801e+003, 3.562210e+003
1.712730e+003, 3.490416e+003
1.714658e+003, 3.422398e+003
1.716587e+003, 3.356755e+003
1.718515e+003, 3.282974e+003
1.720444e+003, 3.214562e+003
1.722372e+003, 3.168310e+003
1.724301e+003, 3.125530e+003
1.726229e+003, 3.078938e+003
1.728158e+003, 3.034660e+003
1.730086e+003, 2.992567e+003
1.732015e+003, 2.950328e+003
1.733943e+003, 2.910231e+003
1.735871e+003, 2.878024e+003
1.737800e+003, 2.845094e+003
1.739728e+003, 2.806513e+003
1.741657e+003, 2.769229e+003
1.743585e+003, 2.734354e+003
1.745514e+003, 2.704735e+003
1.747442e+003, 2.677140e+003
1.749371e+003, 2.642596e+003
1.751299e+003, 2.609196e+003
1.753228e+003, 2.582695e+003
1.755156e+003, 2.553847e+003
1.757085e+003, 2.520434e+003
1.759013e+003, 2.488155e+003
1.760942e+003, 2.456383e+003
1.762870e+003, 2.423982e+003
1.764798e+003, 2.389271e+003
1.766727e+003, 2.349118e+003
1.768655e+003, 2.311661e+003
1.770584e+003, 2.278590e+003
1.772512e+003, 2.251226e+003
1.774441e+003, 2.224409e+003
1.776369e+003, 2.177345e+003
1.778298e+003, 2.129226e+003
1.780226e+003, 2.100667e+003
1.782155e+003, 2.069956e+003
1.784083e+003, 2.032728e+003
1.786012e+003, 1.995076e+003
1.787940e+003, 1.957574e+003
1.789869e+003, 1.922009e+003
1.791797e+003, 1.884887e+003
1.793725e+003, 1.839554e+003
1.795654e+003, 1.799748e+003
1.797582e+003, 1.768895e+003
1.799511e+003, 1.734338e+003
1.801439e+003, 1.696860e+003
1.803368e+003, 1.660393e+003
1.805296e+003, 1.624343e+003
1.807225e+003, 1.587685e+003
1.809153e+003, 1.552538e+003
1.811082e+003, 1.519035e+003
1.813010e+003, 1.490681e+003
1.814939e+003, 1.464369e+003
1.816867e+003, 1.429916e+003
1.818796e+003, 1.395374e+003
1.820724e+003, 1.364767e+003
1.822652e+003, 1.339630e+003
1.824581e+003, 1.321136e+003
1.826509e+003, 1.296024e+003
1.828438e+003, 1.267500e+003
1.830366e+003, 1.242141e+003
1.832295e+003, 1.217542e+003
1.834223e+003, 1.191141e+003
1.836152e+003, 1.172447e+003
1.838080e+003, 1.162104e+003
1.840009e+003, 1.139281e+003
1.841937e+003, 1.111619e+003
1.843866e+003, 1.089871e+003
1.845794e+003, 1.071112e+003
1.847723e+003, 1.054664e+003
1.849651e+003, 1.040939e+003
1.851579e+003, 1.028444e+003
1.853508e+003, 1.006090e+003
1.855436e+003, 9.844577e+002
1.857365e+003, 9.784183e+002
1.859293e+003, 9.670891e+002
1.861222e+003, 9.457862e+002
1.863150e+003, 9.318513e+002
1.865079e+003, 9.229393e+002
1.867007e+003, 9.115223e+002
1.868936e+003, 8.983499e+002
1.870864e+003, 8.823795e+002
1.872793e+003, 8.708483e+002
1.874721e+003, 8.637230e+002
1.876650e+003, 8.511379e+002
1.878578e+003, 8.364072e+002
1.880506e+003, 8.231492e+002
1.882435e+003, 8.125643e+002
1.884363e+003, 8.060972e+002
1.886292e+003, 7.942236e+002
1.888220e+003, 7.791307e+002
1.890149e+003, 7.716677e+002
1.892077e+003, 7.637022e+002
1.894006e+003, 7.440981e+002
1.895934e+003, 7.343738e+002
1.897863e+003, 7.371719e+002
1.899791e+003, 7.326213e+002
1.901720e+003, 7.238773e+002
1.903648e+003, 7.163925e+002
1.905577e+003, 7.072516e+002
1.907505e+003, 6.929810e+002
1.909433e+003, 6.846607e+002
1.911362e+003, 6.805439e+002
1.913290e+003, 6.718232e+002
1.915219e+003, 6.633405e+002
1.917147e+003, 6.587574e+002
1.919076e+003, 6.543549e+002
1.921004e+003, 6.494820e+002
1.922933e+003, 6.411884e+002
1.924861e+003, 6.328760e+002
1.926790e+003, 6.305501e+002
1.928718e+003, 6.258163e+002
1.930647e+003, 6.156385e+002
1.932575e+003, 6.072137e+002
1.934504e+003, 6.005720e+002
1.936432e+003, 5.951785e+002
1.938360e+003, 5.908488e+002
1.940289e+003, 5.878057e+002
1.942217e+003, 5.836136e+002
1.944146e+003, 5.780540e+002
1.946074e+003, 5.707126e+002
1.948003e+003, 5.646674e+002
1.949931e+003, 5.640190e+002
1.951860e+003, 5.625545e+002
1.953788e+003, 5.591339e+002
1.955717e+003, 5.507850e+002
1.957645e+003, 5.411437e+002
1.959574e+003, 5.346719e+002
1.961502e+003, 5.304901e+002
1.963431e+003, 5.283974e+002
1.965359e+003, 5.253353e+002
1.967287e+003, 5.217250e+002
1.969216e+003, 5.195045e+002
1.971144e+003, 5.158935e+002
1.973073e+003, 5.077837e+002
1.975001e+003, 5.078636e+002
1.976930e+003, 5.122817e+002
1.978858e+003, 5.039355e+002
1.980787e+003, 4.949330e+002
1.982715e+003, 4.958035e+002
1.984644e+003, 4.922237e+002
1.986572e+003, 4.841082e+002
1.988501e+003, 4.780547e+002
1.990429e+003, 4.745730e+002
1.992358e+003, 4.771867e+002
1.994286e+003, 4.734340e+002
1.996214e+003, 4.618875e+002
1.998143e+003, 4.561487e+002
2.000071e+003, 4.532538e+002
2.002000e+003, 4.510324e+002
2.003928e+003, 4.462961e+002
2.005857e+003, 4.377345e+002
2.007785e+003, 4.385254e+002
2.009714e+003, 4.424467e+002
2.011642e+003, 4.408582e+002
2.013571e+003, 4.385790e+002
2.015499e+003, 4.370306e+002
2.017428e+003, 4.300124e+002
2.019356e+003, 4.215822e+002
2.021285e+003, 4.197867e+002
2.023213e+003, 4.185295e+002
2.025141e+003, 4.161133e+002
2.027070e+003, 4.150265e+002
2.028998e+003, 4.140840e+002
2.030927e+003, 4.105323e+002
2.032855e+003, 4.061401e+002
2.034784e+003, 4.013729e+002
2.036712e+003, 3.990154e+002
2.038641e+003, 3.974874e+002
2.040569e+003, 3.924740e+002
2.042498e+003, 3.884837e+002
2.044426e+003, 3.871362e+002
2.046355e+003, 3.848036e+002
2.048283e+003, 3.825332e+002
2.050212e+003, 3.843989e+002
2.052140e+003, 3.841078e+002
2.054068e+003, 3.788309e+002
2.055997e+003, 3.756098e+002
2.057925e+003, 3.741205e+002
2.059854e+003, 3.746292e+002
2.061782e+003, 3.716389e+002
2.063711e+003, 3.614164e+002
2.065639e+003, 3.574916e+002
2.067568e+003, 3.581414e+002
2.069496e+003, 3.606582e+002
2.071425e+003, 3.617167e+002
2.073353e+003, 3.600758e+002
2.075281e+003, 3.542841e+002
2.077210e+003, 3.482205e+002
2.079138e+003, 3.502074e+002
2.081067e+003, 3.505738e+002
2.082995e+003, 3.456483e+002
2.084924e+003, 3.397247e+002
2.086852e+003, 3.351164e+002
2.088781e+003, 3.360820e+002
2.090709e+003, 3.368281e+002
2.092638e+003, 3.356720e+002
2.094566e+003, 3.345728e+002
2.096495e+003, 3.328734e+002
2.098423e+003, 3.288017e+002
2.100352e+003, 3.282290e+002
2.102280e+003, 3.318456e+002
2.104208e+003, 3.262777e+002
2.106137e+003, 3.182562e+002
2.108065e+003, 3.136479e+002
2.109994e+003, 3.121574e+002
2.111922e+003, 3.127598e+002
2.113851e+003, 3.062543e+002
2.115779e+003, 3.033042e+002
2.117708e+003, 3.139109e+002
2.119636e+003, 3.165855e+002
2.121565e+003, 3.117894e+002
2.123493e+003, 3.105640e+002
2.125422e+003, 3.094963e+002
2.127350e+003, 3.069002e+002
2.129279e+003, 3.024047e+002
2.131207e+003, 2.985235e+002
2.133135e+003, 3.027476e+002
2.135064e+003, 3.042823e+002
2.136992e+003, 2.992368e+002
2.138921e+003, 2.989349e+002
2.140849e+003, 3.002198e+002
2.142778e+003, 2.972864e+002
2.144706e+003, 2.955561e+002
2.146635e+003, 2.959904e+002
2.148563e+003, 2.985858e+002
2.150492e+003, 2.997148e+002
2.152420e+003, 2.953302e+002
2.154349e+003, 2.893503e+002
2.156277e+003, 2.834495e+002
2.158206e+003, 2.868715e+002
2.160134e+003, 2.903359e+002
2.162063e+003, 2.880824e+002
2.163991e+003, 2.879474e+002
2.165919e+003, 2.886565e+002
2.167848e+003, 2.856264e+002
2.169776e+003, 2.831400e+002
2.171705e+003, 2.827185e+002
2.173633e+003, 2.800479e+002
2.175562e+003, 2.794088e+002
2.177490e+003, 2.880479e+002
2.179419e+003, 2.905029e+002
2.181347e+003, 2.850744e+002
2.183276e+003, 2.807146e+002
2.185204e+003, 2.793655e+002
2.187133e+003, 2.826118e+002
2.189061e+003, 2.823840e+002
2.190990e+003, 2.794940e+002
2.192918e+003, 2.772565e+002
2.194846e+003, 2.753002e+002
2.196775e+003, 2.736195e+002
2.198703e+003, 2.783209e+002
2.200632e+003, 2.825786e+002
2.202560e+003, 2.755905e+002
2.204489e+003, 2.711409e+002
2.206417e+003, 2.711017e+002
2.208346e+003, 2.794214e+002
2.210274e+003, 2.819844e+002
2.212203e+003, 2.680947e+002
2.214131e+003, 2.675951e+002
2.216060e+003, 2.737049e+002
2.217988e+003, 2.710423e+002
2.219917e+003, 2.699977e+002
2.221845e+003, 2.724676e+002
2.223773e+003, 2.725300e+002
2.225702e+003, 2.711552e+002
2.227630e+003, 2.683142e+002
2.229559e+003, 2.668803e+002
2.231487e+003, 2.667142e+002
2.233416e+003, 2.663199e+002
2.235344e+003, 2.687638e+002
2.237273e+003, 2.761059e+002
2.239201e+003, 2.726561e+002
2.241130e+003, 2.675287e+002
2.243058e+003, 2.700040e+002
2.244987e+003, 2.700393e+002
2.246915e+003, 2.675985e+002
2.248844e+003, 2.670103e+002
2.250772e+003, 2.680249e+002
2.252700e+003, 2.707370e+002
2.254629e+003, 2.708537e+002
2.256557e+003, 2.686881e+002
2.258486e+003, 2.633442e+002
2.260414e+003, 2.638793e+002
2.262343e+003, 2.692936e+002
2.264271e+003, 2.710324e+002
2.266200e+003, 2.683511e+002
2.268128e+003, 2.611690e+002
2.270057e+003, 2.626804e+002
2.271985e+003, 2.665536e+002
2.273914e+003, 2.637389e+002
2.275842e+003, 2.641161e+002
2.277771e+003, 2.665760e+002
2.279699e+003, 2.613926e+002
2.281627e+003, 2.580491e+002
2.283556e+003, 2.597988e+002
2.285484e+003, 2.655387e+002
2.287413e+003, 2.700579e+002
2.289341e+003, 2.660271e+002
2.291270e+003, 2.652189e+002
2.293198e+003, 2.660636e+002
2.295127e+003, 2.603658e+002
2.297055e+003, 2.553413e+002
2.298984e+003, 2.532445e+002
2.300912e+003, 2.572534e+002
2.302841e+003, 2.597463e+002
2.304769e+003, 2.509433e+002
2.306698e+003, 2.487541e+002
2.308626e+003, 2.534986e+002
2.310554e+003, 2.636112e+002
2.312483e+003, 2.804391e+002
2.314411e+003, 3.026169e+002
2.316340e+003, 3.153246e+002
2.318268e+003, 3.060103e+002
2.320197e+003, 2.619313e+002
2.322125e+003, 2.462369e+002
2.324054e+003, 2.485035e+002
2.325982e+003, 2.538222e+002
2.327911e+003, 2.562486e+002
2.329839e+003, 2.553177e+002
2.331768e+003, 2.522773e+002
2.333696e+003, 2.480260e+002
2.335625e+003, 2.433683e+002
2.337553e+003, 2.499726e+002
2.339481e+003, 2.554570e+002
2.341410e+003, 2.497808e+002
2.343338e+003, 2.479565e+002
2.345267e+003, 2.482290e+002
2.347195e+003, 2.433529e+002
2.349124e+003, 2.434930e+002
2.351052e+003, 2.479436e+002
2.352981e+003, 2.437416e+002
2.354909e+003, 2.435309e+002
2.356838e+003, 2.517182e+002
2.358766e+003, 2.516386e+002
2.360695e+003, 2.478414e+002
2.362623e+003, 2.436031e+002
2.364552e+003, 2.407567e+002
2.366480e+003, 2.401157e+002
2.368408e+003, 2.428289e+002
2.370337e+003, 2.484167e+002
2.372265e+003, 2.548448e+002
2.374194e+003, 2.532146e+002
2.376122e+003, 2.487390e+002
2.378051e+003, 2.428737e+002
2.379979e+003, 2.450634e+002
2.381908e+003, 2.475704e+002
2.383836e+003, 2.424673e+002
2.385765e+003, 2.491576e+002
2.387693e+003, 2.570014e+002
2.389622e+003, 2.474433e+002
2.391550e+003, 2.470389e+002
2.393479e+003, 2.540269e+002
2.395407e+003, 2.466413e+002
2.397335e+003, 2.448314e+002
2.399264e+003, 2.530437e+002
2.401192e+003, 2.558539e+002
2.403121e+003, 2.530388e+002
2.405049e+003, 2.446417e+002
2.406978e+003, 2.469377e+002
2.408906e+003, 2.509693e+002
2.410835e+003, 2.479697e+002
2.412763e+003, 2.446708e+002
2.414692e+003, 2.428826e+002
2.416620e+003, 2.472976e+002
2.418549e+003, 2.434732e+002
2.420477e+003, 2.348962e+002
2.422406e+003, 2.428123e+002
2.424334e+003, 2.440284e+002
2.426262e+003, 2.355560e+002
2.428191e+003, 2.406691e+002
2.430119e+003, 2.449303e+002
2.432048e+003, 2.414775e+002
2.433976e+003, 2.366071e+002
2.435905e+003, 2.336578e+002
2.437833e+003, 2.366934e+002
2.439762e+003, 2.360979e+002
2.441690e+003, 2.346939e+002
2.443619e+003, 2.381382e+002
2.445547e+003, 2.363423e+002
2.447476e+003, 2.316912e+002
2.449404e+003, 2.312357e+002
2.451333e+003, 2.314424e+002
2.453261e+003, 2.319449e+002
2.455189e+003, 2.367165e+002
2.457118e+003, 2.357783e+002
2.459046e+003, 2.265858e+002
2.460975e+003, 2.158668e+002
2.462903e+003, 2.143593e+002
2.464832e+003, 2.281655e+002
2.466760e+003, 2.352468e+002
2.468689e+003, 2.323504e+002
2.470617e+003, 2.172942e+002
2.472546e+003, 2.138225e+002
2.474474e+003, 2.147822e+002
2.476403e+003, 2.117312e+002
2.478331e+003, 2.106737e+002
2.480260e+003, 2.118975e+002
2.482188e+003, 2.157485e+002
2.484116e+003, 2.196447e+002
2.486045e+003, 2.215365e+002
2.487973e+003, 2.156991e+002
2.489902e+003, 2.122981e+002
2.491830e+003, 2.125672e+002
2.493759e+003, 2.140589e+002
2.495687e+003, 2.177559e+002
2.497616e+003, 2.224670e+002
2.499544e+003, 2.221505e+002
2.501473e+003, 2.194669e+002
2.503401e+003, 2.155414e+002
2.505330e+003, 2.091800e+002
2.507258e+003, 2.060798e+002
2.509187e+003, 2.088486e+002
2.511115e+003, 2.119304e+002
2.513043e+003, 2.100075e+002
2.514972e+003, 1.967909e+002
2.516900e+003, 1.984360e+002
2.518829e+003, 2.037288e+002
2.520757e+003, 2.041999e+002
2.522686e+003, 1.971640e+002
2.524614e+003, 1.917579e+002
2.526543e+003, 1.974142e+002
2.528471e+003, 2.017687e+002
2.530400e+003, 2.038977e+002
2.532328e+003, 2.040448e+002
2.534257e+003, 2.016969e+002
2.536185e+003, 1.988488e+002
2.538114e+003, 1.981454e+002
2.540042e+003, 1.993531e+002
2.541970e+003, 2.001342e+002
2.543899e+003, 1.957098e+002
2.545827e+003, 1.924030e+002
2.547756e+003, 1.914017e+002
2.549684e+003, 1.936112e+002
2.551613e+003, 1.984559e+002
2.553541e+003, 2.041303e+002
2.555470e+003, 2.023819e+002
2.557398e+003, 2.136901e+002
2.559327e+003, 2.352446e+002
2.561255e+003, 2.510539e+002
2.563184e+003, 2.538255e+002
2.565112e+003, 2.475050e+002
2.567041e+003, 2.509472e+002
2.568969e+003, 2.474801e+002
2.570897e+003, 2.347501e+002
2.572826e+003, 2.138872e+002
2.574754e+003, 2.009999e+002
2.576683e+003, 1.973160e+002
2.578611e+003, 1.934820e+002
2.580540e+003, 1.931387e+002
2.582468e+003, 1.951713e+002
2.584397e+003, 1.877638e+002
2.586325e+003, 1.823936e+002
2.588254e+003, 1.821101e+002
2.590182e+003, 1.895045e+002
2.592111e+003, 1.905269e+002
2.594039e+003, 1.831524e+002
2.595968e+003, 1.788089e+002
2.597896e+003, 1.754888e+002
2.599824e+003, 1.730584e+002
2.601753e+003, 1.757556e+002
2.603681e+003, 1.740830e+002
2.605610e+003, 1.676590e+002
2.607538e+003, 1.700597e+002
2.609467e+003, 1.731434e+002
2.611395e+003, 1.736503e+002
2.613324e+003, 1.640744e+002
2.615252e+003, 1.625681e+002
2.617181e+003, 1.703407e+002
2.619109e+003, 1.721353e+002
2.621038e+003, 1.705857e+002
2.622966e+003, 1.688758e+002
2.624895e+003, 1.772363e+002
2.626823e+003, 1.813774e+002
2.628751e+003, 1.804533e+002
2.630680e+003, 1.844413e+002
2.632608e+003, 1.779555e+002
2.634537e+003, 1.656956e+002
2.636465e+003, 1.691056e+002
2.638394e+003, 1.682407e+002
2.640322e+003, 1.644575e+002
2.642251e+003, 1.701815e+002
2.644179e+003, 1.731294e+002
2.646108e+003, 1.733617e+002
2.648036e+003, 1.737198e+002
2.649965e+003, 1.797894e+002
2.651893e+003, 1.851564e+002
2.653822e+003, 1.773576e+002
2.655750e+003, 1.728098e+002
2.657678e+003, 1.720811e+002
2.659607e+003, 1.735445e+002
2.661535e+003, 1.785612e+002
2.663464e+003, 1.759306e+002
2.665392e+003, 1.522116e+002
2.667321e+003, 1.542642e+002
2.669249e+003, 1.640551e+002
2.671178e+003, 1.635036e+002
2.673106e+003, 1.685367e+002
2.675035e+003, 1.684275e+002
2.676963e+003, 1.566401e+002
2.678892e+003, 1.636316e+002
2.680820e+003, 1.698652e+002
2.682749e+003, 1.659795e+002
2.684677e+003, 1.711915e+002
2.686605e+003, 1.754347e+002
2.688534e+003, 1.732726e+002
2.690462e+003, 1.519322e+002
2.692391e+003, 1.463615e+002
2.694319e+003, 1.608496e+002
2.696248e+003, 1.728908e+002
2.698176e+003, 1.684182e+002
2.700105e+003, 1.552812e+002
2.702033e+003, 1.662439e+002
2.703962e+003, 1.687502e+002
2.705890e+003, 1.642636e+002
2.707819e+003, 1.692666e+002
2.709747e+003, 1.631778e+002
2.711676e+003, 1.555935e+002
2.713604e+003, 1.653543e+002
2.715532e+003, 1.662883e+002
2.717461e+003, 1.582924e+002
2.719389e+003, 1.408055e+002
2.721318e+003, 1.368660e+002
2.723246e+003, 1.442059e+002
2.725175e+003, 1.612648e+002
2.727103e+003, 1.548913e+002
2.729032e+003, 1.505952e+002
2.730960e+003, 1.587955e+002
2.732889e+003, 1.611945e+002
2.734817e+003, 1.575221e+002
2.736746e+003, 1.509155e+002
2.738674e+003, 1.558844e+002
2.740603e+003, 1.568196e+002
2.742531e+003, 1.547148e+002
2.744459e+003, 1.592696e+002
2.746388e+003, 1.624343e+002
2.748316e+003, 1.620141e+002
2.750245e+003, 1.554867e+002
2.752173e+003, 1.536387e+002
2.754102e+003, 1.539521e+002
2.756030e+003, 1.540134e+002
2.757959e+003, 1.478366e+002
2.759887e+003, 1.486660e+002
2.761816e+003, 1.595115e+002
2.763744e+003, 1.531423e+002
2.765673e+003, 1.457621e+002
2.767601e+003, 1.422705e+002
2.769530e+003, 1.428918e+002
2.771458e+003, 1.399575e+002
2.773386e+003, 1.391862e+002
2.775315e+003, 1.571370e+002
2.777243e+003, 1.574031e+002
2.779172e+003, 1.515325e+002
2.781100e+003, 1.555686e+002
2.783029e+003, 1.463510e+002
2.784957e+003, 1.431359e+002
2.786886e+003, 1.574463e+002
2.788814e+003, 1.588923e+002
2.790743e+003, 1.548947e+002
2.792671e+003, 1.495043e+002
2.794600e+003, 1.486056e+002
2.796528e+003, 1.512199e+002
2.798457e+003, 1.525602e+002
2.800385e+003, 1.433398e+002
2.802313e+003, 1.402720e+002
2.804242e+003, 1.437866e+002
2.806170e+003, 1.525401e+002
2.808099e+003, 1.501443e+002
2.810027e+003, 1.464259e+002
2.811956e+003, 1.467835e+002
2.813884e+003, 1.540313e+002
2.815813e+003, 1.613638e+002
2.817741e+003, 1.615828e+002
2.819670e+003, 1.355403e+002
2.821598e+003, 1.316486e+002
2.823527e+003, 1.415666e+002
2.825455e+003, 1.481980e+002
2.827384e+003, 1.544872e+002
2.829312e+003, 1.436546e+002
2.831240e+003, 1.077195e+002
2.833169e+003, 1.537758e+002
2.835097e+003, 1.749521e+002
2.837026e+003, 1.567493e+002
2.838954e+003, 1.576113e+002
2.840883e+003, 1.478951e+002
2.842811e+003, 1.343325e+002
2.844740e+003, 1.302265e+002
2.846668e+003, 1.317880e+002
2.848597e+003, 1.397709e+002
2.850525e+003, 1.542613e+002
2.852454e+003, 1.657845e+002
2.854382e+003, 1.620202e+002
2.856311e+003, 1.485955e+002
2.858239e+003, 1.524254e+002
2.860167e+003, 1.630482e+002
2.862096e+003, 1.640394e+002
2.864024e+003, 1.397441e+002
2.865953e+003, 1.513322e+002
2.867881e+003, 1.629193e+002
2.869810e+003, 1.574439e+002
2.871738e+003, 1.433430e+002
2.873667e+003, 1.448392e+002
2.875595e+003, 1.571958e+002
2.877524e+003, 1.613244e+002
2.879452e+003, 1.544306e+002
2.881381e+003, 1.485194e+002
2.883309e+003, 1.532764e+002
2.885238e+003, 1.681273e+002
2.887166e+003, 1.772959e+002
2.889094e+003, 1.735387e+002
2.891023e+003, 1.407796e+002
2.892951e+003, 1.405616e+002
2.894880e+003, 1.565514e+002
2.896808e+003, 1.591497e+002
2.898737e+003, 1.701138e+002
2.900665e+003, 1.635574e+002
2.902594e+003, 1.350030e+002
2.904522e+003, 1.516113e+002
2.906451e+003, 1.427221e+002
2.908379e+003, 1.244999e+002
2.910308e+003, 1.418912e+002
2.912236e+003, 1.482920e+002
2.914165e+003, 1.420730e+002
2.916093e+003, 1.289817e+002
2.918021e+003, 1.402543e+002
2.919950e+003, 1.540528e+002
2.921878e+003, 1.638763e+002
2.923807e+003, 1.703771e+002
2.925735e+003, 1.534277e+002
2.927664e+003, 1.391799e+002
2.929592e+003, 1.423817e+002
2.931521e+003, 1.418247e+002
2.933449e+003, 1.379562e+002
2.935378e+003, 1.349115e+002
2.937306e+003, 1.436040e+002
2.939235e+003, 1.340336e+002
2.941163e+003, 1.303697e+002
2.943092e+003, 1.485480e+002
2.945020e+003, 1.456081e+002
2.946948e+003, 1.456487e+002
2.948877e+003, 1.492764e+002
2.950805e+003, 1.461608e+002
2.952734e+003, 1.267694e+002
2.954662e+003, 1.278915e+002
2.956591e+003, 1.703133e+002
2.958519e+003, 1.625567e+002
2.960448e+003, 1.474868e+002
2.962376e+003, 1.420699e+002
2.964305e+003, 1.578110e+002
2.966233e+003, 1.636872e+002
2.968162e+003, 1.673648e+002
2.970090e+003, 1.712374e+002
2.972019e+003, 1.421240e+002
2.973947e+003, 1.363697e+002
2.975875e+003, 1.479457e+002
2.977804e+003, 1.548775e+002
2.979732e+003, 1.658545e+002
2.981661e+003, 1.683843e+002
2.983589e+003, 1.607519e+002
2.985518e+003, 1.546630e+002
2.987446e+003, 1.585907e+002
2.989375e+003, 1.645046e+002
2.991303e+003, 1.639183e+002
2.993232e+003, 1.581748e+002
2.995160e+003, 1.544373e+002
2.997089e+003, 1.586427e+002
2.999017e+003, 1.859703e+002
3.000946e+003, 1.759378e+002
3.002874e+003, 1.706253e+002
3.004802e+003, 1.938780e+002
3.006731e+003, 1.651933e+002
3.008659e+003, 1.600217e+002
3.010588e+003, 1.660696e+002
3.012516e+003, 1.471558e+002
3.014445e+003, 1.462643e+002
3.016373e+003, 1.590235e+002
3.018302e+003, 1.749381e+002
3.020230e+003, 1.707318e+002
3.022159e+003, 1.640321e+002
3.024087e+003, 1.627666e+002
3.026016e+003, 1.692657e+002
3.027944e+003, 1.691154e+002
3.029873e+003, 1.788099e+002
3.031801e+003, 1.917577e+002
3.033729e+003, 1.942328e+002
3.035658e+003, 1.743583e+002
3.037586e+003, 1.716524e+002
3.039515e+003, 1.910999e+002
3.041443e+003, 2.064258e+002
3.043372e+003, 2.015385e+002
3.045300e+003, 1.861714e+002
3.047229e+003, 1.708011e+002
3.049157e+003, 1.754829e+002
3.051086e+003, 1.666751e+002
3.053014e+003, 1.598670e+002
3.054943e+003, 1.813848e+002
3.056871e+003, 2.009994e+002
3.058800e+003, 2.118853e+002
3.060728e+003, 2.106224e+002
3.062656e+003, 1.868311e+002
3.064585e+003, 2.131809e+002
3.066513e+003, 2.319928e+002
3.068442e+003, 2.234498e+002
3.070370e+003, 2.340991e+002
3.072299e+003, 2.368441e+002
3.074227e+003, 2.420078e+002
3.076156e+003, 2.574964e+002
3.078084e+003, 2.501062e+002
3.080013e+003, 2.715476e+002
3.081941e+003, 3.048315e+002
3.083870e+003, 3.205579e+002
3.085798e+003, 2.930782e+002
3.087727e+003, 3.046373e+002
3.089655e+003, 3.278093e+002
3.091583e+003, 2.784454e+002
3.093512e+003, 2.977408e+002
3.095440e+003, 3.048156e+002
3.097369e+003, 2.911309e+002
3.099297e+003, 3.334755e+002
3.101226e+003, 3.302947e+002
3.103154e+003, 3.315337e+002
3.105083e+003, 3.554568e+002
3.107011e+003, 3.631362e+002
3.108940e+003, 3.497235e+002
3.110868e+003, 3.531309e+002
3.112797e+003, 3.950448e+002
3.114725e+003, 4.455431e+002
3.116654e+003, 4.473399e+002
3.118582e+003, 4.285899e+002
3.120510e+003, 4.214633e+002
3.122439e+003, 3.902582e+002
3.124367e+003, 4.452367e+002
3.126296e+003, 5.165767e+002
3.128224e+003, 5.145350e+002
3.130153e+003, 5.018240e+002
3.132081e+003, 5.156737e+002
3.134010e+003, 5.490295e+002
3.135938e+003, 5.815552e+002
3.137867e+003, 6.270642e+002
3.139795e+003, 6.534467e+002
3.141724e+003, 6.707366e+002
3.143652e+003, 7.087483e+002
3.145581e+003, 7.599538e+002
3.147509e+003, 7.968836e+002
3.149438e+003, 8.214494e+002
3.151366e+003, 8.520739e+002
3.153294e+003, 8.985051e+002
3.155223e+003, 9.348469e+002
3.157151e+003, 9.631845e+002
3.159080e+003, 1.003226e+003
3.161008e+003, 1.062074e+003
3.162937e+003, 1.121611e+003
3.164865e+003, 1.172508e+003
3.166794e+003, 1.205831e+003
3.168722e+003, 1.273294e+003
3.170651e+003, 1.326457e+003
3.172579e+003, 1.357299e+003
3.174508e+003, 1.392748e+003
3.176436e+003, 1.444122e+003
3.178365e+003, 1.475171e+003
3.180293e+003, 1.497027e+003
3.182221e+003, 1.562631e+003
3.184150e+003, 1.585429e+003
3.186078e+003, 1.616400e+003
3.188007e+003, 1.657389e+003
3.189935e+003, 1.667227e+003
3.191864e+003, 1.654087e+003
3.193792e+003, 1.693030e+003
3.195721e+003, 1.756742e+003
3.197649e+003, 1.750556e+003
3.199578e+003, 1.743708e+003
3.201506e+003, 1.780912e+003
3.203435e+003, 1.839441e+003
3.205363e+003, 1.860299e+003
3.207292e+003, 1.986974e+003
3.209220e+003, 2.047819e+003
3.211148e+003, 2.087256e+003
3.213077e+003, 2.238054e+003
3.215005e+003, 2.412053e+003
3.216934e+003, 2.437285e+003
3.218862e+003, 2.454173e+003
3.220791e+003, 2.664536e+003
3.222719e+003, 2.846381e+003
3.224648e+003, 2.973659e+003
3.226576e+003, 3.139079e+003
3.228505e+003, 3.409711e+003
3.230433e+003, 3.539935e+003
3.232362e+003, 3.657840e+003
3.234290e+003, 3.782793e+003
3.236219e+003, 3.906547e+003
3.238147e+003, 4.002253e+003
3.240075e+003, 4.092845e+003
3.242004e+003, 4.134008e+003
3.243932e+003, 4.102760e+003
3.245861e+003, 3.992597e+003
3.247789e+003, 3.968579e+003
3.249718e+003, 3.903000e+003
3.251646e+003, 3.802699e+003
3.253575e+003, 3.812218e+003
3.255503e+003, 3.724677e+003
3.257432e+003, 3.633126e+003
3.259360e+003, 3.562572e+003
3.261289e+003, 3.499981e+003
3.263217e+003, 3.463445e+003
3.265146e+003, 3.504099e+003
3.267074e+003, 3.547002e+003
3.269002e+003, 3.522238e+003
3.270931e+003, 3.582479e+003
3.272859e+003, 3.641747e+003
3.274788e+003, 3.634922e+003
3.276716e+003, 3.604409e+003
3.278645e+003, 3.828355e+003
3.280573e+003, 3.891224e+003
3.282502e+003, 3.959409e+003
3.284430e+003, 4.085216e+003
3.286359e+003, 4.182861e+003
3.288287e+003, 4.338213e+003
3.290216e+003, 4.589438e+003
3.292144e+003, 4.844184e+003
3.294073e+003, 5.001961e+003
3.296001e+003, 5.128695e+003
3.297929e+003, 5.395211e+003
3.299858e+003, 5.656877e+003
3.301786e+003, 5.843012e+003
3.303715e+003, 6.145751e+003
3.305643e+003, 6.367932e+003
3.307572e+003, 6.560419e+003
3.309500e+003, 6.751073e+003
3.311429e+003, 6.941790e+003
3.313357e+003, 7.107551e+003
3.315286e+003, 7.069345e+003
3.317214e+003, 6.978112e+003
3.319143e+003, 6.995149e+003
3.321071e+003, 6.854038e+003
3.323000e+003, 6.734510e+003
3.324928e+003, 6.677192e+003
3.326856e+003, 6.590613e+003
3.328785e+003, 6.243182e+003
3.330713e+003, 6.115302e+003
3.332642e+003, 6.044468e+003
3.334570e+003, 5.915720e+003
3.336499e+003, 5.723806e+003
3.338427e+003, 5.847142e+003
3.340356e+003, 5.853624e+003
3.342284e+003, 5.937893e+003
3.344213e+003, 6.137847e+003
3.346141e+003, 6.120507e+003
3.348070e+003, 6.242435e+003
3.349998e+003, 6.350023e+003
3.351927e+003, 6.525649e+003
3.353855e+003, 6.885410e+003
3.355783e+003, 6.918903e+003
3.357712e+003, 7.266490e+003
3.359640e+003, 7.583923e+003
3.361569e+003, 7.744626e+003
3.363497e+003, 8.144284e+003
3.365426e+003, 8.399314e+003
3.367354e+003, 8.726378e+003
3.369283e+003, 9.022955e+003
3.371211e+003, 9.149972e+003
3.373140e+003, 9.343837e+003
3.375068e+003, 9.423921e+003
3.376997e+003, 9.382516e+003
3.378925e+003, 9.298455e+003
3.380854e+003, 9.282980e+003
3.382782e+003, 9.132269e+003
3.384710e+003, 9.119290e+003
3.386639e+003, 9.077262e+003
3.388567e+003, 8.865744e+003
3.390496e+003, 8.601729e+003
3.392424e+003, 8.285889e+003
3.394353e+003, 8.087502e+003
3.396281e+003, 7.983544e+003
3.398210e+003, 7.855004e+003
3.400138e+003, 7.523382e+003
3.402067e+003, 7.331712e+003
3.403995e+003, 7.160717e+003
3.405924e+003, 6.951826e+003
3.407852e+003, 6.753283e+003
3.409781e+003, 6.646906e+003
3.411709e+003, 6.475569e+003
3.413637e+003, 6.396538e+003
3.415566e+003, 6.397201e+003
3.417494e+003, 6.042296e+003
3.419423e+003, 5.794124e+003
3.421351e+003, 5.579980e+003
3.423280e+003, 5.476026e+003
3.425208e+003, 5.486212e+003
3.427137e+003, 5.184993e+003
3.429065e+003, 5.030969e+003
3.430994e+003, 4.901494e+003
3.432922e+003, 4.774193e+003
3.434851e+003, 4.682577e+003
3.436779e+003, 4.496722e+003
3.438708e+003, 4.345976e+003
3.440636e+003, 4.244728e+003
3.442564e+003, 4.160807e+003
3.444493e+003, 4.054052e+003
3.446421e+003, 3.930780e+003
3.448350e+003, 3.902341e+003
3.450278e+003, 3.851979e+003
3.452207e+003, 3.805807e+003
3.454135e+003, 3.934609e+003
3.456064e+003, 3.773417e+003
##END=



