##NAMES=Liottite
##RRUFFID=R120045
##IDEAL CHEMISTRY=Na_16_Ca_8_Si_18_Al_18_O_72_(SO_4_)_5_Cl_4_
##LOCALITY=Case Collina (Toscopomici quarry), Pitigliano, Grosseto Province, Tuscany, Italy
##OWNER=RRUFF
##SOURCE=R. Van Dommelen
##DESCRIPTION=Pseudhexagonal colorless crystals, associated with grossular
##STATUS=The identification of this mineral has been confirmed only by single crystal X-ray diffraction
##URL=https://www.rruff.net/odr/rruff_sample/R120045
##DIFFRACTION SAMPLE DESCRIPTION=Single crystal, powder profile is calculated
##CELL PARAMETERS=a: 12.868 b: 12.868 c: 16.107 alpha: 90 beta: 90 gamma: 120 volume: 2309.8 crystal system: hexagonal
##FILETYPE=Raman Processed
##RAMAN WAVELENGTH=532

213.8081, 1701.961
215.7366, 1710.671
217.6651, 1711.141
219.5935, 1711.283
221.5220, 1711.886
223.4505, 1713.018
225.3789, 1717.032
227.3074, 1725.661
229.2359, 1735.974
231.1643, 1745.556
233.0928, 1754.838
235.0213, 1762.206
236.9497, 1766.352
238.8782, 1767.398
240.8067, 1768.672
242.7351, 1771.972
244.6636, 1775.135
246.5921, 1776.009
248.5205, 1773.951
250.4490, 1770.968
252.3775, 1767.163
254.3059, 1762.880
256.2344, 1759.337
258.1629, 1756.094
260.0913, 1754.215
262.0198, 1755.415
263.9483, 1760.715
265.8767, 1767.191
267.8052, 1773.874
269.7337, 1780.471
271.6621, 1787.773
273.5906, 1796.578
275.5191, 1804.956
277.4475, 1810.037
279.3760, 1809.574
281.3045, 1809.397
283.2329, 1811.948
285.1614, 1818.250
287.0899, 1822.244
289.0183, 1823.370
290.9468, 1823.562
292.8753, 1824.944
294.8037, 1828.289
296.7322, 1832.338
298.6607, 1836.409
300.5891, 1840.342
302.5176, 1845.758
304.4461, 1854.521
306.3745, 1862.941
308.3030, 1867.878
310.2315, 1866.559
312.1599, 1866.058
314.0884, 1867.858
316.0169, 1872.310
317.9453, 1878.546
319.8738, 1888.773
321.8023, 1899.947
323.7307, 1909.954
325.6592, 1918.018
327.5877, 1926.309
329.5161, 1935.752
331.4446, 1945.587
333.3731, 1953.067
335.3015, 1956.207
337.2300, 1957.782
339.1585, 1959.475
341.0869, 1962.328
343.0154, 1963.601
344.9439, 1962.500
346.8723, 1960.049
348.8008, 1958.411
350.7293, 1958.107
352.6578, 1958.828
354.5862, 1960.416
356.5147, 1963.043
358.4432, 1966.511
360.3716, 1971.549
362.3001, 1977.007
364.2286, 1981.256
366.1570, 1982.169
368.0855, 1984.107
370.0140, 1988.473
371.9424, 1995.860
373.8709, 2003.914
375.7994, 2012.828
377.7278, 2022.528
379.6563, 2032.863
381.5848, 2044.653
383.5132, 2055.980
385.4417, 2065.326
387.3702, 2073.142
389.2986, 2083.613
391.2271, 2099.083
393.1556, 2115.407
395.0840, 2130.393
397.0125, 2145.808
398.9410, 2156.839
400.8694, 2158.654
402.7979, 2156.234
404.7264, 2160.778
406.6548, 2176.327
408.5833, 2194.167
410.5118, 2210.171
412.4402, 2222.361
414.3687, 2237.970
416.2972, 2256.897
418.2256, 2279.509
420.1541, 2305.848
422.0826, 2337.981
424.0110, 2370.819
425.9395, 2403.101
427.8680, 2435.032
429.7964, 2467.904
431.7249, 2500.236
433.6534, 2534.552
435.5818, 2572.007
437.5103, 2612.767
439.4388, 2654.486
441.3672, 2694.193
443.2957, 2733.991
445.2242, 2780.333
447.1526, 2841.446
449.0811, 2896.353
451.0096, 2939.653
452.9380, 2972.617
454.8665, 2988.965
456.7950, 2989.098
458.7234, 2975.033
460.6519, 2945.337
462.5804, 2899.485
464.5089, 2846.056
466.4373, 2781.079
468.3658, 2708.791
470.2943, 2644.383
472.2227, 2590.335
474.1512, 2541.157
476.0797, 2494.870
478.0081, 2451.373
479.9366, 2414.274
481.8651, 2387.846
483.7935, 2367.276
485.7220, 2348.946
487.6505, 2332.210
489.5789, 2319.190
491.5074, 2311.270
493.4359, 2307.403
495.3643, 2304.465
497.2928, 2302.365
499.2213, 2300.194
501.1497, 2297.078
503.0782, 2291.950
505.0067, 2288.816
506.9351, 2290.478
508.8636, 2293.012
510.7921, 2292.833
512.7205, 2288.988
514.6490, 2286.001
516.5775, 2284.419
518.5059, 2284.454
520.4344, 2286.883
522.3629, 2293.800
524.2913, 2300.099
526.2198, 2302.726
528.1483, 2301.660
530.0767, 2302.430
532.0052, 2307.996
533.9337, 2314.562
535.8621, 2318.787
537.7906, 2319.281
539.7191, 2321.416
541.6475, 2327.177
543.5760, 2334.911
545.5045, 2341.801
547.4329, 2346.373
549.3614, 2350.704
551.2899, 2355.852
553.2183, 2361.600
555.1468, 2364.542
557.0753, 2363.402
559.0037, 2360.966
560.9322, 2359.011
562.8607, 2357.948
564.7891, 2357.454
566.7176, 2356.915
568.6461, 2357.374
570.5745, 2360.408
572.5030, 2366.438
574.4315, 2373.303
576.3599, 2380.700
578.2884, 2388.351
580.2169, 2395.245
582.1453, 2397.660
584.0738, 2402.507
586.0023, 2413.256
587.9307, 2429.594
589.8592, 2445.144
591.7877, 2459.031
593.7161, 2471.704
595.6447, 2483.504
597.5731, 2493.938
599.5016, 2504.689
601.4301, 2512.614
603.3585, 2522.593
605.2870, 2542.349
607.2155, 2576.030
609.1439, 2608.947
611.0724, 2638.343
613.0009, 2663.876
614.9293, 2682.280
616.8578, 2690.729
618.7863, 2694.495
620.7147, 2695.115
622.6432, 2692.274
624.5717, 2683.511
626.5001, 2662.916
628.4286, 2641.867
630.3571, 2626.899
632.2855, 2620.413
634.2140, 2616.917
636.1425, 2618.901
638.0709, 2622.733
639.9994, 2624.439
641.9279, 2623.561
643.8563, 2621.318
645.7848, 2616.781
647.7133, 2610.598
649.6417, 2604.408
651.5702, 2596.782
653.4987, 2590.078
655.4271, 2585.359
657.3556, 2582.199
659.2841, 2579.018
661.2125, 2576.681
663.1410, 2573.942
665.0695, 2570.379
666.9979, 2566.050
668.9264, 2562.759
670.8549, 2561.934
672.7833, 2561.158
674.7118, 2557.628
676.6403, 2550.946
678.5687, 2547.386
680.4972, 2550.724
682.4257, 2555.998
684.3541, 2559.552
686.2826, 2558.816
688.2111, 2559.728
690.1395, 2563.500
692.0680, 2568.584
693.9965, 2572.837
695.9249, 2576.197
697.8534, 2578.878
699.7819, 2580.211
701.7103, 2580.866
703.6388, 2582.781
705.5673, 2587.745
707.4957, 2592.069
709.4242, 2594.317
711.3527, 2595.292
713.2811, 2597.521
715.2096, 2601.511
717.1381, 2606.151
719.0665, 2611.055
720.9950, 2616.180
722.9235, 2620.867
724.8519, 2625.988
726.7804, 2630.099
728.7089, 2632.465
730.6373, 2633.370
732.5658, 2633.257
734.4943, 2629.382
736.4227, 2627.299
738.3512, 2630.803
740.2797, 2643.275
742.2081, 2652.346
744.1366, 2655.408
746.0651, 2656.356
747.9935, 2658.381
749.9220, 2661.417
751.8505, 2665.161
753.7789, 2671.844
755.7074, 2678.283
757.6359, 2681.182
759.5643, 2677.128
761.4928, 2675.653
763.4213, 2679.980
765.3497, 2686.345
767.2782, 2689.029
769.2067, 2687.055
771.1351, 2685.362
773.0636, 2684.414
774.9921, 2684.886
776.9205, 2688.173
778.8490, 2696.571
780.7775, 2704.367
782.7059, 2710.332
784.6344, 2714.784
786.5629, 2718.952
788.4913, 2723.039
790.4198, 2726.240
792.3483, 2728.757
794.2767, 2730.614
796.2052, 2731.165
798.1337, 2729.837
800.0621, 2728.643
801.9906, 2726.304
803.9191, 2724.198
805.8475, 2727.523
807.7760, 2739.562
809.7045, 2750.573
811.6329, 2756.556
813.5614, 2758.319
815.4899, 2757.962
817.4183, 2752.862
819.3468, 2748.712
821.2753, 2747.746
823.2037, 2749.543
825.1322, 2750.505
827.0607, 2750.203
828.9891, 2750.378
830.9176, 2752.981
832.8461, 2757.198
834.7745, 2759.726
836.7030, 2758.027
838.6315, 2758.142
840.5599, 2762.983
842.4884, 2771.734
844.4169, 2777.991
846.3453, 2777.058
848.2738, 2777.887
850.2023, 2783.621
852.1307, 2792.828
854.0592, 2802.708
855.9877, 2815.754
857.9161, 2824.898
859.8446, 2826.839
861.7731, 2822.566
863.7015, 2819.107
865.6300, 2817.202
867.5585, 2815.549
869.4869, 2813.583
871.4154, 2811.840
873.3439, 2811.906
875.2723, 2815.933
877.2008, 2818.620
879.1293, 2817.110
881.0577, 2812.848
882.9862, 2811.346
884.9147, 2815.313
886.8431, 2819.050
888.7716, 2820.515
890.7001, 2820.813
892.6285, 2822.969
894.5570, 2826.833
896.4855, 2832.191
898.4139, 2839.703
900.3424, 2848.419
902.2709, 2856.426
904.1993, 2862.590
906.1278, 2869.488
908.0563, 2879.312
909.9847, 2889.472
911.9132, 2894.251
913.8417, 2891.642
915.7701, 2889.098
917.6986, 2888.395
919.6271, 2888.832
921.5555, 2889.748
923.4840, 2891.626
925.4125, 2894.254
927.3410, 2898.617
929.2695, 2904.060
931.1979, 2909.511
933.1264, 2913.671
935.0549, 2920.971
936.9833, 2934.006
938.9118, 2947.896
940.8403, 2957.521
942.7687, 2962.210
944.6972, 2967.850
946.6257, 2975.655
948.5541, 2984.518
950.4826, 2993.573
952.4111, 3002.256
954.3395, 3015.348
956.2680, 3032.488
958.1965, 3054.401
960.1249, 3079.563
962.0534, 3108.707
963.9819, 3148.801
965.9103, 3197.326
967.8388, 3260.883
969.7673, 3338.429
971.6957, 3430.678
973.6242, 3545.879
975.5527, 3689.217
977.4811, 3851.794
979.4096, 4044.989
981.3381, 4257.321
983.2665, 4456.600
985.1950, 4660.751
987.1235, 4822.923
989.0519, 4945.947
990.9804, 5010.347
992.9089, 4990.105
994.8373, 4869.667
996.7658, 4709.128
998.6943, 4489.831
1000.623, 4256.716
1002.551, 4051.474
1004.480, 3879.704
1006.408, 3725.821
1008.337, 3586.748
1010.265, 3467.623
1012.194, 3376.689
1014.122, 3311.588
1016.050, 3257.013
1017.979, 3210.785
1019.907, 3175.985
1021.836, 3154.202
1023.764, 3144.804
1025.693, 3140.204
1027.621, 3144.008
1029.550, 3148.283
1031.478, 3150.994
1033.407, 3152.963
1035.335, 3156.136
1037.264, 3159.111
1039.192, 3166.294
1041.120, 3182.487
1043.049, 3201.644
1044.977, 3217.411
1046.906, 3229.490
1048.834, 3239.134
1050.763, 3243.898
1052.691, 3248.456
1054.620, 3257.264
1056.548, 3272.766
1058.477, 3280.766
1060.405, 3279.002
1062.334, 3273.236
1064.262, 3265.132
1066.191, 3254.740
1068.119, 3242.301
1070.047, 3225.432
1071.976, 3210.463
1073.904, 3199.676
1075.833, 3191.987
1077.761, 3186.184
1079.690, 3183.007
1081.618, 3180.251
1083.547, 3177.902
1085.475, 3176.090
1087.404, 3174.331
1089.332, 3171.764
1091.261, 3173.843
1093.189, 3185.301
1095.118, 3196.830
1097.046, 3202.767
1098.975, 3204.319
1100.903, 3206.211
1102.832, 3209.520
1104.760, 3211.486
1106.688, 3211.267
1108.617, 3209.371
1110.545, 3206.542
1112.474, 3201.527
1114.402, 3198.537
1116.331, 3198.589
1118.259, 3200.541
1120.188, 3204.359
1122.116, 3210.449
1124.045, 3213.235
1125.973, 3207.805
1127.902, 3203.639
1129.830, 3206.462
1131.759, 3214.009
1133.687, 3220.405
1135.615, 3225.506
1137.544, 3228.819
1139.472, 3229.966
1141.401, 3229.863
1143.329, 3229.573
1145.258, 3228.121
1147.186, 3229.133
1149.115, 3235.531
1151.043, 3241.785
1152.972, 3243.420
1154.900, 3240.717
1156.829, 3239.362
1158.757, 3240.615
1160.686, 3241.225
1162.614, 3240.180
1164.542, 3237.790
1166.471, 3234.347
1168.399, 3230.149
1170.328, 3225.005
1172.256, 3216.865
1174.185, 3209.577
1176.113, 3205.940
1178.042, 3206.142
1179.970, 3207.282
1181.899, 3213.671
1183.827, 3215.347
1185.756, 3204.480
1187.684, 3186.816
1189.613, 3177.445
1191.541, 3179.341
1193.469, 3179.593
1195.398, 3173.741
1197.326, 3166.497
1199.255, 3161.279
1201.183, 3158.079
1203.112, 3155.404
1205.040, 3151.342
1206.969, 3149.282
1208.897, 3152.069
1210.826, 3157.164
1212.754, 3158.176
1214.683, 3151.144
1216.611, 3145.969
1218.540, 3145.494
1220.468, 3146.050
1222.396, 3143.580
1224.325, 3138.789
1226.253, 3139.306
1228.182, 3148.155
1230.110, 3157.795
1232.039, 3164.785
1233.967, 3169.569
1235.896, 3173.095
1237.824, 3174.944
1239.753, 3174.610
1241.681, 3169.046
1243.610, 3163.870
1245.538, 3163.739
1247.467, 3168.977
1249.395, 3171.074
1251.323, 3169.992
1253.252, 3167.210
1255.180, 3160.668
1257.109, 3153.995
1259.037, 3153.036
1260.966, 3158.617
1262.894, 3161.930
1264.823, 3160.159
1266.751, 3157.545
1268.680, 3155.441
1270.608, 3154.102
1272.537, 3154.668
1274.465, 3157.961
1276.394, 3161.033
1278.322, 3163.316
1280.250, 3165.251
1282.179, 3167.497
1284.107, 3170.398
1286.036, 3171.384
1287.964, 3165.335
1289.893, 3163.515
1291.821, 3171.568
1293.750, 3183.927
1295.678, 3191.312
1297.607, 3191.153
1299.535, 3193.121
1301.464, 3200.459
1303.392, 3206.809
1305.321, 3207.866
1307.249, 3205.550
1309.177, 3205.503
1311.106, 3208.899
1313.034, 3211.254
1314.963, 3210.848
1316.891, 3209.784
1318.820, 3209.010
1320.748, 3208.731
1322.677, 3210.882
1324.605, 3218.307
1326.534, 3223.251
1328.462, 3221.888
1330.391, 3217.946
1332.319, 3215.493
1334.248, 3214.627
1336.176, 3214.680
1338.104, 3218.132
1340.033, 3219.971
1341.961, 3216.476
1343.890, 3211.205
1345.818, 3211.735
1347.747, 3219.776
1349.675, 3225.181
1351.604, 3223.835
1353.532, 3221.906
1355.461, 3222.891
1357.389, 3225.055
1359.318, 3224.778
1361.246, 3221.676
1363.175, 3218.740
1365.103, 3217.556
1367.031, 3216.883
1368.960, 3215.911
1370.888, 3214.941
1372.817, 3214.870
1374.745, 3215.311
1376.674, 3216.552
1378.602, 3217.501
1380.531, 3219.135
1382.459, 3223.466
1384.388, 3230.560
1386.316, 3233.037
1388.245, 3228.097
1390.173, 3223.255
1392.102, 3220.281
1394.030, 3217.885
1395.958, 3213.994
1397.887, 3208.403
1399.815, 3206.083
1401.744, 3207.669
1403.672, 3210.943
1405.601, 3219.214
1407.529, 3226.437
1409.458, 3224.022
1411.386, 3213.068
1413.315, 3206.660
1415.243, 3207.870
1417.172, 3210.645
1419.100, 3213.002
1421.029, 3215.104
1422.957, 3217.094
1424.885, 3218.749
1426.814, 3219.569
1428.742, 3218.259
1430.671, 3218.000
1432.599, 3222.057
1434.528, 3226.673
1436.456, 3226.548
1438.385, 3220.462
1440.313, 3216.752
1442.242, 3217.805
1444.170, 3218.406
1446.099, 3215.853
1448.027, 3212.721
1449.956, 3212.852
1451.884, 3217.239
1453.813, 3219.685
1455.741, 3219.036
1457.669, 3218.367
1459.598, 3219.557
1461.526, 3220.714
1463.455, 3218.174
1465.383, 3211.610
1467.312, 3210.293
1469.240, 3218.652
1471.169, 3225.055
1473.097, 3224.360
1475.026, 3220.622
1476.954, 3217.797
1478.883, 3215.795
1480.811, 3214.204
1482.740, 3213.568
1484.668, 3213.054
1486.596, 3212.899
1488.525, 3213.196
1490.453, 3213.153
1492.382, 3213.238
1494.310, 3216.790
1496.239, 3225.083
1498.167, 3231.999
1500.096, 3233.821
1502.024, 3233.656
1503.953, 3233.323
1505.881, 3232.667
1507.810, 3231.591
1509.738, 3231.948
1511.667, 3229.630
1513.595, 3222.995
1515.523, 3216.359
1517.452, 3211.528
1519.380, 3208.679
1521.309, 3208.151
1523.237, 3210.054
1525.166, 3212.565
1527.094, 3217.600
1529.023, 3219.741
1530.951, 3214.657
1532.880, 3205.894
1534.808, 3199.802
1536.737, 3196.709
1538.665, 3196.788
1540.594, 3204.491
1542.522, 3210.077
1544.450, 3208.776
1546.379, 3205.185
1548.307, 3204.555
1550.236, 3206.845
1552.164, 3209.303
1554.093, 3212.762
1556.021, 3214.418
1557.950, 3212.082
1559.878, 3208.941
1561.807, 3208.312
1563.735, 3209.057
1565.664, 3206.066
1567.592, 3197.806
1569.521, 3192.106
1571.449, 3193.102
1573.377, 3194.097
1575.306, 3190.361
1577.234, 3184.824
1579.163, 3183.344
1581.091, 3186.265
1583.020, 3186.198
1584.948, 3180.759
1586.877, 3175.304
1588.805, 3171.496
1590.734, 3169.333
1592.662, 3168.646
1594.591, 3169.492
1596.519, 3172.249
1598.448, 3177.193
1600.376, 3182.258
1602.304, 3187.297
1604.233, 3191.019
1606.161, 3192.245
1608.090, 3191.393
1610.018, 3189.799
1611.947, 3187.566
1613.875, 3184.063
1615.804, 3179.676
1617.732, 3174.546
1619.661, 3168.632
1621.589, 3163.096
1623.518, 3159.038
1625.446, 3156.552
1627.375, 3154.870
1629.303, 3153.194
1631.231, 3153.285
1633.160, 3155.325
1635.088, 3158.072
1637.017, 3161.377
1638.945, 3164.423
1640.874, 3165.751
1642.802, 3165.409
1644.731, 3164.595
1646.659, 3165.249
1648.588, 3163.590
1650.516, 3155.641
1652.445, 3148.156
1654.373, 3148.162
1656.302, 3154.231
1658.230, 3155.859
1660.158, 3150.259
1662.087, 3147.101
1664.015, 3149.690
1665.944, 3152.148
1667.872, 3152.333
1669.801, 3151.226
1671.729, 3150.739
1673.658, 3151.343
1675.586, 3148.104
1677.515, 3136.895
1679.443, 3130.376
1681.372, 3133.036
1683.300, 3138.146
1685.229, 3143.299
1687.157, 3147.724
1689.085, 3149.752
1691.014, 3148.997
1692.942, 3145.910
1694.871, 3136.426
1696.799, 3130.436
1698.728, 3133.974
1700.656, 3137.847
1702.585, 3135.075
1704.513, 3127.816
1706.442, 3122.722
1708.370, 3120.788
1710.299, 3118.089
1712.227, 3111.568
1714.156, 3108.120
1716.084, 3112.147
1718.012, 3117.015
1719.941, 3116.264
1721.869, 3111.244
1723.798, 3109.336
1725.726, 3112.578
1727.655, 3112.371
1729.583, 3104.043
1731.512, 3097.947
1733.440, 3098.955
1735.369, 3101.899
1737.297, 3102.489
1739.226, 3101.016
1741.154, 3098.661
1743.083, 3095.196
1745.011, 3091.713
1746.939, 3087.104
1748.868, 3083.965
1750.797, 3082.196
1752.725, 3082.404
1754.653, 3086.891
1756.582, 3094.004
1758.510, 3095.093
1760.439, 3088.696
1762.367, 3083.042
1764.296, 3080.089
1766.224, 3077.012
1768.153, 3074.591
1770.081, 3070.871
1772.010, 3061.760
1773.938, 3050.114
1775.867, 3047.979
1777.795, 3057.080
1779.724, 3061.446
1781.652, 3055.667
1783.580, 3051.600
1785.509, 3055.630
1787.437, 3059.908
1789.366, 3058.085
1791.294, 3052.537
1793.223, 3049.145
1795.151, 3047.985
1797.080, 3046.160
1799.008, 3043.464
1800.937, 3040.158
1802.865, 3036.132
1804.794, 3032.246
1806.722, 3028.934
1808.651, 3026.400
1810.579, 3024.632
1812.507, 3023.682
1814.436, 3024.898
1816.364, 3029.158
1818.293, 3031.470
1820.221, 3030.065
1822.150, 3026.884
1824.078, 3021.381
1826.007, 3015.860
1827.935, 3013.906
1829.864, 3014.597
1831.792, 3013.336
1833.721, 3009.897
1835.649, 3006.574
1837.578, 3003.242
1839.506, 3000.584
1841.434, 2998.437
1843.363, 2996.885
1845.291, 2995.725
1847.220, 2995.027
1849.148, 2995.737
1851.077, 2998.243
1853.005, 2998.164
1854.934, 2995.136
1856.862, 2990.414
1858.791, 2981.287
1860.719, 2974.204
1862.648, 2974.257
1864.576, 2976.508
1866.505, 2974.343
1868.433, 2968.682
1870.361, 2965.812
1872.290, 2966.985
1874.218, 2967.948
1876.147, 2970.299
1878.075, 2970.386
1880.004, 2966.538
1881.932, 2961.491
1883.861, 2955.597
1885.789, 2950.218
1887.718, 2947.868
1889.646, 2948.304
1891.575, 2949.321
1893.503, 2951.591
1895.432, 2950.254
1897.360, 2941.619
1899.288, 2934.477
1901.217, 2934.852
1903.145, 2936.309
1905.074, 2935.714
1907.002, 2932.827
1908.931, 2923.690
1910.859, 2909.263
1912.788, 2906.244
1914.716, 2919.154
1916.645, 2927.255
1918.573, 2922.170
1920.502, 2916.352
1922.430, 2915.677
1924.359, 2916.367
1926.287, 2916.561
1928.215, 2915.580
1930.144, 2910.756
1932.072, 2902.163
1934.001, 2895.400
1935.929, 2891.439
1937.858, 2887.726
1939.786, 2883.020
1941.715, 2879.610
1943.643, 2878.282
1945.572, 2878.526
1947.500, 2880.875
1949.429, 2884.044
1951.357, 2885.078
1953.286, 2883.805
1955.214, 2880.832
1957.142, 2875.782
1959.071, 2869.734
1960.999, 2860.430
1962.928, 2853.959
1964.856, 2855.225
1966.785, 2857.256
1968.713, 2855.261
1970.642, 2850.844
1972.570, 2845.802
1974.499, 2840.528
1976.427, 2838.301
1978.356, 2839.635
1980.284, 2840.154
1982.213, 2837.245
1984.141, 2837.343
1986.069, 2847.392
1987.998, 2855.294
1989.926, 2851.585
1991.855, 2843.052
1993.783, 2838.599
1995.712, 2836.985
1997.640, 2831.958
1999.569, 2822.028
2001.497, 2817.292
2003.426, 2822.486
2005.354, 2825.585
2007.283, 2825.685
2009.211, 2823.113
2011.140, 2816.121
2013.068, 2808.233
2014.996, 2801.384
2016.925, 2796.289
2018.853, 2795.598
2020.782, 2799.116
2022.710, 2798.530
2024.639, 2792.805
2026.567, 2789.483
2028.496, 2790.449
2030.424, 2791.251
2032.353, 2790.736
2034.281, 2789.065
2036.210, 2786.012
2038.138, 2781.985
2040.067, 2776.030
2041.995, 2769.780
2043.923, 2767.997
2045.852, 2770.606
2047.780, 2771.375
2049.709, 2770.226
2051.637, 2767.040
2053.566, 2761.122
2055.494, 2754.127
2057.423, 2743.031
2059.351, 2735.380
2061.280, 2739.108
2063.208, 2745.542
2065.136, 2745.168
2067.065, 2740.265
2068.993, 2736.255
2070.922, 2733.141
2072.850, 2731.840
2074.779, 2732.327
2076.708, 2731.823
2078.636, 2728.041
2080.564, 2726.503
2082.493, 2732.612
2084.421, 2735.916
2086.350, 2728.737
2088.278, 2718.901
2090.207, 2715.131
2092.135, 2714.081
2094.064, 2707.315
2095.992, 2695.659
2097.921, 2689.314
2099.849, 2689.616
2101.778, 2690.185
2103.706, 2691.669
2105.635, 2691.273
2107.563, 2687.790
2109.491, 2683.531
2111.420, 2679.542
2113.348, 2675.329
2115.277, 2670.782
2117.205, 2666.177
2119.134, 2660.725
2121.062, 2655.629
2122.991, 2654.671
2124.919, 2657.472
2126.848, 2659.370
2128.776, 2659.772
2130.705, 2659.211
2132.633, 2656.811
2134.562, 2654.581
2136.490, 2653.030
2138.418, 2651.703
2140.347, 2652.419
2142.275, 2651.534
2144.204, 2644.312
2146.132, 2634.983
2148.061, 2630.880
2149.989, 2630.582
2151.918, 2626.153
2153.846, 2617.917
2155.775, 2616.402
2157.703, 2623.583
2159.632, 2627.496
2161.560, 2624.448
2163.489, 2621.334
2165.417, 2621.279
2167.345, 2619.554
2169.274, 2611.543
2171.202, 2604.120
2173.131, 2605.113
2175.059, 2608.315
2176.988, 2604.456
2178.916, 2596.049
2180.845, 2590.346
2182.773, 2587.416
2184.702, 2586.991
2186.630, 2589.363
2188.559, 2589.857
2190.487, 2586.891
2192.416, 2585.272
2194.344, 2587.388
2196.272, 2588.094
2198.201, 2584.188
2200.129, 2580.031
2202.058, 2578.984
2203.986, 2578.173
2205.915, 2575.079
2207.843, 2570.241
2209.772, 2564.091
2211.700, 2556.975
2213.629, 2550.233
2215.557, 2543.935
2217.486, 2539.257
2219.414, 2536.433
2221.343, 2534.773
2223.271, 2534.456
2225.199, 2534.383
2227.128, 2534.323
2229.056, 2533.954
2230.985, 2531.206
2232.913, 2530.263
2234.842, 2536.898
2236.770, 2542.899
2238.699, 2539.558
2240.627, 2531.802
2242.556, 2526.637
2244.484, 2523.680
2246.413, 2521.523
2248.341, 2520.076
2250.270, 2518.849
2252.198, 2517.707
2254.126, 2517.416
2256.055, 2518.272
2257.983, 2518.399
2259.912, 2517.380
2261.840, 2515.439
2263.769, 2511.814
2265.697, 2508.261
2267.626, 2506.161
2269.554, 2503.543
2271.483, 2499.033
2273.411, 2494.030
2275.340, 2490.389
2277.268, 2487.290
2279.197, 2482.033
2281.125, 2476.376
2283.053, 2476.262
2284.982, 2480.622
2286.910, 2480.033
2288.839, 2472.912
2290.767, 2467.999
2292.696, 2465.659
2294.624, 2464.840
2296.553, 2468.741
2298.481, 2468.660
2300.410, 2460.705
2302.338, 2453.688
2304.267, 2451.180
2306.195, 2449.313
2308.124, 2444.924
2310.052, 2441.969
2311.980, 2445.423
2313.909, 2450.244
2315.837, 2449.917
2317.766, 2446.744
2319.694, 2445.207
2321.623, 2444.781
2323.551, 2443.520
2325.480, 2441.284
2327.408, 2440.063
2329.337, 2440.028
2331.265, 2437.285
2333.194, 2430.788
2335.122, 2427.598
2337.051, 2431.831
2338.979, 2430.679
2340.907, 2415.076
2342.836, 2403.983
2344.764, 2406.087
2346.693, 2408.682
2348.621, 2406.342
2350.550, 2402.624
2352.478, 2397.749
2354.407, 2393.585
2356.335, 2392.276
2358.264, 2391.744
2360.192, 2389.596
2362.121, 2386.778
2364.049, 2386.274
2365.978, 2387.120
2367.906, 2383.449
2369.834, 2375.841
2371.763, 2372.191
2373.691, 2373.319
2375.620, 2371.630
2377.548, 2365.723
2379.477, 2363.161
2381.405, 2365.527
2383.334, 2365.362
2385.262, 2359.777
2387.191, 2355.616
2389.119, 2357.919
2391.048, 2357.675
2392.976, 2348.878
2394.905, 2342.250
2396.833, 2344.345
2398.761, 2347.515
2400.690, 2347.395
2402.618, 2345.684
2404.547, 2343.219
2406.475, 2340.167
2408.404, 2337.019
2410.332, 2333.332
2412.261, 2327.052
2414.189, 2320.379
2416.118, 2320.558
2418.046, 2325.784
2419.975, 2324.148
2421.903, 2316.231
2423.832, 2313.422
2425.760, 2315.695
2427.688, 2316.435
2429.617, 2315.056
2431.545, 2312.277
2433.474, 2307.203
2435.402, 2303.621
2437.331, 2303.395
2439.259, 2302.344
2441.188, 2300.960
2443.116, 2297.466
2445.045, 2289.310
2446.973, 2283.921
2448.902, 2285.345
2450.830, 2287.113
2452.759, 2286.163
2454.687, 2284.257
2456.615, 2281.545
2458.544, 2279.096
2460.472, 2277.471
2462.401, 2276.957
2464.329, 2279.947
2466.258, 2282.613
2468.186, 2278.813
2470.115, 2272.886
2472.043, 2270.682
2473.972, 2270.839
2475.900, 2271.501
2477.829, 2271.848
2479.757, 2269.821
2481.686, 2265.483
2483.614, 2259.200
2485.542, 2251.338
2487.471, 2243.335
2489.399, 2235.721
2491.328, 2233.595
2493.256, 2237.822
2495.185, 2240.453
2497.113, 2240.569
2499.042, 2239.509
2500.970, 2235.761
2502.899, 2234.165
2504.827, 2235.892
2506.756, 2235.481
2508.684, 2231.353
2510.613, 2227.710
2512.541, 2226.577
2514.469, 2224.445
2516.398, 2218.433
2518.326, 2214.842
2520.255, 2218.883
2522.183, 2220.482
2524.112, 2213.089
2526.040, 2207.335
2527.969, 2209.872
2529.897, 2211.855
2531.826, 2206.512
2533.754, 2201.172
2535.683, 2201.936
2537.611, 2203.438
2539.540, 2200.626
2541.468, 2197.286
2543.396, 2197.612
2545.325, 2198.317
2547.253, 2194.703
2549.182, 2190.294
2551.110, 2190.127
2553.039, 2191.590
2554.967, 2190.148
2556.896, 2187.958
2558.824, 2189.400
2560.753, 2193.564
2562.681, 2199.855
2564.610, 2206.134
2566.538, 2205.948
2568.467, 2200.327
2570.395, 2191.759
2572.323, 2181.287
2574.252, 2177.289
2576.180, 2178.804
2578.109, 2174.979
2580.037, 2166.526
2581.966, 2161.073
2583.894, 2158.764
2585.823, 2155.292
2587.751, 2150.446
2589.680, 2149.800
2591.608, 2154.240
2593.537, 2157.508
2595.465, 2159.338
2597.394, 2160.051
2599.322, 2159.394
2601.250, 2157.740
2603.179, 2154.747
2605.107, 2152.924
2607.036, 2153.205
2608.964, 2153.234
2610.893, 2154.254
2612.821, 2151.298
2614.750, 2142.568
2616.678, 2137.831
2618.607, 2139.687
2620.535, 2139.892
2622.464, 2135.160
2624.392, 2132.472
2626.321, 2134.829
2628.249, 2135.478
2630.177, 2134.048
2632.106, 2130.451
2634.034, 2123.556
2635.963, 2118.732
2637.891, 2119.249
2639.820, 2118.087
2641.748, 2111.331
2643.677, 2106.522
2645.605, 2105.481
2647.534, 2105.483
2649.462, 2106.142
2651.391, 2106.889
2653.319, 2107.165
2655.248, 2107.884
2657.176, 2111.231
2659.104, 2111.815
2661.033, 2106.242
2662.961, 2100.974
2664.890, 2098.326
2666.818, 2095.163
2668.747, 2089.406
2670.675, 2085.349
2672.604, 2085.484
2674.532, 2086.332
2676.461, 2087.323
2678.389, 2087.437
2680.318, 2085.600
2682.246, 2083.670
2684.175, 2081.829
2686.103, 2080.569
2688.031, 2082.090
2689.960, 2081.286
2691.888, 2074.485
2693.817, 2068.384
2695.745, 2065.481
2697.674, 2063.516
2699.602, 2060.689
2701.531, 2060.471
2703.459, 2066.526
2705.388, 2071.767
2707.316, 2074.406
2709.245, 2073.827
2711.173, 2067.327
2713.102, 2062.405
2715.030, 2063.002
2716.958, 2063.290
2718.887, 2061.102
2720.815, 2057.898
2722.744, 2052.724
2724.672, 2049.355
2726.601, 2049.517
2728.529, 2050.615
2730.458, 2052.918
2732.386, 2053.719
2734.315, 2049.740
2736.243, 2047.631
2738.172, 2052.108
2740.100, 2053.148
2742.029, 2046.627
2743.957, 2041.737
2745.885, 2042.771
2747.814, 2042.998
2749.742, 2039.223
2751.671, 2037.261
2753.599, 2039.379
2755.528, 2040.639
2757.456, 2039.543
2759.385, 2038.747
2761.313, 2038.508
2763.242, 2038.698
2765.170, 2040.691
2767.099, 2039.488
2769.027, 2032.894
2770.956, 2029.185
2772.884, 2030.627
2774.813, 2030.552
2776.741, 2027.061
2778.669, 2025.217
2780.598, 2027.319
2782.526, 2026.704
2784.455, 2022.775
2786.383, 2018.129
2788.312, 2012.405
2790.240, 2010.555
2792.169, 2014.967
2794.097, 2014.523
2796.026, 2007.928
2797.954, 2003.935
2799.883, 2002.836
2801.811, 2000.601
2803.740, 1997.091
2805.668, 1994.976
2807.596, 1994.419
2809.525, 1995.490
2811.453, 1998.007
2813.382, 1998.898
2815.310, 1998.312
2817.239, 1998.034
2819.167, 1997.703
2821.096, 1994.825
2823.024, 1989.840
2824.953, 1982.953
2826.881, 1976.227
2828.810, 1977.826
2830.738, 1983.630
2832.667, 1985.134
2834.595, 1983.451
2836.523, 1979.714
2838.452, 1975.563
2840.380, 1973.279
2842.309, 1972.956
2844.237, 1975.841
2846.166, 1979.313
2848.094, 1980.465
2850.023, 1980.212
2851.951, 1978.784
2853.880, 1977.055
2855.808, 1975.870
2857.737, 1974.484
2859.665, 1971.558
2861.594, 1969.678
2863.522, 1972.833
2865.450, 1973.702
2867.379, 1966.196
2869.307, 1961.602
2871.236, 1968.657
2873.164, 1973.099
2875.093, 1967.141
2877.021, 1963.574
2878.950, 1965.861
2880.878, 1967.269
2882.807, 1966.006
2884.735, 1964.910
2886.664, 1964.068
2888.592, 1965.225
2890.521, 1969.821
2892.449, 1967.308
2894.377, 1956.057
2896.306, 1950.340
2898.234, 1952.118
2900.163, 1953.161
2902.091, 1953.468
2904.020, 1955.764
2905.948, 1959.214
2907.877, 1956.904
2909.805, 1950.790
2911.734, 1949.456
2913.662, 1951.383
2915.591, 1952.802
2917.519, 1953.389
2919.448, 1952.306
2921.376, 1950.173
2923.304, 1946.161
2925.233, 1943.520
2927.161, 1949.013
2929.090, 1954.358
2931.018, 1952.150
2932.947, 1947.943
2934.875, 1944.918
2936.804, 1942.025
2938.732, 1937.621
2940.661, 1935.066
2942.589, 1936.960
2944.518, 1937.173
2946.446, 1931.497
2948.375, 1928.368
2950.303, 1932.011
2952.231, 1931.713
2954.160, 1925.392
2956.088, 1922.711
2958.017, 1925.430
2959.945, 1927.161
2961.874, 1927.381
2963.802, 1928.021
2965.731, 1928.724
2967.659, 1923.901
2969.588, 1915.267
2971.516, 1910.767
2973.445, 1909.778
2975.373, 1911.414
2977.302, 1913.925
2979.230, 1913.430
2981.158, 1911.937
2983.087, 1911.956
2985.015, 1912.249
2986.944, 1912.589
2988.872, 1911.691
2990.801, 1908.828
2992.729, 1904.934
2994.658, 1897.817
2996.586, 1894.364
2998.515, 1899.534
3000.443, 1902.369
3002.372, 1899.925
3004.300, 1898.237
3006.229, 1899.310
3008.157, 1899.073
3010.085, 1897.302
3012.014, 1895.702
3013.942, 1894.462
3015.871, 1895.082
3017.799, 1897.031
3019.728, 1895.477
3021.656, 1892.117
3023.585, 1893.980
3025.513, 1897.763
3027.442, 1896.988
3029.370, 1895.332
3031.299, 1898.138
3033.227, 1901.273
3035.156, 1902.307
3037.084, 1900.550
3039.012, 1892.520
3040.941, 1886.672
3042.869, 1887.564
3044.798, 1890.133
3046.726, 1894.829
3048.655, 1895.832
3050.583, 1890.395
3052.512, 1887.085
3054.440, 1886.626
3056.369, 1886.870
3058.297, 1887.731
3060.226, 1889.278
3062.154, 1890.579
3064.083, 1885.112
3066.011, 1877.488
3067.939, 1880.983
3069.868, 1887.583
3071.796, 1887.304
3073.725, 1884.619
3075.653, 1884.153
3077.582, 1882.413
3079.510, 1876.653
3081.439, 1871.782
3083.367, 1869.613
3085.296, 1869.558
3087.224, 1872.439
3089.153, 1873.819
3091.081, 1872.804
3093.010, 1874.019
3094.938, 1878.117
3096.866, 1878.784
3098.795, 1876.352
3100.723, 1873.143
3102.652, 1869.952
3104.580, 1868.742
3106.509, 1868.466
3108.437, 1866.795
3110.366, 1866.027
3112.294, 1869.927
3114.223, 1872.629
3116.151, 1869.750
3118.080, 1866.643
3120.008, 1865.216
3121.937, 1863.753
3123.865, 1861.437
3125.793, 1862.103
3127.722, 1867.753
3129.650, 1867.527
3131.579, 1862.150
3133.507, 1863.003
3135.436, 1867.638
3137.364, 1866.486
3139.293, 1862.538
3141.221, 1861.515
3143.150, 1860.953
3145.078, 1856.705
3147.007, 1854.381
3148.935, 1859.925
3150.864, 1864.168
3152.792, 1863.871
3154.720, 1862.601
3156.649, 1861.184
3158.577, 1858.995
3160.506, 1856.034
3162.434, 1853.608
3164.363, 1851.951
3166.291, 1851.914
3168.220, 1852.720
3170.148, 1851.990
3172.077, 1850.372
3174.005, 1847.993
3175.934, 1846.484
3177.862, 1848.339
3179.791, 1850.064
3181.719, 1849.262
3183.647, 1850.371
3185.576, 1855.930
3187.504, 1858.805
3189.433, 1856.662
3191.361, 1856.073
3193.290, 1856.713
3195.218, 1857.365
3197.147, 1857.445
3199.075, 1855.623
3201.004, 1852.163
3202.932, 1846.133
3204.861, 1840.948
3206.789, 1840.361
3208.718, 1840.314
3210.646, 1836.884
3212.574, 1837.287
3214.503, 1844.785
3216.431, 1848.460
3218.360, 1844.881
3220.288, 1844.854
3222.217, 1847.765
3224.145, 1848.101
3226.074, 1846.655
3228.002, 1844.811
3229.931, 1843.402
3231.859, 1844.082
3233.788, 1844.811
3235.716, 1844.344
3237.645, 1842.826
3239.573, 1839.136
3241.501, 1837.445
3243.430, 1838.507
3245.358, 1841.729
3247.287, 1847.383
3249.215, 1847.620
3251.144, 1843.790
3253.072, 1839.839
3255.001, 1837.102
3256.929, 1838.274
3258.858, 1841.316
3260.786, 1846.840
3262.715, 1849.244
3264.643, 1842.352
3266.572, 1838.815
3268.500, 1841.361
3270.428, 1842.066
3272.357, 1840.022
3274.285, 1840.253
3276.214, 1842.615
3278.142, 1847.518
3280.071, 1851.970
3281.999, 1850.582
3283.928, 1847.472
3285.856, 1846.079
3287.785, 1844.567
3289.713, 1841.790
3291.642, 1840.792
3293.570, 1843.914
3295.499, 1843.609
3297.427, 1840.080
3299.355, 1839.918
3301.284, 1841.852
3303.212, 1841.701
3305.141, 1840.663
3307.069, 1840.657
3308.998, 1840.411
3310.926, 1839.137
3312.855, 1837.703
3314.783, 1836.355
3316.712, 1835.790
3318.640, 1836.312
3320.569, 1836.623
3322.497, 1836.731
3324.426, 1838.271
3326.354, 1839.896
3328.282, 1838.956
3330.211, 1837.168
3332.139, 1836.620
3334.068, 1835.184
3335.996, 1830.889
3337.925, 1828.535
3339.853, 1829.051
3341.782, 1831.603
3343.710, 1835.767
3345.639, 1837.992
3347.567, 1838.236
3349.496, 1834.694
3351.424, 1831.473
3353.353, 1834.187
3355.281, 1836.256
3357.209, 1832.965
3359.138, 1831.518
3361.066, 1834.182
3362.995, 1831.972
3364.923, 1824.474
3366.852, 1822.110
3368.780, 1823.870
3370.709, 1829.077
3372.637, 1833.308
3374.566, 1829.763
3376.494, 1825.896
3378.423, 1825.094
3380.351, 1824.385
3382.280, 1822.597
3384.208, 1822.456
3386.136, 1823.906
3388.065, 1826.424
3389.993, 1829.016
3391.922, 1828.682
3393.851, 1828.187
3395.779, 1830.962
3397.708, 1833.018
3399.636, 1831.592
3401.564, 1831.969
3403.493, 1835.163
3405.421, 1834.268
3407.350, 1829.924
3409.278, 1829.783
3411.207, 1831.726
3413.135, 1832.310
3415.064, 1832.672
3416.992, 1833.428
3418.921, 1835.154
3420.849, 1839.170
3422.778, 1838.005
3424.706, 1829.608
3426.635, 1830.976
3428.563, 1837.954
3430.491, 1838.046
3432.420, 1835.693
3434.348, 1835.080
3436.277, 1836.650
3438.205, 1843.990
3440.134, 1844.366
3442.062, 1833.439
3443.991, 1829.200
3445.919, 1831.296
3447.848, 1833.962
3449.776, 1836.524
3451.705, 1838.369
3453.633, 1838.942
3455.562, 1837.109
3457.490, 1835.510
3459.418, 1834.809
3461.347, 1834.877
3463.275, 1835.786
3465.204, 1837.638
3467.132, 1839.000
3469.061, 1834.287
3470.989, 1829.773
3472.918, 1831.680
3474.846, 1833.277
3476.775, 1832.155
3478.703, 1831.719
3480.632, 1832.255
3482.560, 1832.736
3484.489, 1833.474
3486.417, 1837.130
3488.345, 1839.926
3490.274, 1836.162
3492.202, 1834.625
3494.131, 1839.486
3496.059, 1841.343
3497.988, 1837.884
3499.916, 1838.480
3501.845, 1841.661
3503.773, 1845.457
3505.702, 1847.113
3507.630, 1841.452
3509.559, 1836.951
3511.487, 1837.134
3513.416, 1838.408
3515.344, 1840.448
3517.272, 1844.246
3519.201, 1848.400
3521.129, 1848.062
3523.058, 1847.508
3524.986, 1851.595
3526.915, 1854.728
3528.843, 1853.289
3530.772, 1853.920
3532.700, 1856.605
3534.629, 1856.447
3536.557, 1854.685
3538.486, 1854.233
3540.414, 1854.457
3542.343, 1854.380
3544.271, 1856.532
3546.199, 1863.035
3548.128, 1863.404
3550.056, 1858.229
3551.985, 1861.700
3553.913, 1869.994
3555.842, 1879.758
3557.770, 1885.321
3559.699, 1878.759
3561.627, 1876.948
3563.556, 1882.872
3565.484, 1885.587
3567.413, 1885.235
3569.341, 1886.165
3571.270, 1886.726
3573.198, 1885.709
3575.126, 1882.569
3577.055, 1875.627
3578.983, 1874.025
3580.912, 1879.323
3582.840, 1879.165
3584.769, 1875.704
3586.697, 1873.311
3588.626, 1872.201
3590.554, 1874.229
3592.483, 1873.347
3594.411, 1867.586
3596.340, 1863.936
3598.268, 1862.427
3600.197, 1861.500
3602.125, 1860.395
3604.053, 1859.283
3605.982, 1855.557
3607.910, 1846.650
3609.839, 1843.840
3611.767, 1849.291
3613.696, 1848.880
3615.624, 1846.093
3617.553, 1849.860
3619.481, 1852.903
3621.410, 1848.875
3623.338, 1845.048
3625.267, 1842.855
3627.195, 1840.362
3629.124, 1838.320
3631.052, 1842.482
3632.980, 1846.833
3634.909, 1844.422
3636.837, 1841.602
3638.766, 1840.193
3640.694, 1839.418
3642.623, 1839.006
3644.551, 1832.559
3646.480, 1826.947
3648.408, 1833.923
3650.337, 1840.814
3652.265, 1842.458
3654.194, 1841.938
3656.122, 1839.600
3658.051, 1837.576
3659.979, 1835.980
3661.907, 1834.589
3663.836, 1834.381
3665.764, 1836.152
3667.693, 1838.915
3669.621, 1842.925
3671.550, 1842.652
3673.478, 1839.803
3675.407, 1838.516
3677.335, 1837.165
3679.264, 1833.832
3681.192, 1831.597
3683.121, 1831.241
3685.049, 1828.891
3686.978, 1826.266
3688.906, 1831.329
3690.834, 1835.857
3692.763, 1830.675
3694.691, 1828.277
3696.620, 1831.336
3698.548, 1834.534
3700.477, 1836.838
3702.405, 1833.669
3704.334, 1830.827
3706.262, 1834.879
3708.191, 1836.619
3710.119, 1833.765
3712.048, 1834.033
3713.976, 1835.919
3715.905, 1830.782
3717.833, 1825.228
3719.761, 1825.578
3721.690, 1826.571
3723.618, 1827.497
3725.547, 1821.882
3727.475, 1813.685
3729.404, 1820.328
3731.332, 1828.273
3733.261, 1825.937
3735.189, 1823.520
3737.118, 1822.838
3739.046, 1823.450
3740.975, 1824.937
3742.903, 1827.568
3744.832, 1828.181
3746.760, 1821.583
3748.688, 1819.609
3750.617, 1823.678
3752.545, 1822.375
3754.474, 1818.501
3756.402, 1819.490
3758.331, 1821.143
3760.259, 1819.850
3762.188, 1822.141
3764.116, 1827.854
3766.045, 1827.270
3767.973, 1824.735
3769.902, 1830.223
3771.830, 1834.243
3773.759, 1832.020
3775.687, 1828.060
3777.615, 1823.635
3779.544, 1824.878
3781.472, 1827.737
3783.401, 1827.159
3785.329, 1825.668
3787.258, 1824.469
3789.186, 1818.976
3791.115, 1812.072
3793.043, 1816.173
3794.972, 1821.793
3796.900, 1820.679
3798.829, 1819.834
3800.757, 1821.227
3802.686, 1821.101
3804.614, 1820.496
3806.542, 1822.000
3808.471, 1822.907
3810.399, 1821.325
3812.328, 1820.392
3814.256, 1820.379
3816.185, 1817.940
3818.113, 1815.768
3820.042, 1819.373
3821.970, 1820.305
3823.899, 1815.682
3825.827, 1815.085
3827.756, 1817.728
3829.684, 1819.252
3831.613, 1818.825
3833.541, 1813.302
3835.469, 1810.957
3837.398, 1812.922
3839.326, 1819.155
3841.255, 1824.779
3843.183, 1818.279
3845.112, 1813.360
3847.040, 1818.900
3848.969, 1817.788
3850.897, 1811.262
3852.826, 1810.154
3854.754, 1810.945
3856.683, 1810.599
3858.611, 1811.032
3860.540, 1812.837
3862.468, 1811.650
3864.396, 1808.834
3866.325, 1804.974
3868.253, 1805.152
3870.182, 1813.606
3872.110, 1814.632
3874.039, 1809.336
3875.967, 1809.579
3877.896, 1811.999
3879.824, 1815.289
3881.753, 1815.748
3883.681, 1812.300
3885.610, 1810.445
3887.538, 1810.287
3889.467, 1812.874
3891.395, 1814.605
3893.323, 1814.084
3895.252, 1814.844
3897.180, 1815.766
3899.109, 1809.609
3901.037, 1803.681
3902.966, 1802.752
3904.894, 1806.120
3906.823, 1812.455
3908.751, 1809.280
3910.680, 1804.874
3912.608, 1811.187
3914.537, 1814.724
3916.465, 1810.823
3918.394, 1806.204
3920.322, 1802.865
3922.250, 1805.583
3924.179, 1809.938
3926.107, 1815.120
3928.036, 1813.513
3929.964, 1807.006
3931.893, 1806.784
3933.821, 1806.975
3935.750, 1801.831
3937.678, 1801.339
3939.607, 1806.413
3941.535, 1807.380
3943.464, 1805.718
3945.392, 1800.963
3947.321, 1799.766
3949.249, 1803.142
3951.177, 1804.541
3953.106, 1803.807
3955.034, 1799.794
3956.963, 1796.660
3958.891, 1796.465
3960.820, 1796.576
3962.748, 1797.280
3964.677, 1800.382
3966.605, 1801.882
3968.534, 1799.577
3970.462, 1796.175
3972.391, 1792.392
3974.319, 1789.966
3976.248, 1788.750
3978.176, 1789.288
3980.104, 1789.410
3982.033, 1789.058
3983.961, 1790.892
3985.890, 1792.122
3987.818, 1789.058
3989.747, 1786.478
3991.675, 1785.291
3993.604, 1789.956
3995.532, 1795.609
3997.461, 1795.755
3999.389, 1795.720
4001.318, 1797.252
4003.246, 1794.916
4005.175, 1791.140
4007.103, 1787.407
4009.031, 1790.524
4010.960, 1804.397
4012.888, 1803.594
4014.817, 1795.945
4016.745, 1798.024
4018.674, 1802.363
4020.602, 1807.223
4022.531, 1798.801
4024.459, 1784.012
4026.388, 1780.941
4028.316, 1781.024
4030.245, 1780.856
4032.173, 1783.147
4034.102, 1785.845
4036.030, 1782.228
4037.958, 1778.670
4039.887, 1778.830
4041.815, 1776.723
4043.744, 1773.287
4045.672, 1771.276
4047.601, 1772.743
4049.529, 1779.786
4051.458, 1781.018
4053.386, 1777.423
4055.315, 1776.328
4057.243, 1775.145
4059.172, 1770.969
4061.100, 1773.812
4063.029, 1780.231
4064.957, 1773.659
4066.885, 1766.969
4068.814, 1767.597
4070.742, 1767.629
4072.671, 1766.869
4074.599, 1768.428
4076.528, 1768.010
4078.456, 1762.720
4080.385, 1763.123
4082.313, 1767.520
4084.242, 1766.776
4086.170, 1764.591
4088.099, 1761.611
4090.027, 1763.006
4091.956, 1766.851
4093.884, 1767.661
4095.813, 1765.929
4097.741, 1760.813
4099.669, 1757.896
4101.598, 1757.075
4103.526, 1757.679
4105.455, 1758.907
4107.383, 1760.457
4109.312, 1760.867
4111.240, 1760.989
4113.169, 1763.826
4115.097, 1765.094
4117.026, 1763.455
4118.954, 1757.867
4120.883, 1753.106
4122.811, 1760.802
4124.740, 1764.618
4126.668, 1758.342
4128.597, 1757.240
4130.525, 1759.241
4132.454, 1763.876
4134.382, 1763.829
4136.311, 1757.590
4138.239, 1758.347
4140.167, 1760.668
4142.096, 1757.840
4144.024, 1757.405
4145.953, 1759.498
4147.881, 1757.630
4149.810, 1754.474
4151.738, 1751.714
4153.667, 1750.720
4155.595, 1751.285
4157.523, 1752.651
4159.452, 1753.027
4161.380, 1750.966
4163.309, 1751.845
4165.237, 1754.795
4167.166, 1756.833
4169.094, 1757.267
4171.023, 1755.492
4172.951, 1752.488
4174.880, 1749.180
4176.808, 1746.018
4178.737, 1746.627
4180.665, 1752.746
4182.594, 1755.946
4184.522, 1756.115
4186.451, 1751.221
4188.379, 1748.413
4190.308, 1748.454
4192.236, 1747.373
4194.165, 1747.218
4196.093, 1751.324
4198.021, 1750.025
4199.950, 1745.344
4201.878, 1746.691
4203.807, 1747.560
4205.735, 1745.210
4207.664, 1740.434
4209.592, 1736.723
4211.521, 1741.691
4213.449, 1744.826
4215.377, 1743.763
4217.306, 1746.782
4219.234, 1750.026
4221.163, 1750.007
4223.091, 1747.147
4225.020, 1742.346
4226.948, 1736.026
4228.877, 1733.854
4230.805, 1739.859
4232.734, 1743.673
4234.662, 1744.834
4236.591, 1743.566
4238.519, 1741.747
4240.448, 1739.513
4242.376, 1741.461
##END=



