##NAMES=Liskeardite
##RRUFFID=R060768
##IDEAL CHEMISTRY=(Al,Fe)_32_(AsO_4_)_18_(OH)_42_(H_2_O)_22_·52H_2_O
##LOCALITY=Penberthy Croft mine, St. Hilary, Cornwall, England
##OWNER=RRUFF
##SOURCE=Michael Scott
##DESCRIPTION=White fibrous earthy crust
##STATUS=The identification of this mineral is not yet confirmed
##URL=https://www.rruff.net/odr/rruff_sample/R060768
##FILETYPE=Raman Processed
##RAMAN WAVELENGTH=785

152.3510, 1046.519
154.2790, 1000.986
156.2080, 955.4990
158.1360, 928.9530
160.0650, 914.9820
161.9930, 909.6040
163.9220, 914.8390
165.8500, 913.2820
167.7790, 903.9640
169.7070, 891.0440
171.6350, 875.6020
173.5640, 856.8670
175.4920, 832.1620
177.4210, 803.0640
179.3490, 779.7880
181.2780, 763.2940
183.2060, 749.7800
185.1350, 739.9360
187.0630, 731.6440
188.9920, 725.7240
190.9200, 719.6510
192.8490, 707.2820
194.7770, 685.8290
196.7060, 678.1260
198.6340, 691.4230
200.5620, 701.6970
202.4910, 701.5880
204.4190, 695.2530
206.3480, 684.2460
208.2760, 669.4920
210.2050, 654.2140
212.1330, 635.3730
214.0620, 627.3990
215.9900, 638.1630
217.9190, 649.0100
219.8470, 650.5950
221.7760, 647.7640
223.7040, 645.2700
225.6330, 643.1220
227.5610, 641.2020
229.4900, 639.6620
231.4180, 637.8890
233.3460, 636.8960
235.2750, 633.9250
237.2030, 626.5460
239.1320, 616.7170
241.0600, 607.7690
242.9890, 599.4760
244.9170, 594.4510
246.8460, 593.0030
248.7740, 593.9930
250.7030, 596.3310
252.6310, 602.0470
254.5600, 615.9680
256.4880, 633.8880
258.4170, 642.4040
260.3450, 639.5600
262.2730, 637.5880
264.2020, 637.3060
266.1300, 637.1280
268.0590, 636.8050
269.9870, 635.9740
271.9160, 634.0380
273.8440, 631.3550
275.7730, 628.6740
277.7010, 625.3320
279.6300, 626.5030
281.5580, 633.7840
283.4870, 643.0810
285.4150, 653.9500
287.3440, 665.0640
289.2720, 677.4830
291.2000, 689.4700
293.1290, 692.1830
295.0570, 683.9110
296.9860, 681.2990
298.9140, 687.6610
300.8430, 695.4880
302.7710, 700.0420
304.7000, 706.6780
306.6280, 720.5530
308.5570, 739.4000
310.4850, 758.1170
312.4140, 777.5120
314.3420, 785.4140
316.2710, 775.3620
318.1990, 769.0460
320.1270, 779.5840
322.0560, 790.8480
323.9840, 795.3440
325.9130, 793.3080
327.8410, 784.9280
329.7700, 769.8780
331.6980, 748.0860
333.6270, 716.0480
335.5550, 690.0580
337.4840, 677.1260
339.4120, 668.4060
341.3410, 661.8730
343.2690, 655.5150
345.1980, 645.6070
347.1260, 632.8350
349.0540, 623.8680
350.9830, 618.9530
352.9110, 615.5330
354.8400, 611.7220
356.7680, 612.2520
358.6970, 621.9170
360.6250, 633.4430
362.5540, 640.8700
364.4820, 645.4580
366.4110, 651.6790
368.3390, 659.5010
370.2670, 663.4740
372.1960, 663.0440
374.1250, 659.1740
376.0530, 648.7300
377.9810, 639.1900
379.9100, 634.0590
381.8380, 631.6790
383.7670, 628.9660
385.6950, 626.9200
387.6240, 632.5330
389.5520, 646.7160
391.4810, 655.4350
393.4090, 655.4570
395.3380, 652.1160
397.2660, 647.6230
399.1940, 640.0580
401.1230, 624.3650
403.0520, 606.6660
404.9800, 599.3550
406.9080, 600.6920
408.8370, 596.1950
410.7650, 584.1940
412.6940, 577.1980
414.6220, 579.0810
416.5510, 583.7910
418.4790, 597.5630
420.4080, 604.4800
422.3360, 585.1470
424.2650, 555.4160
426.1930, 546.7370
428.1220, 555.4860
430.0500, 559.7630
431.9780, 558.3410
433.9070, 555.5340
435.8350, 549.2000
437.7640, 547.4460
439.6920, 557.4040
441.6210, 566.9960
443.5490, 567.5620
445.4780, 563.4170
447.4060, 561.8580
449.3350, 561.7440
451.2630, 556.0690
453.1920, 543.8160
455.1200, 540.2200
457.0490, 551.2660
458.9770, 563.0350
460.9050, 574.8750
462.8340, 582.6750
464.7620, 581.2200
466.6910, 577.1300
468.6190, 577.4800
470.5480, 581.7300
472.4760, 589.3460
474.4050, 599.9110
476.3330, 604.7510
478.2620, 600.5220
480.1900, 599.9280
482.1190, 608.3330
484.0470, 617.4090
485.9760, 627.1760
487.9040, 634.2560
489.8320, 632.7300
491.7610, 628.6930
493.6890, 632.3810
495.6180, 642.2820
497.5460, 655.5870
499.4750, 672.6360
501.4030, 682.2030
503.3320, 677.9900
505.2600, 678.1740
507.1890, 689.1090
509.1170, 701.0750
511.0460, 712.9280
512.9740, 721.8780
514.9030, 724.6570
516.8310, 723.3250
518.7600, 722.0020
520.6880, 719.8320
522.6170, 711.7130
524.5450, 696.6400
526.4730, 688.7390
528.4020, 695.5580
530.3300, 696.3780
532.2590, 683.2370
534.1870, 670.5510
536.1160, 666.4550
538.0440, 661.2780
539.9730, 642.8270
541.9010, 621.9060
543.8300, 616.8440
545.7580, 621.4820
547.6870, 616.9190
549.6150, 602.7160
551.5440, 598.4770
553.4720, 610.3650
555.4000, 618.7370
557.3290, 619.7230
559.2570, 619.0820
561.1860, 614.4130
563.1140, 612.9580
565.0430, 621.6260
566.9710, 632.6150
568.9000, 638.5070
570.8280, 641.0780
572.7570, 643.6740
574.6850, 645.7240
576.6140, 643.2850
578.5420, 635.2600
580.4700, 631.9790
582.3990, 637.8960
584.3270, 640.7490
586.2560, 637.1950
588.1840, 633.9980
590.1130, 634.2150
592.0410, 633.5300
593.9700, 629.6410
595.8980, 623.5800
597.8270, 614.9840
599.7550, 605.6530
601.6830, 600.6900
603.6120, 597.5740
605.5410, 583.6530
607.4690, 557.3480
609.3970, 536.9650
611.3260, 524.8140
613.2540, 515.3150
615.1830, 511.1680
617.1110, 504.5980
619.0400, 489.8280
620.9680, 478.5980
622.8970, 477.2480
624.8250, 479.3130
626.7540, 482.8040
628.6820, 485.0040
630.6100, 482.2640
632.5390, 476.6030
634.4680, 472.0270
636.3960, 468.4810
638.3240, 465.3700
640.2530, 462.9140
642.1810, 459.5460
644.1100, 454.5660
646.0380, 450.0400
647.9670, 445.8230
649.8950, 442.3970
651.8240, 438.9380
653.7520, 437.6930
655.6810, 443.1720
657.6090, 446.5870
659.5370, 438.7690
661.4660, 429.9320
663.3940, 429.3330
665.3230, 433.4130
667.2510, 438.1930
669.1800, 442.6930
671.1080, 442.4820
673.0370, 437.5110
674.9650, 434.3620
676.8940, 433.5060
678.8220, 432.7270
680.7510, 430.6740
682.6790, 432.2190
684.6080, 441.5140
686.5360, 446.0000
688.4640, 439.2530
690.3930, 434.0980
692.3210, 437.8140
694.2500, 441.2860
696.1780, 439.2110
698.1070, 434.4780
700.0350, 426.3810
701.9640, 419.5400
703.8920, 421.3640
705.8210, 428.1150
707.7490, 431.9060
709.6780, 432.9110
711.6060, 431.1690
713.5350, 426.3530
715.4630, 427.3960
717.3910, 437.6810
719.3200, 438.4040
721.2480, 424.8120
723.1770, 419.0230
725.1050, 426.4140
727.0340, 432.6860
728.9620, 434.6900
730.8910, 435.0700
732.8190, 433.5280
734.7480, 432.8940
736.6760, 437.5420
738.6050, 439.5720
740.5330, 428.5450
742.4620, 418.7710
744.3900, 425.1860
746.3180, 438.1050
748.2470, 445.4800
750.1750, 449.2690
752.1040, 454.0480
754.0320, 458.9660
755.9610, 460.1450
757.8890, 457.8200
759.8180, 455.0720
761.7460, 451.7350
763.6750, 449.8680
765.6030, 449.1270
767.5320, 454.0750
769.4600, 467.6360
771.3890, 470.2040
773.3170, 453.7680
775.2450, 447.3920
777.1740, 462.2600
779.1020, 475.3160
781.0310, 478.3950
782.9590, 480.1250
784.8880, 482.4380
786.8160, 486.7440
788.7450, 492.9010
790.6730, 502.1480
792.6020, 519.5140
794.5300, 535.5050
796.4590, 539.7260
798.3870, 540.2970
800.3160, 545.0750
802.2440, 553.6650
804.1720, 568.9720
806.1010, 585.9060
808.0290, 592.2290
809.9580, 590.2850
811.8860, 586.1240
813.8150, 580.9510
815.7430, 584.4140
817.6720, 595.2720
819.6000, 599.2500
821.5290, 596.5260
823.4570, 600.1460
825.3860, 611.0750
827.3140, 620.1170
829.2430, 625.6990
831.1710, 638.3170
833.0990, 661.0900
835.0280, 680.7500
836.9560, 694.3830
838.8850, 706.2160
840.8130, 714.7940
842.7420, 728.2600
844.6700, 753.3590
846.5990, 774.4190
848.5270, 788.3270
850.4560, 794.8660
852.3840, 789.5650
854.3130, 783.1900
856.2410, 780.2960
858.1700, 777.1550
860.0980, 770.4370
862.0270, 764.6630
863.9550, 762.6570
865.8830, 762.9890
867.8120, 768.3280
869.7400, 771.3690
871.6690, 757.9580
873.5970, 745.9370
875.5260, 759.6970
877.4540, 782.5480
879.3830, 792.2500
881.3110, 797.0410
883.2400, 813.9610
885.1680, 832.0530
887.0970, 824.2530
889.0250, 806.3470
890.9540, 814.2200
892.8820, 837.6580
894.8100, 854.1580
896.7390, 865.0360
898.6670, 872.1480
900.5960, 877.5320
902.5240, 890.8990
904.4530, 908.4090
906.3810, 913.6680
908.3100, 906.8130
910.2380, 889.6680
912.1670, 863.5760
914.0950, 838.4520
916.0240, 814.3490
917.9520, 786.4290
919.8810, 754.5840
921.8090, 721.3960
923.7370, 687.0000
925.6660, 662.9570
927.5940, 650.7930
929.5230, 632.3520
931.4510, 604.8900
933.3800, 589.3000
935.3080, 589.7620
937.2370, 581.9460
939.1650, 561.7770
941.0940, 546.8040
943.0220, 539.3650
944.9510, 531.6700
946.8790, 522.7610
948.8080, 515.0110
950.7360, 507.6860
952.6640, 504.2720
954.5930, 508.6620
956.5210, 506.7590
958.4500, 492.4240
960.3780, 484.9240
962.3070, 491.6800
964.2350, 490.8490
966.1640, 471.1100
968.0920, 465.3100
970.0210, 479.2450
971.9490, 497.8190
973.8780, 529.8040
975.8060, 548.6360
977.7350, 544.9120
979.6630, 544.4870
981.5910, 553.4970
983.5200, 555.8800
985.4480, 550.7480
987.3770, 539.0970
989.3050, 515.8230
991.2340, 496.8540
993.1620, 482.4990
995.0910, 473.9860
997.0190, 473.1200
998.9480, 474.3940
1000.876, 481.0280
1002.805, 480.4850
1004.733, 466.4670
1006.662, 459.8070
1008.590, 466.2510
1010.518, 467.5340
1012.447, 459.0510
1014.375, 456.2750
1016.304, 464.2660
1018.232, 464.1790
1020.161, 450.2450
1022.089, 444.9540
1024.018, 452.1590
1025.946, 457.7010
1027.875, 460.7800
1029.803, 463.2640
1031.732, 466.0670
1033.660, 463.4800
1035.589, 453.0740
1037.517, 449.8450
1039.446, 455.9400
1041.374, 457.3600
1043.302, 452.8930
1045.231, 453.4580
1047.159, 459.9300
1049.088, 459.8720
1051.016, 452.9070
1052.945, 448.4620
1054.873, 446.5680
1056.802, 448.9700
1058.730, 455.1990
1060.659, 456.0700
1062.587, 452.4860
1064.516, 451.7440
1066.444, 453.7690
1068.373, 459.7000
1070.301, 467.7320
1072.229, 471.4420
1074.158, 470.2750
1076.086, 457.4190
1078.015, 440.7670
1079.943, 444.3600
1081.872, 457.7300
1083.800, 459.8640
1085.729, 454.8270
1087.657, 446.2170
1089.586, 438.4350
1091.514, 439.6250
1093.443, 443.8280
1095.371, 443.0610
1097.299, 442.0740
1099.228, 447.7800
1101.156, 453.1940
1103.085, 451.4950
1105.013, 448.0690
1106.942, 446.1010
1108.870, 444.7570
1110.799, 442.6740
1112.727, 442.3310
1114.656, 444.5330
1116.584, 449.3970
1118.513, 462.9140
1120.441, 467.6040
1122.370, 452.6120
1124.298, 441.6750
1126.226, 441.5090
1128.155, 443.0680
1130.083, 444.5250
1132.012, 448.5990
1133.940, 456.9970
1135.869, 459.6620
1137.797, 454.4830
1139.726, 453.1140
1141.654, 456.7470
1143.583, 462.7000
1145.511, 469.9180
1147.440, 463.2570
1149.368, 445.5120
1151.297, 443.0370
1153.225, 452.5740
1155.153, 456.6650
1157.082, 456.6730
1159.010, 457.5610
1160.939, 458.5470
1162.867, 457.7810
1164.796, 456.1620
1166.724, 455.3830
1168.653, 454.2380
1170.581, 450.2980
1172.510, 446.5360
1174.438, 446.4700
1176.367, 446.4860
1178.295, 442.8810
1180.224, 440.3590
1182.152, 440.4570
1184.080, 443.6760
1186.009, 453.3860
1187.937, 460.5500
1189.866, 460.9550
1191.794, 462.8580
1193.723, 469.2210
1195.651, 471.2350
1197.580, 467.3110
1199.508, 463.7140
1201.437, 460.7120
1203.365, 458.4440
1205.294, 457.1240
1207.222, 461.5710
1209.151, 469.3900
1211.079, 465.2530
1213.007, 456.8560
1214.936, 469.9760
1216.864, 488.1230
1218.793, 481.6870
1220.721, 468.1500
1222.650, 463.3550
1224.578, 463.4590
1226.507, 471.6150
1228.435, 474.1150
1230.364, 454.2340
1232.292, 442.2980
1234.221, 454.9110
1236.149, 467.7110
1238.078, 476.9570
1240.006, 481.0280
1241.934, 477.0930
1243.863, 475.2640
1245.791, 476.7510
1247.720, 473.3090
1249.648, 464.9700
1251.577, 467.7850
1253.505, 478.4640
1255.434, 478.8950
1257.362, 474.3070
1259.291, 476.0900
1261.219, 481.9430
1263.148, 491.8900
1265.076, 500.2200
1267.005, 502.7530
1268.933, 501.4190
1270.861, 496.3500
1272.790, 489.1310
1274.718, 476.7280
1276.647, 474.4830
1278.575, 490.2200
1280.504, 499.5440
1282.432, 498.9880
1284.361, 490.3240
1286.289, 473.1550
1288.218, 473.3860
1290.146, 486.6330
1292.075, 485.3540
1294.003, 476.7610
1295.932, 479.1170
1297.860, 485.1990
1299.788, 484.4440
1301.717, 483.4030
1303.645, 487.5390
1305.574, 493.3040
1307.502, 501.8180
1309.431, 505.0390
1311.359, 500.5520
1313.288, 487.8190
1315.216, 463.9920
1317.145, 466.2740
1319.073, 497.5950
1321.002, 504.1290
1322.930, 489.9130
1324.859, 486.4830
1326.787, 490.0760
1328.715, 494.2450
1330.644, 496.9990
1332.572, 493.7180
1334.501, 490.5680
1336.429, 494.0600
1338.358, 495.8230
1340.286, 490.8940
1342.215, 488.7820
1344.143, 492.1670
1346.072, 493.4630
1348.000, 491.6870
1349.929, 500.7660
1351.857, 518.1050
1353.786, 517.5740
1355.714, 506.0900
1357.642, 502.4970
1359.571, 500.8100
1361.499, 488.9210
1363.428, 480.2800
1365.356, 489.8670
1367.285, 499.1390
1369.213, 501.3960
1371.142, 498.7100
1373.070, 489.4900
1374.999, 484.4200
1376.927, 484.4700
1378.856, 489.9400
1380.784, 498.5720
1382.713, 499.8290
1384.641, 496.9830
1386.569, 495.4290
1388.498, 495.3410
1390.426, 498.7780
1392.355, 500.8450
1394.283, 495.7850
1396.212, 494.1850
1398.140, 504.4920
1400.069, 503.3830
1401.997, 486.7020
1403.926, 486.3720
1405.854, 499.5870
1407.783, 497.3850
1409.711, 485.5640
1411.640, 471.2160
1413.568, 464.5490
1415.496, 486.8940
1417.425, 504.0560
1419.353, 488.9700
1421.282, 476.9280
1423.210, 480.4230
1425.139, 482.5860
1427.067, 482.5950
1428.996, 480.8210
1430.924, 477.4550
1432.853, 473.0660
1434.781, 468.9380
1436.710, 467.6940
1438.638, 467.8620
1440.567, 470.4350
1442.495, 469.8120
1444.423, 459.6940
1446.352, 455.4150
1448.280, 462.5830
1450.209, 467.5710
1452.137, 470.1850
1454.066, 470.2020
1455.994, 469.8270
1457.923, 478.7370
1459.851, 487.1700
1461.780, 481.7480
1463.708, 477.0470
1465.637, 483.7500
1467.565, 482.2240
1469.494, 463.4460
1471.422, 454.2360
1473.350, 457.0220
1475.279, 460.7250
1477.207, 465.0360
1479.136, 472.0760
1481.064, 475.3750
1482.993, 461.3200
1484.921, 449.1760
1486.850, 448.1570
1488.778, 451.9180
1490.707, 460.0040
1492.635, 463.8240
1494.564, 462.5100
1496.492, 463.1840
1498.421, 464.1890
1500.349, 457.8180
1502.277, 452.9770
1504.206, 463.7660
1506.134, 472.2950
1508.063, 470.4380
1509.991, 469.3160
1511.920, 471.4030
1513.848, 466.9940
1515.777, 456.8080
1517.705, 450.9060
1519.634, 449.5580
1521.562, 457.4630
1523.491, 464.0820
1525.419, 457.4740
1527.348, 454.1190
1529.276, 459.2850
1531.204, 462.0410
1533.133, 461.1510
1535.061, 458.4910
1536.990, 455.0780
1538.918, 453.4530
1540.847, 452.5080
1542.775, 452.0990
1544.704, 449.9580
1546.632, 444.2660
1548.561, 438.1580
1550.489, 431.8130
1552.418, 434.5590
1554.346, 444.5030
1556.275, 455.4100
1558.203, 462.4500
1560.131, 456.3100
1562.060, 448.5850
1563.988, 446.4170
1565.917, 442.9040
1567.845, 436.3660
1569.774, 435.3790
1571.702, 439.0460
1573.631, 441.4480
1575.559, 442.6360
1577.488, 445.9080
1579.416, 443.0280
1581.345, 419.7320
1583.273, 409.2190
1585.202, 419.8150
1587.130, 424.5520
1589.058, 424.1890
1590.987, 427.5830
1592.915, 432.8350
1594.844, 438.5670
1596.772, 442.7770
1598.701, 443.9910
1600.629, 444.0300
1602.558, 442.1800
1604.486, 446.8130
1606.415, 454.3240
1608.343, 442.0160
1610.272, 427.3400
1612.200, 429.5560
1614.129, 435.5180
1616.057, 440.4010
1617.985, 445.4080
1619.914, 451.2850
1621.842, 448.9300
1623.771, 440.9670
1625.699, 430.6810
1627.628, 425.5810
1629.556, 435.1080
1631.485, 441.4860
1633.413, 438.3520
1635.342, 433.2870
1637.270, 427.4570
1639.199, 428.4110
1641.127, 432.6410
1643.056, 438.1360
1644.984, 436.7480
1646.912, 420.5010
1648.841, 412.3650
1650.769, 417.5560
1652.698, 426.3480
1654.626, 434.5010
1656.555, 424.7500
1658.483, 414.1730
1660.412, 420.1150
1662.340, 423.1250
1664.269, 417.3140
1666.197, 413.1960
1668.126, 411.6110
1670.054, 412.2530
1671.983, 412.5570
1673.911, 406.4060
1675.839, 403.6510
1677.768, 409.6380
1679.696, 409.4310
1681.625, 402.2030
1683.553, 410.0360
1685.482, 420.9970
1687.410, 406.7550
1689.339, 392.0630
1691.267, 393.5070
1693.196, 392.1350
1695.124, 385.3050
1697.053, 384.9120
1698.981, 388.2850
1700.910, 386.6260
1702.838, 385.3740
1704.766, 391.1570
1706.695, 393.2120
1708.623, 389.5310
1710.552, 386.4590
1712.480, 386.5810
1714.409, 403.1430
1716.337, 413.7370
1718.266, 388.6080
1720.194, 371.9270
1722.123, 373.5620
1724.051, 376.1320
1725.980, 377.9750
1727.908, 375.0570
1729.837, 373.6110
1731.765, 383.8230
1733.693, 387.0320
1735.622, 376.4730
1737.550, 376.1060
1739.479, 382.8910
1741.407, 384.0740
1743.336, 382.4570
1745.264, 379.4890
1747.193, 376.3680
1749.121, 372.5070
1751.050, 375.0890
1752.978, 381.0100
1754.907, 377.7090
1756.835, 374.2200
1758.764, 381.9730
1760.692, 379.3760
1762.620, 356.9840
1764.549, 362.0070
1766.477, 380.8080
1768.406, 374.4460
1770.334, 366.2680
1772.263, 369.5990
1774.191, 377.1410
1776.120, 388.5540
1778.048, 376.6860
1779.977, 356.1190
1781.905, 356.1930
1783.834, 356.2130
1785.762, 344.0020
1787.691, 347.2180
1789.619, 365.2550
1791.547, 356.1630
1793.476, 341.5190
1795.404, 349.5940
1797.333, 357.7940
1799.261, 359.4290
1801.190, 358.5430
1803.118, 355.5230
1805.047, 349.3220
1806.975, 343.1470
1808.904, 337.4380
1810.832, 339.7270
1812.761, 351.8540
1814.689, 345.4560
1816.618, 332.2240
1818.546, 339.3230
1820.474, 344.5120
1822.403, 337.4970
1824.331, 337.5950
1826.260, 345.1460
1828.188, 347.8200
1830.117, 348.1630
1832.045, 350.3850
1833.974, 347.5760
1835.902, 338.3010
1837.831, 329.1800
1839.759, 323.7520
1841.688, 331.5610
1843.616, 340.4490
1845.545, 343.6900
1847.473, 346.7660
1849.401, 349.4420
1851.330, 344.9610
1853.258, 339.5450
1855.187, 341.2920
1857.115, 341.3220
1859.044, 337.8350
1860.972, 334.7070
1862.901, 330.1390
1864.829, 315.8640
1866.758, 308.5910
1868.686, 322.1230
1870.615, 323.5240
1872.543, 315.4820
1874.472, 317.2510
1876.400, 323.0450
1878.328, 331.2820
1880.257, 335.1880
1882.185, 333.9870
1884.114, 321.9460
1886.042, 309.3360
1887.971, 310.4570
1889.899, 313.3640
1891.828, 313.2540
1893.756, 320.9460
1895.685, 330.5100
1897.613, 323.9250
1899.542, 318.7750
1901.470, 329.0710
1903.399, 322.9190
1905.327, 303.5300
1907.255, 289.1850
1909.184, 286.2030
1911.112, 306.1600
1913.041, 310.4320
1914.969, 295.6740
1916.898, 297.8620
1918.826, 303.8600
1920.755, 300.1420
1922.683, 298.2160
1924.612, 301.4910
1926.540, 291.3790
1928.469, 278.8380
1930.397, 280.7730
1932.326, 290.2100
1934.254, 305.5450
1936.182, 305.5040
1938.111, 298.0750
1940.039, 301.4740
1941.968, 302.5220
1943.896, 296.3520
1945.825, 289.9050
1947.753, 285.1260
1949.682, 292.9430
1951.610, 298.9870
1953.539, 295.3620
1955.467, 291.9410
1957.396, 290.1610
1959.324, 285.6070
1961.253, 278.1010
1963.181, 267.4730
1965.109, 270.4370
1967.038, 282.8960
1968.966, 284.2070
1970.895, 281.8180
1972.823, 281.3540
1974.752, 283.2580
1976.680, 283.3520
1978.609, 265.6670
1980.537, 251.9290
1982.466, 265.4300
1984.394, 270.5530
1986.323, 265.4560
1988.251, 269.4940
1990.180, 275.2780
1992.108, 273.8310
1994.036, 271.2820
1995.965, 268.3870
1997.893, 264.0580
1999.822, 260.7620
2001.750, 265.7290
2003.679, 264.6590
2005.607, 256.3760
2007.536, 250.4160
2009.464, 250.1130
2011.393, 255.8780
2013.321, 258.0680
2015.250, 261.0380
2017.178, 259.3630
2019.107, 255.1500
2021.035, 256.3250
2022.964, 256.4630
2024.892, 252.8750
2026.820, 231.9250
2028.749, 220.0810
2030.677, 244.9900
2032.606, 250.9340
2034.534, 239.4510
2036.463, 230.2270
2038.391, 225.7190
2040.320, 229.5110
2042.248, 229.6080
2044.177, 226.9700
2046.105, 231.4690
2048.034, 235.1480
2049.962, 232.8250
2051.891, 226.5720
2053.819, 222.1050
2055.748, 222.4350
2057.676, 229.4120
2059.604, 238.5260
2061.533, 239.4590
2063.461, 237.4280
2065.390, 226.7470
2067.318, 221.1500
2069.247, 223.0630
2071.175, 222.4290
2073.104, 224.7220
2075.032, 229.4610
2076.960, 228.8330
2078.889, 226.6990
2080.817, 230.3660
2082.746, 232.8870
2084.674, 231.8700
2086.603, 228.4140
2088.531, 219.2340
2090.460, 186.1890
2092.388, 177.8420
2094.317, 204.2660
2096.245, 217.7580
2098.174, 223.2840
2100.102, 227.9830
2102.031, 230.5920
2103.959, 230.0820
2105.887, 225.5740
2107.816, 219.9310
2109.744, 209.4540
2111.673, 204.7380
2113.601, 210.6140
2115.530, 220.3490
2117.458, 221.4100
2119.387, 215.7920
2121.315, 214.9970
2123.244, 213.6050
2125.172, 212.8340
2127.101, 212.7990
2129.029, 213.0830
2130.958, 216.3440
2132.886, 214.6080
2134.814, 204.5990
2136.743, 198.5200
2138.671, 194.8620
2140.600, 193.8980
2142.528, 197.6520
2144.457, 210.1310
2146.385, 203.5860
2148.314, 186.6080
2150.242, 173.9860
2152.171, 178.3660
2154.099, 191.5490
2156.028, 187.4210
2157.956, 188.4570
2159.885, 201.4140
2161.813, 194.3730
2163.741, 186.1140
2165.670, 189.0230
2167.598, 186.7440
2169.527, 180.4620
2171.455, 184.0500
2173.384, 190.2900
2175.312, 190.7330
2177.241, 185.1250
2179.169, 182.1700
2181.098, 187.9020
2183.026, 188.5610
2184.955, 184.0180
2186.883, 183.4210
2188.812, 186.7190
2190.740, 188.3730
2192.668, 185.8260
2194.597, 185.0840
2196.525, 183.7020
2198.454, 179.6960
2200.382, 174.6100
2202.311, 176.8490
2204.239, 182.1730
2206.168, 178.1160
2208.096, 170.4050
2210.025, 172.5680
2211.953, 180.9370
2213.882, 184.8740
2215.810, 186.7510
2217.739, 185.5850
2219.667, 180.1240
2221.595, 176.2990
2223.524, 176.6090
2225.452, 174.1950
2227.381, 168.8310
2229.309, 169.2120
2231.238, 173.3870
2233.166, 160.5600
2235.095, 149.9490
2237.023, 160.1100
2238.952, 153.2990
2240.880, 142.6860
2242.809, 155.7220
2244.737, 158.2380
2246.666, 149.7730
2248.594, 145.6530
2250.522, 143.9840
2252.451, 146.7530
2254.379, 152.0980
2256.308, 157.5100
2258.236, 150.5170
2260.165, 145.0540
2262.093, 147.1410
2264.022, 146.8880
2265.950, 145.5610
2267.879, 144.6170
2269.807, 144.7420
2271.736, 147.4260
2273.664, 145.5060
2275.593, 137.0250
2277.521, 130.9580
2279.449, 139.7600
2281.378, 142.4310
2283.306, 137.4990
2285.235, 139.3500
2287.163, 142.4980
2289.092, 143.8110
2291.020, 147.7760
2292.949, 146.5380
2294.877, 132.0580
2296.806, 134.9020
2298.734, 146.5910
2300.663, 146.0130
2302.591, 144.8320
2304.520, 146.1630
2306.448, 135.9160
2308.376, 128.1720
2310.305, 133.1510
2312.233, 135.6620
2314.162, 136.2960
2316.090, 138.1480
2318.019, 138.5620
2319.947, 137.2060
2321.876, 132.5090
2323.804, 130.2160
2325.733, 132.1490
2327.661, 135.9410
2329.590, 138.7750
2331.518, 141.4080
2333.447, 142.3270
2335.375, 139.0890
2337.303, 128.8760
2339.232, 124.9400
2341.160, 122.8300
2343.089, 118.1310
2345.017, 118.9930
2346.946, 124.6910
2348.874, 127.3950
2350.803, 123.1180
2352.731, 113.3300
2354.660, 113.8380
2356.588, 116.2230
2358.517, 115.5810
2360.445, 119.5370
2362.374, 121.7980
2364.302, 117.4640
2366.230, 117.2310
2368.159, 119.0900
2370.087, 119.9210
2372.016, 120.2340
2373.944, 120.2140
2375.873, 122.6110
2377.801, 115.1930
2379.730, 100.8330
2381.658, 107.5740
2383.587, 111.6550
2385.515, 106.7550
2387.444, 105.5050
2389.372, 107.8940
2391.301, 114.6870
2393.229, 112.7880
2395.157, 110.3930
2397.086, 113.5760
2399.014, 114.2760
2400.943, 113.2760
2402.871, 115.2430
2404.800, 115.1660
2406.728, 112.0480
2408.657, 106.7120
2410.585, 105.9330
2412.514, 106.8040
2414.442, 94.41900
2416.371, 96.05400
2418.299, 112.1710
2420.228, 101.7930
2422.156, 91.84100
2424.084, 93.96500
2426.013, 90.59100
2427.941, 87.31800
2429.870, 90.71900
2431.798, 101.6960
2433.727, 108.2510
2435.655, 98.99800
2437.584, 95.49300
2439.512, 94.60900
2441.441, 94.81700
2443.369, 98.67200
2445.298, 100.2310
2447.226, 89.41800
2449.155, 87.20600
2451.083, 92.41400
2453.011, 97.18600
2454.940, 96.16700
2456.868, 90.59200
2458.797, 80.85900
2460.725, 77.34200
2462.654, 82.53200
2464.582, 86.72800
2466.511, 92.16300
2468.439, 93.68100
2470.368, 91.55800
2472.296, 92.09100
2474.225, 90.31300
2476.153, 88.30400
2478.082, 85.15500
2480.010, 78.18300
2481.938, 81.75400
2483.867, 85.33500
2485.795, 81.89600
2487.724, 80.21200
2489.652, 85.29600
2491.581, 91.35700
2493.509, 91.98300
2495.438, 92.17500
2497.366, 87.31200
2499.295, 82.30700
2501.223, 83.13400
2503.152, 83.89700
2505.080, 79.92000
2507.009, 79.80700
2508.937, 77.59500
2510.865, 77.50600
2512.794, 80.34500
2514.722, 70.94300
2516.651, 73.82000
2518.579, 82.66600
2520.508, 88.41100
2522.436, 82.06400
2524.365, 74.12700
2526.293, 73.75900
2528.222, 70.87800
2530.150, 74.45200
2532.079, 76.10600
2534.007, 70.86800
2535.936, 68.51400
2537.864, 74.17800
2539.792, 74.07900
2541.721, 65.65000
2543.649, 64.00200
2545.578, 61.17600
2547.506, 52.98200
2549.435, 64.63400
2551.363, 70.32500
2553.292, 58.87900
2555.220, 55.45400
2557.149, 59.09400
2559.077, 61.13600
2561.006, 56.66300
2562.934, 52.47100
2564.863, 52.74000
2566.791, 52.26500
2568.719, 53.83600
2570.648, 66.69800
2572.576, 61.03600
2574.505, 55.87500
2576.433, 61.56200
2578.362, 61.53200
2580.290, 63.68600
2582.219, 65.09400
2584.147, 70.48500
2586.076, 68.52100
2588.004, 65.52100
2589.933, 62.17700
2591.861, 65.11300
2593.790, 67.68900
2595.718, 59.10100
2597.646, 55.13800
2599.575, 56.23500
2601.503, 59.56000
2603.432, 60.17400
2605.360, 55.88400
2607.289, 50.63700
2609.217, 55.23400
2611.146, 58.35600
2613.074, 56.66700
2615.003, 56.22300
2616.931, 55.50000
2618.860, 51.64000
2620.788, 47.92200
2622.717, 53.46000
2624.645, 59.54600
2626.573, 51.27200
2628.502, 48.25100
2630.430, 50.20500
2632.359, 55.48200
2634.287, 64.62800
2636.216, 59.82800
2638.144, 53.25700
2640.073, 53.95400
2642.001, 54.20800
2643.930, 41.99600
2645.858, 38.35500
2647.787, 48.12400
2649.715, 47.31600
2651.644, 50.99800
2653.572, 50.58900
2655.500, 43.29700
2657.429, 47.71700
2659.357, 45.50100
2661.286, 43.74500
2663.214, 41.98000
2665.143, 36.21000
2667.071, 46.29800
2669.000, 47.76000
2670.928, 44.33500
2672.857, 41.95900
2674.785, 49.83300
2676.714, 54.00500
2678.642, 48.07900
2680.571, 43.37400
2682.499, 48.43800
2684.427, 50.14100
2686.356, 49.65200
2688.284, 43.26700
2690.213, 42.79200
2692.141, 41.95700
2694.070, 34.74700
2695.998, 31.46200
2697.927, 36.26100
2699.855, 38.51000
2701.784, 38.20700
2703.712, 37.33100
2705.641, 40.81500
2707.569, 38.03900
2709.498, 26.75600
2711.426, 29.87800
2713.354, 46.03900
2715.283, 40.28300
2717.211, 32.44600
2719.140, 38.10100
2721.068, 38.26800
2722.997, 32.79900
2724.925, 32.54700
2726.854, 32.09200
2728.782, 28.58900
2730.711, 26.28300
2732.639, 36.69800
2734.568, 35.40200
2736.496, 33.45900
2738.425, 41.97300
2740.353, 44.45600
2742.281, 39.81800
2744.210, 36.90100
2746.138, 30.33400
2748.067, 31.03500
2749.995, 42.76000
2751.924, 37.81300
2753.852, 30.54200
2755.781, 28.09000
2757.709, 41.93200
2759.638, 43.96400
2761.566, 41.57300
2763.495, 38.02500
2765.423, 35.48500
2767.352, 36.54600
2769.280, 38.24400
2771.208, 37.78800
2773.137, 35.93500
2775.065, 32.97800
2776.994, 33.56100
2778.922, 36.18500
2780.851, 37.21000
2782.779, 35.35500
2784.708, 32.86000
2786.636, 31.08600
2788.565, 26.49100
2790.493, 29.39800
2792.422, 34.37700
2794.350, 35.78900
2796.279, 16.39900
2798.207, 18.51900
2800.135, 33.95500
2802.064, 30.57600
2803.992, 27.14600
2805.921, 27.93400
2807.849, 34.81500
2809.778, 34.97100
2811.706, 30.85900
2813.635, 25.47300
2815.563, 26.25200
2817.492, 23.54900
2819.420, 20.64500
2821.349, 27.72000
2823.277, 24.74700
2825.206, 23.97500
2827.134, 34.58600
2829.063, 22.26800
2830.991, 16.01800
2832.919, 21.04400
2834.848, 24.56100
2836.776, 23.58900
2838.705, 22.52800
2840.633, 22.13000
2842.562, 23.98400
2844.490, 25.74000
2846.419, 22.41200
2848.347, 27.77300
2850.276, 33.52900
2852.204, 31.64900
2854.133, 12.26200
2856.061, 19.84500
2857.990, 32.55300
2859.918, 27.28300
2861.846, 25.59200
2863.775, 28.43100
2865.703, 28.05200
2867.632, 18.62200
2869.560, 18.21200
2871.489, 20.80700
2873.417, 16.42400
2875.346, 28.44300
2877.274, 31.52400
2879.203, 24.72000
2881.131, 35.37100
2883.060, 33.34300
2884.988, 25.60000
2886.917, 24.21400
2888.845, 21.17300
2890.773, 13.54100
2892.702, 9.544000
2894.630, 14.53000
2896.559, 16.59100
2898.487, 16.80700
2900.416, 20.03400
2902.344, 15.40600
2904.273, 9.047000
2906.201, 14.02100
2908.130, 28.08200
2910.058, 23.24700
2911.987, 17.55900
2913.915, 28.92800
2915.844, 20.31800
2917.772, 10.34700
2919.700, 2.150000
2921.629, 6.810000
2923.557, 8.044000
2925.486, 7.993000
2927.414, 18.04400
2929.343, 30.13800
2931.271, 28.43400
2933.200, 20.86400
2935.128, 19.35300
2937.057, 16.91400
2938.985, 14.16100
2940.914, 17.30600
2942.842, 22.22400
2944.771, 22.30000
2946.699, 20.01700
2948.627, 6.384000
2950.556, 8.932000
2952.484, 12.54400
2954.413, 16.28900
2956.341, 13.13400
2958.270, 10.82500
2960.198, 12.56900
2962.127, 16.74600
2964.055, 13.66200
2965.984, 13.96200
2967.912, 5.701000
2969.841, 11.76800
2971.769, 22.29500
2973.698, 27.76500
2975.626, 21.58700
2977.554, 18.35600
2979.483, 13.31000
2981.411, 5.244000
2983.340, 9.910000
2985.268, 8.109000
2987.197, 7.279000
2989.125, 8.277000
2991.054, 7.381000
2992.982, 8.131000
2994.911, 15.55000
2996.839, 20.36600
2998.768, 20.31200
3000.696, 10.22800
3002.625, 0.1890000
3004.553, 2.885000
3006.481, 12.58700
3008.410, 16.61800
3010.338, 14.84200
3012.267, 11.96100
3014.195, 12.02600
3016.124, 9.561000
3018.052, 9.104000
3019.981, 21.20500
3021.909, 7.149000
3023.838, -11.68100
3025.766, 0.8560000
3027.695, 10.53000
3029.623, 8.633000
3031.552, 0.5910000
3033.480, 5.850000
3035.408, 9.946000
3037.337, 10.38300
3039.265, 17.02500
3041.194, 12.10200
3043.122, 9.262000
3045.051, 7.157000
3046.979, 9.920000
3048.908, 18.71600
3050.836, 15.34400
3052.765, 10.59000
3054.693, 19.80500
3056.622, 1.298000
3058.550, 1.480000
3060.479, 13.96500
3062.407, -1.309000
3064.335, 8.584000
3066.264, 27.18300
3068.192, 29.51300
3070.121, 3.694000
3072.049, -2.164000
3073.978, 3.272000
3075.906, 5.603000
3077.835, 2.387000
3079.763, -10.65600
3081.692, -7.145000
3083.620, 10.59700
3085.549, 9.725000
3087.477, 9.809000
3089.406, 10.43300
3091.334, 0.5100000
3093.262, -0.1260000
3095.191, 9.798000
3097.119, 9.004000
3099.048, -2.572000
3100.976, -0.3930000
3102.905, 2.485000
3104.833, 6.617000
3106.762, 14.63500
3108.690, 13.26600
3110.619, 9.374000
3112.547, 10.91500
3114.476, -3.680000
3116.404, -16.51400
3118.333, -8.629000
3120.261, 5.569000
3122.189, 9.643000
3124.118, 14.89500
3126.046, 22.07200
3127.975, 24.14500
3129.903, 16.80600
3131.832, 11.57400
3133.760, 8.950000
3135.689, 2.041000
3137.617, -26.71300
3139.546, -9.646000
3141.474, 0.2160000
3143.403, -4.301000
3145.331, 15.56800
3147.260, 26.75300
3149.188, 24.01600
3151.116, 18.46200
3153.045, 21.39000
3154.973, 10.47900
3156.902, 10.71900
3158.830, 17.55400
3160.759, 12.72300
3162.687, -0.7990000
3164.616, 7.211000
3166.544, 20.17200
3168.473, 3.459000
3170.401, -2.051000
3172.330, 10.91100
3174.258, 16.78800
3176.187, -6.637000
3178.115, -7.185000
3180.043, 8.140000
3181.972, 15.11200
3183.900, -1.464000
3185.829, -10.43200
3187.757, -10.69400
3189.686, 2.164000
3191.614, 23.43700
3193.543, 20.57800
3195.471, 12.69300
3197.400, 9.115000
3199.328, 10.53200
3201.257, 11.70200
3203.185, 16.43400
3205.114, 18.45900
3207.042, 15.36500
3208.970, 3.580000
3210.899, 8.760000
3212.827, 7.472000
3214.756, 1.855000
3216.684, 10.49400
3218.613, 12.34300
3220.541, 9.821000
3222.470, 6.967000
3224.398, 6.898000
3226.327, 9.559000
3228.255, 3.591000
3230.184, -2.336000
3232.112, -1.054000
3234.041, 11.35200
3235.969, 8.797000
3237.897, 1.957000
3239.826, -3.333000
3241.754, -7.849000
3243.683, 0.2440000
3245.611, 7.662000
3247.540, 5.960000
3249.468, -4.933000
3251.397, -2.172000
3253.325, 6.037000
3255.254, 9.001000
3257.182, 5.072000
3259.111, 11.28600
3261.039, 13.87000
3262.968, -2.789000
3264.896, -22.46800
3266.824, 5.793000
3268.753, 2.107000
3270.681, -10.57000
3272.610, -12.72400
3274.538, 6.135000
3276.467, 1.426000
3278.395, -11.16500
3280.324, -10.87100
3282.252, 1.322000
3284.181, -9.811000
3286.109, -12.76000
3288.038, 3.707000
3289.966, 21.25300
3291.895, 6.749000
3293.823, -3.808000
3295.751, -3.968000
3297.680, -2.882000
3299.608, -4.626000
3301.537, 7.649000
3303.465, -1.088000
3305.394, 2.037000
3307.322, 12.43400
3309.251, 2.733000
3311.179, 2.156000
3313.108, 4.621000
3315.036, 3.662000
3316.965, -1.499000
3318.893, 8.044000
3320.822, 8.721000
3322.750, 13.76100
3324.678, 18.44600
3326.607, 7.157000
3328.535, 4.486000
3330.464, 12.27100
3332.392, 20.09600
3334.321, 21.93200
3336.249, 25.16500
3338.178, 17.79100
3340.106, 3.596000
3342.035, -0.5950000
3343.963, 13.15600
3345.892, 16.20800
3347.820, 5.272000
3349.749, -7.845000
3351.677, -8.710000
3353.605, 17.11900
3355.534, 14.99300
3357.462, 11.86000
3359.391, -7.1000002E-02
3361.319, -16.22500
3363.248, 5.265000
3365.176, -0.3010000
3367.105, 9.800000
3369.033, 13.86500
3370.962, -9.457000
3372.890, 5.105000
3374.819, -6.675000
3376.747, -1.813000
3378.676, 11.67400
3380.604, -0.4880000
3382.532, 2.721000
3384.461, 3.280000
3386.389, 0.5380000
3388.318, -1.252000
3390.246, 10.01900
3392.175, 17.41400
3394.103, 23.53600
3396.032, 20.08800
3397.960, 8.201000
3399.889, 11.47700
3401.817, 14.24500
3403.746, 9.570000
3405.674, 5.060000
3407.603, 8.639000
3409.531, 19.94000
3411.459, 14.81400
3413.388, 14.97200
3415.316, 22.10900
3417.245, 29.02000
3419.173, 24.71600
3421.102, 0.3180000
3423.030, 2.560000
3424.959, 7.110000
3426.887, -10.06700
3428.816, 7.567000
3430.744, -10.60100
3432.673, -8.194000
3434.601, 5.987000
3436.530, 2.175000
3438.458, -23.68900
3440.386, -32.79600
3442.315, -13.43000
3444.243, 1.637000
3446.172, -6.320000
3448.100, 15.71900
3450.029, 4.304000
3451.957, -11.69100
3453.886, -8.245000
3455.814, 10.94800
3457.743, 0.5640000
3459.671, -18.41100
3461.600, -15.17700
3463.528, -8.053000
3465.457, -8.941000
3467.385, 4.867000
3469.313, 10.36500
3471.242, 8.267000
3473.170, -6.680000
3475.099, -19.97900
3477.027, 6.294000
3478.956, 11.38600
3480.884, 12.36200
3482.813, 5.077000
3484.741, -1.725000
3486.670, 10.66700
3488.598, 4.128000
3490.527, 13.96700
3492.455, 17.06700
3494.384, 11.39800
3496.312, 8.200000
3498.240, 5.636000
3500.169, 5.624000
3502.097, 9.737000
3504.026, 7.426000
3505.954, -1.779000
3507.883, 5.673000
3509.811, 2.390000
3511.740, 3.901000
3513.668, 3.810000
3515.597, 0.1610000
3517.525, -0.8570000
3519.454, -5.416000
3521.382, -6.472000
3523.311, -3.169000
3525.239, 1.719000
3527.167, 6.260000
3529.096, 13.93700
3531.024, 6.230000
3532.953, 2.026000
3534.881, 6.890000
3536.810, 14.56800
3538.738, 13.59500
3540.667, -10.16900
3542.595, 9.930000
3544.524, 17.16700
3546.452, 8.828000
3548.381, 11.44500
3550.309, 31.20800
3552.238, 10.71000
3554.166, 11.70500
3556.094, 24.48800
3558.023, 29.67100
3559.951, 23.56500
3561.880, 10.67700
3563.808, 16.70400
3565.737, 23.64300
3567.665, 14.67400
3569.594, -2.580000
3571.522, 15.48800
3573.451, -7.466000
3575.379, 5.196000
3577.308, 7.781000
3579.236, -1.372000
3581.165, 3.587000
3583.093, 23.03800
3585.021, 13.34500
3586.950, 2.070000
3588.878, 8.376000
3590.807, 19.76400
3592.735, 13.49600
3594.664, 6.530000
3596.592, -7.914000
3598.521, 3.960000
3600.449, 15.91600
3602.378, 7.301000
3604.306, -14.23900
3606.235, -3.130000
3608.163, -0.5350000
3610.092, 8.959000
3612.020, 9.000000
3613.948, 1.512000
3615.877, 8.056000
3617.805, 0.7160000
3619.734, -4.746000
3621.662, 3.332000
3623.591, 9.118000
3625.519, 0.4400000
3627.448, -13.18600
3629.376, 30.81600
3631.305, 16.18500
3633.233, 8.817000
3635.162, 6.569000
3637.090, 4.796000
3639.019, 12.75500
3640.947, -2.731000
3642.875, -4.769000
3644.804, -3.411000
3646.732, -4.159000
3648.661, -1.043000
3650.589, 11.60200
3652.518, 26.34000
3654.446, -3.935000
3656.375, -11.08400
3658.303, -6.707000
3660.232, -0.6720000
3662.160, 4.863000
3664.089, -3.035000
3666.017, 16.09000
3667.946, 3.828000
3669.874, 3.434000
3671.802, 5.384000
3673.731, -3.159000
3675.659, -7.476000
3677.588, 0.7590000
3679.516, -6.983000
3681.445, -10.93700
3683.373, -7.981000
3685.302, -11.23100
3687.230, -25.28700
3689.159, -22.51700
3691.087, -24.60100
3693.016, -5.067000
3694.944, 2.157000
3696.873, -7.198000
3698.801, -12.54200
3700.729, 2.638000
3702.658, 10.88700
3704.586, 14.99500
3706.515, -4.120000
3708.443, -2.605000
3710.372, 3.985000
3712.300, -5.830000
3714.229, 1.504000
3716.157, 6.198000
3718.086, 15.67300
3720.014, -4.690000
3721.943, -1.306000
3723.871, 16.15100
3725.800, 4.233000
3727.728, -5.218000
3729.656, -8.155000
3731.585, -16.45700
3733.513, 10.62200
3735.442, 13.07400
3737.370, -5.801000
3739.299, 7.368000
3741.227, 15.39600
3743.156, 0.7540000
3745.084, -7.541000
3747.013, -0.1140000
3748.941, -3.429000
3750.870, -7.158000
3752.798, 9.790000
3754.727, -2.946000
3756.655, 6.009000
3758.583, -17.11500
3760.512, -5.800000
3762.440, -2.510000
3764.369, -15.01900
3766.297, -14.20600
3768.226, -15.28200
3770.154, -11.57700
3772.083, -17.12300
3774.011, -2.973000
3775.940, -6.985000
3777.868, -21.30600
3779.797, -19.83300
3781.725, -11.07500
3783.654, -0.4590000
3785.582, -10.62900
3787.510, -1.465000
3789.439, -8.853000
3791.367, -15.06900
3793.296, -9.580000
3795.224, -8.416000
3797.153, -4.140000
3799.081, 16.37600
3801.010, -6.312000
3802.938, 3.863000
3804.867, 9.133000
3806.795, -0.6260000
3808.724, -4.486000
3810.652, -1.516000
3812.581, -9.918000
3814.509, -1.441000
3816.438, 1.972000
3818.366, 3.238000
3820.294, 4.351000
3822.223, 2.848000
3824.151, -1.123000
3826.080, -3.777000
3828.008, -13.00600
3829.937, 3.642000
3831.865, 0.6980000
3833.794, 9.738000
3835.722, 13.08600
3837.651, 0.5330000
3839.579, -7.937000
3841.508, 5.259000
3843.436, 10.00200
3845.365, 7.316000
3847.293, 5.5000000E-02
3849.221, -11.55600
3851.150, 0.4880000
3853.078, 10.54400
3855.007, -3.677000
3856.935, -11.40700
3858.864, -4.073000
3860.792, -12.59300
3862.721, -0.6730000
3864.649, 2.453000
3866.578, -6.649000
3868.506, 4.270000
3870.435, 18.94400
3872.363, -1.162000
3874.292, -3.902000
3876.220, 3.940000
3878.148, 5.932000
3880.077, -7.078000
3882.005, -14.91500
3883.934, -10.05500
3885.862, -3.389000
3887.791, -5.820000
3889.719, -10.42200
3891.648, 11.79100
3893.576, 1.434000
3895.505, 9.466000
3897.433, -6.760000
3899.362, -3.877000
3901.290, -4.142000
3903.219, -14.20500
3905.147, -14.98600
3907.075, -10.99700
3909.004, -11.46900
3910.932, 8.205000
3912.861, -12.54200
3914.789, -11.61900
3916.718, 1.355000
3918.646, -4.236000
3920.575, -12.22300
3922.503, -10.84900
3924.432, -17.26600
3926.360, -12.89900
3928.289, -1.203000
3930.217, -20.74700
3932.146, 3.090000
3934.074, 6.873000
3936.002, -4.244000
3937.931, -3.754000
3939.859, -1.131000
3941.788, -8.180000
3943.716, -2.019000
3945.645, 15.07300
3947.573, -16.73500
3949.502, -21.42100
3951.430, 6.589000
3953.359, 12.51900
3955.287, 17.76100
3957.216, 9.191000
3959.144, 1.017000
3961.073, 19.69400
3963.001, 20.55000
3964.929, 10.73900
3966.858, 7.567000
3968.786, 4.315000
3970.715, 7.997000
3972.643, 3.837000
3974.572, -3.659000
3976.500, 2.244000
3978.429, 6.358000
3980.357, -0.4230000
3982.286, 2.716000
3984.214, -0.8480000
3986.143, -10.05300
3988.071, -12.19100
3990.000, -14.23600
3991.928, -20.70200
3993.856, -13.58900
3995.785, -15.87400
3997.713, -16.93600
3999.642, -2.357000
4001.570, 13.88200
4003.499, 13.78300
4005.427, -7.053000
4007.356, 13.37900
4009.284, 13.86600
4011.213, 9.140000
4013.141, 3.072000
4015.070, 2.255000
4016.998, 5.954000
4018.927, -9.066000
4020.855, -21.85400
4022.783, -10.70000
4024.712, 1.239000
4026.640, 3.258000
4028.569, -23.90200
4030.497, 1.978000
4032.426, 4.398000
4034.354, -5.314000
4036.283, -2.735000
4038.211, 0.2660000
4040.140, 10.12500
4042.068, 5.929000
4043.997, 10.10100
4045.925, 23.17500
4047.854, 7.558000
4049.782, 10.09200
4051.710, 5.288000
4053.639, -17.27500
4055.567, -21.39700
4057.496, -21.04400
4059.424, -20.00600
4061.353, 8.388000
4063.281, 11.71500
4065.210, -1.541000
4067.138, 7.435000
4069.067, 11.96600
4070.995, 1.823000
4072.924, 12.52700
4074.852, 3.847000
4076.781, -13.55100
4078.709, -21.67000
4080.637, 6.429000
4082.566, 3.678000
4084.494, -13.40600
4086.423, -7.081000
4088.351, 3.444000
4090.280, 3.828000
4092.208, 1.516000
4094.137, -7.153000
4096.065, -12.13300
4097.994, -2.828000
4099.922, 2.525000
4101.851, 3.0000000E-03
4103.779, 2.630000
4105.708, 10.91500
4107.636, 12.05400
4109.564, 12.37000
4111.493, -31.90500
4113.421, -16.63900
4115.350, 0.4030000
4117.278, 13.61700
4119.207, 15.36600
4121.135, -5.110000
4123.063, 2.819000
4124.992, 11.23200
4126.920, -3.403000
4128.849, 11.33000
4130.777, 3.589000
4132.706, 4.077000
4134.634, -2.674000
4136.563, -0.3580000
4138.491, 2.580000
4140.420, -14.20500
4142.348, -2.082000
4144.277, -32.23600
4146.205, -14.16900
4148.134, -7.434000
4150.062, 7.429000
4151.991, 10.18600
4153.919, 15.46600
4155.848, 15.80900
4157.776, 3.534000
4159.705, 1.723000
4161.633, 0.9430000
4163.562, -3.552000
4165.490, -4.477000
4167.418, 8.629000
4169.347, -13.26700
4171.275, 10.73700
4173.204, -7.967000
4175.132, -3.529000
4177.061, 2.843000
4178.989, 5.902000
4180.917, 15.10300
4182.846, -10.10500
4184.774, -9.052000
4186.703, 16.51100
4188.631, 5.553000
4190.560, -6.574000
4192.488, 6.953000
4194.417, 13.85400
4196.345, 8.657000
4198.274, 8.889000
4200.202, -3.223000
4202.131, -25.72300
4204.059, 21.69900
4205.988, -6.948000
4207.916, -36.84800
4209.845, -8.272000
4211.773, -20.82900
4213.702, 6.499000
4215.630, 13.01900
4217.559, -16.40100
4219.487, -6.966000
4221.416, -2.461000
4223.344, -8.403000
4225.272, 5.806000
4227.201, 14.85000
4229.129, -18.51300
4231.058, -18.15200
4232.986, -10.87600
4234.915, -7.474000
4236.843, 1.421000
4238.771, -1.776000
4240.700, -5.090000
4242.628, 4.776000
4244.557, 4.132000
4246.485, -0.1640000
4248.414, 16.61500
4250.342, 14.06300
4252.271, 4.170000
4254.199, 0.3200000
4256.128, 5.308000
4258.056, -8.134000
4259.985, 10.49700
4261.913, 14.83600
4263.842, 9.029000
4265.770, 16.16400
4267.699, 30.29500
4269.627, 11.83400
4271.556, 1.245000
4273.484, 2.385000
4275.413, -8.250000
4277.341, -7.918000
4279.270, -0.3840000
4281.198, -0.2330000
4283.126, 6.797000
4285.055, -12.41400
4286.983, -1.202000
4288.912, -3.988000
4290.840, -3.933000
4292.769, -4.983000
4294.697, -7.916000
4296.625, -0.4610000
4298.554, 3.587000
4300.482, -1.308000
4302.411, 1.438000
4304.339, -0.1540000
4306.268, -8.841000
4308.196, -6.067000
4310.125, -2.952000
4312.053, -8.010000
4313.982, 1.792000
4315.910, 17.20900
4317.839, 3.017000
4319.767, -8.627000
4321.696, -3.863000
4323.624, 10.52200
4325.553, 0.2700000
4327.481, -13.69800
4329.410, 7.522000
4331.338, 12.93600
4333.267, -5.579000
4335.195, -0.7300000
4337.124, 3.498000
4339.052, -32.04500
4340.980, 7.182000
4342.909, -20.63000
4344.837, -11.08600
4346.766, 5.388000
4348.694, 2.925000
4350.623, -6.831000
4352.551, 16.99300
##END=



