##NAMES=Loparite
##RRUFFID=R070251
##IDEAL CHEMISTRY=(Na_0.5_REE_0.5_)TiO_3_
##LOCALITY=Maly Mannepakhk Mt (Malyi Mannepakhk Mt), Khibiny Massif, Kola Peninsula, Murmanskaja Oblast', Northern Region, Russia
##OWNER=RRUFF
##SOURCE=Michael Scott
##DESCRIPTION=Black interpenetrating cubes associated with green aegirine and sugary microcline
##STATUS=The identification of this mineral is not yet confirmed
##URL=https://www.rruff.net/odr/rruff_sample/R070251
##FILETYPE=Raman RAW
##RAMAN WAVELENGTH=785

153.1863, 2202.456
155.1147, 2295.391
157.0432, 2353.636
158.9717, 2407.595
160.9001, 2475.022
162.8286, 2549.391
164.7571, 2619.694
166.6855, 2687.596
168.6140, 2743.784
170.5425, 2778.281
172.4709, 2817.486
174.3994, 2877.410
176.3279, 2939.856
178.2563, 2988.365
180.1848, 3023.512
182.1133, 3058.235
184.0417, 3092.332
185.9702, 3126.760
187.8987, 3165.341
189.8271, 3199.323
191.7556, 3217.260
193.6841, 3230.366
195.6125, 3260.505
197.5410, 3313.410
199.4695, 3354.494
201.3979, 3381.969
203.3264, 3402.075
205.2549, 3407.845
207.1833, 3415.995
209.1118, 3443.070
211.0403, 3483.225
212.9688, 3509.125
214.8972, 3514.125
216.8257, 3529.257
218.7542, 3561.156
220.6826, 3594.942
222.6111, 3622.444
224.5396, 3649.598
226.4680, 3685.732
228.3965, 3729.543
230.3250, 3756.728
232.2534, 3763.322
234.1819, 3772.690
236.1104, 3789.431
238.0388, 3809.101
239.9673, 3832.554
241.8958, 3855.514
243.8242, 3869.276
245.7527, 3873.789
247.6812, 3893.440
249.6096, 3936.498
251.5381, 3961.356
253.4666, 3937.354
255.3950, 3920.741
257.3235, 3949.511
259.2520, 3998.112
261.1804, 4024.166
263.1089, 4026.680
265.0374, 4039.642
266.9658, 4066.335
268.8943, 4091.232
270.8228, 4109.847
272.7512, 4125.602
274.6797, 4140.560
276.6082, 4153.650
278.5366, 4161.040
280.4651, 4163.200
282.3936, 4173.082
284.3220, 4192.475
286.2505, 4213.087
288.1790, 4238.277
290.1074, 4256.320
292.0359, 4255.679
293.9644, 4248.793
295.8928, 4252.881
297.8213, 4267.295
299.7498, 4284.002
301.6782, 4303.995
303.6067, 4320.029
305.5352, 4327.944
307.4636, 4335.060
309.3921, 4342.788
311.3206, 4352.169
313.2490, 4366.019
315.1775, 4382.719
317.1060, 4395.016
319.0344, 4402.670
320.9629, 4408.760
322.8914, 4407.815
324.8198, 4417.133
326.7483, 4455.854
328.6768, 4492.066
330.6052, 4494.273
332.5337, 4477.643
334.4622, 4477.866
336.3906, 4493.672
338.3191, 4512.871
340.2476, 4535.473
342.1760, 4557.621
344.1045, 4590.470
346.0330, 4608.039
347.9614, 4577.638
349.8899, 4538.016
351.8184, 4547.916
353.7468, 4593.775
355.6753, 4632.551
357.6038, 4663.302
359.5322, 4679.014
361.4607, 4665.772
363.3892, 4655.619
365.3176, 4654.992
367.2461, 4661.016
369.1746, 4680.349
371.1030, 4700.828
373.0315, 4695.726
374.9600, 4669.418
376.8884, 4658.481
378.8169, 4673.260
380.7454, 4681.530
382.6738, 4676.568
384.6023, 4666.926
386.5308, 4648.336
388.4592, 4632.558
390.3877, 4636.461
392.3162, 4648.923
394.2446, 4647.872
396.1731, 4633.113
398.1016, 4617.010
400.0300, 4596.231
401.9585, 4583.995
403.8870, 4587.628
405.8154, 4591.755
407.7439, 4593.587
409.6724, 4590.507
411.6008, 4575.542
413.5293, 4555.407
415.4578, 4542.284
417.3862, 4536.505
419.3147, 4537.013
421.2432, 4558.058
423.1716, 4557.022
425.1001, 4511.195
427.0286, 4470.230
428.9570, 4451.183
430.8855, 4444.792
432.8140, 4452.616
434.7424, 4463.470
436.6709, 4457.468
438.5994, 4434.622
440.5278, 4409.475
442.4563, 4375.208
444.3848, 4354.736
446.3132, 4356.730
448.2417, 4360.038
450.1702, 4366.044
452.0986, 4364.360
454.0271, 4340.170
455.9556, 4309.951
457.8840, 4294.269
459.8125, 4290.794
461.7410, 4285.829
463.6694, 4282.033
465.5979, 4266.354
467.5264, 4224.877
469.4548, 4199.120
471.3833, 4208.855
473.3118, 4213.775
475.2402, 4184.420
477.1687, 4155.126
479.0972, 4156.573
481.0256, 4174.176
482.9541, 4181.470
484.8826, 4178.594
486.8110, 4170.073
488.7395, 4150.830
490.6680, 4141.119
492.5964, 4147.401
494.5249, 4148.549
496.4534, 4137.471
498.3818, 4123.405
500.3103, 4105.525
502.2388, 4092.532
504.1672, 4094.233
506.0957, 4104.892
508.0242, 4113.963
509.9526, 4121.350
511.8811, 4125.010
513.8096, 4125.978
515.7380, 4117.113
517.6665, 4093.042
519.5950, 4074.392
521.5234, 4070.690
523.4519, 4065.531
525.3804, 4043.050
527.3088, 4024.152
529.2373, 4031.480
531.1658, 4046.898
533.0942, 4037.625
535.0227, 4009.233
536.9512, 3994.502
538.8796, 3994.472
540.8081, 3998.479
542.7366, 4008.616
544.6650, 4011.048
546.5935, 4000.412
548.5220, 3988.559
550.4504, 3979.469
552.3789, 3971.064
554.3074, 3961.992
556.2358, 3953.367
558.1643, 3948.207
560.0928, 3943.514
562.0212, 3929.500
563.9497, 3908.563
565.8782, 3901.739
567.8066, 3909.126
569.7351, 3920.133
571.6636, 3936.241
573.5920, 3942.941
575.5205, 3932.207
577.4490, 3922.248
579.3774, 3920.424
581.3059, 3919.978
583.2344, 3919.764
585.1628, 3917.556
587.0913, 3909.395
589.0198, 3898.808
590.9482, 3889.121
592.8767, 3882.671
594.8052, 3892.547
596.7336, 3917.064
598.6621, 3931.276
600.5906, 3932.300
602.5190, 3932.458
604.4475, 3936.627
606.3760, 3932.633
608.3044, 3907.843
610.2329, 3887.338
612.1614, 3883.794
614.0898, 3881.296
616.0183, 3870.755
617.9468, 3854.860
619.8752, 3837.712
621.8037, 3816.890
623.7322, 3783.952
625.6606, 3743.343
627.5891, 3711.810
629.5176, 3688.699
631.4460, 3656.779
633.3745, 3613.539
635.3030, 3567.753
637.2314, 3515.546
639.1599, 3472.930
641.0884, 3451.587
643.0168, 3426.585
644.9453, 3380.565
646.8738, 3342.605
648.8022, 3340.457
650.7307, 3340.884
652.6592, 3310.115
654.5876, 3267.050
656.5161, 3232.225
658.4446, 3207.570
660.3730, 3204.697
662.3015, 3217.035
664.2300, 3209.272
666.1584, 3179.310
668.0869, 3156.689
670.0154, 3144.507
671.9438, 3135.941
673.8723, 3135.417
675.8008, 3129.547
677.7292, 3106.677
679.6577, 3094.597
681.5862, 3113.356
683.5146, 3126.876
685.4431, 3113.434
687.3716, 3094.260
689.3000, 3083.493
691.2285, 3075.856
693.1570, 3062.907
695.0854, 3051.564
697.0139, 3054.506
698.9424, 3066.959
700.8708, 3076.672
702.7993, 3083.185
704.7278, 3082.632
706.6563, 3074.588
708.5847, 3061.212
710.5132, 3034.695
712.4417, 3022.831
714.3701, 3034.907
716.2986, 3043.209
718.2271, 3043.013
720.1555, 3044.672
722.0840, 3055.892
724.0125, 3059.705
725.9409, 3044.281
727.8694, 3028.067
729.7979, 3013.494
731.7263, 3011.260
733.6548, 3046.427
735.5833, 3080.904
737.5117, 3072.833
739.4402, 3046.601
741.3687, 3034.359
743.2971, 3033.127
745.2256, 3038.818
747.1541, 3049.152
749.0825, 3050.066
751.0110, 3041.915
752.9395, 3046.473
754.8679, 3067.386
756.7964, 3071.558
758.7249, 3051.376
760.6533, 3054.667
762.5818, 3093.437
764.5103, 3114.312
766.4387, 3105.230
768.3672, 3095.257
770.2957, 3090.150
772.2241, 3086.560
774.1526, 3083.787
776.0811, 3081.539
778.0095, 3079.583
779.9380, 3078.296
781.8665, 3077.913
783.7949, 3078.239
785.7234, 3083.993
787.6519, 3084.945
789.5803, 3068.403
791.5088, 3046.911
793.4373, 3033.281
795.3657, 3024.467
797.2942, 3016.447
799.2227, 3009.523
801.1511, 3006.923
803.0796, 3005.279
805.0081, 2990.991
806.9365, 2967.689
808.8650, 2959.510
810.7935, 2963.153
812.7219, 2936.600
814.6504, 2882.583
816.5789, 2862.069
818.5073, 2877.320
820.4358, 2871.550
822.3643, 2838.817
824.2927, 2815.754
826.2212, 2808.871
828.1497, 2792.439
830.0781, 2759.837
832.0066, 2730.268
833.9351, 2707.266
835.8635, 2688.557
837.7920, 2678.524
839.7205, 2661.049
841.6489, 2629.427
843.5774, 2594.292
845.5059, 2548.770
847.4343, 2515.356
849.3628, 2514.489
851.2913, 2507.639
853.2197, 2474.820
855.1482, 2437.251
857.0767, 2403.862
859.0051, 2372.024
860.9336, 2340.130
862.8621, 2309.062
864.7905, 2282.015
866.7190, 2253.359
868.6475, 2212.892
870.5759, 2173.746
872.5044, 2147.794
874.4329, 2132.243
876.3613, 2133.349
878.2898, 2134.706
880.2183, 2113.035
882.1467, 2078.017
884.0752, 2039.244
886.0037, 2000.863
887.9321, 1969.679
889.8606, 1944.337
891.7891, 1922.837
893.7175, 1904.971
895.6460, 1894.478
897.5745, 1885.624
899.5029, 1859.570
901.4314, 1822.943
903.3599, 1797.753
905.2883, 1782.000
907.2168, 1766.087
909.1453, 1750.207
911.0737, 1738.051
913.0022, 1728.577
914.9307, 1710.028
916.8591, 1683.748
918.7876, 1673.721
920.7161, 1679.903
922.6445, 1680.390
924.5730, 1674.844
926.5015, 1663.651
928.4299, 1646.064
930.3584, 1632.430
932.2869, 1622.943
934.2153, 1616.096
936.1438, 1611.620
938.0723, 1613.366
940.0007, 1624.789
941.9292, 1620.809
943.8577, 1597.019
945.7861, 1579.533
947.7146, 1566.932
949.6431, 1569.707
951.5715, 1594.807
953.5000, 1602.939
955.4285, 1588.751
957.3569, 1580.389
959.2854, 1578.987
961.2139, 1579.691
963.1423, 1585.290
965.0708, 1579.439
966.9993, 1555.864
968.9277, 1551.068
970.8562, 1571.698
972.7847, 1578.476
974.7131, 1566.615
976.6416, 1564.082
978.5701, 1573.707
980.4985, 1580.508
982.4270, 1584.831
984.3555, 1577.477
986.2839, 1554.446
988.2124, 1552.596
990.1409, 1576.435
992.0693, 1591.948
993.9978, 1597.378
995.9263, 1597.942
997.8547, 1593.359
999.7832, 1591.958
1001.712, 1594.184
1003.640, 1596.730
1005.569, 1599.428
1007.497, 1605.062
1009.426, 1613.730
1011.354, 1622.149
1013.282, 1630.165
1015.211, 1635.543
1017.139, 1638.424
1019.068, 1642.714
1020.996, 1648.662
1022.925, 1659.807
1024.853, 1675.211
1026.782, 1686.260
1028.710, 1692.370
1030.639, 1684.003
1032.567, 1666.738
1034.496, 1680.090
1036.424, 1716.093
1038.353, 1735.375
1040.281, 1741.857
1042.209, 1749.195
1044.138, 1757.493
1046.066, 1766.653
1047.995, 1777.233
1049.923, 1792.979
1051.852, 1810.033
1053.780, 1813.422
1055.709, 1815.683
1057.637, 1851.860
1059.566, 1896.024
1061.494, 1893.481
1063.423, 1879.422
1065.351, 1906.601
1067.280, 1952.362
1069.208, 2003.050
1071.136, 2039.449
1073.065, 2018.802
1074.993, 1998.717
1076.922, 2046.128
1078.850, 2103.965
1080.779, 2123.571
1082.707, 2136.839
1084.636, 2165.046
1086.564, 2196.373
1088.493, 2222.646
1090.421, 2251.673
1092.350, 2290.075
1094.278, 2327.786
1096.207, 2359.263
1098.135, 2391.704
1100.063, 2425.585
1101.992, 2464.054
1103.920, 2511.159
1105.849, 2556.960
1107.777, 2597.214
1109.706, 2641.151
1111.634, 2689.682
1113.563, 2742.265
1115.491, 2801.694
1117.420, 2857.353
1119.348, 2908.271
1121.277, 2957.625
1123.205, 3004.480
1125.134, 3054.959
1127.062, 3108.642
1128.990, 3178.885
1130.919, 3264.009
1132.847, 3335.234
1134.776, 3395.702
1136.704, 3459.410
1138.633, 3528.426
1140.561, 3613.944
1142.490, 3706.272
1144.418, 3783.868
1146.347, 3856.216
1148.275, 3929.042
1150.204, 4013.806
1152.132, 4143.494
1154.061, 4264.821
1155.989, 4316.587
1157.917, 4375.517
1159.846, 4500.729
1161.774, 4624.006
1163.703, 4704.530
1165.631, 4792.842
1167.560, 4908.954
1169.488, 5034.873
1171.417, 5168.551
1173.345, 5298.959
1175.274, 5421.430
1177.202, 5554.353
1179.131, 5704.044
1181.059, 5833.537
1182.988, 5938.596
1184.916, 6040.978
1186.844, 6141.988
1188.773, 6264.299
1190.701, 6404.671
1192.630, 6549.114
1194.558, 6690.780
1196.487, 6798.558
1198.415, 6896.287
1200.344, 7035.908
1202.272, 7187.697
1204.201, 7322.597
1206.129, 7438.201
1208.058, 7514.804
1209.986, 7596.402
1211.915, 7713.563
1213.843, 7838.590
1215.771, 7967.169
1217.700, 8089.522
1219.628, 8208.280
1221.557, 8298.956
1223.485, 8347.639
1225.414, 8431.363
1227.342, 8562.119
1229.271, 8670.883
1231.199, 8754.236
1233.128, 8849.452
1235.056, 8953.969
1236.985, 9040.157
1238.913, 9117.959
1240.842, 9219.789
1242.770, 9329.559
1244.698, 9420.156
1246.627, 9503.107
1248.555, 9572.435
1250.484, 9666.132
1252.412, 9837.389
1254.341, 10002.76
1256.269, 10112.34
1258.198, 10224.62
1260.126, 10360.65
1262.055, 10491.51
1263.983, 10613.17
1265.912, 10730.22
1267.840, 10840.80
1269.769, 10984.00
1271.697, 11156.09
1273.625, 11298.72
1275.554, 11425.28
1277.482, 11592.80
1279.411, 11775.61
1281.339, 11921.49
1283.268, 12063.65
1285.196, 12245.19
1287.125, 12427.62
1289.053, 12578.02
1290.982, 12730.87
1292.910, 12907.30
1294.839, 13078.60
1296.767, 13235.76
1298.696, 13389.81
1300.624, 13530.58
1302.552, 13708.79
1304.481, 13927.29
1306.409, 14133.37
1308.338, 14326.61
1310.266, 14500.75
1312.195, 14661.04
1314.123, 14814.37
1316.052, 14965.02
1317.980, 15116.00
1319.909, 15268.81
1321.837, 15430.66
1323.766, 15579.24
1325.694, 15693.61
1327.623, 15830.37
1329.551, 16014.55
1331.479, 16168.07
1333.408, 16274.03
1335.336, 16422.16
1337.265, 16606.47
1339.193, 16767.66
1341.122, 16910.58
1343.050, 17040.41
1344.979, 17168.67
1346.907, 17307.39
1348.836, 17457.21
1350.764, 17631.76
1352.693, 17787.89
1354.621, 17901.52
1356.550, 18021.29
1358.478, 18156.99
1360.406, 18315.84
1362.335, 18499.10
1364.263, 18637.76
1366.192, 18748.08
1368.120, 18943.35
1370.049, 19169.49
1371.977, 19303.40
1373.906, 19417.18
1375.834, 19597.84
1377.763, 19771.84
1379.691, 19879.40
1381.620, 20024.00
1383.548, 20252.88
1385.477, 20395.83
1387.405, 20427.02
1389.333, 20533.96
1391.262, 20716.53
1393.190, 20895.11
1395.119, 21057.38
1397.047, 21176.74
1398.976, 21267.88
1400.904, 21320.16
1402.833, 21393.93
1404.761, 21548.40
1406.690, 21691.45
1408.618, 21800.95
1410.547, 21899.40
1412.475, 21989.03
1414.404, 22082.20
1416.332, 22174.59
1418.260, 22237.44
1420.189, 22283.89
1422.117, 22340.25
1424.046, 22393.06
1425.974, 22438.96
1427.903, 22460.63
1429.831, 22434.63
1431.760, 22412.14
1433.688, 22401.15
1435.617, 22396.56
1437.545, 22397.93
1439.474, 22411.10
1441.402, 22418.43
1443.331, 22353.30
1445.259, 22264.88
1447.188, 22222.58
1449.116, 22163.74
1451.044, 22013.65
1452.973, 21904.02
1454.901, 21919.29
1456.830, 21864.81
1458.758, 21718.20
1460.687, 21648.09
1462.615, 21627.67
1464.544, 21528.98
1466.472, 21401.30
1468.401, 21314.86
1470.329, 21225.88
1472.258, 21106.67
1474.186, 20977.97
1476.115, 20837.70
1478.043, 20716.24
1479.971, 20615.29
1481.900, 20565.84
1483.828, 20533.10
1485.757, 20344.31
1487.685, 20120.05
1489.614, 20025.48
1491.542, 19954.00
1493.471, 19863.48
1495.399, 19751.86
1497.328, 19615.67
1499.256, 19469.48
1501.185, 19316.76
1503.113, 19210.41
1505.042, 19139.01
1506.970, 19095.68
1508.898, 19040.63
1510.827, 18927.62
1512.755, 18801.02
1514.684, 18677.35
1516.612, 18524.33
1518.541, 18332.53
1520.469, 18251.92
1522.398, 18254.58
1524.326, 18184.20
1526.255, 18082.80
1528.183, 18005.74
1530.112, 17937.54
1532.040, 17878.54
1533.969, 17796.68
1535.897, 17680.16
1537.825, 17608.63
1539.754, 17580.28
1541.682, 17526.25
1543.611, 17457.30
1545.539, 17394.53
1547.468, 17329.68
1549.396, 17247.00
1551.325, 17181.02
1553.253, 17146.10
1555.182, 17079.16
1557.110, 16984.50
1559.039, 16975.96
1560.967, 17007.23
1562.896, 16991.95
1564.824, 16937.57
1566.752, 16810.12
1568.681, 16725.65
1570.609, 16734.24
1572.538, 16724.25
1574.466, 16689.94
1576.395, 16664.03
1578.323, 16634.42
1580.252, 16557.36
1582.180, 16492.01
1584.109, 16494.90
1586.037, 16508.26
1587.966, 16529.52
1589.894, 16508.58
1591.823, 16447.91
1593.751, 16387.90
1595.679, 16350.77
1597.608, 16397.40
1599.536, 16440.90
1601.465, 16414.39
1603.393, 16384.61
1605.322, 16356.50
1607.250, 16374.81
1609.179, 16426.26
1611.107, 16405.42
1613.036, 16348.99
1614.964, 16284.01
1616.893, 16247.54
1618.821, 16269.79
1620.750, 16292.54
1622.678, 16310.62
1624.606, 16283.55
1626.535, 16225.99
1628.463, 16171.66
1630.392, 16135.85
1632.320, 16151.80
1634.249, 16124.20
1636.177, 16000.31
1638.106, 15963.14
1640.034, 16012.02
1641.963, 15999.19
1643.891, 15954.32
1645.820, 15928.21
1647.748, 15882.17
1649.677, 15782.67
1651.605, 15739.01
1653.533, 15772.73
1655.462, 15730.23
1657.390, 15636.26
1659.319, 15546.56
1661.247, 15478.50
1663.176, 15459.88
1665.104, 15428.38
1667.033, 15368.53
1668.961, 15320.16
1670.890, 15284.17
1672.818, 15246.81
1674.747, 15214.51
1676.675, 15205.43
1678.604, 15182.14
1680.532, 15130.90
1682.460, 15087.62
1684.389, 15049.86
1686.317, 14959.66
1688.246, 14867.40
1690.174, 14865.72
1692.103, 14858.38
1694.031, 14798.68
1695.960, 14728.06
1697.888, 14658.65
1699.817, 14708.41
1701.745, 14781.78
1703.674, 14690.72
1705.602, 14596.87
1707.531, 14607.55
1709.459, 14606.32
1711.387, 14584.28
1713.316, 14561.80
1715.244, 14542.77
1717.173, 14543.77
1719.101, 14529.96
1721.030, 14445.39
1722.958, 14432.71
1724.887, 14505.18
1726.815, 14530.18
1728.744, 14525.54
1730.672, 14524.50
1732.601, 14525.10
1734.529, 14544.51
1736.458, 14513.54
1738.386, 14423.95
1740.314, 14377.30
1742.243, 14364.30
1744.171, 14377.26
1746.100, 14393.54
1748.028, 14398.63
1749.957, 14419.73
1751.885, 14457.19
1753.814, 14429.79
1755.742, 14378.18
1757.671, 14358.73
1759.599, 14349.86
1761.528, 14351.42
1763.456, 14311.77
1765.385, 14240.91
1767.313, 14265.75
1769.241, 14303.09
1771.170, 14255.38
1773.098, 14199.52
1775.027, 14159.90
1776.955, 14099.55
1778.884, 14029.44
1780.812, 14009.11
1782.741, 13993.49
1784.669, 13951.56
1786.598, 13882.90
1788.526, 13786.57
1790.455, 13779.41
1792.383, 13806.63
1794.312, 13744.64
1796.240, 13645.55
1798.168, 13521.33
1800.097, 13454.27
1802.025, 13444.07
1803.954, 13405.83
1805.882, 13347.59
1807.811, 13280.81
1809.739, 13194.13
1811.668, 13081.90
1813.596, 13005.02
1815.525, 12955.31
1817.453, 12899.67
1819.382, 12833.34
1821.310, 12750.16
1823.239, 12657.38
1825.167, 12558.15
1827.095, 12506.23
1829.024, 12470.16
1830.952, 12405.43
1832.881, 12328.39
1834.809, 12241.23
1836.738, 12177.85
1838.666, 12124.47
1840.595, 12010.84
1842.523, 11902.13
1844.452, 11859.99
1846.380, 11817.43
1848.309, 11767.28
1850.237, 11682.19
1852.166, 11592.27
1854.094, 11547.04
1856.022, 11509.22
1857.951, 11472.97
1859.879, 11391.43
1861.808, 11285.04
1863.736, 11215.94
1865.665, 11151.96
1867.593, 11065.10
1869.522, 11033.19
1871.450, 11045.27
1873.379, 10909.11
1875.307, 10746.75
1877.236, 10673.59
1879.164, 10625.40
1881.093, 10586.11
1883.021, 10560.61
1884.949, 10521.83
1886.878, 10405.60
1888.806, 10292.67
1890.735, 10213.46
1892.663, 10116.89
1894.592, 10013.36
1896.520, 9938.401
1898.449, 9878.095
1900.377, 9831.098
1902.306, 9773.185
1904.234, 9700.870
1906.163, 9576.994
1908.091, 9463.027
1910.020, 9429.340
1911.948, 9375.083
1913.876, 9274.718
1915.805, 9144.973
1917.733, 9033.028
1919.662, 9020.929
1921.590, 8961.461
1923.519, 8827.647
1925.447, 8723.021
1927.376, 8639.694
1929.304, 8574.224
1931.233, 8497.249
1933.161, 8394.582
1935.090, 8296.230
1937.018, 8209.880
1938.947, 8127.119
1940.875, 8041.575
1942.803, 7957.829
1944.732, 7867.283
1946.660, 7778.221
1948.589, 7738.699
1950.517, 7666.462
1952.446, 7500.908
1954.374, 7398.132
1956.303, 7344.542
1958.231, 7261.115
1960.160, 7172.819
1962.088, 7098.102
1964.017, 7000.714
1965.945, 6889.853
1967.874, 6782.035
1969.802, 6683.329
1971.730, 6608.255
1973.659, 6522.854
1975.587, 6431.874
1977.516, 6339.554
1979.444, 6252.767
1981.373, 6198.011
1983.301, 6114.313
1985.230, 6005.405
1987.158, 5902.034
1989.087, 5808.977
1991.015, 5732.944
1992.944, 5672.121
1994.872, 5618.653
1996.801, 5519.663
1998.729, 5413.922
2000.657, 5332.023
2002.586, 5254.648
2004.514, 5175.010
2006.443, 5088.535
2008.371, 5009.281
2010.300, 4942.438
2012.228, 4878.720
2014.157, 4815.993
2016.085, 4758.105
2018.014, 4688.479
2019.942, 4591.990
2021.871, 4520.110
2023.799, 4468.146
2025.728, 4412.258
2027.656, 4351.092
2029.584, 4283.922
2031.513, 4205.330
2033.441, 4128.740
2035.370, 4080.365
2037.298, 4027.236
2039.227, 3965.675
2041.155, 3915.502
2043.084, 3860.506
2045.012, 3768.810
2046.941, 3714.273
2048.869, 3701.496
2050.798, 3630.159
2052.726, 3544.850
2054.655, 3497.477
2056.583, 3435.755
2058.511, 3357.842
2060.440, 3301.472
2062.368, 3255.288
2064.297, 3206.804
2066.225, 3173.609
2068.154, 3147.732
2070.082, 3090.098
2072.011, 3027.023
2073.939, 2974.665
2075.868, 2927.313
2077.796, 2881.135
2079.725, 2828.272
2081.653, 2791.067
2083.582, 2779.329
2085.510, 2724.980
2087.438, 2657.844
2089.367, 2621.082
2091.295, 2586.814
2093.224, 2547.642
2095.152, 2514.430
2097.081, 2479.111
2099.009, 2432.344
2100.938, 2401.168
2102.866, 2379.945
2104.795, 2341.479
2106.723, 2294.486
2108.652, 2239.141
2110.580, 2201.607
2112.509, 2173.084
2114.437, 2134.799
2116.365, 2106.450
2118.294, 2093.742
2120.222, 2056.224
2122.151, 2012.478
2124.079, 1978.024
2126.008, 1945.051
2127.936, 1913.769
2129.865, 1898.845
2131.793, 1868.814
2133.722, 1807.085
2135.650, 1789.188
2137.579, 1788.076
2139.507, 1749.817
2141.436, 1712.960
2143.364, 1683.340
2145.292, 1644.952
2147.221, 1612.526
2149.149, 1599.822
2151.078, 1592.736
2153.006, 1581.661
2154.935, 1539.636
2156.863, 1499.322
2158.792, 1471.904
2160.720, 1471.138
2162.649, 1471.071
2164.577, 1439.150
2166.506, 1411.756
2168.434, 1389.443
2170.363, 1365.187
2172.291, 1342.623
2174.219, 1322.125
2176.148, 1302.280
2178.076, 1283.427
2180.005, 1268.254
2181.933, 1249.007
2183.862, 1226.624
2185.790, 1224.115
2187.719, 1217.314
2189.647, 1187.685
2191.576, 1156.369
2193.504, 1129.260
2195.433, 1117.659
2197.361, 1106.803
2199.290, 1094.142
2201.218, 1086.952
2203.146, 1078.859
2205.075, 1066.817
2207.003, 1055.865
2208.932, 1044.934
2210.860, 1027.070
2212.789, 1009.301
2214.717, 999.5834
2216.646, 1005.408
2218.574, 999.2669
2220.503, 968.9048
2222.431, 948.8828
2224.360, 938.9480
2226.288, 931.1840
2228.217, 921.8170
2230.145, 907.0585
2232.073, 889.4651
2234.002, 883.2568
2235.930, 888.2051
2237.859, 866.3629
2239.787, 842.0388
2241.716, 842.8982
2243.644, 842.0663
2245.573, 833.2225
2247.501, 834.3975
2249.430, 830.6554
2251.358, 811.6260
2253.287, 796.6284
2255.215, 785.3034
2257.144, 775.9277
2259.072, 764.1597
2261.000, 749.3403
2262.929, 744.5948
2264.857, 742.7346
2266.786, 738.8546
2268.714, 727.3824
2270.643, 713.3870
2272.571, 700.1914
2274.500, 698.6765
2276.428, 701.4637
2278.357, 694.8214
2280.285, 688.2104
2282.214, 689.2205
2284.142, 681.9728
2286.071, 673.5067
2287.999, 668.9092
2289.927, 649.6997
2291.856, 637.5540
2293.784, 640.5443
2295.713, 639.8326
2297.641, 633.8260
2299.570, 617.2384
2301.498, 612.2247
2303.427, 613.9827
2305.355, 605.1664
2307.284, 597.7174
2309.212, 595.1885
2311.141, 600.6283
2313.069, 600.9138
2314.998, 591.1779
2316.926, 575.3254
2318.854, 564.3811
2320.783, 569.0953
2322.711, 562.8489
2324.640, 555.7675
2326.568, 564.5150
2328.497, 562.5245
2330.425, 548.3771
2332.354, 535.8984
2334.282, 527.8705
2336.211, 527.3135
2338.139, 524.6877
2340.068, 522.7330
2341.996, 521.2823
2343.925, 520.2679
2345.853, 520.1266
2347.781, 509.3662
2349.710, 501.8843
2351.638, 498.4362
2353.567, 498.4089
2355.495, 496.9376
2357.424, 488.5068
2359.352, 484.0887
2361.281, 482.8845
2363.209, 479.4600
2365.138, 461.9196
2367.066, 454.5341
2368.995, 469.5138
2370.923, 469.9461
2372.852, 459.3566
2374.780, 449.7395
2376.708, 442.4406
2378.637, 440.8168
2380.565, 449.1637
2382.494, 444.3509
2384.422, 434.6514
2386.351, 439.1994
2388.279, 433.0470
2390.208, 422.9948
2392.136, 426.6570
2394.065, 418.6154
2395.993, 406.8007
2397.922, 407.1206
2399.850, 409.3475
2401.779, 408.6537
2403.707, 405.3395
2405.635, 401.9792
2407.564, 397.6016
2409.492, 396.9561
2411.421, 391.2226
2413.349, 387.9438
2415.278, 389.5104
2417.206, 379.8071
2419.135, 364.9876
2421.063, 369.1479
2422.992, 377.3650
2424.920, 377.6433
2426.849, 372.4350
2428.777, 364.4277
2430.706, 365.0472
2432.634, 360.6154
2434.563, 347.4047
2436.491, 344.6125
2438.419, 348.2302
2440.348, 351.0834
2442.276, 347.1024
2444.205, 343.5832
2446.133, 347.0804
2448.062, 344.9576
2449.990, 340.9128
2451.919, 342.3150
2453.847, 337.6436
2455.776, 335.9562
2457.704, 340.3240
2459.633, 337.8846
2461.561, 328.5291
2463.490, 319.2353
2465.418, 322.8673
2467.346, 324.0982
2469.275, 308.0767
2471.203, 303.1906
2473.132, 300.8807
2475.060, 301.7154
2476.989, 302.2437
2478.917, 300.5960
2480.846, 303.4071
2482.774, 296.2910
2484.703, 286.0699
2486.631, 284.8465
2488.560, 287.0648
2490.488, 289.2023
2492.417, 283.4764
2494.345, 278.1050
2496.273, 279.4513
2498.202, 277.7249
2500.130, 272.9522
2502.059, 269.1269
2503.987, 269.6947
2505.916, 266.9770
2507.844, 261.7639
2509.773, 254.4690
2511.701, 251.5885
2513.630, 254.2527
2515.558, 257.0535
2517.487, 253.5026
2519.415, 246.9423
2521.344, 245.4256
2523.272, 248.3927
2525.200, 249.1778
2527.129, 249.2964
2529.057, 244.3711
2530.986, 238.3061
2532.914, 241.5155
2534.843, 236.4265
2536.771, 226.4167
2538.700, 226.7104
2540.628, 224.1641
2542.557, 221.7384
2544.485, 223.8326
2546.414, 219.0054
2548.342, 213.2767
2550.271, 213.1660
2552.199, 214.4963
2554.127, 215.1906
2556.056, 220.4552
2557.984, 218.6816
2559.913, 213.3397
2561.841, 213.3608
2563.770, 210.5365
2565.698, 206.5483
2567.627, 202.7246
2569.555, 201.1393
2571.484, 200.5093
2573.412, 195.9016
2575.341, 191.9237
2577.269, 190.1112
2579.198, 191.3462
2581.126, 193.7262
2583.054, 193.0042
2584.983, 183.5641
2586.911, 181.1386
2588.840, 181.8419
2590.768, 180.3811
2592.697, 182.8182
2594.625, 183.3712
2596.554, 177.2138
2598.482, 174.6027
2600.411, 174.2970
2602.339, 174.8082
2604.268, 172.2207
2606.196, 167.0341
2608.125, 160.3107
2610.053, 162.3823
2611.981, 164.2632
2613.910, 162.2353
2615.838, 162.0438
2617.767, 161.7438
2619.695, 160.3921
2621.624, 159.4404
2623.552, 160.7184
2625.481, 162.2591
2627.409, 158.2880
2629.338, 151.6477
2631.266, 144.2324
2633.195, 147.6682
2635.123, 149.2064
2637.052, 147.0489
2638.980, 142.7063
2640.908, 144.2100
2642.837, 145.7573
2644.765, 137.7971
2646.694, 136.6329
2648.622, 139.6837
2650.551, 144.6361
2652.479, 141.9380
2654.408, 136.4938
2656.336, 130.0610
2658.265, 129.0259
2660.193, 129.5742
2662.122, 128.3098
2664.050, 130.6938
2665.979, 131.7313
2667.907, 129.3278
2669.835, 127.3792
2671.764, 128.7074
2673.692, 132.3008
2675.621, 129.2094
2677.549, 122.4582
2679.478, 118.3554
2681.406, 122.5771
2683.335, 121.4957
2685.263, 116.8695
2687.192, 114.4425
2689.120, 112.8407
2691.049, 110.9095
2692.977, 112.8929
2694.906, 114.1978
2696.834, 115.5539
2698.762, 115.4162
2700.691, 113.1035
2702.619, 109.8960
2704.548, 106.4286
2706.476, 109.0424
2708.405, 110.1660
2710.333, 107.7779
2712.262, 105.9942
2714.190, 106.8516
2716.119, 108.5047
2718.047, 108.9024
2719.976, 103.9038
2721.904, 100.0009
2723.833, 103.8071
2725.761, 102.0163
2727.689, 96.91054
2729.618, 94.19003
2731.546, 96.52431
2733.475, 95.34162
2735.403, 98.04247
2737.332, 95.15819
2739.260, 91.99478
2741.189, 89.31088
2743.117, 89.29974
2745.046, 93.51224
2746.974, 95.71371
2748.903, 93.57159
2750.831, 94.45808
2752.760, 96.20204
2754.688, 93.10828
2756.616, 90.94057
2758.545, 87.04950
2760.473, 86.11858
2762.402, 85.95329
2764.330, 87.07784
2766.259, 88.71268
2768.187, 89.23351
2770.116, 86.45271
2772.044, 82.55534
2773.973, 77.55871
2775.901, 82.11623
2777.830, 88.04871
2779.758, 85.76691
2781.687, 82.82211
2783.615, 79.66341
2785.543, 79.38871
2787.472, 78.65015
2789.400, 79.34364
2791.329, 81.63216
2793.257, 77.44260
2795.186, 78.81712
2797.114, 80.69313
2799.043, 78.85969
2800.971, 80.28871
2802.900, 80.80713
2804.828, 78.05037
2806.757, 78.79432
2808.685, 78.53942
2810.614, 78.38046
2812.542, 78.94509
2814.470, 76.16451
2816.399, 72.95501
2818.327, 74.80584
2820.256, 74.68578
2822.184, 73.30138
2824.113, 74.44570
2826.041, 79.96230
2827.970, 72.42637
2829.898, 67.07529
2831.827, 71.11349
2833.755, 72.36822
2835.684, 74.30077
2837.612, 72.14593
2839.541, 73.93042
2841.469, 75.03024
2843.397, 71.66702
2845.326, 70.18317
2847.254, 68.92592
2849.183, 68.03995
2851.111, 68.16844
2853.040, 67.32708
2854.968, 69.01908
2856.897, 69.09241
2858.825, 66.08886
2860.754, 63.08279
2862.682, 65.29341
2864.611, 64.87207
2866.539, 65.94614
2868.468, 66.78281
2870.396, 63.32829
2872.324, 63.52923
2874.253, 63.80530
2876.181, 61.96502
2878.110, 63.17439
2880.038, 64.92488
2881.967, 65.01356
2883.895, 62.01910
2885.824, 63.56652
2887.752, 62.24508
2889.681, 60.55756
2891.609, 60.49901
2893.538, 61.40207
2895.466, 62.52819
2897.395, 63.23981
2899.323, 63.46535
2901.251, 61.32627
2903.180, 58.73024
2905.108, 60.25759
2907.037, 59.49734
2908.965, 58.59503
2910.894, 62.33145
2912.822, 60.73588
2914.751, 58.51731
2916.679, 58.85681
2918.608, 57.72059
2920.536, 61.56715
2922.465, 64.45509
2924.393, 58.36639
2926.322, 56.44353
2928.250, 60.54331
2930.178, 62.14292
2932.107, 56.88955
2934.035, 57.81616
2935.964, 58.34354
2937.892, 55.97724
2939.821, 57.80902
2941.749, 59.53462
2943.678, 61.75589
2945.606, 61.19609
2947.535, 63.65244
2949.463, 63.41348
2951.392, 60.33640
2953.320, 65.71764
2955.249, 64.48535
2957.177, 60.77160
2959.105, 58.79676
2961.034, 58.87109
2962.962, 59.15906
2964.891, 59.30014
2966.819, 59.80529
2968.748, 58.72156
2970.676, 57.42244
2972.605, 57.76842
2974.533, 59.62182
2976.462, 61.31496
2978.390, 60.95399
2980.319, 61.99276
2982.247, 61.83822
2984.176, 61.70730
2986.104, 60.38037
2988.032, 59.98544
2989.961, 59.95314
2991.889, 59.24873
2993.818, 58.63514
2995.746, 63.46076
2997.675, 63.64396
2999.603, 62.35465
3001.532, 60.36382
3003.460, 62.15698
3005.389, 64.70620
3007.317, 64.94996
3009.246, 62.80442
3011.174, 66.65949
3013.103, 69.02267
3015.031, 68.60586
3016.959, 68.24693
3018.888, 67.65025
3020.816, 66.00202
3022.745, 63.70733
3024.673, 63.96314
3026.602, 64.60520
3028.530, 66.59271
3030.459, 71.77070
3032.387, 65.52190
3034.316, 66.35281
3036.244, 72.81417
3038.173, 70.38872
3040.101, 69.25426
3042.030, 69.15463
3043.958, 69.09966
3045.886, 71.13730
3047.815, 74.23493
3049.743, 75.28252
3051.672, 73.74839
3053.600, 74.70009
3055.529, 74.64612
3057.457, 74.16415
3059.386, 74.53288
3061.314, 72.41321
3063.243, 77.08227
3065.171, 82.29226
3067.100, 78.92616
3069.028, 75.68708
3070.957, 78.00156
3072.885, 81.58567
3074.813, 77.28912
3076.742, 81.75690
3078.670, 85.80249
3080.599, 87.42056
3082.527, 88.94427
3084.456, 85.23193
3086.384, 82.93279
3088.313, 83.89805
3090.241, 86.98099
3092.170, 89.54527
3094.098, 89.79163
3096.027, 88.77512
3097.955, 90.77750
3099.884, 89.87692
3101.812, 89.02750
3103.740, 90.49487
3105.669, 95.87167
3107.597, 94.44706
3109.526, 94.25081
3111.454, 100.0106
3113.383, 105.1173
3115.311, 103.4233
3117.240, 100.0231
3119.168, 100.0676
3121.097, 102.2834
3123.025, 100.3399
3124.954, 101.2872
3126.882, 108.6750
3128.811, 106.2613
3130.739, 110.6730
3132.667, 113.2480
3134.596, 110.8333
3136.524, 110.1343
3138.453, 102.6823
3140.381, 104.9326
3142.310, 118.8882
3144.238, 122.4430
3146.167, 122.6321
3148.095, 121.7646
3150.024, 121.8344
3151.952, 121.3432
3153.881, 121.3847
3155.809, 124.5804
3157.738, 128.4611
3159.666, 130.1435
3161.594, 126.5349
3163.523, 126.6865
3165.451, 130.9762
3167.380, 133.9683
3169.308, 136.3070
3171.237, 132.5926
3173.165, 129.3442
3175.094, 139.9261
3177.022, 138.9388
3178.951, 146.6385
3180.879, 155.4854
3182.808, 144.9717
3184.736, 144.2543
3186.665, 146.9084
3188.593, 149.2915
3190.521, 151.2862
3192.450, 154.8336
3194.378, 153.7263
3196.307, 153.5182
3198.235, 159.1090
3200.164, 160.3694
3202.092, 165.1415
3204.021, 171.4400
3205.949, 174.6158
3207.878, 177.1616
3209.806, 170.3605
3211.735, 173.0486
3213.663, 183.4923
3215.592, 181.5501
3217.520, 181.1072
3219.448, 181.0432
3221.377, 180.9567
3223.305, 194.2832
3225.234, 192.6602
3227.162, 191.5264
3229.091, 192.3214
3231.019, 190.0168
3232.948, 202.4857
3234.876, 207.2028
3236.805, 202.9840
3238.733, 202.2980
3240.662, 210.5440
3242.590, 208.8422
3244.519, 206.0862
3246.447, 207.7290
3248.375, 217.4610
3250.304, 228.1429
3252.232, 226.7279
3254.161, 219.8199
3256.089, 224.3556
3258.018, 234.1599
3259.946, 241.0981
3261.875, 245.3273
3263.803, 238.7257
3265.732, 246.1094
3267.660, 247.8875
3269.589, 249.4378
3271.517, 258.7879
3273.446, 253.7631
3275.374, 262.9895
3277.302, 264.9656
3279.231, 274.7981
3281.159, 279.0726
3283.088, 289.5333
3285.016, 286.3492
3286.945, 286.4659
3288.873, 290.1832
3290.802, 285.7126
3292.730, 290.0004
3294.659, 290.7397
3296.587, 292.1602
3298.516, 298.0265
3300.444, 308.2777
3302.373, 302.3401
3304.301, 306.6674
3306.229, 323.0055
3308.158, 318.7136
3310.086, 333.9789
3312.015, 339.9003
3313.943, 336.1567
3315.872, 334.1880
3317.800, 341.6107
3319.729, 347.7296
3321.657, 357.3484
3323.586, 366.2740
3325.514, 360.4254
3327.443, 365.1196
3329.371, 372.0906
3331.300, 373.6786
3333.228, 369.4823
3335.156, 383.3074
3337.085, 398.4828
3339.013, 397.0396
3340.942, 388.9866
3342.870, 393.0956
3344.799, 387.6960
3346.727, 386.6772
3348.656, 391.6806
3350.584, 402.0464
3352.513, 411.2687
3354.441, 415.0373
3356.370, 414.3192
3358.298, 413.0976
3360.227, 414.9674
3362.155, 422.7477
3364.083, 414.2525
3366.012, 405.6808
3367.940, 410.1412
3369.869, 426.2903
3371.797, 406.9359
3373.726, 414.5744
3375.654, 425.0620
3377.583, 416.8625
3379.511, 388.4249
3381.440, 399.6273
3383.368, 410.2526
3385.297, 413.4489
3387.225, 411.3809
3389.154, 404.3492
3391.082, 405.1720
3393.010, 397.0003
3394.939, 390.0318
3396.867, 390.4908
3398.796, 389.6642
3400.724, 386.7609
3402.653, 385.8468
3404.581, 390.3497
3406.510, 395.1609
3408.438, 380.3914
3410.367, 374.5188
3412.295, 380.6160
3414.224, 375.5600
3416.152, 350.4345
3418.081, 359.9451
3420.009, 360.6232
3421.938, 358.9067
3423.866, 356.6066
3425.794, 352.4951
3427.723, 345.2420
3429.651, 347.5023
3431.580, 341.9913
3433.508, 337.0948
3435.437, 342.7258
3437.365, 343.3964
3439.294, 340.4758
3441.222, 324.7516
3443.151, 315.2916
3445.079, 322.1354
3447.008, 310.3614
3448.936, 305.8432
3450.865, 312.9745
3452.793, 318.2461
3454.721, 311.9392
3456.650, 298.2809
3458.578, 299.2335
3460.507, 301.7485
3462.435, 297.2537
3464.364, 289.6707
3466.292, 294.2134
3468.221, 292.3031
3470.149, 291.6794
3472.078, 287.7785
3474.006, 279.4444
3475.935, 272.2407
3477.863, 277.5475
3479.792, 266.3258
3481.720, 263.5751
3483.648, 267.5320
3485.577, 260.0780
3487.505, 258.7354
3489.434, 273.5113
3491.362, 268.0045
3493.291, 252.1382
3495.219, 246.8552
3497.148, 241.8168
3499.076, 245.4942
3501.005, 242.7418
3502.933, 235.0040
3504.862, 229.0353
3506.790, 230.4124
3508.719, 226.8484
3510.647, 227.9673
3512.575, 224.9359
3514.504, 220.0957
3516.432, 222.0015
3518.361, 213.9496
3520.289, 209.1337
3522.218, 207.5783
3524.146, 207.6028
3526.075, 205.7739
3528.003, 193.7753
3529.932, 202.3105
3531.860, 205.4652
3533.789, 197.4492
3535.717, 188.9985
3537.646, 192.9278
3539.574, 179.7911
3541.502, 184.5999
3543.431, 176.2907
3545.359, 167.3922
3547.288, 171.6331
3549.216, 174.9682
3551.145, 180.2758
3553.073, 171.5167
3555.002, 169.3615
3556.930, 169.7371
3558.859, 158.1128
3560.787, 149.4362
3562.716, 155.8221
3564.644, 154.5943
3566.573, 152.5241
3568.501, 151.7760
3570.429, 145.7437
3572.358, 156.7774
3574.286, 152.1629
3576.215, 149.9454
3578.143, 144.9759
3580.072, 137.1712
3582.000, 145.5752
3583.929, 141.6828
3585.857, 134.9070
3587.786, 127.1967
3589.714, 123.5998
3591.643, 124.8790
3593.571, 119.2760
3595.500, 123.6019
3597.428, 124.5512
3599.356, 121.3933
3601.285, 116.1853
3603.213, 110.8773
3605.142, 108.2014
3607.070, 109.9627
3608.999, 111.7881
3610.927, 109.2517
3612.856, 107.0480
3614.784, 108.0964
3616.713, 99.81921
3618.641, 96.76431
3620.570, 102.5264
3622.498, 98.76514
3624.427, 89.91324
3626.355, 89.99231
3628.283, 99.07714
3630.212, 90.53986
3632.140, 83.68861
3634.069, 81.70013
3635.997, 81.43680
3637.926, 80.23239
3639.854, 78.51266
3641.783, 78.82357
3643.711, 79.57051
3645.640, 79.83522
3647.568, 78.76337
3649.497, 75.34477
3651.425, 69.71890
3653.354, 70.84593
3655.282, 61.76659
3657.210, 65.21124
3659.139, 64.57286
3661.067, 60.44703
3662.996, 69.05035
3664.924, 66.14771
3666.853, 65.61262
3668.781, 57.81995
3670.710, 55.92709
3672.638, 58.62297
3674.567, 59.52279
3676.495, 66.08907
3678.424, 51.02406
3680.352, 50.18876
3682.281, 54.25042
3684.209, 54.59664
3686.137, 52.50613
3688.066, 53.01892
3689.994, 48.74855
3691.923, 51.69269
3693.851, 46.06981
3695.780, 47.74695
3697.708, 52.21267
3699.637, 47.77755
3701.565, 38.41419
3703.494, 42.42785
3705.422, 40.27933
3707.351, 38.97845
3709.279, 41.69482
3711.208, 42.94004
3713.136, 38.61937
3715.064, 38.20343
3716.993, 41.94086
3718.921, 41.60908
3720.850, 36.41570
3722.778, 33.24020
3724.707, 33.89423
3726.635, 35.15179
3728.564, 37.67520
3730.492, 36.96522
3732.421, 36.48465
3734.349, 34.31827
3736.278, 34.60780
3738.206, 35.17347
3740.135, 30.11703
3742.063, 27.79474
3743.991, 23.46656
3745.920, 26.60251
3747.848, 28.33567
3749.777, 29.25080
3751.705, 30.57285
3753.634, 30.63027
3755.562, 31.95791
3757.491, 31.44096
3759.419, 27.41259
3761.348, 26.42694
3763.276, 25.78295
3765.205, 26.19315
3767.133, 28.48818
3769.062, 23.38629
3770.990, 14.59782
3772.918, 23.70952
3774.847, 29.92089
3776.775, 29.85677
3778.704, 27.64963
3780.632, 26.00027
3782.561, 24.76439
3784.489, 22.80501
3786.418, 23.52454
3788.346, 25.04601
3790.275, 24.70991
3792.203, 24.27461
3794.132, 23.46535
3796.060, 21.66061
3797.989, 23.06718
3799.917, 14.77317
3801.845, 17.86421
3803.774, 21.76001
3805.702, 22.11963
3807.631, 21.64627
3809.559, 20.90640
3811.488, 18.01820
3813.416, 17.67755
3815.345, 20.56665
3817.273, 27.57091
3819.202, 26.48648
3821.130, 18.45140
3823.059, 17.04605
3824.987, 22.42779
3826.916, 18.85320
3828.844, 18.56244
3830.772, 20.35531
3832.701, 21.61791
3834.629, 16.72362
3836.558, 13.87669
3838.486, 17.26112
3840.415, 20.04469
3842.343, 14.91213
3844.272, 15.80341
3846.200, 16.87650
3848.129, 13.53541
3850.057, 17.00893
3851.986, 16.27799
3853.914, 16.35067
3855.843, 19.23262
3857.771, 17.27657
3859.699, 6.267988
3861.628, 16.84924
3863.556, 22.74315
3865.485, 24.20145
3867.413, 7.939400
3869.342, 14.55955
3871.270, 12.00959
3873.199, 9.083551
3875.127, 10.52792
3877.056, 12.75015
3878.984, 16.89237
3880.913, 15.88542
3882.841, 21.14969
3884.770, 14.87232
3886.698, 11.47592
3888.626, 15.37248
3890.555, 14.73461
3892.483, 13.42941
3894.412, 9.367571
3896.340, 11.36049
3898.269, 17.17693
3900.197, 19.91691
3902.126, 14.57803
3904.054, 13.50996
3905.983, 16.27197
3907.911, 14.99295
3909.840, 17.70638
3911.768, 21.47823
3913.697, 12.94215
3915.625, 12.01336
3917.553, 14.58875
3919.482, 15.17495
3921.410, 15.12708
3923.339, 13.81238
3925.267, 12.83565
3927.196, 15.24973
3929.124, 11.55445
3931.053, 12.61167
3932.981, 11.74463
3934.910, 15.15875
3936.838, 15.38477
3938.767, 15.48218
3940.695, 14.97927
3942.624, 12.92500
3944.552, 12.58082
3946.480, 15.62733
3948.409, 11.76873
3950.337, 10.59093
3952.266, 3.970059
3954.194, 15.04358
3956.123, 21.42990
3958.051, 23.38050
3959.980, 7.610876
3961.908, 14.72334
3963.837, 12.66583
3965.765, 10.23212
3967.694, 15.11173
3969.622, 11.27082
3971.551, 10.38022
3973.479, 13.66811
3975.407, 12.68177
3977.336, 10.18732
3979.264, 12.46962
3981.193, 12.36377
3983.121, 8.749779
3985.050, 11.61549
3986.978, 15.49797
3988.907, 6.279349
3990.835, 10.53384
3992.764, 12.17032
3994.692, 15.90160
3996.621, 18.40408
3998.549, 15.19967
4000.478, 11.02625
4002.406, 10.89171
4004.334, 13.17987
4006.263, 14.71322
4008.191, 15.84892
4010.120, 8.577565
4012.048, 5.449855
4013.977, 12.54496
4015.905, 10.66693
4017.834, 12.87585
4019.762, 11.32361
4021.691, 14.41280
4023.619, 15.68327
4025.548, 14.93951
4027.476, 15.82126
4029.405, 11.56133
4031.333, 10.95176
4033.261, 12.86497
4035.190, 13.85493
4037.118, 11.89374
4039.047, 12.78898
4040.975, 12.51005
4042.904, 12.78818
4044.832, 12.75413
4046.761, 14.59073
4048.689, 15.33085
4050.618, 12.36282
4052.546, 10.51284
4054.475, 11.51515
4056.403, 9.428329
4058.332, 14.02567
4060.260, 15.97235
4062.188, 15.04616
4064.117, 13.78231
4066.045, 10.63065
4067.974, 16.85856
4069.902, 16.67837
4071.831, 14.61073
4073.759, 13.39248
4075.688, 11.03536
4077.616, 10.75123
4079.545, 10.39063
4081.473, 13.32772
4083.402, 17.47381
4085.330, 12.53533
4087.259, 9.655391
4089.187, 12.23903
4091.115, 9.474252
4093.044, 10.42846
4094.972, 14.30560
4096.901, 10.42059
4098.829, 11.05803
4100.758, 15.07359
4102.687, 13.50559
4104.615, 11.54611
4106.543, 13.30983
4108.472, 13.21894
4110.400, 11.84637
4112.329, 12.53615
4114.257, 11.80867
4116.186, 13.69790
4118.114, 7.913796
4120.042, 7.506339
4121.971, 9.484362
4123.899, 11.47063
4125.828, 10.94830
4127.756, 11.40310
4129.685, 7.710415
4131.613, 8.225529
4133.542, 13.02825
4135.470, 10.17080
4137.398, 7.892750
4139.327, 12.04715
4141.256, 15.56929
4143.184, 16.47422
4145.112, 11.51291
4147.041, 13.32789
4148.970, 11.08470
4150.898, 9.503115
4152.826, 6.720308
4154.755, 10.71119
4156.684, 9.046621
4158.612, 11.10832
4160.540, 11.61867
4162.469, 9.882104
4164.397, 10.46692
4166.326, 12.47832
4168.254, 13.47115
4170.183, 13.39690
4172.111, 13.67545
4174.040, 15.25268
4175.968, 14.32347
4177.896, 2.305521
4179.825, 9.798285
4181.753, 11.14065
4183.682, 11.74829
4185.610, 14.35973
4187.539, 9.941253
4189.467, 10.00694
4191.396, 12.15030
4193.324, 8.552724
4195.253, 9.905324
4197.181, 11.83798
4199.109, 7.749039
4201.038, 11.49060
4202.967, 14.85268
4204.895, 13.37068
4206.823, 14.95889
4208.752, 13.91432
4210.681, 9.044362
4212.609, 9.094501
4214.537, 10.13536
4216.466, 11.97300
4218.395, 10.70079
4220.323, 14.21395
4222.251, 10.87575
4224.180, 12.87948
4226.108, 7.342139
4228.037, 7.988633
4229.965, 10.47610
4231.894, 9.049214
4233.822, 5.279527
4235.750, 10.45013
4237.679, 13.26870
4239.607, 8.858889
4241.536, 14.13027
4243.464, 11.54310
4245.393, 13.80429
4247.321, 11.90168
4249.250, 9.021971
4251.178, 6.849430
4253.106, 7.985048
4255.035, 8.843966
4256.964, 10.12889
4258.892, 13.20558
4260.820, 12.04859
4262.749, 11.78045
4264.678, 12.98913
4266.606, 9.670403
4268.534, 9.535331
4270.463, 12.57289
4272.392, 14.26896
4274.320, 12.78204
4276.248, 17.15844
4278.177, 12.64221
4280.105, 14.50065
4282.034, 13.16420
4283.962, 10.08312
4285.891, 13.76265
4287.819, 10.38912
4289.748, 10.22285
4291.676, 6.945449
4293.604, 11.64380
4295.533, 10.91556
4297.461, 12.73422
4299.390, 6.671374
4301.318, 5.442414
4303.247, 10.40526
4305.175, 11.09934
4307.104, 10.68645
4309.032, 6.430180
4310.961, 11.14103
4312.889, 17.68360
##END=



