##NAMES=Lorandite
##RRUFFID=R110055
##IDEAL CHEMISTRY=TlAsS_2_
##LOCALITY=Xingren County, Qianxi'nan Autonomous Prefecture, Guizhou Province, China
##OWNER=RRUFF
##SOURCE=Don Doell
##DESCRIPTION=Red platy crystals and cleavages
##STATUS=The identification of this mineral has been confirmed by single-crystal X-ray diffraction
##URL=https://www.rruff.net/odr/rruff_sample/R110055
##DIFFRACTION SAMPLE DESCRIPTION=Single crystal, powder profile is calculated
##CELL PARAMETERS=a: 12.331 b: 11.326 c: 6.126 alpha: 90 beta: 104.49 gamma: 90 volume: 828.25 crystal system: monoclinic
##FILETYPE=Raman Processed
##RAMAN WAVELENGTH=780

70.84375, 474248.0
72.77222, 406994.4
74.70068, 386406.4
76.62915, 424933.7
78.55762, 493542.3
80.48608, 574470.2
82.41455, 669690.4
84.34302, 786147.1
86.27148, 932714.7
88.19995, 1080955.
90.12842, 1234097.
92.05688, 1378594.
93.98535, 1440105.
95.91382, 1406063.
97.84229, 1413220.
99.77075, 1490707.
101.6992, 1544194.
103.6277, 1586783.
105.5562, 1592418.
107.4846, 1525723.
109.4131, 1412070.
111.3416, 1305483.
113.2700, 1197857.
115.1985, 1112121.
117.1270, 1050524.
119.0554, 1005652.
120.9839, 971699.0
122.9124, 949041.0
124.8408, 943662.8
126.7693, 956239.9
128.6978, 986900.6
130.6262, 1052444.
132.5547, 1118477.
134.4832, 1176194.
136.4116, 1219024.
138.3401, 1224200.
140.2686, 1171727.
142.1970, 1114892.
144.1255, 1042614.
146.0540, 979347.7
147.9824, 934280.6
149.9109, 906864.5
151.8394, 898517.3
153.7678, 910883.3
155.6963, 941994.1
157.6248, 991565.7
159.5532, 1059623.
161.4817, 1153163.
163.4102, 1261587.
165.3386, 1384383.
167.2671, 1528464.
169.1956, 1616945.
171.1240, 1646731.
173.0525, 1633366.
174.9810, 1551058.
176.9094, 1451318.
178.8379, 1365214.
180.7664, 1294179.
182.6948, 1250794.
184.6233, 1239205.
186.5518, 1233807.
188.4802, 1243072.
190.4087, 1238658.
192.3372, 1195613.
194.2656, 1127696.
196.1941, 1070573.
198.1226, 1021847.
200.0510, 1000600.
201.9795, 1020405.
203.9080, 1052814.
205.8364, 1112963.
207.7649, 1163066.
209.6934, 1144114.
211.6218, 1062805.
213.5503, 971271.1
215.4788, 864316.5
217.4072, 771908.1
219.3357, 703488.2
221.2642, 649760.9
223.1926, 606620.1
225.1211, 574034.8
227.0496, 548838.0
228.9780, 530836.8
230.9065, 522130.2
232.8350, 522589.3
234.7634, 533769.1
236.6919, 558576.3
238.6204, 593420.4
240.5488, 635712.1
242.4773, 684272.3
244.4058, 733350.6
246.3342, 781108.7
248.2627, 832566.6
250.1912, 882566.1
252.1196, 942121.4
254.0481, 1013233.
255.9766, 1101354.
257.9051, 1213457.
259.8335, 1349058.
261.7620, 1514794.
263.6905, 1713344.
265.6189, 1938042.
267.5474, 2222342.
269.4759, 2502608.
271.4043, 2768714.
273.3328, 2991201.
275.2613, 3046855.
277.1897, 2878691.
279.1182, 2648808.
281.0467, 2302951.
282.9751, 1974302.
284.9036, 1704397.
286.8321, 1483921.
288.7605, 1305812.
290.6890, 1169622.
292.6175, 1057035.
294.5459, 967591.9
296.4744, 902793.7
298.4029, 859964.4
300.3313, 846228.9
302.2598, 872141.3
304.1883, 925009.3
306.1167, 996456.1
308.0452, 1086957.
309.9737, 1171401.
311.9021, 1241708.
313.8306, 1331638.
315.7591, 1455353.
317.6875, 1588779.
319.6160, 1771830.
321.5445, 1925977.
323.4729, 1928809.
325.4014, 1776492.
327.3299, 1585617.
329.2583, 1340312.
331.1868, 1124730.
333.1153, 958135.5
335.0437, 829663.6
336.9722, 735626.8
338.9007, 672240.6
340.8291, 638724.3
342.7576, 635034.3
344.6861, 643850.1
346.6145, 667487.9
348.5430, 690326.7
350.4715, 706838.0
352.3999, 724421.2
354.3284, 735330.0
356.2569, 756498.4
358.1853, 800410.6
360.1138, 872561.6
362.0423, 984621.6
363.9707, 1135906.
365.8992, 1334086.
367.8277, 1554806.
369.7561, 1870189.
371.6846, 2372840.
373.6131, 2910463.
375.5415, 3486261.
377.4700, 3951511.
379.3985, 3945321.
381.3269, 3459131.
383.2554, 2955257.
385.1839, 2427998.
387.1123, 2017860.
389.0408, 1771749.
390.9693, 1619336.
392.8977, 1585378.
394.8262, 1581290.
396.7547, 1482900.
398.6831, 1300687.
400.6116, 1101208.
402.5401, 864918.4
404.4685, 672952.1
406.3970, 540367.7
408.3255, 437146.0
410.2539, 362331.3
412.1824, 305125.4
414.1109, 259205.7
416.0393, 222393.1
417.9678, 190359.7
419.8963, 162963.3
421.8247, 140833.3
423.7532, 125132.8
425.6817, 112519.0
427.6101, 103727.0
429.5386, 96639.09
431.4671, 90680.29
433.3955, 85501.58
435.3240, 80842.09
437.2525, 76669.34
439.1809, 72816.32
441.1094, 69273.99
443.0379, 66136.38
444.9664, 63513.83
446.8948, 61039.08
448.8233, 58630.24
450.7518, 56318.05
452.6802, 54063.97
454.6087, 51943.71
456.5372, 50038.39
458.4656, 48350.00
460.3941, 46921.40
462.3226, 45756.09
464.2510, 44778.09
466.1795, 43995.92
468.1080, 43359.94
470.0364, 42947.05
471.9649, 42549.66
473.8934, 42039.56
475.8218, 41491.64
477.7503, 41011.58
479.6788, 40584.84
481.6072, 40118.73
483.5357, 39613.14
485.4642, 39175.25
487.3926, 38816.84
489.3211, 38537.23
491.2496, 38413.80
493.1780, 38278.43
495.1065, 38014.66
497.0350, 37749.05
498.9634, 37647.82
500.8919, 37644.46
502.8204, 37541.69
504.7488, 37351.57
506.6773, 37211.86
508.6058, 37161.68
510.5342, 37051.80
512.4627, 36791.19
514.3912, 36543.79
516.3196, 36355.38
518.2481, 36191.07
520.1766, 36010.81
522.1050, 35847.97
524.0335, 35775.35
525.9620, 35763.80
527.8904, 35676.05
529.8189, 35475.71
531.7474, 35462.13
533.6758, 35718.98
535.6043, 36092.75
537.5328, 36507.05
539.4612, 37109.46
541.3897, 37992.77
543.3182, 39060.02
545.2466, 40298.77
547.1751, 41624.91
549.1036, 42944.95
551.0320, 44245.84
552.9605, 45399.66
554.8890, 46384.52
556.8174, 47268.17
558.7459, 48108.09
560.6744, 48766.94
562.6028, 49110.14
564.5313, 49429.39
566.4598, 49856.39
568.3882, 50313.31
570.3167, 50745.29
572.2452, 51159.56
574.1736, 51614.51
576.1021, 52087.83
578.0306, 52334.35
579.9590, 52323.28
581.8875, 52180.30
583.8160, 51891.77
585.7444, 51511.98
587.6729, 50986.01
589.6014, 50504.34
591.5298, 50128.95
593.4583, 49853.75
595.3868, 49617.79
597.3152, 49516.38
599.2437, 49748.59
601.1722, 50206.12
603.1006, 50539.42
605.0291, 50743.99
606.9576, 50938.28
608.8860, 51163.62
610.8145, 51014.14
612.7430, 50369.76
614.6714, 49554.44
616.5999, 48608.38
618.5284, 47604.02
620.4568, 46545.58
622.3853, 45471.41
624.3138, 44436.73
626.2422, 43381.87
628.1707, 42175.59
630.0992, 40881.14
632.0276, 39712.82
633.9561, 38650.74
635.8846, 37559.65
637.8130, 36423.09
639.7415, 35349.48
641.6700, 34338.64
643.5984, 33441.21
645.5269, 32686.40
647.4554, 32020.22
649.3839, 31436.12
651.3123, 30928.98
653.2408, 30569.42
655.1693, 30222.68
657.0977, 29681.74
659.0262, 29312.74
660.9547, 28878.67
662.8831, 28398.13
664.8116, 28006.90
666.7401, 27476.94
668.6685, 26970.89
670.5970, 26510.16
672.5255, 26046.25
674.4539, 25488.91
676.3824, 25068.21
678.3109, 24874.27
680.2393, 24745.92
682.1678, 24583.30
684.0963, 24512.29
686.0247, 24661.12
687.9532, 24906.71
689.8817, 25174.57
691.8101, 25425.98
693.7386, 25620.03
695.6671, 25736.05
697.5955, 25664.28
699.5240, 25400.23
701.4525, 24971.14
703.3809, 24342.06
705.3094, 23639.36
707.2379, 22863.11
709.1663, 22014.29
711.0948, 21050.50
713.0233, 20116.55
714.9517, 19249.20
716.8802, 18444.07
718.8087, 17701.89
720.7371, 17022.52
722.6656, 16413.29
724.5941, 15859.62
726.5225, 15346.09
728.4510, 14874.94
730.3795, 14447.49
732.3079, 14065.24
734.2364, 13739.54
736.1649, 13471.43
738.0933, 13231.55
740.0218, 13017.46
741.9503, 12916.62
743.8787, 12955.36
745.8072, 12971.20
747.7357, 12909.58
749.6641, 12913.90
751.5926, 13051.83
753.5211, 13210.94
755.4495, 13380.23
757.3780, 13525.14
759.3065, 13648.75
761.2349, 13718.65
763.1634, 13711.19
765.0919, 13635.90
767.0203, 13474.84
768.9488, 13270.83
770.8773, 13067.94
772.8057, 12889.96
774.7342, 12814.10
776.6627, 12714.43
778.5911, 12664.82
780.5196, 12664.45
782.4481, 12634.47
784.3765, 12690.60
786.3050, 12707.04
788.2335, 12660.78
790.1619, 12612.75
792.0904, 12602.02
794.0189, 12533.76
795.9473, 12363.19
797.8758, 12189.79
799.8043, 12027.36
801.7327, 11878.66
803.6612, 11774.60
805.5897, 11644.61
807.5181, 11414.35
809.4466, 11179.85
811.3751, 11012.29
813.3036, 10882.91
815.2321, 10780.89
817.1605, 10684.78
819.0890, 10548.51
821.0175, 10401.87
822.9459, 10324.09
824.8744, 10295.71
826.8029, 10215.15
828.7313, 10183.70
830.6598, 10183.49
832.5883, 10134.44
834.5167, 10181.40
836.4452, 10206.69
838.3737, 10156.36
840.3021, 10004.16
842.2306, 9897.441
844.1591, 9851.885
846.0875, 9840.054
848.0160, 9867.964
849.9445, 9894.936
851.8729, 9918.283
853.8014, 9916.908
855.7299, 9859.667
857.6583, 9827.943
859.5868, 9889.062
861.5153, 9928.949
863.4437, 9855.786
865.3722, 9801.322
867.3007, 9869.161
869.2291, 9944.903
871.1576, 9931.410
873.0861, 9978.826
875.0145, 9936.253
876.9430, 9980.388
878.8715, 9957.272
880.7999, 9900.702
882.7284, 9844.247
884.6569, 9803.343
886.5853, 9821.495
888.5138, 9875.072
890.4423, 9907.779
892.3707, 9922.754
894.2992, 9926.585
896.2277, 9921.196
898.1561, 9917.718
900.0846, 9913.513
902.0131, 9880.212
903.9415, 9821.458
905.8700, 9829.884
907.7985, 9820.771
909.7269, 9820.837
911.6554, 9866.009
913.5839, 9843.953
915.5123, 9902.414
917.4408, 9903.265
919.3693, 9806.423
921.2977, 9733.590
923.2262, 9692.018
925.1547, 9673.347
927.0831, 9684.919
929.0116, 9701.401
930.9401, 9723.768
932.8685, 9743.060
934.7970, 9774.698
936.7255, 9772.169
938.6539, 9698.741
940.5824, 9643.466
942.5109, 9623.190
944.4393, 9645.137
946.3678, 9753.873
948.2963, 9822.046
950.2247, 9768.813
952.1532, 9720.127
954.0817, 9744.658
956.0101, 9767.695
957.9386, 9757.896
959.8671, 9723.019
961.7955, 9631.146
963.7240, 9568.998
965.6525, 9626.171
967.5809, 9678.038
969.5094, 9633.043
971.4379, 9579.927
973.3663, 9579.945
975.2948, 9591.521
977.2233, 9589.055
979.1517, 9579.661
981.0802, 9571.347
983.0087, 9555.597
984.9371, 9519.531
986.8656, 9477.506
988.7941, 9431.957
990.7225, 9399.437
992.6510, 9408.284
994.5795, 9427.915
996.5079, 9429.508
998.4364, 9419.304
1000.365, 9390.037
1002.293, 9367.209
1004.222, 9408.007
1006.150, 9446.985
1008.079, 9371.599
1010.007, 9274.894
1011.936, 9289.241
1013.864, 9342.018
1015.793, 9345.263
1017.721, 9323.065
1019.650, 9298.059
1021.578, 9275.586
1023.506, 9266.838
1025.435, 9261.000
1027.363, 9233.405
1029.292, 9209.028
1031.220, 9227.177
1033.149, 9263.101
1035.077, 9297.505
1037.006, 9318.514
1038.934, 9295.499
1040.863, 9264.241
1042.791, 9273.813
1044.720, 9296.411
1046.648, 9310.633
1048.577, 9306.886
1050.505, 9248.101
1052.433, 9190.492
1054.362, 9213.435
1056.290, 9260.463
1058.219, 9268.316
1060.147, 9265.091
1062.076, 9287.854
1064.004, 9308.711
1065.933, 9283.571
1067.861, 9309.641
1069.790, 9285.535
1071.718, 9323.688
1073.647, 9330.667
1075.575, 9328.701
1077.504, 9355.796
1079.432, 9360.604
1081.360, 9265.714
1083.289, 9173.987
1085.217, 9174.831
1087.146, 9197.320
1089.074, 9185.352
1091.003, 9184.446
1092.931, 9249.617
1094.860, 9300.895
1096.788, 9285.350
1098.717, 9248.423
1100.645, 9198.788
1102.574, 9156.293
1104.502, 9107.892
1106.431, 9102.898
1108.359, 9218.223
1110.287, 9293.883
1112.216, 9225.778
1114.144, 9184.793
1116.073, 9262.686
1118.001, 9308.278
1119.930, 9253.896
1121.858, 9216.830
1123.787, 9224.729
1125.715, 9246.266
1127.644, 9281.886
1129.572, 9315.515
1131.501, 9347.503
1133.429, 9369.645
1135.358, 9379.428
1137.286, 9387.965
1139.214, 9408.418
1141.143, 9374.021
1143.071, 9370.017
1145.000, 9356.712
1146.928, 9305.157
1148.857, 9323.316
1150.785, 9255.811
1152.714, 9239.072
1154.642, 9278.343
1156.571, 9293.581
1158.499, 9284.571
1160.428, 9281.627
1162.356, 9283.130
1164.285, 9273.103
1166.213, 9254.398
1168.141, 9220.248
1170.070, 9196.196
1171.998, 9286.073
1173.927, 9421.637
1175.855, 9474.588
1177.784, 9462.953
1179.712, 9371.891
1181.641, 9277.130
1183.569, 9282.450
1185.498, 9317.842
1187.426, 9315.374
1189.355, 9316.852
1191.283, 9369.799
1193.212, 9414.298
1195.140, 9424.307
1197.068, 9405.068
1198.997, 9331.857
1200.925, 9289.924
1202.854, 9321.904
1204.782, 9360.910
1206.711, 9395.407
1208.639, 9403.571
1210.568, 9372.407
1212.496, 9358.284
1214.425, 9373.483
1216.353, 9376.887
1218.282, 9362.093
1220.210, 9375.872
1222.139, 9419.414
1224.067, 9437.662
1225.995, 9431.063
1227.924, 9430.015
1229.852, 9431.493
1231.781, 9414.533
1233.709, 9387.452
1235.638, 9364.549
1237.566, 9353.841
1239.495, 9377.679
1241.423, 9413.912
1243.352, 9436.414
1245.280, 9452.155
1247.209, 9459.595
1249.137, 9475.131
1251.066, 9539.217
1252.994, 9572.053
1254.922, 9495.131
1256.851, 9444.014
1258.779, 9510.093
1260.708, 9528.274
1262.636, 9399.354
1264.565, 9346.521
1266.493, 9429.240
1268.422, 9497.207
1270.350, 9556.898
1272.279, 9555.709
1274.207, 9488.966
1276.136, 9466.573
1278.064, 9482.011
1279.993, 9477.498
1281.921, 9462.419
1283.849, 9457.345
1285.778, 9469.047
1287.706, 9526.313
1289.635, 9588.180
1291.563, 9612.308
1293.492, 9614.578
1295.420, 9585.018
1297.349, 9577.909
1299.277, 9641.708
1301.206, 9677.629
1303.134, 9636.420
1305.063, 9620.396
1306.991, 9665.424
1308.920, 9655.174
1310.848, 9564.923
1312.776, 9534.549
1314.705, 9574.026
1316.633, 9644.369
1318.562, 9727.885
1320.490, 9706.874
1322.419, 9632.021
1324.347, 9631.685
1326.276, 9675.400
1328.204, 9750.506
1330.133, 9799.893
1332.061, 9732.564
1333.990, 9667.206
1335.918, 9673.071
1337.847, 9710.366
1339.775, 9817.392
1341.703, 9839.792
1343.632, 9832.025
1345.560, 9827.341
1347.489, 9748.180
1349.417, 9745.732
1351.346, 9656.676
1353.274, 9640.961
1355.203, 9681.771
1357.131, 9698.136
1359.060, 9700.896
1360.988, 9711.909
1362.917, 9724.226
1364.845, 9733.635
1366.774, 9735.796
1368.702, 9732.135
1370.630, 9713.187
1372.559, 9649.229
1374.487, 9619.967
1376.416, 9663.724
1378.344, 9696.616
1380.273, 9717.888
1382.201, 9700.076
1384.130, 9720.010
1386.058, 9729.534
1387.987, 9726.104
1389.915, 9757.926
1391.844, 9770.449
1393.772, 9785.683
1395.701, 9791.368
1397.629, 9771.481
1399.557, 9750.141
1401.486, 9741.980
1403.414, 9723.186
1405.343, 9724.230
1407.271, 9731.904
1409.200, 9726.360
1411.128, 9753.390
1413.057, 9749.619
1414.985, 9741.304
1416.914, 9737.305
1418.842, 9783.408
1420.771, 9838.388
1422.699, 9830.690
1424.628, 9811.300
1426.556, 9837.925
1428.484, 9841.159
1430.413, 9773.484
1432.341, 9731.424
1434.270, 9735.809
1436.198, 9756.704
1438.127, 9789.039
1440.055, 9791.340
1441.984, 9800.521
1443.912, 9776.628
1445.841, 9789.510
1447.769, 9769.819
1449.698, 9743.634
1451.626, 9743.042
1453.555, 9736.832
1455.483, 9692.066
1457.411, 9669.187
1459.340, 9689.334
1461.268, 9718.404
1463.197, 9758.023
1465.125, 9749.470
1467.054, 9707.820
1468.982, 9723.421
1470.911, 9778.127
1472.839, 9872.021
1474.768, 9935.233
1476.696, 9894.871
1478.625, 9820.993
1480.553, 9707.201
1482.482, 9661.415
1484.410, 9746.416
1486.339, 9774.410
1488.267, 9736.233
1490.195, 9672.981
1492.124, 9603.468
1494.052, 9611.143
1495.981, 9651.158
1497.909, 9667.249
1499.838, 9678.880
1501.766, 9719.127
1503.695, 9694.330
1505.623, 9677.925
1507.552, 9665.938
1509.480, 9609.496
1511.409, 9651.703
1513.337, 9640.930
1515.266, 9728.780
1517.194, 9700.107
1519.122, 9773.080
1521.051, 9683.505
1522.979, 9643.740
1524.908, 9649.364
1526.836, 9715.816
1528.765, 9755.443
1530.693, 9754.801
1532.622, 9774.361
1534.550, 9806.331
1536.479, 9786.952
1538.407, 9743.849
1540.336, 9710.867
1542.264, 9697.704
1544.193, 9719.602
1546.121, 9752.899
1548.049, 9814.797
1549.978, 9799.050
1551.906, 9826.083
1553.835, 9828.410
1555.763, 9812.437
1557.692, 9808.110
1559.620, 9756.737
1561.549, 9722.499
1563.477, 9701.899
1565.406, 9698.375
1567.334, 9696.487
1569.263, 9683.483
1571.191, 9698.566
1573.120, 9743.067
1575.048, 9758.232
1576.977, 9756.714
1578.905, 9775.285
1580.833, 9792.574
1582.762, 9789.395
1584.690, 9780.229
1586.619, 9772.973
1588.547, 9752.940
1590.476, 9711.320
1592.404, 9708.178
1594.333, 9737.475
1596.261, 9790.023
1598.190, 9830.112
1600.118, 9784.087
1602.047, 9749.665
1603.975, 9797.582
1605.904, 9760.174
1607.832, 9756.235
1609.760, 9734.328
1611.689, 9705.781
1613.617, 9690.996
1615.546, 9689.402
1617.474, 9657.169
1619.403, 9698.997
1621.331, 9667.816
1623.260, 9669.999
1625.188, 9736.681
1627.117, 9686.688
1629.045, 9539.961
1630.974, 9528.828
1632.902, 9586.421
1634.831, 9626.844
1636.759, 9634.621
1638.688, 9666.741
1640.616, 9667.064
1642.544, 9651.938
1644.473, 9650.563
1646.401, 9553.408
1648.330, 9512.489
1650.258, 9524.831
1652.187, 9636.321
1654.115, 9704.435
1656.044, 9593.446
1657.972, 9523.542
1659.901, 9538.142
1661.829, 9551.976
1663.758, 9555.098
1665.686, 9483.000
1667.615, 9411.199
1669.543, 9434.692
1671.471, 9475.213
1673.400, 9496.677
1675.328, 9531.045
1677.257, 9535.932
1679.185, 9532.040
1681.114, 9531.563
1683.042, 9502.097
1684.971, 9482.755
1686.899, 9469.009
1688.828, 9453.196
1690.756, 9434.832
1692.685, 9392.589
1694.613, 9334.011
1696.542, 9373.590
1698.470, 9441.938
1700.398, 9411.493
1702.327, 9380.774
1704.255, 9403.399
1706.184, 9404.194
1708.112, 9369.035
1710.041, 9337.956
1711.969, 9321.214
1713.898, 9363.428
1715.826, 9405.271
1717.755, 9368.284
1719.683, 9370.066
1721.612, 9445.107
1723.540, 9473.609
1725.469, 9450.276
1727.397, 9389.776
1729.325, 9335.352
1731.254, 9358.773
1733.182, 9377.961
1735.111, 9343.789
1737.039, 9371.967
1738.968, 9321.959
1740.896, 9381.066
1742.825, 9250.293
1744.753, 9254.743
1746.682, 9269.849
1748.610, 9194.711
1750.539, 9176.898
1752.467, 9235.048
1754.396, 9293.167
1756.324, 9325.886
1758.252, 9243.882
1760.181, 9170.806
1762.109, 9214.992
1764.038, 9236.318
1765.966, 9205.637
1767.895, 9145.495
1769.823, 9082.437
1771.752, 9127.731
1773.680, 9172.339
1775.609, 9127.921
1777.537, 9099.452
1779.466, 9119.526
1781.394, 9104.223
1783.323, 9069.086
1785.251, 9073.455
1787.179, 9088.200
1789.108, 9090.414
1791.036, 9107.592
1792.965, 9150.287
1794.893, 9105.372
1796.822, 9025.443
1798.750, 9107.026
1800.679, 9198.413
1802.607, 9195.115
1804.536, 9123.264
1806.464, 8987.359
1808.393, 8973.249
1810.321, 9038.243
1812.250, 9067.080
1814.178, 9093.453
1816.106, 9102.737
1818.035, 9099.471
1819.963, 9091.438
1821.892, 9060.622
1823.820, 9055.031
1825.749, 9013.798
1827.677, 8994.208
1829.606, 8975.744
1831.534, 8951.817
1833.463, 8951.295
1835.391, 8928.563
1837.320, 8947.012
1839.248, 8960.697
1841.177, 8949.906
1843.105, 8880.511
1845.033, 8861.156
1846.962, 8884.866
1848.890, 8911.158
1850.819, 8901.601
1852.747, 8775.217
1854.676, 8701.816
1856.604, 8751.628
1858.533, 8774.036
1860.461, 8783.011
1862.390, 8839.154
1864.318, 8872.208
1866.247, 8826.623
1868.175, 8798.552
1870.104, 8803.824
1872.032, 8776.846
1873.960, 8750.605
1875.889, 8799.311
1877.817, 8828.953
1879.746, 8804.648
1881.674, 8772.880
1883.603, 8745.002
1885.531, 8771.853
1887.460, 8781.688
1889.388, 8692.674
1891.317, 8644.762
1893.245, 8662.538
1895.174, 8697.437
1897.102, 8714.072
1899.031, 8623.451
1900.959, 8547.661
1902.887, 8531.376
1904.816, 8549.284
1906.744, 8584.548
1908.673, 8587.241
1910.601, 8567.132
1912.530, 8512.982
1914.458, 8489.774
1916.387, 8503.629
1918.315, 8481.131
1920.244, 8461.497
1922.172, 8544.636
1924.101, 8576.970
1926.029, 8486.453
1927.958, 8365.909
1929.886, 8268.837
1931.814, 8412.720
1933.743, 8543.283
1935.671, 8454.005
1937.600, 8402.285
1939.528, 8405.876
1941.457, 8343.774
1943.385, 8287.628
1945.314, 8315.171
1947.242, 8355.123
1949.171, 8392.491
1951.099, 8401.247
1953.028, 8386.258
1954.956, 8376.239
1956.885, 8313.228
1958.813, 8300.886
1960.741, 8249.607
1962.670, 8180.367
1964.598, 8176.241
1966.527, 8179.478
1968.455, 8163.608
1970.384, 8105.116
1972.312, 8025.167
1974.241, 8085.292
1976.169, 8162.430
1978.098, 8155.867
1980.026, 8114.913
1981.955, 8055.263
1983.883, 8049.030
1985.812, 8077.819
1987.740, 8138.266
1989.668, 8180.453
1991.597, 8194.739
1993.525, 8183.647
1995.454, 8140.173
1997.382, 8142.840
1999.311, 8121.112
2001.239, 8085.295
2003.168, 8084.141
2005.096, 8002.046
2007.025, 7952.885
2008.953, 7932.222
2010.882, 7941.293
2012.810, 7980.595
2014.739, 8024.020
2016.667, 8012.774
2018.595, 7970.349
2020.524, 7980.635
2022.452, 7948.753
2024.381, 7930.414
2026.309, 7890.819
2028.238, 7827.955
2030.166, 7763.221
2032.095, 7768.472
2034.023, 7740.668
2035.952, 7794.047
2037.880, 7760.232
2039.809, 7743.569
2041.737, 7784.448
2043.666, 7748.431
2045.594, 7800.764
2047.522, 7727.708
2049.451, 7679.691
2051.379, 7670.925
2053.308, 7689.047
2055.236, 7695.887
2057.165, 7672.544
2059.093, 7602.364
2061.022, 7569.843
2062.950, 7570.318
2064.879, 7547.611
2066.807, 7539.974
2068.736, 7533.279
2070.664, 7560.435
2072.593, 7514.195
2074.521, 7530.281
2076.449, 7511.000
2078.378, 7491.300
2080.306, 7504.290
2082.235, 7461.515
2084.163, 7495.749
2086.092, 7492.189
2088.020, 7446.912
2089.949, 7425.669
2091.877, 7409.680
2093.806, 7339.816
2095.734, 7294.315
2097.663, 7313.708
2099.591, 7246.030
2101.520, 7166.883
2103.448, 7215.420
2105.376, 7261.184
2107.305, 7268.936
2109.233, 7194.911
2111.162, 7143.604
2113.090, 7280.475
2115.019, 7321.609
2116.947, 7213.390
2118.876, 7182.339
2120.804, 7187.177
2122.733, 7205.974
2124.661, 7170.858
2126.590, 7087.631
2128.518, 7041.256
2130.447, 7037.858
2132.375, 6994.791
2134.303, 7063.700
2136.232, 6985.357
2138.160, 7027.119
2140.089, 7068.854
2142.017, 7062.831
2143.946, 7059.920
2145.874, 7054.461
2147.803, 7025.823
2149.731, 6988.922
2151.660, 6948.760
2153.588, 6942.830
2155.517, 6933.441
2157.445, 6854.718
2159.374, 6820.371
2161.302, 6833.896
2163.230, 6835.994
2165.159, 6835.879
2167.087, 6842.191
2169.016, 6842.189
2170.944, 6836.204
2172.873, 6834.606
2174.801, 6811.927
2176.730, 6754.281
2178.658, 6720.536
2180.587, 6720.073
2182.515, 6794.775
2184.444, 6804.743
2186.372, 6736.576
2188.301, 6690.766
2190.229, 6669.832
2192.157, 6701.149
2194.086, 6633.438
2196.014, 6646.899
2197.943, 6592.354
2199.871, 6649.467
2201.800, 6621.521
2203.728, 6660.997
2205.657, 6677.432
2207.585, 6537.074
2209.514, 6476.066
2211.442, 6515.199
2213.371, 6523.437
2215.299, 6505.967
2217.228, 6463.339
2219.156, 6438.917
2221.084, 6432.226
2223.013, 6401.857
2224.941, 6440.933
2226.870, 6367.208
2228.798, 6362.540
2230.727, 6351.368
2232.655, 6252.956
2234.584, 6247.381
2236.512, 6310.682
2238.441, 6361.365
2240.369, 6345.095
2242.298, 6254.532
2244.226, 6258.827
2246.155, 6292.462
2248.083, 6290.735
2250.011, 6283.787
2251.940, 6270.827
2253.868, 6268.740
2255.797, 6274.719
2257.725, 6255.737
2259.654, 6276.281
2261.582, 6267.396
2263.511, 6225.363
2265.439, 6163.814
2267.368, 6098.944
2269.296, 6087.726
2271.225, 6090.616
2273.153, 6095.108
2275.082, 6081.060
2277.010, 6052.534
2278.938, 6061.263
2280.867, 6009.362
2282.795, 6051.440
2284.724, 6025.588
2286.652, 5997.122
2288.581, 5987.851
2290.509, 5990.239
2292.438, 5967.951
2294.366, 5878.886
2296.295, 5855.250
2298.223, 5879.831
2300.152, 5878.161
2302.080, 5876.523
2304.009, 5880.265
2305.937, 5884.592
2307.865, 5852.764
2309.794, 5844.100
2311.722, 5818.680
2313.651, 5794.008
2315.579, 5766.740
2317.508, 5734.710
2319.436, 5717.467
2321.365, 5759.931
2323.293, 5796.401
2325.222, 5799.757
2327.150, 5714.391
2329.079, 5627.248
2331.007, 5653.187
2332.936, 5665.405
2334.864, 5646.384
2336.792, 5661.566
2338.721, 5631.636
2340.649, 5634.835
2342.578, 5583.917
2344.506, 5569.832
2346.435, 5506.290
2348.363, 5503.982
2350.292, 5487.099
2352.220, 5422.025
2354.149, 5405.323
2356.077, 5439.417
2358.006, 5413.108
2359.934, 5425.087
2361.863, 5426.174
2363.791, 5414.593
2365.719, 5415.811
2367.648, 5371.756
2369.576, 5356.930
2371.505, 5352.742
2373.433, 5322.474
2375.362, 5329.910
2377.290, 5348.479
2379.219, 5242.539
2381.147, 5171.453
2383.076, 5180.185
2385.004, 5314.483
2386.933, 5385.563
2388.861, 5295.693
2390.790, 5233.716
2392.718, 5202.453
2394.646, 5208.204
2396.575, 5184.875
2398.503, 5163.396
2400.432, 5233.618
2402.360, 5273.547
2404.289, 5260.348
2406.217, 5179.448
2408.146, 5088.724
2410.074, 5008.572
2412.003, 4957.931
2413.931, 4958.757
2415.860, 5067.690
2417.788, 5090.919
2419.717, 5047.486
2421.645, 4934.548
2423.573, 4919.377
2425.502, 4956.100
2427.430, 4908.764
2429.359, 4934.249
2431.287, 4912.061
2433.216, 4955.511
2435.144, 4882.215
2437.073, 4845.647
2439.001, 4851.412
2440.930, 4802.163
2442.858, 4799.646
2444.787, 4765.396
2446.715, 4770.406
2448.644, 4707.327
2450.572, 4667.618
2452.500, 4656.725
2454.429, 4661.941
2456.357, 4724.300
2458.286, 4790.081
2460.214, 4704.188
2462.143, 4659.348
2464.071, 4663.036
2466.000, 4595.758
2467.928, 4580.200
2469.857, 4621.994
2471.785, 4523.350
2473.714, 4443.820
2475.642, 4449.832
2477.571, 4501.264
2479.499, 4524.467
2481.427, 4453.110
2483.356, 4479.883
2485.284, 4520.212
2487.213, 4492.971
2489.141, 4398.144
2491.070, 4323.588
2492.998, 4391.811
2494.927, 4419.098
2496.855, 4415.998
2498.784, 4437.817
2500.712, 4450.169
2502.641, 4435.705
2504.569, 4344.662
2506.498, 4265.680
2508.426, 4217.441
2510.354, 4209.730
2512.283, 4195.010
2514.211, 4172.035
2516.140, 4235.236
2518.068, 4273.650
2519.997, 4248.051
2521.925, 4271.834
2523.854, 4265.716
2525.782, 4236.799
2527.711, 4236.891
2529.639, 4188.107
2531.568, 4137.170
2533.496, 4107.608
2535.425, 4128.196
2537.353, 4051.781
2539.281, 4107.385
2541.210, 3976.176
2543.138, 4024.586
2545.067, 4076.415
2546.995, 4088.869
2548.924, 4008.333
2550.852, 3905.732
2552.781, 3849.589
2554.709, 3828.222
2556.638, 3916.625
2558.566, 3808.497
2560.495, 3852.722
2562.423, 3809.797
2564.352, 3767.282
2566.280, 3899.488
2568.208, 3920.688
2570.137, 3869.624
2572.065, 3851.775
2573.994, 3815.207
2575.922, 3775.659
2577.851, 3765.940
2579.779, 3733.241
2581.708, 3723.027
2583.636, 3721.660
2585.565, 3703.538
2587.493, 3766.559
2589.422, 3758.982
2591.350, 3687.956
2593.279, 3616.694
2595.207, 3715.865
2597.135, 3731.693
2599.064, 3673.075
2600.992, 3599.774
2602.921, 3618.811
2604.849, 3683.247
2606.778, 3685.706
2608.706, 3591.417
2610.635, 3480.667
2612.563, 3535.883
2614.492, 3547.280
2616.420, 3522.945
2618.349, 3532.959
2620.277, 3518.621
2622.206, 3484.765
2624.134, 3456.895
2626.063, 3450.510
2627.991, 3448.177
2629.919, 3421.196
2631.848, 3441.415
2633.776, 3397.123
2635.705, 3405.251
2637.633, 3343.209
2639.562, 3400.353
2641.490, 3446.453
2643.419, 3444.123
2645.347, 3417.571
2647.276, 3392.931
2649.204, 3370.160
2651.133, 3347.468
2653.061, 3322.142
2654.990, 3351.166
2656.918, 3352.162
2658.846, 3267.268
2660.775, 3178.123
2662.703, 3143.503
2664.632, 3185.529
2666.560, 3152.447
2668.489, 3154.321
2670.417, 3226.558
2672.346, 3098.381
2674.274, 3010.257
2676.203, 3044.351
2678.131, 3112.848
2680.060, 3119.128
2681.988, 3058.862
2683.917, 3036.731
2685.845, 3005.390
2687.773, 2965.262
2689.702, 2956.373
2691.630, 2969.055
2693.559, 2997.465
2695.487, 2991.861
2697.416, 2999.131
2699.344, 3001.121
2701.273, 2997.339
2703.201, 2999.237
2705.130, 3006.669
2707.058, 3034.297
2708.987, 2941.856
2710.915, 2843.100
2712.844, 2836.946
2714.772, 2879.374
2716.700, 2890.120
2718.629, 2830.042
2720.557, 2831.621
2722.486, 2829.844
2724.414, 2798.656
2726.343, 2769.588
2728.271, 2760.847
2730.200, 2774.110
2732.128, 2816.837
2734.057, 2771.000
2735.985, 2778.756
2737.914, 2764.147
2739.842, 2742.847
2741.771, 2671.607
2743.699, 2656.435
2745.627, 2706.034
2747.556, 2701.437
2749.484, 2521.079
2751.413, 2447.830
2753.341, 2486.770
2755.270, 2626.107
2757.198, 2631.720
2759.127, 2532.038
2761.055, 2386.394
2762.984, 2464.258
2764.912, 2502.013
2766.841, 2481.235
2768.769, 2483.867
2770.698, 2471.848
2772.626, 2464.467
2774.554, 2491.236
2776.483, 2514.472
2778.411, 2520.976
2780.340, 2504.749
2782.268, 2497.825
2784.197, 2476.140
2786.125, 2460.300
2788.054, 2430.977
2789.982, 2427.049
2791.911, 2416.800
2793.839, 2412.514
2795.768, 2351.076
2797.696, 2325.464
2799.625, 2259.226
2801.553, 2238.045
2803.481, 2159.892
2805.410, 2197.603
2807.338, 2255.625
2809.267, 2257.248
2811.195, 2209.498
2813.124, 2251.514
2815.052, 2208.474
2816.981, 2227.455
2818.909, 2236.371
2820.838, 2264.542
2822.766, 2257.859
2824.695, 2291.880
2826.623, 2210.830
2828.552, 2139.753
2830.480, 2138.665
2832.408, 2183.831
2834.337, 2122.664
2836.265, 2141.988
2838.194, 2111.666
2840.122, 2104.611
2842.051, 2028.288
2843.979, 1957.518
2845.908, 1921.783
2847.836, 1938.666
2849.765, 2004.674
2851.693, 2030.096
2853.622, 1983.829
2855.550, 1910.403
2857.479, 1938.576
2859.407, 1966.073
2861.335, 1934.868
2863.264, 1806.806
2865.192, 1820.253
2867.121, 1882.761
2869.049, 1938.600
2870.978, 1959.580
2872.906, 1994.641
2874.835, 2000.279
2876.763, 1846.467
2878.692, 1778.637
2880.620, 1818.638
2882.549, 1965.954
2884.477, 1897.281
2886.406, 1854.322
2888.334, 1867.774
2890.262, 1779.360
2892.191, 1732.956
2894.119, 1715.176
2896.048, 1686.394
2897.976, 1724.672
2899.905, 1688.551
2901.833, 1725.266
2903.762, 1641.836
2905.690, 1740.362
2907.619, 1773.489
2909.547, 1679.293
2911.476, 1679.421
2913.404, 1698.391
2915.333, 1684.620
2917.261, 1672.027
2919.189, 1660.437
2921.118, 1648.374
2923.046, 1636.215
2924.975, 1596.754
2926.903, 1558.983
2928.832, 1541.702
2930.760, 1537.516
2932.689, 1528.766
2934.617, 1524.258
2936.546, 1571.329
2938.474, 1517.376
2940.403, 1488.486
2942.331, 1570.710
2944.260, 1495.141
2946.188, 1485.780
2948.116, 1531.488
2950.045, 1475.366
2951.973, 1437.240
2953.902, 1434.342
2955.830, 1469.816
2957.759, 1455.042
2959.687, 1420.181
2961.616, 1386.682
2963.544, 1380.108
2965.473, 1339.723
2967.401, 1334.981
2969.330, 1338.268
2971.258, 1388.997
2973.187, 1363.307
2975.115, 1349.455
2977.043, 1367.541
2978.972, 1346.608
2980.900, 1305.490
2982.829, 1266.898
2984.757, 1291.976
2986.686, 1227.521
2988.614, 1181.935
2990.543, 1294.964
2992.471, 1278.702
2994.400, 1233.330
2996.328, 1207.863
2998.257, 1220.348
3000.185, 1209.973
3002.114, 1201.119
3004.042, 1219.056
3005.970, 1313.167
3007.899, 1340.875
3009.827, 1289.541
3011.756, 1167.224
3013.684, 1165.937
3015.613, 1203.413
3017.541, 1225.744
3019.470, 1193.583
3021.398, 1174.417
3023.327, 1154.258
3025.255, 1111.704
3027.184, 1090.780
3029.112, 1076.144
3031.041, 1059.395
3032.969, 1032.454
3034.898, 1066.908
3036.826, 1104.009
3038.755, 1112.107
3040.683, 1088.397
3042.612, 1121.463
3044.540, 1159.927
3046.469, 1149.083
3048.397, 1060.227
3050.325, 1020.057
3052.254, 1041.454
3054.182, 1092.971
3056.111, 1183.502
3058.039, 1126.093
3059.968, 1133.500
3061.896, 1017.167
3063.825, 1051.172
3065.753, 1053.058
3067.682, 1031.643
3069.610, 942.8209
3071.539, 936.9345
3073.467, 989.8766
3075.396, 1054.907
3077.324, 1008.760
3079.252, 944.4052
3081.181, 920.5137
3083.109, 989.9870
3085.038, 979.9660
3086.966, 948.1214
3088.895, 929.1475
3090.823, 932.9362
3092.752, 943.3570
3094.680, 933.5085
3096.609, 894.3999
3098.537, 838.5035
3100.466, 825.9388
3102.394, 851.0472
3104.323, 892.6285
3106.251, 890.3735
3108.179, 863.3032
3110.108, 844.5308
3112.036, 859.8959
3113.965, 848.4542
3115.893, 831.3632
3117.822, 821.6541
3119.750, 827.0186
3121.679, 853.0840
3123.607, 900.9892
3125.536, 927.4413
3127.464, 835.6494
3129.393, 791.5505
3131.321, 852.6844
3133.250, 795.3631
3135.178, 836.5901
3137.106, 789.3234
3139.035, 791.3778
3140.963, 793.7457
3142.892, 697.5490
3144.820, 713.5752
3146.749, 748.5649
3148.677, 755.4018
3150.606, 824.2186
3152.534, 843.2798
3154.463, 840.1903
3156.391, 835.0037
3158.320, 796.1736
3160.248, 772.3581
3162.177, 755.0009
3164.105, 737.5568
3166.033, 728.1211
3167.962, 766.0042
3169.890, 774.2863
3171.819, 721.2500
3173.747, 741.2785
3175.676, 632.0231
3177.604, 552.6129
3179.533, 613.8171
3181.461, 697.7534
3183.390, 690.4454
3185.318, 620.9762
3187.247, 543.5568
3189.175, 617.0734
3191.104, 572.2748
3193.032, 516.5176
3194.960, 532.7408
3196.889, 511.9006
3198.817, 506.8949
3200.746, 533.1133
3202.674, 586.1876
3204.603, 633.4521
3206.531, 634.6498
3208.460, 605.9366
3210.388, 577.6191
3212.317, 626.7829
3214.245, 601.2007
3216.174, 623.9138
3218.102, 618.3246
3220.031, 649.4471
3221.959, 681.7205
3223.887, 675.3184
3225.816, 647.0872
3227.744, 693.8393
3229.673, 550.7511
3231.601, 542.4049
3233.530, 623.8550
3235.458, 517.5743
3237.387, 543.4285
3239.315, 478.0592
3241.244, 372.7516
3243.172, 366.9293
3245.101, 444.2060
3247.029, 486.0639
3248.958, 465.4983
3250.886, 392.3756
3252.814, 408.6289
3254.743, 373.3615
3256.671, 398.4417
3258.600, 532.2328
3260.528, 567.1619
3262.457, 511.1245
3264.385, 485.8509
3266.314, 502.8356
3268.242, 431.8399
3270.171, 428.3811
3272.099, 412.9351
3274.028, 382.1761
3275.956, 386.1327
3277.885, 409.7781
3279.813, 398.4745
3281.741, 419.3512
3283.670, 413.8070
3285.598, 438.3659
3287.527, 456.3809
3289.455, 446.3028
3291.384, 472.6376
3293.312, 467.5105
3295.241, 498.4306
3297.169, 517.0873
3299.098, 522.1087
3301.026, 487.2106
3302.955, 499.4413
3304.883, 408.9702
3306.812, 477.5290
3308.740, 532.5859
3310.668, 506.3164
3312.597, 462.3508
3314.525, 418.8939
3316.454, 373.9265
3318.382, 299.9436
3320.311, 376.8259
3322.239, 405.9639
3324.168, 362.5046
3326.096, 345.1144
3328.025, 391.2614
3329.953, 366.3856
3331.882, 351.5684
3333.810, 411.3338
3335.739, 429.7321
3337.667, 472.1045
3339.595, 434.9718
3341.524, 328.2426
3343.452, 247.3775
3345.381, 326.8754
3347.309, 353.4169
3349.238, 373.2574
3351.166, 454.9570
3353.095, 404.0844
3355.023, 445.3278
3356.952, 453.5229
3358.880, 395.9743
3360.809, 356.1967
3362.737, 380.3143
3364.666, 358.6429
3366.594, 348.7175
3368.522, 384.9474
3370.451, 359.0948
3372.379, 373.6397
3374.308, 358.5277
3376.236, 372.0692
3378.165, 401.7302
3380.093, 381.6904
3382.022, 426.8204
3383.950, 405.7903
3385.879, 364.3170
3387.807, 276.5696
3389.736, 295.7009
3391.664, 347.5753
3393.593, 403.6320
3395.521, 440.9047
3397.449, 444.8376
3399.378, 429.1480
3401.306, 379.8734
3403.235, 360.6388
3405.163, 320.8047
3407.092, 209.7942
3409.020, 253.4542
3410.949, 273.1939
3412.877, 266.0468
3414.806, 358.4440
3416.734, 309.7607
3418.663, 225.3819
3420.591, 220.3466
3422.520, 316.0244
3424.448, 241.2547
3426.376, 315.0850
3428.305, 300.3504
3430.233, 246.1073
3432.162, 330.2125
3434.090, 372.9566
3436.019, 316.3958
3437.947, 262.4362
3439.876, 256.6988
3441.804, 237.6916
3443.733, 302.5770
3445.661, 268.3134
3447.590, 280.5396
3449.518, 344.4256
3451.447, 333.1794
##END=



