##NAMES=Lorenzenite
##RRUFFID=R130051
##IDEAL CHEMISTRY=Na_2_Ti_2_O_3_(Si_2_O_6_)
##LOCALITY=Mont Saint-Hilaire, Rouville RCM, Monteregie, Quebec, Canada
##OWNER=RRUFF
##SOURCE=Don Doell
##DESCRIPTION=A jumbled mass of colorless hair-like crystals associated with black arfvedsonite and white microcline
##STATUS=The identification of this mineral has been confirmed by single-crystal X-ray diffraction
##URL=https://www.rruff.net/odr/rruff_sample/R130051
##DIFFRACTION SAMPLE DESCRIPTION=Single crystal, powder profile is calculated
##CELL PARAMETERS=a: 8.711 b: 5.232 c: 14.503 alpha: 90 beta: 90 gamma: 90 volume: 661 crystal system: orthorhombic
##FILETYPE=Raman RAW
##RAMAN WAVELENGTH=532

1.036855e+002, 1.276930e+002
1.056140e+002, 1.326512e+002
1.075425e+002, 1.347986e+002
1.094709e+002, 1.334533e+002
1.113994e+002, 1.281675e+002
1.133279e+002, 1.236234e+002
1.152563e+002, 1.206947e+002
1.171848e+002, 1.181913e+002
1.191133e+002, 1.148526e+002
1.210417e+002, 1.097517e+002
1.229702e+002, 1.045958e+002
1.248987e+002, 9.960941e+001
1.268271e+002, 9.472007e+001
1.287556e+002, 9.051768e+001
1.306841e+002, 8.703502e+001
1.326125e+002, 8.426604e+001
1.345410e+002, 8.243784e+001
1.364695e+002, 8.219434e+001
1.383979e+002, 8.222710e+001
1.403264e+002, 8.196279e+001
1.422549e+002, 8.128337e+001
1.441833e+002, 8.061697e+001
1.461118e+002, 8.008366e+001
1.480403e+002, 7.964771e+001
1.499687e+002, 7.906801e+001
1.518972e+002, 7.811179e+001
1.538257e+002, 7.717343e+001
1.557541e+002, 7.651762e+001
1.576826e+002, 7.592632e+001
1.596111e+002, 7.589066e+001
1.615395e+002, 7.691259e+001
1.634680e+002, 7.879546e+001
1.653965e+002, 8.025159e+001
1.673249e+002, 8.041858e+001
1.692534e+002, 8.031298e+001
1.711819e+002, 8.094495e+001
1.731103e+002, 8.105156e+001
1.750388e+002, 8.329427e+001
1.769673e+002, 8.860738e+001
1.788957e+002, 9.683350e+001
1.808242e+002, 1.072584e+002
1.827527e+002, 1.202037e+002
1.846811e+002, 1.349586e+002
1.866096e+002, 1.501047e+002
1.885381e+002, 1.644539e+002
1.904665e+002, 1.809168e+002
1.923950e+002, 2.002298e+002
1.943235e+002, 2.204795e+002
1.962519e+002, 2.350974e+002
1.981804e+002, 2.516807e+002
2.001089e+002, 2.693540e+002
2.020373e+002, 2.855334e+002
2.039658e+002, 2.994319e+002
2.058943e+002, 3.129833e+002
2.078227e+002, 3.271201e+002
2.097512e+002, 3.426430e+002
2.116797e+002, 3.568748e+002
2.136081e+002, 3.726425e+002
2.155366e+002, 3.872539e+002
2.174651e+002, 3.935275e+002
2.193935e+002, 3.840397e+002
2.213220e+002, 3.723414e+002
2.232505e+002, 3.631129e+002
2.251789e+002, 3.546344e+002
2.271074e+002, 3.531410e+002
2.290359e+002, 3.611313e+002
2.309643e+002, 3.769935e+002
2.328928e+002, 3.969510e+002
2.348213e+002, 4.234686e+002
2.367497e+002, 4.516828e+002
2.386782e+002, 4.779762e+002
2.406067e+002, 5.005244e+002
2.425351e+002, 5.279979e+002
2.444636e+002, 5.624930e+002
2.463921e+002, 6.033359e+002
2.483205e+002, 6.462352e+002
2.502490e+002, 6.912475e+002
2.521775e+002, 7.378510e+002
2.541059e+002, 7.885452e+002
2.560344e+002, 8.525450e+002
2.579629e+002, 8.982309e+002
2.598913e+002, 9.190403e+002
2.618198e+002, 9.162628e+002
2.637483e+002, 9.052903e+002
2.656767e+002, 8.753136e+002
2.676052e+002, 8.473621e+002
2.695337e+002, 8.325015e+002
2.714621e+002, 8.386488e+002
2.733906e+002, 8.485231e+002
2.753191e+002, 8.642774e+002
2.772475e+002, 8.834676e+002
2.791760e+002, 8.992195e+002
2.811045e+002, 9.051962e+002
2.830329e+002, 9.125797e+002
2.849614e+002, 9.272630e+002
2.868899e+002, 9.535134e+002
2.888183e+002, 9.802345e+002
2.907468e+002, 1.009309e+003
2.926753e+002, 1.038251e+003
2.946037e+002, 1.061886e+003
2.965322e+002, 1.077853e+003
2.984607e+002, 1.089471e+003
3.003891e+002, 1.098656e+003
3.023176e+002, 1.107093e+003
3.042461e+002, 1.106713e+003
3.061745e+002, 1.094530e+003
3.081030e+002, 1.072696e+003
3.100315e+002, 1.042688e+003
3.119599e+002, 9.943444e+002
3.138884e+002, 9.468024e+002
3.158169e+002, 9.060283e+002
3.177453e+002, 8.712358e+002
3.196738e+002, 8.437226e+002
3.216023e+002, 8.258542e+002
3.235307e+002, 8.147430e+002
3.254592e+002, 8.076305e+002
3.273877e+002, 8.118705e+002
3.293161e+002, 8.125719e+002
3.312446e+002, 8.066888e+002
3.331731e+002, 7.951221e+002
3.351015e+002, 7.729995e+002
3.370300e+002, 7.323017e+002
3.389585e+002, 6.841899e+002
3.408869e+002, 6.394942e+002
3.428154e+002, 5.959964e+002
3.447439e+002, 5.586397e+002
3.466723e+002, 5.325484e+002
3.486008e+002, 5.158576e+002
3.505292e+002, 4.958082e+002
3.524577e+002, 4.692989e+002
3.543862e+002, 4.404892e+002
3.563146e+002, 4.112586e+002
3.582431e+002, 3.797935e+002
3.601716e+002, 3.525220e+002
3.621000e+002, 3.320177e+002
3.640285e+002, 3.171229e+002
3.659570e+002, 3.047977e+002
3.678854e+002, 2.962189e+002
3.698139e+002, 2.889792e+002
3.717424e+002, 2.821032e+002
3.736708e+002, 2.754966e+002
3.755993e+002, 2.695770e+002
3.775278e+002, 2.646112e+002
3.794562e+002, 2.603459e+002
3.813847e+002, 2.564655e+002
3.833132e+002, 2.526856e+002
3.852416e+002, 2.495753e+002
3.871701e+002, 2.474226e+002
3.890986e+002, 2.461239e+002
3.910270e+002, 2.456409e+002
3.929555e+002, 2.455175e+002
3.948840e+002, 2.464049e+002
3.968124e+002, 2.490724e+002
3.987409e+002, 2.532446e+002
4.006694e+002, 2.593076e+002
4.025978e+002, 2.680614e+002
4.045263e+002, 2.788862e+002
4.064548e+002, 2.904959e+002
4.083832e+002, 3.019432e+002
4.103117e+002, 3.147802e+002
4.122402e+002, 3.300191e+002
4.141686e+002, 3.476685e+002
4.160971e+002, 3.670858e+002
4.180256e+002, 3.887009e+002
4.199540e+002, 4.120416e+002
4.218825e+002, 4.367033e+002
4.238110e+002, 4.624491e+002
4.257394e+002, 4.898947e+002
4.276679e+002, 5.196364e+002
4.295964e+002, 5.515928e+002
4.315248e+002, 5.844764e+002
4.334533e+002, 6.203242e+002
4.353818e+002, 6.556780e+002
4.373102e+002, 6.881262e+002
4.392387e+002, 7.180593e+002
4.411672e+002, 7.442051e+002
4.430956e+002, 7.676814e+002
4.450241e+002, 7.867474e+002
4.469526e+002, 7.988974e+002
4.488810e+002, 8.013864e+002
4.508095e+002, 7.988177e+002
4.527380e+002, 7.919191e+002
4.546664e+002, 7.787458e+002
4.565949e+002, 7.676832e+002
4.585234e+002, 7.555051e+002
4.604518e+002, 7.475934e+002
4.623803e+002, 7.474007e+002
4.643088e+002, 7.566650e+002
4.662372e+002, 7.712995e+002
4.681657e+002, 7.914382e+002
4.700942e+002, 8.165107e+002
4.720226e+002, 8.425986e+002
4.739511e+002, 8.721423e+002
4.758796e+002, 9.000006e+002
4.778080e+002, 9.260840e+002
4.797365e+002, 9.523663e+002
4.816650e+002, 9.661679e+002
4.835934e+002, 9.683176e+002
4.855219e+002, 9.584777e+002
4.874504e+002, 9.332701e+002
4.893788e+002, 8.892429e+002
4.913073e+002, 8.425510e+002
4.932358e+002, 7.959310e+002
4.951642e+002, 7.497617e+002
4.970927e+002, 7.061960e+002
4.990212e+002, 6.695900e+002
5.009496e+002, 6.314694e+002
5.028781e+002, 5.862902e+002
5.048066e+002, 5.338990e+002
5.067350e+002, 4.855239e+002
5.086635e+002, 4.415298e+002
5.105920e+002, 4.035551e+002
5.125204e+002, 3.734860e+002
5.144489e+002, 3.552027e+002
5.163774e+002, 3.414624e+002
5.183058e+002, 3.324961e+002
5.202343e+002, 3.283539e+002
5.221628e+002, 3.279738e+002
5.240912e+002, 3.325314e+002
5.260197e+002, 3.397115e+002
5.279482e+002, 3.491353e+002
5.298766e+002, 3.614780e+002
5.318051e+002, 3.726833e+002
5.337336e+002, 3.846054e+002
5.356620e+002, 3.942048e+002
5.375905e+002, 4.002159e+002
5.395190e+002, 4.035745e+002
5.414474e+002, 3.999751e+002
5.433759e+002, 3.861688e+002
5.453044e+002, 3.656880e+002
5.472328e+002, 3.447531e+002
5.491613e+002, 3.206294e+002
5.510898e+002, 2.994159e+002
5.530182e+002, 2.836444e+002
5.549467e+002, 2.723334e+002
5.568752e+002, 2.629732e+002
5.588036e+002, 2.562077e+002
5.607321e+002, 2.508472e+002
5.626606e+002, 2.465440e+002
5.645891e+002, 2.434502e+002
5.665175e+002, 2.412941e+002
5.684460e+002, 2.401212e+002
5.703745e+002, 2.399678e+002
5.723029e+002, 2.407540e+002
5.742314e+002, 2.426700e+002
5.761599e+002, 2.451954e+002
5.780883e+002, 2.484213e+002
5.800168e+002, 2.521187e+002
5.819453e+002, 2.555973e+002
5.838737e+002, 2.582947e+002
5.858022e+002, 2.615927e+002
5.877307e+002, 2.656945e+002
5.896591e+002, 2.705906e+002
5.915876e+002, 2.772330e+002
5.935161e+002, 2.856362e+002
5.954445e+002, 2.957770e+002
5.973729e+002, 3.076370e+002
5.993014e+002, 3.211144e+002
6.012299e+002, 3.372692e+002
6.031583e+002, 3.553525e+002
6.050868e+002, 3.771154e+002
6.070153e+002, 4.038084e+002
6.089437e+002, 4.361064e+002
6.108722e+002, 4.730660e+002
6.128007e+002, 5.140497e+002
6.147291e+002, 5.598072e+002
6.166576e+002, 6.114903e+002
6.185861e+002, 6.707332e+002
6.205145e+002, 7.320907e+002
6.224430e+002, 7.956832e+002
6.243715e+002, 8.608404e+002
6.262999e+002, 9.204989e+002
6.282284e+002, 9.788339e+002
6.301569e+002, 1.027856e+003
6.320853e+002, 1.065771e+003
6.340138e+002, 1.091964e+003
6.359423e+002, 1.100785e+003
6.378707e+002, 1.087849e+003
6.397992e+002, 1.058587e+003
6.417277e+002, 1.015907e+003
6.436561e+002, 9.537791e+002
6.455846e+002, 8.911265e+002
6.475131e+002, 8.248375e+002
6.494415e+002, 7.602686e+002
6.513700e+002, 7.030786e+002
6.532985e+002, 6.526599e+002
6.552269e+002, 6.090139e+002
6.571554e+002, 5.733431e+002
6.590839e+002, 5.437641e+002
6.610123e+002, 5.178664e+002
6.629408e+002, 4.955779e+002
6.648693e+002, 4.768750e+002
6.667977e+002, 4.623207e+002
6.687262e+002, 4.517118e+002
6.706547e+002, 4.433314e+002
6.725831e+002, 4.363923e+002
6.745116e+002, 4.330999e+002
6.764401e+002, 4.336652e+002
6.783685e+002, 4.380853e+002
6.802970e+002, 4.470146e+002
6.822255e+002, 4.596477e+002
6.841539e+002, 4.766184e+002
6.860824e+002, 4.992958e+002
6.880109e+002, 5.273020e+002
6.899393e+002, 5.577949e+002
6.918678e+002, 5.927067e+002
6.937963e+002, 6.281865e+002
6.957247e+002, 6.621652e+002
6.976532e+002, 6.976351e+002
6.995817e+002, 7.252281e+002
7.015101e+002, 7.470507e+002
7.034386e+002, 7.599618e+002
7.053671e+002, 7.604355e+002
7.072955e+002, 7.478586e+002
7.092240e+002, 7.282811e+002
7.111525e+002, 6.988343e+002
7.130809e+002, 6.647461e+002
7.150094e+002, 6.332206e+002
7.169379e+002, 6.039039e+002
7.188663e+002, 5.775836e+002
7.207948e+002, 5.544589e+002
7.227233e+002, 5.346232e+002
7.246517e+002, 5.177628e+002
7.265802e+002, 5.044459e+002
7.285087e+002, 4.930598e+002
7.304371e+002, 4.832190e+002
7.323656e+002, 4.747723e+002
7.342941e+002, 4.670842e+002
7.362225e+002, 4.604706e+002
7.381510e+002, 4.542142e+002
7.400795e+002, 4.483498e+002
7.420079e+002, 4.428001e+002
7.439364e+002, 4.371143e+002
7.458649e+002, 4.313300e+002
7.477933e+002, 4.253865e+002
7.497218e+002, 4.191649e+002
7.516503e+002, 4.126232e+002
7.535787e+002, 4.063984e+002
7.555072e+002, 4.005930e+002
7.574357e+002, 3.949077e+002
7.593641e+002, 3.892783e+002
7.612926e+002, 3.836364e+002
7.632211e+002, 3.776576e+002
7.651495e+002, 3.711776e+002
7.670780e+002, 3.644235e+002
7.690065e+002, 3.574209e+002
7.709349e+002, 3.499234e+002
7.728634e+002, 3.432469e+002
7.747919e+002, 3.377924e+002
7.767203e+002, 3.328807e+002
7.786488e+002, 3.280394e+002
7.805773e+002, 3.232495e+002
7.825057e+002, 3.189581e+002
7.844342e+002, 3.152848e+002
7.863627e+002, 3.120639e+002
7.882911e+002, 3.092191e+002
7.902196e+002, 3.069085e+002
7.921481e+002, 3.043180e+002
7.940765e+002, 3.016384e+002
7.960050e+002, 2.985074e+002
7.979335e+002, 2.945585e+002
7.998619e+002, 2.898378e+002
8.017904e+002, 2.846167e+002
8.037189e+002, 2.785715e+002
8.056473e+002, 2.723896e+002
8.075758e+002, 2.665449e+002
8.095043e+002, 2.609746e+002
8.114327e+002, 2.560593e+002
8.133612e+002, 2.518731e+002
8.152897e+002, 2.482142e+002
8.172181e+002, 2.448533e+002
8.191466e+002, 2.416829e+002
8.210751e+002, 2.390532e+002
8.230035e+002, 2.372762e+002
8.249320e+002, 2.359732e+002
8.268605e+002, 2.348053e+002
8.287889e+002, 2.337854e+002
8.307174e+002, 2.329717e+002
8.326459e+002, 2.322976e+002
8.345743e+002, 2.318607e+002
8.365028e+002, 2.318076e+002
8.384313e+002, 2.321961e+002
8.403597e+002, 2.326700e+002
8.422882e+002, 2.334787e+002
8.442167e+002, 2.341028e+002
8.461451e+002, 2.340876e+002
8.480736e+002, 2.332859e+002
8.500021e+002, 2.322877e+002
8.519305e+002, 2.309827e+002
8.538590e+002, 2.296699e+002
8.557875e+002, 2.286392e+002
8.577159e+002, 2.279591e+002
8.596444e+002, 2.274727e+002
8.615729e+002, 2.272890e+002
8.635013e+002, 2.272667e+002
8.654298e+002, 2.272879e+002
8.673583e+002, 2.273595e+002
8.692867e+002, 2.274724e+002
8.712152e+002, 2.273504e+002
8.731437e+002, 2.274566e+002
8.750721e+002, 2.281933e+002
8.770006e+002, 2.298743e+002
8.789291e+002, 2.314959e+002
8.808575e+002, 2.330445e+002
8.827860e+002, 2.345387e+002
8.847145e+002, 2.360026e+002
8.866429e+002, 2.374350e+002
8.885714e+002, 2.388028e+002
8.904999e+002, 2.404429e+002
8.924283e+002, 2.416668e+002
8.943568e+002, 2.420600e+002
8.962853e+002, 2.415006e+002
8.982137e+002, 2.403814e+002
9.001422e+002, 2.384677e+002
9.020707e+002, 2.362488e+002
9.039991e+002, 2.337678e+002
9.059276e+002, 2.310848e+002
9.078561e+002, 2.290676e+002
9.097845e+002, 2.282202e+002
9.117130e+002, 2.276371e+002
9.136415e+002, 2.265529e+002
9.155699e+002, 2.249059e+002
9.174984e+002, 2.247525e+002
9.194269e+002, 2.272617e+002
9.213553e+002, 2.300477e+002
9.232838e+002, 2.321251e+002
9.252123e+002, 2.336342e+002
9.271407e+002, 2.359080e+002
9.290692e+002, 2.393649e+002
9.309976e+002, 2.429191e+002
9.329261e+002, 2.457958e+002
9.348546e+002, 2.484211e+002
9.367830e+002, 2.519976e+002
9.387115e+002, 2.566978e+002
9.406400e+002, 2.623218e+002
9.425684e+002, 2.687798e+002
9.444969e+002, 2.760899e+002
9.464254e+002, 2.845316e+002
9.483538e+002, 2.950083e+002
9.502823e+002, 3.048671e+002
9.522108e+002, 3.142915e+002
9.541392e+002, 3.223916e+002
9.560677e+002, 3.285172e+002
9.579962e+002, 3.328777e+002
9.599246e+002, 3.342052e+002
9.618531e+002, 3.320205e+002
9.637816e+002, 3.268207e+002
9.657100e+002, 3.185829e+002
9.676385e+002, 3.044888e+002
9.695670e+002, 2.927764e+002
9.714954e+002, 2.826943e+002
9.734239e+002, 2.754404e+002
9.753524e+002, 2.726243e+002
9.772808e+002, 2.739506e+002
9.792093e+002, 2.772197e+002
9.811378e+002, 2.830424e+002
9.830662e+002, 2.898331e+002
9.849947e+002, 2.973293e+002
9.869232e+002, 3.056754e+002
9.888516e+002, 3.120753e+002
9.907801e+002, 3.165888e+002
9.927086e+002, 3.191729e+002
9.946370e+002, 3.200024e+002
9.965655e+002, 3.187958e+002
9.984940e+002, 3.148135e+002
1.000422e+003, 3.081030e+002
1.002351e+003, 2.986160e+002
1.004279e+003, 2.840157e+002
1.006208e+003, 2.671619e+002
1.008136e+003, 2.525094e+002
1.010065e+003, 2.400868e+002
1.011993e+003, 2.302765e+002
1.013922e+003, 2.239490e+002
1.015850e+003, 2.196474e+002
1.017779e+003, 2.158517e+002
1.019707e+003, 2.125067e+002
1.021636e+003, 2.100142e+002
1.023564e+003, 2.085984e+002
1.025493e+003, 2.078950e+002
1.027421e+003, 2.078092e+002
1.029349e+003, 2.082668e+002
1.031278e+003, 2.087708e+002
1.033206e+003, 2.092989e+002
1.035135e+003, 2.097366e+002
1.037063e+003, 2.100818e+002
1.038992e+003, 2.103101e+002
1.040920e+003, 2.102204e+002
1.042849e+003, 2.101368e+002
1.044777e+003, 2.093306e+002
1.046706e+003, 2.072756e+002
1.048634e+003, 2.044421e+002
1.050563e+003, 2.018052e+002
1.052491e+003, 1.992256e+002
1.054420e+003, 1.972048e+002
1.056348e+003, 1.963820e+002
1.058276e+003, 1.958760e+002
1.060205e+003, 1.947942e+002
1.062133e+003, 1.930181e+002
1.064062e+003, 1.914967e+002
1.065990e+003, 1.905581e+002
1.067919e+003, 1.897718e+002
1.069847e+003, 1.889095e+002
1.071776e+003, 1.879536e+002
1.073704e+003, 1.871214e+002
1.075633e+003, 1.863834e+002
1.077561e+003, 1.857382e+002
1.079490e+003, 1.850985e+002
1.081418e+003, 1.845405e+002
1.083347e+003, 1.843239e+002
1.085275e+003, 1.846711e+002
1.087203e+003, 1.847601e+002
1.089132e+003, 1.843222e+002
1.091060e+003, 1.835414e+002
1.092989e+003, 1.825151e+002
1.094917e+003, 1.811026e+002
1.096846e+003, 1.799762e+002
1.098774e+003, 1.792677e+002
1.100703e+003, 1.787451e+002
1.102631e+003, 1.782294e+002
1.104560e+003, 1.776972e+002
1.106488e+003, 1.773773e+002
1.108417e+003, 1.774842e+002
1.110345e+003, 1.774433e+002
1.112273e+003, 1.769590e+002
1.114202e+003, 1.761880e+002
1.116130e+003, 1.754209e+002
1.118059e+003, 1.746834e+002
1.119987e+003, 1.740106e+002
1.121916e+003, 1.734639e+002
1.123844e+003, 1.730090e+002
1.125773e+003, 1.726425e+002
1.127701e+003, 1.724641e+002
1.129630e+003, 1.721222e+002
1.131558e+003, 1.712799e+002
1.133487e+003, 1.705988e+002
1.135415e+003, 1.705530e+002
1.137344e+003, 1.710025e+002
1.139272e+003, 1.710466e+002
1.141200e+003, 1.703940e+002
1.143129e+003, 1.698584e+002
1.145057e+003, 1.697310e+002
1.146986e+003, 1.698580e+002
1.148914e+003, 1.701296e+002
1.150843e+003, 1.706443e+002
1.152771e+003, 1.708322e+002
1.154700e+003, 1.703620e+002
1.156628e+003, 1.697461e+002
1.158557e+003, 1.692500e+002
1.160485e+003, 1.688858e+002
1.162414e+003, 1.686005e+002
1.164342e+003, 1.682754e+002
1.166271e+003, 1.681941e+002
1.168199e+003, 1.686588e+002
1.170127e+003, 1.693778e+002
1.172056e+003, 1.698079e+002
1.173984e+003, 1.699624e+002
1.175913e+003, 1.698469e+002
1.177841e+003, 1.690709e+002
1.179770e+003, 1.683818e+002
1.181698e+003, 1.683615e+002
1.183627e+003, 1.689854e+002
1.185555e+003, 1.695032e+002
1.187484e+003, 1.698054e+002
1.189412e+003, 1.700085e+002
1.191341e+003, 1.700923e+002
1.193269e+003, 1.700905e+002
1.195198e+003, 1.700969e+002
1.197126e+003, 1.701892e+002
1.199054e+003, 1.701584e+002
1.200983e+003, 1.699144e+002
1.202911e+003, 1.696310e+002
1.204840e+003, 1.693947e+002
1.206768e+003, 1.692259e+002
1.208697e+003, 1.693118e+002
1.210625e+003, 1.699001e+002
1.212554e+003, 1.703439e+002
1.214482e+003, 1.702568e+002
1.216411e+003, 1.698743e+002
1.218339e+003, 1.695744e+002
1.220268e+003, 1.693860e+002
1.222196e+003, 1.691669e+002
1.224125e+003, 1.687197e+002
1.226053e+003, 1.684026e+002
1.227981e+003, 1.684733e+002
1.229910e+003, 1.689388e+002
1.231838e+003, 1.694368e+002
1.233767e+003, 1.701326e+002
1.235695e+003, 1.706633e+002
1.237624e+003, 1.708357e+002
1.239552e+003, 1.708423e+002
1.241481e+003, 1.710016e+002
1.243409e+003, 1.713426e+002
1.245338e+003, 1.714376e+002
1.247266e+003, 1.709829e+002
1.249195e+003, 1.705471e+002
1.251123e+003, 1.703870e+002
1.253052e+003, 1.704980e+002
1.254980e+003, 1.709457e+002
1.256908e+003, 1.719834e+002
1.258837e+003, 1.727722e+002
1.260765e+003, 1.730738e+002
1.262694e+003, 1.730816e+002
1.264622e+003, 1.728382e+002
1.266551e+003, 1.722063e+002
1.268479e+003, 1.720807e+002
1.270408e+003, 1.729482e+002
1.272336e+003, 1.737033e+002
1.274265e+003, 1.739819e+002
1.276193e+003, 1.739619e+002
1.278122e+003, 1.739633e+002
1.280050e+003, 1.739939e+002
1.281979e+003, 1.740547e+002
1.283907e+003, 1.739474e+002
1.285835e+003, 1.740455e+002
1.287764e+003, 1.749050e+002
1.289692e+003, 1.761455e+002
1.291621e+003, 1.764117e+002
1.293549e+003, 1.750324e+002
1.295478e+003, 1.741979e+002
1.297406e+003, 1.751251e+002
1.299335e+003, 1.764465e+002
1.301263e+003, 1.770050e+002
1.303192e+003, 1.766784e+002
1.305120e+003, 1.765462e+002
1.307049e+003, 1.767606e+002
1.308977e+003, 1.770267e+002
1.310906e+003, 1.774185e+002
1.312834e+003, 1.777756e+002
1.314762e+003, 1.777922e+002
1.316691e+003, 1.773282e+002
1.318619e+003, 1.769668e+002
1.320548e+003, 1.769166e+002
1.322476e+003, 1.767606e+002
1.324405e+003, 1.759962e+002
1.326333e+003, 1.750121e+002
1.328262e+003, 1.748179e+002
1.330190e+003, 1.756003e+002
1.332119e+003, 1.764299e+002
1.334047e+003, 1.772129e+002
1.335976e+003, 1.778519e+002
1.337904e+003, 1.783106e+002
1.339833e+003, 1.785915e+002
1.341761e+003, 1.786401e+002
1.343689e+003, 1.782009e+002
1.345618e+003, 1.780406e+002
1.347546e+003, 1.786377e+002
1.349475e+003, 1.793283e+002
1.351403e+003, 1.795002e+002
1.353332e+003, 1.790952e+002
1.355260e+003, 1.788126e+002
1.357189e+003, 1.787768e+002
1.359117e+003, 1.787411e+002
1.361046e+003, 1.785134e+002
1.362974e+003, 1.783354e+002
1.364903e+003, 1.785670e+002
1.366831e+003, 1.792678e+002
1.368760e+003, 1.797650e+002
1.370688e+003, 1.798253e+002
1.372616e+003, 1.798897e+002
1.374545e+003, 1.803331e+002
1.376473e+003, 1.807868e+002
1.378402e+003, 1.806183e+002
1.380330e+003, 1.797997e+002
1.382259e+003, 1.792786e+002
1.384187e+003, 1.794303e+002
1.386116e+003, 1.796440e+002
1.388044e+003, 1.794704e+002
1.389973e+003, 1.791931e+002
1.391901e+003, 1.794469e+002
1.393830e+003, 1.803788e+002
1.395758e+003, 1.810645e+002
1.397687e+003, 1.813244e+002
1.399615e+003, 1.812985e+002
1.401543e+003, 1.809129e+002
1.403472e+003, 1.802919e+002
1.405400e+003, 1.797755e+002
1.407329e+003, 1.792472e+002
1.409257e+003, 1.791018e+002
1.411186e+003, 1.798764e+002
1.413114e+003, 1.804923e+002
1.415043e+003, 1.800625e+002
1.416971e+003, 1.790270e+002
1.418900e+003, 1.789447e+002
1.420828e+003, 1.803666e+002
1.422757e+003, 1.812791e+002
1.424685e+003, 1.809537e+002
1.426614e+003, 1.805923e+002
1.428542e+003, 1.810230e+002
1.430470e+003, 1.819453e+002
1.432399e+003, 1.824486e+002
1.434327e+003, 1.824476e+002
1.436256e+003, 1.824641e+002
1.438184e+003, 1.825133e+002
1.440113e+003, 1.827244e+002
1.442041e+003, 1.833011e+002
1.443970e+003, 1.840502e+002
1.445898e+003, 1.845267e+002
1.447827e+003, 1.846522e+002
1.449755e+003, 1.846887e+002
1.451684e+003, 1.846103e+002
1.453612e+003, 1.845420e+002
1.455541e+003, 1.846325e+002
1.457469e+003, 1.848053e+002
1.459397e+003, 1.847763e+002
1.461326e+003, 1.844671e+002
1.463254e+003, 1.843304e+002
1.465183e+003, 1.843853e+002
1.467111e+003, 1.846955e+002
1.469040e+003, 1.854966e+002
1.470968e+003, 1.865290e+002
1.472897e+003, 1.871331e+002
1.474825e+003, 1.868864e+002
1.476754e+003, 1.870821e+002
1.478682e+003, 1.881932e+002
1.480611e+003, 1.891680e+002
1.482539e+003, 1.895509e+002
1.484468e+003, 1.895251e+002
1.486396e+003, 1.894017e+002
1.488324e+003, 1.891451e+002
1.490253e+003, 1.888664e+002
1.492181e+003, 1.882073e+002
1.494110e+003, 1.879046e+002
1.496038e+003, 1.884326e+002
1.497967e+003, 1.893238e+002
1.499895e+003, 1.900188e+002
1.501824e+003, 1.905403e+002
1.503752e+003, 1.906783e+002
1.505681e+003, 1.901741e+002
1.507609e+003, 1.898274e+002
1.509538e+003, 1.900298e+002
1.511466e+003, 1.905083e+002
1.513395e+003, 1.910991e+002
1.515323e+003, 1.917567e+002
1.517251e+003, 1.921149e+002
1.519180e+003, 1.920641e+002
1.521108e+003, 1.918366e+002
1.523037e+003, 1.911212e+002
1.524965e+003, 1.905438e+002
1.526894e+003, 1.907168e+002
1.528822e+003, 1.914015e+002
1.530751e+003, 1.916416e+002
1.532679e+003, 1.913085e+002
1.534608e+003, 1.909416e+002
1.536536e+003, 1.906323e+002
1.538465e+003, 1.904765e+002
1.540393e+003, 1.906257e+002
1.542322e+003, 1.910048e+002
1.544250e+003, 1.913142e+002
1.546178e+003, 1.914631e+002
1.548107e+003, 1.918825e+002
1.550035e+003, 1.926955e+002
1.551964e+003, 1.935648e+002
1.553892e+003, 1.946763e+002
1.555821e+003, 1.955359e+002
1.557749e+003, 1.952013e+002
1.559678e+003, 1.932463e+002
1.561606e+003, 1.926032e+002
1.563535e+003, 1.945834e+002
1.565463e+003, 1.961961e+002
1.567392e+003, 1.968842e+002
1.569320e+003, 1.971164e+002
1.571249e+003, 1.972370e+002
1.573177e+003, 1.972304e+002
1.575105e+003, 1.970372e+002
1.577034e+003, 1.960077e+002
1.578962e+003, 1.957586e+002
1.580891e+003, 1.971662e+002
1.582819e+003, 1.984821e+002
1.584748e+003, 1.986677e+002
1.586676e+003, 1.981890e+002
1.588605e+003, 1.980161e+002
1.590533e+003, 1.982545e+002
1.592462e+003, 1.985429e+002
1.594390e+003, 1.989970e+002
1.596319e+003, 1.993187e+002
1.598247e+003, 1.992048e+002
1.600176e+003, 1.990019e+002
1.602104e+003, 1.990394e+002
1.604032e+003, 1.992975e+002
1.605961e+003, 1.997646e+002
1.607889e+003, 2.007006e+002
1.609818e+003, 2.012050e+002
1.611746e+003, 2.008196e+002
1.613675e+003, 2.003023e+002
1.615603e+003, 2.001970e+002
1.617532e+003, 2.002868e+002
1.619460e+003, 1.999454e+002
1.621389e+003, 1.990970e+002
1.623317e+003, 1.988229e+002
1.625246e+003, 1.995402e+002
1.627174e+003, 2.003305e+002
1.629103e+003, 2.008150e+002
1.631031e+003, 2.012293e+002
1.632959e+003, 2.019519e+002
1.634888e+003, 2.028293e+002
1.636816e+003, 2.030993e+002
1.638745e+003, 2.025508e+002
1.640673e+003, 2.021201e+002
1.642602e+003, 2.020092e+002
1.644530e+003, 2.021068e+002
1.646459e+003, 2.025614e+002
1.648387e+003, 2.031115e+002
1.650316e+003, 2.032779e+002
1.652244e+003, 2.030785e+002
1.654173e+003, 2.030886e+002
1.656101e+003, 2.032974e+002
1.658030e+003, 2.038340e+002
1.659958e+003, 2.051665e+002
1.661886e+003, 2.063978e+002
1.663815e+003, 2.066175e+002
1.665743e+003, 2.062906e+002
1.667672e+003, 2.066693e+002
1.669600e+003, 2.079344e+002
1.671529e+003, 2.084207e+002
1.673457e+003, 2.073757e+002
1.675386e+003, 2.064833e+002
1.677314e+003, 2.064813e+002
1.679243e+003, 2.069535e+002
1.681171e+003, 2.076365e+002
1.683100e+003, 2.084324e+002
1.685028e+003, 2.089594e+002
1.686957e+003, 2.091161e+002
1.688885e+003, 2.093232e+002
1.690813e+003, 2.098026e+002
1.692742e+003, 2.101378e+002
1.694670e+003, 2.100039e+002
1.696599e+003, 2.096935e+002
1.698527e+003, 2.095529e+002
1.700456e+003, 2.095659e+002
1.702384e+003, 2.095722e+002
1.704313e+003, 2.095842e+002
1.706241e+003, 2.095383e+002
1.708170e+003, 2.094348e+002
1.710098e+003, 2.092757e+002
1.712027e+003, 2.088769e+002
1.713955e+003, 2.085547e+002
1.715884e+003, 2.088597e+002
1.717812e+003, 2.097376e+002
1.719740e+003, 2.103983e+002
1.721669e+003, 2.106996e+002
1.723597e+003, 2.109613e+002
1.725526e+003, 2.112725e+002
1.727454e+003, 2.115101e+002
1.729383e+003, 2.114778e+002
1.731311e+003, 2.113527e+002
1.733240e+003, 2.114584e+002
1.735168e+003, 2.117903e+002
1.737097e+003, 2.120842e+002
1.739025e+003, 2.123687e+002
1.740954e+003, 2.125420e+002
1.742882e+003, 2.125879e+002
1.744811e+003, 2.125301e+002
1.746739e+003, 2.121565e+002
1.748667e+003, 2.118020e+002
1.750596e+003, 2.121994e+002
1.752524e+003, 2.132696e+002
1.754453e+003, 2.135388e+002
1.756381e+003, 2.124467e+002
1.758310e+003, 2.118932e+002
1.760238e+003, 2.128196e+002
1.762167e+003, 2.139336e+002
1.764095e+003, 2.144243e+002
1.766024e+003, 2.146147e+002
1.767952e+003, 2.150634e+002
1.769880e+003, 2.157112e+002
1.771809e+003, 2.159982e+002
1.773737e+003, 2.157553e+002
1.775666e+003, 2.155583e+002
1.777594e+003, 2.157187e+002
1.779523e+003, 2.157883e+002
1.781451e+003, 2.154566e+002
1.783380e+003, 2.149955e+002
1.785308e+003, 2.147053e+002
1.787237e+003, 2.145949e+002
1.789165e+003, 2.147708e+002
1.791094e+003, 2.153747e+002
1.793022e+003, 2.157693e+002
1.794951e+003, 2.157633e+002
1.796879e+003, 2.156362e+002
1.798807e+003, 2.152984e+002
1.800736e+003, 2.150546e+002
1.802664e+003, 2.153400e+002
1.804593e+003, 2.160384e+002
1.806521e+003, 2.165293e+002
1.808450e+003, 2.167944e+002
1.810378e+003, 2.168909e+002
1.812307e+003, 2.165386e+002
1.814235e+003, 2.163663e+002
1.816164e+003, 2.165512e+002
1.818092e+003, 2.169374e+002
1.820021e+003, 2.173289e+002
1.821949e+003, 2.178481e+002
1.823878e+003, 2.190767e+002
1.825806e+003, 2.214718e+002
1.827734e+003, 2.222074e+002
1.829663e+003, 2.198568e+002
1.831591e+003, 2.181727e+002
1.833520e+003, 2.177518e+002
1.835448e+003, 2.178994e+002
1.837377e+003, 2.185825e+002
1.839305e+003, 2.193957e+002
1.841234e+003, 2.197091e+002
1.843162e+003, 2.195265e+002
1.845091e+003, 2.194512e+002
1.847019e+003, 2.194945e+002
1.848948e+003, 2.195833e+002
1.850876e+003, 2.196275e+002
1.852805e+003, 2.198642e+002
1.854733e+003, 2.206483e+002
1.856661e+003, 2.214145e+002
1.858590e+003, 2.216846e+002
1.860518e+003, 2.215912e+002
1.862447e+003, 2.214110e+002
1.864375e+003, 2.211144e+002
1.866304e+003, 2.211306e+002
1.868232e+003, 2.216352e+002
1.870161e+003, 2.220053e+002
1.872089e+003, 2.219472e+002
1.874018e+003, 2.219123e+002
1.875946e+003, 2.222560e+002
1.877875e+003, 2.226470e+002
1.879803e+003, 2.226190e+002
1.881732e+003, 2.223205e+002
1.883660e+003, 2.223700e+002
1.885589e+003, 2.228237e+002
1.887517e+003, 2.230908e+002
1.889445e+003, 2.229527e+002
1.891374e+003, 2.229444e+002
1.893302e+003, 2.234935e+002
1.895231e+003, 2.239608e+002
1.897159e+003, 2.238503e+002
1.899088e+003, 2.234782e+002
1.901016e+003, 2.232747e+002
1.902945e+003, 2.232341e+002
1.904873e+003, 2.233001e+002
1.906802e+003, 2.235054e+002
1.908730e+003, 2.236796e+002
1.910659e+003, 2.236205e+002
1.912587e+003, 2.237720e+002
1.914516e+003, 2.243701e+002
1.916444e+003, 2.250968e+002
1.918372e+003, 2.259442e+002
1.920301e+003, 2.266752e+002
1.922229e+003, 2.267065e+002
1.924158e+003, 2.260403e+002
1.926086e+003, 2.257753e+002
1.928015e+003, 2.261752e+002
1.929943e+003, 2.264145e+002
1.931872e+003, 2.262334e+002
1.933800e+003, 2.261869e+002
1.935729e+003, 2.265910e+002
1.937657e+003, 2.269842e+002
1.939586e+003, 2.269996e+002
1.941514e+003, 2.268530e+002
1.943443e+003, 2.269848e+002
1.945371e+003, 2.273773e+002
1.947299e+003, 2.274325e+002
1.949228e+003, 2.270522e+002
1.951156e+003, 2.267856e+002
1.953085e+003, 2.267415e+002
1.955013e+003, 2.267162e+002
1.956942e+003, 2.264612e+002
1.958870e+003, 2.264175e+002
1.960799e+003, 2.269928e+002
1.962727e+003, 2.278921e+002
1.964656e+003, 2.288963e+002
1.966584e+003, 2.298914e+002
1.968513e+003, 2.302817e+002
1.970441e+003, 2.299346e+002
1.972370e+003, 2.298047e+002
1.974298e+003, 2.299316e+002
1.976226e+003, 2.303773e+002
1.978155e+003, 2.314863e+002
1.980083e+003, 2.325347e+002
1.982012e+003, 2.334750e+002
1.983940e+003, 2.339354e+002
1.985869e+003, 2.330846e+002
1.987797e+003, 2.314212e+002
1.989726e+003, 2.307035e+002
1.991654e+003, 2.310635e+002
1.993583e+003, 2.315719e+002
1.995511e+003, 2.324329e+002
1.997440e+003, 2.329790e+002
1.999368e+003, 2.328929e+002
2.001297e+003, 2.328141e+002
2.003225e+003, 2.330962e+002
2.005153e+003, 2.333137e+002
2.007082e+003, 2.330233e+002
2.009010e+003, 2.325606e+002
2.010939e+003, 2.325205e+002
2.012867e+003, 2.328566e+002
2.014796e+003, 2.333139e+002
2.016724e+003, 2.339275e+002
2.018653e+003, 2.340505e+002
2.020581e+003, 2.333186e+002
2.022510e+003, 2.327886e+002
2.024438e+003, 2.326508e+002
2.026367e+003, 2.329254e+002
2.028295e+003, 2.340437e+002
2.030224e+003, 2.351947e+002
2.032152e+003, 2.355408e+002
2.034080e+003, 2.353299e+002
2.036009e+003, 2.350148e+002
2.037937e+003, 2.345831e+002
2.039866e+003, 2.347441e+002
2.041794e+003, 2.361453e+002
2.043723e+003, 2.368622e+002
2.045651e+003, 2.365467e+002
2.047580e+003, 2.360878e+002
2.049508e+003, 2.352257e+002
2.051437e+003, 2.347709e+002
2.053365e+003, 2.353634e+002
2.055294e+003, 2.363568e+002
2.057222e+003, 2.371667e+002
2.059151e+003, 2.378266e+002
2.061079e+003, 2.384788e+002
2.063008e+003, 2.391077e+002
2.064936e+003, 2.395479e+002
2.066865e+003, 2.398489e+002
2.068793e+003, 2.395562e+002
2.070721e+003, 2.381259e+002
2.072650e+003, 2.372110e+002
2.074578e+003, 2.378909e+002
2.076507e+003, 2.384919e+002
2.078435e+003, 2.376718e+002
2.080364e+003, 2.367694e+002
2.082292e+003, 2.373647e+002
2.084220e+003, 2.387592e+002
2.086149e+003, 2.395182e+002
2.088077e+003, 2.396553e+002
2.090006e+003, 2.391617e+002
2.091934e+003, 2.376231e+002
2.093863e+003, 2.369795e+002
2.095791e+003, 2.377111e+002
2.097720e+003, 2.384592e+002
2.099648e+003, 2.389787e+002
2.101577e+003, 2.394165e+002
2.103505e+003, 2.399782e+002
2.105434e+003, 2.403017e+002
2.107362e+003, 2.397398e+002
2.109291e+003, 2.390790e+002
2.111219e+003, 2.397315e+002
2.113147e+003, 2.411868e+002
2.115076e+003, 2.414381e+002
2.117004e+003, 2.403857e+002
2.118933e+003, 2.400186e+002
2.120861e+003, 2.405421e+002
2.122790e+003, 2.412638e+002
2.124718e+003, 2.425815e+002
2.126647e+003, 2.432561e+002
2.128575e+003, 2.422781e+002
2.130504e+003, 2.415367e+002
2.132432e+003, 2.424250e+002
2.134361e+003, 2.436189e+002
2.136289e+003, 2.441160e+002
2.138218e+003, 2.440405e+002
2.140146e+003, 2.432018e+002
2.142074e+003, 2.419112e+002
2.144003e+003, 2.418291e+002
2.145931e+003, 2.429767e+002
2.147860e+003, 2.435136e+002
2.149788e+003, 2.430476e+002
2.151717e+003, 2.427661e+002
2.153645e+003, 2.429039e+002
2.155574e+003, 2.432258e+002
2.157502e+003, 2.441105e+002
2.159431e+003, 2.446317e+002
2.161359e+003, 2.437940e+002
2.163288e+003, 2.429167e+002
2.165216e+003, 2.434501e+002
2.167145e+003, 2.446349e+002
2.169073e+003, 2.451001e+002
2.171001e+003, 2.449715e+002
2.172930e+003, 2.450192e+002
2.174858e+003, 2.452289e+002
2.176787e+003, 2.455372e+002
2.178715e+003, 2.459650e+002
2.180644e+003, 2.462566e+002
2.182572e+003, 2.463774e+002
2.184501e+003, 2.463489e+002
2.186429e+003, 2.458086e+002
2.188358e+003, 2.457126e+002
2.190286e+003, 2.469824e+002
2.192215e+003, 2.483000e+002
2.194143e+003, 2.488726e+002
2.196072e+003, 2.488394e+002
2.198000e+003, 2.480968e+002
2.199928e+003, 2.469512e+002
2.201857e+003, 2.462300e+002
2.203785e+003, 2.459114e+002
2.205714e+003, 2.454578e+002
2.207642e+003, 2.448206e+002
2.209571e+003, 2.448815e+002
2.211499e+003, 2.458936e+002
2.213428e+003, 2.467974e+002
2.215356e+003, 2.475423e+002
2.217285e+003, 2.478006e+002
2.219213e+003, 2.467720e+002
2.221142e+003, 2.461280e+002
2.223070e+003, 2.470108e+002
2.224999e+003, 2.480822e+002
2.226927e+003, 2.482766e+002
2.228855e+003, 2.481223e+002
2.230784e+003, 2.482296e+002
2.232712e+003, 2.485574e+002
2.234641e+003, 2.490925e+002
2.236569e+003, 2.497931e+002
2.238498e+003, 2.501213e+002
2.240426e+003, 2.500657e+002
2.242355e+003, 2.497652e+002
2.244283e+003, 2.491206e+002
2.246212e+003, 2.488538e+002
2.248140e+003, 2.491979e+002
2.250069e+003, 2.496159e+002
2.251997e+003, 2.498787e+002
2.253926e+003, 2.503469e+002
2.255854e+003, 2.516295e+002
2.257782e+003, 2.525697e+002
2.259711e+003, 2.521470e+002
2.261639e+003, 2.513789e+002
2.263568e+003, 2.512491e+002
2.265496e+003, 2.513616e+002
2.267425e+003, 2.510383e+002
2.269353e+003, 2.504682e+002
2.271282e+003, 2.502451e+002
2.273210e+003, 2.503348e+002
2.275139e+003, 2.503000e+002
2.277067e+003, 2.501123e+002
2.278996e+003, 2.503881e+002
2.280924e+003, 2.514704e+002
2.282853e+003, 2.520844e+002
2.284781e+003, 2.516581e+002
2.286709e+003, 2.514214e+002
2.288638e+003, 2.517234e+002
2.290566e+003, 2.519390e+002
2.292495e+003, 2.517554e+002
2.294423e+003, 2.516210e+002
2.296352e+003, 2.518110e+002
2.298280e+003, 2.521129e+002
2.300209e+003, 2.523830e+002
2.302137e+003, 2.526659e+002
2.304066e+003, 2.530578e+002
2.305994e+003, 2.534659e+002
2.307923e+003, 2.536486e+002
2.309851e+003, 2.536468e+002
2.311780e+003, 2.537693e+002
2.313708e+003, 2.540195e+002
2.315636e+003, 2.540862e+002
2.317565e+003, 2.538687e+002
2.319493e+003, 2.540825e+002
2.321422e+003, 2.549641e+002
2.323350e+003, 2.555041e+002
2.325279e+003, 2.554908e+002
2.327207e+003, 2.553986e+002
2.329136e+003, 2.554283e+002
2.331064e+003, 2.552979e+002
2.332993e+003, 2.544114e+002
2.334921e+003, 2.539507e+002
2.336850e+003, 2.549851e+002
2.338778e+003, 2.561119e+002
2.340707e+003, 2.562003e+002
2.342635e+003, 2.558377e+002
2.344563e+003, 2.556226e+002
2.346492e+003, 2.554816e+002
2.348420e+003, 2.552854e+002
2.350349e+003, 2.550809e+002
2.352277e+003, 2.548193e+002
2.354206e+003, 2.546092e+002
2.356134e+003, 2.551607e+002
2.358063e+003, 2.565499e+002
2.359991e+003, 2.574560e+002
2.361920e+003, 2.577728e+002
2.363848e+003, 2.577634e+002
2.365777e+003, 2.572139e+002
2.367705e+003, 2.568517e+002
2.369634e+003, 2.566668e+002
2.371562e+003, 2.570070e+002
2.373490e+003, 2.584813e+002
2.375419e+003, 2.593634e+002
2.377347e+003, 2.585848e+002
2.379276e+003, 2.577514e+002
2.381204e+003, 2.574322e+002
2.383133e+003, 2.575060e+002
2.385061e+003, 2.582752e+002
2.386990e+003, 2.589955e+002
2.388918e+003, 2.587448e+002
2.390847e+003, 2.582962e+002
2.392775e+003, 2.588131e+002
2.394704e+003, 2.596938e+002
2.396632e+003, 2.597049e+002
2.398561e+003, 2.591884e+002
2.400489e+003, 2.590929e+002
2.402417e+003, 2.593219e+002
2.404346e+003, 2.592106e+002
2.406274e+003, 2.587564e+002
2.408203e+003, 2.589916e+002
2.410131e+003, 2.602600e+002
2.412060e+003, 2.608136e+002
2.413988e+003, 2.604166e+002
2.415917e+003, 2.604671e+002
2.417845e+003, 2.612168e+002
2.419774e+003, 2.616762e+002
2.421702e+003, 2.614342e+002
2.423631e+003, 2.614379e+002
2.425559e+003, 2.621879e+002
2.427488e+003, 2.628270e+002
2.429416e+003, 2.629514e+002
2.431344e+003, 2.631815e+002
2.433273e+003, 2.639900e+002
2.435201e+003, 2.646787e+002
2.437130e+003, 2.648770e+002
2.439058e+003, 2.647941e+002
2.440987e+003, 2.643874e+002
2.442915e+003, 2.639581e+002
2.444844e+003, 2.638866e+002
2.446772e+003, 2.638979e+002
2.448701e+003, 2.634673e+002
2.450629e+003, 2.630341e+002
2.452558e+003, 2.635499e+002
2.454486e+003, 2.646097e+002
2.456415e+003, 2.650349e+002
2.458343e+003, 2.649693e+002
2.460271e+003, 2.652448e+002
2.462200e+003, 2.657109e+002
2.464128e+003, 2.653978e+002
2.466057e+003, 2.643286e+002
2.467985e+003, 2.644402e+002
2.469914e+003, 2.661641e+002
2.471842e+003, 2.670188e+002
2.473771e+003, 2.668268e+002
2.475699e+003, 2.663398e+002
2.477628e+003, 2.653180e+002
2.479556e+003, 2.651540e+002
2.481485e+003, 2.662462e+002
2.483413e+003, 2.671788e+002
2.485342e+003, 2.676078e+002
2.487270e+003, 2.679251e+002
2.489198e+003, 2.684453e+002
2.491127e+003, 2.685012e+002
2.493055e+003, 2.673214e+002
2.494984e+003, 2.666182e+002
2.496912e+003, 2.673922e+002
2.498841e+003, 2.681547e+002
2.500769e+003, 2.681963e+002
2.502698e+003, 2.682530e+002
2.504626e+003, 2.691255e+002
2.506555e+003, 2.696178e+002
2.508483e+003, 2.681671e+002
2.510412e+003, 2.668118e+002
2.512340e+003, 2.678628e+002
2.514269e+003, 2.693882e+002
2.516197e+003, 2.691564e+002
2.518125e+003, 2.684106e+002
2.520054e+003, 2.686262e+002
2.521982e+003, 2.694060e+002
2.523911e+003, 2.705125e+002
2.525839e+003, 2.715119e+002
2.527768e+003, 2.713839e+002
2.529696e+003, 2.705995e+002
2.531625e+003, 2.705118e+002
2.533553e+003, 2.709274e+002
2.535482e+003, 2.709407e+002
2.537410e+003, 2.706786e+002
2.539339e+003, 2.707269e+002
2.541267e+003, 2.710428e+002
2.543196e+003, 2.713974e+002
2.545124e+003, 2.717354e+002
2.547052e+003, 2.716655e+002
2.548981e+003, 2.710887e+002
2.550909e+003, 2.705660e+002
2.552838e+003, 2.700318e+002
2.554766e+003, 2.700118e+002
2.556695e+003, 2.705797e+002
2.558623e+003, 2.713768e+002
2.560552e+003, 2.724962e+002
2.562480e+003, 2.730912e+002
2.564409e+003, 2.729576e+002
2.566337e+003, 2.727033e+002
2.568266e+003, 2.721626e+002
2.570194e+003, 2.719642e+002
2.572123e+003, 2.722190e+002
2.574051e+003, 2.725642e+002
2.575979e+003, 2.730256e+002
2.577908e+003, 2.732313e+002
2.579836e+003, 2.728069e+002
2.581765e+003, 2.727704e+002
2.583693e+003, 2.738420e+002
2.585622e+003, 2.745669e+002
2.587550e+003, 2.743494e+002
2.589479e+003, 2.741010e+002
2.591407e+003, 2.736275e+002
2.593336e+003, 2.739547e+002
2.595264e+003, 2.761014e+002
2.597193e+003, 2.778631e+002
2.599121e+003, 2.784739e+002
2.601050e+003, 2.781975e+002
2.602978e+003, 2.763640e+002
2.604906e+003, 2.748297e+002
2.606835e+003, 2.746372e+002
2.608763e+003, 2.748551e+002
2.610692e+003, 2.752828e+002
2.612620e+003, 2.756257e+002
2.614549e+003, 2.754487e+002
2.616477e+003, 2.754293e+002
2.618406e+003, 2.765262e+002
2.620334e+003, 2.772839e+002
2.622263e+003, 2.758990e+002
2.624191e+003, 2.746398e+002
2.626120e+003, 2.759225e+002
2.628048e+003, 2.773356e+002
2.629977e+003, 2.765483e+002
2.631905e+003, 2.756080e+002
2.633833e+003, 2.765484e+002
2.635762e+003, 2.779363e+002
2.637690e+003, 2.785436e+002
2.639619e+003, 2.786190e+002
2.641547e+003, 2.780485e+002
2.643476e+003, 2.775028e+002
2.645404e+003, 2.778951e+002
2.647333e+003, 2.785549e+002
2.649261e+003, 2.788005e+002
2.651190e+003, 2.788522e+002
2.653118e+003, 2.789347e+002
2.655047e+003, 2.789919e+002
2.656975e+003, 2.785024e+002
2.658904e+003, 2.782676e+002
2.660832e+003, 2.800476e+002
2.662760e+003, 2.822383e+002
2.664689e+003, 2.827284e+002
2.666617e+003, 2.822589e+002
2.668546e+003, 2.818250e+002
2.670474e+003, 2.813214e+002
2.672403e+003, 2.801186e+002
2.674331e+003, 2.790699e+002
2.676260e+003, 2.800442e+002
2.678188e+003, 2.818027e+002
2.680117e+003, 2.826075e+002
2.682045e+003, 2.827274e+002
2.683974e+003, 2.821419e+002
2.685902e+003, 2.815060e+002
2.687831e+003, 2.822702e+002
2.689759e+003, 2.836776e+002
2.691688e+003, 2.847050e+002
2.693616e+003, 2.851120e+002
2.695544e+003, 2.842389e+002
2.697473e+003, 2.827571e+002
2.699401e+003, 2.815363e+002
2.701330e+003, 2.808327e+002
2.703258e+003, 2.814929e+002
2.705187e+003, 2.827809e+002
2.707115e+003, 2.832472e+002
2.709044e+003, 2.833706e+002
2.710972e+003, 2.841320e+002
2.712901e+003, 2.849448e+002
2.714829e+003, 2.844311e+002
2.716758e+003, 2.835069e+002
2.718686e+003, 2.840298e+002
2.720615e+003, 2.851927e+002
2.722543e+003, 2.857646e+002
2.724471e+003, 2.858620e+002
2.726400e+003, 2.851671e+002
2.728328e+003, 2.845039e+002
2.730257e+003, 2.855675e+002
2.732185e+003, 2.872227e+002
2.734114e+003, 2.875269e+002
2.736042e+003, 2.873432e+002
2.737971e+003, 2.882579e+002
2.739899e+003, 2.892603e+002
2.741828e+003, 2.888104e+002
2.743756e+003, 2.878625e+002
2.745685e+003, 2.877560e+002
2.747613e+003, 2.878618e+002
2.749542e+003, 2.870263e+002
2.751470e+003, 2.862140e+002
2.753398e+003, 2.868112e+002
2.755327e+003, 2.877246e+002
2.757255e+003, 2.878624e+002
2.759184e+003, 2.876261e+002
2.761112e+003, 2.871136e+002
2.763041e+003, 2.868599e+002
2.764969e+003, 2.879279e+002
2.766898e+003, 2.889300e+002
2.768826e+003, 2.882282e+002
2.770755e+003, 2.874471e+002
2.772683e+003, 2.881108e+002
2.774612e+003, 2.890976e+002
2.776540e+003, 2.896478e+002
2.778469e+003, 2.898838e+002
2.780397e+003, 2.898481e+002
2.782325e+003, 2.895630e+002
2.784254e+003, 2.886381e+002
2.786182e+003, 2.880369e+002
2.788111e+003, 2.888132e+002
2.790039e+003, 2.895460e+002
2.791968e+003, 2.893585e+002
2.793896e+003, 2.890834e+002
2.795825e+003, 2.889244e+002
2.797753e+003, 2.891084e+002
2.799682e+003, 2.902291e+002
2.801610e+003, 2.909597e+002
2.803539e+003, 2.900768e+002
2.805467e+003, 2.897907e+002
2.807396e+003, 2.912687e+002
2.809324e+003, 2.921114e+002
2.811252e+003, 2.909789e+002
2.813181e+003, 2.901263e+002
2.815109e+003, 2.904311e+002
2.817038e+003, 2.907968e+002
2.818966e+003, 2.911554e+002
2.820895e+003, 2.913690e+002
2.822823e+003, 2.915127e+002
2.824752e+003, 2.912307e+002
2.826680e+003, 2.900050e+002
2.828609e+003, 2.895468e+002
2.830537e+003, 2.902846e+002
2.832466e+003, 2.911383e+002
2.834394e+003, 2.920835e+002
2.836323e+003, 2.927880e+002
2.838251e+003, 2.932158e+002
2.840179e+003, 2.932662e+002
2.842108e+003, 2.926931e+002
2.844036e+003, 2.929851e+002
2.845965e+003, 2.942713e+002
2.847893e+003, 2.944621e+002
2.849822e+003, 2.935718e+002
2.851750e+003, 2.933593e+002
2.853679e+003, 2.938504e+002
2.855607e+003, 2.939665e+002
2.857536e+003, 2.937652e+002
2.859464e+003, 2.940908e+002
2.861393e+003, 2.947702e+002
2.863321e+003, 2.949787e+002
2.865250e+003, 2.948949e+002
2.867178e+003, 2.950057e+002
2.869106e+003, 2.952622e+002
2.871035e+003, 2.954522e+002
2.872963e+003, 2.956720e+002
2.874892e+003, 2.962314e+002
2.876820e+003, 2.968269e+002
2.878749e+003, 2.969991e+002
2.880677e+003, 2.970161e+002
2.882606e+003, 2.972328e+002
2.884534e+003, 2.975023e+002
2.886463e+003, 2.977382e+002
2.888391e+003, 2.978955e+002
2.890320e+003, 2.978815e+002
2.892248e+003, 2.978414e+002
2.894177e+003, 2.978466e+002
2.896105e+003, 2.978829e+002
2.898033e+003, 2.978834e+002
2.899962e+003, 2.980322e+002
2.901890e+003, 2.985426e+002
2.903819e+003, 2.989513e+002
2.905747e+003, 2.988490e+002
2.907676e+003, 2.990349e+002
2.909604e+003, 3.000037e+002
2.911533e+003, 3.003861e+002
2.913461e+003, 2.997837e+002
2.915390e+003, 2.993211e+002
2.917318e+003, 2.991960e+002
2.919247e+003, 2.993664e+002
2.921175e+003, 2.998829e+002
2.923104e+003, 3.005440e+002
2.925032e+003, 3.013500e+002
2.926960e+003, 3.015176e+002
2.928889e+003, 3.009709e+002
2.930817e+003, 3.011241e+002
2.932746e+003, 3.019000e+002
2.934674e+003, 3.015748e+002
2.936603e+003, 3.005456e+002
2.938531e+003, 3.005919e+002
2.940460e+003, 3.013332e+002
2.942388e+003, 3.018821e+002
2.944317e+003, 3.021800e+002
2.946245e+003, 3.018038e+002
2.948174e+003, 3.013707e+002
2.950102e+003, 3.021555e+002
2.952031e+003, 3.029090e+002
2.953959e+003, 3.018706e+002
2.955887e+003, 3.008258e+002
2.957816e+003, 3.014946e+002
2.959744e+003, 3.023746e+002
2.961673e+003, 3.027520e+002
2.963601e+003, 3.028701e+002
2.965530e+003, 3.028592e+002
2.967458e+003, 3.026032e+002
2.969387e+003, 3.019264e+002
2.971315e+003, 3.012943e+002
2.973244e+003, 3.007038e+002
2.975172e+003, 3.005766e+002
2.977101e+003, 3.011779e+002
2.979029e+003, 3.017007e+002
2.980958e+003, 3.021229e+002
2.982886e+003, 3.020556e+002
2.984814e+003, 3.014828e+002
2.986743e+003, 3.016498e+002
2.988671e+003, 3.025424e+002
2.990600e+003, 3.030284e+002
2.992528e+003, 3.030934e+002
2.994457e+003, 3.023288e+002
2.996385e+003, 3.012205e+002
2.998314e+003, 3.010868e+002
3.000242e+003, 3.013753e+002
3.002171e+003, 3.011287e+002
3.004099e+003, 3.008079e+002
3.006028e+003, 3.009026e+002
3.007956e+003, 3.012804e+002
3.009885e+003, 3.020247e+002
3.011813e+003, 3.026937e+002
3.013741e+003, 3.028542e+002
3.015670e+003, 3.031182e+002
3.017598e+003, 3.041096e+002
3.019527e+003, 3.041764e+002
3.021455e+003, 3.020066e+002
3.023384e+003, 3.011204e+002
3.025312e+003, 3.038004e+002
3.027241e+003, 3.044494e+002
3.029169e+003, 3.026392e+002
3.031098e+003, 3.015845e+002
3.033026e+003, 3.015668e+002
3.034955e+003, 3.017013e+002
3.036883e+003, 3.019957e+002
3.038812e+003, 3.031059e+002
3.040740e+003, 3.045993e+002
3.042668e+003, 3.046920e+002
3.044597e+003, 3.041046e+002
3.046525e+003, 3.040917e+002
3.048454e+003, 3.043428e+002
3.050382e+003, 3.045213e+002
3.052311e+003, 3.046479e+002
3.054239e+003, 3.047355e+002
3.056168e+003, 3.048008e+002
3.058096e+003, 3.049081e+002
3.060025e+003, 3.048919e+002
3.061953e+003, 3.044928e+002
3.063882e+003, 3.045122e+002
3.065810e+003, 3.053220e+002
3.067739e+003, 3.060153e+002
3.069667e+003, 3.065190e+002
3.071595e+003, 3.065180e+002
3.073524e+003, 3.059874e+002
3.075452e+003, 3.061316e+002
3.077381e+003, 3.069671e+002
3.079309e+003, 3.079021e+002
3.081238e+003, 3.087316e+002
3.083166e+003, 3.081896e+002
3.085095e+003, 3.072516e+002
3.087023e+003, 3.084245e+002
3.088952e+003, 3.096450e+002
3.090880e+003, 3.076308e+002
3.092809e+003, 3.056264e+002
3.094737e+003, 3.068281e+002
3.096666e+003, 3.079234e+002
3.098594e+003, 3.067599e+002
3.100522e+003, 3.060377e+002
3.102451e+003, 3.069256e+002
3.104379e+003, 3.077789e+002
3.106308e+003, 3.085005e+002
3.108236e+003, 3.084012e+002
3.110165e+003, 3.071362e+002
3.112093e+003, 3.066270e+002
3.114022e+003, 3.068900e+002
3.115950e+003, 3.073544e+002
3.117879e+003, 3.078965e+002
3.119807e+003, 3.081538e+002
3.121736e+003, 3.081286e+002
3.123664e+003, 3.073958e+002
3.125593e+003, 3.068477e+002
3.127521e+003, 3.076927e+002
3.129449e+003, 3.087737e+002
3.131378e+003, 3.093601e+002
3.133306e+003, 3.098007e+002
3.135235e+003, 3.103710e+002
3.137163e+003, 3.103908e+002
3.139092e+003, 3.094645e+002
3.141020e+003, 3.088638e+002
3.142949e+003, 3.089837e+002
3.144877e+003, 3.086994e+002
3.146806e+003, 3.080685e+002
3.148734e+003, 3.088513e+002
3.150663e+003, 3.105274e+002
3.152591e+003, 3.103910e+002
3.154520e+003, 3.092552e+002
3.156448e+003, 3.087048e+002
3.158376e+003, 3.084328e+002
3.160305e+003, 3.077383e+002
3.162233e+003, 3.076756e+002
3.164162e+003, 3.099039e+002
3.166090e+003, 3.113578e+002
3.168019e+003, 3.105404e+002
3.169947e+003, 3.099193e+002
3.171876e+003, 3.103455e+002
3.173804e+003, 3.105018e+002
3.175733e+003, 3.102501e+002
3.177661e+003, 3.106179e+002
3.179590e+003, 3.114728e+002
3.181518e+003, 3.107769e+002
3.183447e+003, 3.092194e+002
3.185375e+003, 3.091730e+002
3.187303e+003, 3.097229e+002
3.189232e+003, 3.093388e+002
3.191160e+003, 3.090218e+002
3.193089e+003, 3.100989e+002
3.195017e+003, 3.107362e+002
3.196946e+003, 3.096985e+002
3.198874e+003, 3.091953e+002
3.200803e+003, 3.103002e+002
3.202731e+003, 3.110762e+002
3.204660e+003, 3.113904e+002
3.206588e+003, 3.109115e+002
3.208517e+003, 3.097850e+002
3.210445e+003, 3.098672e+002
3.212374e+003, 3.107576e+002
3.214302e+003, 3.112328e+002
3.216230e+003, 3.113379e+002
3.218159e+003, 3.108251e+002
3.220087e+003, 3.104834e+002
3.222016e+003, 3.113647e+002
3.223944e+003, 3.119985e+002
3.225873e+003, 3.116587e+002
3.227801e+003, 3.113105e+002
3.229730e+003, 3.110877e+002
3.231658e+003, 3.114854e+002
3.233587e+003, 3.127192e+002
3.235515e+003, 3.124411e+002
3.237444e+003, 3.110153e+002
3.239372e+003, 3.110326e+002
3.241301e+003, 3.120359e+002
3.243229e+003, 3.133664e+002
3.245157e+003, 3.142719e+002
3.247086e+003, 3.132647e+002
3.249014e+003, 3.125321e+002
3.250943e+003, 3.144935e+002
3.252871e+003, 3.151793e+002
3.254800e+003, 3.130633e+002
3.256728e+003, 3.116100e+002
3.258657e+003, 3.117305e+002
3.260585e+003, 3.120855e+002
3.262514e+003, 3.126649e+002
3.264442e+003, 3.128674e+002
3.266371e+003, 3.130182e+002
3.268299e+003, 3.143102e+002
3.270228e+003, 3.157692e+002
3.272156e+003, 3.162255e+002
3.274084e+003, 3.157941e+002
3.276013e+003, 3.135865e+002
3.277941e+003, 3.122612e+002
3.279870e+003, 3.134289e+002
3.281798e+003, 3.141328e+002
3.283727e+003, 3.140269e+002
3.285655e+003, 3.137149e+002
3.287584e+003, 3.132904e+002
3.289512e+003, 3.143008e+002
3.291441e+003, 3.158550e+002
3.293369e+003, 3.149808e+002
3.295298e+003, 3.134993e+002
3.297226e+003, 3.138072e+002
3.299155e+003, 3.142789e+002
3.301083e+003, 3.139222e+002
3.303011e+003, 3.135290e+002
3.304940e+003, 3.133560e+002
3.306868e+003, 3.132426e+002
3.308797e+003, 3.131480e+002
3.310725e+003, 3.141026e+002
3.312654e+003, 3.158313e+002
3.314582e+003, 3.155356e+002
3.316511e+003, 3.143100e+002
3.318439e+003, 3.146036e+002
3.320368e+003, 3.153483e+002
3.322296e+003, 3.157032e+002
3.324225e+003, 3.159084e+002
3.326153e+003, 3.160637e+002
3.328082e+003, 3.161959e+002
3.330010e+003, 3.163946e+002
3.331938e+003, 3.160991e+002
3.333867e+003, 3.152072e+002
3.335795e+003, 3.157578e+002
3.337724e+003, 3.170880e+002
3.339652e+003, 3.172994e+002
3.341581e+003, 3.169766e+002
3.343509e+003, 3.168192e+002
3.345438e+003, 3.166609e+002
3.347366e+003, 3.166042e+002
3.349295e+003, 3.161708e+002
3.351223e+003, 3.146618e+002
3.353152e+003, 3.149213e+002
3.355080e+003, 3.171429e+002
3.357009e+003, 3.179353e+002
3.358937e+003, 3.174825e+002
3.360865e+003, 3.165706e+002
3.362794e+003, 3.158659e+002
3.364722e+003, 3.164284e+002
3.366651e+003, 3.173495e+002
3.368579e+003, 3.181630e+002
3.370508e+003, 3.187972e+002
3.372436e+003, 3.194258e+002
3.374365e+003, 3.187364e+002
3.376293e+003, 3.160573e+002
3.378222e+003, 3.160497e+002
3.380150e+003, 3.178861e+002
3.382079e+003, 3.182154e+002
3.384007e+003, 3.178070e+002
3.385936e+003, 3.176217e+002
3.387864e+003, 3.175547e+002
3.389792e+003, 3.176678e+002
3.391721e+003, 3.175521e+002
3.393649e+003, 3.164692e+002
3.395578e+003, 3.168931e+002
3.397506e+003, 3.188898e+002
3.399435e+003, 3.198460e+002
3.401363e+003, 3.199167e+002
3.403292e+003, 3.197933e+002
3.405220e+003, 3.194924e+002
3.407148e+003, 3.186890e+002
3.409077e+003, 3.182497e+002
3.411005e+003, 3.189219e+002
3.412934e+003, 3.196603e+002
3.414862e+003, 3.203536e+002
3.416791e+003, 3.204980e+002
3.418719e+003, 3.200847e+002
3.420648e+003, 3.190111e+002
3.422576e+003, 3.179323e+002
3.424505e+003, 3.185498e+002
3.426433e+003, 3.195529e+002
3.428362e+003, 3.197188e+002
3.430290e+003, 3.195868e+002
3.432219e+003, 3.189554e+002
3.434147e+003, 3.193591e+002
3.436075e+003, 3.213565e+002
3.438004e+003, 3.215251e+002
3.439932e+003, 3.205272e+002
3.441861e+003, 3.221064e+002
3.443789e+003, 3.242380e+002
3.445718e+003, 3.238329e+002
3.447646e+003, 3.223615e+002
3.449575e+003, 3.199265e+002
3.451503e+003, 3.183388e+002
3.453432e+003, 3.180721e+002
3.455360e+003, 3.181154e+002
3.457289e+003, 3.183949e+002
3.459217e+003, 3.190947e+002
3.461146e+003, 3.199136e+002
3.463074e+003, 3.201692e+002
3.465002e+003, 3.201772e+002
3.466931e+003, 3.199568e+002
3.468859e+003, 3.200572e+002
3.470788e+003, 3.206347e+002
3.472716e+003, 3.216795e+002
3.474645e+003, 3.232740e+002
3.476573e+003, 3.224542e+002
3.478502e+003, 3.202621e+002
3.480430e+003, 3.201764e+002
3.482359e+003, 3.209161e+002
3.484287e+003, 3.217027e+002
3.486216e+003, 3.220204e+002
3.488144e+003, 3.215282e+002
3.490073e+003, 3.212881e+002
3.492001e+003, 3.215154e+002
3.493929e+003, 3.213985e+002
3.495858e+003, 3.211678e+002
3.497786e+003, 3.220378e+002
3.499715e+003, 3.229086e+002
3.501643e+003, 3.221377e+002
3.503572e+003, 3.214170e+002
3.505500e+003, 3.215473e+002
3.507429e+003, 3.218893e+002
3.509357e+003, 3.224312e+002
3.511286e+003, 3.217962e+002
3.513214e+003, 3.206195e+002
3.515143e+003, 3.219841e+002
3.517071e+003, 3.237221e+002
3.519000e+003, 3.229837e+002
3.520928e+003, 3.220312e+002
3.522856e+003, 3.219383e+002
3.524785e+003, 3.219607e+002
3.526713e+003, 3.220422e+002
3.528642e+003, 3.223559e+002
3.530570e+003, 3.227516e+002
3.532499e+003, 3.224873e+002
3.534427e+003, 3.221805e+002
3.536356e+003, 3.224385e+002
3.538284e+003, 3.229003e+002
3.540213e+003, 3.235717e+002
3.542141e+003, 3.238891e+002
3.544070e+003, 3.238018e+002
3.545998e+003, 3.235509e+002
3.547927e+003, 3.232708e+002
3.549855e+003, 3.232156e+002
3.551783e+003, 3.234131e+002
3.553712e+003, 3.241937e+002
3.555640e+003, 3.244994e+002
3.557569e+003, 3.237914e+002
3.559497e+003, 3.240992e+002
3.561426e+003, 3.255894e+002
3.563354e+003, 3.257579e+002
3.565283e+003, 3.251081e+002
3.567211e+003, 3.244275e+002
3.569140e+003, 3.238301e+002
3.571068e+003, 3.234214e+002
3.572997e+003, 3.230611e+002
3.574925e+003, 3.225834e+002
3.576854e+003, 3.234962e+002
3.578782e+003, 3.254350e+002
3.580710e+003, 3.252996e+002
3.582639e+003, 3.243170e+002
3.584567e+003, 3.235485e+002
3.586496e+003, 3.233679e+002
3.588424e+003, 3.239477e+002
3.590353e+003, 3.250254e+002
3.592281e+003, 3.267851e+002
3.594210e+003, 3.263022e+002
3.596138e+003, 3.245386e+002
3.598067e+003, 3.237033e+002
3.599995e+003, 3.234464e+002
3.601924e+003, 3.236078e+002
3.603852e+003, 3.238901e+002
3.605781e+003, 3.242517e+002
3.607709e+003, 3.245993e+002
3.609637e+003, 3.249466e+002
3.611566e+003, 3.253861e+002
3.613494e+003, 3.258278e+002
3.615423e+003, 3.261318e+002
3.617351e+003, 3.263744e+002
3.619280e+003, 3.266197e+002
3.621208e+003, 3.266537e+002
3.623137e+003, 3.264575e+002
3.625065e+003, 3.265016e+002
3.626994e+003, 3.264855e+002
3.628922e+003, 3.251082e+002
3.630851e+003, 3.242104e+002
3.632779e+003, 3.252784e+002
3.634708e+003, 3.265052e+002
3.636636e+003, 3.276928e+002
3.638564e+003, 3.270762e+002
3.640493e+003, 3.252530e+002
3.642421e+003, 3.251057e+002
3.644350e+003, 3.254601e+002
3.646278e+003, 3.249134e+002
3.648207e+003, 3.246515e+002
3.650135e+003, 3.256519e+002
3.652064e+003, 3.256019e+002
3.653992e+003, 3.246582e+002
3.655921e+003, 3.246668e+002
3.657849e+003, 3.249763e+002
3.659778e+003, 3.243183e+002
3.661706e+003, 3.238454e+002
3.663635e+003, 3.243875e+002
3.665563e+003, 3.245598e+002
3.667491e+003, 3.242820e+002
3.669420e+003, 3.245870e+002
3.671348e+003, 3.250232e+002
3.673277e+003, 3.242091e+002
3.675205e+003, 3.237873e+002
3.677134e+003, 3.253356e+002
3.679062e+003, 3.261927e+002
3.680991e+003, 3.260484e+002
3.682919e+003, 3.264227e+002
3.684848e+003, 3.268983e+002
3.686776e+003, 3.256866e+002
3.688705e+003, 3.247231e+002
3.690633e+003, 3.257896e+002
3.692562e+003, 3.264086e+002
3.694490e+003, 3.260607e+002
3.696418e+003, 3.260624e+002
3.698347e+003, 3.263640e+002
3.700275e+003, 3.266519e+002
3.702204e+003, 3.270814e+002
3.704132e+003, 3.282072e+002
3.706061e+003, 3.284322e+002
3.707989e+003, 3.273188e+002
3.709918e+003, 3.258699e+002
3.711846e+003, 3.244995e+002
3.713775e+003, 3.247186e+002
3.715703e+003, 3.251104e+002
3.717632e+003, 3.241251e+002
3.719560e+003, 3.240313e+002
3.721489e+003, 3.257759e+002
3.723417e+003, 3.259874e+002
3.725345e+003, 3.250902e+002
3.727274e+003, 3.246035e+002
3.729202e+003, 3.247779e+002
3.731131e+003, 3.263238e+002
3.733059e+003, 3.269736e+002
3.734988e+003, 3.258951e+002
3.736916e+003, 3.250788e+002
3.738845e+003, 3.245848e+002
3.740773e+003, 3.241554e+002
3.742702e+003, 3.245067e+002
3.744630e+003, 3.268296e+002
3.746559e+003, 3.280531e+002
3.748487e+003, 3.271718e+002
3.750416e+003, 3.272120e+002
3.752344e+003, 3.278490e+002
3.754272e+003, 3.280779e+002
3.756201e+003, 3.283327e+002
3.758129e+003, 3.292379e+002
3.760058e+003, 3.288951e+002
3.761986e+003, 3.265962e+002
3.763915e+003, 3.271411e+002
3.765843e+003, 3.287273e+002
3.767772e+003, 3.268022e+002
3.769700e+003, 3.253758e+002
3.771629e+003, 3.269069e+002
3.773557e+003, 3.278196e+002
3.775486e+003, 3.275439e+002
3.777414e+003, 3.274226e+002
3.779343e+003, 3.273780e+002
3.781271e+003, 3.271920e+002
3.783199e+003, 3.272675e+002
3.785128e+003, 3.278832e+002
3.787056e+003, 3.282256e+002
3.788985e+003, 3.281952e+002
3.790913e+003, 3.268813e+002
3.792842e+003, 3.256805e+002
3.794770e+003, 3.265716e+002
3.796699e+003, 3.274581e+002
3.798627e+003, 3.275845e+002
3.800556e+003, 3.294635e+002
3.802484e+003, 3.322694e+002
3.804413e+003, 3.309559e+002
3.806341e+003, 3.289175e+002
3.808270e+003, 3.290293e+002
3.810198e+003, 3.291361e+002
3.812126e+003, 3.288631e+002
3.814055e+003, 3.288788e+002
3.815983e+003, 3.289875e+002
3.817912e+003, 3.284582e+002
3.819840e+003, 3.282787e+002
3.821769e+003, 3.294981e+002
3.823697e+003, 3.294781e+002
3.825626e+003, 3.281678e+002
3.827554e+003, 3.291793e+002
3.829483e+003, 3.307690e+002
3.831411e+003, 3.306629e+002
3.833340e+003, 3.302574e+002
3.835268e+003, 3.299424e+002
3.837197e+003, 3.299148e+002
3.839125e+003, 3.300463e+002
3.841053e+003, 3.297753e+002
3.842982e+003, 3.293677e+002
3.844910e+003, 3.284828e+002
3.846839e+003, 3.292393e+002
3.848767e+003, 3.317532e+002
3.850696e+003, 3.310776e+002
3.852624e+003, 3.293134e+002
3.854553e+003, 3.304805e+002
3.856481e+003, 3.318404e+002
3.858410e+003, 3.323856e+002
3.860338e+003, 3.323444e+002
3.862267e+003, 3.320139e+002
3.864195e+003, 3.326031e+002
3.866124e+003, 3.333052e+002
3.868052e+003, 3.334786e+002
3.869980e+003, 3.330487e+002
3.871909e+003, 3.317468e+002
3.873837e+003, 3.321612e+002
3.875766e+003, 3.331076e+002
3.877694e+003, 3.317319e+002
3.879623e+003, 3.318802e+002
3.881551e+003, 3.357616e+002
3.883480e+003, 3.357855e+002
3.885408e+003, 3.326031e+002
3.887337e+003, 3.325158e+002
3.889265e+003, 3.337623e+002
3.891194e+003, 3.360960e+002
3.893122e+003, 3.360985e+002
3.895051e+003, 3.332899e+002
3.896979e+003, 3.337820e+002
3.898907e+003, 3.352473e+002
3.900836e+003, 3.333048e+002
3.902764e+003, 3.317244e+002
3.904693e+003, 3.318756e+002
3.906621e+003, 3.327282e+002
3.908550e+003, 3.338518e+002
3.910478e+003, 3.339492e+002
3.912407e+003, 3.338578e+002
3.914335e+003, 3.344159e+002
3.916264e+003, 3.341198e+002
3.918192e+003, 3.330242e+002
3.920121e+003, 3.324593e+002
3.922049e+003, 3.325206e+002
3.923978e+003, 3.336694e+002
3.925906e+003, 3.344987e+002
3.927834e+003, 3.345846e+002
3.929763e+003, 3.340070e+002
3.931691e+003, 3.333251e+002
3.933620e+003, 3.338271e+002
3.935548e+003, 3.343353e+002
3.937477e+003, 3.343674e+002
3.939405e+003, 3.341320e+002
3.941334e+003, 3.338939e+002
3.943262e+003, 3.352596e+002
3.945191e+003, 3.363954e+002
3.947119e+003, 3.356326e+002
3.949048e+003, 3.353252e+002
3.950976e+003, 3.356861e+002
3.952905e+003, 3.354171e+002
3.954833e+003, 3.347863e+002
3.956761e+003, 3.334136e+002
3.958690e+003, 3.336659e+002
3.960618e+003, 3.358731e+002
3.962547e+003, 3.360909e+002
3.964475e+003, 3.353945e+002
3.966404e+003, 3.357967e+002
3.968332e+003, 3.362345e+002
3.970261e+003, 3.363369e+002
3.972189e+003, 3.362359e+002
3.974118e+003, 3.361310e+002
3.976046e+003, 3.366123e+002
3.977975e+003, 3.370663e+002
3.979903e+003, 3.371110e+002
3.981832e+003, 3.375908e+002
3.983760e+003, 3.383769e+002
3.985688e+003, 3.386722e+002
3.987617e+003, 3.384690e+002
3.989545e+003, 3.374629e+002
3.991474e+003, 3.370154e+002
3.993402e+003, 3.372601e+002
3.995331e+003, 3.378818e+002
3.997259e+003, 3.383512e+002
3.999188e+003, 3.377329e+002
4.001116e+003, 3.380600e+002
4.003045e+003, 3.394783e+002
4.004973e+003, 3.400582e+002
4.006902e+003, 3.397624e+002
4.008830e+003, 3.379231e+002
4.010759e+003, 3.372585e+002
4.012687e+003, 3.384614e+002
4.014615e+003, 3.390373e+002
4.016544e+003, 3.393129e+002
4.018472e+003, 3.400594e+002
4.020401e+003, 3.404009e+002
4.022329e+003, 3.398871e+002
4.024258e+003, 3.400745e+002
4.026186e+003, 3.405676e+002
4.028115e+003, 3.406110e+002
4.030043e+003, 3.405038e+002
4.031972e+003, 3.403158e+002
4.033900e+003, 3.403110e+002
4.035829e+003, 3.406021e+002
4.037757e+003, 3.417959e+002
4.039686e+003, 3.426660e+002
4.041614e+003, 3.425827e+002
4.043542e+003, 3.426819e+002
4.045471e+003, 3.428742e+002
4.047399e+003, 3.426298e+002
4.049328e+003, 3.424487e+002
4.051256e+003, 3.429515e+002
4.053185e+003, 3.420320e+002
4.055113e+003, 3.406570e+002
4.057042e+003, 3.423597e+002
4.058970e+003, 3.436913e+002
4.060899e+003, 3.427200e+002
4.062827e+003, 3.427943e+002
4.064756e+003, 3.436316e+002
4.066684e+003, 3.430216e+002
4.068613e+003, 3.424420e+002
4.070541e+003, 3.429235e+002
4.072469e+003, 3.421037e+002
4.074398e+003, 3.405098e+002
4.076326e+003, 3.410506e+002
4.078255e+003, 3.418424e+002
4.080183e+003, 3.416423e+002
4.082112e+003, 3.418549e+002
4.084040e+003, 3.423285e+002
4.085969e+003, 3.422419e+002
4.087897e+003, 3.421322e+002
4.089826e+003, 3.421236e+002
4.091754e+003, 3.432465e+002
4.093683e+003, 3.447509e+002
4.095611e+003, 3.434341e+002
4.097540e+003, 3.427975e+002
4.099468e+003, 3.448247e+002
4.101396e+003, 3.459064e+002
4.103325e+003, 3.459232e+002
4.105253e+003, 3.447016e+002
4.107182e+003, 3.438371e+002
4.109110e+003, 3.441505e+002
4.111039e+003, 3.447552e+002
4.112967e+003, 3.453772e+002
4.114896e+003, 3.455112e+002
4.116824e+003, 3.453667e+002
4.118752e+003, 3.447181e+002
4.120681e+003, 3.455621e+002
4.122609e+003, 3.469673e+002
4.124538e+003, 3.468582e+002
4.126466e+003, 3.464307e+002
4.128395e+003, 3.460323e+002
4.130323e+003, 3.464835e+002
4.132252e+003, 3.474244e+002
4.134180e+003, 3.486180e+002
4.136109e+003, 3.487608e+002
4.138037e+003, 3.475988e+002
4.139966e+003, 3.486509e+002
4.141894e+003, 3.502623e+002
4.143823e+003, 3.497167e+002
4.145751e+003, 3.495063e+002
4.147680e+003, 3.501755e+002
4.149608e+003, 3.518927e+002
4.151537e+003, 3.535338e+002
4.153465e+003, 3.536703e+002
4.155394e+003, 3.537960e+002
4.157322e+003, 3.541035e+002
4.159250e+003, 3.534361e+002
4.161179e+003, 3.530678e+002
4.163107e+003, 3.548707e+002
4.165036e+003, 3.547954e+002
4.166964e+003, 3.533753e+002
4.168893e+003, 3.558012e+002
4.170821e+003, 3.582658e+002
4.172750e+003, 3.582111e+002
4.174678e+003, 3.577938e+002
4.176606e+003, 3.574263e+002
4.178535e+003, 3.577988e+002
4.180463e+003, 3.584827e+002
4.182392e+003, 3.592810e+002
4.184320e+003, 3.602065e+002
4.186249e+003, 3.610558e+002
4.188177e+003, 3.612812e+002
4.190106e+003, 3.618363e+002
4.192034e+003, 3.629486e+002
4.193963e+003, 3.642105e+002
4.195891e+003, 3.653183e+002
4.197820e+003, 3.659948e+002
4.199748e+003, 3.661322e+002
4.201677e+003, 3.658468e+002
4.203605e+003, 3.666427e+002
4.205534e+003, 3.676898e+002
4.207462e+003, 3.682186e+002
4.209391e+003, 3.696472e+002
4.211319e+003, 3.715512e+002
4.213248e+003, 3.711708e+002
4.215176e+003, 3.705683e+002
4.217104e+003, 3.706514e+002
4.219033e+003, 3.714684e+002
4.220961e+003, 3.727795e+002
4.222890e+003, 3.744079e+002
4.224818e+003, 3.756195e+002
4.226747e+003, 3.761249e+002
4.228675e+003, 3.771063e+002
4.230604e+003, 3.781429e+002
4.232532e+003, 3.784995e+002
4.234460e+003, 3.792945e+002
4.236389e+003, 3.806191e+002
4.238317e+003, 3.821894e+002
4.240246e+003, 3.830934e+002
4.242174e+003, 3.820142e+002
4.244103e+003, 3.813628e+002
##END=



