##NAMES=Lueshite
##RRUFFID=R090025
##IDEAL CHEMISTRY=NaNbO_3_
##LOCALITY=Lueshe carbonatite, Kivu Province, Democratic Republic of the Congo
##OWNER=RRUFF
##SOURCE=Karl Russ
##DESCRIPTION=Black cubes
##STATUS=The identification of this mineral is confirmed by single-crystal X-ray diffraction and chemical analysis
##URL=https://www.rruff.net/odr/rruff_sample/R090025
##MEASURED CHEMISTRY=(Na_0.87_Ca_0.03_Ce_0.01_La_0.01_Th_0.01_)(Nb_0.94_Ta_0.06_)O_3_ ; = bright. (Na_0.91_Ca_0.03_Ce_0.01_La_0.01_)(Nb_0.95_Ta_0.05_)O_3_ = dark
##DIFFRACTION SAMPLE DESCRIPTION=Single crystal, powder profile is calculated
##CELL PARAMETERS=a: 7.797 b: 7.797 c: 7.797 alpha: 90.007 beta: 90.007 gamma: 90.007 volume: 474.1 crystal system: hexagonal
##FILETYPE=Raman Processed
##RAMAN WAVELENGTH=532

139.2877, 7681.488
141.2161, 8064.718
143.1446, 8519.997
145.0731, 8635.218
147.0015, 8749.338
148.9300, 8852.582
150.8585, 8952.090
152.7869, 9041.389
154.7154, 9119.618
156.6439, 9189.881
158.5723, 9257.544
160.5008, 9323.188
162.4293, 9386.360
164.3577, 9448.438
166.2862, 9514.841
168.2147, 9568.991
170.1431, 9604.567
172.0716, 9618.204
174.0001, 9639.280
175.9285, 9672.778
177.8570, 9711.797
179.7855, 9749.647
181.7139, 9787.514
183.6424, 9821.940
185.5709, 9847.657
187.4993, 9865.078
189.4278, 9887.397
191.3563, 9917.013
193.2847, 9949.656
195.2132, 9981.913
197.1417, 10014.97
199.0701, 10045.25
200.9986, 10070.59
202.9271, 10091.79
204.8555, 10113.79
206.7840, 10137.57
208.7125, 10162.67
210.6409, 10188.25
212.5694, 10212.81
214.4979, 10239.24
216.4263, 10269.90
218.3548, 10305.62
220.2833, 10332.11
222.2117, 10347.33
224.1402, 10353.13
226.0687, 10353.30
227.9971, 10350.53
229.9256, 10334.59
231.8541, 10302.59
233.7825, 10253.49
235.7110, 10199.42
237.6395, 10142.85
239.5679, 10080.33
241.4964, 10010.11
243.4249, 9928.756
245.3533, 9844.004
247.2818, 9756.967
249.2103, 9667.178
251.1387, 9573.175
253.0672, 9473.890
254.9957, 9369.794
256.9242, 9260.431
258.8526, 9143.103
260.7811, 9022.229
262.7096, 8896.607
264.6380, 8766.293
266.5665, 8632.154
268.4950, 8492.564
270.4234, 8349.997
272.3519, 8204.696
274.2804, 8057.747
276.2088, 7908.146
278.1373, 7756.903
280.0658, 7604.639
281.9942, 7450.667
283.9227, 7290.427
285.8512, 7133.408
287.7796, 6982.930
289.7081, 6838.582
291.6366, 6697.787
293.5650, 6560.636
295.4935, 6425.305
297.4220, 6289.987
299.3504, 6152.796
301.2789, 6018.347
303.2074, 5888.807
305.1358, 5764.556
307.0643, 5642.795
308.9928, 5522.052
310.9212, 5406.079
312.8497, 5296.216
314.7782, 5192.527
316.7066, 5091.345
318.6351, 4990.994
320.5636, 4891.761
322.4920, 4793.528
324.4205, 4696.014
326.3490, 4598.786
328.2774, 4501.706
330.2059, 4404.595
332.1344, 4310.335
334.0628, 4220.204
335.9913, 4132.942
337.9198, 4048.372
339.8482, 3966.613
341.7767, 3888.625
343.7052, 3813.621
345.6336, 3741.534
347.5621, 3671.817
349.4906, 3604.540
351.4190, 3538.448
353.3475, 3472.069
355.2760, 3404.395
357.2044, 3339.839
359.1329, 3279.430
361.0614, 3222.639
362.9898, 3165.990
364.9183, 3109.729
366.8468, 3053.289
368.7752, 2996.546
370.7037, 2938.955
372.6322, 2886.572
374.5606, 2839.502
376.4891, 2797.047
378.4176, 2759.023
380.3460, 2726.290
382.2745, 2695.372
384.2030, 2664.761
386.1314, 2634.797
388.0599, 2607.405
389.9884, 2581.468
391.9168, 2557.851
393.8453, 2538.003
395.7738, 2521.923
397.7022, 2508.388
399.6307, 2497.696
401.5592, 2488.828
403.4876, 2479.732
405.4161, 2468.328
407.3446, 2459.323
409.2730, 2456.655
411.2015, 2460.004
413.1300, 2464.338
415.0584, 2468.076
416.9869, 2473.899
418.9154, 2482.536
420.8438, 2493.141
422.7723, 2506.447
424.7008, 2525.446
426.6292, 2548.271
428.5577, 2569.901
430.4862, 2590.403
432.4146, 2608.348
434.3431, 2623.543
436.2716, 2636.711
438.2000, 2647.796
440.1285, 2654.739
442.0570, 2659.655
443.9854, 2664.046
445.9139, 2667.516
447.8424, 2672.625
449.7708, 2681.500
451.6993, 2691.363
453.6278, 2700.048
455.5562, 2705.879
457.4847, 2713.439
459.4132, 2723.177
461.3416, 2735.254
463.2701, 2749.616
465.1986, 2767.011
467.1270, 2786.771
469.0555, 2806.723
470.9840, 2825.068
472.9124, 2847.134
474.8409, 2875.516
476.7694, 2909.050
478.6978, 2944.220
480.6263, 2979.356
482.5548, 3019.810
484.4832, 3066.841
486.4117, 3119.451
488.3402, 3176.242
490.2686, 3236.985
492.1971, 3301.094
494.1256, 3368.235
496.0540, 3438.686
497.9825, 3517.771
499.9110, 3608.477
501.8394, 3703.136
503.7679, 3795.831
505.6964, 3884.831
507.6248, 3976.496
509.5533, 4075.496
511.4818, 4182.558
513.4103, 4296.057
515.3387, 4415.563
517.2672, 4540.606
519.1957, 4672.163
521.1241, 4810.331
523.0526, 4953.292
524.9811, 5099.834
526.9095, 5250.494
528.8380, 5406.240
530.7665, 5567.636
532.6949, 5733.032
534.6234, 5900.790
536.5519, 6069.378
538.4803, 6238.571
540.4088, 6409.099
542.3373, 6577.722
544.2657, 6744.215
546.1942, 6911.990
548.1227, 7083.249
550.0511, 7258.116
551.9796, 7425.182
553.9081, 7580.656
555.8365, 7729.911
557.7650, 7879.880
559.6935, 8030.750
561.6219, 8168.877
563.5504, 8291.033
565.4789, 8397.891
567.4073, 8496.899
569.3358, 8588.799
571.2643, 8667.910
573.1927, 8734.692
575.1212, 8790.304
577.0497, 8837.542
578.9781, 8875.810
580.9066, 8904.354
582.8351, 8923.301
584.7635, 8934.594
586.6920, 8938.708
588.6205, 8934.771
590.5490, 8921.296
592.4774, 8895.429
594.4059, 8858.735
596.3344, 8810.264
598.2628, 8745.738
600.1913, 8667.237
602.1198, 8580.948
604.0482, 8489.724
605.9767, 8390.878
607.9052, 8284.936
609.8336, 8171.978
611.7621, 8053.356
613.6906, 7927.016
615.6190, 7796.897
617.5475, 7665.971
619.4760, 7534.329
621.4044, 7396.675
623.3329, 7254.172
625.2614, 7112.096
627.1898, 6971.948
629.1183, 6831.777
631.0468, 6694.391
632.9752, 6563.167
634.9037, 6429.581
636.8322, 6286.783
638.7606, 6131.006
640.6891, 5978.252
642.6176, 5831.410
644.5460, 5688.049
646.4745, 5543.266
648.4030, 5397.125
650.3314, 5255.152
652.2599, 5118.936
654.1884, 4985.751
656.1168, 4853.471
658.0453, 4722.683
659.9738, 4595.972
661.9022, 4473.909
663.8307, 4356.284
665.7592, 4243.139
667.6876, 4132.989
669.6161, 4024.132
671.5446, 3916.051
673.4730, 3811.349
675.4015, 3711.881
677.3300, 3615.497
679.2584, 3522.830
681.1869, 3434.642
683.1154, 3351.817
685.0438, 3274.886
686.9723, 3202.470
688.9008, 3132.081
690.8292, 3062.632
692.7577, 2997.448
694.6862, 2938.909
696.6146, 2887.085
698.5431, 2836.709
700.4716, 2785.004
702.4000, 2734.218
704.3285, 2688.028
706.2570, 2647.185
708.1854, 2609.809
710.1139, 2575.142
712.0424, 2543.427
713.9708, 2514.669
715.8993, 2488.335
717.8278, 2463.929
719.7562, 2441.722
721.6847, 2421.820
723.6132, 2402.371
725.5416, 2384.054
727.4701, 2366.137
729.3986, 2347.661
731.3270, 2327.628
733.2555, 2310.132
735.1840, 2297.194
737.1124, 2286.914
739.0409, 2277.897
740.9694, 2270.106
742.8978, 2261.448
744.8263, 2250.459
746.7548, 2240.668
748.6832, 2235.280
750.6117, 2233.716
752.5402, 2231.706
754.4686, 2227.194
756.3971, 2222.393
758.3256, 2219.659
760.2540, 2219.569
762.1825, 2219.213
764.1110, 2218.609
766.0394, 2218.467
767.9679, 2218.503
769.8964, 2218.126
771.8248, 2218.578
773.7533, 2220.589
775.6818, 2223.478
777.6102, 2226.857
779.5387, 2231.000
781.4672, 2236.496
783.3956, 2243.181
785.3241, 2251.437
787.2526, 2260.671
789.1810, 2271.588
791.1095, 2286.207
793.0380, 2307.201
794.9664, 2329.049
796.8949, 2349.491
798.8234, 2369.022
800.7518, 2392.020
802.6803, 2418.205
804.6088, 2447.684
806.5372, 2481.584
808.4657, 2520.079
810.3942, 2561.046
812.3226, 2604.350
814.2511, 2649.662
816.1796, 2697.228
818.1080, 2746.392
820.0365, 2800.753
821.9650, 2862.848
823.8934, 2928.117
825.8219, 2992.961
827.7504, 3057.043
829.6788, 3121.819
831.6073, 3187.042
833.5358, 3253.904
835.4642, 3324.652
837.3927, 3400.829
839.3212, 3471.765
841.2496, 3534.289
843.1781, 3594.975
845.1066, 3658.921
847.0350, 3724.846
848.9635, 3786.557
850.8920, 3844.536
852.8204, 3896.250
854.7489, 3939.847
856.6774, 3974.987
858.6058, 4004.880
860.5343, 4031.852
862.4628, 4051.322
864.3912, 4062.292
866.3197, 4064.495
868.2482, 4055.745
870.1766, 4036.703
872.1051, 4005.352
874.0336, 3960.662
875.9620, 3904.147
877.8905, 3840.834
879.8190, 3772.027
881.7474, 3695.253
883.6759, 3605.630
885.6044, 3507.204
887.5328, 3408.519
889.4613, 3309.627
891.3898, 3209.512
893.3182, 3106.621
895.2467, 3003.067
897.1752, 2902.689
899.1036, 2805.493
901.0321, 2712.425
902.9606, 2624.767
904.8890, 2542.083
906.8175, 2462.388
908.7460, 2385.142
910.6744, 2310.500
912.6029, 2238.823
914.5314, 2169.737
916.4598, 2102.394
918.3883, 2036.297
920.3168, 1973.399
922.2452, 1915.319
924.1737, 1858.198
926.1022, 1800.379
928.0306, 1742.352
929.9591, 1683.676
931.8876, 1623.162
933.8160, 1563.189
935.7445, 1505.231
937.6730, 1448.600
939.6014, 1394.487
941.5299, 1341.436
943.4584, 1293.277
945.3868, 1251.270
947.3153, 1213.746
949.2438, 1178.664
951.1722, 1145.672
953.1007, 1116.265
955.0292, 1091.768
956.9576, 1070.783
958.8861, 1051.020
960.8146, 1032.552
962.7430, 1015.226
964.6715, 998.5367
966.6000, 983.1996
968.5284, 970.1828
970.4569, 959.8607
972.3854, 950.4293
974.3138, 941.2202
976.2423, 933.0301
978.1708, 926.9245
980.0992, 923.1098
982.0277, 918.9221
983.9562, 913.3522
985.8846, 907.8871
987.8131, 903.5549
989.7416, 900.0441
991.6700, 896.3329
993.5985, 892.0648
995.5270, 888.3470
997.4554, 885.8172
999.3839, 884.5027
1001.312, 883.2344
1003.241, 881.6935
1005.169, 879.6596
1007.098, 876.8713
1009.026, 874.9708
1010.955, 874.3002
1012.883, 873.9964
1014.812, 873.0071
1016.740, 872.6643
1018.669, 871.2040
1020.597, 871.5025
1022.526, 871.3629
1024.454, 870.3730
1026.382, 868.2858
1028.311, 866.6642
1030.239, 865.6694
1032.168, 864.1110
1034.096, 862.1863
1036.025, 860.2573
1037.953, 859.3186
1039.882, 859.6051
1041.810, 859.5205
1043.739, 857.9032
1045.667, 854.9501
1047.596, 852.5453
1049.524, 851.2637
1051.453, 850.4520
1053.381, 849.2445
1055.309, 847.1010
1057.238, 845.0029
1059.166, 843.8422
1061.095, 842.3759
1063.023, 840.3525
1064.952, 839.6173
1066.880, 838.3002
1068.809, 834.9294
1070.737, 831.0097
1072.666, 829.7804
1074.594, 831.1949
1076.523, 831.0034
1078.451, 828.4008
1080.380, 825.1012
1082.308, 822.1976
1084.236, 820.0937
1086.165, 817.6676
1088.093, 815.6334
1090.022, 814.3297
1091.950, 813.2845
1093.879, 810.2738
1095.807, 808.4713
1097.736, 804.7689
1099.664, 803.1627
1101.593, 800.7526
1103.521, 797.6156
1105.450, 795.3422
1107.378, 794.7063
1109.307, 793.8181
1111.235, 792.3890
1113.163, 789.8762
1115.092, 785.4714
1117.020, 779.9697
1118.949, 776.1776
1120.877, 775.8714
1122.806, 776.0748
1124.734, 774.8442
1126.663, 771.5792
1128.591, 768.2425
1130.520, 766.0746
1132.448, 765.1680
1134.377, 765.2706
1136.305, 764.8127
1138.234, 762.1930
1140.162, 758.7526
1142.090, 755.8282
1144.019, 754.1469
1145.947, 752.3004
1147.876, 748.7579
1149.804, 743.5071
1151.733, 739.7026
1153.661, 739.0206
1155.590, 738.1153
1157.518, 735.7766
1159.447, 735.2603
1161.375, 732.4246
1163.304, 732.9380
1165.232, 732.2674
1167.161, 730.7574
1169.089, 728.2501
1171.017, 724.1299
1172.946, 718.9619
1174.874, 715.5659
1176.803, 714.8132
1178.731, 715.4531
1180.660, 716.3118
1182.588, 715.9323
1184.517, 712.9219
1186.445, 707.8733
1188.374, 705.1920
1190.302, 705.5219
1192.231, 706.2123
1194.159, 705.0520
1196.088, 701.6519
1198.016, 698.9568
1199.944, 698.5693
1201.873, 698.2325
1203.801, 696.5901
1205.730, 694.3467
1207.658, 693.4570
1209.587, 692.7579
1211.515, 691.2351
1213.444, 690.4566
1215.372, 690.1390
1217.301, 689.2516
1219.229, 687.4654
1221.158, 685.6208
1223.086, 683.1822
1225.015, 681.4282
1226.943, 681.6890
1228.871, 683.3498
1230.800, 683.4584
1232.728, 679.6592
1234.657, 677.0331
1236.585, 677.8284
1238.514, 679.9887
1240.442, 680.7735
1242.371, 679.4418
1244.299, 677.8187
1246.228, 676.1805
1248.156, 675.5359
1250.085, 676.0822
1252.013, 676.6680
1253.942, 676.1946
1255.870, 674.9290
1257.798, 673.6150
1259.727, 672.6355
1261.655, 672.4088
1263.584, 672.1076
1265.512, 671.2355
1267.441, 669.9639
1269.369, 668.6418
1271.298, 668.2784
1273.226, 668.6843
1275.155, 669.4276
1277.083, 670.3646
1279.012, 671.7217
1280.940, 672.4152
1282.869, 672.3749
1284.797, 671.8818
1286.725, 670.4155
1288.654, 668.6277
1290.582, 667.5654
1292.511, 667.0199
1294.439, 666.7313
1296.368, 668.4750
1298.296, 671.1197
1300.225, 671.7742
1302.153, 669.9747
1304.082, 668.1438
1306.010, 667.5139
1307.939, 667.1862
1309.867, 666.7576
1311.796, 666.3449
1313.724, 665.1713
1315.652, 662.3307
1317.581, 660.5630
1319.509, 661.3518
1321.438, 662.8831
1323.366, 663.8577
1325.295, 664.2772
1327.223, 664.9174
1329.152, 666.2325
1331.080, 666.8696
1333.009, 665.2746
1334.937, 662.7472
1336.866, 661.9513
1338.794, 662.4445
1340.723, 661.7203
1342.651, 659.0720
1344.579, 656.9173
1346.508, 655.6146
1348.436, 654.3031
1350.365, 653.7229
1352.293, 654.0764
1354.222, 654.6790
1356.150, 656.2965
1358.079, 656.9763
1360.007, 654.8495
1361.936, 651.9885
1363.864, 651.2834
1365.793, 653.4172
1367.721, 655.7218
1369.650, 657.9318
1371.578, 659.5382
1373.506, 660.9387
1375.435, 661.9329
1377.363, 662.2126
1379.292, 661.7973
1381.220, 661.6885
1383.149, 662.5472
1385.077, 662.9276
1387.006, 661.6686
1388.934, 659.8327
1390.863, 659.2839
1392.791, 660.1066
1394.720, 660.8571
1396.648, 660.8821
1398.577, 661.5778
1400.505, 663.7117
1402.433, 666.4932
1404.362, 668.0997
1406.290, 668.1166
1408.219, 668.1053
1410.147, 668.2255
1412.076, 668.7953
1414.004, 669.9114
1415.933, 671.1061
1417.861, 671.7684
1419.790, 671.4053
1421.718, 671.6103
1423.647, 672.0605
1425.575, 673.2870
1427.504, 676.0839
1429.432, 679.6837
1431.360, 681.8264
1433.289, 681.9460
1435.217, 682.4481
1437.146, 684.5350
1439.074, 686.0811
1441.003, 685.1530
1442.931, 683.0060
1444.860, 683.1163
1446.788, 686.2294
1448.717, 688.3337
1450.645, 687.5628
1452.574, 686.6545
1454.502, 687.2733
1456.431, 688.9822
1458.359, 690.9347
1460.287, 693.3045
1462.216, 694.6690
1464.144, 694.1613
1466.073, 693.3186
1468.001, 692.4791
1469.930, 691.9492
1471.858, 692.8689
1473.787, 695.8809
1475.715, 698.5177
1477.644, 700.0659
1479.572, 701.5007
1481.501, 703.2585
1483.429, 705.1207
1485.358, 706.6054
1487.286, 707.6954
1489.214, 708.1457
1491.143, 707.4403
1493.071, 706.7487
1495.000, 706.5023
1496.928, 706.6605
1498.857, 707.1488
1500.785, 708.1273
1502.714, 709.3851
1504.642, 711.9613
1506.571, 713.5640
1508.499, 712.2540
1510.428, 710.2221
1512.356, 710.3274
1514.285, 712.5281
1516.213, 715.0810
1518.141, 718.4315
1520.070, 720.8348
1521.998, 721.2374
1523.927, 720.9870
1525.855, 721.5343
1527.784, 722.5861
1529.712, 722.1433
1531.641, 719.0621
1533.569, 717.9337
1535.498, 721.8151
1537.426, 726.2545
1539.355, 727.6803
1541.283, 727.3376
1543.212, 728.9059
1545.140, 733.0442
1547.068, 736.0020
1548.997, 736.1915
1550.925, 736.2543
1552.854, 737.3426
1554.782, 738.8993
1556.711, 740.6276
1558.639, 742.7653
1560.568, 743.8020
1562.496, 742.3500
1564.425, 741.6652
1566.353, 743.4822
1568.282, 746.1385
1570.210, 747.7866
1572.139, 748.3896
1574.067, 750.1506
1575.995, 754.1400
1577.924, 757.3074
1579.852, 758.2842
1581.781, 758.9755
1583.709, 760.4067
1585.638, 762.4859
1587.566, 765.0754
1589.495, 768.4548
1591.423, 771.7045
1593.352, 775.1352
1595.280, 778.3372
1597.209, 780.9257
1599.137, 783.2144
1601.066, 785.8538
1602.994, 788.9835
1604.922, 791.5580
1606.851, 792.5427
1608.779, 794.0812
1610.708, 797.4734
1612.636, 800.8141
1614.565, 802.5723
1616.493, 803.0742
1618.422, 803.4372
1620.350, 802.9032
1622.279, 804.2571
1624.207, 808.7542
1626.136, 813.7806
1628.064, 818.3627
1629.993, 822.5678
1631.921, 826.1843
1633.849, 828.9284
1635.778, 832.8990
1637.706, 839.2617
1639.635, 845.0502
1641.563, 849.4993
1643.492, 853.5621
1645.420, 858.1399
1647.349, 862.9550
1649.277, 866.6619
1651.206, 868.6667
1653.134, 872.1766
1655.063, 878.9364
1656.991, 885.2284
1658.920, 888.8057
1660.848, 892.0125
1662.776, 898.0878
1664.705, 906.6929
1666.633, 913.2545
1668.562, 916.6156
1670.490, 921.1917
1672.419, 929.0215
1674.347, 936.6994
1676.276, 942.2349
1678.204, 946.3494
1680.133, 950.2122
1682.061, 953.8039
1683.990, 957.1110
1685.918, 960.2865
1687.847, 963.1835
1689.775, 965.5438
1691.703, 968.1262
1693.632, 971.7985
1695.560, 976.0671
1697.489, 979.5754
1699.417, 982.2178
1701.346, 985.0535
1703.274, 988.3688
1705.203, 991.4823
1707.131, 994.5320
1709.060, 997.0211
1710.988, 998.0563
1712.917, 998.1757
1714.845, 999.1843
1716.774, 1001.130
1718.702, 1003.284
1720.630, 1006.600
1722.559, 1008.347
1724.487, 1005.687
1726.416, 1002.565
1728.344, 1003.487
1730.273, 1007.356
1732.201, 1009.255
1734.130, 1009.218
1736.058, 1007.496
1737.987, 1001.871
1739.915, 997.6394
1741.844, 997.1867
1743.772, 998.4875
1745.701, 999.8414
1747.629, 1001.261
1749.557, 1003.008
1751.486, 1005.630
1753.414, 1006.541
1755.343, 1001.859
1757.271, 1000.111
1759.200, 1009.303
1761.128, 1018.311
1763.057, 1013.335
1764.985, 998.0948
1766.914, 991.5242
1768.842, 997.1253
1770.771, 999.8251
1772.699, 996.8424
1774.628, 993.9174
1776.556, 992.7529
1778.484, 992.2300
1780.413, 991.6347
1782.341, 990.7123
1784.270, 988.6750
1786.198, 984.8530
1788.127, 981.6830
1790.055, 979.4297
1791.984, 977.6027
1793.912, 976.8483
1795.841, 976.1121
1797.769, 974.2849
1799.698, 972.1219
1801.626, 971.5176
1803.555, 972.9305
1805.483, 973.0300
1807.411, 969.6650
1809.340, 967.7128
1811.268, 968.9482
1813.197, 970.0380
1815.125, 968.3964
1817.054, 965.9913
1818.982, 966.5593
1820.911, 970.3271
1822.839, 971.1526
1824.768, 967.5086
1826.696, 965.0533
1828.625, 966.1160
1830.553, 966.3651
1832.482, 962.7523
1834.410, 958.8055
1836.339, 958.5785
1838.267, 961.1036
1840.195, 961.5444
1842.124, 959.5294
1844.052, 958.5196
1845.981, 959.3015
1847.909, 960.3895
1849.838, 961.6398
1851.766, 962.7202
1853.695, 963.7286
1855.623, 964.2266
1857.552, 962.6768
1859.480, 959.4424
1861.409, 958.9041
1863.337, 961.8991
1865.266, 965.2861
1867.194, 969.5773
1869.122, 972.1908
1871.051, 970.1730
1872.979, 967.3987
1874.908, 967.6341
1876.836, 970.0588
1878.765, 972.9321
1880.693, 976.4490
1882.622, 976.9182
1884.550, 972.0729
1886.479, 968.3181
1888.407, 966.9825
1890.336, 967.3937
1892.264, 970.9230
1894.193, 974.9017
1896.121, 974.9144
1898.049, 971.7267
1899.978, 971.4056
1901.906, 975.4426
1903.835, 978.6116
1905.763, 979.1752
1907.692, 981.2590
1909.620, 988.3300
1911.549, 994.2527
1913.477, 994.5428
1915.406, 991.5255
1917.334, 988.2118
1919.263, 984.6793
1921.191, 983.6324
1923.120, 985.6130
1925.048, 988.3458
1926.976, 992.9229
1928.905, 995.8704
1930.833, 994.0176
1932.762, 992.3818
1934.690, 995.5252
1936.619, 999.9852
1938.547, 999.3684
1940.476, 994.6880
1942.404, 992.3809
1944.333, 993.0982
1946.261, 994.2327
1948.190, 995.8581
1950.118, 996.9968
1952.047, 997.1008
1953.975, 996.8919
1955.904, 996.2011
1957.832, 995.7766
1959.760, 996.7023
1961.689, 998.8368
1963.617, 1001.899
1965.546, 1006.722
1967.474, 1009.161
1969.403, 1007.479
1971.331, 1005.758
1973.260, 1004.176
1975.188, 1003.468
1977.117, 1004.615
1979.045, 1006.411
1980.974, 1007.557
1982.902, 1008.059
1984.831, 1008.026
1986.759, 1007.493
1988.688, 1006.129
1990.616, 1002.909
1992.544, 1001.817
1994.473, 1004.798
1996.401, 1008.331
1998.330, 1011.358
2000.258, 1013.882
2002.187, 1016.302
2004.115, 1017.920
2006.044, 1016.660
2007.972, 1013.008
2009.901, 1011.488
2011.829, 1012.570
2013.758, 1014.452
2015.686, 1018.435
2017.615, 1020.543
2019.543, 1017.965
2021.471, 1015.476
2023.400, 1016.567
2025.328, 1018.659
2027.257, 1018.120
2029.185, 1015.861
2031.114, 1015.502
2033.042, 1017.280
2034.971, 1018.501
2036.899, 1018.951
2038.828, 1019.057
2040.756, 1018.165
2042.685, 1018.175
2044.613, 1020.710
2046.542, 1023.480
2048.470, 1025.989
2050.398, 1027.555
2052.327, 1026.222
2054.255, 1023.253
2056.184, 1022.778
2058.112, 1024.826
2060.041, 1027.114
2061.969, 1029.724
2063.898, 1031.167
2065.826, 1030.233
2067.755, 1029.333
2069.683, 1029.117
2071.612, 1029.391
2073.540, 1030.430
2075.469, 1031.650
2077.397, 1032.149
2079.325, 1032.105
2081.254, 1032.291
2083.182, 1032.752
2085.111, 1032.840
2087.039, 1032.115
2088.968, 1032.602
2090.896, 1035.024
2092.825, 1037.840
2094.753, 1041.637
2096.682, 1044.165
2098.610, 1042.413
2100.539, 1040.115
2102.467, 1042.101
2104.396, 1046.098
2106.324, 1046.612
2108.252, 1043.843
2110.181, 1042.370
2112.109, 1042.333
2114.038, 1043.368
2115.966, 1047.016
2117.895, 1049.427
2119.823, 1048.845
2121.752, 1048.783
2123.680, 1051.729
2125.609, 1054.269
2127.537, 1052.768
2129.466, 1050.039
2131.394, 1050.404
2133.323, 1052.741
2135.251, 1053.254
2137.179, 1052.071
2139.108, 1053.512
2141.036, 1059.005
2142.965, 1060.797
2144.893, 1054.384
2146.822, 1050.875
2148.750, 1056.302
2150.679, 1060.866
2152.607, 1059.545
2154.536, 1056.545
2156.464, 1054.177
2158.393, 1052.996
2160.321, 1054.515
2162.250, 1057.943
2164.178, 1059.975
2166.106, 1060.593
2168.035, 1060.065
2169.963, 1058.051
2171.892, 1057.534
2173.820, 1059.598
2175.749, 1061.227
2177.677, 1061.331
2179.606, 1061.172
2181.534, 1062.004
2183.463, 1061.881
2185.391, 1057.516
2187.320, 1052.946
2189.248, 1053.818
2191.177, 1058.213
2193.105, 1062.160
2195.033, 1065.495
2196.962, 1063.142
2198.890, 1054.519
2200.819, 1048.074
2202.747, 1044.698
2204.676, 1043.358
2206.604, 1044.865
2208.533, 1046.391
2210.461, 1047.326
2212.390, 1047.644
2214.318, 1047.272
2216.247, 1046.112
2218.175, 1043.583
2220.104, 1040.321
2222.032, 1036.389
2223.960, 1032.667
2225.889, 1032.875
2227.817, 1036.756
2229.746, 1038.045
2231.674, 1036.653
2233.603, 1034.671
2235.531, 1032.237
2237.460, 1029.778
2239.388, 1026.875
2241.317, 1024.995
2243.245, 1025.615
2245.174, 1025.752
2247.102, 1023.719
2249.031, 1021.207
2250.959, 1018.612
2252.887, 1016.937
2254.816, 1018.908
2256.744, 1015.381
2258.673, 1019.231
2260.601, 1012.507
2262.530, 1009.964
2264.458, 1011.348
2266.387, 1011.413
2268.315, 1009.798
2270.244, 1006.987
2272.172, 1002.090
2274.101, 998.6870
2276.029, 997.5836
2277.958, 997.8291
2279.886, 1001.281
2281.814, 1003.174
2283.743, 998.9551
2285.671, 995.1010
2287.600, 998.1664
2289.528, 1001.974
2291.457, 998.8054
2293.385, 992.5009
2295.314, 989.3125
2297.242, 988.6643
2299.171, 988.8164
2301.099, 989.7493
2303.028, 989.1691
2304.956, 986.5067
2306.885, 984.6339
2308.813, 983.4918
2310.741, 983.6162
2312.670, 986.1550
2314.598, 987.1937
2316.527, 984.9059
2318.455, 982.9342
2320.384, 981.9736
2322.312, 982.6531
2324.241, 987.6211
2326.169, 991.7284
2328.098, 990.5448
2330.026, 986.6766
2331.955, 981.7605
2333.883, 977.1152
2335.812, 975.7551
2337.740, 976.7794
2339.668, 977.3036
2341.597, 977.0925
2343.525, 972.9870
2345.454, 972.9604
2347.382, 972.6904
2349.311, 969.2056
2351.239, 972.6176
2353.168, 970.3629
2355.096, 968.1146
2357.025, 965.4384
2358.953, 964.1766
2360.882, 965.3895
2362.810, 966.9196
2364.739, 968.8217
2366.667, 969.7982
2368.595, 969.0472
2370.524, 967.1530
2372.452, 963.2224
2374.381, 959.5413
2376.309, 958.6099
2378.238, 959.6683
2380.166, 963.0781
2382.095, 967.0557
2384.023, 965.3439
2385.952, 959.2780
2387.880, 958.0028
2389.809, 960.9291
2391.737, 961.2006
2393.666, 958.3171
2395.594, 956.2927
2397.522, 955.6055
2399.451, 954.8393
2401.379, 953.3658
2403.308, 952.6247
2405.236, 952.4373
2407.165, 953.5728
2409.093, 957.3948
2411.022, 960.3148
2412.950, 961.0598
2414.879, 960.9957
2416.807, 961.1671
2418.736, 960.3160
2420.664, 956.2195
2422.593, 952.3891
2424.521, 951.8326
2426.449, 952.9595
2428.378, 954.5859
2430.306, 956.2150
2432.235, 956.6954
2434.163, 956.7739
2436.092, 958.6702
2438.020, 958.7256
2439.949, 961.8272
2441.877, 960.1835
2443.806, 959.8293
2445.734, 961.0668
2447.663, 958.0907
2449.591, 958.9766
2451.520, 960.2313
2453.448, 957.6897
2455.376, 962.5408
2457.305, 960.3668
2459.233, 958.3574
2461.162, 957.5601
2463.090, 957.5914
2465.019, 958.5383
2466.947, 960.4413
2468.876, 965.9150
2470.804, 968.6080
2472.733, 964.1279
2474.661, 961.0989
2476.590, 964.0007
2478.518, 967.3578
2480.447, 968.2610
2482.375, 967.9693
2484.303, 966.7519
2486.232, 965.4865
2488.160, 965.3704
2490.089, 965.4778
2492.017, 964.1844
2493.946, 963.0638
2495.874, 964.3809
2497.803, 967.2325
2499.731, 970.6740
2501.660, 974.0652
2503.588, 976.3813
2505.517, 977.3111
2507.445, 974.9729
2509.374, 970.0645
2511.302, 968.9518
2513.230, 971.2065
2515.159, 972.3428
2517.087, 972.3823
2519.016, 972.6476
2520.944, 973.3583
2522.873, 973.7461
2524.801, 974.7426
2526.730, 974.3623
2528.658, 977.0978
2530.587, 977.6907
2532.515, 979.3234
2534.444, 981.7268
2536.372, 981.1879
2538.301, 985.2194
2540.229, 984.7151
2542.157, 983.8375
2544.086, 983.5340
2546.014, 982.9760
2547.943, 981.6071
2549.871, 981.0692
2551.800, 982.9581
2553.728, 983.2402
2555.657, 978.6902
2557.585, 974.7772
2559.514, 973.4466
2561.442, 973.8571
2563.371, 977.3459
2565.299, 980.1118
2567.228, 979.1013
2569.156, 977.9367
2571.084, 979.9228
2573.013, 981.1741
2574.941, 977.5687
2576.870, 973.4193
2578.798, 972.1522
2580.727, 972.5172
2582.655, 974.1867
2584.584, 975.9734
2586.512, 977.1415
2588.441, 977.0693
2590.369, 973.6712
2592.298, 969.6759
2594.226, 969.2632
2596.155, 970.3875
2598.083, 969.8503
2600.011, 968.2242
2601.940, 966.0963
2603.868, 964.1541
2605.797, 964.2207
2607.725, 965.6329
2609.654, 966.8168
2611.582, 967.9389
2613.511, 969.8857
2615.439, 970.1567
2617.368, 970.3169
2619.296, 970.6023
2621.225, 969.3907
2623.153, 968.5059
2625.082, 967.7797
2627.010, 967.2338
2628.938, 967.5312
2630.867, 968.4619
2632.795, 965.4844
2634.724, 958.8378
2636.652, 956.2676
2638.581, 957.3542
2640.509, 957.1490
2642.438, 955.5175
2644.366, 953.7090
2646.295, 951.6107
2648.223, 950.2993
2650.152, 949.7244
2652.080, 950.1270
2654.009, 951.5598
2655.937, 952.0981
2657.865, 951.7451
2659.794, 951.9125
2661.722, 951.6412
2663.651, 952.7373
2665.579, 950.6824
2667.508, 949.1949
2669.436, 948.1292
2671.365, 948.5869
2673.293, 947.2032
2675.222, 946.3843
2677.150, 946.4409
2679.079, 944.4707
2681.007, 945.4321
2682.936, 945.4979
2684.864, 944.4031
2686.792, 945.4036
2688.721, 948.9758
2690.649, 949.6107
2692.578, 945.7134
2694.506, 944.7634
2696.435, 948.4330
2698.363, 950.3337
2700.292, 950.2055
2702.220, 950.6425
2704.149, 951.9668
2706.077, 951.6448
2708.006, 948.9548
2709.934, 947.1439
2711.863, 946.2942
2713.791, 946.5099
2715.719, 947.9260
2717.648, 949.0936
2719.576, 949.9631
2721.505, 948.9974
2723.433, 945.5803
2725.362, 943.2398
2727.290, 942.1420
2729.219, 942.3896
2731.147, 944.1639
2733.076, 945.3987
2735.004, 945.9615
2736.933, 946.1350
2738.861, 945.7226
2740.790, 946.5217
2742.718, 949.1650
2744.646, 948.0795
2746.575, 949.2582
2748.503, 949.3809
2750.432, 948.0931
2752.360, 948.8914
2754.289, 947.7879
2756.217, 947.1337
2758.146, 945.8380
2760.074, 945.8359
2762.003, 944.0829
2763.931, 944.2020
2765.860, 946.1023
2767.788, 946.7419
2769.717, 946.2043
2771.645, 944.1207
2773.573, 944.8638
2775.502, 941.1292
2777.430, 943.7455
2779.359, 943.1448
2781.287, 940.3959
2783.216, 941.3600
2785.144, 941.2824
2787.073, 945.0541
2789.001, 943.3419
2790.930, 943.8864
2792.858, 945.3586
2794.787, 943.4650
2796.715, 940.3715
2798.644, 942.2972
2800.572, 940.0608
2802.500, 944.0530
2804.429, 939.9888
2806.357, 940.4598
2808.286, 943.2347
2810.214, 946.7623
2812.143, 949.2292
2814.071, 946.7723
2816.000, 943.1132
2817.928, 942.1495
2819.857, 942.7430
2821.785, 945.2545
2823.714, 946.9856
2825.642, 943.8812
2827.571, 940.8010
2829.499, 943.6389
2831.427, 945.5537
2833.356, 940.0089
2835.284, 935.4753
2837.213, 937.9453
2839.141, 941.6762
2841.070, 944.1293
2842.998, 946.4279
2844.927, 949.5957
2846.855, 951.2723
2848.784, 949.3250
2850.712, 947.4955
2852.641, 947.4786
2854.569, 946.5238
2856.498, 943.0466
2858.426, 941.9550
2860.354, 945.3692
2862.283, 947.7949
2864.211, 947.1885
2866.140, 947.4192
2868.068, 949.1915
2869.997, 949.4961
2871.925, 947.8467
2873.854, 947.9689
2875.782, 950.7842
2877.711, 951.5657
2879.639, 949.9025
2881.568, 947.7141
2883.496, 945.0401
2885.425, 942.7946
2887.353, 941.2533
2889.281, 942.6492
2891.210, 946.1093
2893.138, 946.0775
2895.067, 943.7800
2896.995, 942.8908
2898.924, 943.2087
2900.852, 944.8054
2902.781, 946.6764
2904.709, 947.3409
2906.638, 946.9522
2908.566, 945.0718
2910.495, 943.1501
2912.423, 941.8882
2914.352, 942.3307
2916.280, 946.6055
2918.208, 951.2264
2920.137, 954.2982
2922.065, 956.0583
2923.994, 956.9827
2925.922, 955.7516
2927.851, 956.3568
2929.779, 956.9335
2931.708, 953.1758
2933.636, 956.8799
2935.565, 951.0216
2937.493, 947.0377
2939.422, 949.3842
2941.350, 948.8754
2943.279, 944.0692
2945.207, 941.9592
2947.135, 942.9648
2949.064, 944.6922
2950.992, 947.0417
2952.921, 947.8251
2954.849, 947.1766
2956.778, 944.6896
2958.706, 945.5260
2960.635, 942.1592
2962.563, 944.8218
2964.492, 944.1967
2966.420, 942.8652
2968.349, 947.1231
2970.277, 951.7339
2972.206, 950.2520
2974.134, 946.8933
2976.063, 944.7888
2977.991, 943.6907
2979.919, 944.2470
2981.848, 944.7991
2983.776, 944.8409
2985.705, 944.3514
2987.633, 941.2444
2989.562, 941.5920
2991.490, 941.1437
2993.419, 940.0134
2995.347, 943.4527
2997.276, 940.3404
2999.204, 944.8904
3001.133, 948.1459
3003.061, 950.2611
3004.990, 946.2337
3006.918, 937.4818
3008.846, 936.7641
3010.775, 942.2783
3012.703, 947.4529
3014.632, 951.4302
3016.560, 951.2561
3018.489, 949.3519
3020.417, 948.0084
3022.346, 948.1570
3024.274, 952.8926
3026.203, 956.7222
3028.131, 955.3588
3030.060, 953.1577
3031.988, 951.5552
3033.917, 951.0533
3035.845, 952.9431
3037.773, 953.0751
3039.702, 950.0845
3041.630, 948.0492
3043.559, 948.0646
3045.487, 948.3132
3047.416, 948.7639
3049.344, 950.6920
3051.273, 950.3812
3053.201, 950.8551
3055.130, 951.0421
3057.058, 950.7238
3058.987, 951.5381
3060.915, 951.4615
3062.844, 950.9305
3064.772, 949.9984
3066.700, 949.5449
3068.629, 950.9801
3070.557, 952.2784
3072.486, 952.0898
3074.414, 951.8487
3076.343, 952.1302
3078.271, 952.4353
3080.200, 952.8635
3082.128, 952.7511
3084.057, 951.9788
3085.985, 951.6434
3087.914, 951.9495
3089.842, 951.8387
3091.771, 951.4862
3093.699, 953.7285
3095.627, 956.4611
3097.556, 952.1465
3099.484, 945.5330
3101.413, 944.7805
3103.341, 946.9066
3105.270, 950.5759
3107.198, 953.2059
3109.127, 952.6661
3111.055, 951.2255
3112.984, 949.3119
3114.912, 948.1757
3116.841, 948.4816
3118.769, 948.7999
3120.698, 949.2005
3122.626, 948.1184
3124.554, 948.1270
3126.483, 945.4472
3128.411, 947.2781
3130.340, 947.9529
3132.268, 948.2220
3134.197, 950.8973
3136.125, 953.5374
3138.054, 952.9216
3139.982, 950.9559
3141.911, 947.6769
3143.839, 946.2852
3145.768, 949.4141
3147.696, 951.7640
3149.625, 951.3048
3151.553, 950.4506
3153.481, 949.5282
3155.410, 947.4981
3157.338, 944.3641
3159.267, 947.4680
3161.195, 955.2139
3163.124, 955.8778
3165.052, 952.3547
3166.981, 950.6004
3168.909, 950.1448
3170.838, 951.5919
3172.766, 952.6112
3174.695, 950.5037
3176.623, 949.4625
3178.552, 952.2255
3180.480, 954.7894
3182.408, 956.8516
3184.337, 956.2418
3186.265, 952.4899
3188.194, 952.1318
3190.122, 955.2383
3192.051, 956.9843
3193.979, 957.6249
3195.908, 957.2123
3197.836, 956.9289
3199.765, 959.5450
3201.693, 961.5388
3203.622, 958.0330
3205.550, 955.5768
3207.479, 957.7118
3209.407, 959.7021
3211.335, 960.1939
3213.264, 960.9573
3215.192, 962.3267
3217.121, 960.8956
3219.049, 957.0436
3220.978, 954.8115
3222.906, 954.6163
3224.835, 959.1608
3226.763, 964.4203
3228.692, 965.3265
3230.620, 964.3119
3232.549, 961.1488
3234.477, 960.3522
3236.406, 960.4376
3238.334, 959.8236
3240.262, 962.9005
3242.191, 961.6987
3244.119, 965.2363
3246.048, 968.1970
3247.976, 970.4011
3249.905, 972.2834
3251.833, 973.6064
3253.762, 973.5315
3255.690, 973.2830
3257.619, 974.4448
3259.547, 975.2795
3261.476, 975.7691
3263.404, 973.8268
3265.333, 967.1492
3267.261, 963.4876
3269.189, 963.3429
3271.118, 966.2636
3273.046, 970.9093
3274.975, 970.3438
3276.903, 967.5037
3278.832, 968.0230
3280.760, 970.3548
3282.689, 974.6049
3284.617, 977.5084
3286.546, 976.7943
3288.474, 974.6058
3290.403, 970.2419
3292.331, 970.5717
3294.260, 977.2410
3296.188, 980.2999
3298.116, 980.6353
3300.045, 982.8525
3301.973, 985.1707
3303.902, 984.6573
3305.830, 982.6281
3307.759, 979.2060
3309.687, 976.6051
3311.616, 976.2295
3313.544, 975.9833
3315.473, 975.3332
3317.401, 977.4044
3319.330, 982.0129
3321.258, 981.6765
3323.187, 979.0367
3325.115, 984.8392
3327.043, 990.9258
3328.972, 985.6326
3330.900, 980.7848
3332.829, 985.5396
3334.757, 988.7655
3336.686, 987.0652
3338.614, 987.5869
3340.543, 991.5130
3342.471, 994.1091
3344.400, 995.2810
3346.328, 994.2340
3348.257, 992.6283
3350.185, 993.1852
3352.114, 994.3702
3354.042, 996.2070
3355.970, 996.3419
3357.899, 992.6976
3359.827, 990.1110
3361.756, 988.9230
3363.684, 987.4863
3365.613, 986.1594
3367.541, 988.6882
3369.470, 992.3555
3371.398, 992.3248
3373.327, 991.6574
3375.255, 994.0784
3377.184, 993.6614
3379.112, 992.9362
3381.041, 993.6684
3382.969, 993.0767
3384.897, 993.1120
3386.826, 992.6905
3388.754, 991.9803
3390.683, 991.5018
3392.611, 991.4813
3394.540, 993.0934
3396.468, 993.3878
3398.397, 993.4365
3400.325, 995.9465
3402.254, 993.4208
3404.182, 995.1987
3406.111, 995.7101
3408.039, 995.2020
3409.968, 995.2557
3411.896, 995.9679
3413.824, 998.9844
3415.753, 1000.252
3417.681, 994.8434
3419.610, 992.7646
3421.538, 996.3049
3423.467, 998.6675
3425.395, 999.1730
3427.324, 995.8421
3429.252, 991.1069
3431.181, 990.1052
3433.109, 990.7987
3435.038, 992.3882
3436.966, 993.0431
3438.895, 991.4444
3440.823, 991.7375
3442.751, 995.2667
3444.680, 995.0977
3446.608, 992.1711
3448.537, 989.0469
3450.465, 987.0607
3452.394, 988.8987
3454.322, 991.1861
3456.251, 991.6370
3458.179, 992.8856
3460.108, 995.6266
3462.036, 996.5576
3463.965, 995.7526
3465.893, 995.8420
3467.822, 995.7276
3469.750, 991.6625
3471.678, 988.5847
3473.607, 990.8484
3475.535, 993.2623
3477.464, 994.8036
3479.392, 994.2654
3481.321, 991.5117
3483.249, 989.2819
3485.178, 987.8669
3487.106, 987.9160
3489.035, 989.1844
3490.963, 993.0364
3492.892, 995.2941
3494.820, 994.8918
3496.749, 992.2143
3498.677, 987.1550
3500.605, 986.5149
3502.534, 989.2220
3504.462, 993.2971
3506.391, 997.6766
3508.319, 1003.249
3510.248, 1004.776
3512.176, 998.3790
3514.105, 995.4551
3516.033, 996.9144
3517.962, 999.0272
3519.890, 1000.657
3521.819, 998.5723
3523.747, 995.7792
3525.676, 995.1773
3527.604, 993.8164
3529.532, 988.2247
3531.461, 988.8142
3533.389, 994.8845
3535.318, 991.0654
3537.246, 983.8631
3539.175, 990.7310
3541.103, 997.4365
3543.032, 991.1693
3544.960, 987.0215
3546.889, 989.3978
3548.817, 990.5916
3550.746, 990.1850
3552.674, 989.9994
3554.603, 989.8522
3556.531, 989.9480
3558.459, 989.2217
3560.388, 985.9933
3562.316, 983.9608
3564.245, 983.5679
3566.173, 987.3044
3568.102, 993.5018
3570.030, 993.9196
3571.959, 991.6779
3573.887, 989.1448
3575.816, 988.1642
3577.744, 990.4965
3579.673, 991.1920
3581.601, 989.6532
3583.530, 988.3969
3585.458, 987.6834
3587.386, 988.1324
3589.315, 989.0042
3591.243, 989.3684
3593.172, 990.6875
3595.100, 993.5165
3597.029, 994.6078
3598.957, 994.0008
3600.886, 993.9992
3602.814, 994.0378
3604.743, 993.6852
3606.671, 992.4375
3608.600, 989.7432
3610.528, 987.9853
3612.457, 987.7209
3614.385, 989.7541
3616.313, 992.5029
3618.242, 990.6102
3620.170, 989.4727
3622.099, 995.1639
3624.027, 998.6786
3625.956, 997.3269
3627.884, 995.2630
3629.813, 993.1843
3631.741, 996.2037
3633.670, 999.2482
3635.598, 994.6111
3637.527, 991.8964
3639.455, 995.5009
3641.384, 996.1858
3643.312, 993.1870
3645.240, 992.1826
3647.169, 992.1180
3649.097, 992.1588
3651.026, 990.5559
3652.954, 991.3369
3654.883, 993.2369
3656.811, 992.3856
3658.740, 997.1282
3660.668, 998.9792
3662.597, 997.7177
3664.525, 995.9519
3666.454, 995.3978
3668.382, 995.1324
3670.311, 994.6627
3672.239, 997.2342
3674.167, 1001.209
3676.096, 1001.187
3678.024, 999.4852
3679.953, 997.5760
3681.881, 995.7991
3683.810, 993.9685
3685.738, 993.3658
3687.667, 993.8857
3689.595, 994.8961
3691.524, 996.8536
3693.452, 1001.691
3695.381, 1005.240
3697.309, 1006.719
3699.238, 1003.184
3701.166, 996.1144
3703.094, 996.1697
3705.023, 998.5523
3706.951, 997.7848
3708.880, 998.0371
3710.808, 1000.930
3712.737, 1003.276
3714.665, 1004.740
3716.594, 1003.241
3718.522, 1001.107
3720.451, 1000.621
3722.379, 1001.484
3724.308, 1004.443
3726.236, 1001.844
3728.165, 1003.417
3730.093, 997.9695
3732.021, 1002.874
3733.950, 999.5399
3735.878, 997.6476
3737.807, 1000.173
3739.735, 1002.516
3741.664, 1004.146
3743.592, 1003.881
3745.521, 1003.202
3747.449, 1003.508
3749.378, 1004.204
3751.306, 1005.151
3753.235, 1007.110
3755.163, 1009.182
3757.092, 1005.318
3759.020, 1002.116
3760.948, 1007.121
3762.877, 1010.854
3764.805, 1011.479
3766.734, 1010.456
3768.662, 1008.909
3770.591, 1010.949
3772.519, 1012.447
3774.448, 1008.817
3776.376, 1008.601
3778.305, 1012.803
3780.233, 1009.658
3782.162, 1003.894
3784.090, 1006.400
3786.019, 1010.596
3787.947, 1013.435
3789.875, 1015.832
3791.804, 1017.607
3793.732, 1016.335
3795.661, 1014.783
3797.589, 1017.968
3799.518, 1020.124
3801.446, 1017.752
3803.375, 1019.227
3805.303, 1023.785
3807.232, 1025.828
3809.160, 1026.855
3811.089, 1028.408
3813.017, 1028.828
3814.946, 1027.600
3816.874, 1026.301
3818.802, 1025.316
3820.731, 1025.020
3822.659, 1026.159
3824.588, 1030.618
3826.516, 1029.755
3828.445, 1031.433
3830.373, 1031.214
3832.302, 1031.363
3834.230, 1029.348
3836.159, 1029.700
3838.087, 1028.970
3840.016, 1029.631
3841.944, 1028.927
3843.873, 1029.998
3845.801, 1031.771
3847.729, 1031.846
3849.658, 1032.976
3851.586, 1035.057
3853.515, 1034.842
3855.443, 1034.006
3857.372, 1035.728
3859.300, 1037.283
3861.229, 1038.037
3863.157, 1033.764
3865.086, 1035.202
3867.014, 1029.171
3868.943, 1033.307
3870.871, 1031.082
3872.800, 1028.515
3874.728, 1026.691
3876.656, 1027.129
3878.585, 1027.343
3880.513, 1020.535
3882.442, 1016.026
3884.370, 1019.704
3886.299, 1021.531
3888.227, 1021.761
3890.156, 1021.032
3892.084, 1020.962
3894.013, 1022.575
3895.941, 1025.968
3897.870, 1025.081
3899.798, 1029.314
3901.727, 1024.770
3903.655, 1023.149
3905.583, 1022.118
3907.512, 1021.313
3909.440, 1019.264
3911.369, 1017.384
3913.297, 1018.574
3915.226, 1019.231
3917.154, 1018.607
3919.083, 1019.463
3921.011, 1020.117
3922.940, 1017.174
3924.868, 1015.092
3926.797, 1015.591
3928.725, 1014.311
3930.654, 1014.548
3932.582, 1012.721
3934.510, 1015.404
3936.439, 1017.243
3938.367, 1017.884
3940.296, 1017.771
3942.224, 1014.189
3944.153, 1009.777
3946.081, 1015.253
3948.010, 1019.438
3949.938, 1016.064
3951.867, 1013.259
3953.795, 1012.111
3955.724, 1009.678
3957.652, 1008.103
3959.581, 1012.560
3961.509, 1012.587
3963.438, 1006.245
3965.366, 1010.521
3967.294, 1016.511
3969.223, 1013.387
3971.151, 1009.467
3973.080, 1006.720
3975.008, 1006.596
3976.937, 1006.742
3978.865, 1002.897
3980.794, 1000.456
3982.722, 1001.321
3984.651, 1003.357
3986.579, 1005.718
3988.508, 1005.483
3990.436, 1005.302
3992.365, 1007.876
3994.293, 1004.457
3996.221, 997.2072
3998.150, 997.4694
4000.078, 999.2478
4002.007, 998.1223
4003.935, 999.8161
4005.864, 1003.976
4007.792, 1000.183
4009.721, 996.1011
4011.649, 1000.555
4013.578, 999.9545
4015.506, 993.7953
4017.435, 993.2993
4019.363, 994.7654
4021.292, 993.3151
4023.220, 993.4465
4025.148, 993.1904
4027.077, 993.0157
4029.005, 992.4855
4030.934, 992.9257
4032.862, 993.2459
4034.791, 992.2871
4036.719, 993.1005
4038.648, 993.2227
4040.576, 991.8885
4042.505, 992.0661
4044.433, 991.5464
4046.362, 991.0763
4048.290, 990.2565
4050.219, 990.1253
4052.147, 988.2016
4054.075, 987.7278
4056.004, 985.4847
4057.932, 986.5477
4059.861, 986.4916
4061.789, 987.5207
4063.718, 987.3177
4065.646, 984.0055
4067.575, 980.0861
4069.503, 980.8570
4071.432, 980.8054
4073.360, 980.4293
4075.289, 981.1175
4077.217, 979.4863
4079.146, 975.7445
4081.074, 974.8829
4083.002, 978.1494
4084.931, 979.2747
4086.859, 975.6862
4088.788, 973.6620
4090.716, 975.2762
4092.645, 973.5969
4094.573, 970.8418
4096.502, 970.1756
4098.430, 970.7803
4100.359, 970.0375
4102.287, 969.3140
4104.216, 968.8782
4106.144, 967.4098
4108.073, 967.2910
4110.001, 966.4711
4111.930, 965.8718
4113.858, 964.0043
4115.787, 958.8359
4117.715, 954.6381
4119.644, 954.8648
4121.572, 956.1038
4123.500, 955.3278
4125.429, 955.4010
4127.357, 954.0247
4129.286, 951.4656
4131.214, 951.0674
4133.143, 950.0995
4135.071, 949.3973
4137.000, 948.8398
4138.928, 945.7097
4140.856, 943.8640
4142.785, 946.3185
4144.713, 943.4306
4146.642, 951.0557
4148.570, 942.8170
4150.499, 940.2926
4152.427, 942.8254
4154.356, 947.3881
4156.284, 948.4199
4158.213, 946.0398
4160.141, 940.6702
4162.070, 936.2278
4163.998, 936.1927
4165.927, 935.8525
4167.855, 934.9128
4169.784, 934.9157
4171.712, 934.0986
4173.641, 934.0084
4175.569, 932.4451
4177.498, 931.1245
4179.426, 929.4926
4181.354, 929.8791
4183.283, 929.8623
4185.211, 930.6906
4187.140, 931.7051
4189.068, 932.4189
4190.997, 933.7177
4192.925, 932.2419
4194.854, 929.4801
4196.782, 924.9335
4198.710, 922.7155
4200.639, 922.0903
4202.567, 923.7832
4204.496, 923.9375
4206.424, 921.9603
4208.353, 917.6859
4210.281, 914.9673
4212.210, 918.1669
4214.138, 920.1956
4216.067, 920.5584
4217.995, 921.4547
4219.924, 921.5552
4221.852, 920.5876
4223.781, 917.5850
4225.709, 917.6176
4227.638, 915.0870
4229.566, 915.3411
4231.495, 913.0137
4233.423, 910.9517
4235.352, 909.9742
4237.280, 912.1664
4239.208, 913.6073
4241.137, 913.1339
4243.065, 913.4766
4244.994, 913.6894
4246.922, 912.6125
4248.851, 910.1585
4250.779, 906.5417
4252.708, 910.0270
4254.636, 913.6498
4256.564, 910.9232
4258.493, 909.2913
4260.421, 908.9616
4262.350, 906.2709
4264.278, 901.9890
4266.207, 895.1471
4268.135, 894.7669
4270.064, 898.7343
4271.992, 900.7024
4273.921, 902.2719
4275.849, 904.4084
4277.778, 900.5236
4279.706, 895.3170
4281.635, 898.0861
4283.563, 896.9293
4285.492, 889.1408
4287.420, 887.4213
4289.349, 888.0359
4291.277, 887.9413
4293.206, 888.6380
4295.134, 889.9158
4297.063, 890.0412
4298.991, 888.2944
4300.919, 883.3646
4302.848, 881.7870
4304.776, 882.9293
4306.705, 885.9651
4308.633, 887.4846
4310.562, 886.4770
4312.490, 882.5814
4314.418, 878.7969
4316.347, 878.2110
4318.275, 880.8164
4320.204, 885.6498
4322.132, 882.8170
4324.061, 880.3444
4325.989, 884.0307
4327.918, 880.1404
4329.846, 872.4281
4331.775, 872.7782
4333.703, 874.9113
4335.632, 876.9191
4337.560, 877.0931
4339.489, 875.8755
4341.417, 873.6069
4343.346, 870.1688
4345.274, 866.6707
4347.203, 870.0042
4349.131, 873.7474
4351.060, 874.0333
4352.988, 877.3986
4354.917, 879.9043
4356.845, 869.6534
4358.773, 864.6080
4360.702, 868.9883
4362.630, 872.7525
4364.559, 873.7096
4366.487, 875.8286
4368.416, 868.5316
4370.344, 875.2262
4372.272, 868.7924
4374.201, 863.7454
4376.129, 868.2643
4378.058, 868.2020
4379.986, 865.5654
4381.915, 862.2852
4383.843, 860.8116
4385.772, 861.0491
4387.700, 858.4767
4389.629, 855.3781
4391.557, 852.1508
4393.486, 855.8299
4395.414, 861.9941
4397.343, 862.6489
4399.271, 859.2426
4401.200, 852.6266
4403.128, 852.1217
4405.057, 853.3972
4406.985, 853.7008
4408.914, 853.2422
4410.842, 852.2226
4412.771, 850.8905
4414.699, 849.0562
4416.627, 846.9808
4418.556, 849.7390
4420.484, 852.2258
4422.413, 849.2727
4424.341, 846.4950
4426.270, 845.4639
4428.198, 850.6734
4430.126, 854.0033
4432.055, 852.7538
4433.983, 850.5576
4435.912, 848.8395
4437.840, 847.5464
4439.769, 846.2082
4441.697, 845.1660
4443.626, 844.3144
4445.554, 843.7078
4447.483, 842.9023
4449.411, 845.8878
4451.340, 848.2724
4453.268, 846.6708
4455.197, 840.9705
4457.125, 835.1018
4459.054, 839.8648
4460.982, 842.7277
4462.911, 840.8566
4464.839, 840.8262
4466.768, 839.9402
4468.696, 833.8362
4470.625, 834.9850
4472.553, 838.2170
4474.481, 829.0817
4476.410, 826.2426
4478.338, 832.6629
4480.267, 833.7105
4482.195, 833.8765
4484.124, 835.7527
4486.052, 833.3349
4487.980, 829.5746
4489.909, 829.7036
4491.837, 827.3731
4493.766, 823.6029
4495.694, 827.3864
4497.623, 830.5494
4499.551, 829.4775
4501.480, 825.3726
4503.408, 821.4857
4505.337, 821.0237
4507.265, 823.9650
4509.194, 827.8117
4511.122, 825.3148
4513.051, 822.3412
4514.979, 820.4868
4516.908, 819.1406
4518.836, 818.5843
4520.765, 818.7723
4522.693, 823.4441
4524.622, 828.0291
4526.550, 825.2070
4528.479, 821.4457
4530.407, 818.4233
4532.335, 819.6164
4534.264, 820.0515
4536.192, 817.3727
4538.121, 819.5859
4540.049, 820.2414
4541.978, 813.1552
4543.906, 811.2527
4545.834, 813.4403
4547.763, 817.4481
4549.691, 818.4042
4551.620, 815.8158
4553.548, 810.1605
4555.477, 806.9811
4557.405, 809.5795
4559.334, 810.6718
4561.262, 809.5350
4563.191, 809.8847
4565.119, 809.2869
4567.048, 808.1227
4568.976, 808.1722
4570.905, 808.1986
4572.833, 808.4099
4574.762, 806.1850
4576.690, 804.4562
4578.619, 804.5860
4580.547, 805.2874
4582.476, 804.9929
4584.404, 801.3795
4586.333, 803.2869
4588.261, 806.6889
4590.189, 803.0033
4592.118, 802.8475
4594.046, 805.5005
4595.975, 801.6855
4597.903, 798.6443
4599.832, 798.8353
4601.760, 796.9052
4603.688, 796.0150
4605.617, 797.0699
4607.545, 793.8368
4609.474, 795.4633
4611.402, 793.0538
4613.331, 802.1935
4615.259, 794.6014
4617.188, 804.8480
4619.116, 805.7330
4621.045, 795.2384
4622.973, 801.1235
4624.902, 805.5182
4626.830, 801.0989
4628.759, 792.7540
4630.687, 788.0466
4632.616, 792.6750
4634.544, 792.4178
4636.473, 788.8475
4638.401, 783.8212
4640.330, 782.7829
4642.258, 784.7276
4644.187, 787.0207
4646.115, 786.7607
4648.043, 783.8557
4649.972, 779.4589
4651.900, 779.1281
4653.829, 783.9877
4655.757, 785.5244
4657.686, 786.1639
4659.614, 788.7767
4661.542, 785.0025
4663.471, 780.5993
4665.399, 781.9542
4667.328, 781.2911
4669.256, 780.5416
4671.185, 779.0643
4673.113, 778.0095
4675.042, 777.4496
4676.970, 775.5004
4678.899, 776.2151
4680.827, 775.7227
4682.756, 774.7336
4684.684, 774.3550
4686.613, 774.9230
4688.541, 776.2659
4690.470, 776.8837
4692.398, 775.9110
4694.327, 774.9788
4696.255, 768.7795
4698.184, 770.7150
4700.112, 768.8121
4702.041, 765.9417
4703.969, 768.5741
4705.897, 767.8320
4707.826, 764.1364
4709.754, 766.4147
4711.683, 765.6033
4713.611, 767.0271
4715.540, 767.0987
4717.468, 766.7869
4719.396, 767.3038
4721.325, 764.8676
4723.253, 761.6083
4725.182, 758.2782
4727.110, 761.8889
4729.039, 763.7471
4730.967, 758.9490
4732.896, 757.3346
4734.824, 756.8648
4736.753, 754.8032
4738.681, 757.2116
4740.610, 758.5519
4742.538, 750.6486
4744.467, 746.6826
4746.395, 747.1224
4748.324, 751.9951
4750.252, 757.6683
4752.181, 761.5240
4754.109, 757.9313
4756.038, 752.7960
4757.966, 748.4032
4759.895, 750.0316
4761.823, 750.4357
4763.751, 749.4343
4765.680, 757.2224
4767.608, 756.3128
4769.537, 754.9738
4771.465, 747.9114
4773.394, 751.1622
4775.322, 746.2849
4777.250, 747.9572
4779.179, 750.1722
4781.107, 749.3333
4783.036, 748.1993
4784.964, 747.5327
4786.893, 747.8012
4788.821, 745.9866
4790.750, 743.9734
4792.678, 743.9595
4794.607, 741.7549
4796.535, 739.6719
4798.464, 740.0525
4800.392, 739.5847
4802.321, 738.3959
4804.249, 736.2927
4806.178, 737.3986
4808.106, 739.3186
4810.035, 738.7474
4811.963, 733.9889
4813.892, 729.7839
4815.820, 735.4572
4817.749, 737.4862
4819.677, 736.2841
4821.605, 735.1848
4823.534, 734.9691
4825.462, 735.0931
4827.391, 734.6889
4829.319, 732.0772
4831.248, 728.8317
4833.176, 729.6278
4835.104, 732.2958
4837.033, 734.9909
4838.961, 733.0633
4840.890, 731.6312
4842.818, 731.5754
4844.747, 732.8598
4846.675, 732.6339
4848.604, 731.5585
4850.532, 736.5590
4852.461, 733.5931
4854.389, 723.1987
4856.318, 720.6418
4858.246, 722.5891
4860.175, 726.3089
4862.103, 723.6829
4864.032, 722.2116
4865.960, 723.0792
4867.889, 722.4233
4869.817, 720.7094
4871.746, 718.6595
4873.674, 717.9158
4875.603, 720.8360
4877.531, 718.8583
4879.459, 722.0326
4881.388, 718.3952
4883.316, 717.1539
4885.245, 717.3205
4887.173, 715.6462
4889.102, 712.5232
4891.030, 715.3572
4892.958, 716.9992
4894.887, 715.7809
4896.815, 710.8846
4898.744, 706.8725
4900.672, 705.5084
4902.601, 711.6212
4904.529, 713.0917
4906.458, 709.3520
4908.386, 707.6865
4910.315, 704.6086
4912.243, 701.2462
4914.172, 705.4907
4916.100, 707.8718
4918.029, 706.5479
4919.957, 707.6656
4921.886, 706.1710
4923.814, 705.8624
4925.743, 703.5253
4927.671, 703.0819
4929.600, 704.1238
4931.528, 701.3340
4933.457, 701.0991
4935.385, 702.6616
4937.313, 703.3918
4939.242, 703.6599
4941.170, 702.4415
4943.099, 697.1034
4945.027, 696.1898
4946.956, 698.4763
4948.884, 702.0281
4950.813, 702.8434
4952.741, 701.7780
4954.669, 699.7630
4956.598, 700.1537
4958.526, 700.4091
4960.455, 697.6661
4962.383, 694.9630
4964.312, 693.1215
4966.240, 692.6780
4968.169, 693.3239
4970.097, 690.4857
4972.026, 691.9447
4973.954, 686.6891
4975.883, 691.5350
4977.811, 688.7806
4979.740, 684.6868
4981.668, 683.9852
4983.597, 687.5615
4985.525, 689.9171
4987.454, 691.8359
4989.382, 692.6432
4991.311, 690.4694
4993.239, 688.5333
4995.167, 684.5550
4997.096, 682.5145
4999.024, 680.9058
5000.953, 681.2794
5002.881, 680.6383
5004.810, 685.1796
5006.738, 680.9965
5008.667, 681.5723
5010.595, 680.9990
5012.523, 678.7787
5014.452, 678.5342
5016.380, 677.1641
5018.309, 676.7855
5020.237, 675.1667
5022.166, 675.6312
5024.094, 675.1100
5026.023, 671.6540
5027.951, 668.3005
5029.880, 667.7109
5031.808, 670.6334
5033.737, 670.9968
5035.665, 671.8729
5037.594, 673.1939
5039.522, 670.7117
5041.451, 666.9940
5043.379, 663.7764
5045.308, 664.6049
5047.236, 664.4575
5049.165, 663.3405
5051.093, 662.7662
5053.021, 662.1655
5054.950, 661.8918
5056.878, 660.5297
5058.807, 661.4703
5060.735, 660.1008
5062.664, 659.1527
5064.592, 660.8139
5066.521, 661.0664
5068.449, 658.3083
5070.377, 655.1520
5072.306, 653.8387
5074.234, 654.4911
5076.163, 655.4329
5078.091, 653.7711
5080.020, 651.2465
5081.948, 652.6650
5083.877, 656.0375
5085.805, 659.2083
5087.734, 660.1495
5089.662, 660.5764
5091.591, 660.4306
5093.519, 658.0899
5095.448, 657.1769
5097.376, 654.0797
5099.305, 650.5368
5101.233, 655.1544
5103.162, 656.6523
5105.090, 653.3452
5107.019, 650.8951
5108.947, 652.3065
5110.875, 649.0764
5112.804, 649.2949
5114.732, 646.8930
5116.661, 646.7400
5118.589, 648.0082
5120.518, 647.5966
5122.446, 648.0861
5124.375, 650.3864
5126.303, 646.1229
5128.231, 645.1466
5130.160, 648.8477
5132.088, 646.3709
5134.017, 644.1885
5135.945, 643.9183
5137.874, 646.9235
5139.802, 642.1191
5141.731, 638.5051
5143.659, 648.5309
5145.588, 647.4999
5147.516, 645.4097
5149.445, 647.7937
5151.373, 650.0560
5153.302, 647.9186
5155.230, 648.6660
5157.159, 643.7015
5159.087, 645.7920
5161.016, 646.9766
5162.944, 644.3441
5164.873, 644.7933
5166.801, 646.7344
5168.729, 648.4437
5170.658, 648.7149
5172.586, 648.2503
5174.515, 647.2718
5176.443, 643.8200
5178.372, 644.0264
5180.300, 645.8347
5182.229, 641.4482
5184.157, 641.4696
5186.085, 644.1879
5188.014, 646.9922
5189.942, 643.8167
5191.871, 642.5222
5193.799, 646.1620
5195.728, 643.6468
5197.656, 645.1605
5199.585, 648.6288
5201.513, 641.5314
5203.442, 646.8925
5205.370, 653.1571
5207.299, 643.8878
5209.227, 641.3001
5211.156, 640.0157
5213.084, 637.6854
5215.013, 637.1941
5216.941, 636.5065
5218.870, 636.0352
5220.798, 636.9629
5222.727, 635.8695
5224.655, 637.6258
5226.583, 637.0229
5228.512, 638.1380
5230.440, 639.6078
5232.369, 640.5685
5234.297, 639.8263
5236.226, 639.1339
5238.154, 639.5129
5240.083, 638.3474
5242.011, 642.0145
5243.939, 637.9611
5245.868, 634.1541
5247.796, 636.3597
5249.725, 636.2278
5251.653, 633.6052
5253.582, 637.4261
5255.510, 638.1869
5257.439, 636.0898
5259.367, 632.3438
5261.296, 630.7413
5263.224, 631.8488
5265.153, 635.4299
5267.081, 641.5578
5269.010, 637.6054
5270.938, 630.3014
5272.867, 636.9647
5274.795, 644.5812
5276.724, 645.8312
5278.652, 637.0212
5280.581, 638.1475
5282.509, 638.4069
5284.438, 636.6321
5286.366, 637.8724
5288.294, 641.0250
5290.223, 644.0382
5292.151, 644.8281
5294.080, 648.5842
5296.008, 651.3332
5297.937, 650.8436
5299.865, 642.6051
5301.793, 641.8610
5303.722, 646.0906
5305.650, 650.3032
5307.579, 649.6596
5309.507, 652.5438
5311.436, 647.3386
5313.364, 653.8040
5315.293, 653.9984
5317.221, 653.3541
5319.150, 662.0538
5321.078, 656.4199
5323.007, 652.6046
5324.935, 657.5013
5326.864, 658.7458
5328.792, 655.1198
5330.721, 650.6786
5332.649, 651.0299
5334.578, 656.2324
5336.506, 658.9733
5338.435, 656.4828
5340.363, 652.0778
5342.292, 649.6522
5344.220, 648.9404
5346.148, 648.6226
5348.077, 649.0684
5350.005, 648.8391
5351.934, 647.3727
5353.862, 644.4730
5355.791, 646.1967
5357.719, 649.0327
5359.647, 647.7418
5361.576, 638.7331
5363.504, 634.8802
5365.433, 639.2111
5367.361, 640.4096
5369.290, 639.1696
5371.218, 636.0563
5373.147, 631.5990
5375.075, 629.0294
5377.004, 631.6006
5378.932, 628.0887
5380.861, 632.5801
5382.789, 628.2260
5384.718, 627.4430
5386.646, 632.5398
5388.575, 629.2304
5390.503, 629.3672
5392.432, 627.1295
5394.360, 626.0301
5396.289, 625.2351
5398.217, 624.7574
5400.146, 623.2423
5402.074, 624.5866
5404.002, 623.7277
5405.931, 622.7960
5407.859, 625.2519
5409.788, 618.2758
5411.716, 615.4891
5413.645, 619.1624
5415.573, 615.5734
5417.501, 616.8400
5419.430, 618.6557
5421.358, 616.0203
5423.287, 617.0289
5425.215, 615.4070
5427.144, 615.8536
5429.072, 613.1096
5431.001, 612.2072
5432.929, 613.1745
5434.858, 614.9988
5436.786, 616.1396
5438.715, 611.8559
5440.643, 608.1580
5442.572, 612.1031
5444.500, 608.9291
5446.429, 608.2227
5448.357, 610.3915
5450.286, 608.8430
5452.214, 605.9633
5454.143, 607.2153
5456.071, 612.7554
5458.000, 605.6801
5459.928, 607.9827
5461.856, 611.0209
5463.785, 602.1268
5465.713, 603.8063
5467.642, 603.3660
5469.570, 600.7197
5471.499, 605.4055
5473.427, 605.6340
5475.355, 602.2080
5477.284, 597.7785
5479.212, 599.9268
5481.141, 600.2630
5483.069, 599.5917
5484.998, 599.3627
5486.926, 591.7289
5488.855, 589.3146
5490.783, 591.2200
5492.712, 590.8910
5494.640, 593.6545
5496.569, 593.7552
5498.497, 589.7819
5500.426, 590.9180
5502.354, 584.1119
5504.283, 587.2021
5506.211, 587.6848
5508.140, 582.8361
5510.068, 583.2436
5511.997, 585.4676
5513.925, 584.6609
5515.854, 579.7486
5517.782, 583.5926
5519.710, 589.6715
5521.639, 583.8206
5523.567, 581.2529
5525.496, 576.7778
5527.424, 571.8345
5529.353, 576.3800
5531.281, 574.4484
5533.209, 572.4708
5535.138, 573.7640
5537.066, 573.9161
5538.995, 573.6483
5540.923, 574.1966
5542.852, 573.9675
5544.780, 573.5180
5546.709, 573.4368
5548.637, 571.3627
5550.566, 566.5245
5552.494, 573.2266
5554.423, 574.9769
5556.351, 571.3681
5558.280, 568.0990
5560.208, 565.0591
5562.137, 566.4601
5564.065, 564.0369
5565.994, 565.1812
5567.922, 562.7495
5569.851, 561.5927
5571.779, 560.8246
5573.708, 559.5805
5575.636, 558.9440
5577.564, 560.3660
5579.493, 562.4548
5581.421, 556.5360
5583.350, 552.8600
5585.278, 551.9481
5587.207, 552.5911
5589.135, 548.4304
5591.063, 549.7057
5592.992, 552.1631
5594.920, 551.4329
5596.849, 549.9073
5598.777, 548.7871
5600.706, 546.0703
5602.634, 541.2687
5604.563, 549.8350
5606.491, 551.5712
5608.420, 546.3131
5610.348, 538.5129
5612.277, 538.6014
5614.205, 541.4872
5616.134, 542.1993
5618.062, 536.2833
5619.991, 534.3474
5621.919, 532.0304
5623.848, 529.9069
5625.776, 530.0836
5627.705, 529.1688
5629.633, 528.9420
5631.562, 529.3134
5633.490, 529.4637
5635.418, 528.4871
5637.347, 526.2385
5639.275, 523.4055
5641.204, 520.3093
5643.132, 519.4597
5645.061, 517.8696
5646.989, 519.1579
5648.917, 516.8771
5650.846, 519.7766
5652.774, 520.2629
5654.703, 517.4763
5656.631, 513.5334
5658.560, 509.8267
5660.488, 505.8224
5662.417, 503.4043
5664.345, 505.1585
5666.274, 506.5929
5668.202, 505.9699
5670.131, 504.0196
5672.059, 501.8506
5673.988, 506.3499
5675.916, 506.0058
5677.845, 501.4132
5679.773, 497.1845
5681.702, 497.4737
5683.630, 497.9120
5685.559, 496.8951
5687.487, 494.1590
5689.416, 490.8632
5691.344, 492.6822
5693.272, 494.0318
5695.201, 489.9384
5697.129, 493.0163
5699.058, 492.2557
5700.986, 489.7251
5702.915, 488.6148
5704.843, 485.1552
5706.771, 486.1169
5708.700, 485.8350
5710.628, 481.9380
5712.557, 481.7619
5714.485, 484.6055
5716.414, 478.2343
5718.342, 476.2165
5720.271, 475.0901
5722.199, 477.8751
5724.128, 475.0171
5726.056, 478.7117
5727.985, 477.8797
5729.913, 476.9639
5731.842, 477.0921
5733.770, 477.1330
5735.699, 474.3324
5737.627, 470.6147
5739.556, 476.0555
5741.484, 471.8602
5743.413, 474.8057
5745.341, 470.1147
5747.270, 471.0537
5749.198, 471.6414
5751.126, 466.8248
5753.055, 467.5595
5754.983, 465.8878
5756.912, 467.0780
5758.840, 466.7246
5760.769, 471.4857
5762.697, 467.3859
5764.625, 466.3743
5766.554, 467.7271
5768.482, 462.1331
5770.411, 463.3875
5772.339, 466.3280
5774.268, 468.0091
5776.196, 467.1261
5778.125, 470.1870
5780.053, 468.6890
5781.982, 466.3887
5783.910, 468.9283
5785.839, 464.4969
5787.767, 464.5547
5789.696, 466.6880
5791.624, 467.5675
5793.553, 466.3396
5795.481, 467.7319
5797.410, 468.9039
5799.338, 467.4589
5801.267, 466.8799
5803.195, 462.2050
5805.124, 462.7648
5807.052, 461.5866
5808.980, 458.6634
5810.909, 459.5237
5812.837, 457.7499
5814.766, 455.7800
5816.694, 455.4942
5818.623, 452.9043
5820.551, 453.2222
5822.479, 454.9603
5824.408, 454.7228
5826.336, 446.3726
5828.265, 447.8329
5830.193, 444.5986
5832.122, 441.4386
5834.050, 446.0796
5835.979, 439.4814
5837.907, 440.5551
5839.836, 442.3968
5841.764, 440.8785
5843.693, 442.1572
5845.621, 442.0031
5847.550, 438.4246
5849.478, 434.5448
5851.407, 434.6297
5853.335, 434.6755
5855.264, 434.4711
5857.192, 434.6641
5859.121, 435.0018
5861.049, 434.5742
5862.978, 433.1274
5864.906, 433.1301
5866.834, 432.0779
5868.763, 428.0092
5870.691, 430.7922
5872.620, 430.2692
5874.548, 430.3470
5876.477, 433.3602
5878.405, 431.6683
5880.333, 429.2166
5882.262, 430.3186
5884.190, 427.4681
5886.119, 426.4099
5888.047, 429.3969
5889.976, 430.5042
5891.904, 430.4438
5893.833, 430.9891
5895.761, 432.7057
5897.690, 435.1490
5899.618, 432.2076
5901.547, 428.5274
5903.475, 432.1519
5905.404, 429.9435
5907.332, 428.6011
5909.261, 429.3781
5911.189, 431.3368
5913.118, 432.4793
5915.046, 430.1081
5916.975, 429.3588
5918.903, 428.7672
5920.832, 425.7628
5922.760, 429.0191
5924.688, 430.2596
5926.617, 428.8715
5928.545, 427.2202
5930.474, 430.3167
5932.402, 429.0600
5934.331, 428.8277
5936.259, 428.6595
5938.188, 427.3437
5940.116, 427.1691
5942.044, 428.5516
5943.973, 428.0440
5945.901, 425.7397
5947.830, 423.4579
5949.758, 424.0539
5951.687, 422.2139
5953.615, 423.3196
5955.544, 425.8184
5957.472, 421.5376
5959.401, 419.6989
5961.329, 419.9920
5963.258, 422.6309
5965.186, 427.1889
5967.115, 431.7490
5969.043, 433.9230
5970.972, 431.5019
5972.900, 429.0786
5974.829, 431.0499
5976.757, 435.2441
5978.686, 435.1528
5980.614, 443.7976
5982.542, 440.7624
5984.471, 450.8189
5986.399, 437.0350
5988.328, 429.9991
5990.256, 426.5618
5992.185, 424.9149
5994.113, 422.2743
5996.042, 422.2619
5997.970, 421.2784
5999.898, 421.9232
6001.827, 422.3061
6003.755, 423.0820
6005.684, 423.7901
6007.612, 424.1926
6009.541, 425.5970
6011.469, 425.1073
6013.398, 426.3117
6015.326, 426.8148
6017.255, 427.9443
6019.183, 429.7876
6021.112, 429.6345
6023.040, 431.4812
6024.969, 432.0412
6026.897, 438.1460
6028.826, 441.9452
6030.754, 439.1888
6032.683, 442.6562
6034.611, 442.2223
6036.540, 442.0267
6038.468, 443.4513
6040.396, 445.4221
6042.325, 446.1208
6044.253, 445.4809
6046.182, 449.5631
6048.110, 450.1248
6050.039, 453.3717
6051.967, 454.5487
6053.896, 456.5606
6055.824, 457.5731
6057.752, 457.9371
6059.681, 459.2176
6061.609, 458.0218
6063.538, 457.6713
6065.466, 457.5860
6067.395, 459.7307
6069.323, 465.1020
6071.252, 467.5856
6073.180, 468.6115
6075.109, 465.5415
6077.037, 463.1013
6078.966, 465.2176
6080.894, 466.8434
6082.823, 474.6633
6084.751, 472.7939
6086.680, 471.0547
6088.608, 476.4052
6090.537, 473.1029
6092.465, 476.3273
6094.394, 479.2698
6096.322, 482.0116
6098.250, 484.4651
6100.179, 482.9305
6102.107, 482.3030
6104.036, 483.4813
6105.964, 486.5978
6107.893, 489.9407
6109.821, 490.6324
6111.750, 489.2328
6113.678, 488.6758
6115.606, 492.6480
6117.535, 497.1058
6119.463, 495.5675
6121.392, 497.3195
6123.320, 497.6404
6125.249, 502.6561
6127.177, 506.9690
6129.106, 504.3290
6131.034, 506.0565
6132.963, 512.4929
6134.891, 520.0556
6136.820, 521.8661
6138.748, 519.2090
6140.677, 527.3522
6142.605, 530.3638
6144.534, 535.5931
6146.462, 537.7157
6148.391, 537.9114
6150.319, 544.4343
6152.248, 547.6426
6154.176, 554.6137
6156.104, 561.2910
6158.033, 562.0071
6159.961, 576.2507
6161.890, 583.8253
6163.818, 591.6444
6165.747, 595.9163
6167.675, 602.2590
6169.604, 613.6862
6171.532, 625.0557
6173.460, 639.5341
6175.389, 649.0529
6177.317, 658.9688
6179.246, 669.5387
6181.174, 683.3876
6183.103, 697.6324
6185.031, 713.6381
6186.960, 729.2845
6188.888, 746.2177
6190.817, 763.7250
6192.745, 780.1200
6194.674, 798.6075
6196.602, 810.7128
6198.531, 825.3071
6200.459, 845.0248
6202.388, 866.2433
6204.316, 891.3768
6206.245, 907.0653
6208.173, 921.6843
6210.102, 944.1561
6212.030, 970.9779
6213.958, 981.9289
6215.887, 1009.095
6217.815, 1026.635
6219.744, 1039.489
6221.672, 1055.733
6223.601, 1077.210
6225.529, 1094.465
6227.458, 1107.898
6229.386, 1121.053
6231.314, 1128.491
6233.243, 1139.961
6235.171, 1147.473
6237.100, 1147.419
6239.028, 1161.139
6240.957, 1166.241
6242.885, 1171.727
6244.814, 1186.226
6246.742, 1190.120
6248.671, 1200.840
6250.599, 1205.669
6252.528, 1219.973
6254.456, 1230.998
6256.385, 1234.136
6258.313, 1247.584
6260.242, 1255.879
6262.170, 1269.613
6264.099, 1283.983
6266.027, 1290.779
6267.956, 1290.762
6269.884, 1305.603
6271.813, 1324.165
6273.741, 1342.150
6275.669, 1359.060
6277.598, 1370.433
6279.526, 1373.782
6281.455, 1385.643
6283.383, 1412.277
6285.312, 1433.963
6287.240, 1451.093
6289.168, 1468.529
6291.097, 1488.163
6293.025, 1509.465
6294.954, 1524.315
6296.882, 1547.697
6298.811, 1572.190
6300.739, 1591.801
6302.668, 1617.396
6304.596, 1640.620
6306.525, 1665.173
6308.453, 1688.862
6310.382, 1710.935
6312.310, 1734.238
6314.239, 1773.685
6316.167, 1782.921
6318.096, 1818.726
6320.024, 1849.553
6321.953, 1872.346
6323.881, 1894.040
6325.810, 1919.715
6327.738, 1943.264
6329.667, 1973.454
6331.595, 1993.681
6333.523, 2020.180
6335.452, 2046.878
6337.380, 2067.780
6339.309, 2091.777
6341.237, 2109.722
6343.166, 2132.125
6345.094, 2146.745
6347.022, 2160.323
6348.951, 2180.012
6350.879, 2191.398
6352.808, 2214.370
6354.736, 2219.121
6356.665, 2246.230
6358.593, 2264.870
6360.522, 2264.477
6362.450, 2278.022
6364.379, 2290.958
6366.307, 2313.259
6368.236, 2298.695
6370.164, 2310.069
6372.093, 2333.325
6374.021, 2306.559
6375.950, 2331.864
6377.878, 2302.802
6379.807, 2297.356
6381.735, 2295.145
6383.664, 2285.420
6385.592, 2275.478
6387.521, 2269.437
6389.449, 2260.628
6391.377, 2252.022
6393.306, 2248.426
6395.234, 2235.247
6397.163, 2233.754
6399.091, 2227.106
6401.020, 2221.722
6402.948, 2211.387
6404.876, 2206.434
6406.805, 2198.397
6408.733, 2185.773
6410.662, 2173.207
6412.590, 2164.651
6414.519, 2159.277
6416.447, 2145.298
6418.376, 2148.683
6420.304, 2153.829
6422.233, 2147.498
6424.161, 2134.242
6426.090, 2129.465
6428.018, 2129.824
6429.947, 2123.324
6431.875, 2113.703
6433.804, 2104.851
6435.732, 2101.735
6437.661, 2106.454
6439.589, 2108.446
6441.518, 2092.109
6443.446, 2086.286
6445.375, 2080.494
6447.303, 2069.346
6449.231, 2056.699
6451.160, 2049.410
6453.088, 2062.744
6455.017, 2050.084
6456.945, 2043.381
6458.874, 2033.777
6460.802, 2023.322
6462.730, 2018.676
6464.659, 2016.948
6466.587, 2009.740
6468.516, 2004.010
6470.444, 1994.514
6472.373, 1976.524
6474.301, 1961.861
6476.230, 1956.349
6478.158, 1947.314
6480.087, 1924.619
6482.015, 1922.385
6483.944, 1920.908
6485.872, 1911.472
6487.801, 1885.552
6489.729, 1853.122
6491.658, 1839.632
6493.586, 1830.531
6495.515, 1811.382
6497.443, 1798.965
6499.372, 1781.744
6501.300, 1768.317
6503.229, 1757.185
6505.157, 1735.936
6507.085, 1720.600
6509.014, 1708.420
6510.942, 1681.656
6512.871, 1670.307
6514.799, 1652.747
6516.728, 1626.914
6518.656, 1610.080
6520.584, 1595.349
6522.513, 1586.780
6524.441, 1575.475
6526.370, 1559.855
6528.298, 1534.139
6530.227, 1515.080
6532.155, 1502.788
6534.084, 1472.785
6536.012, 1457.832
6537.941, 1444.223
6539.869, 1435.439
6541.798, 1422.268
6543.726, 1406.804
6545.655, 1391.852
6547.583, 1376.818
6549.512, 1361.411
6551.440, 1336.098
6553.369, 1328.605
6555.297, 1310.925
6557.226, 1298.438
6559.154, 1292.521
6561.083, 1282.536
6563.011, 1264.588
6564.939, 1247.202
6566.868, 1233.176
6568.796, 1224.539
6570.725, 1212.043
6572.653, 1202.012
6574.582, 1194.772
6576.510, 1186.390
6578.438, 1175.721
6580.367, 1159.352
6582.295, 1145.912
6584.224, 1139.855
6586.152, 1129.339
6588.081, 1119.619
6590.009, 1117.891
6591.938, 1117.242
6593.866, 1102.806
6595.795, 1081.826
6597.723, 1079.888
6599.652, 1065.560
6601.580, 1064.278
6603.509, 1056.591
6605.437, 1043.714
6607.366, 1039.558
6609.294, 1039.519
6611.223, 1023.563
6613.151, 1028.448
6615.080, 1024.037
6617.008, 1017.510
6618.937, 1015.644
6620.865, 1012.026
6622.793, 1005.841
6624.722, 1002.252
6626.650, 993.8597
6628.579, 990.8432
6630.507, 985.5349
##END=



