##NAMES=Mackinawite
##RRUFFID=R070302
##IDEAL CHEMISTRY=FeS
##LOCALITY=Wannaway Prospect, near Kalgoorlie, Western Australia, Australia
##OWNER=RRUFF
##SOURCE=James Shigley
##DESCRIPTION=Bronze metallic massive, drill core
##STATUS=The identification of this mineral is not yet confirmed
##URL=https://www.rruff.net/odr/rruff_sample/R070302
##FILETYPE=Raman Processed
##RAMAN WAVELENGTH=785

166.6855, 289.9975
168.6140, 268.8724
170.5425, 247.6922
172.4709, 228.5397
174.3994, 211.8121
176.3279, 197.7865
178.2563, 186.9357
180.1848, 179.1809
182.1133, 172.6725
184.0417, 167.5506
185.9702, 163.3926
187.8987, 161.6187
189.8271, 158.9134
191.7556, 152.8690
193.6841, 144.9737
195.6125, 137.4247
197.5410, 129.9755
199.4695, 124.5126
201.3979, 121.8822
203.3264, 119.3488
205.2549, 116.1757
207.1833, 112.6684
209.1118, 108.9689
211.0403, 105.1246
212.9688, 101.3008
214.8972, 97.38466
216.8257, 93.85902
218.7542, 90.36861
220.6826, 87.97145
222.6111, 88.37345
224.5396, 89.18304
226.4680, 87.86728
228.3965, 84.57598
230.3250, 81.96593
232.2534, 80.24558
234.1819, 78.17878
236.1104, 74.86677
238.0388, 72.26324
239.9673, 71.69356
241.8958, 72.08086
243.8242, 71.79781
245.7527, 70.84766
247.6812, 71.47816
249.6096, 74.35319
251.5381, 76.18819
253.4666, 76.02724
255.3950, 74.71996
257.3235, 72.07034
259.2520, 68.96292
261.1804, 66.53238
263.1089, 64.84250
265.0374, 65.00115
266.9658, 67.70865
268.8943, 69.64898
270.8228, 69.92378
272.7512, 69.07098
274.6797, 66.75190
276.6082, 63.82255
278.5366, 61.39378
280.4651, 59.53464
282.3936, 59.04328
284.3220, 60.27736
286.2505, 61.41283
288.1790, 61.80146
290.1074, 62.16218
292.0359, 63.00389
293.9644, 63.89103
295.8928, 63.86861
297.8213, 63.16197
299.7498, 64.07118
301.6782, 67.14861
303.6067, 68.76227
305.5352, 67.18811
307.4636, 65.20015
309.3921, 63.38400
311.3206, 62.05425
313.2490, 61.84359
315.1775, 62.46865
317.1060, 62.65591
319.0344, 62.40225
320.9629, 61.71053
322.8914, 59.94130
324.8198, 58.96238
326.7483, 59.93215
328.6768, 61.23903
330.6052, 61.35078
332.5337, 60.97330
334.4622, 62.09423
336.3906, 64.53432
338.3191, 65.82351
340.2476, 65.04610
342.1760, 64.93959
344.1045, 67.31482
346.0330, 69.09629
347.9614, 68.08647
349.8899, 66.15655
351.8184, 65.70929
353.7468, 66.50665
355.6753, 68.11841
357.6038, 70.78054
359.5322, 72.30166
361.4607, 71.60842
363.3892, 70.67673
365.3176, 69.38003
367.2461, 68.59658
369.1746, 70.15816
371.1030, 72.12470
373.0315, 69.88048
374.9600, 64.30034
376.8884, 63.12345
378.8169, 69.57590
380.7454, 72.54974
382.6738, 68.06433
384.6023, 63.06246
386.5308, 58.83303
388.4592, 55.98316
390.3877, 56.55546
392.3162, 58.39084
394.2446, 56.72155
396.1731, 51.55327
398.1016, 48.18090
400.0300, 47.48401
401.9585, 47.83966
403.8870, 50.22336
405.8154, 51.99665
407.7439, 51.85222
409.6724, 50.88121
411.6008, 49.83601
413.5293, 48.81762
415.4578, 48.01647
417.3862, 47.43813
419.3147, 47.11347
421.2432, 47.52422
423.1716, 47.24252
425.1001, 45.47883
427.0286, 43.96125
428.9570, 43.79752
430.8855, 43.66665
432.8140, 41.94287
434.7424, 39.74818
436.6709, 39.18935
438.5994, 40.25521
440.5278, 40.65174
442.4563, 39.89463
444.3848, 39.34392
446.3132, 39.26013
448.2417, 39.04991
450.1702, 37.95992
452.0986, 37.35414
454.0271, 39.08322
455.9556, 41.12380
457.8840, 40.54483
459.8125, 37.91836
461.7410, 37.00637
463.6694, 38.45800
465.5979, 39.35767
467.5264, 39.87866
469.4548, 39.55354
471.3833, 37.18734
473.3118, 35.63518
475.2402, 36.98669
477.1687, 38.83225
479.0972, 39.07319
481.0256, 38.60079
482.9541, 39.47762
484.8826, 41.62337
486.8110, 41.85819
488.7395, 38.97778
490.6680, 37.56015
492.5964, 38.13647
494.5249, 39.02999
496.4534, 40.44082
498.3818, 41.14433
500.3103, 40.06959
502.2388, 38.38604
504.1672, 36.70661
506.0957, 35.24572
508.0242, 34.51753
509.9526, 34.50017
511.8811, 34.52827
513.8096, 34.52946
515.7380, 34.98886
517.6665, 36.22947
519.5950, 37.02165
521.5234, 36.84749
523.4519, 36.54324
525.3804, 36.50922
527.3088, 36.51799
529.2373, 36.53000
531.1658, 36.41267
533.0942, 35.64887
535.0227, 34.49371
536.9512, 34.67947
538.8796, 36.38834
540.8081, 37.14479
542.7366, 36.67833
544.6650, 36.27773
546.5935, 36.14706
548.5220, 36.20068
550.4504, 36.49192
552.3789, 36.84829
554.3074, 37.20482
556.2358, 37.56205
558.1643, 38.02060
560.0928, 38.43718
562.0212, 38.58907
563.9497, 38.43457
565.8782, 37.45678
567.8066, 35.62597
569.7351, 34.61849
571.6636, 34.64554
573.5920, 35.21289
575.5205, 36.56069
577.4490, 37.66439
579.3774, 37.68220
581.3059, 37.96889
583.2344, 40.14299
585.1628, 41.91665
587.0913, 40.27182
589.0198, 37.21830
590.9482, 36.73079
592.8767, 38.09631
594.8052, 37.89903
596.7336, 36.29430
598.6621, 35.52249
600.5906, 35.80058
602.5190, 36.48838
604.4475, 37.50562
606.3760, 38.85166
608.3044, 42.00356
610.2329, 43.38633
612.1614, 40.27112
614.0898, 36.91939
616.0183, 36.11506
617.9468, 36.48279
619.8752, 36.74100
621.8037, 36.92906
623.7322, 37.13958
625.6606, 37.34845
627.5891, 37.50960
629.5176, 37.60921
631.4460, 37.36800
633.3745, 36.63980
635.3030, 36.44090
637.2314, 37.23618
639.1599, 37.83444
641.0884, 38.39224
643.0168, 38.16908
644.9453, 35.37367
646.8738, 33.78677
648.8022, 36.99979
650.7307, 40.71708
652.6592, 40.69202
654.5876, 39.16529
656.5161, 39.66248
658.4446, 40.86360
660.3730, 39.34520
662.3015, 35.93816
664.2300, 35.25940
666.1584, 37.57833
668.0869, 39.10858
670.0154, 39.19817
671.9438, 39.94113
673.8723, 42.31015
675.8008, 43.96772
677.7292, 44.73302
679.6577, 44.71201
681.5862, 43.36603
683.5146, 42.01370
685.4431, 41.42093
687.3716, 40.87011
689.3000, 39.38723
691.2285, 38.10101
693.1570, 38.76416
695.0854, 39.98474
697.0139, 39.37518
698.9424, 37.72486
700.8708, 37.59813
702.7993, 38.81570
704.7278, 38.83249
706.6563, 37.37444
708.5847, 36.41161
710.5132, 35.84820
712.4417, 36.08768
714.3701, 37.41999
716.2986, 38.97821
718.2271, 41.28991
720.1555, 42.76343
722.0840, 42.76066
724.0125, 42.38585
725.9409, 41.84776
727.8694, 41.32322
729.7979, 40.73695
731.7263, 40.41283
733.6548, 40.96091
735.5833, 41.52303
737.5117, 41.13803
739.4402, 40.38822
741.3687, 40.03997
743.2971, 40.02337
745.2256, 40.28445
747.1541, 40.73144
749.0825, 40.89778
751.0110, 40.78517
752.9395, 40.30592
754.8679, 39.22203
756.7964, 39.85986
758.7249, 43.04710
760.6533, 43.66106
762.5818, 40.59187
764.5103, 38.51660
766.4387, 38.02402
768.3672, 38.78893
770.2957, 41.72945
772.2241, 43.09850
774.1526, 40.59515
776.0811, 38.72542
778.0095, 40.24004
779.9380, 41.46089
781.8665, 39.37841
783.7949, 37.78116
785.7234, 39.98979
787.6519, 42.30956
789.5803, 41.52722
791.5088, 39.48194
793.4373, 37.37532
795.3657, 35.95699
797.2942, 37.25056
799.2227, 39.59563
801.1511, 38.83632
803.0796, 36.35503
805.0081, 36.71510
806.9365, 39.33228
808.8650, 41.34828
810.7935, 42.73397
812.7219, 43.16356
814.6504, 42.67733
816.5789, 42.05205
818.5073, 41.31917
820.4358, 40.46060
822.3643, 39.42928
824.2927, 39.29477
826.2212, 40.33998
828.1497, 40.91661
830.0781, 40.57720
832.0066, 40.81020
833.9351, 42.34639
835.8635, 42.94968
837.7920, 41.55443
839.7205, 40.51332
841.6489, 40.86142
843.5774, 40.86976
845.5059, 39.19572
847.4343, 38.45200
849.3628, 40.48220
851.2913, 42.11992
853.2197, 41.71360
855.1482, 41.02896
857.0767, 40.71757
859.0051, 40.78030
860.9336, 41.44481
862.8621, 42.20632
864.7905, 43.18124
866.7190, 43.51059
868.6475, 40.78835
870.5759, 38.76253
872.5044, 43.40630
874.4329, 48.86797
876.3613, 47.59600
878.2898, 43.50490
880.2183, 40.66840
882.1467, 39.37394
884.0752, 41.56515
886.0037, 44.59148
887.9321, 42.82038
889.8606, 39.20250
891.7891, 39.52930
893.7175, 42.29421
895.6460, 44.89882
897.5745, 46.79253
899.5029, 46.14249
901.4314, 43.74478
903.3599, 41.87210
905.2883, 40.67703
907.2168, 41.06633
909.1453, 42.56023
911.0737, 41.96523
913.0022, 39.71634
914.9307, 39.99214
916.8591, 42.66027
918.7876, 45.04886
920.7161, 47.07515
922.6445, 46.37334
924.5730, 42.76521
926.5015, 41.80416
928.4299, 43.87056
930.3584, 44.26851
932.2869, 42.70257
934.2153, 41.79924
936.1438, 41.68934
938.0723, 41.23396
940.0007, 40.13451
941.9292, 40.71793
943.8577, 43.74098
945.7861, 44.27096
947.7146, 41.37011
949.6431, 40.59074
951.5715, 42.70216
953.5000, 43.37359
955.4285, 42.07509
957.3569, 41.67071
959.2854, 42.52490
961.2139, 42.68749
963.1423, 41.81790
965.0708, 41.71476
966.9993, 42.59564
968.9277, 43.18043
970.8562, 43.19774
972.7847, 44.48099
974.7131, 47.66984
976.6416, 48.53273
978.5701, 46.40981
980.4985, 45.41329
982.4270, 45.85858
984.3555, 46.10933
986.2839, 46.05955
988.2124, 46.24141
990.1409, 46.71908
992.0693, 47.07837
993.9978, 47.34934
995.9263, 46.61626
997.8547, 44.67569
999.7832, 44.83473
1001.712, 47.38583
1003.640, 47.84275
1005.569, 45.96492
1007.497, 45.31476
1009.426, 46.01907
1011.354, 46.20916
1013.282, 45.85097
1015.211, 46.29544
1017.139, 47.51049
1019.068, 47.92339
1020.996, 47.55210
1022.925, 46.98774
1024.853, 46.35071
1026.782, 47.13171
1028.710, 48.97458
1030.639, 48.66528
1032.567, 46.64205
1034.496, 45.50325
1036.424, 45.28905
1038.353, 46.69144
1040.281, 49.02583
1042.209, 49.92216
1044.138, 49.37724
1046.066, 45.93835
1047.995, 41.68516
1049.923, 43.10128
1051.852, 47.62587
1053.780, 50.08048
1055.709, 50.81642
1057.637, 49.58781
1059.566, 47.86748
1061.494, 48.83591
1063.423, 50.34946
1065.351, 48.32539
1067.280, 45.87892
1069.208, 47.77263
1071.136, 50.59747
1073.065, 50.15720
1074.993, 49.25287
1076.922, 51.40604
1078.850, 53.23139
1080.779, 51.14032
1082.707, 48.68523
1084.636, 48.41494
1086.564, 48.58062
1088.493, 48.08266
1090.421, 47.80083
1092.350, 48.45057
1094.278, 48.97756
1096.207, 48.71186
1098.135, 48.64906
1100.063, 49.53355
1101.992, 49.91542
1103.920, 49.06522
1105.849, 48.37502
1107.777, 47.90290
1109.706, 47.94328
1111.634, 48.21986
1113.563, 49.77343
1115.491, 54.33192
1117.420, 55.41182
1119.348, 51.53703
1121.277, 49.21986
1123.205, 48.77407
1125.134, 48.45402
1127.062, 48.26073
1128.990, 47.91091
1130.919, 47.47335
1132.847, 48.35033
1134.776, 50.19564
1136.704, 51.13098
1138.633, 51.37353
1140.561, 51.74848
1142.490, 51.84812
1144.418, 50.42422
1146.347, 48.52359
1148.275, 47.38120
1150.204, 46.99981
1152.132, 47.84784
1154.061, 48.87424
1155.989, 49.46535
1157.917, 49.60467
1159.846, 48.93361
1161.774, 48.40408
1163.703, 47.94300
1165.631, 49.16243
1167.560, 54.09560
1169.488, 56.60899
1171.417, 54.14159
1173.345, 51.87206
1175.274, 50.73415
1177.202, 50.94383
1179.131, 52.99530
1181.059, 52.19997
1182.988, 47.77119
1184.916, 47.22628
1186.844, 50.69684
1188.773, 53.45537
1190.701, 55.33930
1192.630, 54.73345
1194.558, 52.66053
1196.487, 52.39878
1198.415, 52.89730
1200.344, 51.89936
1202.272, 50.64569
1204.201, 50.71629
1206.129, 51.38959
1208.058, 52.48638
1209.986, 53.24929
1211.915, 52.65999
1213.843, 52.51577
1215.771, 53.89987
1217.700, 54.95447
1219.628, 55.18410
1221.557, 55.15318
1223.485, 55.04218
1225.414, 53.67171
1227.342, 50.72300
1229.271, 52.12311
1231.199, 57.78848
1233.128, 59.75700
1235.056, 58.33841
1236.985, 56.71949
1238.913, 55.15929
1240.842, 53.75365
1242.770, 53.06960
1244.698, 54.47152
1246.627, 56.65275
1248.555, 59.45398
1250.484, 60.56163
1252.412, 56.81082
1254.341, 53.08667
1256.269, 50.68195
1258.198, 50.72422
1260.126, 55.92592
1262.055, 58.55655
1263.983, 56.98391
1265.912, 55.87888
1267.840, 55.53873
1269.769, 56.87673
1271.697, 59.47021
1273.625, 58.07010
1275.554, 54.39014
1277.482, 54.97372
1279.411, 57.48307
1281.339, 57.85442
1283.268, 57.45353
1285.196, 57.65804
1287.125, 57.84106
1289.053, 57.62775
1290.982, 57.14102
1292.910, 55.68081
1294.839, 55.37908
1296.767, 57.33372
1298.696, 59.34932
1300.624, 61.83866
1302.552, 62.36680
1304.481, 60.82774
1306.409, 58.81488
1308.338, 56.84103
1310.266, 58.61357
1312.195, 61.90543
1314.123, 62.62629
1316.052, 61.42493
1317.980, 56.99437
1319.909, 54.21592
1321.837, 56.63625
1323.766, 60.78526
1325.694, 67.24096
1327.623, 69.09860
1329.551, 63.25177
1331.479, 58.74342
1333.408, 56.32153
1335.336, 57.45072
1337.265, 61.48408
1339.193, 61.46912
1341.122, 59.09997
1343.050, 59.21165
1344.979, 59.63163
1346.907, 56.61802
1348.836, 53.82668
1350.764, 53.36267
1352.693, 54.56109
1354.621, 57.76590
1356.550, 60.75405
1358.478, 63.30549
1360.406, 62.82685
1362.335, 58.96705
1364.263, 58.72370
1366.192, 61.19648
1368.120, 60.25712
1370.049, 57.90459
1371.977, 58.25355
1373.906, 59.61417
1375.834, 60.75242
1377.763, 61.29622
1379.691, 61.14131
1381.620, 59.96314
1383.548, 57.11599
1385.477, 56.28897
1387.405, 58.04101
1389.333, 58.47982
1391.262, 57.76756
1393.190, 59.28571
1395.119, 61.71237
1397.047, 61.95748
1398.976, 61.30467
1400.904, 60.85282
1402.833, 60.71938
1404.761, 61.94499
1406.690, 61.47469
1408.618, 57.56072
1410.547, 56.11900
1412.475, 57.84027
1414.404, 58.65532
1416.332, 58.49395
1418.260, 58.48890
1420.189, 58.08144
1422.117, 54.82595
1424.046, 52.46793
1425.974, 56.29587
1427.903, 59.46276
1429.831, 57.47164
1431.760, 56.42719
1433.688, 57.64769
1435.617, 58.61432
1437.545, 59.20382
1439.474, 59.41541
1441.402, 59.24838
1443.331, 58.81194
1445.259, 57.84907
1447.188, 55.08450
1449.116, 53.21451
1451.044, 54.96024
1452.973, 56.07018
1454.901, 54.30685
1456.830, 54.36910
1458.758, 56.91344
1460.687, 56.47483
1462.615, 54.08216
1464.544, 54.35371
1466.472, 56.03162
1468.401, 58.60824
1470.329, 59.66486
1472.258, 56.25193
1474.186, 54.36848
1476.115, 56.66711
1478.043, 57.95834
1479.971, 57.61295
1481.900, 58.99630
1483.828, 61.50159
1485.757, 63.89235
1487.685, 64.48663
1489.614, 58.19628
1491.542, 54.02999
1493.471, 57.50719
1495.399, 61.46487
1497.328, 64.77104
1499.256, 62.36389
1501.185, 54.31398
1503.113, 55.94683
1505.042, 62.71593
1506.970, 63.50811
1508.898, 61.88101
1510.827, 60.91887
1512.755, 59.35275
1514.684, 56.26448
1516.612, 54.49119
1518.541, 54.51012
1520.469, 58.02304
1522.398, 63.31895
1524.326, 61.84477
1526.255, 57.32743
1528.183, 53.78662
1530.112, 52.21930
1532.040, 54.47620
1533.969, 55.02456
1535.897, 52.33895
1537.825, 53.73220
1539.754, 58.75498
1541.682, 59.02251
1543.611, 56.37473
1545.539, 52.51504
1547.468, 50.45859
1549.396, 54.33112
1551.325, 57.26135
1553.253, 57.44220
1555.182, 57.76231
1557.110, 58.39666
1559.039, 58.25372
1560.967, 57.54548
1562.896, 56.65855
1564.824, 55.70044
1566.752, 54.10811
1568.681, 53.85868
1570.609, 56.25441
1572.538, 57.08179
1574.466, 56.18576
1576.395, 55.22307
1578.323, 54.25947
1580.252, 52.85294
1582.180, 52.11543
1584.109, 52.78755
1586.037, 54.83646
1587.966, 60.18652
1589.894, 60.07009
1591.823, 54.85900
1593.751, 53.78555
1595.679, 54.78242
1597.608, 53.71217
1599.536, 53.11048
1601.465, 55.97980
1603.393, 57.08242
1605.322, 53.68238
1607.250, 53.32852
1609.179, 55.60463
1611.107, 58.64818
1613.036, 60.42232
1614.964, 57.20132
1616.893, 54.07026
1618.821, 53.24291
1620.750, 54.20451
1622.678, 57.34805
1624.606, 57.44005
1626.535, 55.80746
1628.463, 56.82355
1630.392, 58.51620
1632.320, 60.10682
1634.249, 59.45400
1636.177, 55.17425
1638.106, 51.83150
1640.034, 50.07846
1641.963, 54.98668
1643.891, 61.43774
1645.820, 61.09832
1647.748, 58.26202
1649.677, 53.75799
1651.605, 52.43769
1653.533, 55.27460
1655.462, 56.08571
1657.390, 55.56785
1659.319, 56.03284
1661.247, 56.45004
1663.176, 56.42709
1665.104, 54.51044
1667.033, 49.99370
1668.961, 50.69395
1670.890, 55.05617
1672.818, 52.55524
1674.747, 48.57405
1676.675, 48.97203
1678.604, 51.28910
1680.532, 55.17789
1682.460, 58.11909
1684.389, 59.59889
1686.317, 57.18498
1688.246, 54.03308
1690.174, 55.76243
1692.103, 56.60733
1694.031, 53.17219
1695.960, 51.51073
1697.888, 52.08635
1699.817, 54.03992
1701.745, 55.79664
1703.674, 53.76040
1705.602, 52.36603
1707.531, 55.79911
1709.459, 56.16956
1711.387, 53.05278
1713.316, 52.62445
1715.244, 53.39342
1717.173, 52.46702
1719.101, 50.89920
1721.030, 47.80439
1722.958, 48.65208
1724.887, 53.94163
1726.815, 53.54957
1728.744, 50.49773
1730.672, 50.47715
1732.601, 51.20028
1734.529, 51.57250
1736.458, 51.85405
1738.386, 52.11429
1740.314, 50.54845
1742.243, 48.79668
1744.171, 50.27943
1746.100, 51.71848
1748.028, 51.11102
1749.957, 51.25507
1751.885, 52.32998
1753.814, 51.51007
1755.742, 50.00241
1757.671, 49.50079
1759.599, 49.32896
1761.528, 49.63171
1763.456, 47.64066
1765.385, 43.94635
1767.313, 45.74964
1769.241, 48.52150
1771.170, 46.54320
1773.098, 45.43252
1775.027, 47.01486
1776.955, 49.70740
1778.884, 52.39268
1780.812, 50.04882
1782.741, 47.51018
1784.669, 48.94867
1786.598, 49.72667
1788.526, 48.83852
1790.455, 49.19810
1792.383, 49.76922
1794.312, 46.56439
1796.240, 45.32180
1798.168, 49.51093
1800.097, 51.99086
1802.025, 51.76447
1803.954, 48.83603
1805.882, 45.86539
1807.811, 47.27697
1809.739, 48.08935
1811.668, 46.86283
1813.596, 45.61753
1815.525, 44.79253
1817.453, 44.87975
1819.382, 45.87118
1821.310, 48.29074
1823.239, 50.65066
1825.167, 52.65463
1827.095, 52.21749
1829.024, 50.08861
1830.952, 45.34704
1832.881, 43.37405
1834.809, 46.96814
1836.738, 47.67436
1838.666, 46.48920
1840.595, 49.15659
1842.523, 51.50613
1844.452, 49.55330
1846.380, 47.91846
1848.309, 47.10563
1850.237, 48.81865
1852.166, 50.33981
1854.094, 47.30047
1856.022, 44.50904
1857.951, 43.21035
1859.879, 44.20467
1861.808, 46.21127
1863.736, 43.62347
1865.665, 41.44761
1867.593, 44.13573
1869.522, 44.23391
1871.450, 41.53815
1873.379, 41.12476
1875.307, 42.89213
1877.236, 48.18109
1879.164, 50.09550
1881.093, 46.41341
1883.021, 45.72619
1884.949, 45.76852
1886.878, 41.38935
1888.806, 39.62484
1890.735, 43.70015
1892.663, 45.58399
1894.592, 45.41053
1896.520, 44.38560
1898.449, 42.79062
1900.377, 40.00286
1902.306, 38.05870
1904.234, 38.26497
1906.163, 43.11271
1908.091, 46.39914
1910.020, 42.66627
1911.948, 41.78765
1913.876, 45.20971
1915.805, 43.96698
1917.733, 41.46867
1919.662, 43.03422
1921.590, 42.87127
1923.519, 40.09777
1925.447, 41.15219
1927.376, 43.28198
1929.304, 42.17569
1931.233, 41.25702
1933.161, 41.22233
1935.090, 41.45572
1937.018, 41.46030
1938.947, 39.13192
1940.875, 37.84623
1942.803, 39.32693
1944.732, 40.26690
1946.660, 40.35526
1948.589, 39.19887
1950.517, 38.27362
1952.446, 38.38620
1954.374, 38.59002
1956.303, 39.09212
1958.231, 39.57337
1960.160, 39.26651
1962.088, 37.71357
1964.017, 39.36813
1965.945, 42.37851
1967.874, 40.62324
1969.802, 38.25383
1971.730, 38.73321
1973.659, 37.60158
1975.587, 35.14474
1977.516, 36.73449
1979.444, 38.27622
1981.373, 35.16335
1983.301, 35.57778
1985.230, 39.15293
1987.158, 37.36408
1989.087, 35.78366
1991.015, 39.40889
1992.944, 39.11048
1994.872, 35.07644
1996.801, 32.34875
1998.729, 32.46511
2000.657, 36.09702
2002.586, 36.93401
2004.514, 36.13632
2006.443, 34.38852
2008.371, 32.96500
2010.300, 34.08390
2012.228, 34.50755
2014.157, 33.95703
2016.085, 33.54583
2018.014, 32.83843
2019.942, 31.56077
2021.871, 31.37648
2023.799, 32.17481
2025.728, 32.96906
2027.656, 33.82774
2029.584, 35.14775
2031.513, 34.59287
2033.441, 33.08080
2035.370, 32.09267
2037.298, 32.42738
2039.227, 34.34656
2041.155, 32.27029
2043.084, 29.84988
2045.012, 33.74863
2046.941, 37.07734
2048.869, 38.37896
2050.798, 35.83028
2052.726, 32.49625
2054.655, 31.57950
2056.583, 31.59885
2058.511, 32.29626
2060.440, 32.08797
2062.368, 31.81117
2064.297, 32.51064
2066.225, 33.46597
2068.154, 34.06017
2070.082, 31.54646
2072.011, 29.35744
2073.939, 29.93689
2075.868, 29.58234
2077.796, 28.82350
2079.725, 30.29030
2081.653, 31.68059
2083.582, 32.08246
2085.510, 29.45275
2087.438, 27.05383
2089.367, 29.97797
2091.295, 31.27147
2093.224, 29.96045
2095.152, 27.97259
2097.081, 27.34939
2099.009, 30.96927
2100.938, 31.11124
2102.866, 28.33039
2104.795, 27.11171
2106.723, 26.45179
2108.652, 25.69194
2110.580, 25.70140
2112.509, 26.30054
2114.437, 27.53533
2116.365, 27.21360
2118.294, 24.73834
2120.222, 26.25503
2122.151, 28.25867
2124.079, 27.69543
2126.008, 27.01295
2127.936, 26.62068
2129.865, 26.87119
2131.793, 27.65520
2133.722, 28.97521
2135.650, 26.37243
2137.579, 22.85014
2139.507, 23.72628
2141.436, 24.95417
2143.364, 25.62548
2145.292, 26.62915
2147.221, 27.25808
2149.149, 26.46071
2151.078, 25.70575
2153.006, 25.76968
2154.935, 28.70694
2156.863, 28.87308
2158.792, 24.85730
2160.720, 23.08509
2162.649, 23.28887
2164.577, 25.89566
2166.506, 28.14450
2168.434, 29.28010
2170.363, 29.23221
2172.291, 28.38232
2174.219, 26.59252
2176.148, 27.03952
2178.076, 27.55572
2180.005, 24.28026
2181.933, 22.53542
2183.862, 22.85498
2185.790, 23.63090
2187.719, 24.62842
2189.647, 26.21172
2191.576, 25.59100
2193.504, 24.33296
2195.433, 27.05379
2197.361, 26.85571
2199.290, 23.31275
2201.218, 24.91629
2203.146, 26.15752
2205.075, 23.56714
2207.003, 24.09826
2208.932, 24.96580
2210.860, 21.98448
2212.789, 21.33504
2214.717, 24.15138
2216.646, 24.19022
2218.574, 23.21199
2220.503, 23.63802
2222.431, 22.87398
2224.360, 21.80922
2226.288, 22.23451
2228.217, 21.15104
2230.145, 19.13703
2232.073, 19.50154
2234.002, 19.49725
2235.930, 18.67923
2237.859, 20.94185
2239.787, 22.69753
2241.716, 21.50804
2243.644, 22.72218
2245.573, 24.27578
2247.501, 23.69661
2249.430, 22.81650
2251.358, 21.28153
2253.287, 21.05889
2255.215, 21.51015
2257.144, 22.44674
2259.072, 22.98872
2261.000, 22.84643
2262.929, 23.15066
2264.857, 22.90307
2266.786, 22.02055
2268.714, 19.89862
2270.643, 19.08023
2272.571, 20.93664
2274.500, 20.84983
2276.428, 19.78022
2278.357, 18.66748
2280.285, 18.96743
2282.214, 19.61504
2284.142, 19.81770
2286.071, 19.46368
2287.999, 18.83077
2289.927, 19.46338
2291.856, 19.21954
2293.784, 19.20663
2295.713, 18.92072
2297.641, 17.68843
2299.570, 16.14290
2301.498, 17.39141
2303.427, 19.67139
2305.355, 18.99834
2307.284, 20.22215
2309.212, 21.79534
2311.141, 20.68691
2313.069, 20.41840
2314.998, 20.63967
2316.926, 19.37319
2318.854, 18.63446
2320.783, 19.88345
2322.711, 20.26363
2324.640, 18.73419
2326.568, 18.15345
2328.497, 18.21292
2330.425, 17.89460
2332.354, 19.11630
2334.282, 20.31826
2336.211, 18.92227
2338.139, 16.03962
2340.068, 15.19214
2341.996, 16.98123
2343.925, 18.25541
2345.853, 18.99698
2347.781, 20.82973
2349.710, 20.92358
2351.638, 19.25360
2353.567, 17.79468
2355.495, 16.40315
2357.424, 15.22383
2359.352, 16.65906
2361.281, 16.59257
2363.209, 15.56942
2365.138, 17.24771
2367.066, 18.19440
2368.995, 18.17786
2370.923, 16.08607
2372.852, 14.24854
2374.780, 15.32627
2376.708, 17.15746
2378.637, 17.55139
2380.565, 16.08386
2382.494, 15.56396
2384.422, 15.34174
2386.351, 14.91872
2388.279, 16.74901
2390.208, 18.42415
2392.136, 15.08928
2394.065, 13.90090
2395.993, 16.02260
2397.922, 15.40712
2399.850, 14.16469
2401.779, 15.47532
2403.707, 15.90162
2405.635, 15.11754
2407.564, 14.52779
2409.492, 16.94788
2411.421, 18.36654
2413.349, 15.71152
2415.278, 14.68290
2417.206, 14.82445
2419.135, 13.82823
2421.063, 13.96212
2422.992, 14.49741
2424.920, 12.35013
2426.849, 12.89950
2428.777, 14.90007
2430.706, 12.25433
2432.634, 10.68350
2434.563, 10.95996
2436.491, 13.19096
2438.419, 14.20226
2440.348, 14.46199
2442.276, 14.46069
2444.205, 13.47461
2446.133, 12.31280
2448.062, 12.37381
2449.990, 12.78114
2451.919, 14.12324
2453.847, 13.24590
2455.776, 13.20321
2457.704, 14.57568
2459.633, 12.80690
2461.561, 10.56060
2463.490, 11.04124
2465.418, 12.47448
2467.346, 12.10146
2469.275, 11.39369
2471.203, 14.84769
2473.132, 16.06978
2475.060, 12.55926
2476.989, 11.57991
2478.917, 12.07361
2480.846, 13.09937
2482.774, 13.03348
2484.703, 12.94106
2486.631, 14.89085
2488.560, 14.13099
2490.488, 11.73131
2492.417, 10.54804
2494.345, 9.974946
2496.273, 10.76302
2498.202, 11.13104
2500.130, 11.29360
2502.059, 12.10532
2503.987, 12.06795
2505.916, 11.98730
2507.844, 12.05543
2509.773, 11.69624
2511.701, 12.15070
2513.630, 12.34323
2515.558, 10.67244
2517.487, 10.80122
2519.415, 11.60890
2521.344, 10.10884
2523.272, 9.531844
2525.200, 9.508647
2527.129, 9.016551
2529.057, 9.534490
2530.986, 10.15310
2532.914, 9.713925
2534.843, 10.70160
2536.771, 10.99738
2538.700, 9.133227
2540.628, 10.72342
2542.557, 12.39424
2544.485, 9.773765
2546.414, 9.212049
2548.342, 10.29830
2550.271, 9.272424
2552.199, 9.599565
2554.127, 11.23830
2556.056, 11.47950
2557.984, 11.07156
2559.913, 10.56423
2561.841, 9.998950
2563.770, 9.879914
2565.698, 9.867480
2567.627, 9.920080
2569.555, 9.987987
2571.484, 9.908959
2573.412, 8.957758
2575.341, 10.25418
2577.269, 11.74054
2579.198, 10.09506
2581.126, 9.270233
2583.054, 9.035151
2584.983, 8.713455
2586.911, 8.327359
2588.840, 8.354426
2590.768, 9.001828
2592.697, 9.589309
2594.625, 9.189045
2596.554, 7.103911
2598.482, 8.751143
2600.411, 10.83708
2602.339, 11.10538
2604.268, 9.752148
2606.196, 8.760745
2608.125, 9.021225
2610.053, 7.964534
2611.981, 8.328336
2613.910, 10.56966
2615.838, 8.668799
2617.767, 7.662985
2619.695, 8.958620
2621.624, 9.173385
2623.552, 8.902684
2625.481, 8.632781
2627.409, 7.993003
2629.338, 5.413486
2631.266, 2.116764
2633.195, 4.734287
2635.123, 6.440451
2637.052, 6.843215
2638.980, 7.061938
2640.908, 6.323551
2642.837, 5.587208
2644.765, 5.187509
2646.694, 4.909525
2648.622, 4.940806
2650.551, 6.139842
2652.479, 6.541318
2654.408, 6.756978
2656.336, 6.445127
2658.265, 7.152675
2660.193, 7.821451
2662.122, 6.161174
2664.050, 6.527918
2665.979, 6.246070
2667.907, 4.778247
2669.835, 5.759071
2671.764, 6.691742
2673.692, 7.198681
2675.621, 6.342912
2677.549, 5.910037
2679.478, 6.312038
2681.406, 6.606589
2683.335, 7.873030
2685.263, 8.884886
2687.192, 7.130732
2689.120, 6.315505
2691.049, 6.534569
2692.977, 7.449716
2694.906, 8.104918
2696.834, 7.450760
2698.762, 8.573660
2700.691, 6.151428
2702.619, 4.914116
2704.548, 5.703281
2706.476, 5.844257
2708.405, 5.777534
2710.333, 6.533956
2712.262, 6.980186
2714.190, 6.567982
2716.119, 6.607132
2718.047, 7.751942
2719.976, 7.187077
2721.904, 6.033567
2723.833, 5.470919
2725.761, 5.231533
2727.689, 4.814025
2729.618, 6.840100
2731.546, 4.521679
2733.475, 1.892158
2735.403, 2.544797
2737.332, 2.273159
2739.260, 2.806651
2741.189, 5.783495
2743.117, 7.939752
2745.046, 7.422998
2746.974, 6.788226
2748.903, 3.542346
2750.831, 3.344269
2752.760, 6.481074
2754.688, 6.682794
2756.616, 4.652320
2758.545, 2.791504
2760.473, 3.796962
2762.402, 5.648281
2764.330, 4.137550
2766.259, 4.098328
2768.187, 5.422644
2770.116, 4.132119
2772.044, 3.870454
2773.973, 4.188297
2775.901, 4.817657
2777.830, 6.447835
2779.758, 5.271791
2781.687, 2.910757
2783.615, 2.524422
2785.543, 3.360754
2787.472, 4.142135
2789.400, 4.607697
2791.329, 5.978318
2793.257, 5.657832
2795.186, 4.862783
2797.114, 4.672198
2799.043, 2.776878
2800.971, 3.055138
2802.900, 3.590998
2804.828, 1.794465
2806.757, 1.881354
2808.685, 4.443910
2810.614, 4.240675
2812.542, 2.640862
2814.470, 4.061728
2816.399, 3.638244
2818.327, 2.872829
2820.256, 2.415868
2822.184, 1.024696
2824.113, 2.264488
2826.041, 4.350949
2827.970, 4.893248
2829.898, 3.315470
2831.827, 0.9747800
2833.755, 2.249899
2835.684, 3.316419
2837.612, 3.141014
2839.541, 2.781458
2841.469, 3.085461
2843.397, 1.596870
2845.326, 1.453085
2847.254, 3.268915
2849.183, 4.456501
2851.111, 6.379103
2853.040, 6.164405
2854.968, 4.401393
2856.897, 4.091344
2858.825, 3.989371
2860.754, 3.220159
2862.682, 2.755372
2864.611, 3.189054
2866.539, 3.687985
2868.468, 3.144182
2870.396, 3.921760
2872.324, 6.979493
2874.253, 7.190710
2876.181, 4.616405
2878.110, 3.432089
2880.038, 2.544849
2881.967, 1.276407
2883.895, 1.297246
2885.824, 2.140732
2887.752, 3.807198
2889.681, 4.978938
2891.609, 3.063132
2893.538, 2.610892
2895.466, 2.032331
2897.395, 2.881171
2899.323, 2.607626
2901.251, 1.315608
2903.180, 1.577915
2905.108, 2.699311
2907.037, 3.551941
2908.965, 4.056980
2910.894, 3.582595
2912.822, 3.014707
2914.751, 3.375503
2916.679, 3.016746
2918.608, 2.010997
2920.536, 1.966472
2922.465, 2.458032
2924.393, 0.9718797
2926.322, 0.6392263
2928.250, 2.132703
2930.178, 2.475673
2932.107, 1.986196
2934.035, 1.649921
2935.964, 1.650337
2937.892, 1.090324
2939.821, 2.621746
2941.749, 2.278265
2943.678, 2.206656
2945.606, 2.558535
2947.535, 3.363490
2949.463, 4.054313
2951.392, 3.838799
2953.320, 2.025387
2955.249, 3.121812
2957.177, 3.542079
2959.105, 8.0604076E-02
2961.034, 0.3727329
2962.962, 3.043452
2964.891, 5.804550
2966.819, 2.449499
2968.748, 0.4801139
2970.676, 0.9527123
2972.605, 3.325872
2974.533, 1.144327
2976.462, 1.915485
2978.390, 3.057802
2980.319, 0.8414878
2982.247, 0.8006680
2984.176, 2.737450
2986.104, 3.997078
2988.032, 3.881809
2989.961, 1.522466
2991.889, 5.3427260E-02
2993.818, 0.4960496
2995.746, 0.7745597
2997.675, 1.173011
2999.603, 1.353920
3001.532, 1.445609
3003.460, 3.429980
3005.389, 3.952597
3007.317, 3.269606
3009.246, 4.595033
3011.174, 1.607634
3013.103, -1.038535
3015.031, -1.000181
3016.959, 0.8282594
3018.888, 0.6439047
3020.816, 0.1608686
3022.745, 0.6976444
3024.673, 0.6666412
3026.602, 2.523699
3028.530, 3.754819
3030.459, 1.612172
3032.387, 1.998237
3034.316, 3.504472
3036.244, 4.151455
3038.173, 1.670421
3040.101, 0.6398103
3042.030, 2.115960
3043.958, 4.086444
3045.886, 4.0237930E-02
3047.815, 0.8943864
3049.743, 1.933184
3051.672, 0.6705515
3053.600, -0.1060211
3055.529, 0.5687586
3057.457, 1.031872
3059.386, 0.1655675
3061.314, 2.572072
3063.243, 3.244638
3065.171, 1.864579
3067.100, -0.5872359
3069.028, 0.2816807
3070.957, 1.726528
3072.885, 2.488381
3074.813, 1.837280
3076.742, 1.020336
3078.670, 0.4504942
3080.599, 0.2918736
3082.527, 0.4050340
3084.456, 3.040632
3086.384, 4.561157
3088.313, 4.015668
3090.241, 2.322691
3092.170, 2.801303
3094.098, 1.568369
3096.027, -0.8413973
3097.955, 0.8178228
3099.884, 1.940558
3101.812, 2.430044
3103.740, 2.517697
3105.669, 2.977977
3107.597, 2.312024
3109.526, 1.719426
3111.454, 1.310066
3113.383, 0.6317051
3115.311, 2.576664
3117.240, 3.202165
3119.168, 1.376961
3121.097, 0.5913765
3123.025, 1.718186
3124.954, 2.494784
3126.882, 1.351574
3128.811, 0.4282982
3130.739, -0.2617438
3132.667, 0.3562596
3134.596, 1.853987
3136.524, 0.8949101
3138.453, 2.073340
3140.381, 0.9634120
3142.310, -3.043679
3144.238, 1.380991
3146.167, 2.763190
3148.095, 1.162689
3150.024, -0.7874703
3151.952, 2.210802
3153.881, 2.439861
3155.809, 2.577306
3157.738, 3.237806
3159.666, 2.246191
3161.594, 1.973814
3163.523, 1.869425
3165.451, 1.883028
3167.380, 1.859781
3169.308, 1.084002
3171.237, 0.9941910
3173.165, 1.206123
3175.094, -0.2277435
3177.022, -1.962283
3178.951, -1.968437
3180.879, -0.2259337
3182.808, 1.875607
3184.736, 2.205178
3186.665, 1.222876
3188.593, 0.6483347
3190.521, 1.405018
3192.450, 2.152237
3194.378, 1.029873
3196.307, -0.8365653
3198.235, -1.169714
3200.164, -1.164731
3202.092, 0.2547456
3204.021, 0.6625645
3205.949, -0.4450090
3207.878, 1.352931
3209.806, 0.8272026
3211.735, -0.4730361
3213.663, -1.474942
3215.592, 4.9413789E-05
3217.520, -1.813146
3219.448, -2.901311
3221.377, -1.534913
3223.305, 1.230753
3225.234, 0.8626298
3227.162, 0.3191233
3229.091, 1.083238
3231.019, 1.944149
3232.948, -0.6988310
3234.876, -0.8972911
3236.805, 0.6584329
3238.733, 1.735919
3240.662, 2.322733
3242.590, 2.256342
3244.519, 0.3757154
3246.447, -0.6506143
3248.375, 4.369923
3250.304, 2.848901
3252.232, 1.913611
3254.161, 2.292954
3256.089, 2.301514
3258.018, 1.798595
3259.946, 0.8353657
3261.875, 1.9317171E-02
3263.803, -0.3045498
3265.732, 1.619436
3267.660, 1.311366
3269.589, 2.142708
3271.517, 3.291044
3273.446, 1.537944
3275.374, 2.558344
3277.302, -0.3379610
3279.231, -2.039472
3281.159, 1.106276
3283.088, -0.8513632
3285.016, 0.9506465
3286.945, 2.691166
3288.873, 2.818669
3290.802, 2.197845
3292.730, -0.2336596
3294.659, -1.115067
3296.587, -0.9357396
3298.516, -1.005641
3300.444, 5.3920429E-02
3302.373, 2.159776
3304.301, 1.898543
3306.229, 6.2791831E-03
3308.158, 1.077034
3310.086, 2.480482
3312.015, 1.576582
3313.943, 0.9077154
3315.872, 1.838950
3317.800, 0.2935508
3319.729, 0.8404148
3321.657, 1.987934
3323.586, 1.973984
3325.514, 4.082900
3327.443, 0.6869593
3329.371, 0.5355605
3331.300, 2.341003
3333.228, 3.006132
3335.156, -0.2476395
3337.085, -1.101957
3339.013, 1.357497
3340.942, 3.337162
3342.870, -8.4853001E-02
3344.799, 1.589847
3346.727, 2.669996
3348.656, 2.806181
3350.584, 1.938385
3352.513, -0.1475083
3354.441, 0.5675484
3356.370, 1.781587
3358.298, 0.9939799
3360.227, -1.762994
3362.155, 0.7192973
3364.083, 2.304711
3366.012, 1.937371
3367.940, -0.2694215
3369.869, -2.475348
3371.797, 1.919139
3373.726, 3.410977
3375.654, -0.9577641
3377.583, -4.748023
3379.511, 0.2535112
3381.440, 3.084091
3383.368, 2.582630
3385.297, 1.928369
3387.225, 1.833143
3389.154, 2.100706
3391.082, -2.114619
3393.010, -0.2873236
3394.939, 2.119230
3396.867, 1.235271
3398.796, 3.011381
3400.724, 0.5400919
3402.653, 2.493598
3404.581, 4.346692
3406.510, 2.036777
3408.438, 0.1254840
3410.367, 2.356097
3412.295, 1.950551
3414.224, 0.7654849
3416.152, 1.786929
3418.081, 2.702752
3420.009, 4.586230
3421.938, 4.092534
3423.866, 2.306092
3425.794, 1.314115
3427.723, 2.320845
3429.651, -2.057142
3431.580, -2.805959
3433.508, -0.1148107
3435.437, 2.373007
3437.365, 1.639121
3439.294, -6.2830830E-03
3441.222, 1.931633
3443.151, 3.290433
3445.079, 0.8194884
3447.008, 0.5186816
3448.936, 1.694596
3450.865, 0.9958546
3452.793, 5.3550299E-02
3454.721, 0.6630452
3456.650, 1.925379
3458.578, -3.0486370E-02
3460.507, 0.5562110
3462.435, 0.7359106
3464.364, -1.230233
3466.292, -1.978957
3468.221, -0.7200141
3470.149, 0.8762321
3472.078, 0.8946843
3474.006, -0.7515290
3475.935, -2.430420
3477.863, -1.686495
3479.792, -1.155556
3481.720, 0.1031892
3483.648, 1.120139
3485.577, 0.1382740
3487.505, -0.4340871
3489.434, -1.643207
3491.362, 1.184754
3493.291, 2.852038
3495.219, -0.5532420
3497.148, 2.020922
3499.076, 3.175313
3501.005, -0.1133446
3502.933, -2.059814
3504.862, -1.6520770E-02
3506.790, 1.738663
3508.719, 1.395672
3510.647, 1.417662
3512.575, 2.948401
3514.504, 3.528340
3516.432, 0.2971385
3518.361, -0.3892992
3520.289, 2.544350
3522.218, 3.873455
3524.146, 2.688677
3526.075, 0.7658759
3528.003, 1.374574
3529.932, -1.5302550E-02
3531.860, -0.9924836
3533.789, -1.570495
3535.717, -1.032191
3537.646, 1.718692
3539.574, 2.522082
3541.502, -2.459548
3543.431, -0.7865098
3545.359, 0.7688137
3547.288, -2.303077
3549.216, 0.1476400
3551.145, 1.686740
3553.073, 1.512813
3555.002, 1.596134
3556.930, 1.734056
3558.859, 1.353787
3560.787, 3.986126
3562.716, -0.6103555
3564.644, 0.6630008
3566.573, 1.650255
3568.501, 0.3917919
3570.429, 2.508153
3572.358, 0.9227781
3574.286, 1.330578
3576.215, 2.897677
3578.143, 2.292105
3580.072, 0.2549158
3582.000, 2.543217
3583.929, -0.3750575
3585.857, 2.199195
3587.786, 3.864817
3589.714, 3.116281
3591.643, 1.400764
3593.571, -2.709250
3595.500, 3.631676
3597.428, 3.123930
3599.356, 0.6713593
3601.285, 0.2865894
3603.213, 1.278655
3605.142, -8.3901733E-02
3607.070, 2.915984
3608.999, 0.4311695
3610.927, -0.1503077
3612.856, -8.7974191E-02
3614.784, -3.143864
3616.713, -1.848422
3618.641, 1.324531
3620.570, 0.9211866
3622.498, -0.1272541
3624.427, -1.168148
3626.355, -1.719949
3628.283, 2.812860
3630.212, 1.677318
3632.140, 2.730624
3634.069, 0.3057633
3635.997, -2.452886
3637.926, -1.222688
3639.854, 8.1017368E-02
3641.783, -2.925742
3643.711, -1.250183
3645.640, 0.2887836
3647.568, -0.9245937
3649.497, -2.323275
3651.425, 0.3673549
3653.354, 1.072443
3655.282, 2.297828
3657.210, 2.711572
3659.139, 0.6505671
3661.067, -0.7540419
3662.996, 1.916517
3664.924, -9.0064622E-02
3666.853, 4.182438
3668.781, 0.1297729
3670.710, -1.685021
3672.638, 4.7956191E-02
3674.567, 0.6577981
3676.495, 1.908935
3678.424, 1.761463
3680.352, -0.6397275
3682.281, -8.2361929E-02
3684.209, -0.2368184
3686.137, -1.959019
3688.066, -0.7871842
3689.994, 1.727989
3691.923, 0.8167449
3693.851, 1.754850
3695.780, 3.253458
3697.708, 2.777340
3699.637, 0.7261928
3701.565, 0.6412318
3703.494, 1.215434
3705.422, 1.671009
3707.351, 3.9843912E-03
3709.279, -1.647591
3711.208, -1.978770
3713.136, -1.288508
3715.064, -1.0258190E-02
3716.993, -1.298553
3718.921, -4.247350
3720.850, -2.858762
3722.778, -0.1285130
3724.707, 0.3815168
3726.635, -0.6553030
3728.564, 0.2676965
3730.492, 3.511365
3732.421, 2.936893
3734.349, 1.076372
3736.278, 1.476178
3738.206, 3.637211
3740.135, 4.151122
3742.063, 0.3129910
3743.991, 2.305413
3745.920, 1.409393
3747.848, 0.8299355
3749.777, 4.1732389E-02
3751.705, -0.3937683
3753.634, 1.316703
3755.562, 1.618504
3757.491, -2.190023
3759.419, -0.2038840
3761.348, 7.8673631E-02
3763.276, -3.522462
3765.205, -4.175465
3767.133, 1.098979
3769.062, 0.6490618
3770.990, 3.294241
3772.918, 0.2712573
3774.847, 0.7992371
3776.775, 0.2820414
3778.704, -1.726855
3780.632, -1.611867
3782.561, 0.4981204
3784.489, -3.281470
3786.418, 0.9681717
3788.346, 0.7548717
3790.275, 0.1621812
3792.203, -0.6429442
3794.132, -1.025178
3796.060, 0.7081860
3797.989, 1.467726
3799.917, -1.142862
3801.845, 0.4279566
3803.774, 2.605930
3805.702, 1.152026
3807.631, -0.4869481
3809.559, -9.3321674E-02
3811.488, -4.1955061E-02
3813.416, 1.756615
3815.345, 3.248076
3817.273, 2.659608
3819.202, 4.655073
3821.130, 4.360157
3823.059, 2.866564
3824.987, 2.651804
3826.916, 1.452831
3828.844, 0.8097351
3830.772, -6.2234320E-02
3832.701, 1.189618
3834.629, 3.897735
3836.558, 1.153826
3838.486, 0.3523446
3840.415, 3.789705
3842.343, 1.601525
3844.272, 2.790179
3846.200, 1.349439
3848.129, -1.379513
3850.057, -1.430792
3851.986, -3.163057
3853.914, -0.9158652
3855.843, 2.833382
3857.771, -0.7534950
3859.699, -2.786414
3861.628, -0.3721876
3863.556, -0.2940075
3865.485, -2.212992
3867.413, -2.052531
3869.342, -1.397559
3871.270, -1.295012
3873.199, -1.740022
3875.127, -2.872818
3877.056, 1.802301
3878.984, -0.8410217
3880.913, -0.8986590
3882.841, -0.5265571
3884.770, -1.849007
3886.698, -0.1742341
3888.626, 1.055173
3890.555, -1.950637
3892.483, 0.5420096
3894.412, 1.288645
3896.340, 2.310344
3898.269, -0.6418343
3900.197, -0.3768153
3902.126, 2.212012
3904.054, 0.8899750
3905.983, -0.2606685
3907.911, 2.457235
3909.840, -0.6108413
3911.768, -2.260365
3913.697, 1.612277
3915.625, -5.4584011E-02
3917.553, -0.3415805
3919.482, 0.6240872
3921.410, -0.1481974
3923.339, -1.467769
3925.267, -1.339181
3927.196, -0.7148567
3929.124, -8.0774963E-02
3931.053, 0.7190846
3932.981, -0.4071312
3934.910, -0.9518408
3936.838, 0.8229733
3938.767, 4.8383069E-03
3940.695, 0.9850827
3942.624, 1.762978
3944.552, -1.308865
3946.480, -0.7161857
3948.409, -1.554378
3950.337, 2.794755
3952.266, -2.692643
3954.194, 0.6182271
3956.123, 0.9586593
3958.051, -0.3460788
3959.980, -0.9217169
3961.908, -9.1124304E-02
3963.837, 1.308380
3965.765, 1.4487470E-03
3967.694, -1.330539
3969.622, -2.271410
3971.551, 0.1381311
3973.479, 0.8005531
3975.407, 0.2652914
3977.336, -8.3947718E-02
3979.264, 0.1584203
3981.193, 0.8729869
3983.121, 3.310769
3985.050, 4.843828
3986.978, -1.172682
3988.907, -0.1959157
3990.835, 1.283614
3992.764, 0.9472397
3994.692, 0.1309453
3996.621, 0.6212208
3998.549, -0.1237677
4000.478, -0.6334264
4002.406, 1.157228
4004.334, 0.7927866
4006.263, -2.265362
4008.191, 2.737851
4010.120, -3.272549
4012.048, 0.9762329
4013.977, -0.3763048
4015.905, -0.1104672
4017.834, -0.1252060
4019.762, -2.297832
4021.691, -4.129557
4023.619, -3.995718
4025.548, -2.503026
4027.476, -4.0213589E-02
4029.405, 1.587276
4031.333, -1.103560
4033.261, 3.376240
4035.190, 1.683587
4037.118, 2.316830
4039.047, 9.4339754E-03
4040.975, -1.232409
4042.904, 2.283914
4044.832, 1.281335
4046.761, 2.313146
4048.689, 2.488995
4050.618, 7.2177178E-03
4052.546, 2.027138
4054.475, 1.507606
4056.403, 2.197698
4058.332, 0.7449911
4060.260, 2.792063
4062.188, 0.9548833
4064.117, 2.574092
4066.045, 1.281639
4067.974, 1.771014
4069.902, 1.692791
4071.831, -0.5286165
4073.759, -0.3332889
4075.688, 1.153571
4077.616, -0.2408870
4079.545, -0.2904029
4081.473, 1.797120
4083.402, -3.320389
4085.330, -0.1447511
4087.259, -3.513672
4089.187, 0.1409063
4091.115, 3.249563
4093.044, 3.388412
4094.972, -1.728565
4096.901, -1.467853
4098.829, -0.9858336
4100.758, -2.074717
4102.687, -2.988986
4104.615, -2.754817
4106.543, 0.5719362
4108.472, 0.9122951
4110.400, 3.694514
4112.329, -0.4735832
4114.257, 0.5178007
4116.186, 1.570221
4118.114, -0.8661547
4120.042, 3.938159
4121.971, 3.159627
4123.899, 2.222120
4125.828, 2.308569
4127.756, 1.778058
4129.685, 2.040815
4131.613, 1.453535
4133.542, 0.1061563
4135.470, -0.4126270
4137.398, -1.210673
4139.327, 0.7635850
4141.256, 1.461278
4143.184, 0.8225640
4145.112, -0.7399620
4147.041, 1.190076
4148.970, 1.760809
4150.898, -0.4541402
4152.826, -4.566865
4154.755, -3.353612
4156.684, -1.294063
4158.612, -1.117284
4160.540, 0.5521466
4162.469, 3.747844
4164.397, 2.919209
4166.326, -0.9725040
4168.254, -1.589592
4170.183, -0.2682920
4172.111, -0.4070804
4174.040, 1.465604
4175.968, -0.1798878
4177.896, -2.788997
4179.825, 2.579992
4181.753, 3.989724
4183.682, -0.9468344
4185.610, -0.1841582
4187.539, -0.7461581
4189.467, -9.9867716E-02
4191.396, 4.192776
4193.324, 4.339495
4195.253, 2.938545
4197.181, 5.406738
4199.109, 3.248666
4201.038, 0.7237300
4202.967, -1.791550
4204.895, -4.318675
4206.823, -0.7765285
4208.752, 1.143948
4210.681, 1.529892
4212.609, -4.214499
4214.537, -2.042714
4216.466, -3.043430
4218.395, -4.174273
4220.323, -0.8883121
4222.251, -5.741038
4224.180, 1.867012
4226.108, 0.8071623
4228.037, 3.234166
4229.965, -2.242037
4231.894, -1.726595
4233.822, -2.119706
4235.750, -2.528156
4237.679, -0.4248198
4239.607, -1.329799
4241.536, -9.7720161E-02
4243.464, 1.597046
4245.393, -0.6515224
4247.321, -8.0945566E-02
4249.250, 2.644082
4251.178, 4.614102
4253.106, 3.104956
4255.035, -0.8642389
4256.964, 1.419750
4258.892, 4.465337
4260.820, -0.4397597
4262.749, -0.9976209
4264.678, 2.991852
4266.606, -0.1864879
4268.534, 0.6278049
4270.463, 3.641548
4272.392, 1.376054
4274.320, 0.1725675
4276.248, 2.257949
4278.177, 2.272363
4280.105, 0.7981579
4282.034, 7.7724017E-02
4283.962, 3.082620
4285.891, -2.761545
4287.819, -0.2575426
4289.748, -0.9970959
4291.676, 3.286223
4293.604, 3.513934
4295.533, -0.3351637
4297.461, 1.422124
4299.390, -0.6211646
4301.318, -4.540396
4303.247, -0.4927023
4305.175, 0.9394836
4307.104, -9.9892952E-02
4309.032, -2.775714
4310.961, -0.7593303
4312.889, -1.332541
4314.817, 9.8640077E-02
4316.746, 1.030608
4318.675, -5.123656
4320.603, 0.4333569
4322.531, 1.660425
##END=



