##NAMES=Magnetite
##RRUFFID=R061111
##IDEAL CHEMISTRY=Fe^2+^Fe^3+^_2_O_4_
##LOCALITY=near Scotia Talc mine, Barberton Mountain, Transvaal, South Africa
##OWNER=RRUFF
##SOURCE=Michael Scott
##DESCRIPTION=Black submetallic grains and octahedra associated with light green massive willemseite
##STATUS=The identification of this mineral is confirmed by single-crystal X-ray diffraction and chemical analysis
##URL=https://www.rruff.net/odr/rruff_sample/R061111
##MEASURED CHEMISTRY=(Fe^2+^_0.51_Ni_0.48_Co_0.01_)Fe^3+^_2_O_4_ ; trace amounts of Al  Fe^2+^ and Fe^3+^ splitted by charge balance
##DIFFRACTION SAMPLE DESCRIPTION=Single crystal, powder profile is calculated
##CELL PARAMETERS=a: 8.368 b: 8.368 c: 8.368 alpha: 90 beta: 90 gamma: 90 volume: 586.07 crystal system: cubic
##FILETYPE=Raman RAW
##RAMAN WAVELENGTH=532

156.4819, 1213.236
158.4104, 1216.244
160.3389, 1204.468
162.2673, 1194.198
164.1958, 1193.121
166.1243, 1202.555
168.0527, 1209.691
169.9812, 1210.095
171.9097, 1205.135
173.8381, 1203.905
175.7666, 1208.573
177.6951, 1214.855
179.6235, 1219.987
181.5520, 1222.973
183.4805, 1225.810
185.4089, 1228.494
187.3374, 1230.923
189.2659, 1234.085
191.1943, 1239.975
193.1228, 1245.853
195.0513, 1248.800
196.9797, 1246.952
198.9082, 1243.851
200.8367, 1239.708
202.7651, 1234.538
204.6936, 1230.122
206.6221, 1226.960
208.5505, 1224.777
210.4790, 1223.243
212.4075, 1220.420
214.3359, 1219.532
216.2644, 1223.268
218.1929, 1232.885
220.1213, 1239.718
222.0498, 1240.323
223.9783, 1235.789
225.9067, 1233.650
227.8352, 1235.218
229.7637, 1238.253
231.6921, 1241.451
233.6206, 1244.788
235.5491, 1248.865
237.4775, 1254.639
239.4060, 1262.014
241.3345, 1267.512
243.2629, 1268.837
245.1914, 1269.384
247.1199, 1271.652
249.0483, 1274.896
250.9768, 1280.839
252.9053, 1291.917
254.8337, 1307.713
256.7622, 1320.259
258.6907, 1325.794
260.6191, 1328.724
262.5476, 1333.348
264.4761, 1341.825
266.4045, 1349.935
268.3330, 1356.583
270.2615, 1361.864
272.1899, 1366.926
274.1184, 1370.897
276.0469, 1375.012
277.9753, 1381.119
279.9038, 1390.938
281.8323, 1400.986
283.7607, 1409.661
285.6892, 1416.815
287.6177, 1426.434
289.5461, 1438.745
291.4746, 1453.688
293.4031, 1472.313
295.3315, 1501.824
297.2600, 1526.073
299.1885, 1536.155
301.1169, 1529.504
303.0454, 1529.615
304.9739, 1542.179
306.9023, 1561.875
308.8308, 1579.633
310.7593, 1595.374
312.6877, 1609.210
314.6162, 1620.785
316.5447, 1629.068
318.4731, 1638.380
320.4016, 1653.118
322.3301, 1667.731
324.2585, 1673.592
326.1870, 1666.789
328.1155, 1657.814
330.0439, 1650.340
331.9724, 1644.527
333.9009, 1640.428
335.8293, 1640.153
337.7578, 1640.575
339.6863, 1636.873
341.6147, 1624.032
343.5432, 1614.857
345.4717, 1615.912
347.4001, 1632.753
349.3286, 1638.508
351.2571, 1621.018
353.1855, 1598.712
355.1140, 1591.517
357.0425, 1610.783
358.9709, 1627.457
360.8994, 1631.745
362.8279, 1621.044
364.7563, 1614.411
366.6848, 1611.761
368.6133, 1613.157
370.5417, 1618.273
372.4702, 1629.716
374.3987, 1639.745
376.3271, 1647.644
378.2556, 1652.876
380.1841, 1652.607
382.1125, 1640.642
384.0410, 1627.674
385.9695, 1620.115
387.8979, 1619.710
389.8264, 1622.565
391.7549, 1630.215
393.6833, 1641.633
395.6118, 1650.377
397.5403, 1653.530
399.4688, 1657.194
401.3972, 1664.582
403.3257, 1677.913
405.2542, 1688.734
407.1826, 1694.478
409.1111, 1696.735
411.0396, 1699.557
412.9680, 1701.872
414.8965, 1705.937
416.8250, 1713.016
418.7534, 1724.466
420.6819, 1735.385
422.6104, 1746.834
424.5388, 1757.805
426.4673, 1766.222
428.3958, 1769.171
430.3242, 1775.762
432.2527, 1789.113
434.1812, 1809.255
436.1096, 1829.864
438.0381, 1850.833
439.9666, 1871.827
441.8950, 1892.474
443.8235, 1912.386
445.7520, 1934.554
447.6804, 1959.609
449.6089, 1987.925
451.5374, 2021.222
453.4658, 2064.057
455.3943, 2107.880
457.3228, 2148.987
459.2512, 2187.248
461.1797, 2224.569
463.1082, 2260.823
465.0366, 2295.243
466.9651, 2326.689
468.8936, 2361.796
470.8220, 2386.035
472.7505, 2392.219
474.6790, 2383.761
476.6074, 2373.720
478.5359, 2372.884
480.4644, 2364.893
482.3928, 2339.482
484.3213, 2282.722
486.2498, 2230.169
488.1782, 2181.072
490.1067, 2137.658
492.0352, 2103.218
493.9636, 2084.731
495.8921, 2067.013
497.8206, 2044.215
499.7490, 2014.726
501.6775, 1989.020
503.6060, 1966.372
505.5344, 1948.040
507.4629, 1934.249
509.3914, 1925.119
511.3198, 1919.705
513.2483, 1918.279
515.1768, 1919.885
517.1052, 1921.125
519.0337, 1918.688
520.9622, 1919.313
522.8906, 1926.640
524.8191, 1940.719
526.7476, 1957.467
528.6760, 1979.080
530.6045, 2002.406
532.5330, 2024.549
534.4614, 2045.010
536.3899, 2065.411
538.3184, 2085.771
540.2468, 2105.875
542.1753, 2125.552
544.1038, 2143.028
546.0322, 2161.109
547.9607, 2182.063
549.8892, 2207.613
551.8176, 2226.737
553.7461, 2235.861
555.6746, 2239.595
557.6030, 2242.470
559.5315, 2245.386
561.4600, 2244.598
563.3884, 2237.976
565.3169, 2227.252
567.2454, 2218.680
569.1738, 2219.371
571.1023, 2215.050
573.0308, 2197.057
574.9592, 2166.808
576.8877, 2141.850
578.8162, 2129.876
580.7446, 2120.188
582.6731, 2103.996
584.6016, 2073.821
586.5300, 2053.552
588.4585, 2053.889
590.3870, 2063.936
592.3154, 2067.944
594.2439, 2061.674
596.1724, 2054.537
598.1008, 2046.586
600.0293, 2038.463
601.9578, 2039.010
603.8862, 2058.164
605.8147, 2077.130
607.7432, 2083.732
609.6716, 2076.040
611.6001, 2075.726
613.5286, 2091.122
615.4570, 2112.570
617.3855, 2130.598
619.3140, 2144.997
621.2424, 2156.608
623.1709, 2159.802
625.0994, 2161.176
627.0278, 2173.202
628.9563, 2203.128
630.8848, 2236.065
632.8132, 2268.992
634.7417, 2302.037
636.6702, 2331.299
638.5986, 2350.756
640.5271, 2371.535
642.4556, 2399.916
644.3840, 2435.769
646.3125, 2474.511
648.2410, 2515.607
650.1694, 2558.573
652.0979, 2602.759
654.0264, 2644.031
655.9548, 2692.527
657.8833, 2752.504
659.8118, 2820.463
661.7402, 2889.425
663.6687, 2959.070
665.5972, 3030.377
667.5256, 3103.342
669.4541, 3177.737
671.3826, 3255.091
673.3110, 3360.295
675.2395, 3446.979
677.1680, 3482.731
679.0964, 3472.645
681.0249, 3459.600
682.9534, 3463.104
684.8818, 3457.010
686.8103, 3422.975
688.7388, 3341.990
690.6672, 3260.030
692.5957, 3170.143
694.5242, 3081.923
696.4526, 3010.142
698.3811, 2962.294
700.3096, 2908.824
702.2380, 2832.739
704.1665, 2744.525
706.0950, 2672.602
708.0234, 2634.330
709.9519, 2593.739
711.8804, 2540.622
713.8088, 2477.284
715.7373, 2416.918
717.6658, 2357.817
719.5942, 2305.236
721.5227, 2261.892
723.4512, 2228.908
725.3796, 2197.783
727.3081, 2169.256
729.2366, 2142.346
731.1650, 2116.929
733.0935, 2093.117
735.0220, 2069.138
736.9504, 2037.290
738.8789, 2009.688
740.8074, 1997.588
742.7358, 2009.103
744.6643, 2014.780
746.5928, 2008.376
748.5212, 1994.827
750.4497, 1980.825
752.3782, 1964.744
754.3066, 1951.597
756.2351, 1945.259
758.1636, 1942.231
760.0920, 1936.104
762.0205, 1921.541
763.9490, 1912.630
765.8774, 1918.646
767.8059, 1935.121
769.7344, 1939.232
771.6628, 1921.622
773.5913, 1904.003
775.5198, 1890.618
777.4482, 1882.039
779.3767, 1882.208
781.3052, 1901.172
783.2336, 1917.235
785.1621, 1920.041
787.0906, 1907.728
789.0190, 1899.193
790.9475, 1894.097
792.8760, 1892.661
794.8044, 1898.198
796.7329, 1910.084
798.6614, 1916.669
800.5898, 1910.964
802.5183, 1904.505
804.4468, 1904.690
806.3752, 1915.016
808.3037, 1921.038
810.2322, 1917.824
812.1606, 1913.577
814.0891, 1915.471
816.0176, 1924.130
817.9460, 1931.500
819.8745, 1934.802
821.8030, 1937.377
823.7314, 1943.055
825.6599, 1955.138
827.5884, 1960.400
829.5168, 1951.215
831.4453, 1938.654
833.3738, 1935.366
835.3022, 1944.960
837.2307, 1952.504
839.1592, 1954.186
841.0876, 1953.351
843.0161, 1953.790
844.9446, 1956.454
846.8730, 1956.862
848.8015, 1952.396
850.7300, 1946.145
852.6584, 1942.087
854.5869, 1943.237
856.5154, 1942.549
858.4438, 1934.251
860.3723, 1926.628
862.3008, 1932.365
864.2292, 1957.466
866.1577, 1975.127
868.0862, 1969.924
870.0146, 1956.008
871.9431, 1952.107
873.8716, 1965.847
875.8000, 1979.370
877.7285, 1994.130
879.6570, 2006.969
881.5854, 2011.742
883.5139, 2005.894
885.4424, 2000.513
887.3708, 1994.585
889.2993, 1992.132
891.2278, 2000.041
893.1563, 2025.528
895.0847, 2045.827
897.0132, 2057.515
898.9417, 2062.604
900.8701, 2063.002
902.7986, 2054.487
904.7271, 2051.408
906.6555, 2062.018
908.5840, 2076.619
910.5125, 2082.175
912.4409, 2074.240
914.3694, 2072.457
916.2979, 2089.618
918.2263, 2110.726
920.1548, 2119.174
922.0833, 2101.660
924.0117, 2090.097
925.9402, 2087.994
927.8687, 2090.467
929.7971, 2091.789
931.7256, 2091.232
933.6541, 2095.028
935.5825, 2110.304
937.5110, 2127.172
939.4395, 2137.701
941.3679, 2141.272
943.2964, 2141.645
945.2249, 2134.912
947.1533, 2128.657
949.0818, 2128.488
951.0103, 2135.168
952.9387, 2145.016
954.8672, 2162.223
956.7957, 2178.299
958.7241, 2185.935
960.6526, 2185.226
962.5811, 2186.823
964.5095, 2199.030
966.4380, 2207.241
968.3665, 2201.709
970.2949, 2179.799
972.2234, 2168.229
974.1519, 2175.767
976.0803, 2184.701
978.0088, 2184.554
979.9373, 2177.759
981.8657, 2182.307
983.7942, 2206.190
985.7227, 2229.900
987.6511, 2243.526
989.5796, 2249.067
991.5081, 2254.475
993.4365, 2259.829
995.3650, 2264.120
997.2935, 2268.003
999.2219, 2270.801
1001.150, 2269.951
1003.079, 2256.797
1005.007, 2254.451
1006.936, 2278.751
1008.864, 2312.550
1010.793, 2330.451
1012.721, 2328.979
1014.650, 2326.862
1016.578, 2326.104
1018.507, 2328.118
1020.435, 2334.314
1022.364, 2344.455
1024.292, 2357.094
1026.220, 2374.314
1028.149, 2390.718
1030.077, 2403.095
1032.006, 2411.375
1033.934, 2414.795
1035.863, 2414.243
1037.791, 2409.263
1039.720, 2395.155
1041.648, 2375.508
1043.577, 2367.860
1045.505, 2378.792
1047.434, 2395.654
1049.362, 2419.086
1051.291, 2445.269
1053.219, 2457.783
1055.147, 2442.286
1057.076, 2429.384
1059.004, 2423.447
1060.933, 2422.757
1062.861, 2425.419
1064.790, 2433.414
1066.718, 2439.082
1068.647, 2436.223
1070.575, 2433.924
1072.504, 2441.543
1074.432, 2461.004
1076.361, 2475.959
1078.289, 2479.354
1080.218, 2480.882
1082.146, 2485.122
1084.074, 2492.145
1086.003, 2499.681
1087.931, 2512.928
1089.860, 2521.168
1091.788, 2517.199
1093.717, 2504.669
1095.645, 2496.718
1097.574, 2492.932
1099.502, 2494.583
1101.431, 2507.581
1103.359, 2524.090
1105.288, 2532.202
1107.216, 2527.614
1109.145, 2528.533
1111.073, 2549.771
1113.001, 2569.037
1114.930, 2565.244
1116.858, 2527.895
1118.787, 2511.600
1120.715, 2534.198
1122.644, 2558.785
1124.572, 2564.091
1126.501, 2555.450
1128.429, 2560.875
1130.358, 2590.900
1132.286, 2615.239
1134.215, 2615.496
1136.143, 2604.800
1138.072, 2603.121
1140.000, 2612.963
1141.928, 2624.540
1143.857, 2642.892
1145.785, 2657.324
1147.714, 2656.621
1149.642, 2634.653
1151.571, 2624.535
1153.499, 2631.155
1155.428, 2643.279
1157.356, 2661.257
1159.285, 2681.408
1161.213, 2688.725
1163.142, 2678.211
1165.070, 2665.648
1166.999, 2650.846
1168.927, 2640.308
1170.855, 2643.876
1172.784, 2665.166
1174.712, 2684.709
1176.641, 2699.170
1178.569, 2710.396
1180.498, 2717.542
1182.426, 2719.554
1184.355, 2724.596
1186.283, 2733.123
1188.212, 2742.302
1190.140, 2752.769
1192.069, 2763.162
1193.997, 2771.000
1195.926, 2778.647
1197.854, 2779.975
1199.782, 2769.066
1201.711, 2755.925
1203.639, 2746.399
1205.568, 2740.550
1207.496, 2743.653
1209.425, 2762.683
1211.353, 2781.001
1213.282, 2789.058
1215.210, 2790.609
1217.139, 2799.627
1219.067, 2826.478
1220.996, 2843.235
1222.924, 2838.191
1224.853, 2828.000
1226.781, 2828.678
1228.709, 2842.789
1230.638, 2857.072
1232.566, 2874.402
1234.495, 2888.608
1236.423, 2896.287
1238.352, 2898.749
1240.280, 2898.296
1242.209, 2891.522
1244.137, 2892.989
1246.066, 2914.468
1247.994, 2940.689
1249.923, 2959.871
1251.851, 2971.846
1253.780, 2977.178
1255.708, 2968.937
1257.636, 2961.836
1259.565, 2958.749
1261.493, 2960.728
1263.422, 2970.942
1265.350, 3003.973
1267.279, 3024.573
1269.207, 3021.831
1271.136, 3014.330
1273.064, 3018.131
1274.993, 3033.865
1276.921, 3043.938
1278.850, 3042.240
1280.778, 3042.591
1282.707, 3050.043
1284.635, 3062.462
1286.563, 3078.724
1288.492, 3100.826
1290.420, 3113.513
1292.349, 3105.512
1294.277, 3096.204
1296.206, 3094.938
1298.134, 3101.694
1300.063, 3117.009
1301.991, 3148.595
1303.920, 3174.657
1305.848, 3190.663
1307.777, 3198.782
1309.705, 3199.503
1311.634, 3188.918
1313.562, 3185.894
1315.490, 3192.164
1317.419, 3203.720
1319.347, 3226.605
1321.276, 3253.168
1323.204, 3261.273
1325.133, 3243.507
1327.061, 3234.966
1328.990, 3248.479
1330.918, 3267.215
1332.847, 3281.011
1334.775, 3290.766
1336.704, 3297.788
1338.632, 3297.422
1340.561, 3304.838
1342.489, 3333.783
1344.417, 3366.563
1346.346, 3385.153
1348.274, 3388.457
1350.203, 3392.755
1352.131, 3401.051
1354.060, 3408.752
1355.988, 3416.653
1357.917, 3422.816
1359.845, 3422.777
1361.774, 3411.648
1363.702, 3405.513
1365.631, 3407.185
1367.559, 3410.825
1369.488, 3413.695
1371.416, 3416.150
1373.344, 3419.821
1375.273, 3425.597
1377.201, 3430.795
1379.130, 3440.952
1381.058, 3445.854
1382.987, 3427.668
1384.915, 3394.023
1386.844, 3392.519
1388.772, 3442.467
1390.701, 3483.379
1392.629, 3492.426
1394.558, 3486.157
1396.486, 3476.497
1398.415, 3463.778
1400.343, 3454.221
1402.271, 3444.542
1404.200, 3445.341
1406.128, 3469.014
1408.057, 3500.512
1409.985, 3523.425
1411.914, 3537.691
1413.842, 3543.149
1415.771, 3526.341
1417.699, 3517.420
1419.628, 3535.204
1421.556, 3563.012
1423.485, 3571.946
1425.413, 3552.241
1427.342, 3539.751
1429.270, 3539.970
1431.198, 3542.211
1433.127, 3544.942
1435.055, 3547.233
1436.984, 3545.573
1438.912, 3536.110
1440.841, 3532.200
1442.769, 3534.153
1444.698, 3540.276
1446.626, 3550.612
1448.555, 3563.343
1450.483, 3575.234
1452.412, 3586.464
1454.340, 3594.417
1456.269, 3601.829
1458.197, 3603.489
1460.125, 3590.839
1462.054, 3572.732
1463.982, 3570.643
1465.911, 3589.556
1467.839, 3599.566
1469.768, 3585.725
1471.696, 3572.209
1473.625, 3572.943
1475.553, 3583.391
1477.482, 3596.345
1479.410, 3612.888
1481.339, 3620.385
1483.267, 3603.499
1485.196, 3591.293
1487.124, 3606.362
1489.052, 3635.927
1490.981, 3642.667
1492.909, 3619.079
1494.838, 3605.624
1496.766, 3618.446
1498.695, 3633.445
1500.623, 3640.613
1502.552, 3643.001
1504.480, 3648.092
1506.409, 3658.349
1508.337, 3662.286
1510.266, 3655.018
1512.194, 3645.540
1514.123, 3631.446
1516.051, 3619.679
1517.979, 3625.299
1519.908, 3658.872
1521.836, 3681.634
1523.765, 3685.147
1525.693, 3688.948
1527.622, 3700.137
1529.550, 3714.189
1531.479, 3724.650
1533.407, 3730.450
1535.336, 3734.377
1537.264, 3731.108
1539.193, 3732.722
1541.121, 3749.488
1543.050, 3768.686
1544.978, 3770.363
1546.906, 3754.041
1548.835, 3764.465
1550.763, 3829.488
1552.692, 3874.936
1554.620, 3869.878
1556.549, 3849.826
1558.477, 3843.368
1560.406, 3847.918
1562.334, 3847.542
1564.263, 3838.131
1566.191, 3834.327
1568.120, 3843.247
1570.048, 3855.857
1571.977, 3870.581
1573.905, 3885.325
1575.833, 3893.684
1577.762, 3895.404
1579.690, 3893.008
1581.619, 3874.828
1583.547, 3867.377
1585.476, 3890.746
1587.404, 3928.030
1589.333, 3957.922
1591.261, 3980.074
1593.190, 3988.092
1595.118, 3976.884
1597.047, 3961.953
1598.975, 3941.893
1600.904, 3927.986
1602.832, 3936.362
1604.760, 3961.432
1606.689, 3970.047
1608.617, 3951.637
1610.546, 3945.146
1612.474, 3972.528
1614.403, 4001.250
1616.331, 4011.564
1618.260, 4007.638
1620.188, 3994.831
1622.117, 3971.371
1624.045, 3957.447
1625.974, 3960.828
1627.902, 3966.906
1629.831, 3974.077
1631.759, 3977.188
1633.688, 3965.789
1635.616, 3942.177
1637.544, 3932.667
1639.473, 3946.053
1641.401, 3957.113
1643.330, 3955.590
1645.258, 3952.795
1647.187, 3956.472
1649.115, 3964.007
1651.044, 3967.511
1652.972, 3964.841
1654.901, 3966.082
1656.829, 3976.884
1658.758, 3983.475
1660.686, 3973.482
1662.615, 3960.214
1664.543, 3962.514
1666.471, 3978.348
1668.400, 3980.281
1670.328, 3958.347
1672.257, 3949.832
1674.185, 3977.392
1676.114, 4007.426
1678.042, 4019.115
1679.971, 4019.084
1681.899, 4021.059
1683.828, 4025.287
1685.756, 4029.575
1687.685, 4038.725
1689.613, 4037.277
1691.542, 4000.562
1693.470, 3966.584
1695.398, 3975.177
1697.327, 4014.435
1699.255, 4036.152
1701.184, 4035.896
1703.112, 4029.305
1705.041, 4008.957
1706.969, 3998.385
1708.898, 4018.556
1710.826, 4049.415
1712.755, 4069.488
1714.683, 4079.245
1716.612, 4079.427
1718.540, 4065.817
1720.469, 4058.747
1722.397, 4067.961
1724.325, 4080.056
1726.254, 4089.094
1728.182, 4094.705
1730.111, 4095.030
1732.039, 4090.222
1733.968, 4086.675
1735.896, 4083.479
1737.825, 4085.757
1739.753, 4100.425
1741.682, 4115.666
1743.610, 4124.125
1745.539, 4126.816
1747.467, 4122.599
1749.396, 4110.512
1751.324, 4112.195
1753.252, 4140.400
1755.181, 4160.547
1757.109, 4154.421
1759.038, 4142.271
1760.966, 4138.473
1762.895, 4141.019
1764.823, 4144.764
1766.752, 4150.475
1768.680, 4156.273
1770.609, 4166.765
1772.537, 4170.947
1774.466, 4151.711
1776.394, 4137.703
1778.323, 4156.240
1780.251, 4197.154
1782.179, 4231.953
1784.108, 4260.119
1786.036, 4278.430
1787.965, 4279.394
1789.893, 4278.846
1791.822, 4278.733
1793.750, 4279.732
1795.679, 4287.594
1797.607, 4297.060
1799.536, 4292.498
1801.464, 4272.331
1803.393, 4249.256
1805.321, 4211.565
1807.250, 4190.282
1809.178, 4196.027
1811.106, 4214.778
1813.035, 4245.795
1814.963, 4279.956
1816.892, 4297.095
1818.820, 4294.060
1820.749, 4287.411
1822.677, 4266.356
1824.606, 4260.400
1826.534, 4284.796
1828.463, 4312.320
1830.391, 4330.980
1832.320, 4343.050
1834.248, 4351.065
1836.177, 4354.968
1838.105, 4358.421
1840.033, 4360.963
1841.962, 4366.682
1843.890, 4385.989
1845.819, 4395.983
1847.747, 4372.246
1849.676, 4346.204
1851.604, 4352.886
1853.533, 4383.066
1855.461, 4402.934
1857.390, 4409.943
1859.318, 4415.240
1861.247, 4419.126
1863.175, 4422.942
1865.104, 4429.843
1867.032, 4434.470
1868.960, 4425.965
1870.889, 4414.975
1872.817, 4428.060
1874.746, 4465.570
1876.674, 4489.293
1878.603, 4493.667
1880.531, 4491.960
1882.460, 4477.546
1884.388, 4468.110
1886.317, 4478.815
1888.245, 4494.527
1890.174, 4496.767
1892.102, 4487.248
1894.031, 4476.444
1895.959, 4457.543
1897.887, 4453.976
1899.816, 4481.887
1901.744, 4501.675
1903.673, 4497.091
1905.601, 4489.999
1907.530, 4493.669
1909.458, 4505.362
1911.387, 4521.800
1913.315, 4542.937
1915.244, 4559.654
1917.172, 4570.677
1919.101, 4580.762
1921.029, 4588.172
1922.958, 4598.866
1924.886, 4619.384
1926.814, 4639.814
1928.743, 4656.850
1930.671, 4666.209
1932.600, 4651.449
1934.528, 4613.765
1936.457, 4600.208
1938.385, 4624.891
1940.314, 4642.324
1942.242, 4637.362
1944.171, 4629.894
1946.099, 4626.809
1948.028, 4626.829
1949.956, 4629.055
1951.885, 4633.245
1953.813, 4638.114
1955.741, 4642.729
1957.670, 4651.308
1959.598, 4665.410
1961.527, 4679.863
1963.455, 4694.802
1965.384, 4708.437
1967.312, 4729.928
1969.241, 4741.339
1971.169, 4710.058
1973.098, 4656.231
1975.026, 4654.227
1976.955, 4706.482
1978.883, 4734.463
1980.812, 4724.994
1982.740, 4719.021
1984.668, 4727.031
1986.597, 4737.719
1988.525, 4743.790
1990.454, 4751.376
1992.382, 4769.570
1994.311, 4791.840
1996.239, 4802.759
1998.168, 4802.340
2000.096, 4804.447
2002.025, 4813.569
2003.953, 4814.212
2005.882, 4798.750
2007.810, 4784.047
2009.739, 4772.988
2011.667, 4768.044
2013.595, 4771.708
2015.524, 4782.927
2017.452, 4802.616
2019.381, 4829.675
2021.309, 4846.890
2023.238, 4852.511
2025.166, 4852.715
2027.095, 4841.653
2029.023, 4839.944
2030.952, 4861.737
2032.880, 4881.977
2034.809, 4883.071
2036.737, 4879.329
2038.666, 4888.061
2040.594, 4903.052
2042.522, 4905.377
2044.451, 4894.752
2046.379, 4894.020
2048.308, 4905.772
2050.236, 4922.761
2052.165, 4961.487
2054.093, 4980.225
2056.022, 4948.706
2057.950, 4914.901
2059.879, 4910.564
2061.807, 4923.267
2063.736, 4939.226
2065.664, 4957.927
2067.593, 4974.234
2069.521, 4988.199
2071.449, 4992.479
2073.378, 4978.874
2075.306, 4980.003
2077.235, 5013.384
2079.163, 5040.557
2081.092, 5042.435
2083.020, 5034.918
2084.949, 5030.269
2086.877, 5024.654
2088.806, 5006.245
2090.734, 4980.945
2092.663, 4980.970
2094.591, 5015.033
2096.520, 5033.763
2098.448, 5021.302
2100.376, 5023.017
2102.305, 5063.801
2104.233, 5087.753
2106.162, 5060.635
2108.090, 5031.947
2110.019, 5034.350
2111.947, 5050.754
2113.876, 5061.527
2115.804, 5068.610
2117.733, 5076.049
2119.661, 5083.554
2121.590, 5095.333
2123.518, 5113.013
2125.447, 5127.829
2127.375, 5136.895
2129.303, 5146.120
2131.232, 5162.707
2133.160, 5174.929
2135.089, 5173.445
2137.017, 5169.866
2138.946, 5176.284
2140.874, 5188.533
2142.803, 5196.927
2144.731, 5201.405
2146.660, 5206.151
2148.588, 5210.845
2150.517, 5210.587
2152.445, 5203.207
2154.374, 5196.169
2156.302, 5196.959
2158.230, 5191.219
2160.159, 5164.563
2162.087, 5141.753
2164.016, 5145.250
2165.944, 5156.611
2167.873, 5147.823
2169.801, 5130.407
2171.730, 5142.907
2173.658, 5183.697
2175.587, 5200.964
2177.515, 5189.904
2179.444, 5189.527
2181.372, 5206.880
2183.301, 5224.052
2185.229, 5242.585
2187.157, 5247.712
2189.086, 5221.656
2191.014, 5194.141
2192.943, 5182.734
2194.871, 5182.362
2196.800, 5194.778
2198.728, 5211.458
2200.657, 5206.038
2202.585, 5180.386
2204.514, 5179.260
2206.442, 5205.690
2208.371, 5213.399
2210.299, 5192.125
2212.228, 5181.222
2214.156, 5190.462
2216.084, 5207.820
2218.013, 5242.433
2219.941, 5267.109
2221.870, 5257.201
2223.798, 5241.618
2225.727, 5244.337
2227.655, 5257.471
2229.584, 5273.874
2231.512, 5290.037
2233.441, 5289.432
2235.369, 5273.551
2237.298, 5269.247
2239.226, 5279.659
2241.155, 5283.909
2243.083, 5276.646
2245.011, 5273.731
2246.940, 5279.283
2248.868, 5288.038
2250.797, 5301.091
2252.725, 5312.728
2254.654, 5317.666
2256.582, 5322.242
2258.511, 5335.223
2260.439, 5349.500
2262.368, 5355.727
2264.296, 5353.865
2266.225, 5335.517
2268.153, 5305.907
2270.082, 5311.628
2272.010, 5358.711
2273.938, 5384.017
2275.867, 5376.621
2277.795, 5362.067
2279.724, 5327.671
2281.652, 5312.109
2283.581, 5340.292
2285.509, 5364.441
2287.438, 5358.903
2289.366, 5352.867
2291.295, 5370.314
2293.223, 5390.002
2295.152, 5386.967
2297.080, 5375.525
2299.009, 5379.129
2300.937, 5394.439
2302.865, 5411.587
2304.794, 5430.459
2306.722, 5438.570
2308.651, 5430.437
2310.579, 5431.796
2312.508, 5446.830
2314.436, 5456.464
2316.365, 5453.390
2318.293, 5432.050
2320.222, 5466.381
2322.150, 5487.022
2324.079, 5494.710
2326.007, 5450.644
2327.936, 5473.407
2329.864, 5469.387
2331.792, 5464.269
2333.721, 5496.438
2335.649, 5459.899
2337.578, 5491.477
2339.506, 5495.862
2341.435, 5512.694
2343.363, 5501.797
2345.292, 5515.356
2347.220, 5519.329
2349.149, 5511.560
2351.077, 5510.807
2353.006, 5526.636
2354.934, 5538.854
2356.863, 5547.080
2358.791, 5551.646
2360.719, 5549.159
2362.648, 5545.315
2364.576, 5531.843
2366.505, 5531.240
2368.433, 5579.236
2370.362, 5618.873
2372.290, 5592.026
2374.219, 5550.353
2376.147, 5557.618
2378.076, 5584.437
2380.004, 5568.433
2381.933, 5530.638
2383.861, 5548.515
2385.790, 5608.531
2387.718, 5638.365
2389.646, 5637.776
2391.575, 5636.384
2393.503, 5638.294
2395.432, 5632.856
2397.360, 5617.361
2399.289, 5603.873
2401.217, 5586.660
2403.146, 5586.146
2405.074, 5617.008
2407.003, 5637.663
2408.931, 5626.650
2410.860, 5616.775
2412.788, 5627.819
2414.717, 5636.272
2416.645, 5618.762
2418.573, 5603.565
2420.502, 5625.730
2422.430, 5652.811
2424.359, 5641.468
2426.287, 5616.541
2428.216, 5617.382
2430.144, 5635.841
2432.073, 5655.725
2434.001, 5675.825
2435.930, 5693.841
2437.858, 5708.522
2439.787, 5707.013
2441.715, 5684.903
2443.644, 5672.298
2445.572, 5670.835
2447.500, 5669.613
2449.429, 5668.803
2451.357, 5664.883
2453.286, 5656.155
2455.214, 5651.385
2457.143, 5657.405
2459.071, 5661.458
2461.000, 5650.457
2462.928, 5653.422
2464.857, 5690.630
2466.785, 5727.050
2468.714, 5746.947
2470.642, 5762.513
2472.571, 5789.632
2474.499, 5803.666
2476.427, 5767.493
2478.356, 5727.319
2480.284, 5739.497
2482.213, 5770.310
2484.141, 5772.931
2486.070, 5760.888
2487.998, 5758.366
2489.927, 5761.910
2491.855, 5763.482
2493.784, 5763.431
2495.712, 5763.714
2497.641, 5764.285
2499.569, 5763.269
2501.498, 5760.246
2503.426, 5766.988
2505.354, 5785.042
2507.283, 5786.848
2509.211, 5769.250
2511.140, 5766.860
2513.068, 5787.863
2514.997, 5805.048
2516.925, 5810.728
2518.854, 5819.193
2520.782, 5830.521
2522.711, 5844.024
2524.639, 5864.582
2526.568, 5871.385
2528.496, 5850.717
2530.425, 5834.771
2532.353, 5843.616
2534.281, 5850.760
2536.210, 5839.151
2538.138, 5834.243
2540.067, 5854.212
2541.995, 5875.409
2543.924, 5884.427
2545.852, 5887.140
2547.781, 5883.811
2549.709, 5879.619
2551.638, 5882.287
2553.566, 5885.016
2555.495, 5879.790
2557.423, 5872.761
2559.352, 5867.179
2561.280, 5867.976
2563.208, 5884.011
2565.137, 5909.735
2567.065, 5940.444
2568.994, 5970.143
2570.922, 5985.294
2572.851, 5987.878
2574.779, 5981.108
2576.708, 5968.732
2578.636, 5977.776
2580.565, 6000.502
2582.493, 5994.801
2584.422, 5964.335
2586.350, 5954.643
2588.279, 5967.591
2590.207, 5969.425
2592.135, 5959.085
2594.064, 5961.623
2595.992, 5977.743
2597.921, 5987.563
2599.849, 5987.581
2601.778, 5998.210
2603.706, 6021.792
2605.635, 6050.410
2607.563, 6095.655
2609.492, 6101.977
2611.420, 6054.243
2613.349, 6033.670
2615.277, 6056.484
2617.206, 6083.394
2619.134, 6115.079
2621.063, 6131.375
2622.991, 6116.038
2624.919, 6108.717
2626.848, 6119.708
2628.776, 6120.221
2630.705, 6100.450
2632.633, 6085.095
2634.562, 6082.472
2636.490, 6086.250
2638.419, 6099.354
2640.347, 6112.149
2642.276, 6085.960
2644.204, 6128.805
2646.133, 6153.854
2648.061, 6162.062
2649.990, 6102.993
2651.918, 6130.799
2653.846, 6123.789
2655.775, 6115.352
2657.703, 6155.385
2659.632, 6106.101
2661.560, 6145.365
2663.489, 6149.284
2665.417, 6169.378
2667.346, 6154.443
2669.274, 6150.327
2671.203, 6181.254
2673.131, 6192.777
2675.060, 6173.809
2676.988, 6194.932
2678.917, 6144.424
2680.845, 6156.773
2682.773, 6196.243
2684.702, 6179.037
2686.630, 6200.800
2688.559, 6207.723
2690.487, 6147.191
2692.416, 6203.968
2694.344, 6210.012
2696.273, 6163.967
2698.201, 6216.723
2700.130, 6177.859
2702.058, 6171.698
2703.987, 6190.148
2705.915, 6182.941
2707.844, 6216.186
2709.772, 6210.460
2711.700, 6201.254
2713.629, 6207.242
2715.557, 6170.174
2717.486, 6212.983
2719.414, 6201.229
2721.343, 6216.598
2723.271, 6238.113
2725.200, 6212.558
2727.128, 6236.835
2729.057, 6183.834
2730.985, 6195.495
2732.914, 6200.193
2734.842, 6246.221
2736.771, 6193.597
2738.699, 6203.460
2740.627, 6239.931
2742.556, 6239.173
2744.484, 6253.980
2746.413, 6222.708
2748.341, 6234.723
2750.270, 6234.808
2752.198, 6276.124
2754.127, 6284.890
2756.055, 6254.397
2757.984, 6224.073
2759.912, 6268.356
2761.841, 6241.926
2763.769, 6253.644
2765.698, 6225.962
2767.626, 6232.299
2769.554, 6238.097
2771.483, 6261.335
2773.411, 6231.690
2775.340, 6270.643
2777.268, 6269.948
2779.197, 6280.933
2781.125, 6290.617
2783.054, 6279.408
2784.982, 6301.688
2786.911, 6313.232
2788.839, 6292.055
2790.768, 6278.175
2792.696, 6286.691
2794.625, 6299.903
2796.553, 6313.361
2798.481, 6327.156
2800.410, 6347.692
2802.338, 6355.250
2804.267, 6334.101
2806.195, 6330.154
2808.124, 6369.354
2810.052, 6386.236
2811.981, 6330.702
2813.909, 6310.145
2815.838, 6355.405
2817.766, 6383.032
2819.695, 6380.328
2821.623, 6365.773
2823.552, 6335.730
2825.480, 6321.875
2827.408, 6342.132
2829.337, 6340.619
2831.265, 6311.153
2833.194, 6295.102
2835.122, 6297.878
2837.051, 6300.769
2838.979, 6296.842
2840.908, 6314.231
2842.836, 6355.055
2844.765, 6370.905
2846.693, 6360.555
2848.622, 6338.754
2850.550, 6307.581
2852.479, 6300.265
2854.407, 6316.918
2856.335, 6347.361
2858.264, 6383.567
2860.192, 6371.423
2862.121, 6327.459
2864.049, 6323.668
2865.978, 6348.540
2867.906, 6367.708
2869.835, 6383.349
2871.763, 6411.186
2873.692, 6433.575
2875.620, 6399.970
2877.549, 6356.924
2879.477, 6396.349
2881.406, 6456.507
2883.334, 6456.573
2885.262, 6431.737
2887.191, 6401.458
2889.119, 6380.950
2891.048, 6392.533
2892.976, 6408.748
2894.905, 6401.473
2896.833, 6402.943
2898.762, 6450.877
2900.690, 6484.566
2902.619, 6457.529
2904.547, 6434.072
2906.476, 6436.409
2908.404, 6450.167
2910.333, 6481.062
2912.261, 6495.942
2914.189, 6469.807
2916.118, 6449.824
2918.046, 6438.490
2919.975, 6445.417
2921.903, 6479.445
2923.832, 6494.527
2925.760, 6475.939
2927.689, 6471.385
2929.617, 6484.077
2931.546, 6489.105
2933.474, 6485.804
2935.403, 6497.909
2937.331, 6523.464
2939.260, 6522.496
2941.188, 6497.739
2943.116, 6455.334
2945.045, 6409.143
2946.973, 6404.507
2948.902, 6423.026
2950.830, 6423.975
2952.759, 6420.239
2954.687, 6441.755
2956.616, 6462.268
2958.544, 6436.237
2960.473, 6414.268
2962.401, 6459.483
2964.330, 6508.645
2966.258, 6518.657
2968.187, 6512.964
2970.115, 6495.621
2972.043, 6478.405
2973.972, 6460.372
2975.900, 6455.020
2977.829, 6470.265
2979.757, 6483.823
2981.686, 6495.552
2983.614, 6488.014
2985.543, 6444.432
2987.471, 6416.542
2989.400, 6406.752
2991.328, 6405.920
2993.257, 6413.917
2995.185, 6424.791
2997.114, 6437.696
2999.042, 6443.754
3000.970, 6445.712
3002.899, 6460.062
3004.827, 6481.821
3006.756, 6505.434
3008.684, 6524.276
3010.613, 6522.564
3012.541, 6514.502
3014.470, 6518.229
3016.398, 6522.439
3018.327, 6514.786
3020.255, 6510.544
3022.184, 6529.818
3024.112, 6538.843
3026.041, 6523.054
3027.969, 6499.274
3029.897, 6461.997
3031.826, 6438.862
3033.754, 6435.092
3035.683, 6436.349
3037.611, 6441.301
3039.540, 6451.714
3041.468, 6466.618
3043.397, 6503.356
3045.325, 6553.264
3047.254, 6521.387
3049.182, 6437.208
3051.111, 6427.394
3053.039, 6461.655
3054.968, 6481.137
3056.896, 6488.899
3058.824, 6484.790
3060.753, 6480.308
3062.681, 6489.657
3064.610, 6498.466
3066.538, 6495.780
3068.467, 6490.814
3070.395, 6483.687
3072.324, 6478.535
3074.252, 6471.966
3076.181, 6478.072
3078.109, 6503.670
3080.038, 6508.648
3081.966, 6481.412
3083.895, 6489.480
3085.823, 6537.385
3087.751, 6528.398
3089.680, 6481.129
3091.608, 6483.338
3093.537, 6511.031
3095.465, 6502.891
3097.394, 6483.664
3099.322, 6490.812
3101.251, 6506.602
3103.179, 6519.208
3105.108, 6530.365
3107.036, 6543.910
3108.965, 6551.433
3110.893, 6544.957
3112.822, 6546.524
3114.750, 6579.884
3116.678, 6578.701
3118.607, 6530.646
3120.535, 6515.776
3122.464, 6538.911
3124.392, 6550.049
3126.321, 6549.997
3128.249, 6561.439
3130.178, 6571.681
3132.106, 6532.806
3134.035, 6490.085
3135.963, 6522.893
3137.892, 6561.998
3139.820, 6534.972
3141.749, 6507.279
3143.677, 6511.226
3145.605, 6525.312
3147.534, 6552.809
3149.462, 6557.768
3151.391, 6528.386
3153.319, 6520.138
3155.248, 6547.338
3157.176, 6558.382
3159.105, 6554.235
3161.033, 6529.063
3162.962, 6494.073
3164.890, 6476.146
3166.819, 6472.885
3168.747, 6482.521
3170.676, 6501.440
3172.604, 6537.802
3174.532, 6562.686
3176.461, 6552.769
3178.389, 6536.694
3180.318, 6519.961
3182.246, 6508.525
3184.175, 6508.118
3186.103, 6500.312
3188.032, 6484.193
3189.960, 6492.444
3191.889, 6519.317
3193.817, 6533.606
3195.746, 6533.682
3197.674, 6496.662
3199.603, 6467.182
3201.531, 6521.737
3203.459, 6566.895
3205.388, 6506.255
3207.316, 6466.447
3209.245, 6504.139
3211.173, 6525.529
3213.102, 6484.538
3215.030, 6486.052
3216.959, 6537.350
3218.887, 6543.810
3220.816, 6509.693
3222.744, 6489.308
3224.673, 6486.899
3226.601, 6537.116
3228.530, 6586.847
3230.458, 6545.487
3232.386, 6450.447
3234.315, 6494.720
3236.243, 6521.195
3238.172, 6530.832
3240.100, 6473.188
3242.029, 6502.421
3243.957, 6496.837
3245.886, 6489.828
3247.814, 6531.288
3249.743, 6483.431
3251.671, 6524.122
3253.600, 6529.467
3255.528, 6550.988
3257.457, 6537.480
3259.385, 6542.979
3261.313, 6523.408
3263.242, 6518.077
3265.170, 6527.492
3267.099, 6560.589
3269.027, 6572.852
3270.956, 6552.570
3272.884, 6542.313
3274.813, 6542.422
3276.741, 6566.245
3278.670, 6595.023
3280.598, 6580.005
3282.527, 6554.722
3284.455, 6556.052
3286.384, 6560.607
3288.312, 6550.977
3290.240, 6552.275
3292.169, 6576.953
3294.097, 6581.425
3296.026, 6553.679
3297.954, 6533.603
3299.883, 6521.984
3301.811, 6533.340
3303.740, 6550.100
3305.668, 6529.301
3307.597, 6503.119
3309.525, 6506.626
3311.454, 6517.009
3313.382, 6519.500
3315.311, 6534.252
3317.239, 6571.274
3319.167, 6584.820
3321.096, 6568.937
3323.024, 6574.588
3324.953, 6593.452
3326.881, 6571.646
3328.810, 6536.711
3330.738, 6530.813
3332.667, 6534.970
3334.595, 6542.836
3336.524, 6540.684
3338.452, 6520.203
3340.381, 6495.995
3342.309, 6459.943
3344.238, 6472.278
3346.166, 6523.625
3348.094, 6536.939
3350.023, 6522.996
3351.951, 6495.415
3353.880, 6476.488
3355.808, 6494.247
3357.737, 6515.894
3359.665, 6526.755
3361.594, 6529.646
3363.522, 6521.692
3365.451, 6526.401
3367.379, 6545.563
3369.308, 6543.252
3371.236, 6524.706
3373.165, 6498.900
3375.093, 6477.086
3377.021, 6468.937
3378.950, 6478.754
3380.878, 6517.746
3382.807, 6549.491
3384.735, 6568.136
3386.664, 6552.162
3388.592, 6504.282
3390.521, 6500.341
3392.449, 6524.379
3394.378, 6528.806
3396.306, 6523.952
3398.235, 6519.225
3400.163, 6514.535
3402.092, 6500.886
3404.020, 6506.688
3405.948, 6539.906
3407.877, 6563.717
3409.805, 6574.929
3411.734, 6573.186
3413.662, 6561.487
3415.591, 6542.034
3417.519, 6525.059
3419.448, 6514.667
3421.376, 6523.989
3423.305, 6571.760
3425.233, 6599.524
3427.162, 6593.013
3429.090, 6584.020
3431.019, 6575.679
3432.947, 6590.156
3434.875, 6608.713
3436.804, 6589.421
3438.732, 6569.038
3440.661, 6578.662
3442.589, 6587.336
3444.518, 6590.342
3446.446, 6572.575
3448.375, 6532.086
3450.303, 6528.617
3452.232, 6549.412
3454.160, 6552.289
3456.089, 6547.477
3458.017, 6537.132
3459.946, 6540.373
3461.874, 6577.858
3463.802, 6582.227
3465.731, 6519.157
3467.659, 6518.277
3469.588, 6564.791
3471.516, 6577.169
3473.445, 6571.882
3475.373, 6565.340
3477.302, 6565.556
3479.230, 6588.404
3481.159, 6590.094
3483.087, 6555.644
3485.016, 6506.048
3486.944, 6452.378
3488.873, 6478.202
3490.801, 6541.527
3492.729, 6563.418
3494.658, 6563.062
3496.586, 6538.340
3498.515, 6526.500
3500.443, 6541.957
3502.372, 6545.123
3504.300, 6533.143
3506.229, 6518.354
3508.157, 6508.837
3510.086, 6535.331
3512.014, 6558.481
3513.943, 6538.387
3515.871, 6518.239
3517.800, 6511.441
3519.728, 6494.222
3521.656, 6464.068
3523.585, 6476.476
3525.513, 6505.742
3527.442, 6480.388
3529.370, 6463.874
3531.299, 6534.542
3533.227, 6581.904
3535.156, 6566.792
3537.084, 6537.708
3539.013, 6501.253
3540.941, 6527.720
3542.870, 6580.256
3544.798, 6585.647
3546.727, 6574.028
3548.655, 6554.831
3550.583, 6554.670
3552.512, 6592.537
3554.440, 6608.905
3556.369, 6604.250
3558.297, 6600.901
3560.226, 6594.963
3562.154, 6571.744
3564.083, 6554.202
3566.011, 6557.687
3567.940, 6570.697
3569.868, 6592.302
3571.797, 6595.283
3573.725, 6580.392
3575.654, 6549.879
3577.582, 6529.737
3579.510, 6560.002
3581.439, 6593.875
3583.367, 6618.611
3585.296, 6612.816
3587.224, 6572.661
3589.153, 6554.770
3591.081, 6553.535
3593.010, 6549.679
3594.938, 6555.614
3596.867, 6608.840
3598.795, 6618.978
3600.724, 6557.156
3602.652, 6529.336
3604.581, 6540.040
3606.509, 6549.226
3608.438, 6557.453
3610.366, 6567.078
3612.294, 6573.181
3614.223, 6575.710
3616.151, 6565.994
3618.080, 6540.227
3620.008, 6530.464
3621.937, 6528.603
3623.865, 6496.329
3625.794, 6481.040
3627.722, 6556.655
3629.651, 6596.871
3631.579, 6556.294
3633.508, 6544.337
3635.436, 6559.789
3637.365, 6556.961
3639.293, 6546.148
3641.221, 6535.373
3643.150, 6532.922
3645.078, 6548.088
3647.007, 6550.177
3648.935, 6536.742
3650.864, 6543.914
3652.792, 6562.774
3654.721, 6585.206
3656.649, 6589.536
3658.578, 6556.413
3660.506, 6522.185
3662.435, 6487.482
3664.363, 6519.977
3666.292, 6584.406
3668.220, 6575.571
3670.148, 6552.920
3672.077, 6566.805
3674.005, 6575.208
3675.934, 6558.226
3677.862, 6557.066
3679.791, 6561.473
3681.719, 6526.707
3683.648, 6488.692
3685.576, 6486.794
3687.505, 6496.470
3689.433, 6518.870
3691.362, 6523.298
3693.290, 6516.691
3695.219, 6555.421
3697.147, 6587.449
3699.075, 6520.380
3701.004, 6464.375
3702.932, 6460.535
3704.861, 6492.673
3706.789, 6548.453
3708.718, 6537.369
3710.646, 6506.652
3712.575, 6528.564
3714.503, 6552.777
3716.432, 6567.223
3718.360, 6545.830
3720.289, 6497.780
3722.217, 6531.828
3724.146, 6581.595
3726.074, 6532.680
3728.002, 6486.386
3729.931, 6485.433
3731.859, 6507.300
3733.788, 6546.606
3735.716, 6560.596
3737.645, 6555.930
3739.573, 6520.053
3741.502, 6501.629
3743.430, 6527.328
3745.359, 6541.843
3747.287, 6540.068
3749.216, 6502.020
3751.144, 6469.066
3753.073, 6524.237
3755.001, 6554.285
3756.929, 6496.813
3758.858, 6497.161
3760.786, 6544.207
3762.715, 6538.516
3764.643, 6521.840
3766.572, 6553.071
3768.500, 6573.524
3770.429, 6562.179
3772.357, 6563.845
3774.286, 6573.438
3776.214, 6556.336
3778.143, 6538.170
3780.071, 6544.400
3782.000, 6549.938
3783.928, 6548.841
3785.856, 6535.878
3787.785, 6519.252
3789.713, 6522.644
3791.642, 6530.947
3793.570, 6543.059
3795.499, 6519.344
3797.427, 6445.433
3799.356, 6459.976
3801.284, 6524.459
3803.213, 6598.111
3805.141, 6623.157
3807.070, 6562.315
3808.998, 6515.772
3810.927, 6495.189
3812.855, 6503.110
3814.783, 6518.452
3816.712, 6518.471
3818.640, 6513.538
3820.569, 6508.416
3822.497, 6488.679
3824.426, 6461.404
3826.354, 6457.365
3828.283, 6459.771
3830.211, 6451.421
3832.140, 6457.344
3834.068, 6480.590
3835.997, 6491.459
3837.925, 6496.042
3839.854, 6515.602
3841.782, 6519.915
3843.710, 6471.655
3845.639, 6485.660
3847.567, 6552.263
3849.496, 6537.432
3851.424, 6498.746
3853.353, 6494.568
3855.281, 6496.267
3857.210, 6496.104
3859.138, 6481.375
3861.067, 6458.228
3862.995, 6429.817
3864.924, 6431.528
3866.852, 6505.051
3868.781, 6546.187
3870.709, 6548.513
3872.637, 6523.584
3874.566, 6492.917
3876.494, 6489.795
3878.423, 6480.528
3880.351, 6445.189
3882.280, 6445.354
3884.208, 6465.231
3886.137, 6470.972
3888.065, 6473.673
3889.994, 6465.466
3891.922, 6456.446
3893.851, 6457.155
3895.779, 6485.715
3897.708, 6507.351
3899.636, 6483.839
3901.564, 6457.716
3903.493, 6446.386
3905.421, 6477.243
3907.350, 6502.845
3909.278, 6481.172
3911.207, 6468.479
3913.135, 6474.696
3915.064, 6452.618
3916.992, 6417.293
3918.921, 6454.901
3920.849, 6488.359
3922.778, 6456.641
3924.706, 6429.456
3926.635, 6401.930
3928.563, 6368.219
3930.491, 6354.619
3932.420, 6394.182
3934.348, 6429.761
3936.277, 6435.978
3938.205, 6432.064
3940.134, 6423.699
3942.062, 6428.316
3943.991, 6436.495
3945.919, 6451.318
3947.848, 6449.300
3949.776, 6444.947
3951.705, 6450.141
3953.633, 6421.078
3955.562, 6364.273
3957.490, 6393.051
3959.418, 6472.015
3961.347, 6436.081
3963.275, 6381.477
3965.204, 6397.588
3967.132, 6417.153
3969.061, 6421.042
3970.989, 6423.926
3972.918, 6422.358
3974.846, 6395.653
3976.775, 6357.160
3978.703, 6344.215
3980.632, 6361.816
3982.560, 6364.029
3984.489, 6375.057
3986.417, 6390.861
3988.345, 6402.255
3990.274, 6419.211
3992.202, 6425.503
3994.131, 6382.080
3996.059, 6356.318
3997.988, 6401.450
3999.916, 6411.835
4001.845, 6382.044
4003.773, 6386.451
4005.702, 6393.916
4007.630, 6374.083
4009.559, 6361.015
4011.487, 6364.361
4013.416, 6372.902
4015.344, 6388.145
4017.272, 6427.547
4019.201, 6415.294
4021.129, 6358.062
4023.058, 6341.204
4024.986, 6350.051
4026.915, 6363.806
4028.843, 6353.989
4030.772, 6343.487
4032.700, 6356.793
4034.629, 6371.619
4036.557, 6373.522
4038.486, 6361.270
4040.414, 6333.574
4042.343, 6338.377
4044.271, 6352.598
4046.199, 6319.471
4048.128, 6307.640
4050.056, 6343.965
4051.985, 6358.549
4053.913, 6354.298
4055.842, 6333.606
4057.770, 6323.873
4059.699, 6348.029
4061.627, 6354.903
4063.556, 6345.716
4065.484, 6331.632
4067.413, 6322.241
4069.341, 6322.815
4071.270, 6346.215
4073.198, 6379.168
4075.126, 6364.811
4077.055, 6343.682
4078.983, 6328.109
4080.912, 6321.002
4082.840, 6333.243
4084.769, 6342.966
4086.697, 6340.224
4088.626, 6336.364
4090.554, 6336.585
4092.483, 6342.189
4094.411, 6339.819
4096.340, 6326.280
4098.268, 6287.292
4100.196, 6272.309
4102.125, 6309.402
4104.054, 6329.256
4105.982, 6337.387
4107.910, 6292.229
4109.839, 6254.333
4111.768, 6268.770
4113.696, 6284.331
4115.624, 6306.072
4117.553, 6301.175
4119.481, 6289.031
4121.410, 6316.267
4123.338, 6315.135
4125.267, 6269.011
4127.195, 6284.567
4129.124, 6318.683
4131.052, 6292.556
4132.980, 6265.362
4134.909, 6258.413
4136.837, 6294.199
4138.766, 6336.609
4140.694, 6309.411
4142.623, 6269.229
4144.551, 6245.596
4146.479, 6263.369
4148.408, 6289.557
4150.337, 6272.671
4152.265, 6268.936
4154.193, 6297.377
4156.122, 6309.629
4158.051, 6295.602
4159.979, 6295.382
4161.907, 6301.903
4163.836, 6283.720
4165.765, 6270.065
4167.693, 6255.795
4169.621, 6257.790
4171.550, 6254.237
4173.479, 6236.030
4175.407, 6250.214
4177.335, 6263.844
4179.264, 6230.250
4181.192, 6225.854
4183.121, 6289.139
4185.049, 6321.696
4186.978, 6311.257
4188.906, 6277.717
4190.834, 6245.949
4192.763, 6214.456
4194.691, 6231.992
4196.620, 6268.796
4198.548, 6248.040
4200.477, 6238.358
4202.405, 6260.955
4204.334, 6268.938
4206.262, 6268.781
4208.190, 6289.816
4210.119, 6296.959
4212.048, 6275.910
4213.976, 6280.165
4215.904, 6291.947
4217.833, 6264.062
4219.762, 6250.367
4221.690, 6265.324
4223.618, 6276.203
4225.547, 6279.852
4227.476, 6270.204
4229.404, 6259.834
4231.332, 6251.189
4233.261, 6254.060
4235.189, 6256.697
4237.118, 6239.895
4239.046, 6226.983
4240.975, 6223.702
4242.903, 6240.379
4244.832, 6262.554
4246.760, 6279.944
4248.688, 6278.844
4250.617, 6260.848
4252.545, 6271.328
4254.474, 6268.169
4256.402, 6194.402
4258.331, 6196.824
4260.259, 6269.504
4262.188, 6246.682
4264.116, 6222.518
4266.045, 6269.481
4267.973, 6253.186
4269.901, 6194.744
4271.830, 6224.601
4273.759, 6269.351
4275.687, 6297.064
4277.615, 6287.495
4279.544, 6257.457
4281.473, 6248.564
4283.401, 6235.410
4285.329, 6209.729
4287.258, 6225.213
4289.187, 6245.717
4291.115, 6195.747
4293.043, 6173.429
4294.972, 6195.169
4296.900, 6209.589
4298.829, 6215.439
4300.757, 6213.247
4302.686, 6196.949
4304.614, 6171.007
4306.542, 6168.808
4308.471, 6172.028
4310.399, 6168.892
4312.328, 6174.776
4314.256, 6183.753
4316.185, 6171.923
4318.113, 6152.947
4320.042, 6128.491
4321.970, 6142.739
4323.898, 6175.935
4325.827, 6204.931
4327.756, 6202.021
4329.684, 6162.303
4331.612, 6134.543
4333.541, 6129.375
4335.470, 6181.662
4337.398, 6171.424
4339.326, 6107.733
4341.255, 6146.759
4343.184, 6192.543
4345.112, 6181.401
4347.040, 6154.465
4348.969, 6119.244
4350.897, 6074.723
4352.826, 6068.479
4354.754, 6130.727
4356.683, 6127.708
4358.611, 6103.569
4360.540, 6108.327
4362.468, 6124.600
4364.396, 6145.430
4366.325, 6129.033
4368.253, 6101.216
4370.182, 6070.903
4372.110, 6076.075
4374.039, 6100.743
4375.967, 6112.452
4377.896, 6100.904
4379.824, 6066.447
4381.753, 6064.645
4383.681, 6084.103
4385.609, 6129.997
4387.538, 6112.840
4389.467, 6045.485
4391.395, 6033.977
4393.323, 6037.937
4395.252, 6035.145
4397.181, 6035.282
4399.109, 6036.367
4401.037, 6029.884
4402.966, 6036.374
4404.895, 6060.287
4406.823, 6054.794
4408.751, 6044.203
4410.680, 6055.762
4412.608, 6036.800
4414.537, 5999.091
4416.465, 5985.976
4418.394, 5986.171
4420.322, 5995.860
4422.250, 6017.630
4424.179, 6029.016
4426.107, 5997.599
4428.036, 5987.661
4429.964, 5997.134
4431.893, 5986.604
4433.821, 5961.367
4435.750, 5922.143
4437.678, 5927.463
4439.606, 5951.411
4441.535, 5954.067
4443.464, 5959.973
4445.392, 5969.060
4447.320, 5951.211
4449.249, 5934.546
4451.178, 5932.209
4453.106, 5960.513
4455.034, 5994.140
4456.963, 5988.875
4458.892, 5987.048
4460.820, 5993.095
4462.748, 5959.513
4464.677, 5934.948
4466.605, 5948.697
4468.534, 5945.910
4470.462, 5927.864
4472.391, 5888.583
4474.319, 5885.746
4476.248, 5921.230
4478.176, 5913.701
4480.104, 5903.261
4482.033, 5918.512
4483.961, 5931.239
4485.890, 5934.486
4487.818, 5913.913
4489.747, 5886.255
4491.675, 5860.436
4493.604, 5906.685
4495.532, 5921.654
4497.461, 5852.960
4499.389, 5868.488
4501.317, 5910.317
4503.246, 5882.315
4505.175, 5865.362
4507.103, 5868.958
4509.031, 5893.075
4510.960, 5893.027
4512.889, 5838.566
4514.817, 5852.750
4516.745, 5877.437
4518.674, 5847.535
4520.603, 5824.194
4522.531, 5815.182
4524.459, 5827.926
4526.388, 5837.223
4528.316, 5835.750
4530.245, 5814.620
4532.173, 5805.036
4534.102, 5858.884
4536.030, 5821.226
4537.958, 5745.012
4539.887, 5747.108
4541.815, 5768.468
4543.744, 5793.188
4545.672, 5767.060
4547.601, 5750.457
4549.529, 5771.500
4551.458, 5772.127
4553.386, 5753.401
4555.314, 5698.227
4557.243, 5712.974
4559.172, 5771.656
4561.100, 5755.567
4563.028, 5734.234
4564.957, 5727.871
4566.886, 5751.265
4568.814, 5753.569
4570.742, 5696.553
4572.671, 5702.400
4574.600, 5733.582
4576.528, 5725.376
4578.456, 5697.530
4580.385, 5667.891
4582.313, 5712.796
4584.242, 5737.951
4586.170, 5709.653
4588.099, 5708.281
4590.027, 5716.709
4591.956, 5727.237
4593.884, 5689.335
4595.813, 5638.062
4597.741, 5632.365
4599.669, 5638.721
4601.598, 5643.811
4603.526, 5601.819
4605.455, 5580.729
4607.383, 5602.509
4609.312, 5651.832
4611.240, 5677.537
4613.169, 5643.669
4615.097, 5615.230
4617.025, 5597.599
4618.954, 5594.102
4620.883, 5585.661
4622.811, 5575.627
4624.739, 5585.815
4626.668, 5598.061
4628.597, 5607.033
4630.525, 5621.173
4632.453, 5610.128
4634.382, 5555.539
4636.311, 5536.990
4638.239, 5543.107
4640.167, 5568.906
4642.096, 5576.971
4644.024, 5564.756
4645.953, 5514.293
4647.881, 5514.233
4649.810, 5552.578
4651.738, 5505.177
4653.667, 5475.502
4655.595, 5503.924
4657.523, 5501.105
4659.452, 5502.549
4661.380, 5537.102
4663.309, 5504.855
4665.237, 5464.472
4667.166, 5495.452
4669.094, 5492.563
4671.022, 5471.699
4672.951, 5498.586
4674.880, 5507.478
4676.808, 5492.529
4678.736, 5475.955
4680.665, 5486.792
4682.594, 5525.334
4684.522, 5508.637
4686.450, 5481.625
4688.379, 5476.241
4690.308, 5462.000
4692.236, 5444.583
4694.164, 5428.172
4696.093, 5420.511
4698.021, 5418.661
4699.950, 5419.626
4701.878, 5414.211
4703.807, 5403.664
4705.735, 5391.391
4707.664, 5391.672
4709.592, 5404.303
4711.521, 5403.375
4713.449, 5403.437
4715.377, 5408.952
4717.306, 5416.216
4719.234, 5410.744
4721.163, 5379.019
4723.091, 5373.350
4725.020, 5375.284
4726.948, 5366.129
4728.877, 5373.743
4730.805, 5391.922
4732.733, 5431.520
4734.662, 5371.639
4736.591, 5277.031
4738.519, 5343.004
4740.447, 5367.770
4742.376, 5334.382
4744.305, 5286.444
4746.233, 5306.144
4748.161, 5397.021
4750.090, 5354.421
4752.019, 5315.121
4753.947, 5326.970
4755.875, 5311.781
4757.804, 5304.061
4759.732, 5326.807
4761.661, 5361.972
4763.589, 5367.560
4765.518, 5302.188
4767.446, 5300.028
4769.375, 5315.308
4771.303, 5282.563
4773.231, 5272.924
4775.160, 5271.303
4777.088, 5234.994
4779.017, 5242.409
4780.945, 5275.498
4782.874, 5272.978
4784.802, 5279.200
4786.730, 5297.427
4788.659, 5319.372
4790.588, 5324.537
4792.516, 5308.541
4794.444, 5261.125
4796.373, 5247.014
4798.302, 5275.756
4800.230, 5245.117
4802.158, 5206.030
4804.087, 5181.193
4806.016, 5209.436
4807.944, 5228.407
4809.872, 5206.266
4811.801, 5178.956
4813.729, 5178.583
4815.658, 5228.877
4817.586, 5190.058
4819.515, 5147.184
4821.443, 5175.974
4823.372, 5145.899
4825.300, 5101.387
4827.229, 5084.130
4829.157, 5113.323
4831.085, 5141.474
4833.014, 5106.002
4834.942, 5093.125
4836.871, 5101.426
4838.799, 5129.971
4840.728, 5114.708
4842.656, 5086.133
4844.585, 5096.561
4846.513, 5136.821
4848.441, 5174.575
4850.370, 5151.739
4852.299, 5108.912
4854.227, 5074.799
4856.155, 5104.076
4858.084, 5118.051
4860.013, 5109.794
4861.941, 5088.315
4863.869, 5077.792
4865.798, 5075.368
4867.727, 5060.673
4869.655, 5062.807
4871.583, 5074.731
4873.512, 5045.459
4875.440, 5033.204
4877.369, 5041.816
4879.297, 5044.995
4881.226, 5060.268
4883.154, 5079.789
4885.083, 5048.411
4887.011, 5029.892
4888.939, 5030.475
4890.868, 5006.670
4892.796, 5001.502
4894.725, 5019.331
4896.653, 5040.396
4898.582, 5037.921
4900.510, 5014.151
4902.438, 5011.721
4904.367, 5009.319
4906.296, 5004.645
4908.224, 5008.721
4910.152, 5023.286
4912.081, 5040.586
4914.010, 5020.359
4915.938, 4987.827
4917.866, 4958.423
4919.795, 4968.598
4921.724, 4977.554
4923.652, 4977.436
4925.580, 4982.878
4927.509, 4980.315
4929.438, 4966.819
4931.366, 4933.339
4933.294, 4919.634
4935.223, 4931.701
4937.151, 4973.594
4939.080, 5000.537
4941.008, 4992.024
4942.937, 4882.458
4944.865, 4867.067
4946.793, 4924.812
4948.722, 4925.542
4950.650, 4898.876
4952.579, 4868.247
4954.507, 4875.572
4956.436, 4879.763
4958.364, 4880.527
4960.293, 4893.869
4962.221, 4902.763
4964.149, 4906.189
4966.078, 4909.739
4968.007, 4897.246
4969.935, 4874.590
4971.863, 4849.968
4973.792, 4815.205
4975.721, 4801.512
4977.649, 4864.028
4979.577, 4886.823
4981.506, 4881.953
4983.435, 4867.161
4985.363, 4852.648
4987.291, 4837.898
4989.220, 4819.199
4991.148, 4823.796
4993.077, 4841.380
4995.005, 4866.236
4996.934, 4842.922
4998.862, 4834.752
5000.791, 4872.119
5002.719, 4854.743
5004.647, 4824.583
5006.576, 4803.067
5008.504, 4784.645
5010.433, 4794.674
5012.361, 4828.778
5014.290, 4796.624
5016.218, 4779.970
5018.146, 4792.142
5020.075, 4794.934
5022.004, 4773.200
5023.932, 4735.191
5025.860, 4711.610
5027.789, 4701.826
5029.718, 4707.374
5031.646, 4744.801
5033.574, 4742.804
5035.503, 4720.051
5037.432, 4710.549
5039.360, 4698.938
5041.288, 4697.402
5043.217, 4719.931
5045.146, 4749.246
5047.074, 4768.523
5049.002, 4764.908
5050.931, 4746.255
5052.859, 4740.525
5054.788, 4758.938
5056.716, 4745.029
5058.645, 4699.754
5060.573, 4642.510
5062.501, 4682.401
5064.430, 4697.804
5066.358, 4672.438
5068.287, 4666.809
5070.215, 4678.628
5072.144, 4695.939
5074.072, 4696.884
5076.001, 4694.576
5077.929, 4685.331
5079.857, 4663.810
5081.786, 4611.765
5083.715, 4592.718
5085.643, 4664.225
5087.571, 4658.977
5089.500, 4637.713
5091.429, 4638.230
5093.357, 4635.736
5095.285, 4638.023
5097.214, 4648.264
5099.143, 4681.707
5101.071, 4649.016
5102.999, 4580.237
5104.928, 4632.572
5106.856, 4662.681
5108.785, 4653.545
5110.713, 4594.833
5112.642, 4589.768
5114.570, 4603.191
5116.499, 4593.066
5118.427, 4609.665
5120.355, 4629.956
5122.284, 4636.732
5124.212, 4595.851
5126.141, 4565.221
5128.069, 4565.007
5129.998, 4584.750
5131.926, 4586.844
5133.854, 4573.923
5135.783, 4572.006
5137.712, 4580.229
5139.640, 4580.664
5141.568, 4540.176
5143.497, 4559.761
5145.426, 4579.335
5147.354, 4551.470
5149.282, 4550.507
5151.211, 4554.491
5153.140, 4554.288
5155.068, 4559.572
5156.996, 4544.416
5158.925, 4515.746
5160.854, 4504.622
5162.782, 4520.646
5164.710, 4545.021
5166.639, 4555.681
5168.567, 4520.917
5170.496, 4489.492
5172.424, 4496.216
5174.353, 4535.004
5176.281, 4540.904
5178.209, 4497.138
5180.138, 4448.545
5182.066, 4444.334
5183.995, 4462.832
5185.923, 4435.384
5187.852, 4432.845
5189.780, 4442.341
5191.709, 4442.700
5193.637, 4423.257
5195.565, 4414.408
5197.494, 4429.748
5199.423, 4440.395
5201.351, 4424.702
5203.279, 4388.186
5205.208, 4347.937
5207.137, 4370.153
5209.065, 4411.124
5210.993, 4411.796
5212.922, 4360.270
5214.851, 4346.586
5216.779, 4416.826
5218.707, 4425.613
5220.636, 4425.462
5222.564, 4428.404
5224.493, 4416.320
5226.421, 4409.068
5228.350, 4405.756
5230.278, 4403.536
5232.207, 4385.139
5234.135, 4369.494
5236.063, 4368.464
5237.992, 4392.676
5239.920, 4389.369
5241.849, 4364.821
5243.777, 4394.171
5245.706, 4359.688
5247.634, 4325.545
5249.563, 4404.910
5251.491, 4405.123
5253.420, 4383.179
5255.348, 4371.808
5257.276, 4356.425
5259.205, 4353.565
5261.134, 4357.931
5263.062, 4346.830
5264.990, 4343.894
5266.919, 4353.787
5268.848, 4382.422
5270.776, 4363.432
5272.704, 4350.939
5274.633, 4359.235
5276.562, 4351.299
5278.490, 4352.972
5280.418, 4372.489
5282.347, 4437.374
5284.275, 4392.844
5286.204, 4341.464
5288.132, 4345.079
5290.061, 4328.680
5291.989, 4347.215
5293.917, 4381.521
5295.846, 4357.427
5297.774, 4299.899
5299.703, 4275.437
5301.631, 4341.624
5303.560, 4362.063
5305.488, 4349.686
5307.417, 4317.318
5309.345, 4284.839
5311.273, 4253.195
5313.202, 4236.075
5315.131, 4247.962
5317.059, 4289.888
5318.987, 4319.926
5320.916, 4319.924
5322.845, 4294.684
5324.773, 4270.002
5326.701, 4253.622
5328.630, 4245.896
5330.559, 4301.192
5332.487, 4338.874
5334.415, 4321.313
5336.344, 4283.100
5338.272, 4271.604
5340.201, 4274.943
5342.129, 4257.277
5344.058, 4245.161
5345.986, 4239.040
5347.915, 4239.018
5349.843, 4259.237
5351.771, 4245.422
5353.700, 4204.635
5355.628, 4162.967
5357.557, 4212.125
5359.485, 4239.610
5361.414, 4187.217
5363.342, 4207.344
5365.271, 4221.434
5367.199, 4218.914
5369.128, 4212.664
5371.056, 4232.494
5372.984, 4246.814
5374.913, 4239.875
5376.842, 4232.554
5378.770, 4210.250
5380.698, 4183.549
5382.627, 4172.452
5384.556, 4166.373
5386.484, 4155.036
5388.412, 4143.561
5390.341, 4207.574
5392.270, 4203.313
5394.198, 4173.431
5396.126, 4198.152
5398.055, 4185.816
5399.983, 4161.842
5401.912, 4140.587
5403.840, 4116.317
5405.769, 4120.462
5407.697, 4129.328
5409.625, 4110.746
5411.554, 4165.420
5413.482, 4177.150
5415.411, 4140.683
5417.339, 4128.370
5419.268, 4141.036
5421.196, 4140.174
5423.125, 4107.383
5425.053, 4101.698
5426.981, 4120.281
5428.910, 4142.884
5430.839, 4139.031
5432.767, 4131.194
5434.695, 4133.364
5436.624, 4139.341
5438.553, 4085.040
5440.481, 4104.813
5442.409, 4142.550
5444.338, 4126.977
5446.267, 4070.449
5448.195, 4045.677
5450.123, 4049.700
5452.052, 4020.198
5453.980, 4036.013
5455.909, 4050.648
5457.837, 4043.127
5459.766, 4082.685
5461.694, 4090.020
5463.623, 4069.122
5465.551, 4042.542
5467.479, 4052.952
5469.408, 4064.609
5471.336, 4064.290
5473.265, 4049.198
5475.193, 4037.927
5477.122, 4042.956
5479.050, 4065.674
5480.979, 4080.361
5482.907, 4013.199
5484.836, 3951.375
5486.764, 3995.941
5488.692, 4014.707
5490.621, 4018.125
5492.550, 4011.703
5494.478, 3990.111
5496.406, 4021.585
5498.335, 4016.209
5500.264, 3947.468
5502.192, 3939.397
5504.120, 3937.662
5506.049, 3947.059
5507.978, 3977.748
5509.906, 3975.627
5511.834, 3988.579
5513.763, 4000.002
5515.691, 3970.101
5517.620, 3950.953
5519.548, 3960.535
5521.477, 3980.777
5523.405, 3941.638
5525.333, 3935.521
5527.262, 3943.081
5529.190, 3944.731
5531.119, 3906.514
5533.047, 3916.738
5534.976, 3935.808
5536.904, 3917.434
5538.833, 3888.620
5540.761, 3893.106
5542.689, 3912.940
5544.618, 3912.162
5546.547, 3896.290
5548.475, 3905.957
5550.403, 3933.111
5552.332, 3928.268
5554.261, 3919.180
5556.189, 3892.473
5558.117, 3854.850
5560.046, 3860.866
5561.975, 3868.887
5563.903, 3871.940
5565.831, 3865.145
5567.760, 3818.481
5569.688, 3787.393
5571.617, 3793.523
5573.545, 3836.624
5575.474, 3820.516
5577.402, 3801.573
5579.331, 3784.481
5581.259, 3756.893
5583.188, 3763.594
5585.116, 3790.613
5587.044, 3811.753
5588.973, 3790.870
5590.901, 3756.478
5592.830, 3749.741
5594.758, 3766.504
5596.687, 3770.591
5598.615, 3752.018
5600.544, 3748.504
5602.472, 3767.702
5604.400, 3785.098
5606.329, 3792.924
5608.258, 3798.707
5610.186, 3809.198
5612.114, 3845.315
5614.043, 3820.192
5615.972, 3805.983
5617.900, 3836.759
5619.828, 3816.471
5621.757, 3796.854
5623.686, 3775.052
5625.614, 3752.628
5627.542, 3799.357
5629.471, 3836.737
5631.399, 3840.742
5633.328, 3811.230
5635.256, 3793.906
5637.185, 3785.686
5639.113, 3784.399
5641.042, 3788.093
5642.970, 3783.722
5644.898, 3786.883
5646.827, 3781.762
5648.755, 3751.709
5650.684, 3760.345
5652.612, 3752.759
5654.541, 3757.916
5656.469, 3811.016
5658.397, 3790.267
5660.326, 3778.385
5662.255, 3770.686
5664.183, 3749.162
5666.111, 3784.217
5668.040, 3772.544
5669.969, 3755.191
5671.897, 3784.434
5673.825, 3742.806
5675.754, 3718.389
5677.683, 3726.293
5679.611, 3759.087
5681.539, 3769.435
5683.468, 3756.143
5685.396, 3759.041
5687.325, 3808.770
5689.253, 3780.244
5691.182, 3732.521
5693.110, 3707.091
5695.039, 3718.579
5696.967, 3668.379
5698.896, 3682.271
5700.824, 3705.534
5702.752, 3690.491
5704.681, 3720.183
5706.609, 3733.124
5708.538, 3728.866
5710.466, 3717.954
5712.395, 3717.222
5714.323, 3715.232
5716.252, 3705.408
5718.180, 3688.992
5720.108, 3680.362
5722.037, 3718.392
5723.966, 3716.030
5725.894, 3662.495
5727.822, 3662.149
5729.751, 3665.248
5731.680, 3653.971
5733.608, 3637.851
5735.536, 3648.371
5737.465, 3641.867
5739.394, 3618.986
5741.322, 3607.202
5743.250, 3642.751
5745.179, 3648.715
5747.107, 3650.136
5749.036, 3654.094
5750.964, 3657.202
5752.893, 3629.509
5754.821, 3632.313
5756.750, 3654.262
5758.678, 3668.576
5760.606, 3610.503
5762.535, 3620.088
5764.463, 3657.049
5766.392, 3672.329
5768.320, 3623.923
5770.249, 3661.102
5772.177, 3690.907
5774.105, 3669.075
5776.034, 3622.583
5777.963, 3614.728
5779.891, 3603.902
5781.819, 3604.269
5783.748, 3662.371
5785.677, 3596.725
5787.605, 3552.954
5789.533, 3562.279
5791.462, 3600.475
5793.391, 3566.055
5795.319, 3521.673
5797.247, 3560.978
5799.176, 3683.083
5801.104, 3609.880
5803.033, 3549.265
5804.961, 3525.742
5806.890, 3534.820
5808.818, 3578.138
5810.747, 3542.987
5812.675, 3546.802
5814.604, 3572.792
5816.532, 3531.462
5818.460, 3563.193
5820.389, 3560.698
5822.317, 3535.434
5824.246, 3521.852
5826.174, 3548.745
5828.103, 3556.712
5830.031, 3555.385
5831.960, 3548.466
5833.888, 3519.025
5835.816, 3564.783
5837.745, 3537.393
5839.674, 3482.333
5841.602, 3511.336
5843.530, 3550.227
5845.459, 3530.232
5847.388, 3483.368
5849.316, 3456.621
5851.244, 3512.174
5853.173, 3529.151
5855.102, 3508.851
5857.030, 3486.827
5858.958, 3512.217
5860.887, 3536.686
5862.815, 3502.310
5864.744, 3474.078
5866.672, 3511.420
5868.601, 3510.217
5870.529, 3504.052
5872.458, 3493.824
5874.386, 3490.292
5876.314, 3535.924
5878.243, 3524.500
5880.171, 3481.345
5882.100, 3453.116
5884.028, 3475.516
5885.957, 3499.375
5887.885, 3486.695
5889.813, 3465.284
5891.742, 3455.303
5893.671, 3459.613
5895.599, 3474.521
5897.527, 3464.268
5899.456, 3456.040
5901.385, 3477.684
5903.313, 3435.587
5905.241, 3455.811
5907.170, 3471.187
5909.099, 3459.202
5911.027, 3470.910
5912.955, 3468.100
5914.884, 3444.801
5916.813, 3431.379
5918.741, 3445.221
5920.669, 3429.361
5922.598, 3450.584
5924.526, 3475.765
5926.455, 3480.450
5928.383, 3460.354
5930.312, 3454.035
5932.240, 3447.803
5934.168, 3473.224
5936.097, 3517.517
5938.025, 3424.152
5939.954, 3385.839
5941.882, 3390.571
5943.811, 3399.095
5945.739, 3381.884
5947.668, 3389.818
5949.596, 3350.440
5951.524, 3338.189
5953.453, 3373.804
5955.382, 3412.370
5957.310, 3398.174
5959.238, 3423.281
5961.167, 3443.702
5963.096, 3418.038
5965.024, 3376.824
5966.952, 3389.498
5968.881, 3389.936
5970.810, 3376.095
5972.738, 3372.857
5974.666, 3365.023
5976.595, 3409.438
5978.523, 3410.920
5980.452, 3377.611
5982.380, 3405.152
5984.309, 3373.250
5986.237, 3384.360
5988.166, 3391.988
5990.094, 3375.050
5992.022, 3385.678
5993.951, 3383.932
5995.879, 3370.047
5997.808, 3369.496
5999.736, 3378.771
6001.665, 3305.722
6003.593, 3311.058
6005.521, 3325.440
6007.450, 3331.640
6009.379, 3340.102
6011.307, 3345.784
6013.235, 3329.841
6015.164, 3343.792
6017.093, 3352.442
6019.021, 3306.152
6020.949, 3351.388
6022.878, 3370.502
6024.807, 3359.989
6026.735, 3343.420
6028.663, 3341.478
6030.592, 3340.412
6032.521, 3352.810
6034.449, 3349.556
6036.377, 3323.767
6038.306, 3295.573
6040.234, 3350.347
6042.163, 3334.394
6044.091, 3320.392
6046.020, 3333.898
6047.948, 3319.807
6049.876, 3307.883
6051.805, 3340.439
6053.733, 3362.467
6055.662, 3353.250
6057.590, 3345.547
6059.519, 3314.091
6061.447, 3345.681
6063.376, 3336.746
6065.304, 3279.564
6067.232, 3291.422
6069.161, 3294.366
6071.090, 3280.258
6073.018, 3289.130
6074.946, 3305.852
6076.875, 3267.544
6078.804, 3275.235
6080.732, 3300.675
6082.660, 3300.080
6084.589, 3272.361
6086.518, 3253.069
6088.446, 3279.827
6090.374, 3297.212
6092.303, 3284.395
6094.231, 3271.506
6096.160, 3300.794
6098.088, 3283.359
6100.017, 3294.852
6101.945, 3264.382
6103.874, 3221.320
6105.802, 3241.067
6107.730, 3261.060
6109.659, 3281.278
6111.587, 3265.937
6113.516, 3243.844
6115.444, 3252.535
6117.373, 3257.425
6119.301, 3284.983
6121.229, 3287.222
6123.158, 3267.998
6125.087, 3251.912
6127.015, 3257.712
6128.943, 3245.755
6130.872, 3248.908
6132.801, 3257.946
6134.729, 3258.229
6136.657, 3248.124
6138.586, 3221.993
6140.515, 3219.792
6142.443, 3233.824
6144.371, 3251.753
6146.300, 3264.982
6148.229, 3240.827
6150.157, 3231.900
6152.085, 3248.024
6154.014, 3253.850
6155.942, 3215.663
6157.871, 3158.981
6159.799, 3201.833
6161.728, 3241.302
6163.656, 3228.745
6165.584, 3181.592
6167.513, 3167.832
6169.441, 3211.517
6171.370, 3208.126
6173.298, 3212.207
6175.227, 3232.563
6177.155, 3224.000
6179.084, 3235.840
6181.012, 3251.738
6182.940, 3236.633
6184.869, 3218.047
6186.798, 3218.886
6188.726, 3183.254
6190.654, 3194.143
6192.583, 3169.176
6194.512, 3183.188
6196.440, 3229.373
6198.368, 3202.667
6200.297, 3194.501
6202.226, 3231.921
6204.154, 3198.868
6206.082, 3159.237
6208.011, 3191.841
6209.939, 3225.286
6211.868, 3231.783
6213.796, 3208.987
6215.725, 3172.015
6217.653, 3159.910
6219.582, 3206.155
6221.510, 3238.678
6223.438, 3220.650
6225.367, 3208.326
6227.295, 3202.930
6229.224, 3188.722
6231.152, 3167.037
6233.081, 3144.589
6235.009, 3114.702
6236.938, 3128.305
6238.866, 3169.164
6240.795, 3185.429
6242.723, 3155.937
6244.651, 3123.513
6246.580, 3134.344
6248.509, 3167.452
6250.437, 3182.129
6252.365, 3156.019
6254.294, 3151.850
6256.223, 3175.660
6258.151, 3173.571
6260.079, 3167.739
6262.008, 3176.112
6263.937, 3173.531
6265.865, 3166.293
6267.793, 3173.331
6269.722, 3172.572
6271.650, 3169.042
6273.579, 3169.742
6275.507, 3156.045
6277.436, 3130.888
6279.364, 3150.109
6281.292, 3137.597
6283.221, 3115.096
6285.149, 3131.950
6287.078, 3152.574
6289.006, 3121.937
6290.935, 3084.656
6292.863, 3136.425
6294.792, 3174.539
6296.720, 3105.927
6298.648, 3166.852
6300.577, 3133.348
6302.506, 3135.286
6304.434, 3143.452
6306.362, 3140.463
6308.291, 3134.822
6310.220, 3107.030
6312.148, 3108.789
6314.076, 3097.470
6316.005, 3146.250
6317.934, 3177.236
6319.862, 3191.375
6321.790, 3138.239
6323.719, 3171.982
6325.647, 3170.904
6327.576, 3168.405
6329.504, 3143.378
6331.433, 3094.296
6333.361, 3088.055
6335.290, 3133.368
6337.218, 3149.488
6339.146, 3095.139
6341.075, 3061.915
6343.003, 3098.866
6344.932, 3092.935
6346.860, 3063.275
6348.789, 3108.466
6350.717, 3110.865
6352.646, 3075.286
6354.574, 3065.157
6356.503, 3108.655
6358.431, 3113.169
6360.359, 3077.636
6362.288, 3064.441
6364.217, 3069.925
6366.145, 3070.657
6368.073, 3064.184
6370.002, 3096.742
6371.931, 3108.004
6373.859, 3054.452
6375.787, 3050.944
6377.716, 3065.128
6379.645, 3038.472
6381.573, 3088.888
6383.501, 3072.791
6385.430, 3020.065
6387.358, 3037.468
6389.287, 3056.359
6391.215, 3040.199
6393.144, 3064.371
6395.072, 3093.724
6397.000, 3102.605
6398.929, 3086.548
6400.857, 3060.241
6402.786, 3060.810
6404.714, 3091.866
6406.643, 3076.340
6408.571, 3083.596
6410.500, 3069.994
6412.428, 3047.148
6414.356, 3032.073
6416.285, 3026.051
6418.214, 3023.321
6420.142, 3048.715
6422.070, 3053.302
6423.999, 3061.792
6425.928, 3025.350
6427.856, 3021.092
6429.784, 3083.602
6431.713, 3060.353
6433.642, 3030.084
6435.570, 2989.218
6437.498, 2994.461
6439.427, 3027.803
6441.355, 3055.605
6443.284, 3048.219
6445.212, 2977.849
6447.141, 3051.871
6449.069, 2982.343
6450.998, 3017.861
6452.926, 3041.210
6454.854, 2999.551
6456.783, 3002.099
6458.711, 3017.811
6460.640, 2968.109
6462.568, 2963.122
6464.497, 2982.413
6466.425, 2996.264
6468.354, 2991.923
6470.282, 2972.888
6472.211, 2979.729
6474.139, 2961.924
6476.067, 2957.557
6477.996, 2937.549
6479.925, 2951.399
6481.853, 2978.553
6483.781, 2956.329
6485.710, 2978.953
6487.639, 2985.934
6489.567, 2919.312
6491.495, 2931.833
6493.424, 2988.481
6495.353, 2993.398
6497.281, 2934.492
6499.209, 2960.218
6501.138, 2931.944
6503.066, 2934.155
6504.995, 2962.022
6506.923, 2947.737
6508.852, 2927.611
6510.780, 2950.230
6512.708, 2942.166
6514.637, 2907.697
6516.565, 2928.725
6518.494, 2974.312
6520.422, 2958.864
6522.351, 2910.186
6524.279, 2892.401
6526.208, 2918.088
6528.136, 2936.013
6530.064, 2905.469
6531.993, 2923.714
6533.922, 2940.887
6535.850, 2926.244
6537.778, 2922.532
6539.707, 2945.110
6541.636, 2877.512
6543.564, 2881.841
6545.492, 2891.219
6547.421, 2907.969
6549.350, 2893.701
6551.278, 2883.698
6553.206, 2901.548
6555.135, 2897.870
6557.063, 2869.217
6558.992, 2895.344
6560.920, 2901.924
6562.849, 2867.980
6564.777, 2887.172
6566.706, 2919.376
##END=



