##NAMES=Magnetoplumbite
##RRUFFID=R060074
##IDEAL CHEMISTRY=PbFe^3+^_12_O_19_
##LOCALITY=Langban, Filipstad, Varmland, Sweden
##OWNER=RRUFF
##SOURCE=University of Arizona Mineral Museum
##DESCRIPTION=Black granular and massive
##STATUS=The identification of this mineral has been confirmed by X-ray diffraction and chemical analysis
##URL=https://www.rruff.net/odr/rruff_sample/R060074
##MEASURED CHEMISTRY=Pb_1.00_(Fe^3+^_7.48_Mn^3+^_3.09_Ti_0.60_Mn^2+^_0.48_Al_0.23_Zn_0.12_)O_19_
##DIFFRACTION SAMPLE DESCRIPTION=Powder
##CELL PARAMETERS=a: 5.9074 b: 5.9074 c: 23.042 alpha: 90 beta: 90 gamma: 120 volume: 696.39 crystal system: hexagonal
##FILETYPE=Raman Processed
##RAMAN WAVELENGTH=780

83.78855, 369.7513
85.71702, 383.2427
87.64548, 394.9563
89.57395, 403.0192
91.50242, 399.8031
93.43089, 378.9706
95.35935, 339.8049
97.28782, 299.9692
99.21629, 266.2011
101.1448, 236.9858
103.0732, 211.1068
105.0017, 186.2976
106.9301, 160.9170
108.8586, 139.9134
110.7871, 122.9353
112.7155, 109.9366
114.6440, 100.7785
116.5725, 94.52023
118.5009, 89.47446
120.4294, 85.55036
122.3579, 82.10513
124.2863, 78.83151
126.2148, 76.27551
128.1433, 74.73537
130.0717, 73.93642
132.0002, 73.51059
133.9287, 73.46209
135.8571, 73.06902
137.7856, 71.98063
139.7141, 70.91637
141.6425, 70.12061
143.5710, 69.52015
145.4995, 69.03449
147.4279, 68.65473
149.3564, 68.34556
151.2849, 68.15330
153.2133, 67.93360
155.1418, 67.52942
157.0703, 67.15455
158.9987, 67.15578
160.9272, 67.42447
162.8557, 67.43839
164.7841, 67.02285
166.7126, 66.64958
168.6411, 66.41633
170.5695, 66.26531
172.4980, 66.27189
174.4265, 66.31863
176.3549, 66.04649
178.2834, 65.26427
180.2119, 64.71972
182.1403, 64.69619
184.0688, 64.69998
185.9973, 64.55203
187.9257, 64.23655
189.8542, 63.68794
191.7827, 62.84088
193.7111, 62.18607
195.6396, 61.84356
197.5681, 61.57401
199.4965, 61.26018
201.4250, 61.03897
203.3535, 61.08027
205.2819, 61.36799
207.2104, 61.47865
209.1389, 61.32908
211.0673, 61.11203
212.9958, 60.67650
214.9243, 60.34018
216.8527, 60.36386
218.7812, 60.61962
220.7097, 60.78130
222.6381, 60.78763
224.5666, 60.87617
226.4951, 61.20564
228.4235, 61.35936
230.3520, 60.89596
232.2805, 60.34824
234.2089, 60.28095
236.1374, 60.69539
238.0659, 61.01924
239.9943, 61.28945
241.9228, 61.36987
243.8513, 61.01797
245.7797, 60.74542
247.7082, 60.88561
249.6367, 61.28815
251.5651, 61.67551
253.4936, 62.06759
255.4221, 62.20146
257.3505, 61.97459
259.2790, 61.69483
261.2075, 61.37722
263.1359, 61.14285
265.0644, 61.14794
266.9929, 61.34118
268.9213, 61.47754
270.8498, 61.56497
272.7783, 61.44851
274.7067, 60.82491
276.6352, 60.41872
278.5637, 60.65007
280.4921, 61.10783
282.4206, 61.38592
284.3491, 61.47298
286.2775, 61.29071
288.2060, 60.74648
290.1345, 60.33376
292.0629, 60.10314
293.9914, 60.08733
295.9199, 60.58078
297.8483, 61.15688
299.7768, 61.11640
301.7053, 60.58146
303.6337, 60.19130
305.5622, 60.03292
307.4907, 59.95557
309.4191, 60.04219
311.3476, 60.07511
313.2761, 59.81049
315.2045, 59.49078
317.1330, 59.49668
319.0615, 59.80873
320.9899, 59.97417
322.9184, 59.86203
324.8469, 59.75254
326.7753, 59.65215
328.7038, 59.56705
330.6323, 59.55262
332.5607, 59.54099
334.4892, 59.41628
336.4177, 59.16933
338.3461, 58.96494
340.2746, 58.95360
342.2031, 58.72488
344.1315, 58.04348
346.0600, 57.43086
347.9885, 57.21213
349.9169, 57.15620
351.8454, 57.01406
353.7739, 56.79607
355.7023, 56.74760
357.6308, 57.00679
359.5593, 56.98995
361.4877, 56.54811
363.4162, 56.00599
365.3447, 55.32798
367.2731, 54.76020
369.2016, 54.63723
371.1301, 54.84970
373.0585, 54.85943
374.9870, 54.64727
376.9154, 54.45241
378.8439, 54.31860
380.7724, 54.15096
382.7008, 53.88017
384.6293, 53.58882
386.5578, 53.26823
388.4862, 52.99774
390.4147, 53.01568
392.3432, 53.28268
394.2716, 53.27398
396.2001, 52.87006
398.1286, 52.59847
400.0570, 52.72832
401.9855, 52.86559
403.9140, 52.89155
405.8424, 52.82558
407.7709, 52.62561
409.6994, 52.35409
411.6278, 52.26451
413.5563, 52.37923
415.4848, 52.31352
417.4132, 51.84225
419.3417, 51.47444
421.2702, 51.23063
423.1986, 51.23492
425.1271, 51.86540
427.0556, 52.62428
428.9840, 52.64330
430.9125, 52.07137
432.8410, 51.69385
434.7694, 51.61449
436.6979, 51.59736
438.6264, 51.66211
440.5548, 51.70900
442.4833, 51.66665
444.4118, 51.63888
446.3402, 51.69852
448.2687, 51.82644
450.1972, 52.08997
452.1256, 52.49424
454.0541, 52.58089
455.9826, 52.03827
457.9110, 51.68743
459.8395, 51.57225
461.7680, 51.61227
463.6964, 51.91327
465.6249, 52.23745
467.5534, 52.32254
469.4818, 52.34296
471.4103, 52.72146
473.3388, 53.49210
475.2672, 53.90210
477.1957, 53.80922
479.1242, 53.76651
481.0526, 53.78369
482.9811, 53.91868
484.9096, 54.37807
486.8380, 54.74093
488.7665, 54.60413
490.6950, 54.25409
492.6234, 54.17794
494.5519, 54.37719
496.4804, 54.76208
498.4088, 55.39275
500.3373, 55.76904
502.2658, 55.76283
504.1942, 55.69149
506.1227, 55.59906
508.0512, 55.57829
509.9796, 55.70500
511.9081, 55.88295
513.8365, 56.03074
515.7650, 56.13643
517.6935, 56.11820
519.6219, 55.99688
521.5504, 56.10844
523.4789, 56.56738
525.4073, 56.77353
527.3358, 56.34591
529.2643, 56.05061
531.1927, 56.15132
533.1212, 56.41106
535.0497, 56.75257
536.9781, 57.12043
538.9066, 57.42979
540.8351, 57.64567
542.7635, 57.68517
544.6920, 57.54768
546.6205, 57.49964
548.5490, 57.59178
550.4774, 57.73023
552.4059, 57.98769
554.3344, 58.17769
556.2628, 58.17410
558.1913, 58.09119
560.1198, 57.99343
562.0482, 57.97699
563.9767, 58.12580
565.9052, 58.39588
567.8336, 58.67790
569.7621, 58.98011
571.6906, 59.20195
573.6190, 59.17853
575.5475, 59.34403
577.4760, 59.83879
579.4044, 60.35131
581.3329, 60.87873
583.2614, 61.26672
585.1898, 61.23326
587.1183, 61.18390
589.0468, 61.66381
590.9752, 62.45330
592.9037, 62.85909
594.8322, 62.86546
596.7606, 62.98870
598.6891, 63.21907
600.6176, 63.53932
602.5460, 63.95029
604.4745, 64.47028
606.4030, 65.21207
608.3314, 65.88817
610.2599, 66.33156
612.1884, 66.64919
614.1168, 66.88311
616.0453, 67.08125
617.9738, 67.30020
619.9022, 67.47610
621.8307, 67.48590
623.7592, 67.32484
625.6876, 67.18559
627.6161, 67.09480
629.5446, 67.06985
631.4730, 67.15926
633.4015, 67.13966
635.3300, 66.92953
637.2584, 66.61197
639.1869, 66.18997
641.1154, 65.73628
643.0438, 65.27007
644.9723, 64.81075
646.9008, 64.35470
648.8292, 63.92270
650.7577, 63.62836
652.6862, 63.37646
654.6146, 62.73944
656.5431, 61.69770
658.4716, 60.87991
660.4000, 60.38885
662.3285, 59.94944
664.2570, 59.66671
666.1854, 59.26965
668.1139, 58.55273
670.0424, 57.82331
671.9708, 57.21980
673.8993, 56.72564
675.8278, 56.46288
677.7562, 56.22089
679.6847, 55.58585
681.6132, 54.71303
683.5416, 54.08100
685.4701, 53.67688
687.3986, 53.04523
689.3270, 52.03042
691.2555, 51.38056
693.1840, 51.49173
695.1124, 51.33606
697.0409, 50.65271
698.9694, 50.06080
700.8978, 49.78496
702.8263, 49.49917
704.7548, 49.06981
706.6832, 48.56584
708.6117, 47.94746
710.5402, 47.37194
712.4686, 47.05848
714.3971, 46.88299
716.3256, 46.50311
718.2540, 45.98845
720.1825, 45.88483
722.1110, 46.23970
724.0394, 46.27402
725.9679, 45.91908
727.8964, 45.62994
729.8248, 45.43125
731.7533, 45.29619
733.6818, 45.26740
735.6102, 45.11649
737.5387, 44.64566
739.4672, 44.30876
741.3956, 44.42013
743.3241, 44.54892
745.2526, 44.47010
747.1810, 44.37790
749.1095, 44.46728
751.0380, 44.57650
752.9664, 44.42651
754.8949, 44.14381
756.8234, 44.08755
758.7518, 44.18067
760.6803, 44.19383
762.6088, 44.18880
764.5372, 44.21175
766.4657, 44.23145
768.3942, 44.08776
770.3226, 43.72258
772.2511, 43.54257
774.1796, 43.70499
776.1080, 43.81709
778.0365, 43.75312
779.9650, 43.67927
781.8934, 43.62025
783.8218, 43.60566
785.7503, 43.70020
787.6788, 43.82556
789.6072, 43.84705
791.5357, 43.79103
793.4642, 43.77175
795.3926, 43.83589
797.3211, 44.02136
799.2496, 44.17771
801.1780, 43.98591
803.1065, 43.61376
805.0350, 43.61625
806.9634, 43.93763
808.8919, 44.04495
810.8204, 43.91290
812.7488, 43.75185
814.6773, 43.50553
816.6058, 43.46423
818.5342, 43.84570
820.4627, 43.95391
822.3912, 43.56246
824.3196, 43.36259
826.2481, 43.48738
828.1766, 43.70748
830.1050, 44.10518
832.0335, 44.36497
833.9620, 44.22317
835.8904, 44.05194
837.8189, 44.19461
839.7474, 44.29033
841.6758, 43.92018
843.6043, 43.59090
845.5328, 43.78455
847.4612, 43.96676
849.3897, 43.52238
851.3182, 42.91608
853.2466, 42.77270
855.1751, 42.88453
857.1036, 42.97156
859.0320, 43.05349
860.9605, 42.97451
862.8890, 42.73580
864.8174, 42.62921
866.7459, 42.65594
868.6744, 42.55970
870.6028, 42.35344
872.5313, 42.32032
874.4598, 42.47145
876.3882, 42.22215
878.3167, 41.47672
880.2452, 41.20457
882.1736, 41.61274
884.1021, 41.78484
886.0306, 41.53218
887.9590, 41.27721
889.8875, 41.09352
891.8160, 40.86472
893.7444, 40.43778
895.6729, 40.24638
897.6014, 40.60217
899.5298, 40.76827
901.4583, 40.41192
903.3868, 40.12881
905.3152, 40.24540
907.2437, 40.27906
909.1722, 39.84690
911.1006, 39.55426
913.0291, 39.87317
914.9576, 40.17421
916.8860, 40.03786
918.8145, 39.79205
920.7430, 39.67678
922.6714, 39.60472
924.5999, 39.44646
926.5284, 39.25039
928.4568, 39.05953
930.3853, 38.92519
932.3138, 38.93510
934.2422, 38.97678
936.1707, 38.88395
938.0992, 38.80015
940.0276, 38.99302
941.9561, 39.26312
943.8846, 39.18638
945.8130, 38.98067
947.7415, 39.23955
949.6700, 39.67569
951.5984, 39.42645
953.5269, 38.76509
955.4554, 38.50526
957.3839, 38.53082
959.3123, 38.54186
961.2408, 38.49725
963.1693, 38.31044
965.0977, 38.08866
967.0262, 38.00910
968.9547, 38.01747
970.8831, 38.04200
972.8116, 38.11188
974.7401, 38.31918
976.6685, 38.59138
978.5970, 38.45316
980.5255, 37.94184
982.4539, 37.68423
984.3824, 37.72616
986.3109, 37.91122
988.2393, 38.18113
990.1678, 38.38182
992.0963, 38.55952
994.0247, 38.63704
995.9532, 38.56858
997.8817, 38.40936
999.8101, 38.14764
1001.739, 38.17369
1003.667, 38.59037
1005.596, 38.66322
1007.524, 38.24298
1009.452, 38.09512
1011.381, 38.34482
1013.309, 38.43796
1015.238, 38.32134
1017.166, 38.11266
1019.095, 37.77097
1021.023, 37.67544
1022.952, 37.91997
1024.880, 37.94353
1026.809, 37.61800
1028.737, 37.55699
1030.666, 37.97088
1032.594, 38.10009
1034.522, 37.67578
1036.451, 37.54532
1038.379, 37.90342
1040.308, 38.11936
1042.236, 38.18318
1044.165, 38.18995
1046.093, 37.98941
1048.022, 37.99800
1049.950, 38.47255
1051.879, 38.54615
1053.807, 37.98620
1055.736, 37.61565
1057.664, 37.48857
1059.593, 37.47981
1061.521, 37.64795
1063.449, 37.96956
1065.378, 38.44905
1067.306, 38.46262
1069.235, 37.93876
1071.163, 37.67014
1073.092, 37.67502
1075.020, 37.66153
1076.949, 37.68699
1078.877, 37.73095
1080.806, 37.76244
1082.734, 37.65089
1084.663, 37.35485
1086.591, 37.24829
1088.520, 37.42722
1090.448, 37.67479
1092.376, 37.85125
1094.305, 37.70104
1096.233, 37.33236
1098.162, 37.24995
1100.090, 37.45634
1102.019, 37.52745
1103.947, 37.42615
1105.876, 37.68489
1107.804, 38.22298
1109.733, 38.01470
1111.661, 37.27124
1113.590, 37.14785
1115.518, 37.43980
1117.447, 37.53472
1119.375, 37.53854
1121.303, 37.58370
1123.232, 37.62453
1125.160, 37.52839
1127.089, 37.39801
1129.017, 37.46692
1130.946, 37.57067
1132.874, 37.54243
1134.803, 37.52741
1136.731, 37.52848
1138.660, 37.61131
1140.588, 38.05267
1142.517, 38.41022
1144.445, 38.26229
1146.374, 37.96614
1148.302, 37.59248
1150.230, 37.29389
1152.159, 37.39320
1154.087, 37.78325
1156.016, 38.27295
1157.944, 38.52019
1159.873, 38.45467
1161.801, 38.36739
1163.730, 38.32735
1165.658, 38.37349
1167.587, 38.51378
1169.515, 38.45551
1171.444, 38.12563
1173.372, 38.02156
1175.301, 38.28243
1177.229, 38.34326
1179.157, 38.07746
1181.086, 37.92465
1183.014, 37.92574
1184.943, 38.18308
1186.871, 38.66596
1188.800, 38.79988
1190.728, 38.70032
1192.657, 38.65651
1194.585, 38.55024
1196.514, 38.49563
1198.442, 38.54457
1200.371, 38.63593
1202.299, 38.64843
1204.228, 38.51518
1206.156, 38.45306
1208.084, 38.51588
1210.013, 38.55211
1211.941, 38.60019
1213.870, 38.68119
1215.798, 38.67189
1217.727, 38.66037
1219.655, 38.86375
1221.584, 39.06672
1223.512, 39.01038
1225.441, 38.82434
1227.369, 38.56110
1229.298, 38.48532
1231.226, 38.80788
1233.155, 39.04979
1235.083, 39.01311
1237.011, 38.96531
1238.940, 38.92643
1240.868, 38.93067
1242.797, 38.99107
1244.725, 39.07296
1246.654, 39.19304
1248.582, 39.27289
1250.511, 39.34436
1252.439, 39.27393
1254.368, 39.02245
1256.296, 39.10150
1258.225, 39.46598
1260.153, 39.47661
1262.082, 39.32108
1264.010, 39.50103
1265.938, 39.69098
1267.867, 39.62052
1269.795, 39.52252
1271.724, 39.43126
1273.652, 39.46928
1275.581, 39.73403
1277.509, 40.05985
1279.438, 40.44606
1281.366, 40.58475
1283.295, 40.28716
1285.223, 40.07146
1287.152, 40.11181
1289.080, 40.22313
1291.009, 40.37185
1292.937, 40.50344
1294.865, 40.60028
1296.794, 40.64098
1298.722, 40.67812
1300.651, 40.58470
1302.579, 40.35376
1304.508, 40.42608
1306.436, 40.70050
1308.365, 40.92006
1310.293, 41.00525
1312.222, 40.77250
1314.150, 40.61849
1316.079, 40.92452
1318.007, 41.20924
1319.936, 41.05286
1321.864, 40.95665
1323.792, 41.21516
1325.721, 41.32395
1327.649, 41.26686
1329.578, 41.17936
1331.506, 41.00202
1333.435, 41.02743
1335.363, 41.30217
1337.292, 41.25393
1339.220, 40.91923
1341.149, 41.09740
1343.077, 41.58466
1345.006, 41.80137
1346.934, 41.82322
1348.863, 41.81477
1350.791, 41.81253
1352.719, 41.60103
1354.648, 41.30856
1356.576, 41.21493
1358.505, 41.29082
1360.433, 41.35780
1362.362, 41.37113
1364.290, 41.50118
1366.219, 41.83178
1368.147, 42.16497
1370.076, 41.99433
1372.004, 41.55138
1373.933, 41.25648
1375.861, 41.03669
1377.790, 41.01588
1379.718, 41.22144
1381.646, 41.51710
1383.575, 41.76955
1385.503, 42.07058
1387.432, 42.21117
1389.360, 41.95811
1391.289, 41.86606
1393.217, 42.11784
1395.146, 42.21507
1397.074, 42.07986
1399.003, 42.14356
1400.931, 42.40191
1402.860, 42.26130
1404.788, 42.00130
1406.717, 41.96646
1408.645, 41.89763
1410.573, 41.83778
1412.502, 41.93944
1414.430, 42.31608
1416.359, 42.56703
1418.287, 42.48138
1420.216, 42.37356
1422.144, 42.32018
1424.073, 42.36932
1426.001, 42.41208
1427.930, 42.48326
1429.858, 42.52425
1431.787, 42.42603
1433.715, 42.51098
1435.644, 42.62856
1437.572, 42.47466
1439.500, 42.36877
1441.429, 42.65779
1443.357, 43.18187
1445.286, 43.17820
1447.214, 42.60751
1449.143, 42.41661
1451.071, 42.55367
1453.000, 42.69660
1454.928, 42.77502
1456.857, 42.81235
1458.785, 42.82739
1460.714, 42.67743
1462.642, 42.66006
1464.571, 42.74778
1466.499, 42.63209
1468.427, 42.70494
1470.356, 42.86774
1472.284, 42.61478
1474.213, 42.40519
1476.141, 42.62801
1478.070, 42.73647
1479.998, 42.63673
1481.927, 42.91436
1483.855, 43.17678
1485.784, 42.84630
1487.712, 42.60627
1489.641, 42.49610
1491.569, 42.35534
1493.498, 42.63944
1495.426, 42.99212
1497.354, 43.10270
1499.283, 43.05583
1501.211, 42.93325
1503.140, 42.89146
1505.068, 42.85323
1506.997, 42.87388
1508.925, 42.97370
1510.854, 42.88707
1512.782, 42.79003
1514.711, 42.90343
1516.639, 42.91703
1518.568, 42.94349
1520.496, 43.05737
1522.425, 43.02833
1524.353, 42.97512
1526.281, 42.98824
1528.210, 42.95551
1530.138, 42.88795
1532.067, 42.97262
1533.995, 43.15287
1535.924, 43.16637
1537.852, 43.14965
1539.781, 43.43555
1541.709, 43.56885
1543.638, 43.53231
1545.566, 43.62125
1547.495, 43.65204
1549.423, 43.77405
1551.352, 43.88685
1553.280, 43.79969
1555.208, 43.77357
1557.137, 43.78877
1559.065, 43.76009
1560.994, 43.77628
1562.922, 43.63957
1564.851, 43.46426
1566.779, 43.48813
1568.708, 43.58429
1570.636, 43.76133
1572.565, 43.84863
1574.493, 43.62440
1576.422, 43.54146
1578.350, 43.76221
1580.279, 43.84245
1582.207, 43.78120
1584.135, 43.63595
1586.064, 43.57320
1587.992, 43.76347
1589.921, 43.80994
1591.849, 43.73927
1593.778, 43.89366
1595.706, 44.12438
1597.635, 44.17121
1599.563, 44.14416
1601.492, 43.90629
1603.420, 43.68963
1605.349, 43.91113
1607.277, 44.14335
1609.205, 44.05719
1611.134, 43.83592
1613.062, 43.64719
1614.991, 43.74944
1616.919, 43.96505
1618.848, 43.82003
1620.776, 43.63541
1622.705, 43.95958
1624.633, 44.49410
1626.562, 44.47238
1628.490, 44.20953
1630.419, 44.29266
1632.347, 44.40658
1634.276, 44.26959
1636.204, 44.03385
1638.132, 43.90386
1640.061, 44.06765
1641.989, 44.34637
1643.918, 44.38137
1645.846, 44.26265
1647.775, 44.31258
1649.703, 44.39233
1651.632, 44.30036
1653.560, 44.10329
1655.489, 43.94930
1657.417, 44.09715
1659.346, 44.34172
1661.274, 44.47348
1663.203, 44.72405
1665.131, 44.70500
1667.059, 44.35624
1668.988, 44.23309
1670.916, 44.48542
1672.845, 44.70033
1674.773, 44.71836
1676.702, 44.69550
1678.630, 44.32729
1680.559, 44.01030
1682.487, 44.40165
1684.416, 44.81454
1686.344, 44.72028
1688.273, 44.46332
1690.201, 44.36524
1692.130, 44.62250
1694.058, 44.88625
1695.986, 44.62159
1697.915, 44.31702
1699.843, 44.34431
1701.772, 44.43726
1703.700, 44.51923
1705.629, 44.46870
1707.557, 44.25492
1709.486, 44.19542
1711.414, 44.39738
1713.343, 44.75023
1715.271, 44.86696
1717.200, 44.96318
1719.128, 45.22421
1721.057, 45.03589
1722.985, 44.63006
1724.913, 44.63548
1726.842, 44.85900
1728.770, 45.07284
1730.699, 44.93510
1732.627, 44.56974
1734.556, 44.45843
1736.484, 44.62064
1738.413, 44.66002
1740.341, 44.66884
1742.270, 44.66206
1744.198, 44.56426
1746.127, 44.60854
1748.055, 44.81495
1749.984, 44.96222
1751.912, 44.77526
1753.840, 44.61340
1755.769, 44.88052
1757.697, 44.91364
1759.626, 44.52126
1761.554, 44.14918
1763.483, 44.21438
1765.411, 44.54200
1767.340, 44.69938
1769.268, 44.65379
1771.197, 44.63131
1773.125, 44.60491
1775.054, 44.53264
1776.982, 44.77032
1778.911, 44.92113
1780.839, 44.88179
1782.767, 44.87050
1784.696, 44.74514
1786.624, 44.68499
1788.553, 44.57312
1790.481, 44.20372
1792.410, 43.97422
1794.338, 44.46178
1796.267, 45.03436
1798.195, 44.84193
1800.124, 44.70134
1802.052, 44.91836
1803.981, 44.83720
1805.909, 44.50467
1807.838, 44.22851
1809.766, 44.22102
1811.694, 44.46406
1813.623, 44.66787
1815.551, 44.70088
1817.480, 44.82120
1819.408, 45.08673
1821.337, 44.95414
1823.265, 44.62313
1825.194, 44.55580
1827.122, 44.65028
1829.051, 44.67084
1830.979, 44.64680
1832.908, 44.46609
1834.836, 44.38241
1836.765, 44.66912
1838.693, 45.03411
1840.621, 45.01014
1842.550, 44.85914
1844.478, 44.68537
1846.407, 44.42558
1848.335, 44.26913
1850.264, 44.22421
1852.192, 44.24432
1854.121, 44.23140
1856.049, 44.31583
1857.978, 44.44440
1859.906, 44.45835
1861.835, 44.40629
1863.763, 44.49116
1865.692, 44.72963
1867.620, 44.41832
1869.548, 43.89798
1871.477, 44.15252
1873.405, 44.52756
1875.334, 44.41943
1877.262, 44.25508
1879.191, 44.07945
1881.119, 43.82856
1883.048, 43.76999
1884.976, 43.56877
1886.905, 43.51800
1888.833, 43.86836
1890.762, 44.01633
1892.690, 44.24314
1894.619, 44.17708
1896.547, 43.71679
1898.475, 43.85374
1900.404, 44.02819
1902.332, 43.84180
1904.261, 43.94726
1906.189, 44.07663
1908.118, 43.81659
1910.046, 43.52495
1911.975, 43.67546
1913.903, 43.97993
1915.832, 44.02041
1917.760, 43.97389
1919.689, 43.91191
1921.617, 43.81646
1923.546, 43.88285
1925.474, 44.01790
1927.402, 43.90494
1929.331, 43.51846
1931.259, 43.27019
1933.188, 43.38745
1935.116, 43.34432
1937.045, 43.33755
1938.973, 43.70676
1940.902, 43.95715
1942.830, 43.79639
1944.759, 43.47765
1946.687, 43.36228
1948.616, 43.43095
1950.544, 43.45645
1952.473, 43.41071
1954.401, 43.25556
1956.329, 43.32428
1958.258, 43.66841
1960.186, 43.60548
1962.115, 43.28490
1964.043, 43.31134
1965.972, 43.47316
1967.900, 43.28144
1969.829, 43.11170
1971.757, 43.30271
1973.686, 43.34002
1975.614, 43.20938
1977.543, 43.15740
1979.471, 43.23183
1981.400, 43.24961
1983.328, 43.16605
1985.256, 42.96761
1987.185, 42.89867
1989.113, 43.14716
1991.042, 42.90113
1992.970, 42.53706
1994.899, 42.85473
1996.827, 43.04242
1998.756, 42.85418
2000.684, 42.70210
2002.613, 42.60963
2004.541, 42.57634
2006.470, 42.51809
2008.398, 42.55497
2010.327, 42.68559
2012.255, 42.82612
2014.183, 42.69983
2016.112, 42.35777
2018.040, 42.23341
2019.969, 42.31925
2021.897, 42.38570
2023.826, 42.49199
2025.754, 42.70831
2027.683, 42.62883
2029.611, 42.09666
2031.540, 41.84814
2033.468, 42.09753
2035.397, 42.34692
2037.325, 42.00182
2039.254, 41.63605
2041.182, 41.92739
2043.110, 42.11049
2045.039, 42.02571
2046.967, 42.18678
2048.896, 42.30598
2050.824, 42.23024
2052.753, 42.15572
2054.681, 41.92518
2056.610, 41.73441
2058.538, 41.75454
2060.467, 41.85072
2062.395, 41.87650
2064.323, 41.90629
2066.252, 41.91876
2068.180, 41.76954
2070.109, 41.86093
2072.037, 41.83867
2073.966, 41.51970
2075.894, 41.56922
2077.823, 41.66993
2079.751, 41.63790
2081.680, 41.75301
2083.608, 41.77435
2085.537, 41.51710
2087.465, 41.51407
2089.394, 41.55891
2091.322, 41.41673
2093.250, 41.38919
2095.179, 41.44590
2097.107, 41.06328
2099.036, 40.77596
2100.964, 40.90575
2102.893, 40.83672
2104.821, 40.76427
2106.750, 40.98211
2108.678, 41.27309
2110.607, 41.18412
2112.535, 41.07179
2114.464, 41.07109
2116.392, 40.93569
2118.321, 41.01634
2120.249, 41.14026
2122.177, 41.12930
2124.106, 41.10493
2126.034, 40.95145
2127.963, 40.92454
2129.891, 40.95097
2131.820, 40.67551
2133.748, 40.77947
2135.677, 40.75669
2137.605, 40.25880
2139.534, 40.30651
2141.462, 40.39270
2143.391, 40.19348
2145.319, 40.11940
2147.248, 39.97941
2149.176, 40.18103
2151.104, 40.47297
2153.033, 40.54467
2154.961, 40.55640
2156.890, 40.24993
2158.818, 39.72546
2160.747, 39.66306
2162.675, 39.91737
2164.604, 40.01341
2166.532, 39.92608
2168.461, 39.81565
2170.389, 39.93739
2172.318, 39.76017
2174.246, 39.59264
2176.175, 39.73549
2178.103, 39.85725
2180.031, 39.80779
2181.960, 39.72881
2183.888, 39.52988
2185.817, 39.16285
2187.745, 39.25843
2189.674, 39.44907
2191.602, 39.57448
2193.531, 39.60284
2195.459, 39.48121
2197.388, 39.31680
2199.316, 39.14972
2201.245, 39.05982
2203.173, 38.98475
2205.102, 39.01932
2207.030, 39.14164
2208.958, 39.39185
2210.887, 39.42934
2212.815, 38.87727
2214.744, 38.57850
2216.672, 38.89032
2218.601, 39.02885
2220.529, 38.83568
2222.458, 38.77654
2224.386, 38.57740
2226.315, 38.40974
2228.243, 38.75344
2230.172, 38.77829
2232.100, 38.47572
2234.029, 38.53719
2235.957, 38.69664
2237.885, 38.57384
2239.814, 38.50616
2241.742, 38.40153
2243.671, 38.30193
2245.599, 38.20369
2247.528, 38.13285
2249.456, 38.26130
2251.385, 38.37554
2253.313, 38.37494
2255.242, 38.00631
2257.170, 37.81720
2259.099, 38.12704
2261.027, 38.13578
2262.956, 38.07682
2264.884, 38.15914
2266.813, 37.82271
2268.741, 37.48253
2270.669, 37.45232
2272.598, 37.28128
2274.526, 37.30561
2276.455, 37.60435
2278.383, 37.57412
2280.312, 37.27359
2282.240, 37.33039
2284.169, 37.70755
2286.097, 37.60359
2288.026, 37.56400
2289.954, 37.60946
2291.883, 37.48201
2293.811, 37.48819
2295.740, 37.44050
2297.668, 37.19193
2299.596, 37.36762
2301.525, 37.61910
2303.453, 37.29383
2305.382, 36.75047
2307.310, 36.60023
2309.239, 36.43085
2311.167, 36.26683
2313.096, 36.47251
2315.024, 36.79058
2316.953, 36.72241
2318.881, 36.43317
2320.810, 36.36109
2322.738, 36.16270
2324.667, 36.18152
2326.595, 36.60028
2328.523, 36.56656
2330.452, 36.23077
2332.380, 36.00301
2334.309, 35.88000
2336.237, 35.78114
2338.166, 35.67261
2340.094, 35.94289
2342.023, 36.19051
2343.951, 36.04269
2345.880, 35.94142
2347.808, 35.49375
2349.737, 35.22218
2351.665, 35.24703
2353.594, 34.97795
2355.522, 34.93493
2357.450, 35.23125
2359.379, 35.19307
2361.307, 35.12509
2363.236, 35.45346
2365.164, 35.61583
2367.093, 35.25328
2369.021, 35.00717
2370.950, 34.90751
2372.878, 35.13465
2374.807, 35.26459
2376.735, 34.93719
2378.664, 34.70129
2380.592, 34.91645
2382.521, 35.18300
2384.449, 34.90294
2386.377, 34.48950
2388.306, 34.38737
2390.234, 34.59221
2392.163, 34.69349
2394.091, 34.52023
2396.020, 34.25305
2397.948, 34.19641
2399.877, 34.29897
2401.805, 34.37222
2403.734, 34.29988
2405.662, 34.29448
2407.591, 34.18226
2409.519, 34.01470
2411.448, 33.91217
2413.376, 33.82365
2415.304, 33.74722
2417.233, 33.44302
2419.161, 33.30746
2421.090, 33.37111
2423.018, 33.50971
2424.947, 33.84866
2426.875, 33.63981
2428.804, 33.29808
2430.732, 33.25877
2432.661, 32.97558
2434.589, 32.80083
2436.518, 32.72104
2438.446, 32.55610
2440.375, 32.53702
2442.303, 32.83324
2444.231, 33.13578
2446.160, 33.06684
2448.088, 32.64989
2450.017, 32.57589
2451.945, 32.43375
2453.874, 32.27978
2455.802, 32.08741
2457.731, 31.94419
2459.659, 32.11755
2461.588, 32.38406
2463.516, 32.35498
2465.445, 31.68655
2467.373, 31.26977
2469.302, 31.89269
2471.230, 31.82957
2473.158, 31.25757
2475.087, 31.42512
2477.015, 31.48053
2478.944, 31.41477
2480.872, 31.50508
2482.801, 31.37509
2484.729, 31.13724
2486.658, 31.47394
2488.586, 31.89357
2490.515, 31.57273
2492.443, 31.40759
2494.372, 31.40426
2496.300, 31.24448
2498.229, 30.91275
2500.157, 30.73833
2502.085, 30.76018
2504.014, 30.68572
2505.942, 30.58263
2507.871, 30.45429
2509.799, 30.20695
2511.728, 30.11661
2513.656, 30.44977
2515.585, 30.66788
2517.513, 30.22554
2519.442, 30.04438
2521.370, 30.05158
2523.299, 29.86886
2525.227, 29.83743
2527.156, 29.87634
2529.084, 29.97742
2531.012, 29.72475
2532.941, 29.64273
2534.869, 29.81589
2536.798, 29.76983
2538.726, 29.48450
2540.655, 29.23373
2542.583, 29.25977
2544.512, 29.48186
2546.440, 29.44838
2548.369, 29.38478
2550.297, 29.34028
2552.226, 29.25577
2554.154, 29.31764
2556.083, 29.11959
2558.011, 28.93335
2559.939, 28.90766
2561.868, 28.83494
2563.796, 28.68518
2565.725, 28.45680
2567.653, 28.33910
2569.582, 28.81824
2571.510, 28.62775
2573.439, 28.43331
2575.367, 28.44128
2577.296, 28.40910
2579.224, 28.42183
2581.153, 28.43442
2583.081, 28.21061
2585.010, 27.96137
2586.938, 27.82529
2588.866, 27.57340
2590.795, 27.76903
2592.723, 27.88758
2594.652, 27.81995
2596.580, 27.76207
2598.509, 27.51719
2600.437, 27.49791
2602.366, 27.50588
2604.294, 27.12428
2606.223, 27.06458
2608.151, 26.96991
2610.080, 27.09006
2612.008, 27.30278
2613.937, 26.90893
2615.865, 26.69736
2617.793, 26.84739
2619.722, 26.86598
2621.650, 27.01400
2623.579, 26.71327
2625.507, 26.07345
2627.436, 26.02180
2629.364, 26.01421
2631.293, 26.18270
2633.221, 26.05808
2635.150, 26.13172
2637.078, 26.28438
2639.007, 25.94775
2640.935, 26.12640
2642.864, 26.34981
2644.792, 25.89730
2646.720, 25.71903
2648.649, 25.52719
2650.577, 25.55000
2652.506, 25.64746
2654.434, 25.44316
2656.363, 25.54224
2658.291, 25.37573
2660.220, 25.07889
2662.148, 24.91880
2664.077, 24.80033
2666.005, 24.95407
2667.934, 25.25123
2669.862, 24.96358
2671.791, 24.58924
2673.719, 24.62684
2675.647, 24.34002
2677.576, 24.22238
2679.504, 24.47750
2681.433, 24.40441
2683.361, 24.42334
2685.290, 24.52718
2687.218, 24.26978
2689.147, 24.00131
2691.075, 23.93494
2693.004, 24.19993
2694.932, 24.30780
2696.861, 23.97893
2698.789, 23.80629
2700.718, 23.61939
2702.646, 23.49115
2704.574, 23.24700
2706.503, 23.14389
2708.431, 23.31853
2710.360, 23.22801
2712.288, 23.18109
2714.217, 23.19444
2716.145, 22.96170
2718.074, 22.85689
2720.002, 22.69829
2721.931, 22.30844
2723.859, 22.45370
2725.788, 22.64967
2727.716, 22.44199
2729.645, 22.15593
2731.573, 22.01295
2733.501, 22.00736
2735.430, 22.09151
2737.358, 22.19956
2739.287, 22.04095
2741.215, 21.85149
2743.144, 22.00977
2745.072, 22.06323
2747.001, 21.71096
2748.929, 21.67332
2750.858, 21.59446
2752.786, 21.17338
2754.715, 21.02939
2756.643, 20.94873
2758.572, 20.72136
2760.500, 21.14189
2762.428, 21.85292
2764.357, 21.09248
2766.285, 20.36431
2768.214, 21.28230
2770.142, 21.12633
2772.071, 20.80632
2773.999, 20.98300
2775.928, 20.90418
2777.856, 20.77150
2779.785, 20.38121
2781.713, 20.00917
2783.642, 20.19337
2785.570, 20.10755
2787.499, 19.90521
2789.427, 19.69487
2791.355, 19.63594
2793.284, 19.70633
2795.212, 19.45821
2797.141, 19.24718
2799.069, 19.59258
2800.998, 20.04043
2802.926, 19.29784
2804.855, 18.99102
2806.783, 19.55997
2808.712, 19.49379
2810.640, 19.17884
2812.569, 19.02296
2814.497, 18.76371
2816.426, 18.81428
2818.354, 18.96513
2820.282, 18.85856
2822.211, 18.77507
2824.139, 18.64219
2826.068, 18.61332
2827.996, 18.61572
2829.925, 18.33285
2831.853, 17.98798
2833.782, 17.95158
2835.710, 17.99492
2837.639, 17.93348
2839.567, 17.38085
2841.496, 17.40872
2843.424, 17.72152
2845.353, 17.90632
2847.281, 17.53784
2849.209, 17.23036
2851.138, 17.27126
2853.066, 17.18999
2854.995, 17.09123
2856.923, 17.05417
2858.852, 17.12111
2860.780, 17.09136
2862.709, 17.10666
2864.637, 16.95514
2866.566, 17.01963
2868.494, 16.87998
2870.423, 16.64336
2872.351, 16.90694
2874.280, 16.86377
2876.208, 16.34298
2878.136, 16.29212
2880.065, 16.23211
2881.993, 16.11992
2883.922, 15.96733
2885.850, 16.22579
2887.779, 16.25958
2889.707, 15.96089
2891.636, 15.93741
2893.564, 15.79134
2895.493, 15.60659
2897.421, 15.81783
2899.350, 15.68430
2901.278, 15.69991
2903.207, 15.96961
2905.135, 15.89325
2907.063, 15.65583
2908.992, 15.42458
2910.920, 14.93762
2912.849, 15.23898
2914.777, 15.44843
2916.706, 15.04081
2918.634, 15.39502
2920.563, 15.18503
2922.491, 14.51483
2924.420, 15.59642
2926.348, 15.41562
2928.277, 14.59743
2930.205, 14.36699
2932.134, 14.62856
2934.062, 14.57978
2935.990, 13.98993
2937.919, 13.97260
2939.847, 14.02171
2941.776, 14.12283
2943.704, 14.12524
2945.633, 13.89820
2947.561, 13.72025
2949.490, 13.73459
2951.418, 13.73478
2953.347, 13.70042
2955.275, 13.81026
2957.204, 13.59133
2959.132, 13.50848
2961.061, 13.52354
2962.989, 13.37067
2964.917, 13.10410
2966.846, 13.07826
2968.774, 13.10268
2970.703, 13.21824
2972.631, 13.22917
2974.560, 12.94219
2976.488, 12.47081
2978.417, 12.76922
2980.345, 12.79225
2982.274, 12.66056
2984.202, 12.88095
2986.131, 12.61408
2988.059, 12.47668
2989.988, 12.36496
2991.916, 12.53522
2993.844, 12.60058
2995.773, 12.47211
2997.701, 12.23513
2999.630, 12.08935
3001.558, 12.06954
3003.487, 12.04709
3005.415, 11.78965
3007.344, 11.63000
3009.272, 11.78131
3011.201, 11.87652
3013.129, 11.70924
3015.058, 11.43783
3016.986, 11.09610
3018.915, 11.38705
3020.843, 11.38725
3022.771, 11.32969
3024.700, 11.38932
3026.628, 11.11752
3028.557, 11.20214
3030.485, 11.29420
3032.414, 11.07345
3034.342, 10.95815
3036.271, 10.92613
3038.199, 10.90784
3040.128, 10.98388
3042.056, 10.64045
3043.985, 10.48952
3045.913, 10.52504
3047.842, 10.62716
3049.770, 10.51922
3051.698, 10.40899
3053.627, 10.42896
3055.555, 9.938581
3057.484, 9.868755
3059.412, 10.18373
3061.341, 10.16479
3063.269, 10.10255
3065.198, 9.926894
3067.126, 9.727635
3069.055, 9.900042
3070.983, 9.917570
3072.912, 9.770156
3074.840, 9.612700
3076.769, 9.772080
3078.697, 9.983186
3080.625, 10.03856
3082.554, 9.897182
3084.482, 9.564862
3086.411, 9.389791
3088.339, 9.537075
3090.268, 9.378933
3092.196, 9.133761
3094.125, 9.062659
3096.053, 9.202907
3097.982, 8.755019
3099.910, 8.660925
3101.839, 8.818637
3103.767, 9.206748
3105.696, 9.065653
3107.624, 8.815749
3109.552, 8.734167
3111.481, 8.830359
3113.409, 8.719422
3115.338, 8.593340
3117.266, 8.564968
3119.195, 8.549192
3121.123, 8.817793
3123.052, 8.773923
3124.980, 8.410091
3126.909, 8.162961
3128.837, 8.221388
3130.766, 8.286121
3132.694, 8.159739
3134.623, 8.075782
3136.551, 8.040732
3138.479, 8.048299
3140.408, 7.865365
3142.336, 7.707812
3144.265, 7.748679
3146.193, 7.857872
3148.122, 7.871219
3150.050, 7.775424
3151.979, 7.612066
3153.907, 7.607135
3155.836, 8.118323
3157.764, 7.742906
3159.693, 7.430221
3161.621, 7.479866
3163.550, 7.683115
3165.478, 7.511769
3167.406, 7.296068
3169.335, 7.228397
3171.263, 6.977561
3173.192, 7.121594
3175.120, 7.139379
3177.049, 6.999546
3178.977, 7.318038
3180.906, 7.040573
3182.834, 6.747766
3184.763, 6.725044
3186.691, 6.726502
3188.620, 6.639586
3190.548, 6.731443
3192.477, 6.875653
3194.405, 6.674818
3196.333, 6.367840
3198.262, 6.360395
3200.190, 6.601677
3202.119, 6.302297
3204.047, 6.517873
3205.976, 6.611951
3207.904, 6.372592
3209.833, 6.323905
3211.761, 6.041525
3213.690, 5.963613
3215.618, 6.194518
3217.547, 6.062616
3219.475, 6.159793
3221.404, 6.127642
3223.332, 5.829606
3225.260, 6.071016
3227.189, 5.698354
3229.117, 5.397774
3231.046, 5.483389
3232.974, 6.054949
3234.903, 5.593092
3236.831, 5.464129
3238.760, 5.624488
3240.688, 5.211793
3242.617, 5.508681
3244.545, 5.504331
3246.474, 5.226714
3248.402, 5.403120
3250.331, 5.348384
3252.259, 5.180106
3254.187, 4.994822
3256.116, 4.966538
3258.044, 5.007493
3259.973, 5.072572
3261.901, 5.150937
3263.830, 5.270875
3265.758, 5.304091
3267.687, 5.211267
3269.615, 5.040998
3271.543, 4.964209
3273.472, 4.996011
3275.400, 5.087270
3277.329, 5.202243
3279.257, 5.271319
3281.186, 5.015089
3283.114, 5.037095
3285.043, 5.040922
3286.971, 4.890610
3288.900, 4.803486
3290.828, 5.114261
3292.757, 4.908678
3294.685, 4.567200
3296.614, 4.769937
3298.542, 4.691672
3300.470, 4.638875
3302.399, 4.648920
3304.327, 4.682270
3306.256, 4.712242
3308.184, 4.700112
3310.113, 4.674139
3312.041, 4.634542
3313.970, 4.441152
3315.898, 4.698275
3317.827, 4.715929
3319.755, 4.483456
3321.684, 4.424334
3323.612, 4.652122
3325.541, 4.577492
3327.469, 4.464694
3329.397, 4.575072
3331.326, 4.443543
3333.254, 4.242002
3335.183, 4.320735
3337.111, 4.603219
3339.040, 4.517075
3340.968, 4.428322
3342.897, 4.183407
3344.825, 4.066664
3346.754, 4.483084
3348.682, 3.856804
3350.611, 4.124804
3352.539, 4.356137
3354.468, 3.949113
3356.396, 3.961018
3358.324, 4.198184
3360.253, 4.057317
3362.181, 3.874557
3364.110, 4.284656
3366.038, 3.791477
3367.967, 3.790156
3369.895, 4.118323
3371.824, 4.324258
3373.752, 4.003615
3375.681, 4.055661
3377.609, 4.063862
3379.538, 4.014520
3381.466, 4.062967
3383.395, 3.708627
3385.323, 3.886074
3387.251, 4.031010
3389.180, 3.784029
3391.108, 3.732397
3393.037, 3.591639
3394.965, 3.545115
3396.894, 3.558259
3398.822, 3.538742
3400.751, 3.587610
3402.679, 3.855680
3404.608, 3.810054
3406.536, 3.415773
3408.465, 3.441416
3410.393, 3.459754
3412.322, 3.726249
3414.250, 3.815593
3416.178, 3.393252
3418.107, 3.355403
3420.035, 3.385892
3421.964, 3.704464
3423.892, 3.925444
3425.821, 3.390212
3427.749, 3.560694
3429.678, 3.625338
3431.606, 3.550040
3433.535, 3.420687
3435.463, 3.221123
3437.392, 3.190023
3439.320, 3.380044
3441.249, 3.469422
3443.177, 3.296944
3445.105, 3.361617
3447.034, 3.263385
3448.962, 3.330402
3450.891, 3.379330
3452.819, 3.123714
3454.748, 3.108554
3456.676, 3.231940
3458.605, 3.220838
3460.533, 3.164421
3462.462, 3.309750
3464.390, 3.223337
3466.319, 3.194025
3468.247, 3.212991
3470.176, 3.151311
3472.104, 2.828081
3474.032, 3.251633
3475.961, 3.293751
3477.889, 3.149155
3479.818, 3.041571
3481.746, 2.735479
3483.675, 3.014611
3485.603, 3.091087
3487.532, 2.924692
3489.460, 2.778981
3491.389, 3.115029
3493.317, 2.989414
3495.246, 2.878500
3497.174, 2.937023
3499.103, 3.047261
3501.031, 2.829553
3502.959, 2.891656
3504.888, 2.663414
3506.816, 2.569303
3508.745, 2.819343
3510.673, 2.774483
3512.602, 2.757595
3514.530, 2.446468
3516.459, 2.377347
3518.387, 2.706441
3520.316, 2.692583
3522.244, 2.714573
3524.173, 2.757906
3526.101, 2.738026
3528.030, 2.626044
3529.958, 2.474673
3531.886, 2.498655
3533.815, 2.540716
3535.743, 2.392492
3537.672, 2.154286
3539.600, 2.179159
3541.529, 2.351318
3543.457, 2.428022
3545.386, 2.386016
3547.314, 2.352221
3549.243, 2.466269
3551.171, 2.305600
3553.100, 2.327580
3555.028, 2.420726
3556.957, 2.470670
3558.885, 2.428858
3560.813, 2.124503
3562.742, 2.315619
3564.670, 2.240895
3566.599, 2.078535
3568.527, 2.161652
3570.456, 2.210911
3572.384, 2.564527
3574.313, 2.461328
3576.241, 2.356681
3578.170, 2.353077
3580.098, 1.860005
3582.027, 2.114278
3583.955, 2.208980
3585.884, 2.131220
3587.812, 2.107583
3589.740, 2.221912
3591.669, 1.793091
3593.597, 2.053534
3595.526, 2.203893
3597.454, 2.176208
3599.383, 2.136500
3601.311, 1.980874
3603.240, 2.169988
3605.168, 2.313240
3607.097, 2.254748
3609.025, 2.069481
3610.954, 1.911867
3612.882, 1.826266
3614.811, 2.026442
3616.739, 2.080030
3618.667, 1.952279
3620.596, 1.778300
3622.524, 1.599183
3624.453, 1.953406
3626.381, 2.187734
3628.310, 2.181739
3630.238, 1.987972
3632.167, 1.719061
3634.095, 1.839234
3636.024, 1.886485
3637.952, 1.868874
3639.881, 1.811286
3641.809, 1.801113
3643.738, 1.982115
3645.666, 1.948730
3647.594, 1.755517
3649.523, 1.686748
3651.451, 1.674671
3653.380, 1.624740
3655.308, 1.703220
3657.237, 1.880806
3659.165, 1.750831
3661.094, 1.752799
3663.022, 1.853958
3664.951, 1.783622
3666.879, 1.692685
3668.808, 1.641828
3670.736, 1.625460
3672.665, 1.613698
3674.593, 1.679743
3676.521, 1.857887
3678.450, 1.834583
3680.378, 1.572320
3682.307, 1.465673
3684.235, 1.588347
3686.164, 1.735093
3688.092, 1.687556
3690.021, 1.564481
3691.949, 1.512913
3693.878, 1.559462
3695.806, 1.678223
3697.735, 1.597975
3699.663, 1.132788
3701.592, 1.279271
3703.520, 1.429764
3705.448, 1.486177
3707.377, 1.447536
3709.305, 1.396957
3711.234, 1.434333
3713.162, 1.574272
3715.091, 1.186051
3717.019, 1.312630
3718.948, 1.522813
3720.876, 1.439669
3722.805, 1.192846
3724.733, 1.304777
3726.662, 1.444207
3728.590, 1.338798
3730.519, 1.307654
3732.447, 1.352367
3734.375, 1.372044
3736.304, 1.453634
3738.232, 1.111609
3740.161, 1.335446
3742.089, 1.357053
3744.018, 1.301238
3745.946, 1.370607
3747.875, 1.354785
3749.803, 1.254031
3751.732, 1.336541
3753.660, 1.249774
3755.589, 1.072931
3757.517, 1.081134
3759.446, 1.315822
3761.374, 1.253350
3763.302, 0.9465045
3765.231, 0.9166864
3767.159, 1.034475
3769.088, 1.156894
3771.016, 1.289072
3772.945, 1.490605
3774.873, 1.059519
3776.802, 1.111179
3778.730, 1.194245
3780.659, 1.248842
3782.587, 1.269684
3784.516, 1.211259
3786.444, 1.097476
3788.373, 1.385053
3790.301, 1.022536
3792.229, 0.9127415
3794.158, 1.107602
3796.086, 1.265327
3798.015, 1.192037
3799.943, 1.015413
3801.872, 1.278707
3803.800, 1.161210
3805.729, 0.8931420
3807.657, 0.8705990
3809.586, 1.041907
3811.514, 1.092796
3813.443, 1.112277
3815.371, 1.018483
3817.300, 0.9299054
3819.228, 1.104295
3821.156, 1.234851
3823.085, 1.103152
3825.013, 0.9115617
3826.942, 1.024061
3828.870, 1.045970
3830.799, 0.8269863
3832.727, 0.8059868
3834.656, 0.8774092
3836.584, 0.9035494
3838.513, 0.9580358
3840.441, 1.007754
3842.370, 0.7144030
3844.298, 0.9386770
3846.227, 0.8950142
3848.155, 0.7815573
3850.083, 0.8503854
3852.012, 0.9328299
3853.940, 0.8156043
3855.869, 0.8633316
3857.797, 0.9351471
3859.726, 0.7375158
3861.654, 0.7182707
3863.583, 0.7913790
3865.511, 0.7423297
3867.440, 0.8479998
3869.368, 1.064834
3871.297, 0.7486258
3873.225, 0.8297024
3875.154, 0.9746848
3877.082, 0.8793629
3879.010, 0.7844104
3880.939, 0.9019784
3882.867, 0.7126750
3884.796, 0.6995331
3886.724, 0.7973214
3888.653, 0.7600529
3890.581, 0.8497848
3892.510, 0.7551752
3894.438, 0.5329154
3896.367, 0.7551763
3898.295, 0.7573348
3900.224, 0.5263535
3902.152, 0.5156902
3904.081, 0.6967393
3906.009, 0.6343468
3907.938, 0.4461029
3909.866, 0.5156373
3911.794, 0.8819335
3913.723, 0.6367102
3915.651, 0.7707728
3917.580, 0.5039076
3919.508, 0.5008945
3921.437, 0.6112579
3923.365, 0.6151835
3925.294, 0.5575288
3927.222, 0.5836703
3929.151, 0.9385989
3931.079, 0.6401333
3933.008, 0.4967912
3934.936, 0.5589823
3936.865, 0.6110436
3938.793, 0.6317633
3940.721, 0.5660994
3942.650, 0.4416197
3944.578, 0.7925214
3946.507, 0.8523558
3948.435, 0.5226722
3950.364, 0.4154104
3952.292, 0.5209636
3954.221, 0.6535895
3956.149, 0.6000572
3958.078, 0.4488024
3960.006, 0.5946382
3961.935, 0.6909971
3963.863, 0.6439853
3965.792, 0.5392938
3967.720, 0.6369807
3969.648, 0.5951329
3971.577, 0.5306729
3973.505, 0.4450722
3975.434, 0.3290438
3977.362, 0.6087673
3979.291, 0.5325429
3981.219, 0.5405341
3983.148, 0.5245694
3985.076, 0.4923906
3987.005, 0.4782714
3988.933, 0.5818501
3990.862, 0.5989352
3992.790, 0.4407071
3994.719, 0.4629031
3996.647, 0.5666465
3998.575, 0.4015478
4000.504, 0.4137363
4002.432, 0.4087636
4004.361, 0.4474517
4006.289, 0.4300408
4008.218, 0.4190127
4010.146, 0.5332513
4012.075, 0.4961173
4014.003, 0.3970483
4015.932, 0.4065674
4017.860, 0.4107513
4019.789, 0.2656039
4021.717, 0.3705162
4023.646, 0.4461185
4025.574, 0.3516420
4027.502, 0.3713471
4029.431, 0.5714793
4031.359, 0.4519807
4033.288, 0.2394587
4035.216, 0.2562456
4037.145, 0.5022120
4039.073, 0.4429124
4041.002, 0.4648674
4042.930, 0.4831759
4044.859, 0.4069236
4046.787, 0.3583517
4048.716, 0.2833481
4050.644, 0.2636876
4052.573, 0.2280199
4054.501, 0.1455555
4056.429, 0.2887104
4058.358, 0.3447251
4060.286, 0.3706268
4062.215, 0.3134394
4064.143, 0.2918509
4066.072, 0.4129905
4068.000, 0.4473928
4069.929, 0.1694415
4071.857, 0.2494610
4073.786, 0.2737192
4075.714, 0.1408314
4077.643, 0.2941580
4079.571, 0.2530756
4081.500, 0.2394393
4083.428, 0.2801725
4085.356, 0.2477982
4087.285, 0.2318104
4089.213, 0.2678446
4091.142, 0.1393289
4093.070, 0.3822204
4094.999, 0.1664454
4096.927, 0.2505083
4098.855, 0.2534620
4100.784, 0.2229393
4102.712, 0.4623107
4104.641, 0.2566071
4106.569, -1.8302251E-02
4108.498, 0.2858904
4110.426, 0.3294567
4112.355, 0.1410474
4114.283, 0.2128845
4116.212, 0.2014646
4118.140, 0.2101283
4120.069, 0.1280490
4121.997, 1.8059140E-02
4123.926, 0.1514850
4125.854, 0.2767712
4127.783, 0.2890693
4129.711, 0.2355827
4131.640, 0.1579012
4133.568, 0.1763479
4135.497, 0.1961880
4137.425, 0.2591528
4139.354, 0.2822796
4141.282, 0.1144181
4143.210, 6.1466470E-03
4145.139, 7.7814624E-02
4147.067, 7.2311729E-02
4148.996, 0.1106051
4150.924, 0.2061698
4152.853, 0.2738389
4154.781, 0.3660579
4156.709, 0.4943679
4158.638, 0.4344319
4160.566, 0.1127496
4162.495, 2.9659200E-02
4164.423, -8.0285585E-03
4166.352, 0.1054738
4168.280, 0.1234920
4170.209, 0.1981267
4172.137, 0.1759602
4174.066, 0.2849403
4175.994, 0.2920234
4177.923, 0.2478542
4179.851, 0.2937899
4181.780, 0.2420262
4183.708, 0.1493985
4185.637, 0.2176084
4187.565, 0.1408151
4189.494, 8.5509337E-02
4191.422, 0.1972967
4193.351, 0.2635475
4195.279, 0.4133202
4197.208, 0.2801299
4199.136, 0.2813670
4201.064, 0.3455734
4202.993, 8.7250523E-02
4204.921, 7.6749563E-02
4206.850, 0.2845763
4208.778, 0.1877651
4210.707, 8.8732272E-02
4212.635, 5.9755079E-02
4214.563, -0.2679307
4216.492, -2.0991800E-02
4218.420, 9.5589042E-02
4220.349, 0.1974763
4222.277, 0.1230576
4224.206, 0.1951690
4226.134, -5.1017571E-02
4228.063, 5.8533039E-02
4229.991, -2.2386201E-02
4231.920, -4.0441789E-02
4233.848, 0.1029440
4235.777, 0.3369370
4237.705, 0.4086151
4239.634, 0.1363644
4241.562, -3.5917949E-02
4243.491, 0.1512882
4245.419, -9.5021456E-02
4247.348, 0.1272362
4249.276, 0.2260129
4251.205, -3.3760231E-02
4253.133, 0.1576357
4255.062, 9.4138257E-02
4256.990, 2.1287020E-02
4258.918, 0.1241239
4260.847, 2.9010370E-03
4262.775, 0.1307370
4264.704, 0.1569305
4266.632, -2.6378999E-03
4268.561, 3.6600810E-02
4270.489, 0.1794908
4272.417, 0.3306503
4274.346, 0.3274383
4276.274, 5.4838520E-02
4278.203, -5.3240908E-03
4280.131, 4.1396890E-02
4282.060, 0.2252409
4283.988, 0.2325739
4285.917, 7.9248287E-02
4287.845, 6.1943941E-02
4289.774, 0.1648060
4291.702, 0.2485580
4293.631, -4.6123609E-02
4295.559, 0.2104874
4297.488, 0.1520664
4299.416, 0.1562767
4301.345, 0.2103792
4303.273, 0.2322495
4305.202, 0.3539284
4307.130, 9.4831839E-02
4309.059, 4.7139831E-02
4310.987, 0.1980429
4312.916, 0.1201826
4314.844, 9.8135449E-02
4316.772, 0.1558718
4318.701, 0.1407200
4320.629, 0.1298228
4322.558, 0.1011530
4324.486, 0.1482196
4326.415, 4.0693998E-02
4328.343, 0.1907644
4330.271, -7.4816428E-02
4332.200, 0.1668034
4334.128, 8.6822197E-02
4336.057, -5.0772191E-03
4337.985, 0.1646841
4339.914, 8.5397243E-02
4341.842, 0.1237766
4343.771, 0.1339771
4345.699, 0.1701023
4347.628, 0.1773811
4349.556, 0.3864645
4351.485, 0.1993182
4353.413, 5.3223211E-02
4355.342, 0.2439477
4357.270, 0.3180490
4359.199, 0.2698946
4361.127, 0.1783931
4363.056, 0.1446083
4364.984, 6.7914262E-02
4366.913, -6.9671541E-02
4368.841, 0.1202346
4370.770, 0.1723776
4372.698, 4.6781912E-03
4374.626, 0.2705256
##END=



