##NAMES=Magnesiochromite
##RRUFFID=R060796
##IDEAL CHEMISTRY=MgCr_2_O_4_
##LOCALITY=State Line Chrome mine (Low's mine), Cecil County, Maryland, USA
##OWNER=RRUFF
##SOURCE=California Institute of Technology
##DESCRIPTION=Black massive
##STATUS=The identification of this mineral has been confirmed by X-ray diffraction and chemical analysis
##URL=https://www.rruff.net/odr/rruff_sample/R060796
##MEASURED CHEMISTRY=(Mg_0.57_Fe^2+^_0.43_)(Cr_1.52_Al_0.41_Fe^3+^_0.07_)O_4_
##DIFFRACTION SAMPLE DESCRIPTION=Powder
##CELL PARAMETERS=a: 8.3112 b: 8.3112 c: 8.3112 alpha: 90 beta: 90 gamma: 90 volume: 574.1 crystal system: cubic
##FILETYPE=Raman RAW
##RAMAN WAVELENGTH=532

205.613, 295.772
207.541, 289.790
209.469, 289.792
211.398, 291.801
213.326, 292.571
215.255, 291.508
217.183, 290.085
219.112, 288.568
221.040, 286.888
222.969, 285.658
224.897, 285.145
226.826, 285.073
228.754, 285.114
230.683, 285.497
232.611, 285.841
234.540, 286.124
236.468, 286.379
238.396, 286.313
240.325, 285.400
242.253, 284.131
244.182, 283.398
246.110, 283.794
248.039, 284.156
249.967, 284.308
251.896, 284.449
253.824, 283.272
255.753, 278.844
257.681, 272.615
259.610, 269.348
261.538, 271.900
263.467, 274.797
265.395, 275.535
267.323, 274.177
269.252, 271.393
271.181, 265.251
273.109, 257.070
275.037, 253.923
276.966, 260.362
278.894, 267.846
280.823, 271.996
282.751, 271.893
284.680, 270.837
286.608, 268.841
288.537, 266.181
290.465, 264.658
292.394, 265.085
294.322, 265.949
296.250, 266.175
298.179, 264.621
300.108, 264.553
302.036, 267.709
303.964, 273.330
305.893, 276.594
307.821, 275.686
309.750, 273.825
311.678, 273.069
313.607, 275.084
315.535, 275.976
317.464, 274.255
319.392, 270.803
321.321, 269.022
323.249, 270.382
325.177, 272.448
327.106, 273.863
329.034, 274.591
330.963, 274.574
332.891, 273.109
334.820, 270.865
336.748, 269.585
338.677, 271.180
340.605, 272.498
342.534, 271.653
344.462, 265.699
346.391, 262.402
348.319, 264.528
350.248, 269.725
352.176, 272.965
354.105, 271.491
356.033, 269.614
357.961, 269.103
359.890, 270.465
361.818, 271.830
363.747, 273.653
365.675, 275.334
367.604, 275.781
369.532, 273.287
371.461, 271.006
373.389, 269.723
375.318, 269.418
377.246, 270.582
379.175, 275.317
381.103, 281.106
383.032, 284.436
384.960, 282.558
386.888, 280.481
388.817, 279.175
390.745, 278.661
392.674, 278.413
394.602, 278.742
396.531, 279.182
398.459, 279.297
400.388, 278.979
402.316, 278.451
404.245, 277.949
406.173, 277.334
408.102, 275.790
410.030, 270.690
411.959, 266.580
413.887, 266.411
415.815, 276.273
417.744, 282.812
419.672, 284.234
421.601, 281.681
423.529, 278.586
425.458, 273.703
427.386, 269.796
429.315, 268.362
431.243, 271.669
433.172, 273.019
435.100, 269.109
437.029, 264.228
438.957, 264.264
440.886, 272.611
442.814, 281.020
444.742, 287.176
446.671, 290.829
448.599, 292.757
450.528, 291.416
452.456, 289.419
454.385, 288.578
456.313, 288.661
458.242, 290.723
460.170, 296.430
462.099, 304.867
464.027, 310.145
465.956, 309.313
467.884, 308.159
469.813, 309.430
471.741, 313.356
473.669, 317.104
475.598, 321.302
477.526, 324.727
479.455, 324.897
481.383, 318.741
483.312, 314.064
485.240, 315.180
487.169, 320.877
489.097, 323.145
491.026, 316.661
492.954, 309.653
494.883, 307.419
496.811, 311.176
498.740, 316.307
500.668, 322.002
502.596, 328.747
504.525, 337.526
506.453, 351.366
508.382, 364.117
510.310, 371.930
512.239, 373.606
514.167, 382.222
516.096, 406.115
518.024, 431.656
519.953, 448.879
521.881, 453.088
523.810, 458.508
525.738, 466.587
527.667, 477.650
529.595, 492.209
531.523, 511.956
533.452, 533.071
535.380, 554.013
537.309, 574.750
539.237, 596.302
541.166, 621.752
543.094, 646.062
545.023, 663.160
546.951, 670.180
548.880, 678.756
550.808, 696.252
552.737, 717.050
554.665, 728.773
556.594, 721.719
558.522, 714.256
560.451, 711.926
562.379, 715.194
564.307, 715.558
566.236, 710.791
568.164, 704.292
570.093, 698.478
572.021, 693.965
573.950, 688.404
575.878, 681.625
577.807, 673.563
579.735, 664.364
581.664, 654.978
583.592, 643.164
585.521, 626.253
587.449, 605.106
589.378, 587.868
591.306, 576.764
593.234, 568.184
595.163, 561.136
597.091, 556.029
599.020, 549.782
600.948, 542.759
602.877, 533.799
604.805, 521.738
606.734, 504.868
608.662, 487.236
610.591, 468.039
612.519, 448.443
614.448, 432.517
616.376, 420.551
618.305, 411.666
620.233, 404.942
622.161, 400.178
624.090, 399.941
626.018, 404.598
627.947, 413.317
629.875, 426.495
631.804, 444.923
633.732, 464.599
635.661, 486.464
637.589, 508.979
639.518, 530.847
641.446, 553.802
643.375, 573.000
645.303, 585.995
647.232, 594.003
649.160, 602.909
651.089, 614.461
653.017, 624.177
654.945, 627.346
656.874, 624.806
658.802, 628.610
660.731, 642.726
662.659, 661.740
664.588, 683.547
666.516, 708.896
668.445, 736.406
670.373, 763.335
672.302, 794.575
674.230, 834.830
676.159, 887.906
678.087, 939.787
680.016, 991.198
681.944, 1039.132
683.872, 1076.062
685.801, 1101.382
687.729, 1118.098
689.658, 1127.468
691.586, 1128.910
693.515, 1118.958
695.443, 1094.671
697.372, 1060.932
699.300, 1018.192
701.229, 965.034
703.157, 910.665
705.086, 853.517
707.014, 796.554
708.943, 740.015
710.871, 683.485
712.799, 632.798
714.728, 592.213
716.656, 556.492
718.585, 521.756
720.513, 483.674
722.442, 452.489
724.370, 431.337
726.299, 416.458
728.227, 401.788
730.156, 386.574
732.084, 373.238
734.013, 364.083
735.941, 357.425
737.870, 348.174
739.798, 331.469
741.726, 317.395
743.655, 309.602
745.583, 307.180
747.512, 304.324
749.440, 301.809
751.369, 297.673
753.297, 290.394
755.226, 279.645
757.154, 271.023
759.083, 266.183
761.011, 262.037
762.940, 256.354
764.868, 248.756
766.797, 243.944
768.725, 244.539
770.653, 246.375
772.582, 246.786
774.510, 245.591
776.439, 243.624
778.367, 240.270
780.296, 236.683
782.224, 233.958
784.153, 232.255
786.081, 230.983
788.010, 229.819
789.938, 229.236
791.867, 230.385
793.795, 235.284
795.724, 236.250
797.652, 228.688
799.580, 217.276
801.509, 210.081
803.437, 208.684
805.366, 209.162
807.294, 212.575
809.223, 217.281
811.151, 220.294
813.080, 220.968
815.008, 220.981
816.937, 221.101
818.865, 221.007
820.794, 219.606
822.722, 213.812
824.651, 210.269
826.579, 211.410
828.507, 216.229
830.436, 220.753
832.364, 226.159
834.293, 229.328
836.221, 228.123
838.150, 223.271
840.078, 219.448
842.007, 217.088
843.935, 215.290
845.864, 213.935
847.792, 213.016
849.721, 212.295
851.649, 211.562
853.578, 211.329
855.506, 212.838
857.434, 215.426
859.363, 215.474
861.291, 208.249
863.220, 203.280
865.148, 205.844
867.077, 215.757
869.005, 220.088
870.934, 212.758
872.862, 206.376
874.791, 207.854
876.719, 215.084
878.648, 219.014
880.576, 216.321
882.505, 213.488
884.433, 214.192
886.362, 218.536
888.290, 218.923
890.218, 210.332
892.147, 203.205
894.075, 202.859
896.004, 208.233
897.932, 210.874
899.861, 208.560
901.789, 206.105
903.718, 205.404
905.646, 206.346
907.575, 208.320
909.503, 214.060
911.432, 217.979
913.360, 217.109
915.289, 212.127
917.217, 209.852
919.145, 212.276
921.074, 214.741
923.002, 216.059
924.931, 216.186
926.859, 214.547
928.788, 209.348
930.716, 205.293
932.645, 204.767
934.573, 206.809
936.502, 207.044
938.430, 203.173
940.359, 200.220
942.287, 199.806
944.216, 201.000
946.144, 201.176
948.072, 199.334
950.001, 198.768
951.929, 202.454
953.858, 207.808
955.786, 209.841
957.715, 205.817
959.643, 203.183
961.572, 205.151
963.500, 208.533
965.429, 207.419
967.357, 198.159
969.286, 192.933
971.214, 196.780
973.143, 203.956
975.071, 208.607
977.000, 210.442
978.928, 211.217
980.856, 210.635
982.785, 209.595
984.713, 208.616
986.642, 207.124
988.570, 207.106
990.499, 210.570
992.427, 213.855
994.356, 213.457
996.284, 209.336
998.213, 207.758
1000.141, 211.239
1002.070, 215.407
1003.998, 217.556
1005.926, 217.873
1007.855, 219.340
1009.783, 224.386
1011.712, 228.128
1013.640, 227.406
1015.569, 222.993
1017.497, 222.382
1019.426, 228.972
1021.354, 234.804
1023.283, 238.684
1025.211, 240.289
1027.140, 238.632
1029.068, 231.672
1030.996, 227.031
1032.925, 229.124
1034.853, 234.093
1036.782, 236.769
1038.710, 235.016
1040.639, 235.650
1042.567, 242.402
1044.496, 249.629
1046.424, 251.689
1048.353, 247.174
1050.281, 243.327
1052.210, 240.660
1054.138, 238.693
1056.067, 236.027
1057.995, 233.120
1059.923, 235.104
1061.852, 247.384
1063.780, 258.256
1065.709, 262.721
1067.637, 261.358
1069.566, 258.761
1071.494, 252.174
1073.423, 247.535
1075.351, 247.821
1077.280, 250.445
1079.208, 249.289
1081.137, 242.051
1083.065, 238.004
1084.994, 242.085
1086.922, 248.493
1088.851, 251.221
1090.779, 249.586
1092.708, 250.482
1094.636, 259.589
1096.564, 267.642
1098.493, 268.610
1100.421, 261.556
1102.350, 258.102
1104.278, 260.829
1106.207, 264.005
1108.135, 266.624
1110.064, 268.218
1111.992, 266.822
1113.921, 259.601
1115.849, 255.544
1117.778, 260.829
1119.706, 269.034
1121.635, 272.288
1123.563, 269.534
1125.491, 266.647
1127.420, 264.531
1129.348, 262.923
1131.277, 261.587
1133.205, 260.420
1135.134, 260.300
1137.062, 262.495
1138.991, 264.265
1140.919, 264.432
1142.848, 263.295
1144.776, 262.372
1146.705, 262.843
1148.633, 261.019
1150.562, 251.935
1152.490, 242.060
1154.418, 239.935
1156.347, 247.462
1158.275, 251.420
1160.204, 243.732
1162.132, 236.466
1164.061, 237.321
1165.989, 247.118
1167.918, 253.873
1169.846, 258.167
1171.775, 258.871
1173.703, 252.284
1175.632, 242.078
1177.560, 238.234
1179.489, 243.225
1181.417, 247.299
1183.345, 248.409
1185.274, 247.777
1187.202, 246.301
1189.131, 243.985
1191.059, 241.395
1192.988, 238.119
1194.916, 235.249
1196.845, 232.949
1198.773, 231.392
1200.702, 231.528
1202.630, 235.612
1204.559, 238.072
1206.487, 237.247
1208.416, 234.828
1210.344, 232.456
1212.272, 229.518
1214.201, 228.600
1216.129, 231.599
1218.058, 234.814
1219.986, 236.537
1221.915, 236.930
1223.843, 236.103
1225.772, 232.509
1227.700, 231.501
1229.629, 239.200
1231.557, 248.275
1233.486, 249.200
1235.414, 239.896
1237.343, 233.260
1239.271, 231.657
1241.199, 232.471
1243.128, 235.533
1245.056, 240.510
1246.985, 244.180
1248.913, 246.909
1250.842, 247.807
1252.770, 245.813
1254.699, 242.332
1256.627, 238.459
1258.556, 233.808
1260.484, 231.918
1262.413, 235.172
1264.341, 239.106
1266.270, 241.903
1268.198, 243.676
1270.126, 244.124
1272.055, 242.377
1273.983, 241.757
1275.912, 245.485
1277.840, 249.142
1279.769, 248.135
1281.697, 241.397
1283.626, 237.470
1285.554, 239.165
1287.483, 241.102
1289.411, 242.253
1291.340, 242.447
1293.268, 240.989
1295.197, 234.459
1297.125, 232.331
1299.053, 239.078
1300.982, 246.853
1302.910, 250.380
1304.839, 249.849
1306.767, 247.446
1308.696, 241.147
1310.624, 237.036
1312.553, 238.857
1314.481, 243.143
1316.410, 246.355
1318.338, 248.494
1320.267, 248.868
1322.195, 245.904
1324.124, 242.934
1326.052, 241.707
1327.980, 241.586
1329.909, 240.456
1331.837, 237.143
1333.766, 235.543
1335.694, 237.405
1337.623, 239.939
1339.551, 241.335
1341.480, 241.618
1343.408, 241.733
1345.337, 242.688
1347.265, 242.104
1349.194, 236.397
1351.122, 230.676
1353.051, 232.890
1354.979, 244.034
1356.907, 248.773
1358.836, 241.176
1360.764, 233.621
1362.693, 230.545
1364.621, 231.124
1366.550, 235.177
1368.478, 243.852
1370.407, 247.603
1372.335, 240.931
1374.264, 233.207
1376.192, 229.194
1378.121, 228.188
1380.049, 228.001
1381.978, 228.695
1383.906, 229.784
1385.834, 233.145
1387.763, 235.012
1389.691, 231.169
1391.620, 221.967
1393.548, 217.975
1395.477, 226.511
1397.405, 230.273
1399.334, 222.361
1401.262, 212.249
1403.191, 209.737
1405.119, 215.756
1407.048, 218.671
1408.976, 215.616
1410.905, 213.373
1412.833, 214.337
1414.761, 216.486
1416.690, 217.582
1418.618, 217.671
1420.547, 216.081
1422.475, 211.643
1424.404, 207.175
1426.332, 203.209
1428.261, 200.174
1430.189, 199.025
1432.118, 199.903
1434.046, 199.415
1435.975, 195.750
1437.903, 192.503
1439.832, 191.580
1441.760, 192.077
1443.688, 193.127
1445.617, 195.090
1447.545, 194.884
1449.474, 189.729
1451.402, 185.482
1453.331, 185.611
1455.259, 188.094
1457.188, 188.373
1459.116, 185.461
1461.045, 183.689
1462.973, 185.443
1464.902, 186.115
1466.830, 181.880
1468.759, 175.562
1470.687, 174.093
1472.615, 182.075
1474.544, 185.238
1476.472, 181.091
1478.401, 175.238
1480.329, 167.014
1482.258, 159.439
1484.186, 160.510
1486.115, 176.350
1488.043, 184.812
1489.972, 180.070
1491.900, 173.944
1493.829, 172.302
1495.757, 172.467
1497.686, 167.630
1499.614, 155.909
1501.542, 150.362
1503.471, 156.689
1505.399, 164.144
1507.328, 170.490
1509.256, 174.314
1511.185, 171.827
1513.113, 162.507
1515.042, 157.678
1516.970, 161.484
1518.899, 165.644
1520.827, 167.661
1522.756, 167.263
1524.684, 162.425
1526.613, 153.348
1528.541, 150.393
1530.469, 159.004
1532.398, 165.464
1534.326, 162.557
1536.255, 156.231
1538.183, 151.211
1540.112, 147.677
1542.040, 148.156
1543.969, 155.197
1545.897, 160.798
1547.826, 160.299
1549.754, 159.116
1551.683, 162.036
1553.611, 168.316
1555.540, 172.456
1557.468, 174.594
1559.396, 173.772
1561.325, 167.071
1563.253, 159.956
1565.182, 155.443
1567.110, 153.002
1569.039, 150.391
1570.967, 146.662
1572.896, 145.665
1574.824, 151.958
1576.753, 156.455
1578.681, 154.101
1580.610, 148.116
1582.538, 144.358
1584.467, 143.164
1586.395, 142.872
1588.323, 143.437
1590.252, 144.921
1592.180, 148.768
1594.109, 152.549
1596.037, 153.199
1597.966, 150.517
1599.894, 148.833
1601.823, 149.807
1603.751, 149.296
1605.680, 143.415
1607.608, 139.212
1609.537, 143.818
1611.465, 154.525
1613.394, 159.628
1615.322, 154.854
1617.250, 152.464
1619.179, 155.523
1621.107, 157.404
1623.036, 153.520
1624.964, 147.564
1626.893, 145.876
1628.821, 149.523
1630.750, 151.491
1632.678, 149.989
1634.607, 149.469
1636.535, 151.540
1638.464, 154.301
1640.392, 155.538
1642.321, 155.810
1644.249, 158.803
1646.177, 169.729
1648.106, 174.751
1650.034, 169.087
1651.963, 162.789
1653.891, 160.332
1655.820, 160.176
1657.748, 159.915
1659.677, 159.587
1661.605, 158.986
1663.534, 156.298
1665.462, 155.995
1667.391, 162.244
1669.319, 168.189
1671.248, 167.388
1673.176, 161.441
1675.104, 157.715
1677.033, 156.907
1678.961, 156.996
1680.890, 159.213
1682.818, 160.745
1684.747, 159.730
1686.675, 157.909
1688.604, 157.689
1690.532, 159.160
1692.461, 159.956
1694.389, 159.305
1696.318, 159.182
1698.246, 159.046
1700.175, 160.231
1702.103, 165.075
1704.031, 171.317
1705.960, 173.954
1707.888, 172.119
1709.817, 170.185
1711.745, 167.828
1713.674, 165.850
1715.602, 165.070
1717.531, 164.135
1719.459, 161.276
1721.388, 157.318
1723.316, 155.536
1725.245, 156.533
1727.173, 158.276
1729.102, 161.883
1731.030, 164.716
1732.959, 166.066
1734.887, 166.313
1736.816, 165.547
1738.744, 163.899
1740.672, 162.395
1742.601, 160.726
1744.529, 159.924
1746.458, 159.632
1748.386, 160.734
1750.315, 165.615
1752.243, 170.579
1754.172, 170.977
1756.100, 166.988
1758.029, 163.177
1759.957, 158.472
1761.886, 157.027
1763.814, 164.284
1765.743, 168.836
1767.671, 163.642
1769.599, 155.212
1771.528, 151.602
1773.456, 152.433
1775.385, 152.242
1777.313, 149.964
1779.242, 149.946
1781.170, 154.951
1783.099, 159.604
1785.027, 160.918
1786.956, 160.843
1788.884, 162.102
1790.813, 164.186
1792.741, 163.460
1794.670, 158.783
1796.598, 156.015
1798.526, 157.098
1800.455, 159.156
1802.383, 160.887
1804.312, 162.886
1806.240, 166.789
1808.169, 171.600
1810.097, 172.785
1812.026, 169.605
1813.954, 166.151
1815.883, 162.105
1817.811, 159.631
1819.740, 159.803
1821.668, 161.809
1823.597, 166.810
1825.525, 173.025
1827.453, 173.463
1829.382, 166.910
1831.310, 161.404
1833.239, 157.108
1835.167, 154.809
1837.096, 155.396
1839.024, 157.428
1840.953, 160.717
1842.881, 164.443
1844.810, 166.750
1846.738, 167.773
1848.667, 166.549
1850.595, 158.829
1852.524, 155.419
1854.452, 161.966
1856.380, 168.062
1858.309, 167.323
1860.237, 163.343
1862.166, 161.160
1864.094, 160.782
1866.023, 160.886
1867.951, 162.256
1869.880, 161.987
1871.808, 157.602
1873.737, 154.483
1875.665, 154.508
1877.594, 156.381
1879.522, 159.961
1881.451, 164.390
1883.379, 167.065
1885.307, 167.990
1887.236, 166.460
1889.164, 161.191
1891.093, 156.823
1893.021, 155.437
1894.950, 154.438
1896.878, 151.376
1898.807, 148.329
1900.735, 148.902
1902.664, 152.192
1904.592, 152.498
1906.521, 148.472
1908.449, 147.193
1910.378, 152.681
1912.306, 156.647
1914.234, 154.937
1916.163, 152.250
1918.091, 151.737
1920.020, 153.060
1921.948, 155.685
1923.877, 159.693
1925.805, 163.884
1927.734, 170.671
1929.662, 173.620
1931.591, 169.694
1933.519, 165.528
1935.448, 163.841
1937.376, 162.687
1939.305, 159.833
1941.233, 156.135
1943.161, 154.389
1945.090, 154.700
1947.018, 154.932
1948.947, 154.314
1950.875, 155.818
1952.804, 163.752
1954.732, 168.325
1956.661, 160.169
1958.589, 150.212
1960.518, 150.581
1962.446, 156.897
1964.375, 157.563
1966.303, 152.267
1968.232, 148.145
1970.160, 144.754
1972.089, 145.072
1974.017, 152.869
1975.945, 160.420
1977.874, 164.879
1979.802, 167.207
1981.731, 167.794
1983.659, 167.133
1985.588, 166.790
1987.516, 167.026
1989.445, 165.732
1991.373, 161.529
1993.302, 158.794
1995.230, 158.854
1997.159, 159.293
1999.087, 159.909
2001.016, 159.981
2002.944, 157.167
2004.872, 154.190
2006.801, 158.733
2008.729, 169.231
2010.658, 171.533
2012.586, 163.299
2014.515, 156.040
2016.443, 150.876
2018.372, 148.651
2020.300, 151.650
2022.229, 155.430
2024.157, 157.666
2026.086, 158.673
2028.014, 158.906
2029.943, 158.305
2031.871, 156.139
2033.799, 150.905
2035.728, 149.616
2037.656, 155.359
2039.585, 159.356
2041.513, 160.352
2043.442, 159.476
2045.370, 155.850
2047.299, 151.754
2049.227, 148.217
2051.156, 145.885
2053.084, 146.240
2055.012, 149.070
2056.941, 153.297
2058.869, 159.320
2060.798, 163.457
2062.727, 164.595
2064.655, 164.961
2066.583, 165.523
2068.512, 164.995
2070.440, 161.309
2072.369, 157.379
2074.297, 157.153
2076.226, 158.978
2078.154, 157.562
2080.083, 152.437
2082.011, 151.925
2083.940, 158.333
2085.868, 160.198
2087.797, 152.409
2089.725, 148.529
2091.654, 156.842
2093.582, 164.206
2095.510, 161.450
2097.439, 155.540
2099.367, 153.046
2101.296, 152.942
2103.224, 152.920
2105.153, 152.999
2107.081, 153.677
2109.010, 155.297
2110.938, 156.680
2112.867, 158.677
2114.795, 159.100
2116.724, 156.936
2118.652, 153.979
2120.581, 148.753
2122.509, 145.227
2124.438, 148.108
2126.366, 154.499
2128.294, 159.838
2130.223, 163.851
2132.151, 164.586
2134.080, 161.700
2136.008, 160.503
2137.937, 163.078
2139.865, 163.037
2141.794, 156.129
2143.722, 150.698
2145.651, 149.408
2147.579, 150.550
2149.508, 155.905
2151.436, 160.847
2153.365, 158.481
2155.293, 151.206
2157.221, 145.865
2159.150, 142.498
2161.078, 142.307
2163.007, 145.570
2164.935, 150.218
2166.864, 157.138
2168.792, 161.947
2170.721, 162.368
2172.649, 161.903
2174.578, 161.148
2176.506, 160.885
2178.435, 163.102
2180.363, 165.107
2182.292, 161.292
2184.220, 154.411
2186.148, 155.374
2188.077, 164.157
2190.005, 167.256
2191.934, 163.747
2193.862, 159.202
2195.791, 152.916
2197.719, 150.401
2199.648, 155.329
2201.576, 160.479
2203.505, 164.683
2205.433, 166.055
2207.362, 160.528
2209.290, 153.920
2211.219, 153.822
2213.147, 157.415
2215.075, 157.764
2217.004, 155.212
2218.932, 154.503
2220.861, 155.650
2222.789, 159.175
2224.718, 166.196
2226.646, 169.954
2228.575, 167.535
2230.503, 165.469
2232.432, 166.026
2234.360, 167.182
2236.289, 170.040
2238.217, 170.917
2240.146, 163.966
2242.074, 155.469
2244.002, 153.742
2245.931, 157.530
2247.859, 165.715
2249.788, 176.897
2251.716, 177.335
2253.645, 166.097
2255.573, 161.271
2257.502, 166.750
2259.430, 170.015
2261.359, 167.160
2263.287, 164.617
2265.216, 163.587
2267.144, 163.505
2269.073, 164.217
2271.001, 165.730
2272.929, 169.420
2274.858, 172.765
2276.786, 172.585
2278.715, 170.141
2280.643, 167.335
2282.572, 164.435
2284.500, 162.266
2286.429, 160.817
2288.357, 161.800
2290.286, 167.197
2292.214, 169.357
2294.143, 164.321
2296.071, 162.776
2298.000, 168.568
2299.928, 172.904
2301.856, 173.933
2303.785, 172.498
2305.713, 166.572
2307.642, 161.150
2309.570, 160.255
2311.499, 161.570
2313.427, 163.116
2315.356, 164.575
2317.284, 164.252
2319.213, 163.115
2321.141, 155.812
2323.070, 164.678
2324.998, 169.619
2326.927, 170.847
2328.855, 157.237
2330.783, 162.787
2332.712, 160.658
2334.640, 158.215
2336.569, 166.461
2338.497, 155.009
2340.426, 163.085
2342.354, 161.939
2344.283, 158.061
2346.211, 156.492
2348.140, 156.700
2350.068, 157.742
2351.997, 160.730
2353.925, 169.818
2355.854, 180.371
2357.782, 182.525
2359.710, 178.527
2361.639, 178.329
2363.567, 181.870
2365.496, 178.685
2367.424, 165.585
2369.353, 159.472
2371.281, 161.346
2373.210, 166.951
2375.138, 178.640
2377.067, 183.694
2378.995, 175.341
2380.924, 168.706
2382.852, 171.694
2384.781, 173.368
2386.709, 166.512
2388.637, 160.412
2390.566, 161.996
2392.494, 165.283
2394.423, 164.820
2396.351, 163.561
2398.280, 165.889
2400.208, 169.392
2402.137, 169.872
2404.065, 168.130
2405.994, 165.657
2407.922, 162.843
2409.851, 164.476
2411.779, 171.197
2413.708, 176.396
2415.636, 180.224
2417.564, 180.789
2419.493, 177.358
2421.421, 174.260
2423.350, 171.698
2425.278, 171.052
2427.207, 172.734
2429.135, 176.198
2431.064, 185.280
2432.992, 190.292
2434.921, 183.465
2436.849, 177.514
2438.778, 181.122
2440.706, 184.059
2442.635, 175.872
2444.563, 167.495
2446.491, 170.940
2448.420, 178.687
2450.348, 182.248
2452.277, 182.154
2454.205, 176.991
2456.134, 169.581
2458.062, 170.389
2459.991, 176.955
2461.919, 178.192
2463.848, 174.555
2465.776, 173.337
2467.705, 174.908
2469.633, 178.440
2471.562, 186.374
2473.490, 188.280
2475.418, 182.443
2477.347, 177.257
2479.275, 173.549
2481.204, 170.436
2483.132, 166.831
2485.061, 166.081
2486.989, 172.035
2488.918, 176.313
2490.846, 175.001
2492.775, 174.042
2494.703, 174.946
2496.632, 177.773
2498.560, 184.761
2500.489, 190.694
2502.417, 192.417
2504.345, 191.347
2506.274, 187.018
2508.202, 182.033
2510.131, 177.484
2512.059, 175.377
2513.988, 181.126
2515.916, 189.507
2517.845, 193.207
2519.773, 191.587
2521.702, 180.420
2523.630, 163.556
2525.559, 151.109
2527.487, 144.072
2529.416, 152.702
2531.344, 176.141
2533.272, 185.018
2535.201, 180.132
2537.129, 175.170
2539.058, 170.795
2540.986, 171.485
2542.915, 179.305
2544.843, 185.246
2546.772, 189.509
2548.700, 190.648
2550.629, 187.920
2552.557, 184.316
2554.486, 179.570
2556.414, 176.275
2558.343, 173.754
2560.271, 175.646
2562.199, 191.049
2564.128, 197.208
2566.056, 179.319
2567.985, 169.228
2569.913, 180.846
2571.842, 188.996
2573.770, 178.023
2575.699, 170.292
2577.627, 180.577
2579.556, 190.637
2581.484, 190.703
2583.413, 187.789
2585.341, 185.714
2587.270, 182.556
2589.198, 173.604
2591.126, 167.255
2593.055, 172.316
2594.983, 180.575
2596.912, 185.824
2598.840, 188.615
2600.769, 188.367
2602.697, 187.052
2604.626, 186.118
2606.554, 186.458
2608.483, 191.303
2610.411, 196.589
2612.340, 192.214
2614.268, 185.818
2616.197, 197.858
2618.125, 216.717
2620.053, 212.443
2621.982, 194.342
2623.910, 181.505
2625.839, 175.035
2627.767, 181.846
2629.696, 197.106
2631.624, 198.522
2633.553, 189.507
2635.481, 192.589
2637.410, 204.231
2639.338, 206.282
2641.267, 199.786
2643.195, 195.706
2645.124, 193.982
2647.052, 191.471
2648.980, 188.136
2650.909, 184.151
2652.837, 179.807
2654.766, 179.968
2656.694, 184.767
2658.623, 189.594
2660.551, 194.210
2662.480, 200.719
2664.408, 210.336
2666.337, 210.398
2668.265, 200.357
2670.194, 196.492
2672.122, 200.641
2674.051, 198.592
2675.979, 186.381
2677.907, 180.680
2679.836, 182.749
2681.764, 184.875
2683.693, 186.673
2685.621, 190.672
2687.550, 198.111
2689.478, 199.754
2691.407, 190.288
2693.335, 188.371
2695.264, 197.049
2697.192, 198.712
2699.121, 190.796
2701.049, 188.962
2702.978, 197.124
2704.906, 200.543
2706.834, 195.206
2708.763, 190.270
2710.691, 185.206
2712.620, 183.332
2714.548, 185.464
2716.477, 186.417
2718.405, 184.197
2720.334, 186.391
2722.262, 198.797
2724.191, 202.718
2726.119, 195.939
2728.048, 189.628
2729.976, 184.475
2731.905, 183.081
2733.833, 187.156
2735.761, 190.320
2737.690, 192.107
2739.618, 193.292
2741.547, 193.868
2743.475, 194.023
2745.404, 193.671
2747.332, 193.700
2749.261, 194.762
2751.189, 194.171
2753.118, 190.982
2755.046, 190.444
2756.975, 193.192
2758.903, 193.757
2760.832, 190.892
2762.760, 191.668
2764.688, 198.813
2766.617, 200.846
2768.545, 197.013
2770.474, 194.365
2772.402, 193.204
2774.331, 196.455
2776.259, 205.645
2778.188, 207.487
2780.116, 199.914
2782.045, 197.168
2783.973, 199.260
2785.902, 202.630
2787.830, 207.139
2789.759, 215.156
2791.687, 226.960
2793.615, 228.842
2795.544, 220.812
2797.472, 211.294
2799.401, 201.293
2801.329, 199.166
2803.258, 204.089
2805.186, 207.195
2807.115, 208.625
2809.043, 209.133
2810.972, 208.921
2812.900, 208.871
2814.829, 208.827
2816.757, 206.738
2818.686, 204.590
2820.614, 211.235
2822.542, 222.270
2824.471, 225.546
2826.399, 222.881
2828.328, 215.201
2830.256, 206.914
2832.185, 207.253
2834.113, 212.159
2836.042, 217.048
2837.970, 219.628
2839.899, 214.801
2841.827, 207.734
2843.756, 202.956
2845.684, 201.085
2847.613, 205.457
2849.541, 210.049
2851.469, 207.860
2853.398, 204.944
2855.326, 206.315
2857.255, 208.566
2859.183, 209.725
2861.112, 210.184
2863.040, 210.190
2864.969, 209.662
2866.897, 208.567
2868.826, 206.896
2870.754, 204.740
2872.683, 201.636
2874.611, 194.517
2876.540, 192.742
2878.468, 202.771
2880.396, 209.460
2882.325, 205.817
2884.253, 202.504
2886.182, 200.522
2888.110, 200.540
2890.039, 202.821
2891.967, 206.515
2893.896, 213.056
2895.824, 215.160
2897.753, 210.322
2899.681, 211.738
2901.610, 220.281
2903.538, 222.058
2905.467, 215.537
2907.395, 216.234
2909.323, 224.428
2911.252, 224.305
2913.180, 217.842
2915.109, 218.245
2917.037, 223.751
2918.966, 225.815
2920.894, 225.749
2922.823, 228.904
2924.751, 232.174
2926.680, 225.493
2928.608, 217.032
2930.537, 221.163
2932.465, 228.358
2934.394, 226.264
2936.322, 221.087
2938.250, 216.671
2940.179, 214.665
2942.107, 218.396
2944.036, 222.080
2945.964, 222.726
2947.893, 221.080
2949.821, 214.768
2951.750, 212.099
2953.678, 220.877
2955.607, 226.065
2957.535, 221.076
2959.464, 218.055
2961.392, 218.984
2963.321, 219.807
2965.249, 219.727
2967.177, 219.555
2969.106, 218.928
2971.034, 220.763
2972.963, 225.050
2974.891, 226.766
2976.820, 225.758
2978.748, 224.656
2980.677, 223.650
2982.605, 224.534
2984.534, 226.378
2986.462, 225.894
2988.391, 224.884
2990.319, 227.856
2992.248, 231.484
2994.176, 230.976
2996.104, 228.446
2998.033, 224.818
2999.961, 221.649
3001.890, 218.500
3003.818, 218.780
3005.747, 227.275
3007.675, 233.850
3009.604, 233.726
3011.532, 232.484
3013.461, 231.312
3015.389, 229.622
3017.318, 226.259
3019.246, 229.031
3021.175, 241.899
3023.103, 241.479
3025.031, 222.401
3026.960, 222.659
3028.888, 239.280
3030.817, 239.219
3032.745, 226.997
3034.674, 228.628
3036.602, 238.566
3038.531, 244.101
3040.459, 244.938
3042.388, 237.979
3044.316, 229.845
3046.245, 227.682
3048.173, 227.921
3050.102, 227.862
3052.030, 229.015
3053.958, 232.798
3055.887, 236.860
3057.815, 243.065
3059.744, 243.349
3061.672, 234.007
3063.601, 228.762
3065.529, 229.922
3067.458, 238.400
3069.386, 256.491
3071.315, 260.806
3073.243, 252.499
3075.172, 244.807
3077.100, 239.182
3079.029, 243.882
3080.957, 251.968
3082.885, 243.305
3084.814, 230.826
3086.742, 230.613
3088.671, 235.704
3090.599, 242.775
3092.528, 247.759
3094.456, 246.154
3096.385, 246.335
3098.313, 258.247
3100.242, 259.066
3102.170, 238.422
3104.099, 232.004
3106.027, 248.107
3107.956, 255.070
3109.884, 249.437
3111.813, 244.037
3113.741, 239.329
3115.669, 239.535
3117.598, 242.261
3119.526, 239.102
3121.455, 234.719
3123.383, 239.688
3125.312, 245.098
3127.240, 239.903
3129.169, 235.345
3131.097, 242.520
3133.026, 246.380
3134.954, 238.927
3136.883, 235.405
3138.811, 245.066
3140.740, 248.236
3142.668, 242.588
3144.596, 237.937
3146.525, 234.885
3148.453, 232.625
3150.382, 232.040
3152.310, 241.818
3154.239, 256.042
3156.167, 264.466
3158.096, 264.989
3160.024, 244.340
3161.953, 228.831
3163.881, 246.095
3165.810, 261.660
3167.738, 255.809
3169.667, 251.625
3171.595, 257.699
3173.523, 256.073
3175.452, 243.252
3177.380, 240.872
3179.309, 251.249
3181.237, 256.920
3183.166, 258.096
3185.094, 252.070
3187.023, 245.167
3188.951, 251.465
3190.880, 261.789
3192.808, 267.645
3194.737, 269.314
3196.665, 264.272
3198.594, 259.568
3200.522, 258.380
3202.450, 257.214
3204.379, 255.691
3206.307, 253.454
3208.236, 250.386
3210.164, 246.431
3212.093, 242.104
3214.021, 240.889
3215.950, 242.714
3217.878, 249.201
3219.807, 256.498
3221.735, 259.494
3223.664, 260.668
3225.592, 261.308
3227.521, 261.013
3229.449, 258.251
3231.377, 257.397
3233.306, 259.054
3235.234, 264.372
3237.163, 275.525
3239.091, 269.940
3241.020, 252.418
3242.948, 250.091
3244.877, 255.805
3246.805, 255.764
3248.734, 253.802
3250.662, 255.157
3252.591, 254.626
3254.519, 243.129
3256.448, 240.568
3258.376, 257.320
3260.304, 264.478
3262.233, 255.482
3264.161, 254.188
3266.090, 261.641
3268.018, 264.296
3269.947, 264.037
3271.875, 267.283
3273.804, 270.144
3275.732, 264.806
3277.661, 259.483
3279.589, 260.001
3281.518, 261.738
3283.446, 264.585
3285.375, 263.914
3287.303, 258.465
3289.231, 256.165
3291.160, 257.851
3293.088, 260.736
3295.017, 264.024
3296.945, 263.958
3298.874, 262.558
3300.802, 260.671
3302.731, 261.460
3304.659, 270.133
3306.588, 275.885
3308.516, 272.664
3310.445, 268.741
3312.373, 264.337
3314.302, 265.421
3316.230, 271.890
3318.158, 278.104
3320.087, 282.082
3322.015, 275.650
3323.944, 265.950
3325.872, 258.540
3327.801, 255.519
3329.729, 261.406
3331.658, 265.832
3333.586, 265.928
3335.515, 265.308
3337.443, 264.232
3339.372, 263.684
3341.300, 263.696
3343.229, 264.695
3345.157, 266.082
3347.085, 265.941
3349.014, 266.889
3350.942, 273.619
3352.871, 277.478
3354.799, 272.789
3356.728, 268.328
3358.656, 264.759
3360.585, 265.130
3362.513, 269.105
3364.442, 268.128
3366.370, 266.202
3368.299, 275.736
3370.227, 284.812
3372.156, 278.064
3374.084, 270.948
3376.012, 269.952
3377.941, 270.657
3379.870, 273.880
3381.798, 270.285
3383.727, 260.925
3385.655, 261.278
3387.583, 267.259
3389.512, 268.679
3391.440, 267.935
3393.369, 265.284
3395.297, 265.425
3397.226, 274.964
3399.154, 278.776
3401.083, 273.605
3403.011, 271.796
3404.940, 274.002
3406.868, 274.526
3408.797, 274.182
3410.725, 275.462
3412.654, 276.158
3414.582, 272.636
3416.510, 270.186
3418.439, 270.541
3420.367, 273.730
3422.296, 280.870
3424.224, 282.863
3426.153, 280.582
3428.081, 281.941
3430.010, 283.386
3431.938, 275.206
3433.867, 267.802
3435.795, 268.439
3437.724, 272.831
3439.652, 281.353
3441.581, 286.172
3443.509, 286.231
3445.438, 281.558
3447.366, 275.727
3449.294, 287.373
3451.223, 300.186
3453.151, 291.963
3455.080, 284.099
3457.008, 287.640
3458.937, 289.595
3460.865, 285.527
3462.794, 285.395
3464.722, 288.075
3466.651, 282.515
3468.579, 275.029
3470.508, 277.061
3472.436, 281.705
3474.365, 286.784
3476.293, 286.956
3478.221, 275.613
3480.150, 275.918
3482.078, 287.352
3484.007, 286.912
3485.935, 279.372
3487.864, 277.457
3489.792, 276.605
3491.721, 269.573
3493.649, 269.047
3495.578, 282.358
3497.506, 289.841
3499.435, 288.667
3501.363, 284.871
3503.292, 281.084
3505.220, 290.222
3507.148, 299.424
3509.077, 292.669
3511.005, 287.313
3512.934, 290.950
3514.862, 291.239
3516.791, 285.306
3518.719, 279.372
3520.648, 275.624
3522.576, 284.647
3524.505, 294.541
3526.433, 288.224
3528.362, 283.453
3530.290, 289.330
3532.219, 292.105
3534.147, 290.262
3536.075, 288.720
3538.004, 287.576
3539.932, 286.923
3541.861, 285.978
3543.789, 283.512
3545.718, 281.463
3547.646, 278.905
3549.575, 282.879
3551.503, 293.364
3553.432, 294.600
3555.360, 290.482
3557.289, 293.710
3559.217, 297.175
3561.146, 292.229
3563.074, 291.006
3565.002, 298.495
3566.931, 300.015
3568.859, 294.380
3570.788, 293.641
3572.716, 295.016
3574.645, 291.836
3576.573, 289.590
3578.502, 294.763
3580.430, 296.082
3582.359, 290.102
3584.287, 292.223
3586.216, 300.772
3588.144, 294.162
3590.073, 284.977
3592.001, 292.764
3593.929, 299.000
3595.858, 294.785
3597.786, 291.749
3599.715, 292.028
3601.643, 293.975
3603.572, 296.988
3605.500, 300.671
3607.429, 302.523
3609.357, 297.480
3611.286, 296.381
3613.214, 304.976
3615.143, 312.019
3617.071, 316.128
3619.000, 305.648
3620.928, 291.346
3622.856, 287.762
3624.785, 290.679
3626.713, 303.122
3628.642, 305.530
3630.570, 295.207
3632.499, 299.392
3634.427, 311.202
3636.356, 311.130
3638.284, 306.931
3640.213, 301.363
3642.141, 302.701
3644.070, 317.190
3645.998, 316.017
3647.927, 303.131
3649.855, 304.778
3651.783, 312.352
3653.712, 319.207
3655.640, 319.961
3657.569, 306.173
3659.497, 300.996
3661.426, 304.451
3663.354, 304.643
3665.283, 303.886
3667.211, 308.878
3669.140, 311.767
3671.068, 305.225
3672.997, 302.462
3674.925, 304.719
3676.854, 308.316
3678.782, 312.798
3680.710, 321.500
3682.639, 324.808
3684.567, 310.453
3686.496, 300.977
3688.424, 299.776
3690.353, 308.044
3692.281, 319.678
3694.210, 312.274
3696.138, 302.227
3698.067, 302.877
3699.995, 305.954
3701.924, 310.036
3703.852, 308.332
3705.781, 303.107
3707.709, 305.192
3709.637, 310.440
3711.566, 318.296
3713.494, 320.124
3715.423, 313.010
3717.351, 309.792
3719.280, 310.436
3721.208, 311.174
3723.137, 311.531
3725.065, 311.639
3726.994, 309.124
3728.922, 301.593
3730.851, 310.672
3732.779, 331.183
3734.708, 328.664
3736.636, 319.879
3738.564, 321.926
3740.493, 322.846
3742.421, 319.140
3744.350, 315.820
3746.278, 313.519
3748.207, 313.268
3750.135, 315.144
3752.064, 321.379
3753.992, 325.005
3755.921, 324.941
3757.849, 315.508
3759.778, 302.228
3761.706, 310.396
3763.635, 320.869
3765.563, 312.681
3767.491, 314.292
3769.420, 331.893
3771.348, 332.149
3773.277, 322.600
3775.205, 331.728
3777.134, 341.547
3779.062, 339.306
3780.991, 332.672
3782.919, 322.895
3784.848, 324.434
3786.776, 331.336
3788.705, 329.169
3790.633, 328.352
3792.562, 338.074
3794.490, 342.089
3796.418, 339.687
3798.347, 337.545
3800.275, 336.026
3802.204, 335.185
3804.132, 335.418
3806.061, 338.168
3807.989, 338.462
3809.918, 336.660
3811.846, 335.178
3813.775, 333.952
3815.703, 331.921
3817.632, 332.669
3819.560, 338.613
3821.489, 343.592
3823.417, 346.692
3825.345, 345.607
3827.274, 342.119
3829.202, 335.355
3831.131, 336.041
3833.059, 347.331
3834.988, 332.267
3836.916, 312.171
3838.845, 328.290
3840.773, 340.494
3842.702, 330.328
3844.630, 331.738
3846.559, 344.525
3848.487, 349.704
3850.416, 349.820
3852.344, 344.116
3854.272, 339.632
3856.201, 337.315
3858.129, 340.806
3860.058, 346.683
3861.986, 345.495
3863.915, 341.870
3865.843, 337.421
3867.772, 336.561
3869.700, 339.400
3871.629, 335.520
3873.557, 333.868
3875.486, 351.273
3877.414, 359.700
3879.343, 352.503
3881.271, 351.931
3883.199, 354.776
3885.128, 346.452
3887.056, 339.812
3888.985, 347.141
3890.913, 355.246
3892.842, 361.320
3894.770, 358.501
3896.699, 350.765
3898.627, 340.843
3900.556, 341.666
3902.484, 356.237
3904.413, 363.052
3906.341, 364.622
3908.270, 356.665
3910.198, 348.170
3912.126, 345.693
3914.055, 346.793
3915.983, 350.660
3917.912, 354.565
3919.840, 358.858
3921.769, 365.291
3923.697, 369.425
3925.626, 370.093
3927.554, 360.905
3929.483, 352.639
3931.411, 369.772
3933.340, 376.175
3935.268, 359.722
3937.197, 356.515
3939.125, 362.175
3941.053, 369.174
3942.982, 370.281
3944.910, 359.056
3946.839, 353.257
3948.767, 351.006
3950.696, 352.423
3952.624, 360.276
3954.553, 375.039
3956.481, 373.455
3958.410, 360.695
3960.338, 368.889
3962.267, 379.012
3964.195, 370.658
3966.124, 365.083
3968.052, 367.590
3969.980, 370.299
3971.909, 371.154
3973.837, 369.007
3975.766, 371.567
3977.694, 371.188
3979.623, 371.278
3981.551, 378.313
3983.480, 379.601
3985.408, 375.060
3987.337, 367.311
3989.265, 370.972
3991.194, 383.433
3993.122, 381.645
3995.051, 374.972
3996.979, 372.574
3998.907, 373.259
4000.836, 374.643
4002.764, 376.925
4004.693, 380.885
4006.621, 386.232
4008.550, 387.234
4010.478, 381.995
4012.407, 379.956
4014.335, 383.065
4016.264, 389.861
4018.192, 390.430
4020.121, 389.045
4022.049, 387.644
4023.978, 385.625
4025.906, 387.078
4027.834, 390.434
4029.763, 393.759
4031.691, 394.202
4033.620, 393.271
4035.548, 392.750
4037.477, 395.672
4039.405, 405.256
4041.334, 406.426
4043.262, 401.961
4045.191, 397.848
4047.119, 397.386
4049.048, 406.655
4050.976, 409.462
4052.905, 404.349
4054.833, 397.398
4056.761, 394.319
4058.690, 390.440
4060.618, 393.662
4062.547, 406.202
4064.475, 413.766
4066.404, 415.259
4068.332, 407.950
4070.261, 405.009
4072.189, 405.224
4074.118, 404.115
4076.046, 405.394
4077.975, 410.191
4079.903, 410.702
4081.832, 410.754
4083.760, 412.535
4085.688, 411.530
4087.617, 408.138
4089.545, 411.350
4091.474, 423.503
4093.402, 424.150
4095.331, 423.788
4097.259, 420.954
4099.188, 414.880
4101.116, 419.701
4103.045, 422.915
4104.973, 421.194
4106.902, 422.844
4108.830, 424.745
4110.759, 422.612
4112.687, 420.231
4114.616, 422.695
4116.544, 429.774
4118.473, 429.128
4120.401, 428.057
4122.330, 428.192
4124.258, 428.702
4126.187, 423.073
4128.115, 418.292
4130.043, 437.782
4131.972, 451.497
4133.900, 446.308
4135.829, 449.083
4137.757, 451.230
4139.686, 439.274
4141.614, 428.283
4143.542, 427.328
4145.471, 435.881
4147.399, 448.688
4149.328, 441.829
4151.256, 431.366
4153.185, 439.343
4155.113, 444.762
4157.042, 441.282
4158.970, 444.201
4160.899, 448.526
4162.827, 445.903
4164.756, 452.412
4166.684, 465.717
4168.613, 461.898
4170.541, 455.807
4172.470, 459.224
4174.398, 460.763
4176.327, 461.091
4178.255, 461.083
4180.184, 460.325
4182.112, 459.386
4184.041, 464.770
4185.969, 476.618
4187.897, 465.645
4189.826, 452.562
4191.754, 460.537
4193.683, 470.971
4195.611, 478.267
4197.540, 479.301
4199.468, 481.740
4201.396, 493.371
4203.325, 496.201
4205.253, 489.249
4207.182, 484.338
4209.110, 480.288
4211.039, 479.907
4212.967, 485.293
4214.896, 495.602
4216.824, 493.578
4218.753, 490.699
4220.681, 500.155
4222.610, 507.680
4224.538, 512.336
4226.467, 515.586
4228.395, 516.521
4230.324, 511.322
4232.252, 514.761
4234.181, 525.619
4236.109, 531.647
4238.038, 531.813
4239.966, 519.811
4241.895, 518.764
4243.823, 526.493
4245.751, 531.057
4247.680, 531.359
4249.608, 520.990
4251.537, 527.033
4253.465, 542.666
4255.394, 547.393
4257.322, 549.186
4259.250, 550.672
4261.179, 554.714
4263.107, 559.061
4265.036, 559.505
4266.964, 557.010
4268.893, 550.066
4270.821, 556.463
4272.750, 566.643
4274.678, 566.166
4276.607, 564.821
4278.535, 564.752
4280.464, 562.799
4282.392, 562.161
4284.321, 567.406
4286.249, 571.964
4288.178, 575.092
4290.106, 577.507
4292.035, 582.523
4293.963, 599.866
4295.892, 595.405
4297.820, 576.614
4299.749, 582.693
4301.677, 591.275
4303.605, 589.920
4305.534, 593.298
4307.462, 600.369
4309.391, 611.487
4311.319, 616.475
4313.248, 611.119
4315.176, 606.422
4317.104, 602.860
4319.033, 600.872
4320.961, 600.558
4322.890, 602.250
4324.818, 618.569
4326.747, 627.160
4328.675, 604.525
4330.604, 604.973
4332.532, 624.024
4334.461, 623.284
4336.389, 621.163
4338.318, 625.730
4340.246, 628.388
4342.175, 629.833
4344.103, 635.065
4346.032, 630.048
4347.960, 614.021
4349.889, 626.169
4351.817, 641.870
4353.746, 633.402
4355.674, 637.413
4357.603, 651.515
4359.531, 645.473
4361.459, 637.063
4363.388, 635.747
4365.316, 631.254
4367.245, 629.411
4369.173, 646.239
4371.102, 659.520
4373.030, 662.973
4374.958, 654.191
4376.887, 645.233
4378.815, 648.890
4380.744, 657.753
4382.672, 667.811
4384.601, 662.491
4386.529, 655.341
4388.458, 651.278
4390.386, 662.608
4392.315, 676.048
4394.243, 665.620
4396.172, 659.216
4398.100, 662.173
4400.029, 663.640
4401.957, 668.294
4403.886, 682.224
4405.814, 682.191
4407.743, 671.173
4409.671, 655.264
4411.600, 653.606
4413.528, 671.160
4415.457, 683.932
4417.385, 689.588
4419.313, 687.465
4421.242, 672.869
4423.170, 653.098
4425.099, 663.341
4427.027, 678.319
4428.956, 686.711
4430.884, 688.493
4432.813, 687.019
4434.741, 688.011
4436.669, 683.238
4438.598, 671.990
4440.526, 685.023
4442.455, 692.162
4444.383, 693.724
4446.312, 673.004
4448.240, 681.056
4450.169, 677.578
4452.097, 679.809
4454.026, 685.049
4455.954, 688.774
4457.883, 692.001
4459.811, 700.278
4461.740, 682.939
4463.668, 659.821
4465.597, 678.538
4467.525, 687.272
4469.454, 676.200
4471.382, 681.711
4473.311, 687.826
4475.239, 682.774
4477.167, 693.360
4479.096, 708.896
4481.024, 703.626
4482.953, 704.875
4484.881, 714.430
4486.810, 704.127
4488.738, 690.046
4490.667, 680.334
4492.595, 683.773
4494.523, 694.720
4496.452, 708.441
4498.380, 709.159
4500.309, 696.278
4502.237, 683.647
4504.166, 685.591
4506.094, 712.061
4508.023, 713.824
4509.951, 701.077
4511.880, 682.131
4513.808, 688.419
4515.737, 710.088
4517.665, 684.110
4519.594, 671.877
4521.522, 707.809
4523.451, 692.308
4525.379, 673.378
4527.308, 711.596
4529.236, 720.125
4531.165, 704.810
4533.093, 702.448
4535.021, 702.831
4536.950, 703.786
4538.878, 718.601
4540.807, 726.131
4542.735, 708.401
4544.664, 699.125
4546.592, 695.147
4548.521, 685.348
4550.449, 683.232
4552.377, 690.887
4554.306, 717.775
4556.234, 728.040
4558.163, 707.715
4560.091, 703.466
4562.020, 705.856
4563.948, 704.066
4565.877, 705.509
4567.805, 707.498
4569.734, 701.960
4571.662, 693.525
4573.591, 684.212
4575.519, 690.321
4577.448, 699.236
4579.376, 705.350
4581.305, 694.306
4583.233, 686.071
4585.162, 712.275
4587.090, 715.711
4589.019, 701.648
4590.947, 697.959
4592.875, 699.359
4594.804, 703.818
4596.732, 699.501
4598.661, 695.301
4600.589, 695.695
4602.518, 706.042
4604.446, 714.135
4606.375, 701.828
4608.303, 698.573
4610.231, 702.731
4612.160, 701.395
4614.088, 705.772
4616.017, 717.227
4617.945, 720.643
4619.874, 719.516
4621.802, 715.406
4623.731, 707.810
4625.659, 701.549
4627.588, 702.001
4629.516, 700.009
4631.445, 699.835
4633.373, 715.671
4635.302, 723.018
4637.230, 720.231
4639.159, 719.132
4641.087, 716.249
4643.016, 711.157
4644.944, 713.026
4646.873, 720.440
4648.801, 736.911
4650.729, 737.766
4652.658, 730.223
4654.586, 720.152
4656.515, 725.542
4658.443, 736.684
4660.372, 724.419
4662.300, 715.505
4664.229, 714.732
4666.157, 717.572
4668.085, 717.252
4670.014, 711.161
4671.942, 704.146
4673.871, 708.733
4675.799, 735.442
4677.728, 722.448
4679.656, 699.058
4681.585, 705.018
4683.513, 715.376
4685.442, 724.527
4687.370, 725.647
4689.299, 721.943
4691.227, 715.931
4693.156, 713.120
4695.084, 711.716
4697.013, 711.060
4698.941, 710.313
4700.870, 713.965
4702.798, 724.572
4704.727, 729.594
4706.655, 730.876
4708.583, 729.668
4710.512, 730.971
4712.440, 732.697
4714.369, 732.217
4716.297, 727.086
4718.226, 719.900
4720.154, 715.102
4722.083, 717.037
4724.011, 724.099
4725.939, 729.499
4727.868, 732.095
4729.796, 731.977
4731.725, 738.572
4733.653, 733.056
4735.582, 710.624
4737.510, 732.735
4739.439, 755.564
4741.367, 740.927
4743.296, 736.790
4745.224, 736.527
4747.153, 733.425
4749.081, 737.930
4751.010, 744.007
4752.938, 740.864
4754.867, 742.325
4756.795, 745.671
4758.724, 738.516
4760.652, 747.309
4762.581, 764.289
4764.509, 743.220
4766.438, 737.640
4768.366, 753.126
4770.294, 737.092
4772.223, 729.026
4774.151, 739.933
4776.080, 750.964
4778.008, 749.018
4779.937, 728.068
4781.865, 746.888
4783.793, 765.433
4785.722, 758.495
4787.650, 738.397
4789.579, 727.216
4791.507, 744.054
4793.436, 759.692
4795.364, 759.637
4797.293, 720.718
4799.221, 724.408
4801.150, 747.603
4803.078, 758.350
4805.007, 740.829
4806.935, 718.989
4808.864, 744.559
4810.792, 761.579
4812.721, 766.348
4814.649, 769.582
4816.578, 754.854
4818.506, 733.853
4820.435, 761.832
4822.363, 769.987
4824.292, 753.058
4826.220, 748.499
4828.148, 752.450
4830.077, 761.441
4832.005, 762.407
4833.934, 760.840
4835.862, 758.330
4837.791, 753.614
4839.719, 745.343
4841.647, 734.006
4843.576, 739.974
4845.504, 749.969
4847.433, 758.310
4849.361, 766.389
4851.290, 769.922
4853.218, 766.008
4855.147, 771.583
4857.075, 773.643
4859.004, 765.899
4860.932, 773.356
4862.861, 776.271
4864.789, 754.310
4866.718, 777.815
4868.646, 793.360
4870.575, 766.696
4872.503, 770.571
4874.432, 783.743
4876.360, 788.578
4878.289, 778.099
4880.217, 771.734
4882.146, 785.277
4884.074, 757.859
4886.002, 733.990
4887.931, 760.297
4889.859, 754.036
4891.788, 750.090
4893.716, 782.920
4895.645, 780.053
4897.573, 769.801
4899.501, 782.275
4901.430, 774.934
4903.358, 767.482
4905.287, 781.147
4907.215, 791.493
4909.144, 790.114
4911.072, 768.903
4913.001, 771.826
4914.929, 779.043
4916.858, 765.612
4918.786, 769.344
4920.715, 776.168
4922.643, 774.136
4924.572, 774.449
4926.500, 770.358
4928.429, 751.367
4930.357, 761.447
4932.286, 778.804
4934.214, 788.286
4936.143, 771.046
4938.071, 760.596
4940.000, 782.140
4941.928, 785.954
4943.856, 781.600
4945.785, 776.425
4947.713, 766.534
4949.642, 766.491
4951.570, 783.117
4953.499, 772.305
4955.427, 765.150
4957.355, 781.387
4959.284, 780.465
4961.212, 778.645
4963.141, 781.830
4965.069, 768.827
4966.998, 763.113
4968.926, 773.081
4970.855, 780.680
4972.783, 784.788
4974.712, 784.590
4976.640, 772.002
4978.569, 773.584
4980.497, 788.956
4982.426, 781.547
4984.354, 778.826
4986.283, 784.191
4988.211, 779.024
4990.140, 779.550
4992.068, 784.050
4993.997, 774.526
4995.925, 774.791
4997.854, 783.734
4999.782, 796.249
5001.710, 787.706
5003.639, 777.107
5005.567, 805.494
5007.496, 802.598
5009.424, 788.252
5011.353, 802.615
5013.281, 800.904
5015.209, 795.135
5017.138, 801.315
5019.066, 785.941
5020.995, 773.619
5022.923, 783.610
5024.852, 793.289
5026.780, 798.024
5028.709, 795.796
5030.637, 790.232
5032.566, 781.117
5034.494, 770.944
5036.423, 786.823
5038.351, 791.390
5040.280, 778.545
5042.208, 778.553
5044.137, 786.551
5046.065, 797.108
5047.994, 796.119
5049.922, 800.315
5051.851, 806.584
5053.779, 800.445
5055.708, 804.026
5057.636, 810.304
5059.564, 805.058
5061.493, 808.915
5063.421, 813.920
5065.350, 811.877
5067.278, 798.697
5069.207, 793.222
5071.135, 807.744
5073.063, 805.730
5074.992, 801.003
5076.920, 800.499
5078.849, 813.263
5080.777, 810.725
5082.706, 796.081
5084.634, 810.411
5086.563, 821.777
5088.491, 824.380
5090.420, 817.300
5092.348, 818.514
5094.277, 817.578
5096.205, 795.662
5098.134, 796.751
5100.062, 807.958
5101.991, 816.129
5103.919, 807.167
5105.848, 798.787
5107.776, 800.535
5109.705, 810.411
5111.633, 805.470
5113.562, 788.935
5115.490, 809.279
5117.418, 817.472
5119.347, 812.013
5121.275, 814.299
5123.204, 820.310
5125.132, 822.206
5127.061, 810.346
5128.989, 796.888
5130.917, 792.657
5132.846, 805.271
5134.774, 810.623
5136.703, 821.815
5138.631, 842.339
5140.560, 838.826
5142.488, 833.982
5144.417, 830.312
5146.345, 811.688
5148.274, 807.155
5150.202, 815.573
5152.131, 834.811
5154.059, 831.474
5155.988, 829.030
5157.916, 848.224
5159.845, 822.508
5161.773, 812.980
5163.702, 839.689
5165.630, 821.987
5167.559, 817.700
5169.487, 832.398
5171.416, 833.197
5173.344, 824.594
5175.272, 822.009
5177.201, 847.059
5179.129, 853.520
5181.058, 843.482
5182.986, 821.442
5184.915, 813.045
5186.843, 816.681
5188.771, 828.762
5190.700, 837.333
5192.628, 839.834
5194.557, 840.110
5196.485, 848.989
5198.414, 837.715
5200.342, 827.447
5202.271, 847.538
5204.199, 825.937
5206.128, 805.875
5208.056, 807.182
5209.985, 824.431
5211.913, 838.851
5213.842, 845.408
5215.770, 837.954
5217.699, 847.380
5219.627, 859.993
5221.556, 858.552
5223.484, 844.418
5225.413, 831.939
5227.341, 830.000
5229.270, 855.382
5231.198, 876.028
5233.126, 881.684
5235.055, 860.403
5236.983, 863.760
5238.912, 869.606
5240.840, 847.564
5242.769, 846.272
5244.697, 852.422
5246.625, 857.972
5248.554, 858.739
5250.482, 859.125
5252.411, 858.481
5254.339, 852.309
5256.268, 849.380
5258.196, 849.237
5260.125, 850.689
5262.053, 864.640
5263.982, 870.309
5265.910, 865.240
5267.839, 873.626
5269.767, 868.213
5271.696, 859.333
5273.624, 871.832
5275.553, 869.759
5277.481, 865.032
5279.410, 865.304
5281.338, 869.059
5283.267, 869.637
5285.195, 865.678
5287.124, 855.810
5289.052, 854.033
5290.980, 855.296
5292.909, 852.541
5294.837, 868.746
5296.766, 869.009
5298.694, 852.658
5300.623, 873.664
5302.551, 876.380
5304.479, 870.834
5306.408, 881.544
5308.336, 868.404
5310.265, 857.375
5312.193, 861.508
5314.122, 872.594
5316.050, 869.785
5317.979, 862.467
5319.907, 872.980
5321.836, 882.817
5323.764, 884.535
5325.693, 877.451
5327.621, 888.192
5329.550, 879.141
5331.478, 861.882
5333.407, 886.510
5335.335, 887.973
5337.264, 876.605
5339.192, 864.891
5341.121, 875.968
5343.049, 897.446
5344.978, 909.961
5346.906, 869.878
5348.834, 871.502
5350.763, 888.900
5352.691, 897.574
5354.620, 882.238
5356.548, 887.542
5358.477, 895.938
5360.405, 893.690
5362.334, 904.626
5364.262, 912.360
5366.191, 917.068
5368.119, 909.679
5370.048, 917.698
5371.976, 905.957
5373.905, 893.527
5375.833, 886.024
5377.762, 883.180
5379.690, 883.296
5381.619, 863.088
5383.547, 886.457
5385.476, 923.757
5387.404, 896.064
5389.333, 895.277
5391.261, 904.092
5393.189, 906.457
5395.118, 880.972
5397.046, 875.368
5398.975, 887.790
5400.903, 902.871
5402.832, 901.226
5404.760, 884.298
5406.688, 862.724
5408.617, 874.157
5410.545, 882.553
5412.474, 885.969
5414.402, 888.707
5416.331, 871.661
5418.259, 879.044
5420.188, 906.776
5422.116, 902.008
5424.045, 889.603
5425.973, 882.744
5427.902, 886.976
5429.830, 890.799
5431.759, 885.987
5433.687, 879.950
5435.616, 886.996
5437.544, 907.429
5439.473, 911.627
5441.401, 892.786
5443.330, 882.531
5445.258, 892.902
5447.187, 913.651
5449.115, 930.653
5451.043, 916.954
5452.972, 921.563
5454.900, 921.731
5456.829, 917.689
5458.757, 902.947
5460.686, 892.651
5462.614, 899.702
5464.542, 884.750
5466.471, 897.904
5468.399, 916.682
5470.328, 908.117
5472.256, 899.829
5474.185, 896.893
5476.113, 903.050
5478.042, 927.286
5479.970, 926.459
5481.899, 915.484
5483.827, 907.863
5485.756, 924.880
5487.684, 923.534
5489.613, 920.183
5491.541, 939.203
5493.470, 910.654
5495.398, 895.865
5497.327, 903.844
5499.255, 919.735
5501.184, 917.454
5503.112, 908.537
5505.041, 902.660
5506.969, 910.163
5508.897, 919.519
5510.826, 928.000
5512.754, 933.814
5514.683, 914.761
5516.611, 910.936
5518.540, 915.061
5520.468, 907.409
5522.396, 912.572
5524.325, 921.632
5526.253, 927.682
5528.182, 924.136
5530.110, 917.978
5532.039, 909.620
5533.967, 902.252
5535.896, 907.269
5537.824, 942.556
5539.753, 958.979
5541.681, 927.174
5543.610, 933.674
5545.538, 932.582
5547.467, 922.530
5549.395, 913.289
5551.324, 924.616
5553.252, 938.306
5555.181, 939.126
5557.109, 910.423
5559.038, 922.002
5560.966, 936.672
5562.895, 938.198
5564.823, 922.641
5566.751, 941.904
5568.680, 948.491
5570.608, 929.921
5572.537, 942.849
5574.465, 943.458
5576.394, 945.645
5578.322, 957.610
5580.250, 944.544
5582.179, 940.524
5584.107, 938.907
5586.036, 929.830
5587.964, 915.659
5589.893, 939.575
5591.821, 962.440
5593.750, 925.911
5595.678, 933.917
5597.607, 945.310
5599.535, 944.348
5601.464, 925.321
5603.392, 925.493
5605.321, 937.627
5607.249, 946.463
5609.178, 931.019
5611.106, 945.267
5613.035, 963.263
5614.963, 966.764
5616.892, 937.955
5618.820, 957.988
5620.749, 974.115
5622.677, 967.573
5624.605, 961.673
5626.534, 943.837
5628.462, 938.348
5630.391, 952.999
5632.319, 980.570
5634.248, 962.458
5636.176, 937.090
5638.104, 931.568
5640.033, 954.726
5641.961, 968.291
5643.890, 958.582
5645.818, 933.921
5647.747, 944.414
5649.675, 959.070
5651.604, 972.582
5653.532, 980.165
5655.461, 955.746
5657.389, 956.984
5659.318, 969.989
5661.246, 978.901
5663.175, 969.528
5665.103, 955.418
5667.032, 942.815
5668.960, 939.773
5670.889, 974.385
5672.817, 972.224
5674.746, 961.312
5676.674, 959.982
5678.603, 938.674
5680.531, 960.437
5682.459, 967.732
5684.388, 940.556
5686.316, 954.013
5688.245, 954.741
5690.173, 957.653
5692.102, 967.701
5694.030, 956.747
5695.958, 960.120
5697.887, 977.173
5699.815, 993.019
5701.744, 967.375
5703.672, 951.562
5705.601, 956.907
5707.529, 969.632
5709.458, 951.904
5711.386, 980.222
5713.315, 976.431
5715.243, 947.610
5717.172, 970.384
5719.100, 1008.428
5721.029, 1015.442
5722.957, 993.376
5724.886, 967.403
5726.814, 978.037
5728.743, 987.446
5730.671, 991.220
5732.600, 1000.292
5734.528, 1009.154
5736.457, 998.621
5738.385, 979.900
5740.313, 970.309
5742.242, 995.811
5744.170, 996.420
5746.099, 977.106
5748.027, 960.030
5749.956, 995.236
5751.884, 1006.424
5753.813, 999.560
5755.741, 991.087
5757.669, 998.281
5759.598, 988.321
5761.526, 990.698
5763.455, 1002.895
5765.383, 976.756
5767.312, 997.045
5769.240, 1012.170
5771.169, 1007.273
5773.097, 989.709
5775.026, 999.678
5776.954, 1007.623
5778.883, 1009.875
5780.811, 1011.624
5782.740, 994.506
5784.668, 994.979
5786.597, 998.152
5788.525, 992.695
5790.454, 1007.118
5792.382, 1012.819
5794.311, 1005.762
5796.239, 1001.053
5798.167, 1034.316
5800.096, 1025.766
5802.024, 1010.702
5803.953, 1006.417
5805.881, 1013.177
5807.810, 1005.141
5809.738, 1009.393
5811.667, 1017.233
5813.595, 1015.821
5815.523, 1009.597
5817.452, 1013.945
5819.380, 1024.358
5821.309, 1032.286
5823.237, 1017.352
5825.166, 1034.323
5827.094, 1034.987
5829.023, 1022.090
5830.951, 1035.339
5832.880, 1015.240
5834.808, 1028.270
5836.737, 1038.505
5838.665, 1008.158
5840.594, 1012.175
5842.522, 1000.380
5844.451, 1019.309
5846.379, 1058.495
5848.308, 1026.667
5850.236, 1046.283
5852.165, 1046.553
5854.093, 1024.920
5856.021, 1010.862
5857.950, 1019.723
5859.878, 1015.280
5861.807, 1014.868
5863.735, 1027.468
5865.664, 1029.179
5867.592, 1012.567
5869.521, 1025.315
5871.449, 1047.648
5873.377, 1025.391
5875.306, 1017.154
5877.234, 1040.780
5879.163, 1055.062
5881.091, 1038.733
5883.020, 1056.758
5884.948, 1053.031
5886.877, 1046.708
5888.805, 1051.187
5890.734, 1077.645
5892.662, 1053.802
5894.591, 1025.430
5896.519, 1033.405
5898.448, 1075.856
5900.376, 1034.702
5902.305, 1057.370
5904.233, 1070.165
5906.162, 1057.030
5908.090, 1048.435
5910.019, 1057.118
5911.947, 1070.056
5913.875, 1066.584
5915.804, 1046.090
5917.732, 1045.817
5919.661, 1065.503
5921.589, 1063.006
5923.518, 1051.799
5925.446, 1061.622
5927.375, 1064.396
5929.303, 1062.193
5931.231, 1062.831
5933.160, 1072.967
5935.088, 1096.593
5937.017, 1076.209
5938.945, 1047.704
5940.874, 1052.163
5942.802, 1095.950
5944.731, 1085.650
5946.659, 1077.036
5948.588, 1067.546
5950.516, 1056.248
5952.445, 1047.413
5954.373, 1048.395
5956.302, 1084.776
5958.230, 1094.846
5960.159, 1071.308
5962.087, 1102.243
5964.016, 1122.905
5965.944, 1106.811
5967.873, 1092.254
5969.801, 1105.208
5971.729, 1075.529
5973.658, 1077.537
5975.586, 1084.091
5977.515, 1081.878
5979.443, 1072.643
5981.372, 1124.404
5983.300, 1110.990
5985.229, 1102.354
5987.157, 1109.935
5989.085, 1066.705
5991.014, 1078.819
5992.942, 1086.815
5994.871, 1082.817
5996.799, 1081.145
5998.728, 1115.212
6000.656, 1097.082
6002.585, 1096.374
6004.513, 1101.988
6006.442, 1095.774
6008.370, 1104.222
6010.299, 1110.512
6012.227, 1105.993
6014.156, 1102.100
6016.084, 1110.451
6018.013, 1118.743
6019.941, 1136.166
6021.870, 1132.084
6023.798, 1118.091
6025.727, 1120.327
6027.655, 1133.565
6029.583, 1124.884
6031.512, 1114.174
6033.440, 1107.428
6035.369, 1101.065
6037.297, 1113.841
6039.226, 1135.769
6041.154, 1120.822
6043.083, 1101.493
6045.011, 1140.725
6046.939, 1130.033
6048.868, 1139.078
6050.796, 1144.955
6052.725, 1146.365
6054.653, 1164.642
6056.582, 1185.459
6058.510, 1191.968
6060.439, 1163.830
6062.367, 1134.994
6064.296, 1161.460
6066.224, 1178.028
6068.153, 1167.130
6070.081, 1141.043
6072.010, 1130.618
6073.938, 1162.003
6075.867, 1173.031
6077.795, 1170.366
6079.724, 1163.365
6081.652, 1158.579
6083.581, 1157.885
6085.509, 1147.529
6087.438, 1151.607
6089.366, 1159.039
6091.294, 1167.491
6093.223, 1177.924
6095.151, 1162.643
6097.080, 1166.709
6099.008, 1169.208
6100.937, 1166.488
6102.865, 1167.153
6104.793, 1176.817
6106.722, 1187.411
6108.650, 1147.865
6110.579, 1141.756
6112.507, 1210.943
6114.436, 1179.293
6116.364, 1141.453
6118.293, 1154.817
6120.221, 1186.729
6122.150, 1197.363
6124.078, 1178.222
6126.007, 1166.232
6127.935, 1182.861
6129.864, 1182.595
6131.792, 1170.680
6133.721, 1203.055
6135.649, 1179.770
6137.578, 1192.591
6139.506, 1193.586
6141.435, 1187.244
6143.363, 1210.358
6145.292, 1209.983
6147.220, 1183.894
6149.148, 1183.046
6151.077, 1194.245
6153.005, 1189.692
6154.934, 1177.015
6156.862, 1176.069
6158.791, 1181.066
6160.719, 1198.273
6162.647, 1217.009
6164.576, 1206.069
6166.504, 1210.174
6168.433, 1204.694
6170.361, 1222.623
6172.290, 1234.513
6174.218, 1193.295
6176.147, 1195.433
6178.075, 1239.250
6180.004, 1239.028
6181.932, 1210.358
6183.861, 1197.831
6185.789, 1237.025
6187.718, 1204.733
6189.646, 1207.698
6191.575, 1215.960
6193.503, 1216.193
6195.432, 1228.229
6197.360, 1235.664
6199.289, 1215.681
6201.217, 1207.782
6203.146, 1218.774
6205.074, 1235.751
6207.002, 1243.619
6208.931, 1219.166
6210.859, 1212.103
6212.788, 1221.473
6214.716, 1240.378
6216.645, 1261.937
6218.573, 1256.440
6220.501, 1227.684
6222.430, 1216.584
6224.358, 1224.070
6226.287, 1241.407
6228.215, 1265.168
6230.144, 1251.012
6232.072, 1263.648
6234.001, 1248.212
6235.929, 1231.404
6237.858, 1248.344
6239.786, 1240.933
6241.715, 1255.517
6243.643, 1245.841
6245.572, 1260.193
6247.500, 1266.178
6249.429, 1208.202
6251.357, 1239.951
6253.286, 1245.536
6255.214, 1250.186
6257.143, 1255.280
6259.071, 1247.402
6261.000, 1222.344
6262.928, 1251.241
6264.856, 1266.577
6266.785, 1254.662
6268.713, 1244.136
6270.642, 1243.524
6272.570, 1216.238
6274.499, 1222.574
6276.427, 1259.783
6278.355, 1254.336
6280.284, 1241.427
6282.212, 1260.758
6284.141, 1249.113
6286.069, 1242.662
6287.998, 1253.407
6289.926, 1274.108
6291.855, 1284.642
6293.783, 1273.903
6295.712, 1250.917
6297.640, 1278.054
6299.569, 1293.100
6301.497, 1270.592
6303.426, 1260.381
6305.354, 1280.809
6307.283, 1293.801
6309.211, 1284.357
6311.140, 1292.588
6313.068, 1281.394
6314.997, 1273.039
6316.925, 1291.677
6318.854, 1298.492
6320.782, 1306.423
6322.710, 1273.209
6324.639, 1248.495
6326.567, 1251.729
6328.496, 1269.675
6330.424, 1278.158
6332.353, 1270.232
6334.281, 1278.333
6336.209, 1284.265
6338.138, 1286.487
6340.066, 1287.285
6341.995, 1274.213
6343.923, 1319.556
6345.852, 1306.622
6347.780, 1295.139
6349.709, 1281.430
6351.637, 1268.079
6353.566, 1292.182
6355.494, 1293.957
6357.423, 1289.080
6359.351, 1250.414
6361.280, 1248.370
6363.208, 1290.175
6365.137, 1318.142
6367.065, 1313.060
6368.994, 1313.763
6370.922, 1286.360
6372.851, 1305.333
6374.779, 1332.985
6376.708, 1320.142
6378.636, 1333.169
6380.564, 1303.683
6382.493, 1316.211
6384.421, 1292.949
6386.350, 1299.986
6388.278, 1337.608
6390.207, 1299.737
6392.135, 1320.395
6394.063, 1321.420
6395.992, 1319.094
6397.920, 1323.417
6399.849, 1322.286
6401.777, 1307.988
6403.706, 1301.442
6405.634, 1346.550
6407.563, 1322.244
6409.491, 1314.230
6411.420, 1331.208
6413.348, 1322.498
6415.277, 1271.204
6417.205, 1302.977
6419.134, 1319.857
6421.062, 1301.161
6422.991, 1302.171
6424.919, 1301.919
6426.848, 1292.468
6428.776, 1343.013
6430.705, 1283.979
6432.633, 1291.700
6434.562, 1309.248
6436.490, 1327.491
6438.418, 1345.328
6440.347, 1349.638
6442.275, 1323.201
6444.204, 1283.284
6446.132, 1317.602
6448.061, 1337.470
6449.989, 1324.896
6451.917, 1323.969
6453.846, 1350.822
6455.774, 1318.303
6457.703, 1286.210
6459.631, 1324.835
6461.560, 1314.928
6463.488, 1313.400
6465.417, 1348.375
6467.345, 1361.067
6469.274, 1340.591
6471.202, 1309.898
6473.131, 1320.211
6475.059, 1331.040
6476.988, 1339.906
6478.916, 1341.023
6480.845, 1328.454
6482.773, 1359.689
6484.702, 1331.690
6486.630, 1332.401
6488.559, 1332.996
6490.487, 1333.353
6492.416, 1330.583
6494.344, 1319.012
6496.272, 1327.464
6498.201, 1308.539
6500.129, 1316.036
6502.058, 1339.493
6503.986, 1350.162
6505.915, 1335.381
6507.843, 1310.275
6509.771, 1313.455
6511.700, 1340.424
6513.628, 1348.421
6515.557, 1343.977
6517.485, 1332.730
6519.414, 1322.866
6521.342, 1320.544
6523.271, 1325.886
6525.199, 1341.484
6527.128, 1327.712
6529.056, 1318.543
6530.985, 1301.337
6532.913, 1315.348
6534.842, 1343.412
6536.770, 1336.165
6538.699, 1334.466
6540.627, 1355.531
6542.556, 1315.535
6544.484, 1314.465
6546.413, 1310.009
6548.341, 1314.596
6550.270, 1337.507
6552.198, 1325.322
6554.126, 1300.917
6556.055, 1311.813
6557.983, 1290.741
6559.912, 1315.794
6561.840, 1348.992
6563.769, 1341.692
6565.697, 1312.809
6567.625, 1330.345
6569.554, 1304.601
6571.482, 1314.703
6573.411, 1314.188
6575.339, 1299.774
6577.268, 1319.125
##END=



