##NAMES=Magnetite
##RRUFFID=R140861
##IDEAL CHEMISTRY=Fe^2+^Fe^3+^_2_O_4_
##LOCALITY=Bon Accord, Barberton District, Mpumalanga Province, South Africa
##OWNER=RRUFF
##SOURCE=Rock Currier
##DESCRIPTION=Dark green isolated granular or octahedral crystals, associated with yellowish-green irregular veins of nimite, minute light-green opaque grains of willemseite, reevesite as yellowish-green massive earthy vug material and limonite.
##STATUS=The identification of this mineral is confirmed by single-crystal X-ray diffraction and chemical analysis
##URL=https://www.rruff.net/odr/rruff_sample/R140861
##MEASURED CHEMISTRY=(Fe^2+^_0.82_Ni_0.18_)Fe^3+^_2.00_O_4_
##DIFFRACTION SAMPLE DESCRIPTION=Single crystal, powder profile is calculated
##CELL PARAMETERS=a: 8.316 b: 8.316 c: 8.316 alpha: 90 beta: 90 gamma: 90 volume: 575.06 crystal system: cubic
##FILETYPE=Raman Processed
##RAMAN WAVELENGTH=780

92.30566, 3256.398
94.23413, 3259.753
96.16260, 3138.423
98.09106, 3038.198
100.0195, 2952.394
101.9480, 2878.105
103.8765, 2812.948
105.8049, 2756.216
107.7334, 2701.102
109.6619, 2644.436
111.5903, 2585.253
113.5188, 2520.143
115.4473, 2447.565
117.3757, 2380.200
119.3042, 2319.703
121.2327, 2260.284
123.1611, 2196.830
125.0896, 2134.099
127.0181, 2076.744
128.9465, 2024.112
130.8750, 1976.415
132.8035, 1934.618
134.7319, 1895.505
136.6604, 1857.913
138.5889, 1822.943
140.5173, 1792.289
142.4458, 1765.660
144.3743, 1737.386
146.3027, 1705.389
148.2312, 1673.911
150.1597, 1641.732
152.0881, 1611.953
154.0166, 1587.110
155.9451, 1566.766
157.8735, 1547.522
159.8020, 1530.051
161.7305, 1512.744
163.6589, 1495.342
165.5874, 1478.372
167.5159, 1461.068
169.4443, 1444.313
171.3728, 1431.799
173.3013, 1426.442
175.2297, 1420.144
177.1582, 1412.237
179.0867, 1404.090
181.0151, 1395.464
182.9436, 1387.374
184.8721, 1382.069
186.8005, 1380.708
188.7290, 1378.264
190.6575, 1375.986
192.5859, 1370.618
194.5144, 1359.528
196.4429, 1345.416
198.3713, 1329.829
200.2998, 1312.685
202.2283, 1297.092
204.1567, 1283.280
206.0852, 1270.052
208.0137, 1256.760
209.9421, 1244.387
211.8706, 1233.875
213.7991, 1224.801
215.7275, 1215.132
217.6560, 1204.336
219.5845, 1196.543
221.5129, 1193.473
223.4414, 1191.723
225.3699, 1189.974
227.2983, 1188.380
229.2268, 1187.004
231.1553, 1185.863
233.0837, 1185.811
235.0122, 1187.514
236.9407, 1188.225
238.8691, 1185.877
240.7976, 1183.346
242.7261, 1182.655
244.6545, 1183.238
246.5830, 1183.273
248.5115, 1182.791
250.4399, 1182.007
252.3684, 1180.641
254.2969, 1179.557
256.2253, 1179.269
258.1538, 1179.275
260.0823, 1178.935
262.0107, 1178.338
263.9392, 1177.992
265.8677, 1178.031
267.7961, 1177.828
269.7246, 1177.465
271.6531, 1176.546
273.5815, 1174.520
275.5100, 1171.981
277.4385, 1169.865
279.3669, 1168.180
281.2954, 1166.958
283.2239, 1166.506
285.1523, 1166.025
287.0808, 1165.177
289.0093, 1164.409
290.9377, 1164.244
292.8662, 1164.262
294.7947, 1163.600
296.7231, 1162.140
298.6516, 1160.911
300.5801, 1160.498
302.5085, 1159.697
304.4370, 1157.826
306.3655, 1155.874
308.2939, 1154.897
310.2224, 1154.409
312.1509, 1153.507
314.0793, 1152.399
316.0078, 1149.666
317.9363, 1143.402
319.8647, 1138.113
321.7932, 1136.493
323.7217, 1135.020
325.6501, 1130.520
327.5786, 1123.945
329.5071, 1118.118
331.4355, 1113.354
333.3640, 1108.806
335.2925, 1104.516
337.2209, 1100.345
339.1494, 1096.193
341.0779, 1092.133
343.0063, 1088.028
344.9348, 1084.004
346.8633, 1080.643
348.7917, 1078.173
350.7202, 1075.621
352.6487, 1072.873
354.5771, 1070.363
356.5056, 1068.879
358.4341, 1067.023
360.3625, 1063.669
362.2910, 1059.385
364.2195, 1055.324
366.1479, 1051.362
368.0764, 1048.709
370.0049, 1047.993
371.9333, 1046.716
373.8618, 1043.889
375.7903, 1040.604
377.7188, 1037.767
379.6472, 1034.694
381.5757, 1030.283
383.5042, 1024.497
385.4326, 1018.233
387.3611, 1011.574
389.2896, 1004.224
391.2180, 996.0930
393.1465, 987.3765
395.0750, 978.1343
397.0034, 968.4998
398.9319, 958.0636
400.8604, 947.2848
402.7888, 938.3630
404.7173, 931.2546
406.6458, 924.3967
408.5742, 917.3878
410.5027, 910.9793
412.4312, 905.1808
414.3596, 900.2706
416.2881, 896.6346
418.2166, 893.9357
420.1450, 892.0029
422.0735, 890.6320
424.0020, 888.0699
425.9304, 883.8348
427.8589, 880.9565
429.7874, 881.0245
431.7158, 881.3062
433.6443, 881.3232
435.5728, 880.8876
437.5012, 879.2333
439.4297, 877.1934
441.3582, 876.7095
443.2866, 877.6596
445.2151, 878.5871
447.1436, 879.2285
449.0720, 880.1840
451.0005, 882.1375
452.9290, 883.6360
454.8574, 883.3535
456.7859, 883.0109
458.7144, 885.0918
460.6428, 888.1713
462.5713, 888.9655
464.4998, 887.3569
466.4282, 886.7180
468.3567, 888.4708
470.2852, 889.1022
472.2136, 887.2892
474.1421, 885.5714
476.0706, 885.2032
477.9990, 885.1658
479.9275, 884.5361
481.8560, 883.4742
483.7844, 882.2881
485.7129, 880.9396
487.6414, 879.5363
489.5698, 878.1515
491.4983, 876.5560
493.4268, 875.3407
495.3552, 873.1638
497.2837, 869.1349
499.2122, 864.5023
501.1406, 859.9764
503.0691, 855.6664
504.9976, 852.0305
506.9260, 849.0567
508.8545, 844.7142
510.7830, 838.1497
512.7114, 832.1296
514.6399, 826.9091
516.5684, 821.6279
518.4968, 815.7798
520.4253, 810.1506
522.3538, 805.3752
524.2822, 800.9730
526.2107, 796.3572
528.1392, 791.7155
530.0676, 787.7391
531.9961, 784.5616
533.9246, 781.3094
535.8530, 777.8214
537.7815, 775.0187
539.7100, 773.5455
541.6384, 771.7760
543.5669, 768.3521
545.4954, 765.0505
547.4238, 762.9734
549.3523, 761.6561
551.2808, 760.8175
553.2092, 760.1996
555.1377, 758.0686
557.0662, 754.4324
558.9946, 751.5563
560.9231, 749.8172
562.8516, 747.8946
564.7800, 745.3737
566.7085, 742.7532
568.6370, 740.3555
570.5654, 737.7507
572.4939, 734.3773
574.4224, 730.7909
576.3508, 727.8124
578.2793, 725.3019
580.2078, 722.6668
582.1362, 719.9421
584.0647, 717.6187
585.9932, 715.7392
587.9216, 714.3473
589.8501, 713.9633
591.7786, 713.2138
593.7070, 711.5823
595.6355, 709.7717
597.5640, 707.9675
599.4924, 706.3693
601.4209, 705.2240
603.3494, 704.4466
605.2778, 703.8138
607.2063, 703.3434
609.1348, 703.2481
611.0632, 703.6086
612.9917, 703.4794
614.9202, 702.0732
616.8486, 701.5294
618.7771, 702.3004
620.7056, 703.6389
622.6340, 705.5949
624.5625, 707.7138
626.4910, 709.6231
628.4194, 711.5984
630.3479, 713.8038
632.2764, 716.3490
634.2048, 719.7379
636.1333, 723.8543
638.0618, 727.0616
639.9902, 728.8122
641.9187, 731.5833
643.8472, 736.4854
645.7756, 740.6147
647.7041, 743.3904
649.6326, 746.0094
651.5610, 748.7501
653.4895, 751.4689
655.4180, 753.7408
657.3464, 756.2970
659.2749, 760.1878
661.2034, 764.5278
663.1318, 767.7857
665.0603, 770.1438
666.9888, 772.4938
668.9172, 774.8674
670.8457, 776.8933
672.7742, 778.3315
674.7026, 780.3478
676.6311, 783.5716
678.5596, 785.5623
680.4880, 785.7100
682.4165, 784.5730
684.3450, 781.6765
686.2734, 778.5889
688.2019, 776.3574
690.1304, 774.2413
692.0588, 771.6318
693.9873, 768.6454
695.9158, 765.4052
697.8442, 761.9421
699.7727, 758.1735
701.7012, 754.1363
703.6296, 751.4870
705.5581, 750.3229
707.4866, 748.6325
709.4150, 746.1618
711.3435, 743.4764
713.2720, 740.7076
715.2004, 737.7416
717.1289, 734.3697
719.0574, 731.0731
720.9858, 728.3622
722.9143, 725.4205
724.8428, 721.5534
726.7712, 717.3964
728.6997, 713.3862
730.6282, 709.6768
732.5566, 706.5062
734.4851, 703.8610
736.4136, 701.9547
738.3420, 700.5167
740.2705, 698.1067
742.1990, 694.6287
744.1274, 690.9058
746.0559, 686.7410
747.9844, 683.7498
749.9128, 682.7563
751.8413, 681.7156
753.7698, 680.5425
755.6982, 679.0189
757.6267, 676.5266
759.5552, 674.5637
761.4836, 673.8923
763.4121, 673.9134
765.3406, 674.6466
767.2690, 675.4335
769.1975, 675.3730
771.1260, 675.0852
773.0544, 675.5392
774.9829, 676.3027
776.9114, 676.3031
778.8398, 675.7083
780.7683, 675.5859
782.6968, 675.9377
784.6252, 676.7262
786.5537, 678.1078
788.4822, 679.4069
790.4106, 681.4756
792.3391, 681.7786
794.2676, 678.8572
796.1960, 677.3015
798.1245, 678.2263
800.0530, 679.6095
801.9814, 681.2494
803.9099, 682.6742
805.8384, 683.6754
807.7668, 684.3943
809.6953, 684.6006
811.6238, 684.8936
813.5522, 685.6387
815.4807, 686.6684
817.4092, 687.9738
819.3376, 689.3116
821.2661, 690.2990
823.1946, 691.0729
825.1230, 691.9877
827.0515, 692.9948
828.9800, 693.9573
830.9084, 694.8691
832.8369, 695.4609
834.7654, 695.7683
836.6938, 694.6913
838.6223, 692.0734
840.5508, 691.6949
842.4792, 694.1132
844.4077, 695.1465
846.3362, 693.9811
848.2646, 692.9636
850.1931, 692.6726
852.1216, 691.8968
854.0500, 690.0364
855.9785, 688.4666
857.9070, 688.3646
859.8354, 687.3782
861.7639, 684.2170
863.6924, 680.8454
865.6208, 677.7966
867.5493, 675.1056
869.4778, 673.3506
871.4063, 671.2132
873.3347, 667.4007
875.2632, 663.0388
877.1917, 659.3078
879.1201, 655.5255
881.0486, 650.8683
882.9771, 645.6846
884.9055, 640.3001
886.8340, 634.8850
888.7625, 629.9009
890.6909, 625.0339
892.6194, 619.3984
894.5479, 613.3602
896.4763, 608.1652
898.4048, 603.5994
900.3333, 598.5688
902.2617, 593.1005
904.1902, 587.4521
906.1187, 581.6494
908.0471, 576.6223
909.9756, 572.4521
911.9041, 568.4827
913.8325, 564.5418
915.7610, 561.3464
917.6895, 559.3935
919.6179, 556.7660
921.5464, 552.7523
923.4749, 549.4167
925.4033, 547.3029
927.3318, 544.8670
929.2603, 541.7646
931.1887, 538.9396
933.1172, 536.3658
935.0457, 534.4628
936.9741, 533.9495
938.9026, 532.5455
940.8311, 529.0408
942.7595, 525.9947
944.6880, 524.2706
946.6165, 523.0335
948.5449, 522.1603
950.4734, 521.4058
952.4019, 520.9694
954.3303, 520.0429
956.2588, 518.1124
958.1873, 515.8052
960.1157, 512.8366
962.0442, 510.4914
963.9727, 509.9116
965.9011, 509.5433
967.8296, 508.6985
969.7581, 507.5777
971.6865, 506.1242
973.6150, 504.6430
975.5435, 502.9501
977.4719, 501.7923
979.4004, 502.3990
981.3289, 503.0325
983.2573, 502.1158
985.1858, 500.7240
987.1143, 499.4792
989.0427, 498.6463
990.9712, 498.9208
992.8997, 499.2491
994.8281, 498.4268
996.7566, 497.1117
998.6851, 496.0009
1000.614, 494.8309
1002.542, 492.8562
1004.470, 491.0800
1006.399, 491.1311
1008.327, 491.7343
1010.256, 491.5229
1012.184, 490.6667
1014.113, 489.0130
1016.041, 487.2030
1017.970, 486.1519
1019.898, 485.4415
1021.827, 484.3982
1023.755, 483.4720
1025.684, 483.5311
1027.612, 483.8366
1029.541, 483.4027
1031.469, 482.5390
1033.397, 481.1505
1035.326, 480.0006
1037.254, 480.8194
1039.183, 481.8565
1041.111, 480.4196
1043.040, 478.2430
1044.968, 477.7325
1046.897, 477.6234
1048.825, 476.5426
1050.754, 474.7443
1052.682, 472.0815
1054.611, 469.3192
1056.539, 467.3098
1058.468, 465.7814
1060.396, 464.5513
1062.324, 463.4695
1064.253, 462.5141
1066.181, 461.4570
1068.110, 459.8936
1070.038, 458.2721
1071.967, 456.9594
1073.895, 455.9384
1075.824, 455.5484
1077.752, 455.0342
1079.681, 453.7136
1081.609, 451.9262
1083.538, 449.5909
1085.466, 447.3662
1087.395, 445.7289
1089.323, 444.4663
1091.251, 443.4932
1093.180, 442.7401
1095.108, 442.4041
1097.037, 441.9468
1098.965, 440.9407
1100.894, 439.8701
1102.822, 438.8871
1104.751, 438.1140
1106.679, 437.9444
1108.608, 437.5077
1110.536, 435.9322
1112.465, 434.7496
1114.393, 435.1289
1116.322, 434.9873
1118.250, 433.3367
1120.178, 431.6098
1122.107, 430.2392
1124.035, 428.7712
1125.964, 426.8956
1127.892, 425.4134
1129.821, 424.7269
1131.749, 423.8686
1133.678, 422.3892
1135.606, 421.5886
1137.535, 422.0428
1139.463, 421.6992
1141.392, 419.8438
1143.320, 419.2656
1145.249, 420.5877
1147.177, 421.3112
1149.105, 421.2795
1151.034, 420.3187
1152.962, 418.3228
1154.891, 417.1224
1156.819, 416.7875
1158.748, 417.5548
1160.676, 419.2804
1162.605, 420.0377
1164.533, 419.8585
1166.462, 419.3061
1168.390, 418.3882
1170.319, 417.0036
1172.247, 415.2873
1174.176, 413.5281
1176.104, 411.7826
1178.032, 410.1994
1179.961, 408.6724
1181.889, 406.5462
1183.818, 404.8465
1185.746, 405.3107
1187.675, 406.3298
1189.603, 406.6324
1191.532, 406.4763
1193.460, 405.8364
1195.389, 405.1165
1197.317, 404.6195
1199.246, 403.9648
1201.174, 402.8138
1203.103, 401.7812
1205.031, 401.1272
1206.959, 400.5947
1208.888, 400.0957
1210.816, 399.8243
1212.745, 399.8548
1214.673, 400.1573
1216.602, 400.8619
1218.530, 400.6779
1220.459, 399.3599
1222.387, 398.1087
1224.316, 397.0362
1226.244, 398.0419
1228.173, 400.8444
1230.101, 400.9575
1232.030, 398.9601
1233.958, 398.4346
1235.886, 398.8846
1237.815, 399.0035
1239.743, 398.8900
1241.672, 398.5939
1243.600, 398.3449
1245.529, 398.6440
1247.457, 398.9670
1249.386, 398.5942
1251.314, 398.2945
1253.243, 398.5972
1255.171, 399.2247
1257.100, 400.2908
1259.028, 401.1760
1260.957, 401.6712
1262.885, 401.8602
1264.813, 401.3711
1266.742, 401.3876
1268.670, 402.1654
1270.599, 403.0282
1272.527, 404.0383
1274.456, 404.3815
1276.384, 404.0479
1278.313, 403.8586
1280.241, 403.9911
1282.170, 405.8560
1284.098, 408.6597
1286.027, 409.7415
1287.955, 410.1460
1289.884, 412.0413
1291.812, 414.0107
1293.740, 414.1766
1295.669, 414.2785
1297.597, 415.7621
1299.526, 417.3597
1301.454, 418.2893
1303.383, 419.4548
1305.311, 421.5258
1307.240, 422.8255
1309.168, 422.5385
1311.097, 423.1967
1313.025, 425.4691
1314.954, 426.6825
1316.882, 426.6317
1318.811, 427.9379
1320.739, 430.3075
1322.667, 431.2282
1324.596, 431.1839
1326.524, 431.0984
1328.453, 431.4327
1330.381, 433.5771
1332.310, 435.7293
1334.238, 435.7084
1336.167, 435.5122
1338.095, 436.6303
1340.024, 437.3642
1341.952, 436.8771
1343.881, 436.8693
1345.809, 437.9693
1347.738, 438.0438
1349.666, 436.7385
1351.594, 436.5232
1353.523, 437.4334
1355.451, 437.3906
1357.380, 436.7396
1359.308, 437.3654
1361.237, 438.3849
1363.165, 438.1992
1365.094, 437.1988
1367.022, 434.9322
1368.951, 433.3234
1370.879, 434.6611
1372.808, 435.5471
1374.736, 434.2036
1376.665, 432.7563
1378.593, 431.4593
1380.521, 430.5618
1382.450, 430.1157
1384.378, 430.0464
1386.307, 430.3428
1388.235, 430.6835
1390.164, 431.1629
1392.092, 432.5796
1394.021, 433.8363
1395.949, 432.9517
1397.878, 431.5899
1399.806, 430.8321
1401.735, 430.6286
1403.663, 431.4062
1405.592, 431.7900
1407.520, 431.0762
1409.448, 430.9458
1411.377, 432.0582
1413.305, 431.8130
1415.234, 430.2572
1417.162, 429.9146
1419.091, 430.4275
1421.019, 430.7662
1422.948, 430.9510
1424.876, 430.8800
1426.805, 430.8932
1428.733, 431.4747
1430.662, 431.8096
1432.590, 431.7028
1434.519, 430.6240
1436.447, 428.0572
1438.375, 427.5419
1440.304, 429.5211
1442.232, 429.5922
1444.161, 428.1826
1446.089, 428.0333
1448.018, 428.5250
1449.946, 428.7322
1451.875, 428.5166
1453.803, 427.4291
1455.732, 426.3326
1457.660, 425.7654
1459.589, 424.9229
1461.517, 423.5739
1463.446, 422.2548
1465.374, 421.0475
1467.302, 420.4536
1469.231, 420.2431
1471.159, 419.2117
1473.088, 417.8112
1475.016, 416.7544
1476.945, 415.8340
1478.873, 414.8311
1480.802, 413.9411
1482.730, 413.5345
1484.659, 412.6582
1486.587, 410.9021
1488.516, 410.0704
1490.444, 410.1966
1492.373, 409.5736
1494.301, 408.5432
1496.229, 408.4190
1498.158, 408.5098
1500.086, 407.9926
1502.015, 407.3020
1503.943, 406.9721
1505.872, 406.0966
1507.800, 403.6071
1509.729, 402.6870
1511.657, 403.8760
1513.586, 403.8336
1515.514, 402.8981
1517.443, 403.1283
1519.371, 403.8360
1521.300, 404.5224
1523.228, 404.1176
1525.156, 401.0541
1527.085, 398.9454
1529.013, 399.4286
1530.942, 399.4382
1532.870, 398.4545
1534.799, 397.5120
1536.727, 396.7474
1538.656, 397.0524
1540.584, 397.5548
1542.513, 396.1803
1544.441, 395.2813
1546.370, 396.8856
1548.298, 398.2726
1550.227, 398.5421
1552.155, 399.4641
1554.083, 401.1955
1556.012, 401.2625
1557.940, 400.1112
1559.869, 399.7343
1561.797, 399.3008
1563.726, 397.2297
1565.654, 395.4789
1567.583, 395.8632
1569.511, 395.4441
1571.440, 393.5935
1573.368, 392.1904
1575.297, 391.4445
1577.225, 392.3379
1579.154, 393.4885
1581.082, 391.2586
1583.010, 389.1224
1584.939, 391.1890
1586.867, 392.5156
1588.796, 390.2870
1590.724, 389.4361
1592.653, 390.3660
1594.581, 389.6791
1596.510, 388.0590
1598.438, 388.3404
1600.367, 389.0602
1602.295, 388.5336
1604.224, 387.9836
1606.152, 388.3315
1608.081, 388.1119
1610.009, 386.8504
1611.938, 386.2474
1613.866, 386.1678
1615.794, 386.0347
1617.723, 385.6164
1619.651, 384.2365
1621.580, 383.1590
1623.508, 383.3759
1625.437, 382.9444
1627.365, 381.2739
1629.294, 379.5985
1631.222, 378.1386
1633.151, 378.4445
1635.079, 379.3134
1637.008, 379.1939
1638.936, 378.3432
1640.865, 376.6441
1642.793, 375.2049
1644.721, 374.2770
1646.650, 373.5544
1648.578, 372.9645
1650.507, 372.1125
1652.435, 371.3858
1654.364, 371.4350
1656.292, 371.6073
1658.221, 371.7924
1660.149, 371.0113
1662.078, 369.1225
1664.006, 369.3712
1665.935, 370.7740
1667.863, 369.3385
1669.792, 367.3366
1671.720, 367.6811
1673.648, 367.4278
1675.577, 365.1293
1677.505, 363.8353
1679.434, 363.7681
1681.362, 364.6752
1683.291, 365.5976
1685.219, 364.2294
1687.148, 362.8182
1689.076, 363.4369
1691.005, 363.7065
1692.933, 363.1179
1694.862, 361.8615
1696.790, 360.2193
1698.719, 359.9986
1700.647, 360.0366
1702.575, 358.8424
1704.504, 357.5757
1706.432, 356.8474
1708.361, 356.0334
1710.289, 355.0831
1712.218, 354.6365
1714.146, 354.5910
1716.075, 354.8432
1718.003, 355.1359
1719.932, 355.6947
1721.860, 354.8461
1723.789, 351.7176
1725.717, 350.0591
1727.646, 349.7080
1729.574, 350.0189
1731.502, 350.4617
1733.431, 350.7386
1735.359, 350.3638
1737.288, 349.0478
1739.216, 348.0825
1741.145, 347.5357
1743.073, 346.8830
1745.002, 346.3440
1746.930, 346.5885
1748.859, 346.4473
1750.787, 345.5572
1752.716, 343.7216
1754.644, 341.1717
1756.573, 340.2629
1758.501, 340.4088
1760.429, 341.1656
1762.358, 341.3791
1764.286, 340.2981
1766.215, 338.7151
1768.143, 336.7934
1770.072, 335.8376
1772.000, 335.7172
1773.929, 336.8936
1775.857, 337.3762
1777.786, 335.1403
1779.714, 333.8683
1781.643, 333.9232
1783.571, 332.8568
1785.500, 331.2514
1787.428, 330.1445
1789.356, 329.5602
1791.285, 329.5558
1793.213, 330.1519
1795.142, 331.4346
1797.070, 330.1207
1798.999, 327.5663
1800.927, 326.2884
1802.856, 325.6877
1804.784, 326.0275
1806.713, 325.2055
1808.641, 322.9756
1810.570, 321.7831
1812.498, 321.0630
1814.427, 319.5538
1816.355, 318.6263
1818.283, 319.2448
1820.212, 318.9302
1822.140, 317.5034
1824.069, 316.9439
1825.997, 316.5634
1827.926, 314.8255
1829.854, 313.9784
1831.783, 315.0015
1833.711, 314.7051
1835.640, 313.1019
1837.568, 311.7898
1839.497, 310.9333
1841.425, 311.5128
1843.354, 310.7679
1845.282, 308.0257
1847.210, 306.5620
1849.139, 305.9756
1851.067, 304.2469
1852.996, 302.6421
1854.924, 302.0013
1856.853, 302.4288
1858.781, 303.7693
1860.710, 302.3967
1862.638, 299.9743
1864.567, 299.2203
1866.495, 299.1991
1868.424, 299.9199
1870.352, 299.3557
1872.281, 297.7728
1874.209, 297.4052
1876.137, 297.2455
1878.066, 296.1862
1879.994, 295.2071
1881.923, 294.5834
1883.851, 293.5393
1885.780, 292.2889
1887.708, 291.3673
1889.637, 290.5576
1891.565, 289.7937
1893.494, 288.9739
1895.422, 288.1208
1897.351, 287.5225
1899.279, 287.1258
1901.208, 287.0311
1903.136, 286.5746
1905.064, 285.4468
1906.993, 284.5043
1908.921, 283.6116
1910.850, 282.3502
1912.778, 281.0569
1914.707, 279.8532
1916.635, 278.9395
1918.564, 278.3808
1920.492, 278.6257
1922.421, 278.8311
1924.349, 277.9590
1926.278, 277.4655
1928.206, 277.6235
1930.135, 277.3274
1932.063, 276.6709
1933.991, 275.8495
1935.920, 274.7853
1937.848, 273.3624
1939.777, 272.9611
1941.705, 273.2300
1943.634, 272.5197
1945.562, 271.7914
1947.491, 272.0258
1949.419, 271.2754
1951.348, 269.6295
1953.276, 269.1232
1955.205, 268.8695
1957.133, 267.8799
1959.062, 266.7017
1960.990, 265.4219
1962.918, 266.1532
1964.847, 267.2289
1966.775, 265.8137
1968.704, 264.3376
1970.632, 263.8441
1972.561, 262.8435
1974.489, 261.4800
1976.418, 259.7367
1978.346, 258.6239
1980.275, 258.9510
1982.203, 259.1954
1984.132, 259.1711
1986.060, 258.3871
1987.989, 257.2466
1989.917, 255.7625
1991.845, 255.1575
1993.774, 255.3286
1995.702, 254.1860
1997.631, 252.9450
1999.559, 252.5967
2001.488, 252.2519
2003.416, 251.7379
2005.345, 250.9955
2007.273, 250.1255
2009.202, 249.1406
2011.130, 248.4637
2013.059, 248.1210
2014.987, 246.8124
2016.916, 245.2930
2018.844, 244.6350
2020.772, 244.2522
2022.701, 244.0056
2024.629, 242.6750
2026.558, 241.2756
2028.486, 241.8793
2030.415, 241.5917
2032.343, 239.7694
2034.272, 239.6802
2036.200, 240.0947
2038.129, 238.8089
2040.057, 237.1856
2041.986, 235.5493
2043.914, 235.6240
2045.843, 236.2547
2047.771, 235.6444
2049.699, 234.4879
2051.628, 232.9167
2053.556, 232.0253
2055.485, 231.7752
2057.413, 232.2980
2059.342, 232.6021
2061.270, 232.4337
2063.199, 231.1068
2065.127, 229.3805
2067.056, 228.1301
2068.984, 227.7792
2070.913, 228.7109
2072.841, 227.9015
2074.770, 226.5065
2076.698, 226.1638
2078.626, 225.5417
2080.555, 224.2475
2082.483, 223.4534
2084.412, 222.9401
2086.340, 222.6137
2088.269, 221.8185
2090.197, 220.4287
2092.126, 219.1310
2094.054, 218.1685
2095.983, 217.8110
2097.911, 217.7996
2099.840, 217.9715
2101.768, 217.3950
2103.697, 216.6190
2105.625, 216.0578
2107.553, 215.3669
2109.482, 214.6897
2111.410, 215.1590
2113.339, 215.1436
2115.267, 213.4029
2117.196, 213.0101
2119.124, 213.4526
2121.053, 212.5852
2122.981, 211.5551
2124.910, 210.7519
2126.838, 211.0816
2128.767, 211.6064
2130.695, 210.4458
2132.624, 209.3035
2134.552, 208.6460
2136.480, 208.8118
2138.409, 208.8560
2140.337, 207.2862
2142.266, 206.3316
2144.194, 206.2063
2146.123, 204.8493
2148.051, 203.5798
2149.980, 203.5805
2151.908, 203.1086
2153.837, 202.2807
2155.765, 202.3925
2157.694, 202.4395
2159.622, 201.9918
2161.551, 201.2476
2163.479, 200.4934
2165.407, 200.3730
2167.336, 199.9044
2169.264, 198.8268
2171.193, 199.1833
2173.121, 199.5576
2175.050, 198.3929
2176.978, 197.5575
2178.907, 197.1203
2180.835, 195.7160
2182.764, 194.4859
2184.692, 193.9399
2186.621, 194.7570
2188.549, 195.8199
2190.478, 194.6211
2192.406, 193.2498
2194.334, 192.2043
2196.263, 190.7476
2198.191, 189.6780
2200.120, 190.4215
2202.048, 190.2025
2203.977, 189.1080
2205.905, 188.3801
2207.834, 187.7551
2209.762, 187.0657
2211.691, 186.7968
2213.619, 186.7663
2215.548, 187.0644
2217.476, 186.2008
2219.405, 184.1550
2221.333, 183.3757
2223.261, 183.1318
2225.190, 183.1578
2227.118, 182.7292
2229.047, 181.9693
2230.975, 180.8808
2232.904, 180.6993
2234.832, 181.8599
2236.761, 182.1385
2238.689, 181.5561
2240.618, 179.9499
2242.546, 179.0534
2244.475, 178.7627
2246.403, 178.2793
2248.332, 177.7853
2250.260, 177.3485
2252.188, 177.1928
2254.117, 176.7530
2256.045, 175.1389
2257.974, 175.1345
2259.902, 176.2736
2261.831, 175.8892
2263.759, 174.6868
2265.688, 172.9898
2267.616, 173.4167
2269.545, 173.8705
2271.473, 171.3539
2273.402, 170.5563
2275.330, 171.2444
2277.259, 171.4055
2279.187, 170.8352
2281.115, 169.5387
2283.044, 169.3194
2284.972, 169.1415
2286.901, 167.3489
2288.829, 167.6184
2290.758, 168.9398
2292.686, 168.0747
2294.615, 167.1654
2296.543, 166.8231
2298.472, 166.1751
2300.400, 165.3472
2302.329, 164.0801
2304.257, 164.6607
2306.186, 165.6595
2308.114, 163.9814
2310.042, 162.6590
2311.971, 162.2722
2313.899, 161.9524
2315.828, 161.8300
2317.756, 162.0057
2319.685, 161.7904
2321.613, 161.4152
2323.542, 160.9497
2325.470, 161.7206
2327.399, 163.7036
2329.327, 167.4634
2331.256, 168.6991
2333.184, 166.2895
2335.113, 163.6376
2337.041, 161.1723
2338.969, 159.0604
2340.898, 157.7086
2342.826, 156.8603
2344.755, 156.2547
2346.683, 155.3772
2348.612, 154.2284
2350.540, 152.8851
2352.469, 152.4094
2354.397, 153.0855
2356.326, 152.9556
2358.254, 152.4811
2360.183, 152.1736
2362.111, 151.1978
2364.040, 149.9349
2365.968, 149.0111
2367.896, 148.2212
2369.825, 147.6149
2371.753, 147.9421
2373.682, 147.9013
2375.610, 146.9680
2377.539, 146.7581
2379.467, 146.4286
2381.396, 145.1970
2383.324, 144.4494
2385.253, 144.1940
2387.181, 144.4090
2389.110, 144.8917
2391.038, 145.1110
2392.967, 142.7621
2394.895, 141.2672
2396.823, 141.4120
2398.752, 141.4704
2400.680, 141.5094
2402.609, 141.5444
2404.537, 141.1425
2406.466, 140.4639
2408.394, 139.6186
2410.323, 139.2961
2412.251, 139.0814
2414.180, 137.8815
2416.108, 137.5379
2418.037, 137.7649
2419.965, 136.4845
2421.894, 136.0663
2423.822, 136.7003
2425.750, 135.5904
2427.679, 134.4018
2429.607, 133.9062
2431.536, 134.4314
2433.464, 134.9221
2435.393, 134.5629
2437.321, 133.2619
2439.250, 131.9273
2441.178, 131.8477
2443.107, 131.8582
2445.035, 131.6019
2446.964, 130.3366
2448.892, 129.6139
2450.821, 129.6692
2452.749, 131.0712
2454.677, 130.9186
2456.606, 128.5515
2458.534, 128.0223
2460.463, 128.0545
2462.391, 128.0948
2464.320, 126.5825
2466.248, 125.5600
2468.177, 126.4328
2470.105, 126.2074
2472.034, 125.5993
2473.962, 125.4872
2475.891, 125.5510
2477.819, 125.2223
2479.748, 123.1597
2481.676, 123.0650
2483.604, 124.2167
2485.533, 124.0054
2487.461, 123.0120
2489.390, 121.6901
2491.318, 121.2982
2493.247, 120.7370
2495.175, 119.8192
2497.104, 118.7190
2499.032, 118.5186
2500.961, 119.2841
2502.889, 118.4267
2504.818, 117.5364
2506.746, 117.3656
2508.675, 116.8872
2510.603, 116.6995
2512.531, 117.5868
2514.460, 115.6410
2516.388, 114.0754
2518.317, 116.5484
2520.245, 115.9310
2522.174, 114.5540
2524.102, 115.0629
2526.031, 114.8918
2527.959, 114.2031
2529.888, 113.3587
2531.816, 112.9457
2533.745, 112.8438
2535.673, 112.9239
2537.602, 112.0706
2539.530, 111.0394
2541.458, 111.7232
2543.387, 111.7483
2545.315, 111.2573
2547.244, 111.5068
2549.172, 111.8263
2551.101, 112.1778
2553.029, 112.8098
2554.958, 113.3329
2556.886, 113.6646
2558.815, 113.4255
2560.743, 114.7146
2562.672, 116.7729
2564.600, 115.2220
2566.529, 113.7803
2568.457, 113.3578
2570.385, 114.4609
2572.314, 113.6050
2574.242, 110.8063
2576.171, 109.3757
2578.099, 109.2435
2580.028, 109.8423
2581.956, 108.4228
2583.885, 106.8304
2585.813, 105.6068
2587.742, 104.8543
2589.670, 103.4662
2591.599, 101.3801
2593.527, 100.9877
2595.456, 100.7382
2597.384, 100.2305
2599.313, 99.92611
2601.241, 99.70969
2603.169, 99.42017
2605.098, 98.01057
2607.026, 96.72415
2608.955, 95.96898
2610.883, 95.89736
2612.812, 96.10654
2614.740, 96.22730
2616.669, 94.61860
2618.597, 94.31579
2620.526, 95.43987
2622.454, 94.83640
2624.383, 93.89144
2626.311, 93.19355
2628.240, 93.46620
2630.168, 93.93076
2632.096, 94.32692
2634.025, 94.88754
2635.953, 93.65268
2637.882, 91.66973
2639.810, 93.14681
2641.739, 92.20447
2643.667, 89.98914
2645.596, 91.79371
2647.524, 91.41072
2649.453, 89.65244
2651.381, 89.78059
2653.310, 89.77366
2655.238, 89.37279
2657.167, 88.36709
2659.095, 89.03592
2661.023, 89.50829
2662.952, 87.05888
2664.880, 86.56673
2666.809, 86.73973
2668.737, 85.90706
2670.666, 85.42165
2672.594, 85.32664
2674.523, 85.55106
2676.451, 84.87612
2678.380, 84.04562
2680.308, 83.56044
2682.237, 83.98467
2684.165, 83.77715
2686.094, 82.48955
2688.022, 82.22181
2689.950, 82.14216
2691.879, 81.94536
2693.807, 81.88974
2695.736, 82.03262
2697.664, 82.09000
2699.593, 80.92942
2701.521, 80.08328
2703.450, 79.77823
2705.378, 79.59401
2707.307, 80.77636
2709.235, 81.77648
2711.164, 79.34683
2713.092, 78.23849
2715.021, 78.27033
2716.949, 79.07879
2718.877, 78.67908
2720.806, 77.69107
2722.734, 76.58788
2724.663, 76.50376
2726.591, 75.88618
2728.520, 74.00758
2730.448, 75.44151
2732.377, 76.19314
2734.305, 75.16862
2736.234, 74.43156
2738.162, 74.23567
2740.091, 74.26154
2742.019, 73.40514
2743.948, 72.58167
2745.876, 71.99721
2747.804, 71.77356
2749.733, 71.64680
2751.661, 71.55000
2753.590, 71.44901
2755.518, 71.04319
2757.447, 70.68423
2759.375, 70.50733
2761.304, 69.45748
2763.232, 68.98293
2765.161, 69.10812
2767.089, 67.32345
2769.018, 67.47604
2770.946, 68.88370
2772.875, 68.28791
2774.803, 67.41115
2776.731, 66.69430
2778.660, 66.43155
2780.588, 66.22838
2782.517, 66.09051
2784.445, 66.06262
2786.374, 65.57037
2788.302, 65.23288
2790.231, 65.23167
2792.159, 65.03509
2794.088, 64.90104
2796.016, 64.54281
2797.945, 62.90572
2799.873, 62.94173
2801.802, 63.45468
2803.730, 62.82877
2805.658, 62.13978
2807.587, 61.71933
2809.515, 61.63216
2811.444, 61.62992
2813.372, 60.93217
2815.301, 59.86244
2817.229, 60.42240
2819.158, 61.41825
2821.086, 61.71663
2823.015, 59.24283
2824.943, 58.80558
2826.872, 58.61998
2828.800, 57.14775
2830.729, 56.84460
2832.657, 57.44531
2834.585, 58.25559
2836.514, 56.32994
2838.442, 55.84412
2840.371, 56.40245
2842.299, 55.98582
2844.228, 56.41859
2846.156, 56.84113
2848.085, 56.41654
2850.013, 56.41194
2851.942, 55.30243
2853.870, 53.21061
2855.799, 53.30080
2857.727, 53.64754
2859.656, 53.89237
2861.584, 54.04396
2863.512, 53.74402
2865.441, 53.54721
2867.369, 53.72749
2869.298, 53.89942
2871.226, 53.06022
2873.155, 51.63741
2875.083, 51.73080
2877.012, 51.47590
2878.940, 51.37080
2880.869, 52.16334
2882.797, 52.35065
2884.726, 52.18273
2886.654, 51.68090
2888.583, 49.93686
2890.511, 48.95068
2892.439, 48.81367
2894.368, 49.38923
2896.296, 48.13879
2898.225, 47.20433
2900.153, 47.94170
2902.082, 47.54707
2904.010, 47.30898
2905.939, 47.24664
2907.867, 46.61677
2909.796, 46.61912
2911.724, 47.12100
2913.653, 47.86435
2915.581, 46.30369
2917.510, 45.63888
2919.438, 46.19545
2921.366, 45.97270
2923.295, 45.55743
2925.223, 44.94484
2927.152, 44.11787
2929.080, 43.98605
2931.009, 43.92044
2932.937, 43.83022
2934.866, 44.18890
2936.794, 44.92479
2938.723, 45.32233
2940.651, 44.77627
2942.580, 44.23252
2944.508, 43.84902
2946.437, 43.70691
2948.365, 44.08076
2950.293, 43.83704
2952.222, 43.70170
2954.150, 44.53160
2956.079, 43.58625
2958.007, 43.18139
2959.936, 43.40413
2961.864, 42.66399
2963.793, 41.62009
2965.721, 40.98767
2967.650, 41.21003
2969.578, 39.74488
2971.507, 38.74343
2973.435, 38.59965
2975.364, 38.99786
2977.292, 38.83197
2979.220, 38.68245
2981.149, 38.85918
2983.077, 38.78732
2985.006, 38.24976
2986.934, 37.65071
2988.863, 37.55860
2990.791, 38.68383
2992.720, 38.72567
2994.648, 37.48127
2996.577, 37.29354
2998.505, 37.29250
3000.434, 38.04181
3002.362, 39.98996
3004.291, 40.61896
3006.219, 39.42399
3008.147, 37.57825
3010.076, 37.43641
3012.004, 37.12672
3013.933, 36.50088
3015.861, 35.71165
3017.790, 35.77719
3019.718, 36.25326
3021.647, 36.06273
3023.575, 34.18344
3025.504, 34.46407
3027.432, 35.09196
3029.361, 35.72923
3031.289, 37.08115
3033.218, 35.80120
3035.146, 34.27182
3037.074, 33.77118
3039.003, 33.16231
3040.931, 32.37267
3042.860, 32.07212
3044.788, 32.69416
3046.717, 32.48516
3048.645, 32.00245
3050.574, 31.64040
3052.502, 31.76236
3054.431, 31.56937
3056.359, 31.21616
3058.288, 31.12934
3060.216, 32.83738
3062.145, 31.83648
3064.073, 30.70312
3066.001, 31.32422
3067.930, 31.78958
3069.858, 31.12818
3071.787, 30.55855
3073.715, 31.72785
3075.644, 31.20375
3077.572, 30.51576
3079.501, 30.03514
3081.429, 29.62103
3083.358, 29.67553
3085.286, 29.80944
3087.215, 30.05647
3089.143, 31.15026
3091.072, 29.58367
3093.000, 28.05288
3094.928, 28.10278
3096.857, 29.27094
3098.785, 28.88384
3100.714, 28.12873
3102.642, 28.00635
3104.571, 27.68072
3106.499, 27.44408
3108.428, 27.53135
3110.356, 28.05959
3112.285, 28.48259
3114.213, 28.24314
3116.142, 27.64604
3118.070, 27.24272
3119.999, 26.91451
3121.927, 26.76606
3123.855, 26.99827
3125.784, 28.21009
3127.712, 27.04888
3129.641, 26.69603
3131.569, 27.44296
3133.498, 27.31234
3135.426, 26.06623
3137.355, 26.04069
3139.283, 27.24523
3141.212, 27.07475
3143.140, 25.63136
3145.069, 25.70432
3146.997, 27.30810
3148.926, 26.28043
3150.854, 25.15249
3152.782, 25.15883
3154.711, 26.04163
3156.639, 25.14380
3158.568, 24.93314
3160.496, 25.05834
3162.425, 25.18832
3164.353, 25.40358
3166.282, 25.40920
3168.210, 25.13662
3170.139, 24.69953
3172.067, 24.58966
3173.996, 24.52710
3175.924, 24.44163
3177.853, 24.27983
3179.781, 23.85496
3181.709, 23.39843
3183.638, 23.19814
3185.566, 23.33519
3187.495, 23.57501
3189.423, 23.70505
3191.352, 23.79777
3193.280, 23.79598
3195.209, 23.26222
3197.137, 23.57080
3199.066, 23.77435
3200.994, 23.49029
3202.923, 23.21109
3204.851, 22.91156
3206.780, 23.00293
3208.708, 23.35389
3210.636, 23.24679
3212.565, 23.26361
3214.493, 23.01540
3216.422, 22.64898
3218.350, 22.68805
3220.279, 23.59914
3222.207, 23.74966
3224.136, 23.02769
3226.064, 21.88449
3227.993, 21.88134
3229.921, 22.26309
3231.850, 22.30988
3233.778, 21.42914
3235.707, 21.97958
3237.635, 21.60711
3239.563, 21.18043
3241.492, 21.76247
3243.420, 22.54662
3245.349, 22.13429
3247.277, 21.73226
3249.206, 22.12218
3251.134, 22.78834
3253.063, 22.68225
3254.991, 22.19297
3256.920, 21.77898
3258.848, 21.94141
3260.777, 21.64374
3262.705, 21.49562
3264.634, 21.46980
3266.562, 21.13958
3268.490, 22.03078
3270.419, 22.28832
3272.347, 22.18357
3274.276, 22.49339
3276.204, 23.08546
3278.133, 22.51687
3280.061, 23.07174
3281.990, 25.04870
3283.918, 21.80215
3285.847, 20.15497
3287.775, 21.07813
3289.704, 22.98291
3291.632, 22.70784
3293.561, 22.96716
3295.489, 23.55744
3297.417, 23.32349
3299.346, 21.54887
3301.274, 21.74696
3303.203, 22.29239
3305.131, 22.81711
3307.060, 22.97488
3308.988, 21.31437
3310.917, 21.41694
3312.845, 21.90451
3314.774, 22.04367
3316.702, 21.82120
3318.631, 21.22498
3320.559, 20.94990
3322.488, 21.73802
3324.416, 23.48246
3326.344, 22.46946
3328.273, 21.86868
3330.201, 21.86089
3332.130, 21.85293
3334.058, 20.72992
3335.987, 21.91222
3337.915, 22.67052
3339.844, 22.10652
3341.772, 20.50545
3343.701, 20.92834
3345.629, 21.00488
3347.558, 21.29054
3349.486, 21.64895
3351.415, 20.83215
3353.343, 20.72554
3355.271, 21.67912
3357.200, 22.01798
3359.128, 20.82719
3361.057, 21.95518
3362.985, 21.40582
3364.914, 21.27502
3366.842, 21.95643
3368.771, 22.01179
3370.699, 20.61671
3372.628, 20.46862
3374.556, 20.77422
3376.485, 20.48982
3378.413, 20.01401
3380.342, 20.89824
3382.270, 21.62644
3384.198, 21.43411
3386.127, 20.25119
3388.055, 21.16916
3389.984, 21.71929
3391.912, 21.36225
3393.841, 20.49664
3395.769, 20.11923
3397.698, 20.50608
3399.626, 20.57356
3401.555, 20.43307
3403.483, 20.49867
3405.412, 21.03903
3407.340, 21.62079
3409.269, 22.11654
3411.197, 22.19354
3413.125, 21.82840
3415.054, 23.28367
3416.982, 24.34872
3418.911, 24.54239
3420.839, 23.88024
3422.768, 22.43588
3424.696, 21.81636
3426.625, 22.13008
3428.553, 22.04035
3430.482, 21.49434
3432.410, 22.39371
3434.339, 21.79890
3436.267, 21.20850
3438.196, 20.53008
3440.124, 19.76451
3442.052, 19.99054
3443.981, 19.92595
3445.909, 20.09775
3447.838, 20.61517
3449.766, 20.93843
3451.695, 19.27716
3453.623, 17.71786
3455.552, 17.66471
##END=



