##NAMES=Manganvesuvianite
##RRUFFID=R060377
##IDEAL CHEMISTRY=Ca_19_Mn^3+^Al_10_Mg_2_(SiO_4_)_10_(Si_2_O_7_)_4_O(OH)_9_
##LOCALITY=K'Chwaning II mine, Kalahari manganese field, north Cape Province, South Africa
##OWNER=RRUFF
##SOURCE=Michael Scott
##DESCRIPTION=Deep reddish-brown prismatic crystals associated with black hausmannite
##STATUS=The identification of this mineral has been confirmed by X-ray diffraction
##URL=https://www.rruff.net/odr/rruff_sample/R060377
##DIFFRACTION SAMPLE DESCRIPTION=Powder
##CELL PARAMETERS=a: 15.543 b: 15.543 c: 11.8002 alpha: 90 beta: 90 gamma: 90 volume: 2850.8 crystal system: tetragonal
##FILETYPE=Raman RAW
##RAMAN WAVELENGTH=532

177.8867, 260.2827
179.8152, 257.3764
181.7437, 254.0417
183.6721, 250.6649
185.6006, 247.2375
187.5291, 244.2763
189.4576, 241.7076
191.3860, 239.5795
193.3145, 237.6959
195.2430, 235.9039
197.1714, 234.5053
199.0999, 233.4089
201.0284, 232.7609
202.9568, 233.0946
204.8853, 234.8324
206.8138, 237.3395
208.7422, 240.1513
210.6707, 244.5989
212.5992, 247.8560
214.5276, 249.1634
216.4561, 248.8589
218.3846, 247.6814
220.3130, 245.3944
222.2415, 242.3906
224.1700, 238.6559
226.0984, 233.7538
228.0269, 229.2951
229.9554, 226.0018
231.8838, 223.6599
233.8123, 221.5194
235.7408, 219.2164
237.6692, 217.4554
239.5977, 216.5764
241.5262, 216.6064
243.4546, 216.9980
245.3831, 217.7996
247.3116, 218.9510
249.2400, 220.0215
251.1685, 221.1702
253.0970, 222.0919
255.0254, 222.6585
256.9539, 222.8574
258.8824, 222.6458
260.8108, 221.5156
262.7393, 220.0176
264.6678, 219.3305
266.5962, 219.8874
268.5247, 220.7827
270.4532, 221.5790
272.3816, 221.9703
274.3101, 223.2998
276.2386, 226.1405
278.1670, 229.6746
280.0955, 233.0023
282.0240, 235.9265
283.9524, 238.9626
285.8809, 242.3316
287.8094, 245.9751
289.7378, 248.6089
291.6663, 249.8940
293.5948, 250.1753
295.5232, 249.7294
297.4517, 247.4890
299.3802, 245.5342
301.3086, 244.4375
303.2371, 243.9660
305.1656, 243.3181
307.0940, 241.9175
309.0225, 240.7601
310.9510, 240.3791
312.8794, 240.8510
314.8079, 241.9092
316.7364, 244.0992
318.6648, 247.0257
320.5933, 249.8399
322.5218, 252.4759
324.4502, 254.4492
326.3787, 255.5518
328.3072, 255.8299
330.2356, 255.4189
332.1641, 253.7534
334.0926, 251.4557
336.0210, 249.1209
337.9495, 246.6225
339.8780, 244.6251
341.8064, 243.2406
343.7349, 242.4759
345.6634, 242.5456
347.5918, 243.8955
349.5203, 246.0463
351.4488, 248.7889
353.3772, 251.9931
355.3057, 255.7080
357.2342, 260.6490
359.1626, 266.1787
361.0911, 271.1462
363.0196, 275.5707
364.9480, 278.8275
366.8765, 280.4838
368.8050, 280.4307
370.7334, 278.6661
372.6619, 274.3205
374.5904, 268.5794
376.5188, 262.0479
378.4473, 254.7627
380.3758, 247.8886
382.3042, 241.4551
384.2327, 235.5766
386.1612, 230.4695
388.0896, 226.7531
390.0181, 223.9599
391.9466, 221.8179
393.8750, 220.1151
395.8035, 219.5253
397.7320, 220.9996
399.6604, 223.4042
401.5889, 225.6858
403.5174, 227.5652
405.4458, 229.4670
407.3743, 231.3472
409.3028, 232.7690
411.2312, 233.4279
413.1597, 233.4314
415.0882, 232.8292
417.0166, 231.5593
418.9451, 229.4120
420.8736, 227.3942
422.8020, 225.5668
424.7305, 223.4668
426.6590, 220.6857
428.5874, 217.3722
430.5159, 214.7774
432.4444, 213.1338
434.3728, 211.8572
436.3013, 209.9104
438.2298, 207.5197
440.1582, 205.8182
442.0867, 205.1608
444.0152, 205.4077
445.9436, 205.4089
447.8721, 205.0368
449.8006, 204.7754
451.7290, 204.9113
453.6575, 205.4551
455.5860, 206.5098
457.5144, 207.9192
459.4429, 209.6847
461.3714, 212.0834
463.2998, 215.4513
465.2283, 219.4224
467.1568, 223.8950
469.0852, 228.6899
471.0137, 234.0623
472.9422, 240.4751
474.8706, 246.9445
476.7991, 252.9007
478.7276, 258.1414
480.6560, 262.9391
482.5845, 267.4550
484.5130, 271.4782
486.4414, 274.6109
488.3699, 275.9876
490.2984, 277.4250
492.2268, 279.1422
494.1553, 281.1815
496.0838, 283.2729
498.0122, 285.7300
499.9407, 288.8123
501.8692, 292.6776
503.7976, 297.2221
505.7261, 301.1896
507.6546, 304.7210
509.5830, 307.5135
511.5115, 309.8846
513.4399, 311.0864
515.3684, 310.6094
517.2969, 308.0847
519.2253, 305.0715
521.1538, 302.8968
523.0823, 301.3391
525.0107, 300.7500
526.9392, 301.0154
528.8677, 302.4289
530.7961, 305.5677
532.7246, 310.9158
534.6531, 317.0444
536.5815, 323.6958
538.5100, 331.1425
540.4385, 338.5525
542.3669, 346.6205
544.2954, 353.1873
546.2239, 357.8513
548.1523, 359.6276
550.0808, 358.6411
552.0093, 353.9750
553.9377, 346.9698
555.8662, 338.9164
557.7947, 330.2238
559.7231, 321.9163
561.6516, 313.3933
563.5801, 305.2632
565.5085, 299.0833
567.4370, 294.9300
569.3655, 292.0563
571.2939, 290.7968
573.2224, 290.6652
575.1509, 290.4850
577.0793, 290.1032
579.0078, 289.5529
580.9363, 288.9704
582.8647, 288.3721
584.7932, 287.4721
586.7217, 286.1352
588.6501, 284.4786
590.5786, 282.6333
592.5071, 280.7089
594.4355, 278.7297
596.3640, 276.6834
598.2925, 274.5594
600.2209, 272.4113
602.1494, 270.2718
604.0779, 268.0726
606.0063, 265.6487
607.9348, 263.1266
609.8633, 260.8358
611.7917, 258.6856
613.7202, 257.0828
615.6487, 256.1302
617.5771, 255.7426
619.5056, 255.9817
621.4341, 257.0393
623.3625, 258.7367
625.2910, 260.9680
627.2195, 263.5265
629.1479, 266.5007
631.0764, 270.5252
633.0049, 274.4896
634.9333, 278.0150
636.8618, 280.9039
638.7903, 282.4291
640.7188, 283.0790
642.6472, 280.8271
644.5757, 278.7068
646.5042, 272.0606
648.4326, 264.6719
650.3611, 256.2139
652.2896, 247.4230
654.2180, 238.9529
656.1465, 230.6167
658.0750, 223.2970
660.0034, 216.9795
661.9319, 211.6104
663.8604, 207.1593
665.7888, 203.6631
667.7173, 200.6768
669.6458, 198.4605
671.5742, 196.6526
673.5027, 194.4431
675.4312, 191.7115
677.3596, 188.6914
679.2881, 184.9704
681.2166, 181.0138
683.1450, 178.0903
685.0735, 176.4442
687.0020, 175.5174
688.9304, 175.2741
690.8589, 175.6687
692.7874, 175.7266
694.7158, 176.0305
696.6443, 175.4643
698.5728, 173.4562
700.5012, 170.0937
702.4297, 165.8233
704.3582, 159.8374
706.2866, 153.8374
708.2151, 148.4851
710.1436, 143.7187
712.0720, 140.1087
714.0005, 138.2084
715.9290, 136.9169
717.8574, 135.5940
719.7859, 134.2631
721.7144, 133.1294
723.6428, 132.2623
725.5713, 131.5314
727.4998, 130.9197
729.4282, 130.5512
731.3567, 130.2869
733.2852, 130.0129
735.2136, 129.8730
737.1421, 130.1562
739.0706, 130.9152
740.9990, 131.4621
742.9275, 131.6514
744.8560, 131.6302
746.7844, 131.3845
748.7129, 130.6064
750.6414, 130.3448
752.5698, 130.9994
754.4983, 132.1239
756.4268, 133.0548
758.3552, 133.6230
760.2837, 134.2040
762.2122, 134.8208
764.1406, 135.6689
766.0691, 136.8209
767.9976, 138.5282
769.9260, 140.0612
771.8545, 140.9658
773.7830, 141.5448
775.7114, 142.8055
777.6399, 145.1561
779.5684, 147.7431
781.4968, 150.2402
783.4253, 152.4533
785.3538, 154.8330
787.2822, 157.5099
789.2107, 160.3601
791.1392, 163.3054
793.0676, 166.3704
794.9961, 169.5806
796.9246, 173.0034
798.8530, 176.3363
800.7815, 179.5615
802.7100, 182.6157
804.6384, 185.3200
806.5669, 187.6198
808.4954, 189.6782
810.4238, 191.6170
812.3523, 193.3853
814.2808, 194.6803
816.2092, 195.1959
818.1377, 195.6277
820.0662, 196.2356
821.9946, 197.2188
823.9231, 198.3812
825.8516, 199.5919
827.7800, 201.0803
829.7085, 202.7955
831.6370, 205.0576
833.5654, 207.9234
835.4939, 211.4091
837.4224, 215.3786
839.3508, 219.7676
841.2793, 224.6666
843.2078, 230.2922
845.1362, 236.5118
847.0647, 242.5892
848.9932, 248.7153
850.9216, 255.0668
852.8501, 260.7038
854.7786, 265.7117
856.7070, 269.6834
858.6355, 272.6012
860.5640, 274.2644
862.4924, 274.2529
864.4209, 272.3457
866.3494, 270.2567
868.2778, 268.0818
870.2063, 266.2594
872.1348, 265.8541
874.0632, 266.9187
875.9917, 267.8877
877.9202, 268.3017
879.8486, 268.3668
881.7771, 268.4754
883.7056, 268.6815
885.6340, 268.5413
887.5625, 267.9960
889.4910, 267.3409
891.4194, 265.8695
893.3479, 263.1551
895.2764, 261.0172
897.2048, 260.0141
899.1333, 259.9876
901.0618, 260.3631
902.9902, 261.5720
904.9187, 263.9688
906.8472, 267.4431
908.7756, 271.2279
910.7041, 275.3698
912.6326, 280.3627
914.5610, 286.2433
916.4895, 293.0926
918.4180, 300.4814
920.3464, 308.5766
922.2749, 317.3044
924.2034, 325.3442
926.1318, 332.0728
928.0603, 336.6820
929.9888, 338.9252
931.9172, 339.6139
933.8457, 338.7939
935.7742, 336.1802
937.7026, 332.0157
939.6311, 326.4712
941.5596, 320.4330
943.4880, 314.3819
945.4165, 308.4084
947.3450, 303.0807
949.2734, 298.6508
951.2019, 294.6133
953.1304, 290.9360
955.0588, 287.8556
956.9873, 285.0854
958.9158, 282.4667
960.8442, 279.8141
962.7727, 276.5840
964.7012, 272.9986
966.6296, 269.4462
968.5581, 265.8786
970.4866, 261.8237
972.4150, 257.6059
974.3435, 254.1414
976.2720, 250.5332
978.2004, 246.1724
980.1289, 241.0900
982.0574, 236.3486
983.9858, 231.7689
985.9143, 227.0562
987.8428, 222.5544
989.7712, 218.7707
991.6997, 215.8408
993.6282, 213.1564
995.5566, 210.4869
997.4851, 208.0045
999.4136, 205.9225
1001.342, 204.3064
1003.271, 202.9217
1005.199, 201.4292
1007.127, 199.9519
1009.056, 198.8338
1010.984, 198.2047
1012.913, 196.8647
1014.841, 196.3407
1016.770, 194.9014
1018.698, 194.0253
1020.627, 193.4262
1022.555, 192.5151
1024.484, 191.2892
1026.412, 190.0236
1028.341, 189.2085
1030.269, 188.8337
1032.198, 188.5410
1034.126, 187.3953
1036.054, 185.3257
1037.983, 183.4722
1039.911, 182.3178
1041.840, 181.5562
1043.768, 180.0180
1045.697, 176.8531
1047.625, 172.7715
1049.554, 168.8732
1051.482, 165.2506
1053.411, 161.5865
1055.339, 157.7126
1057.268, 154.3191
1059.196, 152.3001
1061.125, 151.1781
1063.053, 149.9805
1064.981, 148.3173
1066.910, 147.0105
1068.838, 146.5969
1070.767, 146.0333
1072.695, 145.4332
1074.624, 145.1966
1076.552, 145.1386
1078.481, 144.4917
1080.409, 143.7014
1082.338, 143.6769
1084.266, 144.0032
1086.195, 144.2466
1088.123, 144.4601
1090.052, 144.6413
1091.980, 144.4848
1093.908, 144.4075
1095.837, 144.5228
1097.765, 144.7117
1099.694, 144.8114
1101.622, 145.1611
1103.551, 145.6347
1105.479, 145.7130
1107.408, 145.5420
1109.336, 145.7029
1111.265, 146.4530
1113.193, 147.3242
1115.122, 147.7708
1117.050, 147.7412
1118.979, 147.8762
1120.907, 148.6955
1122.835, 149.3918
1124.764, 149.3325
1126.692, 149.0487
1128.621, 148.9054
1130.549, 148.8877
1132.478, 149.0854
1134.406, 149.8141
1136.335, 150.4883
1138.263, 150.5635
1140.192, 150.4380
1142.120, 150.4557
1144.049, 150.5326
1145.977, 150.5349
1147.906, 150.7413
1149.834, 151.0364
1151.762, 151.4411
1153.691, 152.2033
1155.619, 152.9288
1157.548, 153.1585
1159.476, 152.7457
1161.405, 152.3722
1163.333, 152.5144
1165.262, 152.8572
1167.190, 153.1930
1169.119, 153.0894
1171.047, 152.6709
1172.976, 152.6616
1174.904, 152.9038
1176.833, 153.3432
1178.761, 153.6102
1180.689, 153.8400
1182.618, 153.9350
1184.546, 153.8015
1186.475, 153.5257
1188.403, 153.3518
1190.332, 153.1609
1192.260, 153.1655
1194.189, 153.4222
1196.117, 153.6245
1198.046, 153.9570
1199.974, 154.5231
1201.903, 154.9127
1203.831, 154.8363
1205.760, 154.8718
1207.688, 155.2693
1209.616, 155.7455
1211.545, 155.9040
1213.473, 155.5110
1215.402, 155.4297
1217.330, 155.8490
1219.259, 156.4756
1221.187, 157.0788
1223.116, 157.7283
1225.044, 158.1221
1226.973, 158.0542
1228.901, 157.8649
1230.830, 157.7909
1232.758, 157.9508
1234.687, 158.2749
1236.615, 158.8526
1238.543, 159.2037
1240.472, 158.8730
1242.400, 158.5491
1244.329, 158.8839
1246.257, 159.8711
1248.186, 160.5759
1250.114, 160.8320
1252.043, 160.8146
1253.971, 160.4314
1255.900, 159.9455
1257.828, 159.7476
1259.757, 159.8590
1261.685, 160.2553
1263.614, 161.2946
1265.542, 162.3664
1267.470, 162.9525
1269.399, 163.0535
1271.327, 163.3084
1273.256, 163.8734
1275.184, 164.2879
1277.113, 164.2926
1279.041, 164.0600
1280.970, 163.8462
1282.898, 163.6713
1284.827, 163.5352
1286.755, 163.6422
1288.684, 163.5032
1290.612, 162.6226
1292.541, 161.5757
1294.469, 161.3010
1296.397, 162.2146
1298.326, 162.9232
1300.254, 163.3108
1302.183, 163.5489
1304.111, 163.7685
1306.040, 163.9428
1307.968, 163.7556
1309.897, 162.9746
1311.825, 162.3701
1313.754, 162.1340
1315.682, 162.1364
1317.611, 162.3684
1319.539, 162.8234
1321.468, 163.2653
1323.396, 163.7573
1325.324, 164.0513
1327.253, 163.8589
1329.181, 163.5315
1331.110, 163.4614
1333.038, 163.6678
1334.967, 163.9453
1336.895, 164.1910
1338.824, 164.5693
1340.752, 165.3405
1342.681, 166.2379
1344.609, 166.6394
1346.538, 166.0791
1348.466, 165.8618
1350.395, 166.1595
1352.323, 166.6695
1354.251, 167.3375
1356.180, 168.0566
1358.108, 168.5847
1360.037, 168.9063
1361.965, 169.0686
1363.894, 168.9998
1365.822, 168.8896
1367.751, 168.7496
1369.679, 168.5788
1371.608, 168.6401
1373.536, 169.0761
1375.465, 169.4890
1377.393, 169.6051
1379.322, 169.7380
1381.250, 170.2317
1383.178, 171.0801
1385.107, 171.7560
1387.035, 172.1357
1388.964, 172.5104
1390.892, 173.0520
1392.821, 173.5264
1394.749, 173.6714
1396.678, 173.4388
1398.606, 173.1455
1400.535, 172.2785
1402.463, 172.0639
1404.392, 173.4348
1406.320, 175.2266
1408.249, 175.9278
1410.177, 175.4295
1412.105, 175.3286
1414.034, 175.9851
1415.962, 176.6709
1417.891, 176.9492
1419.819, 177.1411
1421.748, 177.8575
1423.676, 179.0896
1425.605, 179.8763
1427.533, 179.7284
1429.462, 179.7493
1431.390, 180.7966
1433.319, 182.0564
1435.247, 182.4075
1437.176, 181.7994
1439.104, 181.5269
1441.032, 181.9512
1442.961, 182.3806
1444.889, 182.4190
1446.818, 182.4593
1448.746, 183.0696
1450.675, 184.5634
1452.603, 185.8021
1454.532, 186.6700
1456.460, 187.1198
1458.389, 186.9538
1460.317, 186.6265
1462.246, 186.5016
1464.174, 186.3907
1466.103, 186.4975
1468.031, 187.1140
1469.959, 187.7749
1471.888, 188.3553
1473.816, 188.9051
1475.745, 189.4788
1477.673, 190.0601
1479.602, 190.7887
1481.530, 191.8530
1483.459, 192.5501
1485.387, 192.2383
1487.316, 191.8019
1489.244, 192.0116
1491.173, 192.8450
1493.101, 193.8867
1495.030, 195.2166
1496.958, 196.1277
1498.886, 196.4449
1500.815, 196.3522
1502.743, 195.7028
1504.672, 194.6920
1506.600, 194.3302
1508.529, 194.9518
1510.457, 195.5951
1512.386, 195.7636
1514.314, 196.0467
1516.243, 196.9270
1518.171, 198.2809
1520.100, 199.4729
1522.028, 200.4212
1523.957, 200.9408
1525.885, 200.2207
1527.813, 200.0019
1529.742, 201.5798
1531.670, 203.8051
1533.599, 204.5131
1535.527, 203.1682
1537.456, 202.5739
1539.384, 203.0970
1541.313, 203.6697
1543.241, 204.1750
1545.170, 204.5992
1547.098, 204.7258
1549.027, 205.4231
1550.955, 204.9200
1552.884, 206.5427
1554.812, 207.7723
1556.740, 208.2357
1558.669, 208.3903
1560.597, 208.4001
1562.526, 208.4091
1564.454, 208.9447
1566.383, 210.2717
1568.311, 211.2655
1570.240, 211.5216
1572.168, 211.6246
1574.097, 211.7024
1576.025, 211.8921
1577.954, 212.6160
1579.882, 213.9511
1581.811, 214.5822
1583.739, 213.6989
1585.667, 213.3448
1587.596, 214.7236
1589.524, 216.4828
1591.453, 217.3054
1593.381, 217.4358
1595.310, 217.5134
1597.238, 217.4420
1599.167, 217.4536
1601.095, 217.4639
1603.024, 217.7546
1604.952, 218.9548
1606.881, 220.4936
1608.809, 221.0456
1610.738, 220.4884
1612.666, 220.2387
1614.594, 220.7881
1616.523, 221.2812
1618.451, 220.8569
1620.380, 220.4605
1622.308, 221.3188
1624.237, 223.1677
1626.165, 224.2024
1628.094, 223.9566
1630.022, 224.0601
1631.951, 225.4170
1633.879, 226.6284
1635.808, 226.7839
1637.736, 226.3215
1639.665, 226.0177
1641.593, 225.8724
1643.521, 226.0877
1645.450, 226.7277
1647.378, 227.6879
1649.307, 229.4204
1651.235, 231.0481
1653.164, 231.8729
1655.092, 231.9807
1657.021, 231.6021
1658.949, 230.3425
1660.878, 230.2763
1662.806, 232.8089
1664.735, 235.1210
1666.663, 235.8216
1668.592, 235.7564
1670.520, 235.9832
1672.448, 236.4908
1674.377, 236.8813
1676.305, 236.9065
1678.234, 237.4303
1680.162, 239.2969
1682.091, 241.0519
1684.019, 241.9163
1685.948, 242.1889
1687.876, 242.3781
1689.805, 242.4642
1691.733, 242.7421
1693.662, 243.1479
1695.590, 243.9180
1697.519, 245.6177
1699.447, 247.1903
1701.375, 247.8380
1703.304, 247.7869
1705.232, 247.6476
1707.161, 247.2994
1709.089, 247.5464
1711.018, 248.8121
1712.946, 250.0826
1714.875, 251.1484
1716.803, 252.0305
1718.732, 252.6307
1720.660, 253.0574
1722.589, 253.9100
1724.517, 255.4338
1726.446, 256.1115
1728.374, 254.9020
1730.302, 254.2103
1732.231, 255.2097
1734.159, 256.7333
1736.088, 257.9117
1738.016, 258.7766
1739.945, 259.3345
1741.873, 259.4647
1743.802, 260.0187
1745.730, 261.3214
1747.659, 262.7040
1749.587, 264.0146
1751.516, 265.1534
1753.444, 265.9411
1755.373, 266.4400
1757.301, 267.0302
1759.229, 267.7574
1761.158, 268.2753
1763.086, 268.4367
1765.015, 268.6750
1766.943, 269.3619
1768.872, 270.1112
1770.800, 270.4554
1772.729, 270.6567
1774.657, 271.5021
1776.586, 273.0424
1778.514, 274.5905
1780.443, 276.2821
1782.371, 277.3035
1784.300, 276.5509
1786.228, 275.7985
1788.156, 276.4976
1790.085, 278.1153
1792.013, 279.7246
1793.942, 281.3399
1795.870, 282.3915
1797.799, 282.5468
1799.727, 282.9105
1801.656, 284.0065
1803.584, 285.1289
1805.513, 285.6772
1807.441, 286.0058
1809.370, 286.7748
1811.298, 287.9290
1813.227, 288.7108
1815.155, 288.8625
1817.083, 289.5380
1819.012, 291.8680
1820.940, 293.6963
1822.869, 293.2683
1824.797, 292.3578
1826.726, 293.1834
1828.654, 295.3949
1830.583, 296.9795
1832.511, 297.7096
1834.440, 298.7508
1836.368, 300.6923
1838.297, 302.2735
1840.225, 302.8802
1842.154, 303.2324
1844.082, 304.1037
1846.010, 305.0697
1847.939, 304.8593
1849.867, 303.1123
1851.796, 302.7612
1853.724, 304.8634
1855.653, 306.6832
1857.581, 307.8481
1859.510, 308.9030
1861.438, 310.2928
1863.367, 311.5901
1865.295, 311.9660
1867.224, 313.2502
1869.152, 314.4102
1871.081, 314.9092
1873.009, 316.6849
1874.938, 317.2380
1876.866, 317.6668
1878.794, 317.8662
1880.723, 318.3661
1882.651, 319.8495
1884.580, 321.7028
1886.508, 322.8080
1888.437, 323.2173
1890.365, 323.6216
1892.294, 323.9915
1894.222, 324.6697
1896.151, 325.8470
1898.079, 327.1469
1900.008, 328.9164
1901.936, 330.2849
1903.865, 330.1795
1905.793, 329.3687
1907.721, 329.1087
1909.650, 329.4430
1911.578, 331.2732
1913.507, 335.2950
1915.435, 338.1928
1917.364, 338.3444
1919.292, 338.3644
1921.221, 339.3686
1923.149, 340.7502
1925.078, 342.2336
1927.006, 343.6457
1928.935, 344.3566
1930.863, 344.2757
1932.792, 344.7145
1934.720, 346.6166
1936.648, 347.4139
1938.577, 345.3285
1940.505, 344.1708
1942.434, 346.2156
1944.362, 349.0550
1946.291, 350.4697
1948.219, 350.9657
1950.148, 351.9176
1952.076, 353.3957
1954.005, 354.6003
1955.933, 355.5166
1957.862, 356.1110
1959.790, 356.1472
1961.719, 356.2108
1963.647, 356.3664
1965.575, 356.8034
1967.504, 357.5190
1969.432, 358.6897
1971.361, 360.9940
1973.289, 364.1890
1975.218, 366.3177
1977.146, 367.0202
1979.075, 368.3374
1981.003, 371.2443
1982.932, 373.5036
1984.860, 374.0516
1986.789, 374.0372
1988.717, 373.8991
1990.646, 373.8119
1992.574, 373.9292
1994.502, 374.2748
1996.431, 375.1014
1998.359, 376.5765
2000.288, 377.8291
2002.216, 378.7817
2004.145, 379.6716
2006.073, 380.5794
2008.002, 381.4372
2009.930, 381.9886
2011.859, 382.7452
2013.787, 384.3409
2015.716, 386.4108
2017.644, 388.0762
2019.573, 389.3302
2021.501, 390.5534
2023.429, 391.7080
2025.358, 392.9151
2027.286, 394.2452
2029.215, 395.4712
2031.143, 396.3484
2033.072, 397.3947
2035.000, 399.1941
2036.929, 401.1804
2038.857, 402.6671
2040.786, 403.8495
2042.714, 405.2523
2044.643, 406.8792
2046.571, 408.4433
2048.500, 409.8309
2050.428, 411.2100
2052.356, 413.2959
2054.285, 414.2003
2056.213, 411.8368
2058.142, 410.0629
2060.070, 411.6194
2061.999, 414.6541
2063.927, 417.4772
2065.856, 419.9410
2067.784, 421.2213
2069.713, 421.3832
2071.641, 421.7468
2073.570, 422.3679
2075.498, 423.2287
2077.427, 424.0675
2079.355, 425.6434
2081.283, 429.4139
2083.212, 432.4681
2085.140, 432.0939
2087.069, 431.0911
2088.997, 432.9151
2090.926, 436.2821
2092.854, 437.8681
2094.783, 437.6734
2096.711, 438.1446
2098.640, 439.6006
2100.568, 441.0424
2102.497, 442.4495
2104.425, 443.9768
2106.354, 446.2179
2108.282, 447.8364
2110.210, 447.3003
2112.139, 446.9668
2114.067, 449.1213
2115.996, 452.1487
2117.924, 453.5080
2119.853, 453.7350
2121.781, 454.9381
2123.710, 457.1908
2125.638, 458.8889
2127.567, 459.6801
2129.495, 460.6877
2131.424, 462.7560
2133.352, 464.0436
2135.281, 462.6143
2137.209, 462.2403
2139.137, 466.1166
2141.066, 470.7133
2142.994, 472.5311
2144.923, 472.8170
2146.851, 473.9016
2148.780, 475.5995
2150.708, 476.8816
2152.637, 477.7031
2154.565, 478.9794
2156.494, 480.8290
2158.422, 482.8907
2160.351, 485.4943
2162.279, 487.4613
2164.208, 487.9068
2166.136, 488.2982
2168.064, 489.3511
2169.993, 490.7240
2171.921, 492.0952
2173.850, 493.6310
2175.778, 496.0087
2177.707, 498.8754
2179.635, 499.7123
2181.564, 502.3410
2183.492, 504.6411
2185.421, 505.4179
2187.349, 508.7651
2189.278, 508.3943
2191.206, 508.4602
2193.135, 510.6030
2195.063, 512.7003
2196.991, 513.6277
2198.920, 514.5782
2200.848, 516.7332
2202.777, 519.0862
2204.705, 520.3392
2206.634, 520.9008
2208.562, 521.3762
2210.491, 521.8489
2212.419, 524.4467
2214.348, 529.3655
2216.276, 531.6131
2218.205, 530.0109
2220.133, 530.8015
2222.062, 536.7179
2223.990, 540.7206
2225.918, 538.6839
2227.847, 537.2105
2229.775, 539.5197
2231.704, 542.7515
2233.632, 545.4753
2235.561, 547.5804
2237.489, 548.6613
2239.418, 549.1625
2241.346, 550.0089
2243.275, 551.1556
2245.203, 552.2140
2247.132, 553.1913
2249.060, 554.9174
2250.989, 557.5820
2252.917, 559.7654
2254.845, 560.9435
2256.774, 562.6493
2258.702, 566.2487
2260.631, 568.9652
2262.559, 569.3842
2264.488, 569.5377
2266.416, 569.7986
2268.345, 570.8688
2270.273, 573.7916
2272.202, 577.4769
2274.130, 580.7320
2276.059, 583.5620
2277.987, 585.9430
2279.916, 587.9122
2281.844, 589.5637
2283.772, 590.9030
2285.701, 592.0129
2287.629, 593.7840
2289.558, 595.6274
2291.486, 597.0104
2293.415, 599.5043
2295.343, 601.0872
2297.272, 602.2693
2299.200, 602.6541
2301.129, 603.4854
2303.057, 605.7863
2304.986, 608.1376
2306.914, 609.2311
2308.843, 610.2044
2310.771, 612.3908
2312.699, 615.0882
2314.628, 617.1537
2316.556, 618.7589
2318.485, 620.4514
2320.413, 622.2312
2322.342, 623.8383
2324.270, 626.3633
2326.199, 627.6707
2328.127, 631.6658
2330.056, 635.1746
2331.984, 638.1888
2333.913, 639.6832
2335.841, 638.1082
2337.770, 637.7520
2339.698, 641.2542
2341.626, 644.3581
2343.555, 644.6752
2345.483, 644.9484
2347.412, 646.9777
2349.340, 648.3428
2351.269, 651.3047
2353.197, 653.0834
2355.126, 656.0645
2357.054, 659.4963
2358.983, 661.6881
2360.911, 664.5043
2362.840, 667.2555
2364.768, 669.3049
2366.697, 672.3107
2368.625, 674.6321
2370.553, 676.6524
2372.482, 678.3582
2374.410, 679.9983
2376.339, 681.6236
2378.267, 683.3026
2380.196, 685.1828
2382.124, 686.7380
2384.053, 687.2760
2385.981, 688.3145
2387.910, 690.5790
2389.838, 693.1175
2391.767, 695.8171
2393.695, 698.2772
2395.624, 700.0302
2397.552, 701.7496
2399.480, 704.1192
2401.409, 706.7818
2403.337, 709.2543
2405.266, 711.6686
2407.194, 714.2691
2409.123, 716.9189
2411.051, 719.3358
2412.980, 721.4932
2414.908, 723.3648
2416.837, 724.9142
2418.765, 727.0672
2420.694, 729.9216
2422.622, 732.1897
2424.551, 733.7150
2426.479, 735.3917
2428.407, 737.2333
2430.336, 739.5414
2432.264, 742.4398
2434.193, 745.6638
2436.121, 750.0861
2438.050, 753.4187
2439.978, 754.3750
2441.907, 755.3668
2443.835, 756.8445
2445.764, 759.1143
2447.692, 763.0938
2449.621, 766.9333
2451.549, 769.1339
2453.478, 770.8297
2455.406, 772.2617
2457.334, 774.3378
2459.263, 779.5868
2461.191, 779.9799
2463.120, 785.7006
2465.048, 783.8410
2466.977, 785.1007
2468.905, 788.5538
2470.834, 791.4851
2472.762, 794.0383
2474.691, 796.6223
2476.619, 799.1647
2478.548, 802.9455
2480.476, 808.0266
2482.405, 811.5332
2484.333, 813.2213
2486.261, 814.8624
2488.190, 816.5624
2490.118, 818.9444
2492.047, 822.7418
2493.975, 825.5397
2495.904, 826.3663
2497.832, 827.6296
2499.761, 829.5286
2501.689, 832.0400
2503.618, 835.7109
2505.546, 838.7339
2507.475, 840.0811
2509.403, 841.5879
2511.332, 844.6390
2513.260, 846.9896
2515.188, 846.2106
2517.117, 846.2413
2519.045, 850.1555
2520.974, 854.4136
2522.902, 856.2447
2524.831, 858.1727
2526.759, 862.9816
2528.688, 867.8300
2530.616, 870.0992
2532.545, 870.9968
2534.473, 870.9480
2536.402, 871.1862
2538.330, 873.4788
2540.259, 877.2983
2542.187, 882.4262
2544.115, 887.9499
2546.044, 891.7172
2547.972, 894.4036
2549.901, 898.2224
2551.829, 902.5455
2553.758, 904.3470
2555.686, 904.2110
2557.615, 906.4568
2559.543, 910.7767
2561.472, 913.8406
2563.400, 915.7529
2565.329, 917.8977
2567.257, 920.2923
2569.186, 924.0396
2571.114, 929.5631
2573.042, 933.7141
2574.971, 936.5292
2576.899, 937.2148
2578.828, 935.2816
2580.756, 936.4117
2582.685, 941.5753
2584.613, 947.2224
2586.542, 953.6432
2588.470, 958.2537
2590.399, 962.8178
2592.327, 967.1468
2594.256, 969.1215
2596.184, 973.4074
2598.113, 973.3112
2600.041, 973.7980
2601.969, 975.7817
2603.898, 978.9889
2605.826, 984.7809
2607.755, 989.3475
2609.683, 991.5830
2611.612, 993.0832
2613.540, 992.7601
2615.469, 995.0366
2617.397, 1003.657
2619.326, 1010.499
2621.254, 1011.057
2623.183, 1011.730
2625.111, 1015.494
2627.040, 1018.884
2628.968, 1020.483
2630.896, 1022.151
2632.825, 1024.384
2634.753, 1027.309
2636.682, 1031.603
2638.610, 1035.523
2640.539, 1036.985
2642.467, 1039.265
2644.396, 1045.299
2646.324, 1051.007
2648.253, 1054.438
2650.181, 1056.925
2652.110, 1058.956
2654.038, 1060.880
2655.967, 1062.326
2657.895, 1064.542
2659.823, 1068.874
2661.752, 1073.631
2663.680, 1078.384
2665.609, 1082.179
2667.537, 1083.212
2669.466, 1084.368
2671.394, 1088.192
2673.323, 1092.587
2675.251, 1096.087
2677.180, 1099.220
2679.108, 1102.443
2681.037, 1105.575
2682.965, 1108.291
2684.894, 1111.266
2686.822, 1114.793
2688.750, 1119.197
2690.679, 1125.624
2692.607, 1131.881
2694.536, 1136.201
2696.464, 1139.057
2698.393, 1139.499
2700.321, 1140.042
2702.250, 1142.637
2704.178, 1146.756
2706.107, 1154.200
2708.035, 1160.572
2709.964, 1160.479
2711.892, 1159.711
2713.821, 1162.569
2715.749, 1167.185
2717.677, 1173.144
2719.606, 1178.479
2721.534, 1180.526
2723.463, 1182.086
2725.391, 1184.940
2727.320, 1188.868
2729.248, 1195.597
2731.177, 1201.290
2733.105, 1201.001
2735.034, 1201.072
2736.962, 1207.129
2738.891, 1214.530
2740.819, 1220.687
2742.748, 1225.856
2744.676, 1229.091
2746.604, 1232.547
2748.533, 1239.219
2750.461, 1244.612
2752.390, 1244.664
2754.318, 1244.381
2756.247, 1246.359
2758.175, 1249.311
2760.104, 1252.259
2762.032, 1256.363
2763.961, 1263.740
2765.889, 1270.035
2767.818, 1272.160
2769.746, 1274.196
2771.675, 1277.483
2773.603, 1281.677
2775.531, 1287.610
2777.460, 1292.970
2779.388, 1298.357
2781.317, 1300.811
2783.245, 1297.401
2785.174, 1296.301
2787.102, 1300.924
2789.031, 1307.709
2790.959, 1317.503
2792.888, 1325.524
2794.816, 1329.996
2796.745, 1333.457
2798.673, 1335.860
2800.602, 1338.232
2802.530, 1340.866
2804.458, 1343.646
2806.387, 1347.320
2808.315, 1350.318
2810.244, 1352.533
2812.172, 1355.609
2814.101, 1360.205
2816.029, 1363.677
2817.958, 1363.547
2819.886, 1367.298
2821.815, 1376.027
2823.743, 1380.959
2825.672, 1381.324
2827.600, 1382.622
2829.529, 1385.315
2831.457, 1392.082
2833.385, 1403.998
2835.314, 1409.421
2837.242, 1408.793
2839.171, 1408.924
2841.099, 1410.233
2843.028, 1414.911
2844.956, 1422.313
2846.885, 1428.523
2848.813, 1433.431
2850.742, 1435.863
2852.670, 1436.535
2854.599, 1436.195
2856.527, 1436.381
2858.456, 1441.294
2860.384, 1448.995
2862.313, 1457.072
2864.241, 1464.028
2866.169, 1465.739
2868.098, 1472.689
2870.026, 1473.501
2871.955, 1481.539
2873.883, 1485.551
2875.812, 1489.026
2877.740, 1495.350
2879.669, 1501.609
2881.597, 1505.110
2883.526, 1508.793
2885.454, 1515.291
2887.383, 1521.410
2889.311, 1525.773
2891.240, 1529.618
2893.168, 1533.297
2895.096, 1536.906
2897.025, 1539.696
2898.953, 1543.940
2900.882, 1550.892
2902.810, 1556.286
2904.739, 1558.839
2906.667, 1561.813
2908.596, 1565.705
2910.524, 1570.809
2912.453, 1577.733
2914.381, 1582.658
2916.310, 1585.419
2918.238, 1588.804
2920.167, 1592.966
2922.095, 1597.242
2924.023, 1601.567
2925.952, 1609.001
2927.880, 1610.999
2929.809, 1619.769
2931.737, 1617.933
2933.666, 1620.848
2935.594, 1626.872
2937.523, 1633.833
2939.451, 1640.251
2941.380, 1643.124
2943.308, 1644.996
2945.237, 1647.496
2947.165, 1651.205
2949.094, 1657.285
2951.022, 1663.321
2952.950, 1667.625
2954.879, 1671.619
2956.807, 1676.446
2958.736, 1680.896
2960.664, 1684.626
2962.593, 1688.489
2964.521, 1692.932
2966.450, 1697.195
2968.378, 1700.715
2970.307, 1704.959
2972.235, 1710.209
2974.164, 1714.504
2976.092, 1717.564
2978.021, 1722.393
2979.949, 1729.261
2981.877, 1735.919
2983.806, 1742.255
2985.734, 1746.842
2987.663, 1750.198
2989.591, 1753.706
2991.520, 1757.703
2993.448, 1763.492
2995.377, 1769.740
2997.305, 1774.723
2999.234, 1778.586
3001.162, 1779.961
3003.091, 1782.334
3005.019, 1790.357
3006.948, 1797.241
3008.876, 1797.645
3010.804, 1799.438
3012.733, 1806.974
3014.661, 1813.848
3016.590, 1817.254
3018.518, 1822.009
3020.447, 1828.727
3022.375, 1835.715
3024.304, 1842.777
3026.232, 1847.474
3028.161, 1849.242
3030.089, 1853.006
3032.018, 1858.337
3033.946, 1861.756
3035.875, 1864.381
3037.803, 1870.272
3039.731, 1877.563
3041.660, 1882.698
3043.588, 1886.316
3045.517, 1887.527
3047.445, 1889.904
3049.374, 1898.120
3051.302, 1906.462
3053.231, 1911.186
3055.159, 1915.750
3057.088, 1920.885
3059.016, 1927.024
3060.945, 1935.701
3062.873, 1942.193
3064.802, 1945.770
3066.730, 1949.450
3068.658, 1953.468
3070.587, 1960.070
3072.515, 1963.494
3074.444, 1967.659
3076.372, 1972.569
3078.301, 1975.459
3080.229, 1980.380
3082.158, 1985.922
3084.086, 1991.782
3086.015, 1997.279
3087.943, 2003.269
3089.872, 2010.650
3091.800, 2018.179
3093.729, 2026.500
3095.657, 2031.637
3097.585, 2031.174
3099.514, 2031.282
3101.442, 2032.609
3103.371, 2038.701
3105.299, 2051.527
3107.228, 2060.028
3109.156, 2064.342
3111.085, 2068.928
3113.013, 2073.843
3114.942, 2079.213
3116.870, 2084.101
3118.799, 2084.830
3120.727, 2090.538
3122.656, 2091.716
3124.584, 2098.977
3126.512, 2102.696
3128.441, 2107.337
3130.369, 2115.755
3132.298, 2124.083
3134.226, 2131.511
3136.155, 2137.346
3138.083, 2145.884
3140.012, 2148.033
3141.940, 2159.933
3143.869, 2167.694
3145.797, 2171.442
3147.726, 2175.484
3149.654, 2180.062
3151.583, 2186.703
3153.511, 2193.630
3155.439, 2198.528
3157.368, 2202.460
3159.296, 2204.865
3161.225, 2209.445
3163.153, 2221.143
3165.082, 2230.008
3167.010, 2232.368
3168.939, 2233.094
3170.867, 2231.903
3172.796, 2236.011
3174.724, 2246.564
3176.653, 2253.027
3178.581, 2255.875
3180.510, 2255.202
3182.438, 2254.438
3184.366, 2262.074
3186.295, 2263.292
3188.223, 2272.372
3190.152, 2273.698
3192.080, 2280.489
3194.009, 2288.691
3195.937, 2297.655
3197.866, 2305.564
3199.794, 2311.895
3201.723, 2317.989
3203.651, 2324.035
3205.580, 2326.595
3207.508, 2326.648
3209.437, 2334.419
3211.365, 2334.163
3213.293, 2343.176
3215.222, 2339.809
3217.150, 2346.632
3219.079, 2354.588
3221.007, 2356.107
3222.936, 2360.277
3224.864, 2372.872
3226.793, 2383.795
3228.721, 2392.136
3230.650, 2396.985
3232.578, 2398.035
3234.507, 2402.092
3236.435, 2408.554
3238.364, 2413.741
3240.292, 2419.257
3242.220, 2428.806
3244.149, 2438.700
3246.077, 2445.262
3248.006, 2451.033
3249.934, 2457.074
3251.863, 2462.817
3253.791, 2468.599
3255.720, 2474.590
3257.648, 2480.430
3259.577, 2486.420
3261.505, 2492.298
3263.434, 2498.103
3265.362, 2504.002
3267.291, 2510.662
3269.219, 2517.426
3271.147, 2524.309
3273.076, 2529.794
3275.004, 2531.501
3276.933, 2535.672
3278.861, 2545.399
3280.790, 2554.539
3282.718, 2562.455
3284.647, 2570.744
3286.575, 2579.487
3288.504, 2588.670
3290.432, 2597.988
3292.361, 2606.832
3294.289, 2615.074
3296.218, 2622.172
3298.146, 2629.042
3300.074, 2635.536
3302.003, 2643.265
3303.931, 2653.021
3305.860, 2661.702
3307.788, 2669.032
3309.717, 2672.778
3311.645, 2674.362
3313.574, 2680.940
3315.502, 2689.604
3317.431, 2696.028
3319.359, 2701.776
3321.288, 2706.147
3323.216, 2714.292
3325.145, 2731.284
3327.073, 2746.236
3329.001, 2757.707
3330.930, 2764.684
3332.858, 2774.430
3334.787, 2775.633
3336.715, 2786.403
3338.644, 2789.909
3340.572, 2792.549
3342.501, 2801.720
3344.429, 2811.462
3346.358, 2818.385
3348.286, 2825.911
3350.215, 2835.230
3352.143, 2842.906
3354.072, 2848.625
3356.000, 2857.973
3357.928, 2862.917
3359.857, 2872.837
3361.785, 2875.083
3363.714, 2881.041
3365.642, 2889.504
3367.571, 2901.304
3369.499, 2912.298
3371.428, 2920.595
3373.356, 2930.428
3375.285, 2941.873
3377.213, 2954.282
3379.142, 2965.824
3381.070, 2968.193
3382.999, 2967.598
3384.927, 2971.512
3386.855, 2976.780
3388.784, 2982.311
3390.712, 2987.547
3392.641, 2992.527
3394.569, 2997.407
3396.498, 3002.280
3398.426, 3007.242
3400.355, 3012.060
3402.283, 3016.336
3404.212, 3019.770
3406.140, 3020.210
3408.069, 3022.346
3409.997, 3028.562
3411.926, 3037.109
3413.854, 3039.471
3415.782, 3052.764
3417.711, 3048.628
3419.639, 3050.908
3421.568, 3057.387
3423.496, 3065.135
3425.425, 3070.660
3427.353, 3067.125
3429.282, 3067.776
3431.210, 3078.711
3433.139, 3088.274
3435.067, 3094.700
3436.996, 3097.347
3438.924, 3097.294
3440.853, 3100.204
3442.781, 3104.425
3444.709, 3108.902
3446.638, 3112.269
3448.566, 3113.475
3450.495, 3114.804
3452.423, 3115.343
3454.352, 3123.110
3456.280, 3127.098
3458.209, 3140.942
3460.137, 3141.109
3462.066, 3150.823
3463.994, 3158.796
3465.923, 3153.229
3467.851, 3151.694
3469.780, 3164.374
3471.708, 3174.171
3473.636, 3180.249
3475.565, 3182.043
3477.493, 3182.363
3479.422, 3191.642
3481.350, 3201.136
3483.279, 3202.199
3485.207, 3201.938
3487.136, 3202.861
3489.064, 3205.775
3490.993, 3211.192
3492.921, 3215.672
3494.850, 3219.731
3496.778, 3225.038
3498.707, 3231.133
3500.635, 3235.329
3502.563, 3243.755
3504.492, 3260.738
3506.420, 3273.997
3508.349, 3281.055
3510.277, 3281.464
3512.206, 3278.915
3514.134, 3289.516
3516.063, 3304.186
3517.991, 3312.820
3519.920, 3320.800
3521.848, 3329.466
3523.777, 3340.425
3525.705, 3345.717
3527.634, 3359.524
3529.562, 3358.073
3531.490, 3362.227
3533.419, 3369.260
3535.347, 3379.154
3537.276, 3386.352
3539.204, 3386.779
3541.133, 3390.076
3543.061, 3397.067
3544.990, 3403.925
3546.918, 3411.707
3548.847, 3425.722
3550.775, 3440.132
3552.704, 3449.048
3554.632, 3458.440
3556.561, 3473.330
3558.489, 3478.567
3560.417, 3489.498
3562.346, 3497.776
3564.274, 3504.832
3566.203, 3511.170
3568.131, 3514.250
3570.060, 3516.897
3571.988, 3524.773
3573.917, 3539.851
3575.845, 3548.254
3577.774, 3550.462
3579.702, 3555.769
3581.631, 3562.975
3583.559, 3571.542
3585.488, 3578.800
3587.416, 3582.769
3589.344, 3585.769
3591.273, 3587.750
3593.201, 3592.275
3595.130, 3598.344
3597.058, 3603.021
3598.987, 3607.501
3600.915, 3613.507
3602.844, 3618.450
3604.772, 3621.369
3606.701, 3626.200
3608.629, 3632.696
3610.558, 3634.978
3612.486, 3636.442
3614.415, 3640.457
3616.343, 3649.483
3618.271, 3656.894
3620.200, 3667.583
3622.128, 3680.045
3624.057, 3690.624
3625.985, 3702.224
3627.914, 3716.531
3629.842, 3725.702
3631.771, 3739.366
3633.699, 3752.805
3635.628, 3765.660
3637.556, 3773.782
3639.485, 3778.424
3641.413, 3789.507
3643.342, 3800.591
3645.270, 3801.109
3647.198, 3804.635
3649.127, 3816.651
3651.055, 3828.622
3652.984, 3839.292
3654.912, 3841.132
3656.841, 3839.851
3658.769, 3847.784
3660.698, 3852.026
3662.626, 3846.146
3664.555, 3839.193
3666.483, 3832.619
3668.412, 3834.543
3670.340, 3841.105
3672.269, 3842.134
3674.197, 3844.336
3676.125, 3853.160
3678.054, 3859.526
3679.982, 3860.724
3681.911, 3860.996
3683.839, 3861.257
3685.768, 3863.731
3687.696, 3867.281
3689.625, 3871.285
3691.553, 3874.934
3693.482, 3877.636
3695.410, 3878.282
3697.339, 3878.868
3699.267, 3890.685
3701.196, 3902.666
3703.124, 3901.790
3705.052, 3902.376
3706.981, 3909.485
3708.909, 3911.733
3710.838, 3910.927
3712.766, 3916.752
3714.695, 3924.641
3716.623, 3930.324
3718.552, 3935.481
3720.480, 3940.230
3722.409, 3947.348
3724.337, 3955.130
3726.266, 3950.274
3728.194, 3946.607
3730.123, 3961.558
3732.051, 3976.527
3733.979, 3986.984
3735.908, 3993.927
3737.836, 3998.269
3739.765, 4002.874
3741.693, 4008.629
3743.622, 4017.331
3745.550, 4026.363
3747.479, 4035.492
3749.407, 4039.323
3751.336, 4047.356
3753.264, 4049.040
3755.193, 4058.752
3757.121, 4061.801
3759.050, 4066.093
3760.978, 4073.590
3762.906, 4080.902
3764.835, 4087.362
3766.763, 4093.894
3768.692, 4100.771
3770.620, 4105.232
3772.549, 4115.530
3774.477, 4119.890
3776.406, 4130.091
3778.334, 4142.620
3780.263, 4149.745
3782.191, 4154.845
3784.120, 4158.139
3786.048, 4165.659
3787.977, 4167.362
3789.905, 4177.741
3791.833, 4174.904
3793.762, 4181.153
3795.690, 4190.839
3797.619, 4203.140
3799.547, 4213.064
3801.476, 4220.383
3803.404, 4225.716
3805.333, 4230.106
3807.261, 4231.989
3809.190, 4239.142
3811.118, 4253.365
3813.047, 4268.294
3814.975, 4280.979
3816.904, 4281.541
3818.832, 4281.511
3820.760, 4290.694
3822.689, 4299.137
3824.617, 4306.208
3826.546, 4306.326
3828.474, 4304.833
3830.403, 4309.675
3832.331, 4316.876
3834.260, 4322.563
3836.188, 4335.836
3838.117, 4354.350
3840.045, 4371.705
3841.974, 4380.438
3843.902, 4367.542
3845.831, 4361.204
3847.759, 4371.856
3849.688, 4375.780
3851.616, 4377.366
3853.544, 4386.937
3855.473, 4395.156
3857.401, 4395.126
3859.330, 4404.525
3861.258, 4424.042
3863.187, 4432.877
3865.115, 4438.083
3867.044, 4448.222
3868.972, 4454.625
3870.901, 4454.124
3872.829, 4460.160
3874.758, 4475.163
3876.686, 4496.621
3878.615, 4514.394
3880.543, 4521.647
3882.471, 4527.195
3884.400, 4532.553
3886.328, 4546.815
3888.257, 4558.786
3890.185, 4549.891
3892.114, 4549.760
3894.042, 4565.419
3895.971, 4580.683
3897.899, 4594.081
3899.828, 4599.979
3901.756, 4607.025
3903.685, 4618.593
3905.613, 4631.318
3907.542, 4644.332
3909.470, 4654.049
3911.398, 4662.582
3913.327, 4670.688
3915.255, 4679.744
3917.184, 4690.574
3919.112, 4701.305
3921.041, 4710.914
3922.969, 4722.373
3924.898, 4730.859
3926.826, 4745.013
3928.755, 4757.263
3930.683, 4769.608
3932.612, 4786.166
3934.540, 4798.733
3936.469, 4813.402
3938.397, 4828.029
3940.325, 4840.444
3942.254, 4856.466
3944.182, 4866.529
3946.111, 4879.878
3948.039, 4888.304
3949.968, 4892.109
3951.896, 4900.168
3953.825, 4908.900
3955.753, 4914.733
3957.682, 4920.485
3959.610, 4927.482
3961.539, 4938.356
3963.467, 4950.500
3965.396, 4960.061
3967.324, 4971.859
3969.252, 4986.453
3971.181, 4995.944
3973.109, 5008.324
3975.038, 5020.714
3976.966, 5030.561
3978.895, 5043.942
3980.823, 5055.132
3982.752, 5064.470
3984.680, 5071.521
3986.609, 5079.185
3988.537, 5091.766
3990.466, 5103.187
3992.394, 5112.833
3994.323, 5124.573
3996.251, 5136.991
3998.179, 5146.505
4000.108, 5159.326
4002.036, 5178.330
4003.965, 5186.994
4005.893, 5192.091
4007.822, 5210.294
4009.750, 5227.396
4011.679, 5237.526
4013.607, 5239.725
4015.536, 5240.287
4017.464, 5255.382
4019.393, 5271.615
4021.321, 5283.341
4023.250, 5291.453
4025.178, 5297.335
4027.106, 5306.509
4029.035, 5319.208
4030.963, 5334.266
4032.892, 5343.958
4034.820, 5354.385
4036.749, 5368.783
4038.677, 5381.402
4040.606, 5386.227
4042.534, 5397.534
4044.463, 5404.894
4046.391, 5420.264
4048.320, 5421.725
4050.248, 5435.331
4052.177, 5448.241
4054.105, 5454.880
4056.033, 5468.695
4057.962, 5483.113
4059.890, 5482.944
4061.819, 5486.442
4063.747, 5498.431
4065.676, 5508.989
4067.604, 5520.263
4069.533, 5540.440
4071.461, 5557.909
4073.390, 5570.983
4075.318, 5579.032
4077.247, 5585.295
4079.175, 5590.525
4081.104, 5600.010
4083.032, 5607.377
4084.960, 5618.562
4086.889, 5626.563
4088.817, 5637.294
4090.746, 5645.869
4092.674, 5656.600
4094.603, 5661.307
4096.531, 5677.800
4098.460, 5688.226
4100.388, 5697.737
4102.317, 5712.880
4104.245, 5725.669
4106.174, 5736.840
4108.102, 5745.365
4110.031, 5750.536
4111.959, 5760.667
4113.888, 5775.066
4115.816, 5791.892
4117.745, 5802.591
4119.673, 5809.560
4121.602, 5814.471
4123.530, 5821.074
4125.458, 5829.285
4127.387, 5841.556
4129.315, 5846.865
4131.244, 5859.896
4133.172, 5869.993
4135.101, 5873.458
4137.029, 5883.629
4138.958, 5896.375
4140.886, 5904.298
4142.814, 5908.884
4144.743, 5911.495
4146.671, 5918.316
4148.600, 5930.760
4150.528, 5952.341
4152.457, 5970.656
4154.385, 5978.103
4156.314, 5983.400
4158.242, 5987.375
4160.171, 5992.913
4162.099, 6002.356
4164.028, 6012.611
4165.956, 6025.783
4167.885, 6032.406
4169.813, 6043.917
4171.742, 6047.482
4173.670, 6054.713
4175.599, 6062.317
4177.527, 6071.201
4179.456, 6081.091
4181.384, 6090.776
4183.313, 6104.132
4185.241, 6113.975
4187.169, 6128.597
4189.098, 6134.295
4191.026, 6151.567
4192.955, 6146.935
4194.883, 6150.302
4196.812, 6158.745
4198.740, 6167.550
4200.668, 6178.367
4202.597, 6187.721
4204.525, 6193.982
4206.454, 6200.700
4208.382, 6209.753
4210.311, 6217.938
4212.239, 6225.139
4214.168, 6236.175
4216.096, 6248.392
4218.025, 6256.378
4219.953, 6260.420
4221.882, 6262.492
4223.810, 6277.670
4225.739, 6293.398
4227.667, 6295.450
4229.596, 6305.304
4231.524, 6322.938
4233.453, 6337.411
4235.381, 6343.236
4237.310, 6332.642
4239.238, 6336.570
4241.167, 6351.216
4243.095, 6357.448
4245.023, 6363.891
4246.952, 6372.126
4248.880, 6370.554
4250.809, 6365.759
4252.737, 6370.490
4254.666, 6372.915
4256.594, 6369.133
4258.522, 6368.393
4260.451, 6371.011
4262.379, 6379.434
4264.308, 6386.877
4266.236, 6392.268
4268.165, 6391.231
4270.093, 6391.585
4272.022, 6399.490
4273.950, 6415.476
4275.879, 6415.726
4277.807, 6429.944
4279.736, 6423.838
4281.664, 6427.795
4283.593, 6428.619
4285.521, 6427.216
4287.450, 6426.851
4289.378, 6426.283
4291.307, 6425.931
4293.235, 6424.592
4295.164, 6426.451
4297.092, 6430.163
4299.021, 6434.062
4300.949, 6441.612
4302.877, 6446.622
4304.806, 6454.550
4306.734, 6462.579
4308.663, 6467.126
4310.591, 6468.691
4312.520, 6465.536
4314.448, 6467.818
4316.376, 6480.824
4318.305, 6488.561
4320.233, 6493.795
4322.162, 6504.146
4324.090, 6499.740
4326.019, 6501.851
4327.947, 6505.527
4329.876, 6498.899
4331.804, 6509.220
4333.733, 6514.017
4335.661, 6514.598
4337.590, 6509.907
4339.518, 6511.718
4341.447, 6524.075
4343.375, 6530.588
4345.304, 6535.496
4347.232, 6546.799
4349.161, 6553.024
4351.089, 6552.498
4353.018, 6554.399
4354.946, 6552.245
4356.875, 6547.130
4358.803, 6546.450
4360.731, 6539.568
4362.660, 6539.889
4364.588, 6548.261
4366.517, 6563.795
4368.445, 6577.410
4370.374, 6588.563
4372.302, 6598.248
4374.230, 6596.873
4376.159, 6588.933
4378.087, 6599.648
4380.016, 6602.936
4381.944, 6585.804
4383.873, 6574.146
4385.801, 6569.391
4387.730, 6574.521
4389.658, 6579.717
4391.587, 6583.789
4393.515, 6588.082
4395.444, 6599.128
4397.372, 6594.599
4399.301, 6594.608
4401.229, 6595.287
4403.158, 6585.422
4405.086, 6585.435
4407.015, 6583.318
4408.943, 6578.708
4410.872, 6582.852
4412.800, 6577.546
4414.729, 6580.198
4416.657, 6589.086
4418.585, 6602.375
4420.514, 6612.537
4422.442, 6617.571
4424.371, 6620.033
4426.299, 6619.915
4428.228, 6616.877
4430.156, 6612.744
4432.084, 6610.212
4434.013, 6617.126
4435.941, 6620.271
4437.870, 6616.537
4439.798, 6613.610
4441.727, 6612.682
4443.655, 6615.448
4445.584, 6615.844
4447.512, 6614.571
4449.441, 6611.069
4451.369, 6618.678
4453.298, 6638.437
4455.226, 6637.135
4457.155, 6631.107
4459.083, 6630.773
4461.012, 6625.360
4462.940, 6622.166
4464.869, 6640.620
4466.797, 6648.744
4468.726, 6643.207
4470.654, 6647.669
4472.583, 6651.064
4474.511, 6644.170
4476.439, 6646.869
4478.368, 6650.447
4480.296, 6635.623
4482.225, 6637.183
4484.153, 6635.555
4486.082, 6644.397
4488.010, 6634.478
4489.938, 6632.558
4491.867, 6629.659
4493.795, 6630.459
4495.724, 6642.490
4497.652, 6647.066
4499.581, 6644.704
4501.509, 6637.992
4503.438, 6640.148
4505.366, 6654.526
4507.295, 6664.470
4509.223, 6670.018
4511.152, 6669.657
4513.080, 6669.196
4515.009, 6667.605
4516.937, 6666.270
4518.866, 6660.440
4520.794, 6662.211
4522.723, 6658.610
4524.651, 6655.858
4526.580, 6656.181
4528.508, 6644.617
4530.437, 6633.496
4532.365, 6634.483
4534.293, 6643.774
4536.222, 6655.546
4538.150, 6656.399
4540.079, 6657.557
4542.007, 6661.531
4543.936, 6672.249
4545.864, 6680.103
4547.792, 6679.997
4549.721, 6688.774
4551.649, 6694.464
4553.578, 6681.353
4555.506, 6672.115
4557.435, 6667.884
4559.363, 6664.175
4561.292, 6665.554
4563.220, 6671.642
4565.149, 6655.494
4567.077, 6648.362
4569.006, 6667.178
4570.934, 6675.217
4572.863, 6676.552
4574.791, 6676.118
4576.720, 6672.521
4578.648, 6668.227
4580.577, 6669.532
4582.505, 6670.148
4584.434, 6669.445
4586.362, 6667.019
4588.291, 6676.772
4590.219, 6661.680
4592.147, 6655.588
4594.076, 6656.366
4596.004, 6663.556
4597.933, 6658.179
4599.861, 6651.824
4601.790, 6671.265
4603.718, 6674.781
4605.646, 6661.802
4607.575, 6658.537
4609.503, 6655.980
4611.432, 6652.458
4613.360, 6661.601
4615.289, 6669.036
4617.217, 6666.843
4619.146, 6659.958
4621.074, 6653.727
4623.003, 6655.713
4624.931, 6648.011
4626.860, 6637.335
4628.788, 6642.146
4630.717, 6648.922
4632.645, 6653.604
4634.574, 6646.912
4636.502, 6639.766
4638.431, 6636.578
4640.359, 6637.328
4642.288, 6653.967
4644.216, 6645.209
4646.145, 6651.767
4648.073, 6659.750
4650.001, 6654.875
4651.930, 6647.744
4653.858, 6640.823
4655.787, 6639.095
4657.715, 6629.729
4659.644, 6619.145
4661.572, 6636.392
4663.500, 6645.241
4665.429, 6636.897
4667.357, 6628.044
4669.286, 6627.622
4671.214, 6623.114
4673.143, 6619.868
4675.071, 6621.046
4677.000, 6616.804
4678.928, 6615.369
4680.857, 6617.209
4682.785, 6626.397
4684.714, 6619.123
4686.642, 6604.673
4688.571, 6600.253
4690.499, 6608.306
4692.428, 6620.677
4694.356, 6613.409
4696.285, 6603.460
4698.213, 6595.953
4700.142, 6595.133
4702.070, 6600.266
4703.999, 6609.398
4705.927, 6603.485
4707.855, 6596.652
4709.784, 6598.645
4711.712, 6594.038
4713.641, 6591.096
4715.569, 6597.022
4717.498, 6598.249
4719.426, 6595.773
4721.354, 6591.992
4723.283, 6585.720
4725.211, 6578.525
4727.140, 6572.578
4729.068, 6570.837
4730.997, 6573.304
4732.925, 6580.261
4734.854, 6582.492
4736.782, 6578.681
4738.711, 6571.583
4740.639, 6562.708
4742.568, 6552.825
4744.496, 6540.021
4746.425, 6533.872
4748.353, 6537.186
4750.282, 6539.390
4752.210, 6543.587
4754.139, 6552.080
4756.067, 6552.401
4757.996, 6544.309
4759.924, 6526.197
4761.853, 6525.431
4763.781, 6532.657
4765.709, 6541.090
4767.638, 6541.046
4769.566, 6533.763
4771.495, 6517.616
4773.423, 6507.562
4775.352, 6505.861
4777.280, 6518.669
4779.208, 6524.505
4781.137, 6523.361
4783.065, 6517.171
4784.994, 6518.631
4786.922, 6522.036
4788.851, 6521.034
4790.779, 6524.309
4792.708, 6519.648
4794.636, 6521.245
4796.565, 6509.158
4798.493, 6506.790
4800.422, 6490.556
4802.350, 6494.069
4804.279, 6494.343
4806.207, 6486.278
4808.136, 6472.580
4810.064, 6456.581
4811.993, 6467.753
4813.921, 6476.420
4815.850, 6472.277
4817.778, 6455.314
4819.707, 6444.953
4821.635, 6450.530
4823.563, 6451.058
4825.492, 6446.742
4827.420, 6438.252
4829.349, 6429.210
4831.277, 6430.924
4833.206, 6453.046
4835.134, 6448.373
4837.063, 6432.647
4838.991, 6415.381
4840.919, 6416.097
4842.848, 6422.438
4844.776, 6426.784
4846.705, 6421.404
4848.633, 6413.219
4850.562, 6406.700
4852.490, 6409.788
4854.419, 6412.420
4856.347, 6405.423
4858.276, 6395.849
4860.204, 6390.500
4862.133, 6394.843
4864.061, 6377.333
4865.990, 6361.097
4867.918, 6373.732
4869.847, 6362.107
4871.775, 6347.390
4873.704, 6346.369
4875.632, 6346.641
4877.561, 6346.918
4879.489, 6347.867
4881.417, 6338.215
4883.346, 6326.903
4885.274, 6320.689
4887.203, 6323.244
4889.131, 6329.298
4891.060, 6336.193
4892.988, 6327.088
4894.917, 6319.458
4896.845, 6326.678
4898.773, 6317.466
4900.702, 6304.400
4902.630, 6297.070
4904.559, 6302.922
4906.487, 6305.309
4908.416, 6292.824
4910.344, 6288.646
4912.273, 6285.019
4914.201, 6276.893
4916.130, 6263.906
4918.058, 6251.828
4919.987, 6244.536
4921.915, 6233.633
4923.844, 6231.574
4925.772, 6242.947
4927.701, 6245.646
4929.629, 6241.846
4931.558, 6232.592
4933.486, 6234.537
4935.415, 6231.383
4937.343, 6219.751
4939.271, 6219.125
4941.200, 6215.123
4943.128, 6203.959
4945.057, 6202.603
4946.985, 6203.264
4948.914, 6201.835
4950.842, 6189.977
4952.771, 6178.173
4954.699, 6169.729
4956.627, 6164.587
4958.556, 6165.851
4960.484, 6170.784
4962.413, 6171.659
4964.341, 6171.247
4966.270, 6168.130
4968.198, 6156.269
4970.127, 6143.714
4972.055, 6136.083
4973.984, 6142.328
4975.912, 6140.690
4977.841, 6135.301
4979.769, 6139.645
4981.698, 6128.021
4983.626, 6110.226
4985.555, 6096.483
4987.483, 6092.205
4989.412, 6091.048
4991.340, 6088.135
4993.269, 6080.028
4995.197, 6070.334
4997.125, 6060.445
4999.054, 6074.589
5000.982, 6081.502
5002.911, 6069.431
5004.839, 6069.509
5006.768, 6062.351
5008.696, 6043.943
5010.625, 6034.660
5012.553, 6026.610
5014.481, 6020.218
5016.410, 6025.230
5018.338, 6028.022
5020.267, 6024.740
5022.195, 6012.175
5024.124, 6000.784
5026.052, 5993.160
5027.981, 5991.186
5029.909, 5989.006
5031.838, 5984.504
5033.766, 5974.803
5035.695, 5971.862
5037.623, 5968.651
5039.552, 5959.847
5041.480, 5969.271
5043.409, 5975.264
5045.337, 5967.083
5047.266, 5954.896
5049.194, 5946.511
5051.123, 5942.393
5053.051, 5933.384
5054.979, 5929.296
5056.908, 5922.163
5058.836, 5920.524
5060.765, 5917.986
5062.693, 5914.122
5064.622, 5907.123
5066.550, 5893.856
5068.479, 5880.720
5070.407, 5873.955
5072.335, 5865.593
5074.264, 5872.531
5076.192, 5856.333
5078.121, 5861.804
5080.049, 5861.182
5081.978, 5844.783
5083.906, 5823.296
5085.835, 5817.253
5087.763, 5825.745
5089.692, 5834.792
5091.620, 5827.718
5093.549, 5813.240
5095.477, 5810.087
5097.406, 5803.169
5099.334, 5793.882
5101.263, 5796.956
5103.191, 5784.411
5105.120, 5785.436
5107.048, 5794.050
5108.977, 5785.490
5110.905, 5779.257
5112.833, 5780.731
5114.762, 5789.119
5116.690, 5782.312
5118.619, 5766.988
5120.547, 5772.995
5122.476, 5761.705
5124.404, 5744.213
5126.333, 5737.713
5128.261, 5728.155
5130.189, 5740.765
5132.118, 5718.312
5134.046, 5721.834
5135.975, 5724.743
5137.903, 5717.451
5139.832, 5718.398
5141.760, 5705.922
5143.689, 5709.272
5145.617, 5694.989
5147.546, 5683.992
5149.474, 5677.803
5151.403, 5669.316
5153.331, 5667.170
5155.260, 5659.012
5157.188, 5659.346
5159.117, 5655.265
5161.045, 5641.497
5162.974, 5639.225
5164.902, 5627.393
5166.831, 5625.352
5168.759, 5617.964
5170.688, 5611.692
5172.616, 5613.588
5174.544, 5612.336
5176.473, 5599.935
5178.401, 5589.056
5180.330, 5581.008
5182.258, 5576.942
5184.187, 5579.526
5186.115, 5582.156
5188.043, 5581.267
5189.972, 5572.221
5191.900, 5564.102
5193.829, 5558.904
5195.757, 5559.268
5197.686, 5551.362
5199.614, 5542.503
5201.543, 5535.114
5203.471, 5520.233
5205.400, 5511.634
5207.328, 5506.927
5209.257, 5495.597
5211.185, 5496.475
5213.114, 5495.898
5215.042, 5479.811
5216.971, 5476.240
5218.899, 5475.104
5220.828, 5471.123
5222.756, 5461.371
5224.685, 5449.920
5226.613, 5439.364
5228.542, 5433.058
5230.470, 5429.117
5232.398, 5423.054
5234.327, 5412.111
5236.255, 5416.898
5238.184, 5411.351
5240.112, 5394.080
5242.041, 5385.432
5243.969, 5390.644
5245.897, 5395.634
5247.826, 5382.226
5249.754, 5364.692
5251.683, 5350.422
5253.611, 5343.117
5255.540, 5347.502
5257.468, 5350.978
5259.397, 5349.570
5261.325, 5339.100
5263.254, 5340.313
5265.182, 5336.772
5267.111, 5315.544
5269.039, 5309.156
5270.968, 5300.088
5272.896, 5287.174
5274.825, 5285.810
5276.753, 5283.254
5278.682, 5278.236
5280.610, 5272.757
5282.539, 5255.021
5284.467, 5240.099
5286.396, 5234.487
5288.324, 5238.407
5290.252, 5240.032
5292.181, 5236.193
5294.109, 5224.259
5296.038, 5212.815
5297.966, 5211.388
5299.895, 5201.011
5301.823, 5195.740
5303.751, 5184.585
5305.680, 5184.257
5307.608, 5168.667
5309.537, 5163.123
5311.465, 5157.919
5313.394, 5145.532
5315.322, 5142.950
5317.251, 5136.029
5319.179, 5126.474
5321.108, 5127.159
5323.036, 5118.791
5324.965, 5104.220
5326.893, 5088.512
5328.822, 5091.049
5330.750, 5082.342
5332.679, 5065.932
5334.607, 5072.651
5336.536, 5059.753
5338.464, 5048.043
5340.393, 5051.935
5342.321, 5044.581
5344.250, 5039.643
5346.178, 5036.407
5348.106, 5026.644
5350.035, 5012.672
5351.963, 5000.405
5353.892, 4993.825
5355.820, 4984.723
5357.749, 4984.893
5359.677, 4972.455
5361.605, 4966.149
5363.534, 4959.531
5365.462, 4949.823
5367.391, 4937.276
5369.319, 4929.916
5371.248, 4921.707
5373.176, 4927.575
5375.105, 4907.625
5377.033, 4907.006
5378.962, 4898.948
5380.890, 4875.452
5382.819, 4857.958
5384.747, 4849.194
5386.676, 4845.960
5388.604, 4844.933
5390.533, 4838.890
5392.461, 4835.344
5394.390, 4828.272
5396.318, 4823.273
5398.247, 4814.563
5400.175, 4803.700
5402.104, 4801.286
5404.032, 4784.087
5405.960, 4781.769
5407.889, 4773.042
5409.817, 4777.168
5411.746, 4760.645
5413.674, 4749.517
5415.603, 4746.737
5417.531, 4738.483
5419.459, 4728.360
5421.388, 4717.643
5423.316, 4706.553
5425.245, 4701.460
5427.173, 4694.154
5429.102, 4685.111
5431.030, 4686.514
5432.959, 4683.063
5434.887, 4672.150
5436.816, 4655.097
5438.744, 4646.331
5440.673, 4637.093
5442.601, 4631.375
5444.530, 4620.741
5446.458, 4620.855
5448.387, 4605.239
5450.315, 4598.143
5452.244, 4598.800
5454.172, 4593.574
5456.101, 4583.366
5458.029, 4570.526
5459.958, 4563.904
5461.886, 4554.908
5463.814, 4544.687
5465.743, 4536.683
5467.671, 4522.170
5469.600, 4518.553
5471.528, 4523.327
5473.457, 4513.085
5475.385, 4509.524
5477.313, 4500.182
5479.242, 4481.026
5481.170, 4474.872
5483.099, 4474.749
5485.027, 4466.840
5486.956, 4441.517
5488.884, 4445.338
5490.813, 4437.016
5492.741, 4420.804
5494.670, 4431.303
5496.598, 4417.846
5498.527, 4404.780
5500.455, 4398.393
5502.384, 4381.295
5504.312, 4374.867
5506.241, 4372.558
5508.169, 4367.432
5510.098, 4354.180
5512.026, 4350.084
5513.955, 4347.063
5515.883, 4333.923
5517.812, 4325.785
5519.740, 4322.475
5521.668, 4321.845
5523.597, 4321.311
5525.525, 4316.184
5527.454, 4305.465
5529.382, 4291.700
5531.311, 4281.967
5533.239, 4271.631
5535.167, 4263.401
5537.096, 4251.241
5539.024, 4248.909
5540.953, 4236.011
5542.881, 4226.853
5544.810, 4230.724
5546.738, 4232.445
5548.667, 4227.780
5550.595, 4215.932
5552.524, 4198.147
5554.452, 4186.905
5556.381, 4177.618
5558.309, 4171.718
5560.238, 4162.124
5562.166, 4159.819
5564.095, 4149.957
5566.023, 4147.840
5567.952, 4149.256
5569.880, 4147.898
5571.809, 4138.612
5573.737, 4124.114
5575.666, 4116.817
5577.594, 4102.179
5579.522, 4091.108
5581.451, 4087.770
5583.379, 4085.576
5585.308, 4070.813
5587.236, 4055.279
5589.165, 4047.051
5591.093, 4047.314
5593.021, 4040.234
5594.950, 4031.665
5596.878, 4027.074
5598.807, 4023.505
5600.735, 4005.292
5602.664, 3995.323
5604.592, 4009.952
5606.521, 4006.177
5608.449, 3991.587
5610.378, 3974.898
5612.306, 3962.059
5614.235, 3952.776
5616.163, 3941.473
5618.092, 3931.872
5620.020, 3930.086
5621.949, 3917.977
5623.877, 3916.733
5625.806, 3901.106
5627.734, 3895.179
5629.663, 3889.274
5631.591, 3885.712
5633.520, 3878.942
5635.448, 3862.684
5637.376, 3851.084
5639.305, 3839.671
5641.233, 3831.824
5643.162, 3821.991
5645.090, 3816.551
5647.019, 3808.066
5648.947, 3808.022
5650.875, 3807.259
5652.804, 3799.075
5654.732, 3793.370
5656.661, 3788.217
5658.589, 3778.104
5660.518, 3771.013
5662.446, 3760.907
5664.375, 3748.703
5666.303, 3737.722
5668.232, 3737.127
5670.160, 3735.063
5672.089, 3730.530
5674.017, 3725.805
5675.946, 3709.970
5677.874, 3697.115
5679.803, 3688.561
5681.731, 3682.024
5683.660, 3673.736
5685.588, 3664.308
5687.517, 3660.932
5689.445, 3654.349
5691.374, 3653.150
5693.302, 3643.294
5695.230, 3634.907
5697.159, 3624.044
5699.087, 3619.212
5701.016, 3607.187
5702.944, 3599.995
5704.873, 3602.620
5706.801, 3591.178
5708.729, 3587.544
5710.658, 3581.835
5712.586, 3569.551
5714.515, 3559.051
5716.443, 3555.188
5718.372, 3546.295
5720.300, 3534.232
5722.229, 3537.068
5724.157, 3535.303
5726.086, 3524.566
5728.014, 3508.281
5729.943, 3493.206
5731.871, 3485.373
5733.800, 3481.720
5735.728, 3476.336
5737.657, 3463.738
5739.585, 3452.695
5741.514, 3451.714
5743.442, 3449.972
5745.371, 3436.587
5747.299, 3426.544
5749.228, 3423.409
5751.156, 3420.458
5753.084, 3413.194
5755.013, 3406.208
5756.941, 3392.934
5758.870, 3380.126
5760.798, 3371.417
5762.727, 3365.345
5764.655, 3360.016
5766.583, 3354.774
5768.512, 3346.598
5770.440, 3331.429
5772.369, 3321.901
5774.297, 3312.436
5776.226, 3306.438
5778.154, 3308.344
5780.083, 3305.246
5782.011, 3296.882
5783.940, 3286.909
5785.868, 3277.228
5787.797, 3262.403
5789.725, 3251.834
5791.654, 3247.965
5793.582, 3248.298
5795.511, 3246.576
5797.439, 3233.178
5799.368, 3223.404
5801.296, 3217.192
5803.225, 3208.151
5805.153, 3203.733
5807.082, 3194.980
5809.010, 3187.244
5810.938, 3187.208
5812.867, 3176.150
5814.795, 3184.574
5816.724, 3161.331
5818.652, 3156.606
5820.581, 3153.265
5822.509, 3135.985
5824.438, 3124.537
5826.366, 3123.169
5828.294, 3128.550
5830.223, 3118.208
5832.151, 3108.315
5834.080, 3100.296
5836.008, 3093.271
5837.937, 3089.753
5839.865, 3088.117
5841.794, 3072.138
5843.722, 3069.740
5845.651, 3051.440
5847.579, 3054.300
5849.508, 3044.339
5851.436, 3034.046
5853.365, 3034.269
5855.293, 3029.727
5857.222, 3019.250
5859.150, 3013.576
5861.079, 3001.901
5863.007, 2993.782
5864.936, 2980.815
5866.864, 2969.363
5868.792, 2965.226
5870.721, 2967.205
5872.649, 2973.144
5874.578, 2952.680
5876.506, 2935.761
5878.435, 2935.735
5880.363, 2947.613
5882.292, 2935.440
5884.220, 2921.632
5886.148, 2913.583
5888.077, 2910.620
5890.005, 2903.690
5891.934, 2897.407
5893.862, 2895.405
5895.791, 2883.684
5897.719, 2878.545
5899.648, 2870.140
5901.576, 2860.289
5903.505, 2856.339
5905.433, 2846.199
5907.362, 2837.040
5909.290, 2831.121
5911.219, 2818.096
5913.147, 2813.967
5915.076, 2807.865
5917.004, 2809.226
5918.933, 2796.287
5920.861, 2784.702
5922.790, 2781.919
5924.718, 2769.619
5926.646, 2759.028
5928.575, 2758.124
5930.503, 2745.817
5932.432, 2750.106
5934.360, 2730.985
5936.289, 2727.708
5938.217, 2724.792
5940.146, 2716.755
5942.074, 2709.544
5944.002, 2708.529
5945.931, 2701.060
5947.859, 2691.576
5949.788, 2683.854
5951.716, 2676.741
5953.645, 2669.021
5955.573, 2662.987
5957.502, 2654.649
5959.430, 2647.446
5961.359, 2642.100
5963.287, 2638.383
5965.216, 2630.826
5967.144, 2624.306
5969.073, 2627.457
5971.001, 2624.898
5972.930, 2616.437
5974.858, 2611.441
5976.787, 2611.167
5978.715, 2607.647
5980.644, 2599.422
5982.572, 2598.818
5984.500, 2595.991
5986.429, 2581.851
5988.357, 2557.244
5990.286, 2551.731
5992.214, 2543.179
5994.143, 2536.620
5996.071, 2529.314
5998.000, 2521.519
5999.928, 2516.338
6001.856, 2506.335
6003.785, 2503.633
6005.713, 2496.323
6007.642, 2489.783
6009.570, 2475.730
6011.499, 2465.132
6013.427, 2461.397
6015.356, 2461.531
6017.284, 2461.372
6019.213, 2450.995
6021.141, 2442.674
6023.070, 2438.592
6024.998, 2432.540
6026.927, 2424.886
6028.855, 2413.502
6030.784, 2411.276
6032.712, 2402.510
6034.641, 2399.015
6036.569, 2389.112
6038.498, 2389.062
6040.426, 2381.130
6042.354, 2377.431
6044.283, 2373.550
6046.211, 2368.461
6048.140, 2364.442
6050.068, 2356.968
6051.997, 2351.613
6053.925, 2338.870
6055.854, 2326.389
6057.782, 2318.740
6059.710, 2314.172
6061.639, 2309.571
6063.567, 2302.238
6065.496, 2292.907
6067.424, 2293.404
6069.353, 2292.716
6071.281, 2282.679
6073.210, 2278.597
6075.138, 2271.335
6077.067, 2261.753
6078.995, 2255.484
6080.924, 2246.997
6082.852, 2238.575
6084.781, 2232.166
6086.709, 2224.643
6088.638, 2217.662
6090.566, 2213.088
6092.495, 2204.560
6094.423, 2202.322
6096.352, 2197.193
6098.280, 2189.403
6100.208, 2183.422
6102.137, 2181.793
6104.065, 2177.822
6105.994, 2167.781
6107.922, 2161.554
6109.851, 2162.319
6111.779, 2163.653
6113.708, 2146.846
6115.636, 2133.482
6117.564, 2126.997
6119.493, 2123.894
6121.421, 2120.095
6123.350, 2113.022
6125.278, 2108.068
6127.207, 2097.607
6129.135, 2094.546
6131.064, 2089.159
6132.992, 2081.561
6134.921, 2083.115
6136.849, 2076.670
6138.778, 2071.941
6140.706, 2067.938
6142.635, 2059.318
6144.563, 2050.632
6146.492, 2042.968
6148.420, 2035.522
6150.349, 2033.677
6152.277, 2024.296
6154.206, 2027.892
6156.134, 2011.758
6158.063, 2004.153
6159.991, 2003.055
6161.919, 2002.875
6163.848, 2000.077
6165.776, 1994.853
6167.705, 1992.168
6169.633, 1982.879
6171.562, 1981.237
6173.490, 1972.632
6175.418, 1962.424
6177.347, 1958.787
6179.275, 1950.905
6181.204, 1937.543
6183.132, 1927.553
6185.061, 1933.670
6186.989, 1943.355
6188.918, 1930.925
6190.846, 1921.255
6192.775, 1917.430
6194.703, 1912.863
6196.632, 1913.187
6198.560, 1902.783
6200.489, 1890.887
6202.417, 1886.247
6204.346, 1885.464
6206.274, 1877.946
6208.203, 1880.125
6210.131, 1865.898
6212.060, 1856.368
6213.988, 1855.916
6215.917, 1856.881
6217.845, 1846.361
6219.773, 1841.361
6221.702, 1836.993
6223.630, 1829.554
6225.559, 1822.486
6227.487, 1820.035
6229.416, 1812.005
6231.344, 1801.942
6233.272, 1794.781
6235.201, 1790.309
6237.129, 1788.379
6239.058, 1789.836
6240.986, 1785.987
6242.915, 1776.577
6244.843, 1769.708
6246.772, 1765.638
6248.700, 1760.965
6250.629, 1753.141
6252.557, 1747.422
6254.486, 1745.598
6256.414, 1741.889
6258.343, 1735.842
6260.271, 1730.792
6262.200, 1730.022
6264.128, 1722.882
6266.057, 1720.350
6267.985, 1717.147
6269.914, 1712.888
6271.842, 1710.351
6273.771, 1706.521
6275.699, 1701.878
6277.627, 1683.722
6279.556, 1673.469
6281.484, 1673.218
6283.413, 1669.484
6285.341, 1666.924
6287.270, 1662.423
6289.198, 1654.728
6291.126, 1653.727
6293.055, 1642.622
6294.983, 1641.961
6296.912, 1639.716
6298.840, 1633.293
6300.769, 1626.683
6302.697, 1620.323
6304.626, 1616.757
6306.554, 1618.071
6308.483, 1608.107
6310.411, 1608.480
6312.340, 1598.674
6314.268, 1592.672
6316.197, 1592.035
6318.125, 1585.915
6320.054, 1583.606
6321.982, 1578.785
6323.911, 1569.127
6325.839, 1568.208
6327.768, 1561.166
6329.696, 1554.795
6331.625, 1559.048
6333.553, 1550.354
6335.481, 1546.597
6337.410, 1545.870
6339.338, 1542.082
6341.267, 1533.143
6343.195, 1522.859
6345.124, 1520.234
6347.052, 1516.500
6348.980, 1510.354
6350.909, 1506.132
6352.837, 1504.262
6354.766, 1499.706
6356.694, 1502.884
6358.623, 1487.919
6360.551, 1478.340
6362.480, 1474.531
6364.408, 1472.637
6366.337, 1473.808
6368.265, 1473.255
6370.194, 1463.609
6372.122, 1456.098
6374.051, 1458.551
6375.979, 1458.005
6377.908, 1445.973
6379.836, 1446.011
6381.765, 1448.226
6383.693, 1437.716
6385.622, 1432.609
6387.550, 1429.707
6389.479, 1423.197
6391.407, 1417.381
6393.335, 1418.266
6395.264, 1417.038
6397.192, 1417.206
6399.121, 1410.983
6401.049, 1398.232
6402.978, 1387.053
6404.906, 1385.795
6406.834, 1385.402
6408.763, 1388.574
6410.691, 1380.262
6412.620, 1374.646
6414.548, 1374.499
6416.477, 1366.625
6418.405, 1365.639
6420.334, 1359.045
6422.262, 1359.821
6424.191, 1357.660
6426.119, 1351.634
6428.048, 1347.307
6429.976, 1346.847
6431.905, 1337.802
6433.833, 1333.909
6435.762, 1334.508
6437.690, 1325.795
6439.619, 1321.005
6441.547, 1317.600
6443.476, 1314.186
6445.404, 1309.794
6447.333, 1307.675
6449.261, 1306.025
6451.189, 1303.197
6453.118, 1297.481
6455.046, 1290.791
6456.975, 1292.129
6458.903, 1284.216
6460.832, 1279.915
6462.760, 1277.012
6464.688, 1273.603
6466.617, 1269.726
6468.545, 1265.828
6470.474, 1261.537
6472.402, 1260.807
6474.331, 1259.302
6476.259, 1260.500
6478.188, 1255.496
6480.116, 1248.810
6482.045, 1246.227
6483.973, 1234.487
6485.902, 1239.402
6487.830, 1238.246
6489.759, 1227.769
6491.687, 1223.287
6493.616, 1222.268
6495.544, 1217.162
6497.473, 1216.009
6499.401, 1209.488
6501.330, 1209.048
6503.258, 1203.125
6505.187, 1198.960
6507.115, 1198.612
6509.043, 1196.112
6510.972, 1187.388
6512.900, 1183.837
6514.829, 1187.213
6516.757, 1181.033
6518.686, 1179.715
6520.614, 1182.143
6522.542, 1178.514
6524.471, 1166.408
6526.399, 1160.104
6528.328, 1159.199
6530.256, 1155.969
6532.185, 1151.879
6534.113, 1150.698
6536.042, 1150.282
6537.970, 1147.898
6539.899, 1145.349
6541.827, 1139.899
6543.756, 1138.939
6545.684, 1133.747
6547.613, 1126.880
6549.541, 1125.402
6551.470, 1129.724
6553.398, 1132.026
6555.327, 1123.162
6557.255, 1116.821
6559.184, 1119.224
6561.112, 1114.870
6563.041, 1103.738
6564.969, 1101.107
6566.897, 1104.881
6568.826, 1099.219
6570.754, 1102.797
6572.683, 1097.497
6574.611, 1093.226
6576.540, 1085.660
6578.468, 1084.623
6580.396, 1080.799
6582.325, 1077.376
6584.253, 1072.752
6586.182, 1071.803
6588.110, 1070.048
6590.039, 1066.443
6591.967, 1066.435
6593.896, 1057.449
6595.824, 1052.161
6597.753, 1058.837
6599.681, 1059.781
6601.610, 1049.481
6603.538, 1047.435
6605.467, 1049.946
6607.395, 1046.782
6609.324, 1039.041
6611.252, 1031.363
6613.181, 1028.256
6615.109, 1030.826
6617.038, 1028.084
6618.966, 1032.416
6620.895, 1027.121
6622.823, 1026.349
6624.751, 1019.669
6626.680, 1016.053
6628.608, 1017.389
6630.537, 1013.497
##END=



