##NAMES=Manganoquadratite
##RRUFFID=R090021
##IDEAL CHEMISTRY=AgMnAsS_3_
##LOCALITY=Uchucchacua, Lima Department, Peru
##OWNER=RRUFF
##SOURCE=William W. Pinch
##DESCRIPTION=Tetragonal stepped crystals associated with proustite and alabandite.
##STATUS=The identification of this mineral is confirmed by single-crystal X-ray diffraction and chemical analysis
##URL=https://www.rruff.net/odr/rruff_sample/R090021
##MEASURED CHEMISTRY=Ag_0.99_Mn_1.02_(As_0.85_Sb_0.14_)S_3.00_
##DIFFRACTION SAMPLE DESCRIPTION=Single crystal, powder profile is calculated
##CELL PARAMETERS=a: 5.5325 b: 5.5325 c: 33.258 alpha: 90 beta: 90 gamma: 90 volume: 1018 crystal system: tetragonal
##FILETYPE=Raman Processed
##RAMAN WAVELENGTH=532

147.0015, 3944.051
148.9300, 4004.161
150.8585, 4054.448
152.7869, 4098.325
154.7154, 4136.960
156.6439, 4171.619
158.5723, 4204.874
160.5008, 4236.703
162.4293, 4267.459
164.3577, 4298.087
166.2862, 4330.506
168.2147, 4358.487
170.1431, 4379.946
172.0716, 4394.174
174.0001, 4409.862
175.9285, 4428.676
177.8570, 4448.455
179.7855, 4467.213
181.7139, 4482.832
183.6424, 4499.357
185.5709, 4517.383
187.4993, 4536.255
189.4278, 4554.740
191.3563, 4570.031
193.2847, 4585.024
195.2132, 4602.179
197.1417, 4621.267
199.0701, 4641.467
200.9986, 4663.991
202.9271, 4688.747
204.8555, 4710.672
206.7840, 4723.639
208.7125, 4736.643
210.6409, 4760.138
212.5694, 4797.818
214.4979, 4835.398
216.4263, 4867.019
218.3548, 4890.532
220.2833, 4919.119
222.2117, 4954.240
224.1402, 4992.538
226.0687, 5030.507
227.9971, 5067.409
229.9256, 5105.118
231.8541, 5143.547
233.7825, 5183.120
235.7110, 5224.894
237.6395, 5270.787
239.5679, 5318.293
241.4964, 5365.578
243.4249, 5408.650
245.3533, 5457.534
247.2818, 5513.757
249.2103, 5577.256
251.1387, 5646.129
253.0672, 5719.983
254.9957, 5800.115
256.9242, 5888.267
258.8526, 5988.483
260.7811, 6088.276
262.7096, 6179.870
264.6380, 6268.530
266.5665, 6369.557
268.4950, 6491.349
270.4234, 6618.734
272.3519, 6746.244
274.2804, 6873.147
276.2088, 7003.124
278.1373, 7140.608
280.0658, 7281.761
281.9942, 7419.029
283.9227, 7550.957
285.8512, 7682.174
287.7796, 7816.428
289.7081, 7953.536
291.6366, 8081.426
293.5650, 8197.441
295.4935, 8304.393
297.4220, 8403.221
299.3504, 8497.377
301.2789, 8579.854
303.2074, 8650.521
305.1358, 8711.188
307.0643, 8754.624
308.9928, 8784.487
310.9212, 8798.734
312.8497, 8794.620
314.7782, 8773.356
316.7066, 8733.279
318.6351, 8672.713
320.5636, 8591.476
322.4920, 8496.500
324.4205, 8382.449
326.3490, 8260.111
328.2774, 8134.585
330.2059, 8004.784
332.1344, 7875.395
334.0628, 7744.289
335.9913, 7618.381
337.9198, 7506.920
339.8482, 7413.173
341.7767, 7327.788
343.7052, 7244.577
345.6336, 7162.103
347.5621, 7094.765
349.4906, 7056.363
351.4190, 7022.536
353.3475, 6967.746
355.2760, 6888.181
357.2044, 6799.583
359.1329, 6702.598
361.0614, 6597.946
362.9898, 6496.753
364.9183, 6401.584
366.8468, 6307.543
368.7752, 6212.687
370.7037, 6114.688
372.6322, 6032.909
374.5606, 5975.359
376.4891, 5929.459
378.4176, 5879.655
380.3460, 5823.388
382.2745, 5772.273
384.2030, 5727.989
386.1314, 5689.777
388.0599, 5656.127
389.9884, 5624.193
391.9168, 5599.430
393.8453, 5584.866
395.7738, 5581.131
397.7022, 5575.116
399.6307, 5563.250
401.5592, 5548.612
403.4876, 5536.216
405.4161, 5525.317
407.3446, 5518.805
409.2730, 5517.746
411.2015, 5521.058
413.1300, 5522.433
415.0584, 5521.381
416.9869, 5520.443
418.9154, 5519.597
420.8438, 5517.800
422.7723, 5520.109
424.7008, 5531.332
426.6292, 5546.942
428.5577, 5559.465
430.4862, 5566.007
432.4146, 5571.037
434.3431, 5576.342
436.2716, 5583.339
438.2000, 5591.110
440.1285, 5598.148
442.0570, 5602.649
443.9854, 5606.895
445.9139, 5611.485
447.8424, 5621.165
449.7708, 5637.194
451.6993, 5652.542
453.6278, 5662.626
455.5562, 5664.193
457.4847, 5665.858
459.4132, 5669.155
461.3416, 5675.981
463.2701, 5685.366
465.1986, 5696.241
467.1270, 5704.238
469.0555, 5710.640
470.9840, 5715.416
472.9124, 5718.553
474.8409, 5720.123
476.7694, 5722.153
478.6978, 5725.987
480.6263, 5732.452
482.5548, 5740.583
484.4832, 5744.688
486.4117, 5744.428
488.3402, 5748.110
490.2686, 5761.772
492.1971, 5780.457
494.1256, 5797.450
496.0540, 5811.117
497.9825, 5822.376
499.9110, 5832.079
501.8394, 5843.873
503.7679, 5857.356
505.6964, 5871.421
507.6248, 5879.322
509.5533, 5881.520
511.4818, 5884.219
513.4103, 5891.229
515.3387, 5904.818
517.2672, 5916.708
519.1957, 5924.793
521.1241, 5930.842
523.0526, 5940.608
524.9811, 5959.625
526.9095, 5980.134
528.8380, 5994.178
530.7665, 5998.562
532.6949, 6005.286
534.6234, 6018.584
536.5519, 6030.472
538.4803, 6039.366
540.4088, 6047.708
542.3373, 6057.495
544.2657, 6061.945
546.1942, 6066.643
548.1227, 6080.852
550.0511, 6109.926
551.9796, 6137.237
553.9081, 6152.501
555.8365, 6158.985
557.7650, 6165.588
559.6935, 6179.711
561.6219, 6195.091
563.5504, 6208.518
565.4789, 6218.130
567.4073, 6223.956
569.3358, 6224.550
571.2643, 6225.657
573.1927, 6230.877
575.1212, 6243.064
577.0497, 6251.772
578.9781, 6259.458
580.9066, 6269.983
582.8351, 6282.930
584.7635, 6293.315
586.6920, 6304.644
588.6205, 6322.640
590.5490, 6343.174
592.4774, 6359.420
594.4059, 6369.869
596.3344, 6384.781
598.2628, 6403.801
600.1913, 6421.338
602.1198, 6432.108
604.0482, 6436.665
605.9767, 6441.934
607.9052, 6450.523
609.8336, 6462.122
611.7621, 6474.087
613.6906, 6479.410
615.6190, 6482.611
617.5475, 6490.112
619.4760, 6506.930
621.4044, 6524.546
623.3329, 6534.909
625.2614, 6545.227
627.1898, 6560.688
629.1183, 6578.797
631.0468, 6593.203
632.9752, 6607.272
634.9037, 6622.549
636.8322, 6638.350
638.7606, 6649.294
640.6891, 6658.062
642.6176, 6665.755
644.5460, 6672.763
646.4745, 6679.167
648.4030, 6687.800
650.3314, 6692.846
652.2599, 6691.008
654.1884, 6687.314
656.1168, 6689.940
658.0453, 6697.486
659.9738, 6703.243
661.9022, 6706.062
663.8307, 6707.925
665.7592, 6709.447
667.6876, 6710.136
669.6161, 6710.950
671.5446, 6713.667
673.4730, 6719.747
675.4015, 6727.365
677.3300, 6731.706
679.2584, 6734.128
681.1869, 6734.874
683.1154, 6738.098
685.0438, 6742.653
686.9723, 6743.581
688.9008, 6744.354
690.8292, 6746.614
692.7577, 6755.120
694.6862, 6766.038
696.6146, 6775.767
698.5431, 6780.703
700.4716, 6778.980
702.4000, 6778.884
704.3285, 6782.562
706.2570, 6786.937
708.1854, 6792.491
710.1139, 6800.446
712.0424, 6813.962
713.9708, 6829.684
715.8993, 6844.448
717.8278, 6854.652
719.7562, 6859.001
721.6847, 6864.445
723.6132, 6870.190
725.5416, 6877.740
727.4701, 6884.487
729.3986, 6889.762
731.3270, 6889.726
733.2555, 6888.655
735.1840, 6887.806
737.1124, 6889.554
739.0409, 6893.396
740.9694, 6898.899
742.8978, 6904.002
744.8263, 6907.867
746.7548, 6913.005
748.6832, 6921.656
750.6117, 6931.190
752.5402, 6940.171
754.4686, 6947.791
756.3971, 6955.794
758.3256, 6963.934
760.2540, 6974.850
762.1825, 6983.802
764.1110, 6987.477
766.0394, 6990.112
767.9679, 6998.176
769.8964, 7012.813
771.8248, 7024.909
773.7533, 7028.637
775.6818, 7031.544
777.6102, 7039.876
779.5387, 7057.909
781.4672, 7072.999
783.3956, 7083.490
785.3241, 7091.676
787.2526, 7100.155
789.1810, 7109.435
791.1095, 7118.278
793.0380, 7124.367
794.9664, 7129.668
796.8949, 7137.498
798.8234, 7150.716
800.7518, 7159.392
802.6803, 7162.399
804.6088, 7164.624
806.5372, 7167.877
808.4657, 7169.610
810.3942, 7172.591
812.3226, 7177.044
814.2511, 7186.452
816.1796, 7200.876
818.1080, 7221.006
820.0365, 7237.880
821.9650, 7249.665
823.8934, 7258.545
825.8219, 7265.427
827.7504, 7271.672
829.6788, 7278.962
831.6073, 7288.497
833.5358, 7296.694
835.4642, 7304.073
837.3927, 7312.237
839.3212, 7320.308
841.2496, 7327.855
843.1781, 7335.706
845.1066, 7345.048
847.0350, 7355.849
848.9635, 7366.143
850.8920, 7373.796
852.8204, 7381.660
854.7489, 7390.869
856.6774, 7402.136
858.6058, 7413.056
860.5343, 7425.272
862.4628, 7434.044
864.3912, 7435.765
866.3197, 7433.287
868.2482, 7432.932
870.1766, 7436.922
872.1051, 7442.663
874.0336, 7450.968
875.9620, 7461.221
877.8905, 7470.670
879.8190, 7475.955
881.7474, 7484.630
883.6759, 7498.884
885.6044, 7516.461
887.5328, 7533.498
889.4613, 7549.332
891.3898, 7563.103
893.3182, 7575.380
895.2467, 7585.224
897.1752, 7591.220
899.1036, 7589.931
901.0321, 7590.999
902.9606, 7596.801
904.8890, 7605.832
906.8175, 7615.698
908.7460, 7626.620
910.6744, 7637.549
912.6029, 7646.996
914.5314, 7656.603
916.4598, 7667.276
918.3883, 7677.116
920.3168, 7691.271
922.2452, 7715.695
924.1737, 7740.251
926.1022, 7753.948
928.0306, 7755.437
929.9591, 7757.923
931.8876, 7765.462
933.8160, 7775.333
935.7445, 7785.302
937.6730, 7793.313
939.6014, 7800.088
941.5299, 7802.359
943.4584, 7810.215
945.3868, 7826.993
947.3153, 7850.853
949.2438, 7871.055
951.1722, 7884.454
953.1007, 7895.480
955.0292, 7904.780
956.9576, 7914.811
958.8861, 7926.001
960.8146, 7941.216
962.7430, 7951.358
964.6715, 7952.384
966.6000, 7951.306
968.5284, 7957.376
970.4569, 7971.137
972.3854, 7983.302
974.3138, 7991.704
976.2423, 7998.349
978.1708, 8004.521
980.0992, 8010.495
982.0277, 8015.866
983.9562, 8021.674
985.8846, 8026.670
987.8131, 8028.020
989.7416, 8023.160
991.6700, 8025.466
993.5985, 8040.358
995.5270, 8058.407
997.4554, 8072.071
999.3839, 8079.678
1001.312, 8085.786
1003.241, 8090.025
1005.169, 8099.207
1007.098, 8117.135
1009.026, 8134.953
1010.955, 8148.913
1012.883, 8161.474
1014.812, 8176.566
1016.740, 8193.580
1018.669, 8208.366
1020.597, 8221.788
1022.526, 8230.200
1024.454, 8235.365
1026.382, 8236.246
1028.311, 8240.213
1030.239, 8248.395
1032.168, 8256.623
1034.096, 8260.503
1036.025, 8257.921
1037.953, 8258.545
1039.882, 8265.977
1041.810, 8281.756
1043.739, 8295.388
1045.667, 8302.351
1047.596, 8307.617
1049.524, 8314.903
1051.453, 8324.955
1053.381, 8339.703
1055.309, 8361.598
1057.238, 8382.530
1059.166, 8400.550
1061.095, 8415.336
1063.023, 8421.147
1064.952, 8413.999
1066.880, 8411.369
1068.809, 8419.606
1070.737, 8432.354
1072.666, 8440.451
1074.594, 8447.194
1076.523, 8456.198
1078.451, 8466.836
1080.380, 8475.032
1082.308, 8479.099
1084.236, 8482.128
1086.165, 8485.829
1088.093, 8490.798
1090.022, 8500.739
1091.950, 8517.964
1093.879, 8536.439
1095.807, 8548.582
1097.736, 8558.264
1099.664, 8567.702
1101.593, 8574.170
1103.521, 8576.861
1105.450, 8581.440
1107.378, 8594.092
1109.307, 8606.141
1111.235, 8617.136
1113.163, 8627.342
1115.092, 8636.043
1117.020, 8639.729
1118.949, 8647.305
1120.877, 8664.187
1122.806, 8684.831
1124.734, 8706.893
1126.663, 8732.078
1128.591, 8759.314
1130.520, 8781.008
1132.448, 8797.609
1134.377, 8811.841
1136.305, 8826.402
1138.234, 8839.373
1140.162, 8849.188
1142.090, 8860.852
1144.019, 8869.652
1145.947, 8874.241
1147.876, 8879.329
1149.804, 8891.830
1151.733, 8905.236
1153.661, 8910.658
1155.590, 8916.880
1157.518, 8928.763
1159.447, 8937.491
1161.375, 8948.697
1163.304, 8962.703
1165.232, 8974.721
1167.161, 8992.502
1169.089, 9011.010
1171.017, 9025.295
1172.946, 9035.097
1174.874, 9046.817
1176.803, 9059.315
1178.731, 9069.869
1180.660, 9080.669
1182.588, 9094.798
1184.517, 9113.194
1186.445, 9135.454
1188.374, 9151.253
1190.302, 9152.547
1192.231, 9151.460
1194.159, 9161.001
1196.088, 9185.847
1198.016, 9202.763
1199.944, 9216.132
1201.873, 9231.449
1203.801, 9245.404
1205.730, 9256.893
1207.658, 9272.705
1209.587, 9295.900
1211.515, 9315.597
1213.444, 9327.494
1215.372, 9334.095
1217.301, 9338.915
1219.229, 9344.277
1221.158, 9357.575
1223.086, 9382.014
1225.015, 9402.665
1226.943, 9415.818
1228.871, 9425.187
1230.800, 9437.869
1232.728, 9448.715
1234.657, 9465.166
1236.585, 9492.597
1238.514, 9523.130
1240.442, 9550.743
1242.371, 9575.407
1244.299, 9596.592
1246.228, 9609.433
1248.156, 9617.884
1250.085, 9624.646
1252.013, 9630.097
1253.942, 9634.921
1255.870, 9640.423
1257.798, 9645.874
1259.727, 9652.909
1261.655, 9661.307
1263.584, 9669.364
1265.512, 9677.711
1267.441, 9693.429
1269.369, 9723.122
1271.298, 9748.152
1273.226, 9759.712
1275.155, 9764.750
1277.083, 9777.817
1279.012, 9803.736
1280.940, 9824.617
1282.869, 9830.570
1284.797, 9840.639
1286.725, 9863.013
1288.654, 9888.137
1290.582, 9904.621
1292.511, 9915.040
1294.439, 9926.999
1296.368, 9935.786
1298.296, 9941.100
1300.225, 9947.593
1302.153, 9955.237
1304.082, 9961.883
1306.010, 9967.807
1307.939, 9977.014
1309.867, 9985.473
1311.796, 9991.180
1313.724, 9998.100
1315.652, 10007.59
1317.581, 10023.10
1319.509, 10046.30
1321.438, 10069.37
1323.366, 10088.08
1325.295, 10101.72
1327.223, 10117.43
1329.152, 10138.00
1331.080, 10157.42
1333.009, 10166.19
1334.937, 10175.39
1336.866, 10194.67
1338.794, 10219.63
1340.723, 10238.90
1342.651, 10252.39
1344.579, 10257.40
1346.508, 10247.67
1348.436, 10237.99
1350.365, 10236.72
1352.293, 10242.93
1354.222, 10251.54
1356.150, 10267.20
1358.079, 10284.28
1360.007, 10298.52
1361.936, 10314.21
1363.864, 10334.11
1365.793, 10357.57
1367.721, 10376.81
1369.650, 10386.96
1371.578, 10399.64
1373.506, 10414.89
1375.435, 10430.06
1377.363, 10448.35
1379.292, 10472.11
1381.220, 10490.18
1383.149, 10499.38
1385.077, 10504.09
1387.006, 10508.28
1388.934, 10515.43
1390.863, 10522.96
1392.791, 10529.30
1394.720, 10539.69
1396.648, 10558.82
1398.577, 10578.44
1400.505, 10591.93
1402.433, 10602.24
1404.362, 10615.75
1406.290, 10634.49
1408.219, 10646.30
1410.147, 10643.67
1412.076, 10641.70
1414.004, 10648.62
1415.933, 10663.61
1417.861, 10680.56
1419.790, 10703.10
1421.718, 10721.50
1423.647, 10731.03
1425.575, 10740.22
1427.504, 10754.58
1429.432, 10774.43
1431.360, 10791.19
1433.289, 10801.74
1435.217, 10813.52
1437.146, 10833.39
1439.074, 10851.32
1441.003, 10857.45
1442.931, 10856.04
1444.860, 10861.78
1446.788, 10877.02
1448.717, 10893.48
1450.645, 10912.56
1452.574, 10928.59
1454.502, 10931.76
1456.431, 10928.52
1458.359, 10939.08
1460.287, 10968.53
1462.216, 10989.77
1464.144, 10988.80
1466.073, 10988.13
1468.001, 11001.69
1469.930, 11025.46
1471.858, 11047.27
1473.787, 11067.69
1475.715, 11086.87
1477.644, 11101.60
1479.572, 11117.24
1481.501, 11135.65
1483.429, 11154.99
1485.358, 11172.09
1487.286, 11183.83
1489.214, 11196.56
1491.143, 11210.58
1493.071, 11224.90
1495.000, 11245.23
1496.928, 11265.39
1498.857, 11272.92
1500.785, 11264.55
1502.714, 11264.83
1504.642, 11281.11
1506.571, 11298.01
1508.499, 11305.88
1510.428, 11313.92
1512.356, 11335.17
1514.285, 11367.84
1516.213, 11393.66
1518.141, 11409.54
1520.070, 11421.29
1521.998, 11427.77
1523.927, 11433.78
1525.855, 11447.35
1527.784, 11455.54
1529.712, 11463.77
1531.641, 11479.34
1533.569, 11484.50
1535.498, 11499.28
1537.426, 11519.93
1539.355, 11547.00
1541.283, 11576.63
1543.212, 11597.80
1545.140, 11608.03
1547.068, 11619.89
1548.997, 11635.60
1550.925, 11654.26
1552.854, 11678.06
1554.782, 11702.72
1556.711, 11718.22
1558.639, 11722.19
1560.568, 11731.55
1562.496, 11754.13
1564.425, 11773.33
1566.353, 11783.93
1568.282, 11790.77
1570.210, 11797.82
1572.139, 11805.69
1574.067, 11819.99
1575.995, 11841.48
1577.924, 11867.53
1579.852, 11901.23
1581.781, 11932.62
1583.709, 11954.11
1585.638, 11966.49
1587.566, 11975.77
1589.495, 11979.51
1591.423, 11989.05
1593.352, 12012.24
1595.280, 12034.48
1597.209, 12047.78
1599.137, 12058.70
1601.066, 12077.76
1602.994, 12106.16
1604.922, 12122.52
1606.851, 12117.01
1608.779, 12110.73
1610.708, 12109.80
1612.636, 12107.58
1614.565, 12100.60
1616.493, 12090.28
1618.422, 12077.41
1620.350, 12057.62
1622.279, 12050.72
1624.207, 12068.11
1626.136, 12085.88
1628.064, 12087.87
1629.993, 12083.55
1631.921, 12089.10
1633.849, 12104.63
1635.778, 12114.99
1637.706, 12118.76
1639.635, 12120.13
1641.563, 12122.88
1643.492, 12123.85
1645.420, 12118.33
1647.349, 12110.30
1649.277, 12110.28
1651.206, 12119.25
1653.134, 12128.65
1655.063, 12132.58
1656.991, 12141.30
1658.920, 12164.31
1660.848, 12189.97
1662.776, 12204.82
1664.705, 12210.76
1666.633, 12219.57
1668.562, 12231.50
1670.490, 12246.36
1672.419, 12263.29
1674.347, 12281.33
1676.276, 12297.60
1678.204, 12312.67
1680.133, 12331.25
1682.061, 12353.07
1683.990, 12361.94
1685.918, 12351.47
1687.847, 12344.15
1689.775, 12351.94
1691.703, 12362.12
1693.632, 12364.25
1695.560, 12363.49
1697.489, 12373.00
1699.417, 12393.91
1701.346, 12406.18
1703.274, 12396.22
1705.203, 12396.84
1707.131, 12431.88
1709.060, 12469.95
1710.988, 12479.87
1712.917, 12471.31
1714.845, 12477.52
1716.774, 12500.44
1718.702, 12520.89
1720.630, 12532.61
1722.559, 12544.95
1724.487, 12567.92
1726.416, 12587.04
1728.344, 12584.33
1730.273, 12566.35
1732.201, 12561.74
1734.130, 12575.71
1736.058, 12583.76
1737.987, 12575.91
1739.915, 12572.00
1741.844, 12579.91
1743.772, 12593.73
1745.701, 12610.51
1747.629, 12628.82
1749.557, 12639.83
1751.486, 12639.95
1753.414, 12646.77
1755.343, 12664.47
1757.271, 12684.80
1759.200, 12708.68
1761.128, 12729.46
1763.057, 12738.12
1764.985, 12737.27
1766.914, 12740.96
1768.842, 12751.69
1770.771, 12762.49
1772.699, 12774.54
1774.628, 12787.53
1776.556, 12799.93
1778.484, 12814.23
1780.413, 12833.58
1782.341, 12854.61
1784.270, 12868.34
1786.198, 12871.02
1788.127, 12873.34
1790.055, 12878.64
1791.984, 12881.08
1793.912, 12880.69
1795.841, 12880.84
1797.769, 12883.64
1799.698, 12890.60
1801.626, 12902.31
1803.555, 12916.87
1805.483, 12940.05
1807.411, 12978.49
1809.340, 13009.32
1811.268, 13024.45
1813.197, 13033.59
1815.125, 13042.76
1817.054, 13049.36
1818.982, 13048.34
1820.911, 13040.75
1822.839, 13040.18
1824.768, 13050.72
1826.696, 13061.99
1828.625, 13071.73
1830.553, 13083.26
1832.482, 13099.78
1834.410, 13115.16
1836.339, 13121.25
1838.267, 13131.12
1840.195, 13137.02
1842.124, 13137.77
1844.052, 13144.73
1845.981, 13139.45
1847.909, 13141.12
1849.838, 13162.46
1851.766, 13185.60
1853.695, 13197.37
1855.623, 13203.71
1857.552, 13215.28
1859.480, 13230.85
1861.409, 13242.79
1863.337, 13250.01
1865.266, 13255.43
1867.194, 13258.21
1869.122, 13262.56
1871.051, 13275.58
1872.979, 13287.39
1874.908, 13282.45
1876.836, 13269.63
1878.765, 13276.71
1880.693, 13305.63
1882.622, 13326.32
1884.550, 13335.10
1886.479, 13337.52
1888.407, 13329.31
1890.336, 13322.04
1892.264, 13321.34
1894.193, 13326.33
1896.121, 13337.23
1898.049, 13353.52
1899.978, 13369.15
1901.906, 13384.12
1903.835, 13397.92
1905.763, 13406.12
1907.692, 13417.70
1909.620, 13435.04
1911.549, 13454.65
1913.477, 13483.22
1915.406, 13507.99
1917.334, 13500.55
1919.263, 13462.61
1921.191, 13453.84
1923.120, 13483.71
1925.048, 13510.33
1926.976, 13529.19
1928.905, 13544.20
1930.833, 13552.60
1932.762, 13560.82
1934.690, 13578.54
1936.619, 13595.00
1938.547, 13586.87
1940.476, 13559.89
1942.404, 13553.63
1944.333, 13575.24
1946.261, 13583.22
1948.190, 13562.40
1950.118, 13548.72
1952.047, 13559.15
1953.975, 13577.50
1955.904, 13594.65
1957.832, 13611.47
1959.760, 13629.00
1961.689, 13646.18
1963.617, 13662.22
1965.546, 13676.80
1967.474, 13689.35
1969.403, 13697.16
1971.331, 13707.54
1973.260, 13727.30
1975.188, 13744.30
1977.117, 13748.40
1979.045, 13749.02
1980.974, 13761.24
1982.902, 13779.94
1984.831, 13779.90
1986.759, 13756.71
1988.688, 13747.47
1990.616, 13758.29
1992.544, 13773.93
1994.473, 13797.69
1996.401, 13817.52
1998.330, 13824.14
2000.258, 13828.55
2002.187, 13834.13
2004.115, 13844.20
2006.044, 13870.99
2007.972, 13909.93
2009.901, 13929.52
2011.829, 13923.95
2013.758, 13923.17
2015.686, 13937.20
2017.615, 13949.64
2019.543, 13952.43
2021.471, 13960.04
2023.400, 13986.63
2025.328, 14018.63
2027.257, 14035.97
2029.185, 14043.40
2031.114, 14063.10
2033.042, 14097.71
2034.971, 14113.55
2036.899, 14100.94
2038.828, 14089.17
2040.756, 14082.38
2042.685, 14077.02
2044.613, 14078.01
2046.542, 14077.79
2048.470, 14069.98
2050.398, 14062.54
2052.327, 14065.56
2054.255, 14076.86
2056.184, 14086.49
2058.112, 14093.23
2060.041, 14115.99
2061.969, 14164.33
2063.898, 14196.00
2065.826, 14193.39
2067.755, 14185.36
2069.683, 14175.29
2071.612, 14170.37
2073.540, 14178.67
2075.469, 14193.32
2077.397, 14206.42
2079.325, 14217.40
2081.254, 14222.14
2083.182, 14233.81
2085.111, 14244.84
2087.039, 14249.86
2088.968, 14267.71
2090.896, 14273.37
2092.825, 14280.43
2094.753, 14297.59
2096.682, 14310.96
2098.610, 14307.84
2100.539, 14299.83
2102.467, 14297.90
2104.396, 14300.47
2106.324, 14305.95
2108.252, 14314.40
2110.181, 14316.67
2112.109, 14309.20
2114.038, 14310.30
2115.966, 14336.40
2117.895, 14347.84
2119.823, 14323.82
2121.752, 14307.27
2123.680, 14313.61
2125.609, 14332.10
2127.537, 14362.22
2129.466, 14392.80
2131.394, 14404.00
2133.323, 14402.10
2135.251, 14411.55
2137.179, 14431.42
2139.108, 14442.94
2141.036, 14444.44
2142.965, 14443.30
2144.893, 14442.26
2146.822, 14438.25
2148.750, 14425.45
2150.679, 14418.26
2152.607, 14426.97
2154.536, 14440.32
2156.464, 14449.24
2158.393, 14457.25
2160.321, 14469.00
2162.250, 14484.09
2164.178, 14501.81
2166.106, 14521.63
2168.035, 14541.13
2169.963, 14560.00
2171.892, 14576.70
2173.820, 14589.69
2175.749, 14603.50
2177.677, 14621.34
2179.606, 14637.17
2181.534, 14647.09
2183.463, 14655.56
2185.391, 14666.24
2187.320, 14676.12
2189.248, 14681.31
2191.177, 14682.73
2193.105, 14682.84
2195.033, 14681.44
2196.962, 14679.60
2198.890, 14677.91
2200.819, 14673.68
2202.747, 14666.89
2204.676, 14665.77
2206.604, 14677.13
2208.533, 14687.22
2210.461, 14688.04
2212.390, 14691.68
2214.318, 14699.33
2216.247, 14713.75
2218.175, 14741.30
2220.104, 14770.38
2222.032, 14782.54
2223.960, 14802.08
2225.889, 14813.54
2227.817, 14819.95
2229.746, 14828.32
2231.674, 14821.29
2233.603, 14822.73
2235.531, 14839.10
2237.460, 14847.10
2239.388, 14833.90
2241.317, 14829.18
2243.245, 14844.02
2245.174, 14863.71
2247.102, 14886.72
2249.031, 14906.47
2250.959, 14917.37
2252.887, 14924.44
2254.816, 14933.64
2256.744, 14943.46
2258.673, 14947.27
2260.601, 14947.67
2262.530, 14960.79
2264.458, 14984.82
2266.387, 14998.33
2268.315, 14999.03
2270.244, 14997.99
2272.172, 14997.43
2274.101, 14997.59
2276.029, 14997.52
2277.958, 15002.38
2279.886, 15014.23
2281.814, 15029.58
2283.743, 15049.38
2285.671, 15066.86
2287.600, 15075.72
2289.528, 15079.98
2291.457, 15080.10
2293.385, 15081.10
2295.314, 15095.93
2297.242, 15118.97
2299.171, 15129.14
2301.099, 15126.67
2303.028, 15124.48
2304.956, 15123.15
2306.885, 15121.06
2308.813, 15131.35
2310.741, 15121.51
2312.670, 15155.40
2314.598, 15182.92
2316.527, 15197.32
2318.455, 15202.76
2320.384, 15189.61
2322.312, 15182.74
2324.241, 15202.29
2326.169, 15225.26
2328.098, 15229.93
2330.026, 15231.36
2331.955, 15253.41
2333.883, 15250.02
2335.812, 15280.63
2337.740, 15261.40
2339.668, 15263.27
2341.597, 15282.35
2343.525, 15287.51
2345.454, 15278.65
2347.382, 15268.21
2349.311, 15255.66
2351.239, 15253.02
2353.168, 15264.60
2355.096, 15279.27
2357.025, 15295.87
2358.953, 15314.28
2360.882, 15343.15
2362.810, 15359.81
2364.739, 15344.76
2366.667, 15333.59
2368.595, 15348.73
2370.524, 15370.37
2372.452, 15389.53
2374.381, 15400.80
2376.309, 15394.75
2378.238, 15380.11
2380.166, 15367.55
2382.095, 15360.79
2384.023, 15372.34
2385.952, 15399.35
2387.880, 15415.94
2389.809, 15423.72
2391.737, 15443.45
2393.666, 15475.59
2395.594, 15496.89
2397.522, 15500.14
2399.451, 15508.35
2401.379, 15532.22
2403.308, 15544.47
2405.236, 15537.40
2407.165, 15530.85
2409.093, 15528.80
2411.022, 15528.61
2412.950, 15529.97
2414.879, 15534.53
2416.807, 15544.79
2418.736, 15557.37
2420.664, 15571.44
2422.593, 15585.45
2424.521, 15596.21
2426.449, 15606.67
2428.378, 15618.67
2430.306, 15632.84
2432.235, 15655.03
2434.163, 15661.00
2436.092, 15683.91
2438.020, 15678.25
2439.949, 15679.52
2441.877, 15687.46
2443.806, 15691.51
2445.734, 15692.14
2447.663, 15671.30
2449.591, 15717.91
2451.520, 15747.82
2453.448, 15761.92
2455.376, 15712.88
2457.305, 15745.37
2459.233, 15745.19
2461.162, 15743.67
2463.090, 15787.64
2465.019, 15747.79
2466.947, 15791.04
2468.876, 15801.11
2470.804, 15826.37
2472.733, 15818.75
2474.661, 15821.29
2476.590, 15856.71
2478.518, 15873.92
2480.447, 15862.52
2482.375, 15888.74
2484.303, 15847.73
2486.232, 15865.72
2488.160, 15909.16
2490.089, 15899.42
2492.017, 15926.24
2493.946, 15939.13
2495.874, 15888.72
2497.803, 15948.41
2499.731, 15960.47
2501.660, 15923.66
2503.588, 15979.57
2505.517, 15949.50
2507.445, 15950.11
2509.374, 15973.83
2511.302, 15973.46
2513.230, 16011.05
2515.159, 16012.08
2517.087, 16009.84
2519.016, 16021.86
2520.944, 15993.47
2522.873, 16040.04
2524.801, 16035.41
2526.730, 16056.23
2528.658, 16082.82
2530.587, 16065.24
2532.515, 16094.42
2534.444, 16051.08
2536.372, 16068.42
2538.301, 16079.22
2540.229, 16128.82
2542.157, 16085.83
2544.086, 16101.48
2546.014, 16142.11
2547.943, 16146.59
2549.871, 16162.01
2551.800, 16174.82
2553.728, 16183.72
2555.657, 16180.12
2557.585, 16182.17
2559.514, 16199.96
2561.442, 16219.60
2563.371, 16239.67
2565.299, 16252.39
2567.228, 16248.62
2569.156, 16243.70
2571.084, 16245.66
2573.013, 16252.40
2574.941, 16266.76
2576.870, 16279.89
2578.798, 16281.48
2580.727, 16293.10
2582.655, 16291.66
2584.584, 16303.81
2586.512, 16303.36
2588.441, 16302.08
2590.369, 16314.20
2592.298, 16333.28
2594.226, 16353.82
2596.155, 16332.53
2598.083, 16378.55
2600.011, 16407.88
2601.940, 16421.40
2603.868, 16371.79
2605.797, 16403.71
2607.725, 16402.94
2609.654, 16400.85
2611.582, 16444.24
2613.511, 16403.80
2615.439, 16446.47
2617.368, 16455.97
2619.296, 16480.65
2621.225, 16472.45
2623.153, 16474.41
2625.082, 16509.25
2627.010, 16525.88
2628.938, 16513.90
2630.867, 16539.54
2632.795, 16497.96
2634.724, 16515.37
2636.652, 16558.23
2638.581, 16547.90
2640.509, 16574.15
2642.438, 16586.46
2644.366, 16565.07
2646.295, 16561.95
2648.223, 16561.88
2650.152, 16563.09
2652.080, 16579.84
2654.009, 16578.87
2655.937, 16619.73
2657.865, 16599.50
2659.794, 16601.61
2661.722, 16634.68
2663.651, 16659.63
2665.579, 16675.01
2667.508, 16675.20
2669.436, 16655.63
2671.365, 16658.50
2673.293, 16686.83
2675.222, 16705.69
2677.150, 16711.40
2679.079, 16718.13
2681.007, 16729.68
2682.936, 16737.44
2684.864, 16740.67
2686.792, 16752.05
2688.721, 16772.91
2690.649, 16783.15
2692.578, 16775.90
2694.506, 16782.03
2696.435, 16807.80
2698.363, 16830.67
2700.292, 16851.80
2702.220, 16861.87
2704.149, 16859.07
2706.077, 16863.22
2708.006, 16875.80
2709.934, 16899.92
2711.863, 16904.27
2713.791, 16909.75
2715.719, 16927.37
2717.648, 16916.67
2719.576, 16931.40
2721.505, 16952.42
2723.433, 16981.46
2725.362, 16995.59
2727.290, 16990.45
2729.219, 16994.32
2731.147, 17009.33
2733.076, 17013.83
2735.004, 17019.65
2736.933, 17028.14
2738.861, 17027.05
2740.790, 17037.16
2742.718, 17037.93
2744.646, 17035.63
2746.575, 17030.67
2748.503, 17040.95
2750.432, 17066.95
2752.360, 17085.70
2754.289, 17095.17
2756.217, 17098.59
2758.146, 17094.20
2760.074, 17091.01
2762.003, 17088.49
2763.931, 17085.80
2765.860, 17084.42
2767.788, 17092.65
2769.717, 17090.05
2771.645, 17109.09
2773.573, 17092.21
2775.502, 17082.42
2777.430, 17081.89
2779.359, 17115.65
2781.287, 17109.86
2783.216, 17118.09
2785.144, 17129.55
2787.073, 17119.82
2789.001, 17130.30
2790.930, 17127.93
2792.858, 17121.65
2794.787, 17131.09
2796.715, 17151.20
2798.644, 17175.72
2800.572, 17198.24
2802.500, 17207.49
2804.429, 17205.95
2806.357, 17190.58
2808.286, 17177.62
2810.214, 17199.59
2812.143, 17199.64
2814.071, 17236.03
2816.000, 17234.95
2817.928, 17260.78
2819.857, 17288.80
2821.785, 17293.37
2823.714, 17288.96
2825.642, 17286.47
2827.571, 17282.96
2829.499, 17274.53
2831.427, 17268.76
2833.356, 17272.98
2835.284, 17281.25
2837.213, 17297.29
2839.141, 17307.76
2841.070, 17295.52
2842.998, 17291.73
2844.927, 17309.62
2846.855, 17330.79
2848.784, 17352.23
2850.712, 17364.99
2852.641, 17360.61
2854.569, 17356.37
2856.498, 17355.35
2858.426, 17355.79
2860.354, 17359.72
2862.283, 17358.99
2864.211, 17348.99
2866.140, 17341.68
2868.068, 17338.38
2869.997, 17337.94
2871.925, 17340.97
2873.854, 17347.28
2875.782, 17357.98
2877.711, 17358.52
2879.639, 17361.58
2881.568, 17361.65
2883.496, 17357.25
2885.425, 17357.57
2887.353, 17346.97
2889.281, 17345.97
2891.210, 17341.50
2893.138, 17347.28
2895.067, 17335.17
2896.995, 17327.09
2898.924, 17326.15
2900.852, 17346.01
2902.781, 17368.84
2904.709, 17355.28
2906.638, 17371.74
2908.566, 17350.93
2910.495, 17375.52
2912.423, 17376.01
2914.352, 17372.11
2916.280, 17377.53
2918.208, 17388.59
2920.137, 17406.30
2922.065, 17418.71
2923.994, 17414.80
2925.922, 17408.51
2927.851, 17405.05
2929.779, 17402.41
2931.708, 17403.81
2933.636, 17404.63
2935.565, 17407.37
2937.493, 17403.92
2939.422, 17379.55
2941.350, 17380.36
2943.279, 17414.37
2945.207, 17422.04
2947.135, 17397.42
2949.064, 17376.57
2950.992, 17362.54
2952.921, 17364.95
2954.849, 17383.61
2956.778, 17386.79
2958.706, 17380.21
2960.635, 17375.59
2962.563, 17375.46
2964.492, 17385.08
2966.420, 17400.26
2968.349, 17420.68
2970.277, 17432.98
2972.206, 17412.91
2974.134, 17390.95
2976.063, 17400.95
2977.991, 17417.49
2979.919, 17429.91
2981.848, 17438.63
2983.776, 17443.36
2985.705, 17446.74
2987.633, 17445.06
2989.562, 17445.28
2991.490, 17445.55
2993.419, 17447.57
2995.347, 17452.32
2997.276, 17452.81
2999.204, 17447.15
3001.133, 17453.47
3003.061, 17474.29
3004.990, 17479.56
3006.918, 17469.28
3008.846, 17439.99
3010.775, 17403.61
3012.703, 17428.04
3014.632, 17482.30
3016.560, 17488.08
3018.489, 17476.44
3020.417, 17493.08
3022.346, 17515.50
3024.274, 17517.96
3026.203, 17518.38
3028.131, 17526.00
3030.060, 17538.43
3031.988, 17560.38
3033.917, 17573.78
3035.845, 17569.40
3037.773, 17560.30
3039.702, 17546.83
3041.630, 17539.23
3043.559, 17533.25
3045.487, 17526.76
3047.416, 17527.51
3049.344, 17522.04
3051.273, 17525.19
3053.201, 17529.50
3055.130, 17532.57
3057.058, 17524.80
3058.987, 17511.25
3060.915, 17501.37
3062.844, 17497.54
3064.772, 17506.24
3066.700, 17519.12
3068.629, 17528.69
3070.557, 17538.67
3072.486, 17553.32
3074.414, 17561.04
3076.343, 17557.23
3078.271, 17540.48
3080.200, 17502.81
3082.128, 17485.92
3084.057, 17499.32
3085.985, 17512.90
3087.914, 17524.69
3089.842, 17535.30
3091.771, 17543.99
3093.699, 17546.09
3095.627, 17542.27
3097.556, 17533.78
3099.484, 17524.28
3101.413, 17518.54
3103.341, 17518.58
3105.270, 17539.77
3107.198, 17546.87
3109.127, 17499.44
3111.055, 17460.93
3112.984, 17463.08
3114.912, 17460.76
3116.841, 17437.24
3118.769, 17429.21
3120.698, 17447.76
3122.626, 17457.07
3124.554, 17456.17
3126.483, 17465.48
3128.411, 17480.34
3130.340, 17466.54
3132.268, 17439.78
3134.197, 17442.28
3136.125, 17457.57
3138.054, 17467.43
3139.982, 17474.31
3141.911, 17486.48
3143.839, 17484.83
3145.768, 17482.68
3147.696, 17483.34
3149.625, 17461.49
3151.553, 17470.82
3153.481, 17447.54
3155.410, 17429.25
3157.338, 17418.74
3159.267, 17431.04
3161.195, 17461.43
3163.124, 17493.15
3165.052, 17519.06
3166.981, 17520.98
3168.909, 17513.60
3170.838, 17512.97
3172.766, 17516.09
3174.695, 17523.10
3176.623, 17530.23
3178.552, 17538.60
3180.480, 17540.25
3182.408, 17529.61
3184.337, 17522.36
3186.265, 17519.40
3188.194, 17511.40
3190.122, 17498.09
3192.051, 17478.52
3193.979, 17459.81
3195.908, 17471.36
3197.836, 17493.28
3199.765, 17490.84
3201.693, 17493.41
3203.622, 17531.89
3205.550, 17569.29
3207.479, 17591.36
3209.407, 17593.70
3211.335, 17567.09
3213.264, 17534.89
3215.192, 17499.43
3217.121, 17496.43
3219.049, 17526.55
3220.978, 17528.88
3222.906, 17515.24
3224.835, 17508.11
3226.763, 17509.14
3228.692, 17518.05
3230.620, 17534.99
3232.549, 17568.51
3234.477, 17589.68
3236.406, 17582.64
3238.334, 17572.93
3240.262, 17565.81
3242.191, 17561.69
3244.119, 17561.39
3246.048, 17575.76
3247.976, 17573.23
3249.905, 17595.94
3251.833, 17583.64
3253.762, 17591.85
3255.690, 17603.00
3257.619, 17608.59
3259.547, 17601.13
3261.476, 17600.37
3263.404, 17592.69
3265.333, 17575.10
3267.261, 17574.93
3269.189, 17544.16
3271.118, 17536.47
3273.046, 17547.02
3274.975, 17552.93
3276.903, 17550.67
3278.832, 17523.01
3280.760, 17498.71
3282.689, 17504.20
3284.617, 17521.44
3286.546, 17547.83
3288.474, 17566.61
3290.403, 17571.82
3292.331, 17575.55
3294.260, 17579.05
3296.188, 17576.24
3298.116, 17567.87
3300.045, 17551.63
3301.973, 17536.01
3303.902, 17534.95
3305.830, 17540.24
3307.759, 17553.49
3309.687, 17553.88
3311.616, 17520.34
3313.544, 17499.26
3315.473, 17498.47
3317.401, 17497.62
3319.330, 17495.95
3321.258, 17504.16
3323.187, 17519.11
3325.115, 17542.20
3327.043, 17554.84
3328.972, 17523.28
3330.900, 17495.85
3332.829, 17513.74
3334.757, 17522.21
3336.686, 17505.03
3338.614, 17494.64
3340.543, 17494.42
3342.471, 17498.18
3344.400, 17503.27
3346.328, 17502.27
3348.257, 17498.26
3350.185, 17501.31
3352.114, 17497.84
3354.042, 17494.63
3355.970, 17493.58
3357.899, 17480.68
3359.827, 17488.41
3361.756, 17469.94
3363.684, 17467.00
3365.613, 17477.06
3367.541, 17476.34
3369.470, 17467.90
3371.398, 17452.87
3373.327, 17438.72
3375.255, 17430.29
3377.184, 17428.23
3379.112, 17435.30
3381.041, 17443.45
3382.969, 17453.36
3384.897, 17461.68
3386.826, 17466.79
3388.754, 17456.10
3390.683, 17439.41
3392.611, 17426.88
3394.540, 17424.95
3396.468, 17450.79
3398.397, 17460.53
3400.325, 17425.21
3402.254, 17406.08
3404.182, 17405.87
3406.111, 17422.18
3408.039, 17446.08
3409.968, 17451.65
3411.896, 17446.11
3413.824, 17434.94
3415.753, 17426.41
3417.681, 17434.12
3419.610, 17428.05
3421.538, 17428.33
3423.467, 17423.61
3425.395, 17420.06
3427.324, 17413.66
3429.252, 17409.75
3431.181, 17394.35
3433.109, 17399.80
3435.038, 17388.85
3436.966, 17381.80
3438.895, 17385.14
3440.823, 17397.18
3442.751, 17385.15
3444.680, 17411.51
3446.608, 17375.50
3448.537, 17365.56
3450.465, 17371.01
3452.394, 17375.43
3454.322, 17388.25
3456.251, 17392.59
3458.179, 17396.11
3460.108, 17406.23
3462.036, 17392.42
3463.965, 17396.23
3465.893, 17378.03
3467.822, 17351.26
3469.750, 17339.61
3471.678, 17333.86
3473.607, 17325.29
3475.535, 17325.43
3477.464, 17323.27
3479.392, 17339.78
3481.321, 17331.20
3483.249, 17343.73
3485.178, 17361.67
3487.106, 17339.29
3489.035, 17317.00
3490.963, 17339.45
3492.892, 17354.09
3494.820, 17344.65
3496.749, 17340.53
3498.677, 17346.20
3500.605, 17337.06
3502.534, 17322.64
3504.462, 17324.32
3506.391, 17332.47
3508.319, 17341.15
3510.248, 17346.49
3512.176, 17348.33
3514.105, 17341.00
3516.033, 17324.98
3517.962, 17310.80
3519.890, 17303.12
3521.819, 17315.53
3523.747, 17331.66
3525.676, 17342.97
3527.604, 17339.72
3529.532, 17348.42
3531.461, 17296.17
3533.389, 17333.44
3535.318, 17311.10
3537.246, 17263.58
3539.175, 17277.84
3541.103, 17293.50
3543.032, 17249.27
3544.960, 17233.64
3546.889, 17277.27
3548.817, 17299.78
3550.746, 17297.86
3552.674, 17305.87
3554.603, 17315.83
3556.531, 17313.70
3558.459, 17309.59
3560.388, 17310.53
3562.316, 17313.06
3564.245, 17317.24
3566.173, 17320.53
3568.102, 17323.08
3570.030, 17332.35
3571.959, 17339.63
3573.887, 17336.40
3575.816, 17327.25
3577.744, 17316.01
3579.673, 17302.96
3581.601, 17290.53
3583.530, 17270.24
3585.458, 17249.83
3587.386, 17245.66
3589.315, 17250.99
3591.243, 17261.76
3593.172, 17274.62
3595.100, 17286.65
3597.029, 17308.26
3598.957, 17336.80
3600.886, 17364.53
3602.814, 17373.73
3604.743, 17321.57
3606.671, 17280.45
3608.600, 17289.08
3610.528, 17290.93
3612.457, 17278.56
3614.385, 17259.04
3616.313, 17242.40
3618.242, 17251.22
3620.170, 17269.08
3622.099, 17283.71
3624.027, 17294.49
3625.956, 17297.55
3627.884, 17298.59
3629.813, 17297.49
3631.741, 17298.91
3633.670, 17300.96
3635.598, 17306.05
3637.527, 17306.44
3639.455, 17300.16
3641.384, 17288.51
3643.312, 17271.74
3645.240, 17275.79
3647.169, 17282.22
3649.097, 17251.05
3651.026, 17229.18
3652.954, 17243.71
3654.883, 17260.97
3656.811, 17277.70
3658.740, 17258.98
3660.668, 17229.01
3662.597, 17244.17
3664.525, 17271.58
3666.454, 17298.89
3668.382, 17295.78
3670.311, 17240.00
3672.239, 17228.18
3674.167, 17248.45
3676.096, 17269.06
3678.024, 17278.56
3679.953, 17253.08
3681.881, 17239.63
3683.810, 17252.72
3685.738, 17267.95
3687.667, 17281.72
3689.595, 17283.22
3691.524, 17278.44
3693.452, 17270.18
3695.381, 17267.93
3697.309, 17280.94
3699.238, 17258.52
3701.166, 17270.48
3703.094, 17234.38
3705.023, 17270.60
3706.951, 17245.68
3708.880, 17227.23
3710.808, 17237.82
3712.737, 17249.84
3714.665, 17258.78
3716.594, 17228.83
3718.522, 17196.26
3720.451, 17204.17
3722.379, 17223.38
3724.308, 17249.06
3726.236, 17255.85
3728.165, 17245.38
3730.093, 17228.46
3732.021, 17218.61
3733.950, 17217.87
3735.878, 17213.13
3737.807, 17222.56
3739.735, 17210.65
3741.664, 17214.23
3743.592, 17200.82
3745.521, 17188.84
3747.449, 17203.75
3749.378, 17215.04
3751.306, 17215.72
3753.235, 17206.32
3755.163, 17191.19
3757.092, 17155.51
3759.020, 17190.65
3760.948, 17209.18
3762.877, 17211.99
3764.805, 17152.03
3766.734, 17173.10
3768.662, 17161.68
3770.591, 17148.92
3772.519, 17181.36
3774.448, 17130.48
3776.376, 17162.18
3778.305, 17160.90
3780.233, 17174.70
3782.162, 17155.81
3784.090, 17147.00
3786.019, 17170.87
3787.947, 17176.63
3789.875, 17153.94
3791.804, 17168.63
3793.732, 17116.50
3795.661, 17122.99
3797.589, 17154.76
3799.518, 17133.66
3801.446, 17148.89
3803.375, 17150.28
3805.303, 17088.73
3807.232, 17136.59
3809.160, 17137.12
3811.089, 17089.05
3813.017, 17133.13
3814.946, 17091.74
3816.874, 17080.85
3818.802, 17092.90
3820.731, 17081.00
3822.659, 17106.83
3824.588, 17096.29
3826.516, 17082.50
3828.445, 17082.87
3830.373, 17043.07
3832.302, 17077.76
3834.230, 17061.55
3836.159, 17070.62
3838.087, 17085.42
3840.016, 17056.30
3841.944, 17073.66
3843.873, 17018.92
3845.801, 17024.48
3847.729, 17023.54
3849.658, 17061.14
3851.586, 17006.71
3853.515, 17010.55
3855.443, 17039.20
3857.372, 17033.12
3859.300, 17041.54
3861.229, 17006.97
3863.157, 17012.77
3865.086, 17007.42
3867.014, 17040.53
3868.943, 17043.26
3870.871, 17009.37
3872.800, 16975.62
3874.728, 17011.45
3876.656, 16981.31
3878.585, 16986.74
3880.513, 16955.41
3882.442, 16955.80
3884.370, 16955.68
3886.299, 16971.82
3888.227, 16938.62
3890.156, 16969.38
3892.084, 16963.16
3894.013, 16967.82
3895.941, 16971.26
3897.870, 16925.07
3899.798, 16919.54
3901.727, 16972.21
3903.655, 16936.10
3905.583, 16917.90
3907.512, 16912.42
3909.440, 16967.04
3911.369, 16965.78
3913.297, 16897.72
3915.226, 16949.66
3917.154, 16927.76
3919.083, 16927.78
3921.011, 16919.79
3922.940, 16914.16
3924.868, 16878.38
3926.797, 16882.31
3928.725, 16918.52
3930.654, 16899.66
3932.582, 16918.21
3934.510, 16868.56
3936.439, 16859.37
3938.367, 16860.91
3940.296, 16866.36
3942.224, 16840.50
3944.153, 16877.23
3946.081, 16872.26
3948.010, 16831.16
3949.938, 16845.77
3951.867, 16840.71
3953.795, 16842.73
3955.724, 16824.96
3957.652, 16805.64
3959.581, 16798.67
3961.509, 16800.38
3963.438, 16787.07
3965.366, 16794.54
3967.294, 16777.07
3969.223, 16781.44
3971.151, 16784.99
3973.080, 16785.31
3975.008, 16768.33
3976.937, 16745.10
3978.865, 16740.38
3980.794, 16745.86
3982.722, 16732.33
3984.651, 16751.77
3986.579, 16725.80
3988.508, 16722.54
3990.436, 16725.53
3992.365, 16730.55
3994.293, 16716.14
3996.221, 16689.40
3998.150, 16677.68
4000.078, 16677.95
4002.007, 16692.59
4003.935, 16696.94
4005.864, 16688.50
4007.792, 16668.25
4009.721, 16652.69
4011.649, 16667.84
4013.578, 16676.92
4015.506, 16672.69
4017.435, 16652.23
4019.363, 16632.24
4021.292, 16640.45
4023.220, 16640.41
4025.148, 16619.86
4027.077, 16628.13
4029.005, 16649.63
4030.934, 16646.11
4032.862, 16628.37
4034.791, 16600.71
4036.719, 16582.29
4038.648, 16571.14
4040.576, 16568.66
4042.505, 16570.77
4044.433, 16569.78
4046.362, 16567.55
4048.290, 16567.09
4050.219, 16552.71
4052.147, 16532.69
4054.075, 16529.01
4056.004, 16532.21
4057.932, 16532.44
4059.861, 16525.33
4061.789, 16519.91
4063.718, 16507.76
4065.646, 16495.37
4067.575, 16479.44
4069.503, 16456.17
4071.432, 16438.48
4073.360, 16436.11
4075.289, 16436.67
4077.217, 16432.91
4079.146, 16418.53
4081.074, 16403.28
4083.002, 16389.30
4084.931, 16373.75
4086.859, 16352.60
4088.788, 16344.76
4090.716, 16338.44
4092.645, 16312.91
4094.573, 16298.09
4096.502, 16303.41
4098.430, 16303.79
4100.359, 16276.75
4102.287, 16236.58
4104.216, 16216.78
4106.144, 16215.06
4108.073, 16209.65
4110.001, 16189.26
4111.930, 16194.34
4113.858, 16208.63
4115.787, 16196.24
4117.715, 16176.19
4119.644, 16161.31
4121.572, 16144.97
4123.500, 16140.75
4125.429, 16131.28
4127.357, 16120.41
4129.286, 16120.10
4131.214, 16108.05
4133.143, 16097.59
4135.071, 16106.00
4137.000, 16102.39
4138.928, 16090.50
4140.856, 16090.33
4142.785, 16064.02
4144.713, 16071.04
4146.642, 16056.74
4148.570, 16034.25
4150.499, 16008.44
4152.427, 15982.86
4154.356, 15969.96
4156.284, 15964.55
4158.213, 15965.95
4160.141, 15947.36
4162.070, 15921.42
4163.998, 15918.15
4165.927, 15919.18
4167.855, 15916.83
4169.784, 15911.76
4171.712, 15907.29
4173.641, 15910.16
4175.569, 15909.97
4177.498, 15895.79
4179.426, 15879.43
4181.354, 15865.10
4183.283, 15833.21
4185.211, 15806.38
4187.140, 15804.64
4189.068, 15812.58
4190.997, 15807.11
4192.925, 15777.74
4194.854, 15767.13
4196.782, 15772.42
4198.710, 15769.22
4200.639, 15754.91
4202.567, 15729.93
4204.496, 15696.07
4206.424, 15664.98
4208.353, 15691.80
4210.281, 15695.41
4212.210, 15683.00
4214.138, 15687.36
4216.067, 15665.80
4217.995, 15665.60
4219.924, 15649.17
4221.852, 15630.54
4223.781, 15619.32
4225.709, 15610.73
4227.638, 15590.42
4229.566, 15565.22
4231.495, 15538.12
4233.423, 15513.37
4235.352, 15497.98
4237.280, 15489.71
4239.208, 15487.42
4241.137, 15490.27
4243.065, 15493.65
4244.994, 15503.88
4246.922, 15498.79
4248.851, 15473.27
4250.779, 15427.59
4252.708, 15421.57
4254.636, 15435.08
4256.564, 15464.37
4258.493, 15455.76
4260.421, 15415.57
4262.350, 15410.12
4264.278, 15414.34
4266.207, 15418.97
4268.135, 15405.84
4270.064, 15385.39
4271.992, 15389.98
4273.921, 15396.55
4275.849, 15398.07
4277.778, 15376.46
4279.706, 15344.12
4281.635, 15317.15
4283.563, 15297.49
4285.492, 15286.37
4287.420, 15283.62
4289.349, 15283.10
4291.277, 15281.97
4293.206, 15267.87
4295.134, 15266.23
4297.063, 15250.37
4298.991, 15256.73
4300.919, 15247.83
4302.848, 15251.22
4304.776, 15260.21
4306.705, 15260.96
4308.633, 15245.06
4310.562, 15208.33
4312.490, 15192.43
4314.418, 15191.43
4316.347, 15204.56
4318.275, 15209.29
4320.204, 15202.08
4322.132, 15169.43
4324.061, 15145.99
4325.989, 15155.39
4327.918, 15150.33
4329.846, 15135.92
4331.775, 15141.99
4333.703, 15135.70
4335.632, 15108.93
4337.560, 15104.83
4339.489, 15102.58
4341.417, 15070.19
4343.346, 15051.21
4345.274, 15051.74
4347.203, 15083.67
4349.131, 15102.90
4351.060, 15080.90
4352.988, 15076.51
4354.917, 15076.20
4356.845, 15039.49
4358.773, 15013.99
4360.702, 15012.44
4362.630, 15000.99
4364.559, 14984.06
4366.487, 14950.80
4368.416, 14966.78
4370.344, 15011.85
4372.272, 14992.16
4374.201, 14969.87
4376.129, 14978.80
4378.058, 14968.02
4379.986, 14943.02
4381.915, 14938.55
4383.843, 14922.30
4385.772, 14907.04
4387.700, 14897.87
4389.629, 14881.58
4391.557, 14869.23
4393.486, 14865.73
4395.414, 14868.17
4397.343, 14881.03
4399.271, 14862.43
4401.200, 14807.01
4403.128, 14795.12
4405.057, 14797.78
4406.985, 14797.18
4408.914, 14790.83
4410.842, 14777.62
4412.771, 14784.81
4414.699, 14773.57
4416.627, 14781.81
4418.556, 14765.74
4420.484, 14737.04
4422.413, 14738.88
4424.341, 14729.85
4426.270, 14714.58
4428.198, 14724.17
4430.126, 14711.57
4432.055, 14660.09
4433.983, 14633.98
4435.912, 14627.68
4437.840, 14641.97
4439.769, 14654.65
4441.697, 14659.19
4443.626, 14638.51
4445.554, 14618.85
4447.483, 14607.99
4449.411, 14604.11
4451.340, 14603.24
4453.268, 14602.67
4455.197, 14595.96
4457.125, 14582.82
4459.054, 14560.14
4460.982, 14548.23
4462.911, 14553.07
4464.839, 14533.87
4466.768, 14527.46
4468.696, 14524.15
4470.625, 14510.19
4472.553, 14528.46
4474.481, 14533.01
4476.410, 14513.67
4478.338, 14472.16
4480.267, 14437.55
4482.195, 14422.54
4484.124, 14403.42
4486.052, 14418.81
4487.980, 14386.59
4489.909, 14380.09
4491.837, 14368.25
4493.766, 14351.73
4495.694, 14353.83
4497.623, 14352.15
4499.551, 14335.15
4501.480, 14330.98
4503.408, 14336.28
4505.337, 14352.18
4507.265, 14353.38
4509.194, 14340.34
4511.122, 14321.59
4513.051, 14295.18
4514.979, 14263.40
4516.908, 14247.47
4518.836, 14236.92
4520.765, 14224.01
4522.693, 14228.54
4524.622, 14236.03
4526.550, 14223.72
4528.479, 14204.90
4530.407, 14186.17
4532.335, 14191.71
4534.264, 14193.33
4536.192, 14178.32
4538.121, 14177.66
4540.049, 14166.05
4541.978, 14117.22
4543.906, 14104.62
4545.834, 14115.40
4547.763, 14121.04
4549.691, 14113.57
4551.620, 14095.68
4553.548, 14092.65
4555.477, 14076.64
4557.405, 14072.74
4559.334, 14035.19
4561.262, 14057.10
4563.191, 14056.50
4565.119, 14032.00
4567.048, 14003.04
4568.976, 14012.78
4570.905, 14011.77
4572.833, 13995.79
4574.762, 13987.29
4576.690, 13985.48
4578.619, 13992.28
4580.547, 13957.10
4582.476, 13917.03
4584.404, 13905.27
4586.333, 13900.37
4588.261, 13897.64
4590.189, 13887.23
4592.118, 13892.38
4594.046, 13907.93
4595.975, 13905.70
4597.903, 13901.31
4599.832, 13898.76
4601.760, 13888.74
4603.688, 13873.21
4605.617, 13851.61
4607.545, 13859.31
4609.474, 13866.51
4611.402, 13831.82
4613.331, 13820.61
4615.259, 13827.05
4617.188, 13816.83
4619.116, 13815.56
4621.045, 13826.24
4622.973, 13847.08
4624.902, 13840.74
4626.830, 13790.85
4628.759, 13747.16
4630.687, 13726.74
4632.616, 13703.35
4634.544, 13690.31
4636.473, 13685.90
4638.401, 13680.80
4640.330, 13678.58
4642.258, 13677.03
4644.187, 13680.28
4646.115, 13682.55
4648.043, 13684.06
4649.972, 13677.05
4651.900, 13694.66
4653.829, 13659.42
4655.757, 13652.58
4657.686, 13643.79
4659.614, 13601.60
4661.542, 13601.60
4663.471, 13611.38
4665.399, 13598.71
4667.328, 13581.76
4669.256, 13571.19
4671.185, 13587.80
4673.113, 13584.49
4675.042, 13563.15
4676.970, 13550.90
4678.899, 13545.32
4680.827, 13544.85
4682.756, 13543.78
4684.684, 13538.53
4686.613, 13528.29
4688.541, 13528.17
4690.470, 13529.09
4692.398, 13532.86
4694.327, 13481.78
4696.255, 13431.42
4698.184, 13440.68
4700.112, 13429.06
4702.041, 13408.26
4703.969, 13406.36
4705.897, 13404.37
4707.826, 13397.99
4709.754, 13383.65
4711.683, 13361.14
4713.611, 13335.98
4715.540, 13335.80
4717.468, 13324.35
4719.396, 13298.82
4721.325, 13314.55
4723.253, 13323.24
4725.182, 13301.29
4727.110, 13305.06
4729.039, 13309.66
4730.967, 13301.57
4732.896, 13272.44
4734.824, 13242.20
4736.753, 13224.88
4738.681, 13241.40
4740.610, 13253.70
4742.538, 13208.13
4744.467, 13183.02
4746.395, 13176.53
4748.324, 13177.08
4750.252, 13184.90
4752.181, 13191.65
4754.109, 13179.20
4756.038, 13154.13
4757.966, 13125.87
4759.895, 13125.46
4761.823, 13124.87
4763.751, 13117.22
4765.680, 13101.63
4767.608, 13078.01
4769.537, 13048.62
4771.465, 13067.76
4773.394, 13065.39
4775.322, 13022.90
4777.250, 13034.96
4779.179, 13046.13
4781.107, 13023.10
4783.036, 13003.27
4784.964, 12991.41
4786.893, 12990.46
4788.821, 12988.69
4790.750, 12982.06
4792.678, 12965.84
4794.607, 12953.29
4796.535, 12936.88
4798.464, 12919.38
4800.392, 12892.73
4802.321, 12884.52
4804.249, 12869.07
4806.178, 12855.69
4808.106, 12847.95
4810.035, 12850.09
4811.963, 12860.31
4813.892, 12864.86
4815.820, 12836.80
4817.749, 12815.88
4819.677, 12808.59
4821.605, 12800.34
4823.534, 12798.66
4825.462, 12806.90
4827.391, 12807.71
4829.319, 12821.70
4831.248, 12832.66
4833.176, 12790.41
4835.104, 12763.94
4837.033, 12757.65
4838.961, 12744.86
4840.890, 12755.82
4842.818, 12742.12
4844.747, 12756.26
4846.675, 12727.57
4848.604, 12704.13
4850.532, 12695.10
4852.461, 12678.48
4854.389, 12655.58
4856.318, 12654.99
4858.246, 12655.86
4860.175, 12650.53
4862.103, 12625.88
4864.032, 12599.40
4865.960, 12580.41
4867.889, 12571.08
4869.817, 12599.66
4871.746, 12564.00
4873.674, 12576.38
4875.603, 12580.56
4877.531, 12566.63
4879.459, 12572.25
4881.388, 12554.07
4883.316, 12513.97
4885.245, 12504.88
4887.173, 12493.92
4889.102, 12476.24
4891.030, 12482.84
4892.958, 12471.92
4894.887, 12445.01
4896.815, 12446.16
4898.744, 12438.86
4900.672, 12418.74
4902.601, 12403.11
4904.529, 12399.04
4906.458, 12401.22
4908.386, 12384.01
4910.315, 12378.10
4912.243, 12382.58
4914.172, 12371.18
4916.100, 12361.28
4918.029, 12355.11
4919.957, 12353.42
4921.886, 12333.04
4923.814, 12327.28
4925.743, 12301.12
4927.671, 12295.87
4929.600, 12280.93
4931.528, 12247.74
4933.457, 12229.23
4935.385, 12223.15
4937.313, 12223.46
4939.242, 12197.71
4941.170, 12201.99
4943.099, 12177.62
4945.027, 12191.41
4946.956, 12197.24
4948.884, 12181.69
4950.813, 12165.70
4952.741, 12149.73
4954.669, 12130.61
4956.598, 12150.49
4958.526, 12164.40
4960.455, 12120.70
4962.383, 12103.92
4964.312, 12096.45
4966.240, 12082.30
4968.169, 12062.74
4970.097, 12053.10
4972.026, 12039.45
4973.954, 12037.41
4975.883, 12019.76
4977.811, 12031.44
4979.740, 12028.56
4981.668, 12006.74
4983.597, 12002.73
4985.525, 11978.53
4987.454, 11971.07
4989.382, 11937.07
4991.311, 11920.48
4993.239, 11893.50
4995.167, 11863.76
4997.096, 11888.20
4999.024, 11894.96
5000.953, 11882.26
5002.881, 11879.20
5004.810, 11862.69
5006.738, 11841.16
5008.667, 11838.89
5010.595, 11800.32
5012.523, 11761.63
5014.452, 11783.45
5016.380, 11777.05
5018.309, 11755.98
5020.237, 11735.22
5022.166, 11724.96
5024.094, 11714.84
5026.023, 11698.79
5027.951, 11701.13
5029.880, 11691.87
5031.808, 11675.75
5033.737, 11642.81
5035.665, 11621.60
5037.594, 11617.25
5039.522, 11621.58
5041.451, 11612.22
5043.379, 11589.58
5045.308, 11563.08
5047.236, 11541.99
5049.165, 11532.75
5051.093, 11545.63
5053.021, 11538.23
5054.950, 11520.22
5056.878, 11507.17
5058.807, 11493.33
5060.735, 11478.56
5062.664, 11464.37
5064.592, 11443.16
5066.521, 11422.80
5068.449, 11407.39
5070.377, 11406.51
5072.306, 11396.71
5074.234, 11374.45
5076.163, 11356.38
5078.091, 11351.23
5080.020, 11353.54
5081.948, 11350.45
5083.877, 11333.33
5085.805, 11308.52
5087.734, 11282.63
5089.662, 11263.34
5091.591, 11260.01
5093.519, 11278.54
5095.448, 11281.63
5097.376, 11276.72
5099.305, 11267.04
5101.233, 11234.21
5103.162, 11214.19
5105.090, 11212.55
5107.019, 11209.80
5108.947, 11197.64
5110.875, 11181.39
5112.804, 11174.78
5114.732, 11156.44
5116.661, 11129.46
5118.589, 11097.90
5120.518, 11087.04
5122.446, 11089.07
5124.375, 11097.27
5126.303, 11109.38
5128.231, 11102.65
5130.160, 11073.53
5132.088, 11041.06
5134.017, 11021.50
5135.945, 11017.63
5137.874, 10993.58
5139.802, 11003.10
5141.731, 10968.31
5143.659, 10987.04
5145.588, 10985.23
5147.516, 10968.42
5149.445, 10942.99
5151.373, 10921.46
5153.302, 10927.08
5155.230, 10951.08
5157.159, 10950.60
5159.087, 10916.24
5161.016, 10875.02
5162.944, 10871.91
5164.873, 10845.65
5166.801, 10825.65
5168.729, 10824.30
5170.658, 10798.93
5172.586, 10795.16
5174.515, 10802.90
5176.443, 10786.71
5178.372, 10778.79
5180.300, 10778.18
5182.229, 10765.08
5184.157, 10762.21
5186.085, 10755.61
5188.014, 10728.49
5189.942, 10725.96
5191.871, 10707.78
5193.799, 10661.44
5195.728, 10676.47
5197.656, 10654.67
5199.585, 10608.35
5201.513, 10627.50
5203.442, 10622.35
5205.370, 10606.37
5207.299, 10604.17
5209.227, 10589.48
5211.156, 10570.33
5213.084, 10559.31
5215.013, 10530.08
5216.941, 10504.80
5218.870, 10489.46
5220.798, 10477.65
5222.727, 10463.69
5224.655, 10453.23
5226.583, 10446.65
5228.512, 10435.37
5230.440, 10429.41
5232.369, 10425.00
5234.297, 10413.81
5236.226, 10390.62
5238.154, 10364.74
5240.083, 10356.42
5242.011, 10341.50
5243.939, 10327.06
5245.868, 10318.88
5247.796, 10301.51
5249.725, 10287.37
5251.653, 10279.32
5253.582, 10274.77
5255.510, 10273.67
5257.439, 10264.72
5259.367, 10233.07
5261.296, 10204.84
5263.224, 10183.78
5265.153, 10172.94
5267.081, 10189.70
5269.010, 10193.56
5270.938, 10177.08
5272.867, 10134.62
5274.795, 10112.81
5276.724, 10109.34
5278.652, 10119.10
5280.581, 10106.58
5282.509, 10090.17
5284.438, 10076.56
5286.366, 10069.85
5288.294, 10065.83
5290.223, 10051.60
5292.151, 10011.09
5294.080, 9998.812
5296.008, 9997.714
5297.937, 9998.001
5299.865, 9991.259
5301.793, 9968.279
5303.722, 9935.570
5305.650, 9900.320
5307.579, 9890.986
5309.507, 9884.896
5311.436, 9874.996
5313.364, 9863.820
5315.293, 9856.838
5317.221, 9842.471
5319.150, 9838.032
5321.078, 9834.305
5323.007, 9820.793
5324.935, 9796.947
5326.864, 9785.399
5328.792, 9782.549
5330.721, 9771.752
5332.649, 9728.716
5334.578, 9723.365
5336.506, 9713.411
5338.435, 9683.152
5340.363, 9672.364
5342.292, 9662.376
5344.220, 9646.504
5346.148, 9615.417
5348.077, 9599.572
5350.005, 9596.041
5351.934, 9599.875
5353.862, 9601.755
5355.791, 9576.896
5357.719, 9546.396
5359.647, 9540.547
5361.576, 9521.555
5363.504, 9500.922
5365.433, 9482.123
5367.361, 9445.736
5369.290, 9445.125
5371.218, 9461.518
5373.147, 9466.810
5375.075, 9440.290
5377.004, 9407.803
5378.932, 9383.360
5380.861, 9381.755
5382.789, 9371.536
5384.718, 9359.300
5386.646, 9352.991
5388.575, 9329.276
5390.503, 9312.648
5392.432, 9306.003
5394.360, 9303.444
5396.289, 9290.484
5398.217, 9272.696
5400.146, 9256.430
5402.074, 9256.585
5404.002, 9235.113
5405.931, 9214.060
5407.859, 9238.711
5409.788, 9226.877
5411.716, 9192.518
5413.645, 9158.548
5415.573, 9184.166
5417.501, 9176.046
5419.430, 9143.672
5421.358, 9106.444
5423.287, 9087.686
5425.215, 9083.675
5427.144, 9081.010
5429.072, 9054.313
5431.001, 9056.456
5432.929, 9036.080
5434.858, 8979.888
5436.786, 8969.570
5438.715, 8962.706
5440.643, 8950.201
5442.572, 8930.030
5444.500, 8922.344
5446.429, 8911.160
5448.357, 8902.825
5450.286, 8895.982
5452.214, 8895.326
5454.143, 8890.021
5456.071, 8874.073
5458.000, 8833.856
5459.928, 8816.176
5461.856, 8811.760
5463.785, 8803.338
5465.713, 8776.782
5467.642, 8768.615
5469.570, 8771.261
5471.499, 8744.001
5473.427, 8712.896
5475.355, 8694.014
5477.284, 8691.553
5479.212, 8697.763
5481.141, 8692.236
5483.069, 8671.070
5484.998, 8668.328
5486.926, 8653.035
5488.855, 8640.460
5490.783, 8601.895
5492.712, 8577.807
5494.640, 8555.799
5496.569, 8533.517
5498.497, 8514.195
5500.426, 8507.396
5502.354, 8505.811
5504.283, 8491.817
5506.211, 8463.311
5508.140, 8473.029
5510.068, 8449.136
5511.997, 8419.426
5513.925, 8422.049
5515.854, 8427.742
5517.782, 8414.768
5519.710, 8386.928
5521.639, 8357.085
5523.567, 8346.891
5525.496, 8324.452
5527.424, 8321.415
5529.353, 8296.698
5531.281, 8286.950
5533.209, 8277.873
5535.138, 8263.723
5537.066, 8253.697
5538.995, 8252.116
5540.923, 8228.750
5542.852, 8169.486
5544.780, 8151.116
5546.709, 8154.312
5548.637, 8153.207
5550.566, 8130.140
5552.494, 8121.022
5554.423, 8107.178
5556.351, 8085.195
5558.280, 8080.504
5560.208, 8071.466
5562.137, 8065.031
5564.065, 8057.328
5565.994, 8030.972
5567.922, 8035.534
5569.851, 8036.027
5571.779, 8017.978
5573.708, 7986.022
5575.636, 7954.522
5577.564, 7936.661
5579.493, 7931.325
5581.421, 7906.544
5583.350, 7920.306
5585.278, 7915.327
5587.207, 7864.948
5589.135, 7866.870
5591.063, 7849.777
5592.992, 7827.348
5594.920, 7816.449
5596.849, 7790.977
5598.777, 7771.773
5600.706, 7770.986
5602.634, 7749.901
5604.563, 7750.130
5606.491, 7724.990
5608.420, 7713.703
5610.348, 7701.167
5612.277, 7676.691
5614.205, 7672.638
5616.134, 7634.677
5618.062, 7628.880
5619.991, 7613.444
5621.919, 7595.707
5623.848, 7582.581
5625.776, 7578.837
5627.705, 7560.206
5629.633, 7553.863
5631.562, 7544.739
5633.490, 7533.069
5635.418, 7522.688
5637.347, 7506.413
5639.275, 7483.182
5641.204, 7472.417
5643.132, 7452.232
5645.061, 7441.752
5646.989, 7420.549
5648.917, 7421.983
5650.846, 7414.837
5652.774, 7404.676
5654.703, 7392.437
5656.631, 7376.263
5658.560, 7366.822
5660.488, 7352.156
5662.417, 7342.112
5664.345, 7326.495
5666.274, 7308.962
5668.202, 7297.741
5670.131, 7290.183
5672.059, 7281.081
5673.988, 7261.778
5675.916, 7258.266
5677.845, 7249.272
5679.773, 7200.567
5681.702, 7210.861
5683.630, 7201.233
5685.559, 7183.521
5687.487, 7187.878
5689.416, 7162.944
5691.344, 7134.522
5693.272, 7118.178
5695.201, 7117.545
5697.129, 7087.163
5699.058, 7083.298
5700.986, 7082.798
5702.915, 7063.052
5704.843, 7080.289
5706.771, 7045.593
5708.700, 7010.753
5710.628, 7012.380
5712.557, 7012.022
5714.485, 6982.409
5716.414, 6969.030
5718.342, 6979.964
5720.271, 6944.321
5722.199, 6941.935
5724.128, 6933.507
5726.056, 6906.413
5727.985, 6886.211
5729.913, 6886.649
5731.842, 6868.353
5733.770, 6838.218
5735.699, 6841.158
5737.627, 6799.037
5739.556, 6790.920
5741.484, 6803.494
5743.413, 6784.440
5745.341, 6764.054
5747.270, 6755.440
5749.198, 6758.431
5751.126, 6766.325
5753.055, 6746.075
5754.983, 6729.867
5756.912, 6718.452
5758.840, 6703.604
5760.769, 6664.927
5762.697, 6649.822
5764.625, 6639.875
5766.554, 6625.567
5768.482, 6615.487
5770.411, 6600.041
5772.339, 6590.069
5774.268, 6579.533
5776.196, 6548.847
5778.125, 6540.461
5780.053, 6536.690
5781.982, 6534.951
5783.910, 6537.200
5785.839, 6518.163
5787.767, 6496.405
5789.696, 6484.952
5791.624, 6481.554
5793.553, 6452.332
5795.481, 6447.372
5797.410, 6445.583
5799.338, 6430.436
5801.267, 6418.654
5803.195, 6402.627
5805.124, 6379.673
5807.052, 6365.362
5808.980, 6335.130
5810.909, 6318.614
5812.837, 6299.829
5814.766, 6295.290
5816.694, 6306.873
5818.623, 6269.430
5820.551, 6270.021
5822.479, 6266.134
5824.408, 6247.903
5826.336, 6243.085
5828.265, 6225.806
5830.193, 6213.334
5832.122, 6193.886
5834.050, 6185.991
5835.979, 6178.738
5837.907, 6167.319
5839.836, 6145.559
5841.764, 6130.626
5843.693, 6101.544
5845.621, 6114.072
5847.550, 6104.883
5849.478, 6080.632
5851.407, 6079.327
5853.335, 6067.601
5855.264, 6050.940
5857.192, 6045.508
5859.121, 6027.305
5861.049, 6020.700
5862.978, 6000.118
5864.906, 5991.083
5866.834, 5987.887
5868.763, 5983.276
5870.691, 5968.263
5872.620, 5958.005
5874.548, 5950.441
5876.477, 5940.564
5878.405, 5921.829
5880.333, 5919.630
5882.262, 5911.196
5884.190, 5898.850
5886.119, 5902.260
5888.047, 5895.486
5889.976, 5870.514
5891.904, 5842.949
5893.833, 5826.329
5895.761, 5820.024
5897.690, 5818.476
5899.618, 5805.975
5901.547, 5795.377
5903.475, 5782.364
5905.404, 5771.427
5907.332, 5750.493
5909.261, 5736.096
5911.189, 5720.673
5913.118, 5720.123
5915.046, 5713.396
5916.975, 5697.095
5918.903, 5679.388
5920.832, 5668.319
5922.760, 5653.083
5924.688, 5648.237
5926.617, 5648.890
5928.545, 5646.475
5930.474, 5629.052
5932.402, 5627.091
5934.331, 5599.190
5936.259, 5570.619
5938.188, 5561.185
5940.116, 5537.792
5942.044, 5526.796
5943.973, 5516.681
5945.901, 5511.380
5947.830, 5503.064
5949.758, 5494.102
5951.687, 5488.429
5953.615, 5471.532
5955.544, 5457.696
5957.472, 5447.104
5959.401, 5427.968
5961.329, 5420.661
5963.258, 5408.348
5965.186, 5391.619
5967.115, 5377.708
5969.043, 5382.176
5970.972, 5373.860
5972.900, 5352.435
5974.829, 5330.511
5976.757, 5321.847
5978.686, 5307.134
5980.614, 5317.296
5982.542, 5296.296
5984.471, 5296.300
5986.399, 5267.937
5988.328, 5247.264
5990.256, 5234.394
5992.185, 5219.629
5994.113, 5189.132
5996.042, 5186.487
5997.970, 5195.085
5999.898, 5185.597
6001.827, 5158.831
6003.755, 5153.430
6005.684, 5134.528
6007.612, 5135.114
6009.541, 5123.271
6011.469, 5118.677
6013.398, 5112.065
6015.326, 5109.750
6017.255, 5095.928
6019.183, 5087.718
6021.112, 5076.751
6023.040, 5065.624
6024.969, 5044.968
6026.897, 5026.936
6028.826, 5010.339
6030.754, 4999.550
6032.683, 5002.844
6034.611, 4985.266
6036.540, 4978.307
6038.468, 4976.964
6040.396, 4964.564
6042.325, 4957.361
6044.253, 4921.560
6046.182, 4912.110
6048.110, 4911.030
6050.039, 4887.241
6051.967, 4895.071
6053.896, 4882.998
6055.824, 4882.402
6057.752, 4877.139
6059.681, 4866.981
6061.609, 4853.527
6063.538, 4839.372
6065.466, 4824.433
6067.395, 4813.891
6069.323, 4788.989
6071.252, 4788.981
6073.180, 4781.101
6075.109, 4760.957
6077.037, 4745.017
6078.966, 4741.888
6080.894, 4722.134
6082.823, 4713.804
6084.751, 4706.271
6086.680, 4692.342
6088.608, 4685.818
6090.537, 4667.233
6092.465, 4667.604
6094.394, 4650.250
6096.322, 4637.769
6098.250, 4639.495
6100.179, 4628.357
6102.107, 4598.372
6104.036, 4584.797
6105.964, 4584.405
6107.893, 4579.720
6109.821, 4555.057
6111.750, 4556.647
6113.678, 4541.581
6115.606, 4527.939
6117.535, 4519.086
6119.463, 4505.193
6121.392, 4517.759
6123.320, 4492.536
6125.249, 4455.687
6127.177, 4444.386
6129.106, 4464.915
6131.034, 4429.583
6132.963, 4441.854
6134.891, 4429.262
6136.820, 4402.044
6138.748, 4386.713
6140.677, 4375.636
6142.605, 4366.249
6144.534, 4355.201
6146.462, 4345.313
6148.391, 4341.108
6150.319, 4344.825
6152.248, 4327.668
6154.176, 4330.286
6156.104, 4315.148
6158.033, 4287.340
6159.961, 4273.618
6161.890, 4272.911
6163.818, 4265.829
6165.747, 4245.295
6167.675, 4229.337
6169.604, 4228.890
6171.532, 4234.619
6173.460, 4210.540
6175.389, 4202.518
6177.317, 4196.396
6179.246, 4186.527
6181.174, 4180.669
6183.103, 4172.310
6185.031, 4159.051
6186.960, 4145.043
6188.888, 4138.423
6190.817, 4136.439
6192.745, 4117.284
6194.674, 4096.057
6196.602, 4088.299
6198.531, 4091.353
6200.459, 4082.665
6202.388, 4044.448
6204.316, 4069.287
6206.245, 4040.516
6208.173, 4039.778
6210.102, 4044.354
6212.030, 4023.271
6213.958, 4019.188
6215.887, 3991.552
6217.815, 3995.704
6219.744, 3985.669
6221.672, 3979.139
6223.601, 3987.021
6225.529, 3935.769
6227.458, 3925.853
6229.386, 3936.703
6231.314, 3946.281
6233.243, 3944.137
6235.171, 3928.708
6237.100, 3894.426
6239.028, 3890.310
6240.957, 3871.703
6242.885, 3855.721
6244.814, 3858.026
6246.742, 3854.886
6248.671, 3849.386
6250.599, 3841.185
6252.528, 3824.190
6254.456, 3810.053
6256.385, 3806.402
6258.313, 3796.208
6260.242, 3784.009
6262.170, 3771.766
6264.099, 3771.875
6266.027, 3773.078
6267.956, 3760.303
6269.884, 3751.814
6271.813, 3718.212
6273.741, 3696.408
6275.669, 3695.817
6277.598, 3673.531
6279.526, 3695.227
6281.455, 3660.248
6283.383, 3667.254
6285.312, 3678.889
6287.240, 3678.484
6289.168, 3666.288
6291.097, 3648.870
6293.025, 3642.131
6294.954, 3639.138
6296.882, 3626.243
6298.811, 3623.154
6300.739, 3627.523
6302.668, 3616.680
6304.596, 3611.863
6306.525, 3586.267
6308.453, 3584.237
6310.382, 3566.694
6312.310, 3540.737
6314.239, 3555.809
6316.167, 3549.746
6318.096, 3535.270
6320.024, 3503.696
6321.953, 3493.840
6323.881, 3498.257
6325.810, 3483.677
6327.738, 3484.491
6329.667, 3486.124
6331.595, 3467.447
6333.523, 3459.999
6335.452, 3463.591
6337.380, 3455.789
6339.309, 3434.718
6341.237, 3409.650
6343.166, 3415.475
6345.094, 3414.820
6347.022, 3407.670
6348.951, 3406.181
6350.879, 3394.556
6352.808, 3384.061
6354.736, 3368.033
6356.665, 3360.719
6358.593, 3351.995
6360.522, 3338.583
6362.450, 3336.597
6364.379, 3333.998
6366.307, 3331.616
6368.236, 3312.344
6370.164, 3304.071
6372.093, 3306.886
6374.021, 3298.944
6375.950, 3307.452
6377.878, 3272.150
6379.807, 3250.317
6381.735, 3246.512
6383.664, 3244.477
6385.592, 3237.092
6387.521, 3234.562
6389.449, 3225.662
6391.377, 3217.730
6393.306, 3201.548
6395.234, 3203.115
6397.163, 3195.567
6399.091, 3197.166
6401.020, 3171.795
6402.948, 3179.242
6404.876, 3157.692
6406.805, 3142.691
6408.733, 3141.418
6410.662, 3139.759
6412.590, 3134.333
6414.519, 3124.281
6416.447, 3119.103
6418.376, 3099.203
6420.304, 3098.352
6422.233, 3087.226
6424.161, 3066.906
6426.090, 3088.134
6428.018, 3062.721
6429.947, 3056.362
6431.875, 3064.550
6433.804, 3068.616
6435.732, 3058.803
6437.661, 3043.006
6439.589, 3052.220
6441.518, 3025.865
6443.446, 3021.135
6445.375, 2997.175
6447.303, 2977.973
6449.231, 2984.197
6451.160, 2986.341
6453.088, 2966.389
6455.017, 2953.194
6456.945, 2946.281
6458.874, 2938.451
6460.802, 2935.681
6462.730, 2937.148
6464.659, 2928.960
6466.587, 2933.661
6468.516, 2919.293
6470.444, 2897.698
6472.373, 2889.355
6474.301, 2883.756
6476.230, 2869.870
6478.158, 2859.766
6480.087, 2871.401
6482.015, 2850.126
6483.944, 2837.932
6485.872, 2847.456
6487.801, 2852.782
6489.729, 2846.884
6491.658, 2850.536
6493.586, 2826.468
6495.515, 2809.509
6497.443, 2794.504
6499.372, 2783.070
6501.300, 2781.548
6503.229, 2778.169
6505.157, 2764.688
6507.085, 2766.574
6509.014, 2753.703
6510.942, 2755.829
6512.871, 2753.027
6514.799, 2732.283
6516.728, 2717.394
6518.656, 2720.909
6520.584, 2716.359
6522.513, 2722.020
6524.441, 2711.443
6526.370, 2706.068
6528.298, 2686.257
6530.227, 2679.487
6532.155, 2687.419
6534.084, 2660.939
6536.012, 2656.509
6537.941, 2649.598
6539.869, 2633.501
6541.798, 2638.489
6543.726, 2652.807
6545.655, 2654.075
6547.583, 2636.365
6549.512, 2614.240
6551.440, 2604.223
6553.369, 2603.272
6555.297, 2597.249
6557.226, 2600.771
6559.154, 2600.989
6561.083, 2587.902
6563.011, 2572.819
6564.939, 2568.245
6566.868, 2569.799
6568.796, 2563.857
6570.725, 2561.468
6572.653, 2551.124
6574.582, 2545.506
6576.510, 2552.242
6578.438, 2545.823
6580.367, 2535.258
6582.295, 2530.094
6584.224, 2509.570
6586.152, 2510.434
6588.081, 2501.631
6590.009, 2496.658
6591.938, 2497.329
6593.866, 2484.043
6595.795, 2468.237
6597.723, 2472.283
6599.652, 2470.438
6601.580, 2456.153
6603.509, 2448.271
6605.437, 2444.398
6607.366, 2434.444
6609.294, 2424.477
6611.223, 2436.257
6613.151, 2434.800
6615.080, 2425.981
6617.008, 2410.819
6618.937, 2398.630
6620.865, 2399.959
6622.793, 2405.234
6624.722, 2397.144
6626.650, 2385.836
6628.579, 2390.035
6630.507, 2395.710
##END=



