##NAMES=Marialite
##RRUFFID=R070689
##IDEAL CHEMISTRY=Na_4_Al_3_Si_9_O_24_Cl
##LOCALITY=Itaguassu, Espirito Santo State, Brazil
##OWNER=RRUFF
##SOURCE=Michael Scott
##DESCRIPTION=Pale yellow striated prism; bright orange-pink fluorescence under SW UV light
##STATUS=The identification of this mineral has been confirmed by X-ray diffraction and chemical analysis
##URL=https://www.rruff.net/odr/rruff_sample/R070689
##MEASURED CHEMISTRY=(Na_2.48_Ca_1.28_K_0.24_)(Si_7.91_Al_4.09_)O_24_(Cl_0.81_(CO_3_)_0.19_) ; CO_2_ estimated by difference and charge balance
##DIFFRACTION SAMPLE DESCRIPTION=Powder
##CELL PARAMETERS=a: 12.0703 b: 12.0703 c: 7.5873 alpha: 90 beta: 90 gamma: 90 volume: 1105.42 crystal system: tetragonal
##FILETYPE=Raman RAW
##RAMAN WAVELENGTH=532

91.91022, 274.8094
93.83869, 335.9166
95.76716, 410.7907
97.69563, 507.2420
99.62409, 647.1193
101.5526, 789.2687
103.4810, 916.1589
105.4095, 1028.682
107.3380, 1129.545
109.2664, 1212.343
111.1949, 1281.461
113.1234, 1366.102
115.0518, 1477.683
116.9803, 1595.969
118.9088, 1703.146
120.8372, 1690.655
122.7657, 1667.945
124.6942, 1635.112
126.6226, 1595.563
128.5511, 1558.270
130.4796, 1523.836
132.4080, 1490.335
134.3365, 1457.498
136.2650, 1420.037
138.1934, 1389.180
140.1219, 1365.166
142.0504, 1345.971
143.9788, 1341.039
145.9073, 1352.299
147.8358, 1372.951
149.7642, 1395.760
151.6927, 1423.667
153.6212, 1450.607
155.5496, 1476.093
157.4781, 1502.162
159.4066, 1514.802
161.3350, 1512.440
163.2635, 1497.490
165.1920, 1474.475
167.1204, 1433.009
169.0489, 1392.246
170.9774, 1356.673
172.9058, 1327.206
174.8343, 1307.464
176.7628, 1304.264
178.6912, 1309.728
180.6197, 1311.692
182.5482, 1306.434
184.4766, 1302.712
186.4051, 1304.620
188.3336, 1310.821
190.2620, 1315.452
192.1905, 1318.224
194.1190, 1319.539
196.0474, 1318.315
197.9759, 1314.243
199.9044, 1311.429
201.8328, 1311.116
203.7613, 1311.577
205.6898, 1311.031
207.6183, 1309.736
209.5467, 1309.467
211.4752, 1311.245
213.4037, 1313.347
215.3321, 1317.513
217.2606, 1325.288
219.1891, 1341.093
221.1175, 1350.319
223.0460, 1350.452
224.9745, 1344.326
226.9029, 1335.746
228.8314, 1325.495
230.7599, 1316.018
232.6883, 1306.869
234.6168, 1294.677
236.5453, 1287.969
238.4737, 1290.556
240.4022, 1299.786
242.3307, 1311.724
244.2591, 1326.117
246.1876, 1342.628
248.1161, 1360.521
250.0445, 1382.985
251.9730, 1409.813
253.9015, 1444.361
255.8299, 1477.623
257.7584, 1500.162
259.6869, 1513.110
261.6153, 1518.889
263.5438, 1517.278
265.4723, 1507.085
267.4007, 1491.520
269.3292, 1465.297
271.2577, 1440.015
273.1861, 1426.093
275.1146, 1427.481
277.0431, 1433.330
278.9715, 1441.014
280.9000, 1445.501
282.8285, 1450.402
284.7569, 1455.991
286.6854, 1464.135
288.6139, 1476.389
290.5423, 1498.787
292.4708, 1511.961
294.3993, 1510.270
296.3277, 1490.747
298.2562, 1468.643
300.1847, 1440.616
302.1131, 1419.929
304.0416, 1410.820
305.9701, 1415.732
307.8985, 1419.381
309.8270, 1418.267
311.7555, 1415.580
313.6839, 1417.036
315.6124, 1426.403
317.5409, 1435.522
319.4693, 1440.909
321.3978, 1438.307
323.3263, 1439.009
325.2547, 1440.402
327.1832, 1446.758
329.1117, 1462.528
331.0401, 1496.538
332.9686, 1523.826
334.8971, 1536.096
336.8255, 1533.674
338.7540, 1531.970
340.6825, 1530.396
342.6109, 1531.075
344.5394, 1534.494
346.4679, 1538.713
348.3963, 1546.236
350.3248, 1560.807
352.2533, 1579.000
354.1817, 1592.165
356.1102, 1598.494
358.0387, 1602.081
359.9671, 1604.136
361.8956, 1602.884
363.8241, 1602.731
365.7525, 1604.070
367.6810, 1606.520
369.6095, 1609.414
371.5379, 1613.511
373.4664, 1616.845
375.3949, 1618.641
377.3233, 1618.433
379.2518, 1619.298
381.1803, 1623.266
383.1087, 1626.520
385.0372, 1626.667
386.9657, 1622.242
388.8941, 1618.006
390.8226, 1611.048
392.7511, 1605.412
394.6796, 1607.961
396.6080, 1623.698
398.5365, 1638.276
400.4650, 1646.449
402.3934, 1647.332
404.3219, 1650.667
406.2504, 1655.459
408.1788, 1663.373
410.1073, 1675.885
412.0358, 1694.095
413.9642, 1712.614
415.8927, 1734.410
417.8212, 1755.886
419.7496, 1765.869
421.6781, 1756.098
423.6066, 1746.788
425.5350, 1743.526
427.4635, 1745.333
429.3920, 1757.214
431.3204, 1784.561
433.2489, 1818.488
435.1774, 1850.544
437.1058, 1878.716
439.0343, 1915.789
440.9628, 1960.328
442.8912, 2013.444
444.8197, 2090.709
446.7482, 2215.544
448.6766, 2342.858
450.6051, 2465.774
452.5336, 2581.999
454.4620, 2658.306
456.3905, 2667.493
458.3190, 2645.618
460.2474, 2611.226
462.1759, 2561.736
464.1044, 2500.236
466.0328, 2417.860
467.9613, 2324.733
469.8898, 2242.759
471.8182, 2175.044
473.7467, 2118.948
475.6752, 2074.217
477.6036, 2039.653
479.5321, 2010.272
481.4606, 1986.425
483.3890, 1970.613
485.3175, 1960.249
487.2460, 1957.490
489.1744, 1954.606
491.1029, 1951.149
493.0314, 1946.936
494.9598, 1942.830
496.8883, 1936.526
498.8168, 1935.490
500.7452, 1945.935
502.6737, 1965.324
504.6022, 1976.594
506.5306, 1972.014
508.4591, 1969.727
510.3876, 1971.438
512.3160, 1972.254
514.2445, 1981.613
516.1730, 2008.980
518.1014, 2045.757
520.0299, 2083.544
521.9584, 2121.036
523.8868, 2163.575
525.8153, 2213.005
527.7438, 2264.369
529.6722, 2312.649
531.6007, 2368.991
533.5292, 2410.656
535.4576, 2422.320
537.3861, 2396.224
539.3146, 2361.689
541.2430, 2316.553
543.1715, 2283.983
545.1000, 2262.801
547.0284, 2252.554
548.9569, 2237.285
550.8854, 2215.136
552.8138, 2193.878
554.7423, 2182.874
556.6708, 2184.292
558.5992, 2188.644
560.5277, 2189.344
562.4562, 2183.128
564.3846, 2176.201
566.3131, 2168.933
568.2416, 2169.152
570.1700, 2171.040
572.0985, 2168.964
574.0270, 2168.391
575.9554, 2176.389
577.8839, 2192.428
579.8124, 2206.919
581.7408, 2219.686
583.6693, 2228.281
585.5978, 2227.902
587.5262, 2222.743
589.4547, 2224.324
591.3832, 2235.199
593.3116, 2248.719
595.2401, 2259.525
597.1686, 2271.509
599.0970, 2283.641
601.0255, 2294.329
602.9540, 2299.756
604.8824, 2306.439
606.8109, 2316.423
608.7394, 2323.773
610.6678, 2318.925
612.5963, 2314.768
614.5248, 2319.653
616.4532, 2330.843
618.3817, 2340.019
620.3102, 2349.585
622.2386, 2358.461
624.1671, 2361.564
626.0956, 2357.563
628.0240, 2354.149
629.9525, 2357.001
631.8810, 2372.924
633.8094, 2393.554
635.7379, 2410.933
637.6664, 2413.730
639.5948, 2410.512
641.5233, 2416.670
643.4518, 2429.451
645.3802, 2444.699
647.3087, 2449.121
649.2372, 2447.784
651.1656, 2446.848
653.0941, 2451.142
655.0226, 2460.675
656.9510, 2476.479
658.8795, 2497.306
660.8080, 2515.429
662.7365, 2524.390
664.6649, 2519.701
666.5934, 2518.099
668.5219, 2526.985
670.4503, 2545.461
672.3788, 2564.176
674.3073, 2570.131
676.2357, 2571.598
678.1642, 2582.052
680.0927, 2600.838
682.0211, 2613.318
683.9496, 2619.574
685.8781, 2627.964
687.8065, 2634.561
689.7350, 2637.974
691.6635, 2642.579
693.5919, 2648.421
695.5204, 2650.160
697.4489, 2650.539
699.3773, 2655.903
701.3058, 2671.062
703.2343, 2693.349
705.1627, 2711.081
707.0912, 2717.055
709.0197, 2713.537
710.9481, 2715.208
712.8766, 2722.680
714.8051, 2730.137
716.7335, 2737.777
718.6620, 2754.754
720.5905, 2777.496
722.5189, 2789.146
724.4474, 2789.377
726.3759, 2783.875
728.3043, 2784.581
730.2328, 2790.180
732.1613, 2796.383
734.0897, 2804.574
736.0182, 2818.690
737.9467, 2836.066
739.8751, 2846.841
741.8036, 2847.614
743.7321, 2849.492
745.6605, 2858.595
747.5890, 2876.221
749.5175, 2899.292
751.4459, 2926.848
753.3744, 2954.597
755.3029, 2977.401
757.2313, 3001.958
759.1598, 3038.251
761.0883, 3084.327
763.0167, 3122.032
764.9453, 3142.216
766.8737, 3160.658
768.8022, 3186.629
770.7307, 3214.449
772.6591, 3227.614
774.5876, 3215.198
776.5161, 3192.867
778.4445, 3173.367
780.3730, 3157.778
782.3015, 3144.784
784.2299, 3134.927
786.1584, 3123.645
788.0869, 3113.041
790.0153, 3112.649
791.9438, 3123.515
793.8723, 3143.477
795.8007, 3153.373
797.7292, 3157.509
799.6577, 3155.573
801.5861, 3159.251
803.5146, 3172.148
805.4431, 3195.941
807.3715, 3217.083
809.3000, 3229.917
811.2285, 3238.057
813.1569, 3247.302
815.0854, 3259.698
817.0139, 3270.673
818.9423, 3282.192
820.8708, 3292.840
822.7993, 3300.508
824.7277, 3299.711
826.6562, 3297.491
828.5847, 3292.715
830.5131, 3296.285
832.4416, 3316.719
834.3701, 3348.488
836.2985, 3377.266
838.2270, 3401.530
840.1555, 3419.628
842.0839, 3432.148
844.0124, 3438.861
845.9409, 3440.967
847.8693, 3437.697
849.7978, 3440.202
851.7263, 3453.936
853.6547, 3473.182
855.5832, 3490.753
857.5117, 3507.479
859.4401, 3517.035
861.3686, 3510.300
863.2971, 3501.973
865.2255, 3514.069
867.1540, 3558.153
869.0825, 3593.942
871.0109, 3607.888
872.9394, 3612.883
874.8679, 3619.384
876.7963, 3623.996
878.7248, 3633.353
880.6533, 3659.620
882.5817, 3688.532
884.5102, 3698.469
886.4387, 3673.184
888.3671, 3663.383
890.2956, 3688.308
892.2241, 3723.895
894.1525, 3740.491
896.0810, 3735.972
898.0095, 3740.810
899.9379, 3776.035
901.8664, 3811.127
903.7949, 3822.343
905.7233, 3799.535
907.6518, 3793.065
909.5803, 3812.656
911.5087, 3839.433
913.4372, 3864.358
915.3657, 3888.230
917.2941, 3906.593
919.2226, 3919.043
921.1511, 3924.168
923.0795, 3916.982
925.0080, 3898.014
926.9365, 3894.502
928.8649, 3921.952
930.7934, 3953.110
932.7219, 3979.892
934.6503, 4001.368
936.5788, 4017.991
938.5073, 4028.070
940.4357, 4035.371
942.3642, 4040.177
944.2927, 4043.352
946.2211, 4046.073
948.1496, 4043.453
950.0781, 4049.210
952.0065, 4072.904
953.9350, 4109.865
955.8635, 4139.597
957.7919, 4156.428
959.7204, 4173.093
961.6489, 4192.249
963.5773, 4209.819
965.5058, 4222.692
967.4343, 4230.855
969.3627, 4241.665
971.2912, 4259.590
973.2197, 4276.176
975.1481, 4288.759
977.0766, 4298.169
979.0051, 4308.928
980.9335, 4322.263
982.8620, 4333.949
984.7905, 4342.888
986.7189, 4346.346
988.6474, 4359.217
990.5759, 4392.136
992.5043, 4427.566
994.4328, 4451.627
996.3613, 4465.414
998.2897, 4478.613
1000.218, 4489.368
1002.147, 4499.964
1004.075, 4513.728
1006.004, 4534.012
1007.932, 4550.099
1009.861, 4557.285
1011.789, 4563.177
1013.717, 4575.679
1015.646, 4590.258
1017.574, 4591.810
1019.503, 4577.068
1021.431, 4568.753
1023.360, 4575.823
1025.288, 4586.353
1027.217, 4599.500
1029.145, 4618.042
1031.074, 4640.364
1033.002, 4665.030
1034.931, 4692.730
1036.859, 4725.792
1038.788, 4768.085
1040.716, 4796.833
1042.645, 4803.427
1044.573, 4801.810
1046.501, 4797.556
1048.430, 4794.635
1050.358, 4806.688
1052.287, 4844.221
1054.215, 4883.826
1056.144, 4915.484
1058.072, 4938.600
1060.001, 4961.781
1061.929, 4990.381
1063.858, 5018.955
1065.786, 5045.409
1067.715, 5065.356
1069.643, 5079.886
1071.572, 5097.522
1073.500, 5121.651
1075.428, 5156.007
1077.357, 5181.091
1079.285, 5189.531
1081.214, 5199.502
1083.142, 5223.726
1085.071, 5260.988
1086.999, 5295.654
1088.928, 5325.129
1090.856, 5354.322
1092.785, 5391.445
1094.713, 5440.499
1096.642, 5464.993
1098.570, 5439.468
1100.499, 5404.625
1102.427, 5409.106
1104.355, 5439.157
1106.284, 5466.373
1108.212, 5486.407
1110.141, 5507.468
1112.069, 5534.592
1113.998, 5561.451
1115.926, 5568.402
1117.855, 5546.972
1119.783, 5527.341
1121.712, 5528.510
1123.640, 5552.634
1125.569, 5569.316
1127.497, 5575.040
1129.426, 5579.819
1131.354, 5587.073
1133.282, 5595.837
1135.211, 5607.208
1137.139, 5629.449
1139.068, 5655.772
1140.996, 5680.671
1142.925, 5695.626
1144.853, 5695.432
1146.782, 5681.268
1148.710, 5678.039
1150.639, 5702.225
1152.567, 5735.575
1154.496, 5763.043
1156.424, 5772.435
1158.353, 5780.931
1160.281, 5806.448
1162.209, 5836.604
1164.138, 5862.669
1166.066, 5880.990
1167.995, 5896.002
1169.923, 5914.914
1171.852, 5938.065
1173.780, 5954.940
1175.709, 5970.161
1177.637, 5997.387
1179.566, 6043.741
1181.494, 6076.501
1183.423, 6070.559
1185.351, 6066.819
1187.280, 6089.063
1189.208, 6134.724
1191.136, 6170.707
1193.065, 6199.668
1194.993, 6233.667
1196.922, 6250.875
1198.850, 6249.271
1200.779, 6248.729
1202.707, 6274.503
1204.636, 6300.928
1206.564, 6307.324
1208.493, 6313.597
1210.421, 6337.732
1212.350, 6374.202
1214.278, 6395.552
1216.207, 6386.446
1218.135, 6379.995
1220.063, 6402.699
1221.992, 6440.269
1223.920, 6465.922
1225.849, 6467.611
1227.777, 6476.692
1229.706, 6501.870
1231.634, 6533.787
1233.563, 6564.736
1235.491, 6590.327
1237.420, 6605.292
1239.348, 6618.025
1241.277, 6635.746
1243.205, 6643.096
1245.134, 6643.917
1247.062, 6657.703
1248.990, 6690.658
1250.919, 6717.715
1252.847, 6731.591
1254.776, 6746.735
1256.704, 6761.453
1258.633, 6772.816
1260.561, 6783.971
1262.490, 6799.190
1264.418, 6813.997
1266.347, 6823.771
1268.275, 6834.597
1270.204, 6850.324
1272.132, 6869.600
1274.061, 6894.384
1275.989, 6941.796
1277.917, 6981.746
1279.846, 6993.085
1281.774, 6983.638
1283.703, 6982.180
1285.631, 6991.140
1287.560, 7007.571
1289.488, 7036.437
1291.417, 7064.133
1293.345, 7074.315
1295.274, 7072.889
1297.202, 7099.904
1299.131, 7180.328
1301.059, 7248.880
1302.988, 7271.106
1304.916, 7270.576
1306.844, 7273.712
1308.773, 7278.949
1310.701, 7296.675
1312.630, 7345.472
1314.558, 7379.438
1316.487, 7374.986
1318.415, 7349.650
1320.344, 7349.515
1322.272, 7397.669
1324.201, 7433.096
1326.129, 7456.476
1328.058, 7482.409
1329.986, 7504.188
1331.915, 7515.096
1333.843, 7535.763
1335.771, 7580.828
1337.700, 7624.749
1339.628, 7650.374
1341.557, 7658.079
1343.485, 7660.335
1345.414, 7660.314
1347.342, 7687.597
1349.271, 7758.451
1351.199, 7830.874
1353.128, 7900.208
1355.056, 7955.766
1356.985, 7966.497
1358.913, 7913.262
1360.842, 7887.781
1362.770, 7933.586
1364.698, 7984.375
1366.627, 8001.399
1368.555, 7991.163
1370.484, 8000.407
1372.412, 8043.789
1374.341, 8090.071
1376.269, 8141.122
1378.198, 8182.027
1380.126, 8199.149
1382.055, 8191.847
1383.983, 8198.765
1385.912, 8227.857
1387.840, 8261.152
1389.769, 8293.779
1391.697, 8327.130
1393.625, 8365.991
1395.554, 8407.165
1397.482, 8435.776
1399.411, 8441.051
1401.339, 8452.246
1403.268, 8488.188
1405.196, 8531.660
1407.125, 8555.900
1409.053, 8559.021
1410.982, 8581.204
1412.910, 8640.771
1414.839, 8700.355
1416.767, 8754.824
1418.696, 8795.333
1420.624, 8800.169
1422.552, 8758.108
1424.481, 8741.565
1426.409, 8770.809
1428.338, 8812.644
1430.266, 8870.649
1432.195, 8930.364
1434.123, 8963.938
1436.052, 8958.228
1437.980, 8958.016
1439.909, 8952.101
1441.837, 8963.831
1443.766, 9018.805
1445.694, 9093.664
1447.623, 9137.058
1449.551, 9133.310
1451.479, 9147.447
1453.408, 9187.526
1455.336, 9240.182
1457.265, 9312.958
1459.193, 9390.656
1461.122, 9439.107
1463.050, 9452.885
1464.979, 9471.563
1466.907, 9499.025
1468.836, 9534.939
1470.764, 9583.871
1472.693, 9637.161
1474.621, 9685.500
1476.550, 9731.758
1478.478, 9778.617
1480.406, 9823.897
1482.335, 9868.971
1484.263, 9920.017
1486.192, 9975.438
1488.120, 10024.41
1490.049, 10065.19
1491.977, 10110.51
1493.906, 10169.06
1495.834, 10217.50
1497.763, 10243.22
1499.691, 10253.94
1501.620, 10261.98
1503.548, 10267.31
1505.477, 10265.14
1507.405, 10260.03
1509.333, 10245.07
1511.262, 10198.33
1513.190, 10153.97
1515.119, 10158.80
1517.047, 10221.32
1518.976, 10274.39
1520.904, 10322.14
1522.833, 10356.12
1524.761, 10366.82
1526.690, 10367.38
1528.618, 10368.87
1530.547, 10370.62
1532.475, 10376.97
1534.404, 10382.45
1536.332, 10402.02
1538.260, 10446.95
1540.189, 10494.36
1542.117, 10526.95
1544.046, 10550.26
1545.974, 10582.56
1547.903, 10634.71
1549.831, 10675.31
1551.760, 10687.48
1553.688, 10703.59
1555.617, 10741.89
1557.545, 10796.92
1559.474, 10856.38
1561.402, 10922.20
1563.331, 10973.80
1565.259, 11006.97
1567.188, 11022.34
1569.116, 11012.80
1571.044, 10991.59
1572.973, 10978.55
1574.901, 10976.29
1576.830, 10980.09
1578.758, 10988.23
1580.687, 11007.91
1582.615, 11049.01
1584.544, 11096.97
1586.472, 11136.22
1588.401, 11167.61
1590.329, 11199.33
1592.258, 11231.75
1594.186, 11256.63
1596.115, 11260.63
1598.043, 11268.18
1599.971, 11308.39
1601.900, 11362.15
1603.828, 11383.05
1605.757, 11368.84
1607.685, 11365.12
1609.614, 11372.01
1611.542, 11398.60
1613.471, 11475.67
1615.399, 11559.82
1617.328, 11587.27
1619.256, 11561.49
1621.185, 11558.22
1623.113, 11590.13
1625.042, 11628.70
1626.970, 11677.23
1628.898, 11716.23
1630.827, 11727.23
1632.755, 11721.02
1634.684, 11726.80
1636.612, 11748.43
1638.541, 11780.92
1640.469, 11836.41
1642.398, 11882.81
1644.326, 11886.95
1646.255, 11882.85
1648.183, 11921.55
1650.112, 11997.10
1652.040, 12036.99
1653.969, 12015.19
1655.897, 12015.03
1657.825, 12086.84
1659.754, 12162.16
1661.682, 12187.29
1663.611, 12184.67
1665.539, 12215.70
1667.468, 12287.23
1669.396, 12346.85
1671.325, 12380.97
1673.253, 12411.13
1675.182, 12437.04
1677.110, 12468.40
1679.039, 12521.13
1680.967, 12589.48
1682.896, 12641.10
1684.824, 12674.03
1686.752, 12691.87
1688.681, 12679.96
1690.609, 12676.89
1692.538, 12720.91
1694.466, 12779.04
1696.395, 12789.14
1698.323, 12753.67
1700.252, 12756.53
1702.180, 12811.12
1704.109, 12885.54
1706.037, 12995.10
1707.966, 13091.21
1709.894, 13137.57
1711.823, 13149.47
1713.751, 13154.00
1715.679, 13151.24
1717.608, 13165.86
1719.536, 13214.28
1721.465, 13255.34
1723.393, 13266.00
1725.322, 13270.95
1727.250, 13279.68
1729.179, 13299.41
1731.107, 13362.85
1733.036, 13480.05
1734.964, 13555.93
1736.893, 13550.07
1738.821, 13542.76
1740.750, 13564.51
1742.678, 13600.57
1744.606, 13644.08
1746.535, 13689.38
1748.463, 13715.56
1750.392, 13718.38
1752.320, 13731.47
1754.249, 13771.70
1756.177, 13811.89
1758.106, 13842.06
1760.034, 13867.33
1761.963, 13886.15
1763.891, 13902.29
1765.820, 13933.73
1767.748, 13979.37
1769.677, 14036.47
1771.605, 14131.60
1773.533, 14197.43
1775.462, 14177.35
1777.390, 14140.25
1779.319, 14164.73
1781.247, 14239.83
1783.176, 14295.00
1785.104, 14322.92
1787.033, 14361.81
1788.961, 14428.07
1790.890, 14486.71
1792.818, 14529.15
1794.747, 14553.31
1796.675, 14544.69
1798.604, 14514.18
1800.532, 14513.47
1802.460, 14558.05
1804.389, 14596.52
1806.317, 14635.04
1808.246, 14663.57
1810.174, 14672.19
1812.103, 14678.63
1814.031, 14693.79
1815.960, 14718.12
1817.888, 14753.23
1819.817, 14799.54
1821.745, 14853.80
1823.674, 14918.38
1825.602, 14985.59
1827.531, 15064.42
1829.459, 15131.13
1831.387, 15159.94
1833.316, 15168.93
1835.244, 15195.97
1837.173, 15241.74
1839.101, 15273.79
1841.030, 15300.94
1842.958, 15291.09
1844.887, 15198.31
1846.815, 15128.60
1848.744, 15136.94
1850.672, 15189.37
1852.601, 15265.57
1854.529, 15355.44
1856.458, 15396.65
1858.386, 15372.95
1860.314, 15400.28
1862.243, 15527.38
1864.171, 15634.87
1866.100, 15662.39
1868.028, 15659.04
1869.957, 15641.28
1871.885, 15628.10
1873.814, 15684.48
1875.742, 15811.06
1877.671, 15834.98
1879.599, 15690.42
1881.528, 15601.35
1883.456, 15656.55
1885.385, 15733.26
1887.313, 15774.65
1889.241, 15800.14
1891.170, 15824.76
1893.098, 15848.83
1895.027, 15891.82
1896.955, 15963.95
1898.884, 16022.71
1900.812, 16081.38
1902.741, 16112.89
1904.669, 16107.50
1906.598, 16084.97
1908.526, 16034.45
1910.455, 15989.34
1912.383, 16014.16
1914.312, 16109.39
1916.240, 16188.00
1918.168, 16246.96
1920.097, 16288.07
1922.025, 16296.01
1923.954, 16305.10
1925.882, 16338.09
1927.811, 16365.24
1929.739, 16354.72
1931.668, 16330.65
1933.596, 16339.84
1935.525, 16382.30
1937.453, 16442.36
1939.382, 16528.71
1941.310, 16587.06
1943.239, 16593.29
1945.167, 16585.63
1947.095, 16566.94
1949.024, 16552.17
1950.952, 16548.94
1952.881, 16562.30
1954.809, 16615.13
1956.738, 16714.47
1958.666, 16766.95
1960.595, 16725.20
1962.523, 16722.65
1964.452, 16797.80
1966.380, 16865.60
1968.309, 16890.07
1970.237, 16901.43
1972.166, 16928.34
1974.094, 16960.74
1976.022, 16972.37
1977.951, 16964.76
1979.879, 16970.43
1981.808, 16986.27
1983.736, 17037.34
1985.665, 17151.73
1987.593, 17249.22
1989.522, 17279.49
1991.450, 17300.08
1993.379, 17359.23
1995.307, 17427.88
1997.236, 17460.61
1999.164, 17465.98
2001.093, 17487.18
2003.021, 17531.30
2004.950, 17573.93
2006.878, 17608.09
2008.807, 17652.18
2010.735, 17720.86
2012.663, 17785.46
2014.592, 17811.89
2016.520, 17836.11
2018.449, 17907.50
2020.377, 18010.72
2022.306, 18095.14
2024.234, 18162.38
2026.163, 18201.04
2028.091, 18205.48
2030.020, 18205.30
2031.948, 18195.28
2033.877, 18206.28
2035.805, 18270.86
2037.734, 18340.56
2039.662, 18377.31
2041.590, 18395.68
2043.519, 18411.47
2045.447, 18424.98
2047.376, 18450.91
2049.304, 18493.46
2051.233, 18506.84
2053.161, 18450.32
2055.090, 18433.99
2057.018, 18520.54
2058.947, 18598.98
2060.875, 18611.29
2062.803, 18606.46
2064.732, 18636.57
2066.660, 18678.55
2068.589, 18672.91
2070.517, 18621.76
2072.446, 18614.51
2074.374, 18658.61
2076.303, 18704.40
2078.231, 18741.98
2080.160, 18794.65
2082.088, 18882.96
2084.017, 18964.66
2085.945, 19026.34
2087.874, 19062.18
2089.802, 19042.66
2091.730, 19004.04
2093.659, 19023.52
2095.587, 19097.42
2097.516, 19164.27
2099.444, 19226.98
2101.373, 19276.77
2103.301, 19294.70
2105.230, 19328.28
2107.158, 19411.63
2109.087, 19469.38
2111.015, 19435.84
2112.944, 19406.23
2114.872, 19489.80
2116.801, 19597.89
2118.729, 19572.37
2120.657, 19458.27
2122.586, 19418.16
2124.514, 19458.03
2126.443, 19506.87
2128.371, 19564.87
2130.300, 19614.43
2132.228, 19642.48
2134.157, 19675.29
2136.085, 19721.23
2138.014, 19769.90
2139.942, 19820.21
2141.871, 19864.88
2143.799, 19897.33
2145.728, 19917.03
2147.656, 19917.79
2149.584, 19902.75
2151.513, 19905.74
2153.441, 19930.66
2155.370, 19938.16
2157.298, 19913.16
2159.227, 19913.95
2161.155, 19979.44
2163.084, 20040.48
2165.012, 20065.26
2166.941, 20087.57
2168.869, 20132.89
2170.798, 20182.50
2172.726, 20216.37
2174.655, 20233.38
2176.583, 20221.45
2178.511, 20181.19
2180.440, 20189.85
2182.368, 20250.81
2184.297, 20329.40
2186.225, 20438.33
2188.154, 20503.66
2190.082, 20494.76
2192.011, 20472.31
2193.939, 20442.37
2195.868, 20431.87
2197.796, 20476.64
2199.725, 20532.01
2201.653, 20545.46
2203.582, 20537.90
2205.510, 20551.72
2207.438, 20582.15
2209.367, 20605.36
2211.295, 20620.31
2213.224, 20626.19
2215.152, 20620.83
2217.081, 20619.01
2219.009, 20613.48
2220.938, 20641.71
2222.866, 20755.73
2224.795, 20851.15
2226.723, 20869.68
2228.652, 20870.68
2230.580, 20889.87
2232.509, 20921.43
2234.437, 20969.24
2236.365, 21020.77
2238.294, 21037.21
2240.222, 21024.23
2242.151, 21029.87
2244.079, 21054.09
2246.008, 21089.43
2247.936, 21136.51
2249.865, 21180.31
2251.793, 21220.38
2253.722, 21250.12
2255.650, 21270.54
2257.579, 21277.01
2259.507, 21255.26
2261.436, 21234.52
2263.364, 21235.38
2265.292, 21246.38
2267.221, 21258.53
2269.149, 21272.55
2271.078, 21292.67
2273.006, 21316.49
2274.935, 21322.65
2276.863, 21314.74
2278.792, 21357.07
2280.720, 21470.45
2282.649, 21546.03
2284.577, 21533.39
2286.506, 21549.51
2288.434, 21620.81
2290.363, 21686.49
2292.291, 21737.16
2294.219, 21772.13
2296.148, 21772.63
2298.076, 21779.63
2300.005, 21835.11
2301.933, 21900.40
2303.862, 21937.69
2305.790, 21956.22
2307.719, 21974.20
2309.647, 21988.48
2311.576, 21971.85
2313.504, 21923.06
2315.433, 21934.02
2317.361, 22014.65
2319.290, 22086.33
2321.218, 22143.70
2323.146, 22183.45
2325.075, 22192.46
2327.003, 22213.90
2328.932, 22260.79
2330.860, 22319.04
2332.789, 22409.75
2334.717, 22478.27
2336.646, 22479.19
2338.574, 22465.52
2340.503, 22477.55
2342.431, 22501.63
2344.360, 22523.63
2346.288, 22545.34
2348.217, 22562.23
2350.145, 22583.98
2352.073, 22655.68
2354.002, 22773.54
2355.930, 22817.04
2357.859, 22754.58
2359.787, 22769.56
2361.716, 22883.61
2363.644, 23009.30
2365.573, 23171.38
2367.501, 23246.62
2369.430, 23169.57
2371.358, 23109.08
2373.287, 23147.17
2375.215, 23176.71
2377.144, 23133.92
2379.072, 23096.25
2381.000, 23097.21
2382.929, 23138.76
2384.857, 23240.81
2386.786, 23365.45
2388.714, 23482.49
2390.643, 23576.06
2392.571, 23594.58
2394.500, 23572.49
2396.428, 23623.64
2398.357, 23735.24
2400.285, 23773.11
2402.214, 23727.50
2404.142, 23746.25
2406.071, 23853.41
2407.999, 23939.90
2409.927, 23998.21
2411.856, 24050.31
2413.784, 24094.94
2415.713, 24137.89
2417.641, 24177.38
2419.570, 24219.74
2421.498, 24282.45
2423.427, 24328.08
2425.355, 24301.40
2427.284, 24311.36
2429.212, 24484.75
2431.141, 24637.10
2433.069, 24601.37
2434.998, 24520.78
2436.926, 24513.78
2438.854, 24550.31
2440.783, 24605.88
2442.711, 24668.89
2444.640, 24708.51
2446.568, 24734.80
2448.497, 24798.76
2450.425, 24887.49
2452.354, 24889.25
2454.282, 24813.19
2456.211, 24792.20
2458.139, 24833.40
2460.068, 24865.81
2461.996, 24888.76
2463.925, 24892.89
2465.853, 24877.51
2467.781, 24844.49
2469.710, 24784.22
2471.638, 24727.37
2473.567, 24669.66
2475.495, 24641.07
2477.424, 24661.80
2479.352, 24690.20
2481.281, 24697.34
2483.209, 24727.18
2485.138, 24825.30
2487.066, 24912.01
2488.995, 24941.48
2490.923, 24942.69
2492.852, 24915.53
2494.780, 24890.94
2496.709, 24893.81
2498.637, 24913.96
2500.566, 24956.63
2502.494, 24996.10
2504.423, 24975.54
2506.351, 24933.99
2508.280, 24973.35
2510.208, 25052.55
2512.136, 25032.22
2514.065, 24947.50
2515.993, 24920.15
2517.922, 24944.04
2519.850, 24949.17
2521.779, 24933.80
2523.707, 24982.46
2525.636, 25118.54
2527.564, 25129.43
2529.493, 25000.78
2531.421, 24924.00
2533.350, 24913.27
2535.278, 24981.46
2537.207, 25173.14
2539.135, 25290.26
2541.063, 25249.01
2542.992, 25231.93
2544.920, 25253.98
2546.849, 25287.41
2548.777, 25351.04
2550.706, 25370.02
2552.634, 25295.62
2554.563, 25247.76
2556.491, 25269.65
2558.420, 25326.97
2560.348, 25454.08
2562.277, 25539.39
2564.205, 25499.46
2566.134, 25447.22
2568.062, 25416.39
2569.990, 25409.54
2571.919, 25434.06
2573.847, 25480.27
2575.776, 25569.75
2577.704, 25650.01
2579.633, 25669.15
2581.561, 25666.88
2583.490, 25669.32
2585.418, 25681.78
2587.347, 25732.36
2589.275, 25774.73
2591.204, 25727.00
2593.132, 25652.24
2595.061, 25636.69
2596.989, 25667.86
2598.917, 25755.57
2600.846, 25853.32
2602.774, 25852.65
2604.703, 25796.33
2606.631, 25780.41
2608.560, 25793.21
2610.488, 25778.34
2612.417, 25759.17
2614.345, 25870.47
2616.274, 26063.93
2618.202, 26086.37
2620.131, 25977.82
2622.059, 25978.38
2623.988, 26077.29
2625.916, 26119.41
2627.844, 26107.59
2629.773, 26110.13
2631.701, 26127.23
2633.630, 26131.71
2635.558, 26122.60
2637.487, 26128.53
2639.415, 26150.06
2641.344, 26142.48
2643.272, 26090.16
2645.201, 26092.69
2647.129, 26159.20
2649.058, 26208.38
2650.986, 26240.59
2652.915, 26215.29
2654.843, 26106.82
2656.771, 26102.65
2658.700, 26283.99
2660.628, 26358.41
2662.557, 26295.17
2664.485, 26287.65
2666.414, 26356.92
2668.342, 26418.70
2670.271, 26454.18
2672.199, 26495.55
2674.128, 26554.96
2676.056, 26589.16
2677.985, 26589.20
2679.913, 26603.16
2681.842, 26649.78
2683.770, 26648.25
2685.698, 26550.19
2687.627, 26526.22
2689.555, 26675.93
2691.484, 26748.96
2693.412, 26706.80
2695.341, 26680.46
2697.269, 26682.31
2699.198, 26715.03
2701.126, 26802.33
2703.055, 26854.36
2704.983, 26826.94
2706.912, 26828.78
2708.840, 26880.86
2710.769, 26915.96
2712.697, 26917.60
2714.625, 26927.90
2716.554, 26971.70
2718.482, 26987.52
2720.411, 26948.89
2722.339, 26927.54
2724.268, 26933.72
2726.196, 26949.14
2728.125, 26974.38
2730.053, 26996.21
2731.982, 26991.88
2733.910, 27020.27
2735.839, 27107.97
2737.767, 27153.08
2739.696, 27133.22
2741.624, 27120.08
2743.552, 27133.63
2745.481, 27134.69
2747.409, 27097.92
2749.338, 27094.13
2751.266, 27135.90
2753.195, 27178.86
2755.123, 27224.59
2757.052, 27225.83
2758.980, 27145.76
2760.909, 27128.44
2762.837, 27228.61
2764.766, 27286.83
2766.694, 27295.23
2768.623, 27282.84
2770.551, 27242.21
2772.479, 27266.10
2774.408, 27389.20
2776.336, 27492.31
2778.265, 27572.71
2780.193, 27609.25
2782.122, 27594.47
2784.050, 27614.86
2785.979, 27686.46
2787.907, 27683.44
2789.836, 27582.67
2791.764, 27549.32
2793.693, 27590.31
2795.621, 27589.96
2797.550, 27548.66
2799.478, 27545.01
2801.406, 27582.15
2803.335, 27649.80
2805.263, 27746.18
2807.192, 27684.67
2809.120, 27503.60
2811.049, 27525.72
2812.977, 27716.17
2814.906, 27763.82
2816.834, 27701.72
2818.763, 27749.88
2820.691, 27868.72
2822.620, 27841.87
2824.548, 27735.50
2826.477, 27766.88
2828.405, 27868.59
2830.333, 27840.90
2832.262, 27752.92
2834.190, 27777.69
2836.119, 27852.82
2838.047, 27864.75
2839.976, 27846.82
2841.904, 27831.06
2843.833, 27832.60
2845.761, 27908.43
2847.690, 27980.45
2849.618, 27935.38
2851.547, 27868.64
2853.475, 27861.20
2855.404, 27889.86
2857.332, 27968.34
2859.260, 28028.49
2861.189, 28005.42
2863.117, 27966.16
2865.046, 27955.52
2866.974, 27939.26
2868.903, 27861.19
2870.831, 27832.58
2872.760, 27951.69
2874.688, 28027.76
2876.617, 27952.39
2878.545, 27885.70
2880.474, 27883.44
2882.402, 27902.32
2884.331, 27959.58
2886.259, 27976.92
2888.188, 27930.61
2890.116, 27894.26
2892.044, 27882.41
2893.973, 27887.91
2895.901, 27905.51
2897.830, 27950.25
2899.758, 28026.10
2901.687, 28049.52
2903.615, 28001.72
2905.544, 27964.22
2907.472, 27937.33
2909.401, 27954.88
2911.329, 28012.55
2913.258, 28061.57
2915.186, 28098.69
2917.115, 28103.27
2919.043, 28086.95
2920.971, 28106.69
2922.900, 28139.65
2924.828, 28094.79
2926.757, 28037.78
2928.685, 28114.28
2930.614, 28227.88
2932.542, 28212.29
2934.471, 28172.57
2936.399, 28239.47
2938.328, 28321.77
2940.256, 28354.46
2942.185, 28354.58
2944.113, 28316.35
2946.042, 28279.01
2947.970, 28267.58
2949.898, 28255.01
2951.827, 28228.62
2953.755, 28202.69
2955.684, 28158.41
2957.612, 28167.84
2959.541, 28262.75
2961.469, 28333.67
2963.398, 28351.10
2965.326, 28354.59
2967.255, 28343.74
2969.183, 28331.52
2971.112, 28318.46
2973.040, 28316.63
2974.969, 28327.60
2976.897, 28313.71
2978.825, 28281.29
2980.754, 28309.57
2982.682, 28371.30
2984.611, 28351.62
2986.539, 28303.38
2988.468, 28353.37
2990.396, 28447.46
2992.325, 28511.07
2994.253, 28547.01
2996.182, 28544.91
2998.110, 28534.62
3000.039, 28539.00
3001.967, 28551.83
3003.896, 28580.74
3005.824, 28601.84
3007.752, 28580.98
3009.681, 28592.48
3011.609, 28701.82
3013.538, 28755.93
3015.466, 28711.21
3017.395, 28705.74
3019.323, 28788.78
3021.252, 28783.17
3023.180, 28654.84
3025.109, 28584.96
3027.037, 28576.46
3028.966, 28652.21
3030.894, 28787.86
3032.823, 28843.20
3034.751, 28838.01
3036.679, 28841.20
3038.608, 28835.38
3040.536, 28780.51
3042.465, 28718.65
3044.393, 28708.14
3046.322, 28709.61
3048.250, 28673.13
3050.179, 28661.91
3052.107, 28735.74
3054.036, 28803.75
3055.964, 28797.66
3057.893, 28836.36
3059.821, 28961.65
3061.750, 29053.17
3063.678, 29087.80
3065.606, 29066.48
3067.535, 28977.78
3069.463, 28945.03
3071.392, 28966.73
3073.320, 28948.29
3075.249, 28903.20
3077.177, 28914.10
3079.106, 28954.48
3081.034, 28935.93
3082.963, 28911.72
3084.891, 28985.02
3086.820, 29054.73
3088.748, 28970.10
3090.677, 28915.36
3092.605, 29054.08
3094.533, 29156.21
3096.462, 29067.78
3098.390, 29021.21
3100.319, 29077.49
3102.247, 29124.77
3104.176, 29149.06
3106.104, 29121.27
3108.033, 29022.73
3109.961, 29004.85
3111.890, 29054.38
3113.818, 29051.56
3115.747, 29018.72
3117.675, 29038.62
3119.604, 29083.01
3121.532, 29119.59
3123.460, 29127.34
3125.389, 29057.60
3127.317, 28995.92
3129.246, 29008.20
3131.174, 29048.44
3133.103, 29120.56
3135.031, 29156.07
3136.960, 29095.81
3138.888, 29067.36
3140.817, 29084.43
3142.745, 29098.91
3144.674, 29108.34
3146.602, 29081.88
3148.531, 29029.87
3150.459, 29020.23
3152.387, 29036.37
3154.316, 29051.27
3156.244, 29051.11
3158.173, 28988.34
3160.101, 28944.19
3162.030, 29036.76
3163.958, 29081.39
3165.887, 28908.95
3167.815, 28816.81
3169.744, 28928.78
3171.672, 28997.54
3173.601, 28993.22
3175.529, 28971.34
3177.458, 28937.87
3179.386, 28887.18
3181.314, 28833.05
3183.243, 28861.71
3185.171, 28934.37
3187.100, 28995.95
3189.028, 29029.14
3190.957, 28978.71
3192.885, 28939.08
3194.814, 29016.46
3196.742, 29046.96
3198.671, 28908.98
3200.599, 28829.04
3202.528, 28851.27
3204.456, 28876.96
3206.385, 28886.62
3208.313, 28967.48
3210.241, 29101.16
3212.170, 29126.74
3214.098, 29083.58
3216.027, 29070.65
3217.955, 29059.43
3219.884, 28979.27
3221.812, 28927.56
3223.741, 29036.54
3225.669, 29090.28
3227.598, 28928.30
3229.526, 28878.69
3231.455, 29038.76
3233.383, 29090.31
3235.312, 28965.28
3237.240, 28956.67
3239.168, 29044.22
3241.097, 29149.99
3243.025, 29236.75
3244.954, 29227.32
3246.882, 29158.43
3248.811, 29024.32
3250.739, 28931.44
3252.668, 28985.73
3254.596, 29034.53
3256.525, 29035.96
3258.453, 29022.95
3260.382, 28993.32
3262.310, 28993.72
3264.239, 29023.91
3266.167, 29043.88
3268.095, 29058.18
3270.024, 29101.90
3271.952, 29134.28
3273.881, 29057.18
3275.809, 28996.47
3277.738, 29044.48
3279.666, 29123.64
3281.595, 29222.45
3283.523, 29281.46
3285.452, 29278.65
3287.380, 29325.11
3289.309, 29431.90
3291.237, 29373.57
3293.166, 29209.79
3295.094, 29181.44
3297.022, 29212.22
3298.951, 29201.24
3300.879, 29197.06
3302.808, 29240.08
3304.736, 29289.58
3306.665, 29318.83
3308.593, 29365.15
3310.522, 29436.66
3312.450, 29434.50
3314.379, 29359.76
3316.307, 29391.32
3318.236, 29484.56
3320.164, 29502.20
3322.093, 29484.48
3324.021, 29466.49
3325.949, 29455.28
3327.878, 29452.06
3329.806, 29469.26
3331.735, 29519.47
3333.663, 29561.09
3335.592, 29589.07
3337.520, 29606.83
3339.449, 29616.03
3341.377, 29628.48
3343.306, 29637.23
3345.234, 29615.88
3347.163, 29604.75
3349.091, 29663.22
3351.020, 29701.11
3352.948, 29677.47
3354.876, 29631.21
3356.805, 29559.29
3358.733, 29578.15
3360.662, 29685.95
3362.590, 29750.57
3364.519, 29769.85
3366.447, 29720.66
3368.376, 29662.25
3370.304, 29648.81
3372.233, 29673.74
3374.161, 29764.60
3376.090, 29810.86
3378.018, 29769.02
3379.947, 29719.46
3381.875, 29668.62
3383.803, 29702.35
3385.732, 29776.88
3387.660, 29756.23
3389.589, 29730.83
3391.517, 29814.71
3393.446, 29892.79
3395.374, 29880.25
3397.303, 29906.36
3399.231, 30005.21
3401.160, 30028.38
3403.088, 29969.64
3405.017, 29931.73
3406.945, 29919.52
3408.874, 29950.26
3410.802, 29995.36
3412.730, 30026.40
3414.659, 30057.22
3416.587, 30088.84
3418.516, 30132.04
3420.444, 30200.83
3422.373, 30176.09
3424.301, 30079.43
3426.230, 30067.18
3428.158, 30110.33
3430.087, 30199.46
3432.015, 30244.62
3433.944, 30119.83
3435.872, 30051.02
3437.801, 30129.93
3439.729, 30165.87
3441.657, 30132.45
3443.586, 30130.95
3445.514, 30163.17
3447.443, 30263.78
3449.371, 30361.67
3451.300, 30347.56
3453.228, 30341.00
3455.157, 30424.34
3457.085, 30448.88
3459.014, 30341.41
3460.942, 30311.01
3462.871, 30345.83
3464.799, 30311.20
3466.728, 30265.66
3468.656, 30327.40
3470.584, 30414.51
3472.513, 30486.50
3474.441, 30522.72
3476.370, 30507.00
3478.298, 30466.48
3480.227, 30405.30
3482.155, 30377.17
3484.084, 30378.34
3486.012, 30423.55
3487.941, 30454.91
3489.869, 30375.60
3491.798, 30351.38
3493.726, 30462.41
3495.655, 30550.25
3497.583, 30591.31
3499.511, 30546.38
3501.440, 30460.21
3503.368, 30546.85
3505.297, 30653.40
3507.225, 30598.07
3509.154, 30541.54
3511.082, 30543.29
3513.011, 30566.82
3514.939, 30607.99
3516.868, 30656.92
3518.796, 30707.85
3520.725, 30732.41
3522.653, 30761.92
3524.582, 30883.80
3526.510, 30938.57
3528.438, 30796.09
3530.367, 30732.54
3532.295, 30779.71
3534.224, 30830.97
3536.152, 30875.81
3538.081, 30895.19
3540.009, 30899.75
3541.938, 30897.55
3543.866, 30898.61
3545.795, 30914.67
3547.723, 30923.98
3549.652, 30926.05
3551.580, 30948.28
3553.509, 30983.08
3555.437, 31005.91
3557.365, 31028.55
3559.294, 31070.03
3561.222, 31100.22
3563.151, 31113.89
3565.079, 31102.57
3567.008, 31068.41
3568.936, 31100.72
3570.865, 31180.99
3572.793, 31299.48
3574.722, 31385.57
3576.650, 31365.89
3578.579, 31315.15
3580.507, 31232.13
3582.436, 31246.35
3584.364, 31346.88
3586.292, 31337.55
3588.221, 31303.45
3590.149, 31384.21
3592.078, 31457.13
3594.006, 31450.12
3595.935, 31479.40
3597.863, 31580.54
3599.792, 31632.24
3601.720, 31642.80
3603.649, 31619.54
3605.577, 31612.85
3607.506, 31706.29
3609.434, 31760.75
3611.363, 31689.02
3613.291, 31681.09
3615.219, 31739.03
3617.148, 31826.30
3619.076, 31915.72
3621.005, 31965.01
3622.933, 31988.60
3624.862, 31999.72
3626.790, 31952.39
3628.719, 31833.24
3630.647, 31882.52
3632.576, 32032.89
3634.504, 32031.84
3636.433, 32024.13
3638.361, 32165.20
3640.290, 32261.47
3642.218, 32240.97
3644.146, 32197.44
3646.075, 32151.76
3648.003, 32243.80
3649.932, 32354.44
3651.860, 32278.83
3653.789, 32237.01
3655.717, 32371.40
3657.646, 32498.16
3659.574, 32598.57
3661.503, 32563.65
3663.431, 32471.80
3665.360, 32475.77
3667.288, 32526.28
3669.217, 32634.64
3671.145, 32685.26
3673.073, 32662.35
3675.002, 32681.60
3676.930, 32722.94
3678.859, 32687.45
3680.787, 32673.10
3682.716, 32809.57
3684.644, 32869.83
3686.573, 32801.02
3688.501, 32830.80
3690.430, 32941.38
3692.358, 33053.47
3694.287, 33103.78
3696.215, 32939.46
3698.144, 32908.71
3700.072, 33116.97
3702.000, 33248.32
3703.929, 33281.30
3705.857, 33185.96
3707.786, 33102.48
3709.714, 33225.79
3711.643, 33317.90
3713.571, 33304.54
3715.500, 33299.23
3717.428, 33314.61
3719.357, 33341.69
3721.285, 33385.48
3723.214, 33465.96
3725.142, 33522.32
3727.071, 33529.47
3728.999, 33534.61
3730.927, 33543.28
3732.856, 33559.35
3734.784, 33579.46
3736.713, 33582.17
3738.641, 33624.95
3740.570, 33736.79
3742.498, 33778.74
3744.427, 33756.41
3746.355, 33834.08
3748.284, 33921.16
3750.212, 33901.38
3752.141, 33895.87
3754.069, 33945.43
3755.998, 33978.91
3757.926, 33994.21
3759.854, 34011.99
3761.783, 34028.74
3763.711, 34027.42
3765.640, 34064.29
3767.568, 34160.03
3769.497, 34174.24
3771.425, 34134.48
3773.354, 34233.95
3775.282, 34311.55
3777.211, 34166.86
3779.139, 34105.38
3781.068, 34187.93
3782.996, 34272.26
3784.925, 34347.25
3786.853, 34394.43
3788.781, 34436.37
3790.710, 34495.71
3792.638, 34527.93
3794.567, 34528.14
3796.495, 34542.17
3798.424, 34561.63
3800.352, 34556.23
3802.281, 34564.30
3804.209, 34617.22
3806.138, 34667.20
3808.066, 34707.19
3809.995, 34690.55
3811.923, 34676.04
3813.852, 34771.87
3815.780, 34835.54
3817.708, 34793.56
3819.637, 34753.22
3821.565, 34738.34
3823.494, 34839.88
3825.422, 34974.34
3827.351, 35095.78
3829.279, 35154.15
3831.208, 35136.05
3833.136, 35047.23
3835.065, 34974.14
3836.993, 35189.22
3838.922, 35351.34
3840.850, 35229.76
3842.779, 35226.77
3844.707, 35362.62
3846.635, 35312.28
3848.564, 35230.24
3850.492, 35358.98
3852.421, 35435.49
3854.349, 35352.52
3856.278, 35353.14
3858.206, 35453.21
3860.135, 35593.49
3862.063, 35710.21
3863.992, 35760.98
3865.920, 35799.18
3867.849, 35827.89
3869.777, 35933.88
3871.706, 36083.52
3873.634, 36286.93
3875.563, 36397.38
3877.491, 36351.32
3879.419, 36380.05
3881.348, 36493.42
3883.276, 36650.04
3885.205, 36805.31
3887.133, 36957.36
3889.062, 37064.84
3890.990, 37105.13
3892.919, 37172.22
3894.847, 37272.61
3896.776, 37367.82
3898.704, 37483.01
3900.633, 37610.13
3902.561, 37706.54
3904.490, 37793.21
3906.418, 37835.95
3908.346, 37887.02
3910.275, 38073.80
3912.203, 38208.39
3914.132, 38213.70
3916.060, 38273.09
3917.989, 38384.96
3919.917, 38481.28
3921.846, 38604.35
3923.774, 38709.35
3925.703, 38837.97
3927.631, 39014.20
3929.560, 39127.62
3931.488, 39176.20
3933.417, 39216.18
3935.345, 39270.83
3937.273, 39296.45
3939.202, 39397.24
3941.130, 39518.20
3943.059, 39509.32
3944.987, 39581.45
3946.916, 39786.95
3948.844, 39979.04
3950.773, 40151.29
3952.701, 40241.95
3954.630, 40268.33
3956.558, 40346.83
3958.487, 40476.72
3960.415, 40556.33
3962.344, 40699.36
3964.272, 40857.72
3966.200, 40911.18
3968.129, 40959.25
3970.057, 40997.10
3971.986, 41087.05
3973.914, 41219.70
3975.843, 41331.93
3977.771, 41395.50
3979.700, 41449.22
3981.628, 41647.46
3983.557, 41812.71
3985.485, 41815.14
3987.414, 41888.54
3989.342, 42076.88
3991.271, 42256.05
3993.199, 42359.07
3995.127, 42309.25
3997.056, 42313.00
3998.984, 42436.22
4000.913, 42677.11
4002.841, 42864.98
4004.770, 42907.34
4006.698, 42958.14
4008.627, 43032.75
4010.555, 43190.82
4012.484, 43335.89
4014.412, 43363.86
4016.341, 43417.61
4018.269, 43546.85
4020.198, 43700.01
4022.126, 43830.27
4024.054, 43913.56
4025.983, 43981.72
4027.911, 44017.96
4029.840, 44043.38
4031.768, 44094.27
4033.697, 44226.26
4035.625, 44370.65
4037.554, 44500.15
4039.482, 44557.95
4041.411, 44574.55
4043.339, 44743.79
4045.268, 44909.10
4047.196, 44930.03
4049.125, 45017.24
4051.053, 45169.61
4052.981, 45175.79
4054.910, 45178.07
4056.838, 45301.13
4058.767, 45486.42
4060.695, 45712.20
4062.624, 45711.14
4064.552, 45676.06
4066.481, 45882.60
4068.409, 46066.11
4070.338, 46169.77
4072.266, 46219.48
4074.195, 46254.34
4076.123, 46309.76
4078.052, 46399.57
4079.980, 46549.01
4081.908, 46631.56
4083.837, 46659.99
4085.765, 46639.62
4087.694, 46713.68
4089.622, 47022.18
4091.551, 47121.23
4093.479, 47090.61
4095.408, 47210.92
4097.336, 47359.86
4099.265, 47496.66
4101.193, 47491.44
4103.122, 47391.41
4105.050, 47558.67
4106.979, 47800.00
4108.907, 47909.99
4110.835, 47952.21
4112.764, 48010.94
4114.692, 48203.82
4116.621, 48372.57
4118.549, 48413.77
4120.478, 48447.45
4122.406, 48473.95
4124.335, 48676.19
4126.263, 48930.54
4128.192, 48916.20
4130.120, 48931.63
4132.049, 49181.00
4133.977, 49335.44
4135.906, 49371.78
4137.834, 49433.23
4139.763, 49488.58
4141.691, 49564.38
4143.620, 49684.31
4145.548, 49737.16
4147.477, 49741.44
4149.405, 49847.70
4151.333, 50000.95
4153.262, 50055.29
4155.190, 50098.78
4157.119, 50363.57
4159.047, 50643.61
4160.976, 50767.91
4162.904, 50863.14
4164.833, 50966.43
4166.761, 50977.65
4168.689, 50995.76
4170.618, 51032.54
4172.546, 51176.24
4174.475, 51420.79
4176.403, 51633.98
4178.332, 51722.41
4180.260, 51582.06
4182.189, 51683.38
4184.117, 51983.93
4186.046, 51928.03
4187.974, 51836.41
4189.903, 51974.50
4191.831, 52088.73
4193.760, 52162.21
4195.688, 52172.02
4197.617, 52212.54
4199.545, 52369.66
4201.474, 52559.67
4203.402, 52686.42
4205.331, 52697.24
4207.259, 52668.27
4209.188, 52539.20
4211.116, 52589.28
4213.044, 52736.30
4214.973, 52771.52
4216.901, 52811.54
4218.830, 52914.16
4220.758, 53006.90
4222.687, 53077.38
4224.615, 53015.98
4226.543, 53046.20
4228.472, 53342.01
4230.400, 53542.55
4232.329, 53630.09
4234.257, 53536.44
4236.186, 53555.23
4238.114, 53809.26
4240.043, 53914.98
4241.971, 53941.73
4243.900, 54018.13
4245.828, 54076.27
4247.757, 54102.06
4249.685, 54169.12
4251.614, 54261.60
4253.542, 54286.23
4255.471, 54434.26
4257.399, 54729.64
4259.328, 54671.41
4261.256, 54534.20
4263.185, 54621.24
4265.113, 54592.77
4267.042, 54470.64
4268.970, 54641.73
4270.898, 54845.68
4272.827, 54903.74
4274.755, 54850.39
4276.684, 54740.30
4278.612, 54730.16
4280.541, 54826.26
4282.469, 55133.84
4284.397, 55134.90
4286.326, 54972.35
4288.254, 54909.90
4290.183, 54983.43
4292.111, 55257.77
4294.040, 55160.89
4295.968, 54968.97
4297.897, 55130.28
4299.825, 55181.00
4301.754, 55047.22
4303.682, 55171.11
4305.611, 55356.77
4307.539, 55443.95
4309.468, 55456.42
4311.396, 55415.21
4313.325, 55400.55
4315.253, 55429.02
4317.182, 55529.09
4319.110, 55572.61
4321.039, 55585.25
4322.967, 55667.33
4324.896, 55707.46
4326.824, 55665.14
4328.752, 55660.55
4330.681, 55681.64
4332.609, 55728.56
4334.538, 55732.50
4336.466, 55690.30
4338.395, 55724.53
4340.323, 55794.16
4342.251, 55863.55
4344.180, 56003.72
4346.108, 56159.11
4348.037, 56119.68
4349.965, 56101.63
4351.894, 56190.45
4353.822, 56180.64
4355.751, 56130.48
4357.679, 56110.68
4359.608, 56158.09
4361.536, 56255.82
4363.465, 56242.25
4365.393, 56230.66
4367.322, 56325.72
4369.250, 56365.96
4371.179, 56355.94
4373.107, 56340.55
4375.036, 56326.84
4376.964, 56320.90
4378.893, 56240.56
4380.821, 56180.13
4382.750, 56278.43
4384.678, 56445.71
4386.606, 56630.63
4388.535, 56412.61
4390.463, 56262.83
4392.392, 56533.14
4394.320, 56674.82
4396.249, 56709.98
4398.177, 56779.28
4400.105, 56721.42
4402.034, 56504.95
4403.962, 56355.44
4405.891, 56341.67
4407.819, 56578.96
4409.748, 56614.17
4411.676, 56491.17
4413.605, 56538.63
4415.533, 56562.87
4417.462, 56493.20
4419.390, 56502.19
4421.319, 56540.51
4423.247, 56532.02
4425.176, 56558.57
4427.104, 56612.77
4429.033, 56547.07
4430.961, 56553.55
4432.890, 56803.11
4434.818, 56804.87
4436.747, 56742.83
4438.675, 56980.88
4440.604, 57032.36
4442.532, 56852.10
4444.460, 56913.69
4446.389, 56988.87
4448.317, 56953.84
4450.246, 56969.73
4452.174, 56993.70
4454.103, 56876.69
4456.031, 56916.77
4457.959, 57115.93
4459.888, 57041.41
4461.816, 56982.86
4463.745, 57196.43
4465.673, 57265.49
4467.602, 57240.28
4469.530, 57175.37
4471.459, 57262.07
4473.387, 57509.92
4475.316, 57413.93
4477.244, 57370.79
4479.173, 57629.89
4481.101, 57656.71
4483.030, 57555.28
4484.958, 57529.45
4486.887, 57491.71
4488.815, 57453.77
4490.744, 57620.43
4492.672, 57739.25
4494.601, 57642.89
4496.529, 57576.30
4498.458, 57565.54
4500.386, 57703.75
4502.314, 57696.05
4504.243, 57544.68
4506.171, 57445.72
4508.100, 57460.79
4510.028, 57619.97
4511.957, 57487.76
4513.885, 57343.93
4515.813, 57564.51
4517.742, 57559.53
4519.670, 57354.61
4521.599, 57131.10
4523.527, 57091.46
4525.456, 57310.74
4527.384, 57364.61
4529.313, 57312.39
4531.241, 57164.75
4533.170, 57081.36
4535.098, 57101.61
4537.027, 57360.77
4538.955, 57491.97
4540.884, 57462.19
4542.812, 57486.89
4544.741, 57410.46
4546.669, 57105.93
4548.598, 57203.57
4550.526, 57386.34
4552.455, 57235.34
4554.383, 57178.27
4556.312, 57212.74
4558.240, 57192.85
4560.168, 57202.64
4562.097, 57257.92
4564.025, 57367.53
4565.954, 57442.28
4567.882, 57405.19
4569.811, 57451.79
4571.739, 57560.02
4573.667, 57735.72
4575.596, 57810.76
4577.524, 57775.44
4579.453, 57623.93
4581.381, 57501.33
4583.310, 57451.46
4585.238, 57548.02
4587.167, 57597.41
4589.095, 57464.15
4591.024, 57256.47
4592.952, 57091.11
4594.881, 57137.79
4596.809, 57309.94
4598.738, 57523.57
4600.666, 57509.98
4602.595, 57408.18
4604.523, 57271.96
4606.452, 57209.87
4608.380, 57197.20
4610.309, 57232.01
4612.237, 57179.19
4614.166, 57109.84
4616.094, 57153.33
4618.022, 57086.40
4619.951, 56971.54
4621.879, 57074.35
4623.808, 57124.98
4625.736, 57088.44
4627.665, 57188.89
4629.593, 57250.10
4631.521, 57164.50
4633.450, 57065.54
4635.378, 56995.80
4637.307, 57004.63
4639.235, 56972.52
4641.164, 56973.53
4643.092, 57223.82
4645.021, 57295.28
4646.949, 57171.91
4648.878, 57047.63
4650.806, 56954.69
4652.735, 56910.85
4654.663, 57006.79
4656.592, 57091.91
4658.520, 57093.47
4660.449, 56992.17
4662.377, 56911.90
4664.306, 56995.75
4666.234, 56960.64
4668.163, 56901.12
4670.091, 57102.51
4672.020, 57096.52
4673.948, 56925.91
4675.876, 57057.14
4677.805, 57044.75
4679.733, 56818.38
4681.662, 56776.24
4683.590, 56804.45
4685.519, 56844.63
4687.447, 56780.17
4689.375, 56705.27
4691.304, 56693.54
4693.232, 56704.61
4695.161, 56725.98
4697.089, 56793.53
4699.018, 56652.33
4700.946, 56453.92
4702.875, 56670.41
4704.803, 56692.65
4706.732, 56512.93
4708.660, 56627.83
4710.589, 56624.10
4712.517, 56400.52
4714.446, 56465.83
4716.374, 56455.95
4718.303, 56186.36
4720.231, 56244.80
4722.160, 56386.88
4724.088, 56434.53
4726.017, 56455.61
4727.945, 56468.13
4729.874, 56488.26
4731.802, 56494.42
4733.730, 56465.55
4735.659, 56359.70
4737.587, 56233.60
4739.516, 56132.46
4741.444, 56191.98
4743.373, 56133.37
4745.301, 55971.11
4747.229, 56157.19
4749.158, 56282.51
4751.086, 56235.98
4753.015, 56165.10
4754.943, 56065.43
4756.872, 55925.14
4758.800, 56039.91
4760.729, 56121.72
4762.657, 55996.91
4764.586, 55949.49
4766.514, 55960.01
4768.443, 56017.58
4770.371, 56011.54
4772.300, 55934.19
4774.228, 55753.71
4776.157, 55757.15
4778.085, 55829.94
4780.014, 55671.34
4781.942, 55795.97
4783.871, 56031.40
4785.799, 55754.39
4787.728, 55721.65
4789.656, 55893.38
4791.584, 55657.88
4793.513, 55629.18
4795.441, 55853.65
4797.370, 55791.08
4799.298, 55700.39
4801.227, 55640.76
4803.155, 55450.79
4805.083, 55343.95
4807.012, 55400.89
4808.940, 55418.05
4810.869, 55401.16
4812.797, 55353.29
4814.726, 55370.41
4816.654, 55390.27
4818.583, 55387.45
4820.511, 55267.54
4822.440, 55094.25
4824.368, 54900.09
4826.297, 54994.02
4828.225, 55172.21
4830.154, 55291.70
4832.082, 55165.38
4834.011, 54977.77
4835.939, 54914.42
4837.868, 54775.20
4839.796, 54671.58
4841.725, 54816.70
4843.653, 54721.62
4845.582, 54610.36
4847.510, 54861.37
4849.438, 54822.11
4851.367, 54633.85
4853.295, 54592.50
4855.224, 54616.31
4857.152, 54636.41
4859.081, 54528.82
4861.009, 54540.18
4862.938, 54602.41
4864.866, 54501.26
4866.794, 54512.99
4868.723, 54570.72
4870.651, 54426.82
4872.580, 54398.18
4874.508, 54418.19
4876.437, 54190.76
4878.365, 54036.65
4880.294, 53975.07
4882.222, 53939.87
4884.151, 53951.02
4886.079, 53994.11
4888.008, 54057.47
4889.936, 53978.79
4891.865, 53829.56
4893.793, 53908.57
4895.722, 53858.88
4897.650, 53711.50
4899.579, 53713.95
4901.507, 53829.20
4903.436, 53947.85
4905.364, 53798.53
4907.292, 53607.55
4909.221, 53463.60
4911.149, 53524.91
4913.078, 53464.04
4915.006, 53329.52
4916.935, 53408.48
4918.863, 53412.23
4920.792, 53339.57
4922.720, 53315.30
4924.648, 53208.99
4926.577, 53078.19
4928.505, 53144.96
4930.434, 53074.02
4932.362, 52959.38
4934.291, 53165.47
4936.219, 53151.15
4938.148, 52991.58
4940.076, 52951.66
4942.005, 52939.93
4943.933, 52927.61
4945.862, 52874.92
4947.790, 52888.69
4949.719, 52931.06
4951.647, 52948.75
4953.576, 52811.25
4955.504, 52646.69
4957.433, 52649.57
4959.361, 52717.19
4961.290, 52717.43
4963.218, 52467.85
4965.146, 52424.22
4967.075, 52439.32
4969.003, 52331.49
4970.932, 52325.91
4972.860, 52320.49
4974.789, 52181.10
4976.717, 52148.34
4978.646, 52096.71
4980.574, 51948.75
4982.502, 51772.92
4984.431, 51772.68
4986.359, 52069.86
4988.288, 52015.09
4990.216, 51843.57
4992.145, 51676.90
4994.073, 51746.10
4996.002, 51724.62
4997.930, 51544.72
4999.859, 51585.29
5001.787, 51616.39
5003.716, 51563.61
5005.644, 51426.69
5007.573, 51254.29
5009.501, 51131.57
5011.430, 51403.68
5013.358, 51430.94
5015.287, 51229.07
5017.215, 51086.67
5019.144, 50949.91
5021.072, 50849.07
5023.000, 50843.05
5024.929, 50974.97
5026.857, 51034.55
5028.786, 50665.45
5030.714, 50624.22
5032.643, 50674.54
5034.571, 50563.20
5036.500, 50601.77
5038.428, 50658.75
5040.356, 50636.62
5042.285, 50389.84
5044.213, 50235.24
5046.142, 50321.91
5048.070, 50274.16
5049.999, 50224.85
5051.927, 50220.75
5053.856, 50288.50
5055.784, 50241.53
5057.713, 50083.43
5059.641, 49889.00
5061.570, 49910.66
5063.498, 50045.31
5065.427, 50002.34
5067.355, 49943.84
5069.284, 49895.96
5071.212, 49883.82
5073.141, 49660.88
5075.069, 49469.82
5076.998, 49635.78
5078.926, 49419.27
5080.854, 49235.78
5082.783, 49288.00
5084.711, 49228.54
5086.640, 49190.73
5088.568, 49189.18
5090.497, 48940.82
5092.425, 48848.90
5094.354, 48918.27
5096.282, 48852.94
5098.210, 48731.87
5100.139, 48671.16
5102.067, 48898.72
5103.996, 48773.27
5105.924, 48553.22
5107.853, 48555.24
5109.781, 48648.49
5111.710, 48675.54
5113.638, 48553.53
5115.567, 48411.00
5117.495, 48248.07
5119.424, 48093.66
5121.352, 48118.96
5123.281, 48128.82
5125.209, 48048.84
5127.138, 47741.79
5129.066, 47682.26
5130.995, 47782.73
5132.923, 47850.02
5134.852, 47738.50
5136.780, 47617.05
5138.708, 47656.24
5140.637, 47576.56
5142.565, 47509.34
5144.494, 47499.68
5146.422, 47330.84
5148.351, 47303.62
5150.279, 47394.42
5152.208, 47274.32
5154.136, 47207.78
5156.064, 47176.05
5157.993, 47094.75
5159.921, 46925.75
5161.850, 46808.82
5163.778, 46852.61
5165.707, 46916.71
5167.635, 46909.68
5169.564, 46808.17
5171.492, 46729.34
5173.421, 46625.46
5175.349, 46500.38
5177.278, 46384.53
5179.206, 46340.00
5181.135, 46310.45
5183.063, 46221.11
5184.992, 46113.84
5186.920, 46029.10
5188.849, 45994.99
5190.777, 45818.13
5192.706, 45839.91
5194.634, 46041.94
5196.563, 45885.06
5198.491, 45751.26
5200.419, 45691.75
5202.348, 45701.61
5204.276, 45633.02
5206.205, 45522.35
5208.133, 45389.15
5210.062, 45418.32
5211.990, 45389.09
5213.918, 45237.32
5215.847, 44971.53
5217.775, 45062.58
5219.704, 45277.83
5221.632, 44968.54
5223.561, 44955.62
5225.489, 45043.57
5227.418, 45029.27
5229.346, 44915.94
5231.275, 44688.72
5233.203, 44407.99
5235.132, 44360.89
5237.060, 44259.86
5238.989, 44146.23
5240.917, 44197.25
5242.846, 44214.41
5244.774, 44159.61
5246.703, 44021.01
5248.631, 44151.39
5250.560, 44103.50
5252.488, 43854.39
5254.417, 43846.13
5256.345, 43847.28
5258.273, 43809.53
5260.202, 43728.96
5262.130, 43507.90
5264.059, 43333.05
5265.987, 43293.39
5267.916, 43214.16
5269.844, 43154.41
5271.772, 43103.91
5273.701, 42976.66
5275.629, 43014.67
5277.558, 43006.14
5279.486, 42708.22
5281.415, 42573.61
5283.343, 42530.41
5285.272, 42529.88
5287.200, 42493.71
5289.129, 42466.21
5291.057, 42423.43
5292.986, 42313.26
5294.914, 42260.57
5296.843, 42180.62
5298.771, 42048.20
5300.700, 42201.68
5302.628, 42123.33
5304.557, 41881.75
5306.485, 41821.66
5308.414, 41781.61
5310.342, 41725.29
5312.271, 41640.46
5314.199, 41546.52
5316.127, 41455.95
5318.056, 41381.76
5319.984, 41367.88
5321.913, 41242.41
5323.841, 41124.79
5325.770, 41120.20
5327.698, 40999.98
5329.626, 40915.64
5331.555, 40875.49
5333.483, 40683.68
5335.412, 40666.92
5337.340, 40727.77
5339.269, 40742.77
5341.197, 40497.13
5343.126, 40338.64
5345.054, 40336.76
5346.983, 40315.11
5348.911, 40193.26
5350.840, 40111.55
5352.768, 40227.70
5354.697, 40153.64
5356.625, 40042.26
5358.554, 39950.04
5360.482, 39864.02
5362.411, 39644.14
5364.339, 39490.56
5366.268, 39595.69
5368.196, 39362.38
5370.125, 39219.98
5372.053, 39248.90
5373.981, 39153.46
5375.910, 39141.52
5377.838, 39104.71
5379.767, 38895.52
5381.695, 39115.50
5383.624, 39194.45
5385.552, 39057.96
5387.480, 38969.22
5389.409, 38939.84
5391.337, 38818.29
5393.266, 38525.89
5395.194, 38606.71
5397.123, 38468.19
5399.051, 38185.72
5400.980, 38298.48
5402.908, 38233.25
5404.837, 38087.90
5406.765, 37951.34
5408.694, 37855.11
5410.622, 37776.44
5412.551, 37696.18
5414.479, 37593.01
5416.408, 37526.76
5418.336, 37456.28
5420.265, 37371.52
5422.193, 37315.30
5424.122, 37306.39
5426.050, 37254.90
5427.979, 37083.78
5429.907, 36877.29
5431.835, 36971.37
5433.764, 37142.13
5435.692, 36685.65
5437.621, 36617.71
5439.549, 36593.31
5441.478, 36381.28
5443.406, 36337.28
5445.334, 36306.18
5447.263, 36272.44
5449.191, 36261.56
5451.120, 36136.30
5453.049, 36082.30
5454.977, 36088.78
5456.906, 35927.98
5458.834, 35851.57
5460.763, 35756.68
5462.691, 35580.88
5464.620, 35643.62
5466.548, 35633.83
5468.477, 35543.53
5470.405, 35458.30
5472.333, 35313.10
5474.262, 35230.30
5476.190, 35224.92
5478.119, 35226.54
5480.047, 35155.30
5481.976, 34984.88
5483.904, 34753.00
5485.833, 34815.70
5487.761, 34791.46
5489.689, 34672.69
5491.618, 34532.77
5493.546, 34512.95
5495.475, 34421.66
5497.403, 34257.77
5499.332, 34164.80
5501.260, 34103.40
5503.189, 34089.92
5505.117, 34108.62
5507.046, 34067.15
5508.974, 33885.44
5510.903, 33725.54
5512.831, 33730.82
5514.760, 33599.86
5516.688, 33534.57
5518.617, 33532.61
5520.545, 33513.52
5522.474, 33411.80
5524.402, 33294.41
5526.331, 33193.43
5528.259, 33122.52
5530.188, 33033.48
5532.116, 32913.24
5534.044, 32776.47
5535.973, 32705.90
5537.901, 32659.09
5539.830, 32636.90
5541.758, 32642.48
5543.687, 32536.83
5545.615, 32366.71
5547.543, 32251.55
5549.472, 32337.67
5551.400, 32220.83
5553.329, 32152.38
5555.257, 32106.01
5557.186, 31871.60
5559.114, 31847.37
5561.043, 31824.85
5562.971, 31712.96
5564.900, 31514.53
5566.828, 31622.68
5568.757, 31659.00
5570.685, 31437.28
5572.614, 31261.15
5574.542, 31248.81
5576.471, 31197.79
5578.399, 30969.71
5580.328, 30910.79
5582.256, 30840.05
5584.185, 30799.56
5586.113, 30842.03
5588.042, 30654.27
5589.970, 30546.89
5591.898, 30432.36
5593.827, 30109.72
5595.755, 30195.60
5597.684, 30307.30
5599.612, 30265.80
5601.541, 29907.25
5603.469, 29903.18
5605.397, 29977.13
5607.326, 29986.56
5609.254, 29873.31
5611.183, 29686.68
5613.111, 29530.73
5615.040, 29431.38
5616.968, 29346.28
5618.897, 29269.02
5620.825, 29223.82
5622.754, 29210.37
5624.682, 29190.00
5626.611, 29221.80
5628.539, 29166.77
5630.468, 28993.66
5632.396, 28880.52
5634.325, 28831.03
5636.253, 28757.33
5638.182, 28631.78
5640.110, 28549.37
5642.039, 28537.40
5643.967, 28530.28
5645.896, 28478.39
5647.824, 28355.02
5649.752, 28262.95
5651.681, 28160.76
5653.609, 28038.52
5655.538, 28034.76
5657.466, 28004.13
5659.395, 27922.34
5661.323, 27808.92
5663.251, 27834.14
5665.180, 27745.80
5667.108, 27636.59
5669.037, 27587.89
5670.965, 27587.71
5672.894, 27427.33
5674.822, 27274.54
5676.751, 27243.75
5678.679, 27280.00
5680.608, 27186.59
5682.536, 27068.42
5684.465, 27007.93
5686.393, 26996.05
5688.322, 26863.84
5690.250, 26777.59
5692.179, 26797.15
5694.107, 26746.05
5696.036, 26626.46
5697.964, 26507.24
5699.893, 26428.86
5701.821, 26395.77
5703.750, 26449.88
5705.678, 26361.41
5707.606, 26152.32
5709.535, 26214.36
5711.463, 26109.57
5713.392, 25988.82
5715.320, 25935.37
5717.249, 25958.41
5719.177, 25727.60
5721.105, 25640.55
5723.034, 25673.01
5724.962, 25544.57
5726.891, 25522.13
5728.819, 25454.71
5730.748, 25344.61
5732.676, 25262.44
5734.605, 25178.12
5736.533, 25100.22
5738.462, 25021.95
5740.390, 24934.96
5742.319, 24943.59
5744.247, 24844.57
5746.176, 24773.41
5748.104, 24845.55
5750.033, 24819.61
5751.961, 24664.17
5753.890, 24472.47
5755.818, 24345.41
5757.747, 24443.94
5759.675, 24360.91
5761.604, 24282.71
5763.532, 24251.26
5765.460, 24074.51
5767.389, 24192.27
5769.317, 24152.67
5771.246, 23959.34
5773.174, 23904.93
5775.103, 23822.01
5777.031, 23785.67
5778.959, 23688.49
5780.888, 23419.85
5782.816, 23520.23
5784.745, 23547.08
5786.673, 23457.67
5788.602, 23321.62
5790.530, 23341.26
5792.459, 23282.23
5794.387, 23216.27
5796.316, 23147.67
5798.244, 22912.71
5800.173, 22865.49
5802.101, 22883.58
5804.030, 22854.70
5805.958, 22704.36
5807.887, 22707.40
5809.815, 22765.36
5811.744, 22767.81
5813.672, 22661.49
5815.601, 22589.08
5817.529, 22573.12
5819.458, 22457.14
5821.386, 22253.72
5823.314, 22312.96
5825.243, 22076.47
5827.171, 21996.94
5829.100, 22077.46
5831.028, 22007.35
5832.957, 21961.29
5834.885, 21897.09
5836.813, 21811.70
5838.742, 21714.34
5840.670, 21595.90
5842.599, 21652.16
5844.527, 21628.73
5846.456, 21458.08
5848.384, 21359.13
5850.313, 21296.61
5852.241, 21274.31
5854.170, 21251.48
5856.098, 21177.07
5858.027, 21111.15
5859.955, 21079.14
5861.884, 21038.19
5863.812, 20959.49
5865.741, 20851.41
5867.669, 20901.12
5869.598, 20819.17
5871.526, 20655.59
5873.455, 20646.62
5875.383, 20484.06
5877.312, 20429.05
5879.240, 20457.56
5881.168, 20477.86
5883.097, 20397.03
5885.025, 20272.60
5886.954, 20228.82
5888.882, 20211.09
5890.811, 20062.03
5892.739, 19933.69
5894.667, 19924.05
5896.596, 19942.96
5898.524, 19905.68
5900.453, 19807.75
5902.381, 19701.94
5904.310, 19624.68
5906.238, 19592.90
5908.167, 19615.63
5910.095, 19564.46
5912.024, 19558.08
5913.952, 19510.82
5915.881, 19397.28
5917.809, 19460.83
5919.738, 19210.01
5921.666, 19124.78
5923.595, 19157.71
5925.523, 19012.74
5927.452, 18929.88
5929.380, 18949.22
5931.309, 18906.34
5933.237, 18793.38
5935.166, 18824.15
5937.094, 18563.83
5939.022, 18569.06
5940.951, 18648.78
5942.879, 18526.50
5944.808, 18509.45
5946.736, 18430.02
5948.665, 18393.90
5950.593, 18376.76
5952.521, 18278.68
5954.450, 18228.18
5956.378, 18125.12
5958.307, 18037.48
5960.235, 17988.99
5962.164, 17902.03
5964.092, 17856.02
5966.021, 17783.60
5967.949, 17738.45
5969.878, 17745.70
5971.806, 17634.88
5973.735, 17647.68
5975.663, 17519.20
5977.592, 17382.84
5979.520, 17482.40
5981.449, 17384.37
5983.377, 17350.21
5985.306, 17289.98
5987.234, 17204.31
5989.163, 17205.15
5991.091, 17149.40
5993.020, 17142.74
5994.948, 17070.83
5996.876, 16935.99
5998.805, 16982.22
6000.733, 16966.80
6002.662, 16921.71
6004.590, 16861.81
6006.519, 16794.89
6008.447, 16767.62
6010.375, 16602.70
6012.304, 16534.16
6014.232, 16521.07
6016.161, 16450.29
6018.089, 16367.92
6020.018, 16345.70
6021.946, 16301.25
6023.875, 16282.86
6025.803, 16351.65
6027.732, 16091.58
6029.660, 16086.26
6031.589, 16096.76
6033.517, 16031.50
6035.446, 15955.48
6037.374, 15811.29
6039.303, 15804.28
6041.231, 15783.62
6043.160, 15713.62
6045.088, 15669.52
6047.017, 15641.15
6048.945, 15653.82
6050.874, 15651.24
6052.802, 15588.90
6054.730, 15437.66
6056.659, 15491.79
6058.587, 15413.07
6060.516, 15324.54
6062.444, 15269.34
6064.373, 15162.93
6066.301, 15144.83
6068.229, 15190.80
6070.158, 15202.80
6072.086, 15135.11
6074.015, 14985.40
6075.943, 15040.19
6077.872, 14947.99
6079.800, 14783.75
6081.729, 14668.29
6083.657, 14681.48
6085.586, 14645.41
6087.514, 14677.76
6089.443, 14621.51
6091.371, 14521.85
6093.300, 14531.47
6095.228, 14488.24
6097.157, 14355.88
6099.085, 14282.55
6101.014, 14256.11
6102.942, 14213.09
6104.871, 14384.82
6106.799, 14280.86
6108.728, 14165.05
6110.656, 14092.05
6112.584, 14012.92
6114.513, 13952.68
6116.441, 13970.21
6118.370, 13895.00
6120.298, 13817.95
6122.227, 13810.41
6124.155, 13735.17
6126.083, 13779.42
6128.012, 13736.10
6129.940, 13629.06
6131.869, 13533.41
6133.797, 13503.31
6135.726, 13492.18
6137.654, 13469.84
6139.583, 13487.68
6141.511, 13468.12
6143.440, 13298.25
6145.368, 13245.72
6147.297, 13266.71
6149.225, 13282.63
6151.154, 13272.24
6153.082, 13235.09
6155.011, 13111.35
6156.939, 13110.53
6158.868, 13076.62
6160.796, 13020.06
6162.725, 12969.80
6164.653, 12901.76
6166.582, 12929.55
6168.510, 12785.24
6170.438, 12746.37
6172.367, 12770.31
6174.295, 12634.32
6176.224, 12652.07
6178.152, 12746.27
6180.081, 12681.64
6182.009, 12598.46
6183.938, 12584.68
6185.866, 12381.31
6187.794, 12410.79
6189.723, 12464.12
6191.651, 12468.65
6193.580, 12425.68
6195.508, 12349.64
6197.437, 12175.58
6199.365, 12279.05
6201.294, 12233.69
6203.222, 12160.80
6205.151, 12230.82
6207.079, 12159.52
6209.008, 12075.25
6210.936, 12037.31
6212.865, 11955.20
6214.793, 11889.77
6216.722, 11962.14
6218.650, 11817.30
6220.579, 11705.60
6222.507, 11751.26
6224.436, 11778.12
6226.364, 11681.38
6228.292, 11603.52
6230.221, 11628.81
6232.149, 11649.34
6234.078, 11612.25
6236.006, 11558.49
6237.935, 11533.06
6239.863, 11435.40
6241.792, 11430.11
6243.720, 11373.83
6245.648, 11344.77
6247.577, 11321.28
6249.505, 11174.64
6251.434, 11126.79
6253.362, 11149.97
6255.291, 11202.04
6257.219, 11135.53
6259.148, 10955.81
6261.076, 10887.48
6263.005, 10984.04
6264.933, 10932.66
6266.862, 10872.60
6268.790, 10806.89
6270.719, 10707.14
6272.647, 10666.13
6274.576, 10699.77
6276.504, 10613.78
6278.433, 10577.46
6280.361, 10579.41
6282.290, 10528.47
6284.218, 10487.09
6286.146, 10387.75
6288.075, 10402.96
6290.003, 10440.33
6291.932, 10410.30
6293.860, 10307.89
6295.789, 10241.99
6297.717, 10287.77
6299.646, 10239.92
6301.574, 10139.17
6303.502, 10117.22
6305.431, 10213.47
6307.359, 10069.74
6309.288, 9999.111
6311.216, 10060.95
6313.145, 10033.08
6315.073, 9933.422
6317.002, 9902.276
6318.930, 9789.997
6320.859, 9733.490
6322.787, 9840.451
6324.716, 9777.175
6326.644, 9648.055
6328.573, 9697.242
6330.501, 9703.047
6332.430, 9648.905
6334.358, 9553.398
6336.287, 9561.710
6338.215, 9617.438
6340.144, 9607.140
6342.072, 9558.727
6344.000, 9496.572
6345.929, 9409.541
6347.857, 9393.228
6349.786, 9397.933
6351.714, 9373.305
6353.643, 9370.397
6355.571, 9264.221
6357.500, 9185.385
6359.428, 9210.634
6361.356, 9249.950
6363.285, 9210.570
6365.213, 9077.710
6367.142, 9070.485
6369.070, 8997.938
6370.999, 8983.682
6372.927, 8988.285
6374.856, 8975.815
6376.784, 8945.567
6378.713, 8868.643
6380.641, 8899.795
6382.570, 8845.139
6384.498, 8731.828
6386.427, 8692.080
6388.355, 8737.071
6390.284, 8708.557
6392.212, 8720.738
6394.141, 8755.903
6396.069, 8661.638
6397.998, 8589.167
6399.926, 8562.205
6401.854, 8486.722
6403.783, 8554.799
6405.711, 8528.623
6407.640, 8462.402
6409.568, 8408.364
6411.497, 8426.963
6413.425, 8441.813
6415.354, 8254.017
6417.282, 8281.943
6419.210, 8249.320
6421.139, 8224.059
6423.067, 8250.979
6424.996, 8243.339
6426.924, 8166.360
6428.853, 8214.568
6430.781, 8052.541
6432.710, 8044.948
6434.638, 7981.735
6436.567, 7965.776
6438.495, 7979.985
6440.424, 7857.401
6442.352, 7921.167
6444.281, 7900.214
6446.209, 7882.002
6448.138, 7815.023
6450.066, 7772.000
6451.995, 7772.910
6453.923, 7724.301
6455.852, 7680.790
6457.780, 7728.771
6459.708, 7694.813
6461.637, 7684.104
6463.565, 7657.601
6465.494, 7587.442
6467.422, 7573.045
6469.351, 7532.622
6471.279, 7405.737
6473.208, 7463.139
6475.136, 7494.925
6477.064, 7444.251
6478.993, 7376.324
6480.921, 7305.288
6482.850, 7352.457
6484.778, 7367.840
6486.707, 7358.614
6488.635, 7317.656
6490.564, 7240.236
6492.492, 7162.661
6494.421, 7152.917
6496.349, 7255.387
6498.278, 7167.013
6500.206, 7172.272
6502.135, 7155.116
6504.063, 7068.683
6505.992, 7020.041
6507.920, 7098.740
6509.849, 7046.895
6511.777, 6963.938
6513.706, 6961.014
6515.634, 6962.140
6517.563, 6920.224
6519.491, 6883.277
6521.419, 6885.706
6523.348, 6845.042
6525.276, 6852.717
6527.205, 6786.886
6529.133, 6757.209
6531.062, 6774.515
6532.990, 6739.825
6534.918, 6646.030
6536.847, 6635.330
6538.775, 6699.746
6540.704, 6684.682
6542.632, 6634.513
6544.561, 6529.177
6546.489, 6529.490
6548.418, 6571.588
6550.346, 6497.888
6552.275, 6476.708
6554.203, 6451.804
6556.132, 6458.713
6558.060, 6433.336
6559.989, 6430.125
6561.917, 6382.630
6563.846, 6294.661
6565.774, 6302.196
6567.703, 6370.922
6569.631, 6297.928
6571.560, 6257.203
6573.488, 6198.976
6575.417, 6234.823
6577.345, 6256.116
6579.273, 6183.474
6581.202, 6182.256
6583.130, 6208.215
6585.059, 6116.763
##END=



