##NAMES=Marialite
##RRUFFID=R050123
##IDEAL CHEMISTRY=Na_4_Al_3_Si_9_O_24_Cl
##LOCALITY=Pakistan
##OWNER=RRUFF
##SOURCE=Syed Shah
##DESCRIPTION=Purple fragment
##STATUS=The identification of this mineral has been confirmed by X-ray diffraction and chemical analysis
##URL=https://www.rruff.net/odr/rruff_sample/R050123
##MEASURED CHEMISTRY=(Na_0.88_Ca_0.07_K_0.05_)_4_Al_3.00_Si_9.00_O_24_Cl_0.97
##DIFFRACTION SAMPLE DESCRIPTION=Powder
##CELL PARAMETERS=a: 12.04932 b: 12.04932 c: 7.56503 alpha: 90 beta: 90 gamma: 90 volume: 1098.338 crystal system: tetragonal
##FILETYPE=Raman RAW
##RAMAN WAVELENGTH=780

130.1020, 319.6421
132.0305, 322.3579
133.9590, 327.7095
135.8874, 333.2512
137.8159, 338.4556
139.7444, 344.1257
141.6728, 350.9451
143.6013, 358.1247
145.5298, 364.8600
147.4582, 371.0809
149.3867, 375.7678
151.3152, 379.2265
153.2436, 380.0262
155.1721, 377.4825
157.1006, 372.6147
159.0290, 366.5012
160.9575, 358.9122
162.8860, 348.3999
164.8144, 333.6652
166.7429, 318.6615
168.6713, 304.0143
170.5998, 289.6996
172.5283, 275.6277
174.4567, 261.9871
176.3852, 249.1366
178.3137, 236.8076
180.2421, 226.2310
182.1706, 218.1706
184.0991, 210.9369
186.0275, 203.6699
187.9560, 196.6894
189.8845, 190.5448
191.8129, 185.3686
193.7414, 180.2193
195.6699, 174.2041
197.5983, 169.2539
199.5268, 166.4054
201.4553, 164.5704
203.3837, 162.7786
205.3122, 161.0513
207.2407, 159.3412
209.1691, 156.6031
211.0976, 155.3948
213.0261, 157.1631
214.9545, 159.5023
216.8830, 161.0334
218.8115, 161.8624
220.7399, 162.2112
222.6684, 161.9569
224.5969, 161.3754
226.5253, 160.2692
228.4538, 159.0983
230.3823, 157.6687
232.3107, 156.5718
234.2392, 156.4959
236.1677, 157.4566
238.0961, 159.2544
240.0246, 162.0838
241.9531, 165.2152
243.8815, 168.4863
245.8100, 171.9314
247.7385, 175.7090
249.6669, 179.6809
251.5954, 183.5168
253.5239, 187.4026
255.4523, 190.4137
257.3808, 193.1233
259.3093, 193.6331
261.2377, 190.7512
263.1662, 185.6364
265.0947, 179.1728
267.0231, 171.2229
268.9516, 161.5524
270.8801, 149.4962
272.8085, 139.2932
274.7370, 132.1625
276.6655, 126.9920
278.5939, 124.0415
280.5224, 122.3164
282.4509, 120.1344
284.3793, 117.5515
286.3078, 115.3112
288.2363, 113.5156
290.1647, 111.8376
292.0932, 110.5795
294.0217, 109.0234
295.9501, 106.5920
297.8786, 103.5149
299.8071, 100.2395
301.7355, 96.75578
303.6640, 93.39116
305.5925, 89.82574
307.5209, 87.20294
309.4494, 86.23906
311.3779, 85.79091
313.3063, 84.52892
315.2348, 83.38799
317.1633, 84.55792
319.0917, 88.15968
321.0202, 90.96106
322.9487, 91.77136
324.8771, 92.75580
326.8056, 94.51874
328.7341, 96.47270
330.6625, 97.98358
332.5910, 99.29513
334.5195, 101.1004
336.4479, 103.5323
338.3764, 105.5375
340.3049, 106.4830
342.2333, 107.7231
344.1618, 109.7615
346.0903, 111.9198
348.0187, 113.6532
349.9472, 115.2024
351.8757, 117.2536
353.8041, 120.1491
355.7326, 121.4851
357.6611, 120.5038
359.5895, 118.9620
361.5180, 117.1219
363.4465, 114.8087
365.3749, 111.8450
367.3034, 108.3065
369.2319, 104.1712
371.1603, 99.37905
373.0888, 95.12279
375.0172, 91.40124
376.9457, 88.09679
378.8742, 85.18867
380.8026, 82.78721
382.7311, 81.29036
384.6596, 80.04948
386.5880, 78.15537
388.5165, 75.79027
390.4450, 74.61512
392.3734, 74.78744
394.3019, 75.44234
396.2304, 76.50953
398.1588, 78.05138
400.0873, 79.86665
402.0158, 82.46159
403.9442, 85.97701
405.8727, 90.59810
407.8012, 96.64793
409.7296, 104.1467
411.6581, 114.5186
413.5866, 128.4033
415.5150, 143.3725
417.4435, 160.1409
419.3720, 175.6157
421.3004, 189.0797
423.2289, 200.1916
425.1574, 207.8016
427.0858, 212.2119
429.0143, 215.7357
430.9428, 218.1784
432.8712, 223.5725
434.7997, 233.1090
436.7282, 244.4050
438.6566, 257.3800
440.5851, 271.0995
442.5136, 285.5961
444.4420, 299.9503
446.3705, 312.8779
448.2990, 324.5684
450.2274, 335.6668
452.1559, 346.7376
454.0844, 353.6203
456.0128, 357.2556
457.9413, 353.4315
459.8698, 340.2389
461.7982, 319.8320
463.7267, 290.6834
465.6552, 257.1075
467.5836, 225.5586
469.5121, 196.1815
471.4406, 170.0893
473.3690, 147.4303
475.2975, 127.8239
477.2260, 110.9066
479.1544, 97.39444
481.0829, 88.56561
483.0114, 81.92659
484.9398, 75.89050
486.8683, 70.98748
488.7968, 67.77876
490.7253, 66.30577
492.6537, 66.76754
494.5822, 69.71358
496.5107, 73.00711
498.4391, 76.89938
500.3676, 80.58214
502.2961, 84.78880
504.2245, 87.59541
506.1530, 86.96053
508.0815, 85.19281
510.0099, 84.25918
511.9384, 84.23360
513.8668, 85.39565
515.7953, 87.81636
517.7238, 90.90410
519.6522, 94.77001
521.5807, 99.06171
523.5092, 104.0364
525.4376, 108.7557
527.3661, 113.0467
529.2946, 116.6883
531.2230, 119.4772
533.1515, 121.4942
535.0800, 123.2243
537.0084, 124.5659
538.9369, 123.2703
540.8654, 119.3370
542.7938, 112.1247
544.7223, 100.4585
546.6508, 89.20306
548.5792, 79.60088
550.5077, 71.07292
552.4362, 63.06852
554.3646, 56.25936
556.2931, 51.44622
558.2216, 48.11555
560.1500, 45.13533
562.0785, 42.61859
564.0070, 40.94653
565.9354, 40.11634
567.8639, 39.60178
569.7924, 39.43373
571.7208, 39.27033
573.6493, 38.83346
575.5778, 38.67897
577.5062, 39.12055
579.4347, 39.54906
581.3632, 39.53488
583.2916, 39.42976
585.2201, 39.79525
587.1486, 40.39835
589.0770, 40.50904
591.0055, 40.10026
592.9340, 39.66092
594.8624, 39.16094
596.7909, 38.98406
598.7194, 39.44511
600.6478, 39.75538
602.5763, 39.83614
604.5048, 39.72135
606.4332, 39.14288
608.3617, 38.52800
610.2902, 38.49323
612.2186, 38.66385
614.1471, 38.41945
616.0756, 37.83544
618.0040, 37.30744
619.9325, 36.74021
621.8610, 36.55790
623.7894, 37.34074
625.7179, 37.61612
627.6464, 36.78936
629.5748, 36.11722
631.5033, 36.20539
633.4318, 36.33927
635.3602, 36.11228
637.2887, 35.66340
639.2172, 35.03904
641.1456, 34.34789
643.0741, 33.91024
645.0026, 33.72755
646.9310, 33.39847
648.8595, 32.73690
650.7880, 32.64902
652.7164, 33.46758
654.6449, 33.88478
656.5734, 33.59472
658.5018, 33.19636
660.4303, 32.67501
662.3588, 32.36785
664.2872, 32.64740
666.2157, 33.12005
668.1442, 33.63643
670.0726, 34.02622
672.0011, 33.76557
673.9296, 33.11654
675.8580, 33.26942
677.7865, 34.22357
679.7150, 34.56760
681.6434, 34.20895
683.5719, 34.19039
685.5004, 34.76042
687.4288, 35.09074
689.3573, 34.75439
691.2858, 34.63099
693.2142, 35.32316
695.1427, 35.95226
697.0712, 36.07423
698.9996, 36.11827
700.9281, 36.24323
702.8566, 36.50735
704.7850, 37.16673
706.7135, 38.05189
708.6420, 38.78811
710.5704, 39.39146
712.4989, 39.83224
714.4274, 40.10229
716.3558, 40.28223
718.2843, 40.32128
720.2128, 40.73141
722.1412, 41.65020
724.0697, 42.77536
725.9982, 44.32317
727.9266, 45.65374
729.8551, 46.48940
731.7836, 47.27891
733.7120, 48.17172
735.6405, 49.04709
737.5690, 49.68430
739.4974, 50.56765
741.4259, 52.50961
743.3544, 54.82967
745.2828, 56.17567
747.2113, 56.87910
749.1398, 58.48505
751.0682, 61.05141
752.9967, 63.09098
754.9252, 64.48780
756.8536, 65.45184
758.7821, 65.68443
760.7106, 66.08881
762.6390, 66.64783
764.5675, 67.44826
766.4960, 69.06299
768.4244, 70.14933
770.3529, 69.66884
772.2814, 69.18729
774.2098, 69.88890
776.1383, 70.52670
778.0668, 70.26712
779.9952, 69.29324
781.9237, 67.80531
783.8521, 66.05202
785.7806, 64.02592
787.7090, 61.74294
789.6375, 59.68140
791.5660, 57.80482
793.4944, 55.34169
795.4229, 52.23464
797.3514, 50.19326
799.2798, 49.31808
801.2083, 47.77372
803.1368, 45.37710
805.0652, 43.50757
806.9937, 42.36143
808.9222, 41.53323
810.8506, 41.12524
812.7791, 40.49028
814.7076, 39.28777
816.6360, 38.12687
818.5645, 37.44493
820.4930, 36.49779
822.4214, 34.64098
824.3499, 32.94010
826.2784, 32.16067
828.2068, 31.73395
830.1353, 31.13303
832.0638, 30.68874
833.9922, 30.89864
835.9207, 31.20494
837.8492, 30.67353
839.7776, 29.77426
841.7061, 29.54995
843.6346, 29.71240
845.5630, 29.59222
847.4915, 29.31787
849.4200, 29.10572
851.3484, 28.86832
853.2769, 28.64468
855.2054, 28.51536
857.1339, 28.28862
859.0623, 27.83452
860.9908, 27.63341
862.9193, 27.96158
864.8477, 28.03054
866.7762, 27.50248
868.7047, 27.04422
870.6331, 26.73478
872.5616, 26.59428
874.4901, 26.79261
876.4185, 26.81998
878.3470, 26.45761
880.2755, 26.04204
882.2039, 25.58630
884.1324, 25.31923
886.0609, 25.43338
887.9893, 25.55097
889.9178, 25.41084
891.8463, 25.31902
893.7747, 25.74522
895.7032, 26.06233
897.6317, 25.46999
899.5601, 24.65967
901.4886, 24.50635
903.4171, 24.55511
905.3455, 23.99337
907.2740, 23.26925
909.2025, 23.42883
911.1309, 24.06356
913.0594, 24.03833
914.9879, 23.57716
916.9163, 23.46099
918.8448, 23.64084
920.7733, 23.63408
922.7017, 23.39766
924.6302, 23.21979
926.5587, 23.12384
928.4871, 23.15775
930.4156, 23.30004
932.3441, 23.34351
934.2725, 23.34711
936.2010, 23.34464
938.1295, 23.28878
940.0579, 23.31129
941.9864, 23.45420
943.9149, 23.49987
945.8433, 23.34800
947.7718, 23.48760
949.7003, 24.08677
951.6287, 24.61750
953.5572, 24.91399
955.4857, 25.39350
957.4141, 26.23919
959.3426, 26.91877
961.2711, 27.27520
963.1995, 27.58376
965.1280, 27.88228
967.0565, 28.20047
968.9849, 28.59723
970.9134, 28.94214
972.8419, 28.90645
974.7703, 29.19916
976.6988, 30.54371
978.6273, 31.52698
980.5557, 31.24110
982.4842, 31.18771
984.4127, 32.26691
986.3411, 33.03283
988.2696, 32.56372
990.1981, 32.45337
992.1265, 33.78211
994.0550, 34.64310
995.9835, 33.99184
997.9119, 33.21915
999.8404, 33.00146
1001.769, 32.70285
1003.697, 31.68804
1005.626, 31.04271
1007.554, 31.61666
1009.483, 32.25524
1011.411, 32.26408
1013.340, 32.21033
1015.268, 32.50913
1017.197, 32.79187
1019.125, 32.76808
1021.054, 32.76912
1022.982, 32.97759
1024.910, 33.30236
1026.839, 33.74525
1028.767, 34.10715
1030.696, 34.23528
1032.624, 34.36153
1034.553, 34.58717
1036.481, 34.94698
1038.410, 35.57223
1040.338, 36.13470
1042.267, 36.38581
1044.195, 36.56302
1046.124, 36.75176
1048.052, 37.05125
1049.980, 37.49754
1051.909, 38.04536
1053.837, 38.65672
1055.766, 39.46515
1057.694, 40.48002
1059.623, 41.64786
1061.551, 43.21150
1063.480, 44.59935
1065.408, 45.52010
1067.337, 46.34752
1069.265, 47.02625
1071.194, 47.75921
1073.122, 48.57716
1075.051, 49.76288
1076.979, 51.93552
1078.907, 53.67794
1080.836, 54.02783
1082.764, 54.29230
1084.693, 54.92739
1086.621, 55.87980
1088.550, 57.54581
1090.478, 58.57414
1092.407, 58.26764
1094.335, 57.90186
1096.264, 57.86922
1098.192, 57.63763
1100.121, 57.02998
1102.049, 56.40627
1103.978, 55.63485
1105.906, 55.12421
1107.834, 55.80413
1109.763, 55.28361
1111.691, 51.69537
1113.620, 49.64954
1115.548, 50.93145
1117.477, 51.46272
1119.405, 50.37235
1121.334, 49.54710
1123.262, 49.13516
1125.191, 48.79131
1127.119, 48.49921
1129.048, 48.42577
1130.976, 48.38847
1132.905, 49.22059
1134.833, 51.24923
1136.761, 52.68826
1138.690, 53.39420
1140.618, 54.08369
1142.547, 54.82137
1144.475, 55.66048
1146.404, 56.53659
1148.332, 58.52723
1150.261, 61.63758
1152.189, 64.57597
1154.118, 67.23891
1156.046, 69.89950
1157.975, 72.64793
1159.903, 75.46461
1161.832, 78.45763
1163.760, 81.95638
1165.688, 85.67355
1167.617, 88.97672
1169.545, 91.96092
1171.474, 94.86385
1173.402, 97.91935
1175.331, 101.3185
1177.259, 104.9676
1179.188, 108.7110
1181.116, 112.2580
1183.045, 115.5217
1184.973, 118.9268
1186.902, 123.0579
1188.830, 126.5440
1190.759, 128.3661
1192.687, 129.8846
1194.615, 131.3583
1196.544, 133.3833
1198.472, 136.9723
1200.401, 139.0404
1202.329, 138.1289
1204.258, 137.7018
1206.186, 138.8173
1208.115, 139.3611
1210.043, 138.6263
1211.972, 138.6653
1213.900, 140.1405
1215.829, 139.4609
1217.757, 136.2309
1219.686, 133.9419
1221.614, 132.7063
1223.542, 131.6202
1225.471, 130.4829
1227.399, 128.5055
1229.328, 126.1701
1231.256, 124.7534
1233.185, 123.5696
1235.113, 121.4787
1237.042, 119.0283
1238.970, 116.7627
1240.899, 114.8106
1242.827, 113.2336
1244.756, 111.6505
1246.684, 109.9671
1248.613, 108.1794
1250.541, 106.3539
1252.469, 104.4123
1254.398, 102.0981
1256.326, 100.1665
1258.255, 98.91829
1260.183, 97.18913
1262.112, 94.58965
1264.040, 93.17371
1265.969, 93.42908
1267.897, 93.06157
1269.826, 91.88750
1271.754, 90.42983
1273.683, 88.62238
1275.611, 87.56040
1277.540, 87.16212
1279.468, 86.08955
1281.396, 84.61269
1283.325, 83.63742
1285.253, 82.94911
1287.182, 82.06107
1289.110, 81.27116
1291.039, 81.16587
1292.967, 80.89024
1294.896, 79.79276
1296.824, 78.92240
1298.753, 78.44402
1300.681, 78.23714
1302.610, 78.43407
1304.538, 78.80299
1306.467, 79.35535
1308.395, 79.80145
1310.323, 79.98633
1312.252, 79.96868
1314.180, 80.06911
1316.109, 80.52950
1318.037, 81.02529
1319.966, 81.54094
1321.894, 82.16988
1323.823, 82.49969
1325.751, 83.11694
1327.680, 85.15550
1329.608, 87.24290
1331.537, 88.14133
1333.465, 89.19203
1335.394, 91.03988
1337.322, 92.97789
1339.250, 94.83990
1341.179, 96.65475
1343.107, 98.18193
1345.036, 100.4472
1346.964, 103.8473
1348.893, 106.3645
1350.821, 108.1199
1352.750, 110.9600
1354.678, 114.3882
1356.607, 116.7357
1358.535, 118.6430
1360.464, 121.5210
1362.392, 124.7106
1364.321, 128.0699
1366.249, 131.3696
1368.177, 133.6306
1370.106, 135.4625
1372.034, 137.3892
1373.963, 139.8656
1375.891, 142.9980
1377.820, 145.7502
1379.748, 147.8874
1381.677, 149.9314
1383.605, 152.4793
1385.534, 155.5815
1387.462, 158.4021
1389.391, 160.3257
1391.319, 162.0761
1393.248, 164.7084
1395.176, 167.2692
1397.104, 168.2442
1399.033, 169.5024
1400.961, 172.7784
1402.890, 175.3220
1404.818, 176.2893
1406.747, 177.6963
1408.675, 179.4388
1410.604, 181.0909
1412.532, 183.0631
1414.461, 184.5261
1416.389, 185.0538
1418.318, 185.4291
1420.246, 186.1101
1422.175, 186.9540
1424.103, 187.4207
1426.031, 187.1518
1427.960, 186.5402
1429.888, 185.4581
1431.817, 184.3669
1433.745, 184.2153
1435.674, 183.6533
1437.602, 181.7316
1439.531, 180.1615
1441.459, 179.2188
1443.388, 177.6563
1445.316, 175.6170
1447.245, 172.7956
1449.173, 169.7726
1451.102, 167.7839
1453.030, 166.3001
1454.958, 164.9647
1456.887, 163.4316
1458.815, 161.3596
1460.744, 159.5483
1462.672, 158.3991
1464.601, 156.3549
1466.529, 153.1736
1468.458, 152.0930
1470.386, 152.4831
1472.315, 150.0584
1474.243, 146.6619
1476.172, 145.4622
1478.100, 144.9032
1480.029, 144.0907
1481.957, 143.1301
1483.885, 142.3352
1485.814, 140.7428
1487.742, 137.9930
1489.671, 136.6035
1491.599, 136.2505
1493.528, 135.1979
1495.456, 133.9734
1497.385, 133.3978
1499.313, 133.0936
1501.242, 132.4321
1503.170, 131.6448
1505.099, 130.6021
1507.027, 129.5807
1508.956, 129.1548
1510.884, 128.5842
1512.813, 127.7323
1514.741, 127.8765
1516.669, 128.4034
1518.598, 128.4921
1520.526, 128.5582
1522.455, 128.3020
1524.383, 128.3803
1526.312, 129.6847
1528.240, 130.0854
1530.169, 129.0686
1532.097, 129.1984
1534.026, 129.9747
1535.954, 130.4258
1537.883, 131.1729
1539.811, 132.4834
1541.740, 133.6305
1543.668, 133.4383
1545.596, 132.7448
1547.525, 133.3332
1549.453, 134.2844
1551.382, 134.2151
1553.310, 134.1852
1555.239, 134.2803
1557.167, 133.7734
1559.096, 133.1111
1561.024, 132.0826
1562.953, 131.0277
1564.881, 130.3160
1566.810, 130.0353
1568.738, 130.9266
1570.667, 130.5003
1572.595, 127.6767
1574.523, 126.0159
1576.452, 125.3047
1578.380, 123.7169
1580.309, 122.0069
1582.237, 121.0399
1584.166, 120.1225
1586.094, 119.3240
1588.023, 118.7202
1589.951, 117.1635
1591.880, 114.6342
1593.808, 112.4271
1595.737, 111.4181
1597.665, 111.0606
1599.594, 110.2164
1601.522, 108.8400
1603.450, 107.6732
1605.379, 106.6576
1607.307, 105.0796
1609.236, 103.9799
1611.164, 104.0071
1613.093, 103.9674
1615.021, 103.6872
1616.950, 103.7658
1618.878, 103.9091
1620.807, 103.3850
1622.735, 102.5840
1624.663, 101.8444
1626.592, 101.4639
1628.520, 101.3195
1630.449, 101.3270
1632.377, 101.7396
1634.306, 101.3900
1636.234, 100.3925
1638.163, 100.0214
1640.091, 100.0879
1642.020, 100.4503
1643.948, 100.9814
1645.877, 101.1109
1647.805, 100.6712
1649.734, 100.3009
1651.662, 100.6556
1653.590, 101.3345
1655.519, 101.4633
1657.447, 100.9916
1659.376, 100.9268
1661.304, 101.9264
1663.233, 103.5165
1665.161, 104.2486
1667.090, 103.9997
1669.018, 104.2135
1670.947, 105.5415
1672.875, 106.8046
1674.804, 107.2196
1676.732, 107.9036
1678.661, 109.2917
1680.589, 111.1270
1682.517, 112.3404
1684.446, 112.4371
1686.374, 112.5655
1688.303, 113.5242
1690.231, 115.0422
1692.160, 116.8396
1694.088, 119.2412
1696.017, 120.3777
1697.945, 119.8818
1699.874, 119.2225
1701.802, 118.9761
1703.731, 120.3403
1705.659, 121.6608
1707.588, 121.9400
1709.516, 121.7280
1711.444, 120.7857
1713.373, 119.8523
1715.301, 119.6872
1717.230, 119.6497
1719.158, 119.1602
1721.087, 117.7418
1723.015, 116.7017
1724.944, 116.7648
1726.872, 116.7367
1728.801, 116.1873
1730.729, 114.7388
1732.658, 113.3199
1734.586, 111.9484
1736.515, 110.5366
1738.443, 110.1532
1740.371, 110.1500
1742.300, 109.7824
1744.228, 107.9710
1746.157, 105.6412
1748.085, 104.5390
1750.014, 103.8555
1751.942, 103.2878
1753.871, 102.9506
1755.799, 102.5600
1757.728, 102.0742
1759.656, 101.4499
1761.585, 100.0614
1763.513, 98.89410
1765.442, 98.90130
1767.370, 98.53814
1769.298, 96.70300
1771.227, 96.13505
1773.155, 96.61579
1775.084, 95.82506
1777.012, 94.83664
1778.941, 94.10596
1780.869, 93.18724
1782.798, 92.81700
1784.726, 92.86586
1786.655, 92.12929
1788.583, 91.23714
1790.512, 90.76229
1792.440, 90.15110
1794.369, 89.86308
1796.297, 89.84486
1798.225, 89.53337
1800.154, 88.55022
1802.082, 86.36616
1804.011, 84.84196
1805.939, 84.50732
1807.868, 84.18294
1809.796, 83.83290
1811.725, 83.23266
1813.653, 82.49493
1815.582, 81.65305
1817.510, 80.62572
1819.439, 79.52937
1821.367, 79.23429
1823.296, 79.05054
1825.224, 78.12467
1827.152, 77.41409
1829.081, 76.81521
1831.009, 76.18452
1832.938, 76.02421
1834.866, 75.49463
1836.795, 74.63825
1838.723, 74.07564
1840.652, 73.53087
1842.580, 73.84708
1844.509, 74.32729
1846.437, 73.99575
1848.366, 73.38142
1850.294, 72.61631
1852.223, 73.17256
1854.151, 74.31881
1856.079, 74.42154
1858.008, 74.27782
1859.936, 74.23466
1861.865, 74.39638
1863.793, 74.79304
1865.722, 75.02231
1867.650, 75.17463
1869.579, 75.83012
1871.507, 76.17956
1873.436, 75.40586
1875.364, 75.57841
1877.293, 76.53822
1879.221, 77.24455
1881.150, 77.78021
1883.078, 77.85103
1885.006, 78.08498
1886.935, 78.75315
1888.863, 79.44177
1890.792, 80.27731
1892.720, 80.70441
1894.649, 80.66325
1896.577, 80.70475
1898.506, 81.25259
1900.434, 81.97343
1902.363, 82.19939
1904.291, 82.28287
1906.220, 82.55305
1908.148, 82.33540
1910.077, 81.72597
1912.005, 82.33991
1913.933, 83.19847
1915.862, 83.17550
1917.790, 82.73182
1919.719, 82.44701
1921.647, 82.55843
1923.576, 83.04628
1925.504, 83.67452
1927.433, 83.77020
1929.361, 82.69355
1931.290, 81.86706
1933.218, 81.37993
1935.147, 80.10213
1937.075, 78.78871
1939.004, 78.34964
1940.932, 77.48346
1942.860, 75.63335
1944.789, 73.78869
1946.717, 72.37083
1948.646, 70.76910
1950.574, 68.63963
1952.503, 67.11768
1954.431, 65.68803
1956.360, 63.39693
1958.288, 61.27958
1960.217, 59.28826
1962.145, 57.11828
1964.074, 55.32684
1966.002, 53.58608
1967.931, 51.44864
1969.859, 49.47129
1971.787, 47.92865
1973.716, 46.06834
1975.644, 44.00632
1977.573, 42.38370
1979.501, 40.83575
1981.430, 39.44341
1983.358, 38.12974
1985.287, 36.49014
1987.215, 35.42979
1989.144, 34.39370
1991.072, 33.41181
1993.001, 32.27586
1994.929, 30.56623
1996.858, 29.34181
1998.786, 28.57342
2000.714, 28.23401
2002.643, 27.70081
2004.571, 26.55642
2006.500, 25.75367
2008.428, 25.32313
2010.357, 24.91391
2012.285, 24.35486
2014.214, 23.49950
2016.142, 22.76851
2018.071, 22.46721
2019.999, 22.22333
2021.928, 21.51607
2023.856, 20.55670
2025.785, 20.06110
2027.713, 19.78629
2029.641, 19.39104
2031.570, 18.95913
2033.498, 18.51971
2035.427, 18.22920
2037.355, 18.15383
2039.284, 17.74349
2041.212, 17.23890
2043.141, 17.25089
2045.069, 16.83352
2046.998, 16.02957
2048.926, 15.96749
2050.854, 16.00271
2052.783, 15.78438
2054.711, 15.47222
2056.640, 15.01516
2058.568, 14.71333
2060.497, 14.72515
2062.425, 14.90448
2064.354, 14.67326
2066.282, 14.51561
2068.211, 14.45533
2070.139, 14.08121
2072.068, 13.70352
2073.996, 13.66492
2075.925, 13.46936
2077.853, 13.08331
2079.781, 13.06441
2081.710, 13.12587
2083.638, 12.87140
2085.567, 12.62442
2087.495, 12.98158
2089.424, 13.06963
2091.352, 12.54189
2093.281, 12.28805
2095.209, 12.46189
2097.138, 12.51414
2099.066, 12.36238
2100.995, 11.81444
2102.923, 11.60015
2104.852, 11.60033
2106.780, 11.47191
2108.708, 11.47299
2110.637, 11.62199
2112.565, 11.39202
2114.494, 11.04235
2116.422, 11.36937
2118.351, 11.10719
2120.279, 10.43153
2122.208, 10.36437
2124.136, 10.46464
2126.065, 10.50793
2127.993, 10.56235
2129.922, 10.62189
2131.850, 10.33671
2133.779, 10.04985
2135.707, 10.00406
2137.635, 9.939907
2139.564, 10.04834
2141.492, 10.20889
2143.421, 10.19244
2145.349, 9.917653
2147.278, 9.848780
2149.206, 9.860387
2151.135, 9.894540
2153.063, 9.922787
2154.992, 9.712779
2156.920, 9.633327
2158.849, 9.650255
2160.777, 9.305977
2162.706, 8.964988
2164.634, 9.117089
2166.563, 9.573779
2168.491, 9.315643
2170.419, 8.733573
2172.348, 8.868529
2174.276, 9.081851
2176.205, 9.085695
2178.133, 9.184772
2180.062, 9.218285
2181.990, 9.065841
2183.919, 8.746846
2185.847, 8.663534
2187.776, 8.817425
2189.704, 8.931288
2191.633, 8.773449
2193.561, 8.626795
2195.490, 8.543742
2197.418, 8.492052
2199.346, 8.555255
2201.275, 8.771449
2203.203, 8.752396
2205.132, 8.367864
2207.060, 8.195414
2208.989, 8.041323
2210.917, 7.820466
2212.846, 8.014643
2214.774, 8.401445
2216.703, 8.281998
2218.631, 8.054701
2220.560, 8.141250
2222.488, 7.883463
2224.417, 7.570123
2226.345, 7.596983
2228.273, 7.549537
2230.202, 7.434318
2232.130, 7.590384
2234.059, 7.839107
2235.987, 7.756577
2237.916, 7.525339
2239.844, 7.394327
2241.773, 7.552230
2243.701, 7.761271
2245.630, 7.595136
2247.558, 7.378240
2249.487, 7.300474
2251.415, 7.068428
2253.344, 6.794317
2255.272, 6.932631
2257.200, 7.411685
2259.129, 7.648165
2261.057, 7.482139
2262.986, 7.377759
2264.914, 7.168454
2266.843, 6.822005
2268.771, 7.040839
2270.700, 7.582972
2272.628, 7.643789
2274.557, 7.451983
2276.485, 7.107508
2278.414, 6.965318
2280.342, 7.087112
2282.271, 7.272484
2284.199, 7.323110
2286.127, 7.004031
2288.056, 6.956357
2289.984, 6.975020
2291.913, 6.628305
2293.841, 6.599118
2295.770, 6.919157
2297.698, 7.143518
2299.627, 7.075401
2301.555, 6.621451
2303.484, 6.743743
2305.412, 7.117938
2307.341, 6.955607
2309.269, 6.888727
2311.198, 6.802750
2313.126, 6.446691
2315.054, 6.415786
2316.983, 6.551825
2318.911, 6.451326
2320.840, 6.447566
2322.768, 6.663654
2324.697, 6.883626
2326.625, 6.935139
2328.554, 6.644400
2330.482, 6.512684
2332.411, 6.596297
2334.339, 6.413550
2336.268, 6.240711
2338.196, 6.313703
2340.125, 6.486213
2342.053, 6.505209
2343.981, 6.359655
2345.910, 6.130733
2347.838, 5.971678
2349.767, 6.143218
2351.695, 6.267232
2353.624, 6.382794
2355.552, 6.497203
2357.481, 6.487517
2359.409, 6.299340
2361.338, 5.788588
2363.266, 5.454174
2365.195, 5.703723
2367.123, 5.812631
2369.052, 5.787143
2370.980, 5.863856
2372.908, 5.829097
2374.837, 5.876917
2376.765, 5.891352
2378.694, 5.796205
2380.622, 5.694483
2382.551, 5.708724
2384.479, 5.733717
2386.408, 5.431478
2388.336, 5.567883
2390.265, 5.955527
2392.193, 5.815900
2394.122, 5.612426
2396.050, 5.465678
2397.979, 5.394910
2399.907, 5.174408
2401.835, 5.184151
2403.764, 5.499984
2405.692, 5.691680
2407.621, 5.437875
2409.549, 5.300263
2411.478, 5.612681
2413.406, 5.420478
2415.335, 4.945783
2417.263, 4.926527
2419.192, 5.298494
2421.120, 5.407842
2423.049, 5.258304
2424.977, 5.276615
2426.906, 5.394166
2428.834, 5.457982
2430.762, 5.115185
2432.691, 4.798276
2434.619, 5.067388
2436.548, 5.333638
2438.476, 5.352714
2440.405, 5.258687
2442.333, 5.221581
2444.262, 5.284206
2446.190, 5.088382
2448.119, 4.862816
2450.047, 4.900631
2451.976, 4.955268
2453.904, 4.888671
2455.833, 4.808309
2457.761, 5.072711
2459.689, 5.189197
2461.618, 4.742910
2463.546, 4.615873
2465.475, 4.588336
2467.403, 4.509977
2469.332, 4.446796
2471.260, 4.640971
2473.189, 4.876836
2475.117, 4.780516
2477.046, 4.843085
2478.974, 4.653453
2480.903, 4.456685
2482.831, 4.668365
2484.760, 4.803248
2486.688, 4.925436
2488.616, 4.730668
2490.545, 4.258406
2492.473, 4.337878
2494.402, 4.582936
2496.330, 4.371118
2498.259, 4.234754
2500.187, 4.256366
2502.116, 4.502987
2504.044, 4.753224
2505.973, 4.531237
2507.901, 4.416893
2509.830, 4.324725
2511.758, 4.487908
2513.687, 4.521821
2515.615, 4.201704
2517.543, 4.265619
2519.472, 4.305737
2521.400, 4.396252
2523.329, 4.706574
2525.257, 4.634622
2527.186, 4.444547
2529.114, 4.435843
2531.043, 4.376070
2532.971, 4.372472
2534.900, 4.133366
2536.828, 4.177066
2538.757, 4.485571
2540.685, 4.277833
2542.614, 4.269663
2544.542, 4.470508
2546.470, 4.409837
2548.399, 4.174032
2550.327, 3.954016
2552.256, 4.059249
2554.184, 4.141042
2556.113, 4.120199
2558.041, 4.193594
2559.970, 4.346649
2561.898, 3.851933
2563.827, 3.731870
2565.755, 4.105798
2567.684, 4.178064
2569.612, 4.011621
2571.541, 3.921954
2573.469, 4.258595
2575.397, 4.196287
2577.326, 4.022362
2579.254, 3.922856
2581.183, 3.703688
2583.111, 3.702859
2585.040, 3.643500
2586.968, 3.683196
2588.897, 3.872196
2590.825, 3.629597
2592.754, 3.404611
2594.682, 3.377350
2596.611, 3.599967
2598.539, 3.617156
2600.468, 3.300514
2602.396, 2.935782
2604.324, 3.119779
2606.253, 3.480765
2608.181, 3.282825
2610.110, 3.193550
2612.038, 3.251031
2613.967, 3.429439
2615.895, 3.455981
2617.824, 3.436908
2619.752, 3.446294
2621.681, 3.346868
2623.609, 3.311211
2625.538, 3.702958
2627.466, 3.339125
2629.395, 2.685069
2631.323, 2.877247
2633.251, 3.159388
2635.180, 3.337746
2637.108, 3.390207
2639.037, 3.238806
2640.965, 3.089582
2642.894, 2.955264
2644.822, 2.753993
2646.751, 2.839164
2648.679, 3.385347
2650.608, 3.450428
2652.536, 3.379570
2654.465, 3.161058
2656.393, 2.966242
2658.322, 2.902007
2660.250, 2.931345
2662.178, 2.934680
2664.107, 2.848728
2666.035, 2.554137
2667.964, 2.489140
2669.892, 2.750901
2671.821, 2.792297
2673.749, 2.997052
2675.678, 3.146949
2677.606, 2.687655
2679.535, 2.912739
2681.463, 3.150678
2683.392, 2.805166
2685.320, 2.666040
2687.249, 2.635521
2689.177, 2.472640
2691.105, 2.758080
2693.034, 2.987657
2694.962, 2.789364
2696.891, 2.512451
2698.819, 2.646574
2700.748, 2.974024
2702.676, 2.819921
2704.605, 2.584199
2706.533, 2.531513
2708.462, 2.406956
2710.390, 2.333871
2712.319, 2.291920
2714.247, 2.640333
2716.176, 2.830029
2718.104, 2.714406
2720.032, 2.590307
2721.961, 2.484558
2723.889, 2.341856
2725.818, 2.425779
2727.746, 2.571704
2729.675, 2.535554
2731.603, 2.325972
2733.532, 2.134088
2735.460, 2.098947
2737.389, 2.119760
2739.317, 2.080869
2741.246, 2.256771
2743.174, 2.437870
2745.103, 2.130727
2747.031, 1.935113
2748.959, 2.036472
2750.888, 2.406068
2752.816, 2.341585
2754.745, 2.118535
2756.673, 2.220730
2758.602, 2.240757
2760.530, 2.233956
2762.459, 2.070459
2764.387, 1.977319
2766.316, 1.999433
2768.244, 2.226148
2770.173, 2.388241
2772.101, 2.334754
2774.030, 2.069216
2775.958, 1.957843
2777.886, 2.139957
2779.815, 2.324886
2781.743, 2.182306
2783.672, 2.202076
2785.600, 2.185827
2787.529, 1.962024
2789.457, 1.955766
2791.386, 2.097416
2793.314, 2.229544
2795.243, 1.890844
2797.171, 1.625772
2799.100, 2.084996
2801.028, 2.309387
2802.957, 2.173123
2804.885, 1.843395
2806.813, 1.781476
2808.742, 1.705507
2810.670, 1.643025
2812.599, 1.794553
2814.527, 1.712717
2816.456, 1.629280
2818.384, 1.637802
2820.313, 1.646186
2822.241, 1.732244
2824.170, 1.995468
2826.098, 2.072269
2828.027, 1.795632
2829.955, 1.551573
2831.884, 1.938561
2833.812, 1.926444
2835.740, 1.811375
2837.669, 1.930175
2839.597, 1.831079
2841.526, 1.836530
2843.454, 2.038921
2845.383, 1.666920
2847.311, 1.519726
2849.240, 1.817744
2851.168, 2.101243
2853.097, 1.684486
2855.025, 1.117160
2856.954, 1.238379
2858.882, 1.426121
2860.811, 1.746639
2862.739, 2.185694
2864.667, 1.905882
2866.596, 1.735961
2868.524, 1.809894
2870.453, 1.391931
2872.381, 1.109723
2874.310, 1.275975
2876.238, 1.868303
2878.167, 1.931713
2880.095, 1.799548
2882.024, 1.886600
2883.952, 2.007300
2885.881, 1.920803
2887.809, 1.673487
2889.738, 1.214272
2891.666, 1.688881
2893.594, 2.080572
2895.523, 1.501929
2897.451, 1.418442
2899.380, 1.515248
2901.308, 1.630846
2903.237, 1.542565
2905.165, 1.329129
2907.094, 1.132842
2909.022, 1.291452
2910.951, 1.587112
2912.879, 1.856629
2914.808, 1.759130
2916.736, 1.761634
2918.665, 1.823607
2920.593, 1.760867
2922.521, 1.600564
2924.450, 1.622873
2926.378, 1.645379
2928.307, 1.085371
2930.235, 0.9405390
2932.164, 1.218202
2934.092, 1.647703
2936.021, 1.385563
2937.949, 1.307693
2939.878, 1.493931
2941.806, 1.543280
2943.735, 1.517907
2945.663, 1.554829
2947.592, 1.713836
2949.520, 1.223841
2951.448, 1.033417
2953.377, 1.242414
2955.305, 1.461803
2957.234, 1.226153
2959.162, 1.134635
2961.091, 1.187283
2963.019, 0.8673050
2964.948, 1.084163
2966.876, 1.525234
2968.805, 1.489779
2970.733, 1.181800
2972.662, 1.127751
2974.590, 1.442502
2976.519, 1.391173
2978.447, 1.207833
2980.375, 1.170772
2982.304, 1.255406
2984.232, 0.9039296
2986.161, 0.9767229
2988.089, 1.364800
2990.018, 1.586424
2991.946, 1.406315
2993.875, 1.100762
2995.803, 1.057078
2997.732, 1.196174
2999.660, 1.191986
3001.589, 1.187290
3003.517, 1.154619
3005.446, 1.074242
3007.374, 1.059331
3009.302, 1.283591
3011.231, 1.033367
3013.159, 0.7427424
3015.088, 0.5916936
3017.016, 1.062512
3018.945, 1.146490
3020.873, 1.113141
3022.802, 0.9376254
3024.730, 0.7124829
3026.659, 0.9030617
3028.587, 0.9315745
3030.516, 0.7362977
3032.444, 1.019089
3034.373, 0.8396868
3036.301, 0.5158845
3038.229, 1.115413
3040.158, 1.217083
3042.086, 0.9886850
3044.015, 0.6789292
3045.943, 0.6072299
3047.872, 0.8248652
3049.800, 1.090604
3051.729, 1.207510
3053.657, 1.161907
3055.586, 0.9762268
3057.514, 0.8996553
3059.443, 1.304732
3061.371, 1.469994
3063.300, 1.251328
3065.228, 0.8734227
3067.156, 0.8717071
3069.085, 0.9759743
3071.013, 1.182051
3072.942, 1.262552
3074.870, 0.8016012
3076.799, 0.8690709
3078.727, 1.198858
3080.656, 1.077537
3082.584, 1.043900
3084.513, 1.165936
3086.441, 1.314858
3088.370, 1.497900
3090.298, 1.670573
3092.227, 1.564536
3094.155, 1.255336
3096.083, 1.507216
3098.012, 1.237240
3099.940, 1.081404
3101.869, 1.571960
3103.797, 1.424465
3105.726, 1.201706
3107.654, 1.062649
3109.583, 0.9142150
3111.511, 1.248172
3113.440, 1.348555
3115.368, 1.290751
3117.297, 1.285951
3119.225, 1.074857
3121.154, 0.8935423
3123.082, 0.8719414
3125.010, 1.288424
3126.939, 1.042146
3128.867, 1.099932
3130.796, 1.600360
3132.724, 1.381851
3134.653, 1.046055
3136.581, 1.036163
3138.510, 1.402103
3140.438, 1.172741
3142.367, 1.528314
3144.295, 1.968619
3146.224, 1.695931
3148.152, 1.532815
3150.081, 1.803179
3152.009, 2.017742
3153.938, 1.541594
3155.866, 1.671922
3157.794, 1.564365
3159.723, 1.341017
3161.651, 1.419859
3163.580, 1.645241
3165.508, 2.065804
3167.437, 1.866040
3169.365, 1.343089
3171.294, 1.360624
3173.222, 1.688218
3175.151, 2.181708
3177.079, 2.381132
3179.008, 1.896523
3180.936, 1.858982
3182.865, 2.139016
3184.793, 1.789206
3186.721, 1.864943
3188.650, 2.117120
3190.578, 2.286869
3192.507, 2.362642
3194.435, 1.752605
3196.364, 1.870776
3198.292, 2.301000
3200.221, 1.675251
3202.149, 2.205166
3204.078, 2.512571
3206.006, 2.231881
3207.935, 1.887012
3209.863, 2.215625
3211.792, 2.628035
3213.720, 2.761995
3215.648, 1.897305
3217.577, 2.085712
3219.505, 2.291899
3221.434, 2.201948
3223.362, 2.004402
3225.291, 2.191524
3227.219, 2.267996
3229.148, 2.326470
3231.076, 2.576272
3233.005, 2.446944
3234.933, 1.922464
3236.862, 1.517398
3238.790, 1.881233
3240.719, 1.847164
3242.647, 2.081444
3244.575, 2.360105
3246.504, 2.529346
3248.432, 2.838498
3250.361, 2.802855
3252.289, 2.587962
3254.218, 2.363889
3256.146, 2.552435
3258.074, 2.399312
3260.003, 2.530822
3261.931, 2.914629
3263.860, 2.878405
3265.788, 2.962500
3267.717, 3.117646
3269.645, 3.058754
3271.574, 2.645846
3273.502, 2.825633
3275.431, 3.372009
3277.359, 3.764888
3279.288, 3.276732
3281.216, 3.487793
3283.145, 2.968430
3285.073, 2.552577
3287.001, 3.214565
3288.930, 3.329691
3290.858, 3.092094
3292.787, 3.113269
3294.715, 3.518395
3296.644, 3.791829
3298.572, 4.254497
3300.501, 4.338207
3302.429, 3.966457
3304.358, 3.534564
3306.286, 4.071073
3308.215, 4.171346
3310.143, 4.104213
3312.072, 4.418391
3314.000, 4.208444
3315.928, 4.414826
3317.857, 4.701468
3319.785, 4.665534
3321.714, 4.447283
3323.642, 4.717450
3325.571, 4.641132
3327.499, 4.483394
3329.428, 5.569345
3331.356, 4.818690
3333.285, 4.438750
3335.213, 4.580573
3337.142, 4.577229
3339.070, 4.762506
3340.999, 4.526237
3342.927, 4.600211
3344.855, 5.106599
3346.784, 4.525532
3348.712, 4.288321
3350.641, 4.497382
3352.569, 4.782462
3354.498, 4.730736
3356.426, 4.556091
3358.355, 3.770790
3360.283, 3.828655
3362.212, 5.098517
3364.140, 4.772389
3366.069, 4.265149
3367.997, 4.018248
3369.926, 4.173629
3371.854, 4.633094
3373.782, 4.624925
3375.711, 4.133324
3377.639, 3.562989
3379.568, 3.489718
3381.496, 4.667036
3383.425, 4.832726
3385.353, 4.217514
3387.282, 3.699813
3389.210, 4.078692
3391.139, 4.800257
3393.067, 4.466926
3394.996, 4.179965
3396.924, 4.315257
3398.853, 4.124913
3400.781, 4.329623
3402.709, 4.620686
3404.638, 4.507258
3406.566, 3.994001
3408.495, 5.162606
3410.423, 4.968188
3412.352, 4.518736
3414.280, 4.556201
3416.209, 5.165888
3418.137, 5.068620
3420.066, 4.936275
3421.994, 4.660804
3423.923, 4.460730
3425.851, 5.398743
3427.780, 5.593653
3429.708, 5.201094
3431.636, 4.765874
3433.565, 4.796900
3435.493, 5.975718
3437.422, 4.836050
3439.350, 4.726538
3441.279, 5.219333
3443.207, 4.169453
3445.136, 4.311858
3447.064, 4.171957
3448.993, 4.529967
3450.921, 5.085685
3452.850, 4.643619
3454.778, 5.360531
3456.707, 5.123937
3458.635, 5.008901
3460.563, 5.401002
3462.492, 5.315547
3464.420, 5.165622
3466.349, 4.867985
3468.277, 4.994449
3470.206, 5.440809
3472.134, 4.867963
3474.063, 5.111661
3475.991, 5.589669
3477.920, 5.957685
3479.848, 6.184755
3481.777, 6.717687
3483.705, 5.593184
3485.634, 5.741999
3487.562, 6.221274
3489.490, 5.665065
3491.419, 4.548110
3493.347, 4.813462
3495.276, 5.251344
3497.204, 5.220881
3499.133, 4.813443
3501.061, 5.233114
3502.990, 5.328071
3504.918, 5.577138
3506.847, 5.519667
3508.775, 4.817475
3510.704, 4.158772
3512.632, 4.397279
3514.561, 4.671920
3516.489, 4.293046
3518.417, 3.310042
3520.346, 2.749660
3522.274, 3.309156
3524.203, 3.560378
3526.131, 3.383333
3528.060, 3.218756
3529.988, 3.576415
3531.917, 3.554604
3533.845, 3.240785
3535.774, 2.759256
3537.702, 2.571760
3539.631, 3.303170
3541.559, 2.297257
3543.488, 2.593550
3545.416, 3.044065
3547.344, 3.266061
3549.273, 3.897210
3551.201, 2.756252
3553.130, 2.297078
3555.058, 2.500625
3556.987, 2.939465
3558.915, 3.169111
3560.844, 2.001813
3562.772, 1.896343
3564.701, 2.268602
3566.629, 2.567964
3568.558, 2.618735
3570.486, 2.547483
3572.415, 2.445454
3574.343, 2.120229
3576.271, 2.174804
3578.200, 2.470075
3580.128, 2.198418
3582.057, 1.873805
3583.985, 2.052919
3585.914, 2.281856
3587.842, 2.161638
3589.771, 1.788978
3591.699, 2.244027
3593.628, 2.245731
3595.556, 1.939509
3597.485, 1.616965
3599.413, 1.611108
3601.342, 2.161842
3603.270, 2.011694
3605.198, 2.100539
3607.127, 1.762194
3609.055, 1.514435
3610.984, 1.914663
3612.912, 1.324764
3614.841, 1.258373
3616.769, 1.180683
3618.698, 1.275962
3620.626, 1.769399
3622.555, 2.640427
3624.483, 1.849339
3626.412, 1.491629
3628.340, 1.569023
3630.269, 1.706743
3632.197, 1.715235
3634.125, 1.667785
3636.054, 1.111611
3637.982, 0.8521295
3639.911, 0.9796119
3641.839, 1.281106
3643.768, 1.409273
3645.696, 0.8180872
3647.625, 1.318923
3649.553, 1.598093
3651.482, 1.572740
3653.410, 1.488462
3655.339, 1.396552
3657.267, 1.141653
3659.196, 1.368806
3661.124, 1.546456
3663.052, 1.769530
3664.981, 1.946148
3666.909, 1.625071
3668.838, 1.642391
3670.766, 1.682640
3672.695, 1.517224
3674.623, 1.432730
3676.552, 1.490980
3678.480, 1.216888
3680.409, 2.163962
3682.337, 1.634807
3684.266, 1.152604
3686.194, 1.202749
3688.123, 1.207563
3690.051, 0.4209052
3691.979, 0.7320050
3693.908, 0.7541917
3695.836, 1.217401
3697.765, 1.210643
3699.693, 0.8557545
3701.622, 1.761317
3703.550, 1.016048
3705.479, 0.5010391
3707.407, 0.9534385
3709.336, 0.8519325
3711.264, 0.1803001
3713.193, 0.6004158
3715.121, 1.222203
3717.050, 0.8919047
3718.978, 0.5501772
3720.906, 0.3580875
3722.835, 0.4442074
3724.763, 0.8933583
3726.692, 0.8754231
3728.620, 0.7823139
3730.549, 0.6576449
3732.477, 0.6483516
3734.406, 0.6531340
3736.334, 0.5472370
3738.263, 0.4616581
3740.191, 0.9765618
3742.120, 0.5945295
3744.048, 0.3717992
3745.977, 0.6075958
3747.905, 0.8732877
3749.833, 0.7287165
3751.762, 0.8455517
3753.690, 0.5347201
3755.619, 0.3352752
3757.547, 0.7311567
3759.476, 0.8780687
3761.404, 0.1520489
3763.333, 0.1483548
3765.261, 0.3949933
3767.190, 0.4500628
3769.118, 0.8247757
3771.047, 0.7896500
3772.975, 0.4241212
3774.904, 0.6676110
3776.832, 0.2955230
3778.760, 0.3657603
3780.689, 0.5485325
3782.617, 0.6500007
3784.546, 0.7940515
3786.474, 0.8954905
3788.403, 0.4799470
3790.331, 0.8678857
3792.260, 0.9156021
3794.188, 0.4401709
3796.117, 0.2949864
3798.045, 0.5130961
3799.974, 0.5778203
3801.902, 0.3380382
3803.831, 0.7288064
3805.759, 0.5796508
3807.688, 0.6677389
3809.616, 0.6080736
3811.544, 0.1842469
3813.473, -0.1164429
3815.401, 0.3684970
3817.330, -0.1798171
3819.258, -0.4601072
3821.187, 0.4799460
3823.115, 0.8507773
3825.044, 0.5725533
3826.972, 0.5168127
3828.901, 0.5071496
3830.829, 0.7024077
3832.758, 0.8338827
3834.686, 0.5651709
3836.615, 0.4126517
3838.543, 0.5289504
3840.471, 0.6362768
3842.400, 0.4406888
3844.328, 0.1633355
3846.257, 8.2637928E-02
3848.185, 0.3936045
3850.114, 0.3338060
3852.042, 0.2533337
3853.971, 0.3735974
3855.899, 0.4149013
3857.828, 0.9003454
3859.756, 0.9138709
3861.685, 0.9497191
3863.613, 0.3379097
3865.542, 0.1301623
3867.470, 0.3578376
3869.398, 0.4273368
3871.327, 0.4886954
3873.255, 0.3553829
3875.184, 0.6232172
3877.112, -0.1129634
3879.041, -0.2457540
3880.969, 0.2721775
3882.898, 0.6959957
3884.826, 0.7430511
3886.755, 0.6312039
3888.683, 0.3787596
3890.612, 0.3951166
3892.540, -0.1108306
3894.469, 4.8262630E-02
3896.397, 0.3001379
3898.325, 0.4358735
3900.254, 0.9123381
3902.182, 0.1242926
3904.111, 0.2256469
3906.039, 1.206261
3907.968, 0.7894710
3909.896, 0.2839591
3911.825, 0.4083073
3913.753, 0.4483007
3915.682, 1.2383159E-03
3917.610, 0.4963852
3919.539, 1.7273960E-03
3921.467, 0.7606899
3923.396, 0.9848999
3925.324, 0.2088103
3927.252, 9.5273092E-02
3929.181, 0.4812115
3931.109, 9.2569210E-02
3933.038, -0.3855766
3934.966, -0.2726372
3936.895, 0.3027359
3938.823, -0.2316086
3940.752, -0.1662150
3942.680, 0.6043623
3944.609, 0.7715148
3946.537, 0.5750910
3948.466, 1.203081
3950.394, -0.3764153
3952.323, -0.4917821
3954.251, -0.3731382
3956.179, 0.1507923
3958.108, -0.2434487
3960.036, 0.2821941
3961.965, 0.9517636
3963.893, 0.3878095
3965.822, 0.4197357
3967.750, 0.3367148
3969.679, -2.1606039E-02
3971.607, 0.2494335
3973.536, 0.1784759
3975.464, -0.2398518
3977.393, 5.2867010E-02
3979.321, 0.4810223
3981.250, 0.1827869
3983.178, 4.6840152E-03
3985.106, 0.2531794
3987.035, 0.2875392
3988.963, 0.2851766
3990.892, -0.1220485
3992.820, 0.2131090
3994.749, 0.4174084
3996.677, 0.1153988
3998.606, 0.2507043
4000.534, 0.6781305
4002.463, 1.264134
4004.391, -9.5882609E-02
4006.320, 0.1614248
4008.248, -0.1810667
4010.177, 2.8621869E-02
4012.105, 0.2786199
4014.033, 8.0917599E-03
4015.962, -0.1290635
4017.890, 0.3147546
4019.819, 0.2908700
4021.747, 0.9241717
4023.676, 0.6607929
4025.604, -0.5592278
4027.533, -0.5604109
4029.461, -0.1568664
4031.390, -0.1370408
4033.318, -0.1099459
4035.247, 0.1041101
4037.175, -0.2457426
4039.104, -0.1729430
4041.032, 0.4128638
4042.960, -5.8106270E-02
4044.889, -7.8035090E-03
4046.817, 1.5570130E-02
4048.746, -0.1382362
4050.674, -0.3349187
4052.603, -0.3492644
4054.531, 6.1795220E-02
4056.460, 0.6220845
4058.388, 0.5062281
4060.317, -1.9523440E-02
4062.245, 0.2836437
4064.174, 0.5291312
4066.102, -0.3988377
4068.031, -0.3484709
4069.959, 0.1186005
4071.887, 0.3485824
4073.816, 0.4386233
4075.744, -0.1370616
4077.673, 0.3648591
4079.601, 0.2365734
4081.530, 0.7980411
4083.458, 0.3306312
4085.387, 0.8175679
4087.315, 0.8762800
4089.244, 0.4561985
4091.172, 0.3784810
4093.101, 0.3230853
4095.029, -4.5751680E-02
4096.958, 5.9623528E-02
4098.886, 0.1024325
4100.814, 0.7117484
4102.743, 0.8868644
4104.671, -2.4021070E-02
4106.600, 0.3803305
4108.528, -3.7241120E-02
4110.457, 0.1604463
4112.385, 0.6205838
4114.313, 0.3745230
4116.242, 2.8956041E-02
4118.170, 3.4383502E-02
4120.099, -0.3049601
4122.027, 0.2783040
4123.956, 0.1367275
4125.884, 0.3628195
4127.813, 0.2371719
4129.741, 0.2856410
4131.670, 0.2466606
4133.598, 0.7742034
4135.527, 0.7174509
4137.455, 0.4004030
4139.384, 0.4821718
4141.312, 0.1274360
4143.241, 0.3515047
4145.169, -5.5358831E-02
4147.098, 0.5306168
4149.026, 0.5245333
4150.955, 8.6590342E-02
4152.883, 0.6309522
4154.812, 0.2184552
4156.740, -0.2661967
4158.668, -0.2776695
4160.597, -4.7622960E-02
4162.525, 0.3820955
4164.454, 0.3918858
4166.382, -0.2895568
4168.311, 0.1394883
4170.239, 0.7851260
4172.167, 0.3082256
4174.096, 0.5222015
4176.024, 0.2922698
4177.953, 4.8108831E-02
4179.881, 1.2585690E-02
4181.810, 0.2509176
4183.738, 0.2549583
4185.667, 5.4196320E-02
4187.595, -0.1033733
4189.524, -8.4979132E-02
4191.452, -6.9543123E-02
4193.381, -0.1387858
4195.309, 0.5880126
4197.238, 0.3558148
4199.166, 0.2202268
4201.095, 5.0946131E-02
4203.023, 0.4008659
4204.952, 0.3634214
4206.880, 0.8299667
4208.809, 0.6375626
4210.737, 0.7540180
4212.666, 1.027603
4214.594, 1.162252
4216.522, 0.4672577
4218.451, -0.2620242
4220.379, 3.0656479E-02
4222.308, 0.2442691
4224.236, 0.2783611
4226.165, -0.2988271
4228.093, -8.4173247E-02
4230.021, -2.6836811E-02
4231.950, -0.6349219
4233.878, -0.1814964
4235.807, -0.1194102
4237.735, -0.2298628
4239.664, 0.4375484
4241.592, 0.4634526
4243.521, 9.7322747E-02
4245.449, 0.3053780
4247.378, 0.6793794
4249.306, 0.7334707
4251.235, 0.5032841
4253.163, 0.3285940
4255.092, 0.5608229
4257.020, 0.5121809
4258.949, 7.3670313E-02
4260.877, 0.3313964
4262.806, 0.2133725
4264.734, 0.2845294
4266.663, 7.3939443E-02
4268.591, -0.3081082
4270.520, -0.1130257
4272.448, 9.3852647E-02
4274.376, 0.9737363
4276.305, 0.6311485
4278.233, 0.1411144
4280.162, 0.4573967
4282.090, 0.3133081
4284.019, -0.1530845
4285.947, 5.4287061E-02
4287.875, 0.4083260
4289.804, 0.3118542
4291.732, 9.1598302E-02
4293.661, -2.8210370E-02
4295.589, 0.2508302
4297.518, 7.6176599E-02
4299.446, 0.1437759
4301.375, 0.3531793
4303.303, -0.3896356
4305.232, 0.2329343
4307.160, 0.4899413
4309.089, 0.2137869
4311.017, 8.5079417E-02
4312.946, -5.1572729E-02
4314.874, 0.8913482
4316.803, 0.4889763
4318.731, 0.4091799
4320.660, 0.3261889
4322.588, 0.2077703
4324.517, 0.2234199
4326.445, 0.1113214
4328.374, 0.2183346
4330.302, 0.3807138
4332.230, 0.2587685
4334.159, 1.1410270E-02
4336.087, 9.6656300E-02
4338.016, 0.3832131
4339.944, -0.4494520
4341.873, 0.2786717
4343.801, 0.3392636
4345.729, 0.1344484
4347.658, 0.7468119
##END=



