##NAMES=Marokite
##RRUFFID=R060829
##IDEAL CHEMISTRY=CaMn^3+^_2_O_4_
##LOCALITY=Tachguagalt, Morocco
##OWNER=RRUFF
##SOURCE=Michael Scott
##DESCRIPTION=Black with carmine-red internal reflections, massive
##STATUS=The identification of this mineral has been confirmed by X-ray diffraction and chemical analysis
##URL=https://www.rruff.net/odr/rruff_sample/R060829
##MEASURED CHEMISTRY=Ca_1.00_Mn^3+^_2.00_O_4_
##DIFFRACTION SAMPLE DESCRIPTION=Powder
##CELL PARAMETERS=a: 3.15927 b: 9.994 c: 9.6794 alpha: 90 beta: 90 gamma: 90 volume: 305.6 crystal system: orthorhombic
##FILETYPE=Raman RAW
##RAMAN WAVELENGTH=532

122.6892, 209.8782
124.6177, 223.6563
126.5461, 228.2557
128.4746, 231.2327
130.4031, 230.8540
132.3315, 231.0717
134.2600, 233.4501
136.1885, 239.4392
138.1169, 245.6819
140.0454, 250.9138
141.9739, 256.0622
143.9023, 263.8187
145.8308, 273.3458
147.7593, 286.4539
149.6877, 305.1666
151.6162, 337.9373
153.5447, 367.6188
155.4731, 394.1514
157.4016, 418.7638
159.3301, 426.7696
161.2585, 407.7060
163.1870, 372.7707
165.1155, 341.7137
167.0439, 311.1044
168.9724, 287.7527
170.9009, 274.1424
172.8293, 273.5000
174.7578, 275.9530
176.6863, 283.6671
178.6147, 294.4454
180.5432, 298.5373
182.4717, 288.2570
184.4001, 276.1660
186.3286, 270.6580
188.2571, 279.0471
190.1855, 287.2838
192.1140, 295.2883
194.0425, 302.7695
195.9709, 306.6307
197.8994, 300.9369
199.8279, 293.1623
201.7563, 291.9846
203.6848, 309.5891
205.6133, 321.6009
207.5417, 318.1860
209.4702, 298.5491
211.3987, 280.9572
213.3272, 266.8010
215.2556, 256.3988
217.1841, 250.6479
219.1126, 251.6139
221.0410, 254.6835
222.9695, 258.0728
224.8980, 262.5927
226.8264, 265.4450
228.7549, 263.0188
230.6834, 258.0905
232.6118, 260.4201
234.5403, 275.0952
236.4688, 293.1830
238.3972, 309.5781
240.3257, 330.0183
242.2542, 340.8804
244.1826, 336.3005
246.1111, 319.0670
248.0396, 302.8094
249.9680, 286.9010
251.8965, 273.5588
253.8250, 264.7379
255.7534, 260.3399
257.6819, 260.5526
259.6104, 267.5952
261.5388, 280.3563
263.4673, 293.8958
265.3958, 309.4501
267.3242, 324.7758
269.2527, 337.4666
271.1812, 347.5585
273.1096, 355.4778
275.0381, 360.3820
276.9666, 362.4250
278.8950, 364.7469
280.8235, 370.7629
282.7520, 376.1360
284.6804, 374.7336
286.6089, 364.0433
288.5374, 351.8910
290.4658, 339.4611
292.3943, 325.5735
294.3228, 317.9832
296.2512, 319.8469
298.1797, 326.5070
300.1082, 331.2560
302.0366, 331.2951
303.9651, 334.4252
305.8936, 341.0504
307.8220, 348.7648
309.7505, 370.1810
311.6790, 408.5096
313.6074, 458.9802
315.5359, 520.0475
317.4644, 618.0853
319.3928, 681.1691
321.3213, 682.5900
323.2498, 601.3830
325.1782, 525.3929
327.1067, 446.9812
329.0352, 378.4485
330.9636, 329.2652
332.8921, 308.5840
334.8206, 296.2726
336.7491, 286.3743
338.6775, 279.0128
340.6060, 276.0309
342.5345, 279.2868
344.4629, 286.3365
346.3914, 295.3578
348.3199, 312.2646
350.2483, 322.0060
352.1768, 318.0229
354.1053, 298.3748
356.0337, 283.1786
357.9622, 273.8306
359.8907, 268.6560
361.8191, 265.6592
363.7476, 263.0832
365.6761, 265.9725
367.6045, 275.5158
369.5330, 292.3214
371.4615, 313.3446
373.3899, 348.5828
375.3184, 380.5764
377.2469, 398.0669
379.1753, 392.6319
381.1038, 383.0423
383.0323, 366.5725
384.9607, 346.1962
386.8892, 333.5412
388.8177, 332.7624
390.7461, 336.5954
392.6746, 342.0361
394.6031, 357.4875
396.5315, 360.0383
398.4600, 341.0771
400.3885, 308.9839
402.3169, 282.5432
404.2454, 262.6078
406.1739, 248.1994
408.1023, 238.9248
410.0308, 237.1966
411.9593, 235.4655
413.8877, 234.1182
415.8162, 232.6319
417.7447, 230.3544
419.6731, 226.6734
421.6016, 223.2446
423.5301, 220.0334
425.4585, 216.8588
427.3870, 216.1528
429.3155, 221.2812
431.2439, 226.6422
433.1724, 227.2526
435.1009, 220.2488
437.0293, 215.8723
438.9578, 217.9113
440.8863, 225.2389
442.8147, 229.6387
444.7432, 228.6483
446.6717, 227.0818
448.6001, 227.0931
450.5286, 228.7697
452.4571, 231.3146
454.3855, 235.3956
456.3140, 240.1366
458.2425, 243.6762
460.1709, 244.1613
462.0994, 246.0740
464.0279, 250.9798
465.9563, 258.6141
467.8848, 268.1403
469.8133, 281.3931
471.7417, 295.2727
473.6702, 308.0951
475.5987, 322.5060
477.5271, 330.2558
479.4556, 325.7786
481.3841, 312.8048
483.3125, 299.8524
485.2410, 285.4095
487.1695, 272.7255
489.0979, 263.5007
491.0264, 258.3481
492.9549, 253.7970
494.8833, 248.1223
496.8118, 243.6660
498.7403, 242.9574
500.6687, 248.9016
502.5972, 254.9789
504.5257, 258.4808
506.4541, 260.2013
508.3826, 266.7587
510.3111, 284.0104
512.2395, 300.3115
514.1680, 309.7838
516.0964, 310.7135
518.0249, 309.0716
519.9534, 302.3196
521.8818, 294.5121
523.8103, 291.9968
525.7388, 294.6651
527.6672, 302.0599
529.5957, 317.8208
531.5242, 341.2770
533.4526, 356.2827
535.3811, 362.3860
537.3096, 360.7076
539.2380, 347.8458
541.1665, 321.0405
543.0950, 298.9463
545.0234, 287.5746
546.9519, 282.4788
548.8804, 278.0418
550.8088, 273.4744
552.7373, 270.6142
554.6658, 269.3893
556.5942, 270.2679
558.5227, 274.4812
560.4512, 285.3828
562.3796, 296.5387
564.3081, 304.0731
566.2366, 305.7209
568.1650, 310.1993
570.0935, 317.8418
572.0220, 328.4394
573.9504, 343.0571
575.8789, 365.7521
577.8074, 382.9164
579.7358, 386.8253
581.6644, 380.2942
583.5928, 378.0922
585.5213, 378.7209
587.4498, 385.0189
589.3782, 397.4979
591.3067, 416.0276
593.2352, 444.7604
595.1636, 482.0411
597.0921, 532.2731
599.0206, 597.4493
600.9490, 676.5787
602.8775, 775.6488
604.8060, 906.0402
606.7344, 1055.832
608.6629, 1201.419
610.5914, 1379.397
612.5198, 1495.766
614.4483, 1506.149
616.3768, 1416.670
618.3052, 1300.058
620.2337, 1122.574
622.1622, 948.6053
624.0906, 813.5940
626.0191, 720.5752
627.9476, 644.8248
629.8760, 591.3885
631.8045, 551.2067
633.7330, 515.7870
635.6614, 488.4472
637.5899, 460.6963
639.5184, 426.9212
641.4468, 391.6596
643.3753, 367.5792
645.3038, 357.9749
647.2322, 353.5046
649.1607, 351.4009
651.0892, 351.3553
653.0176, 352.4574
654.9461, 358.7059
656.8746, 362.6194
658.8030, 359.6411
660.7315, 348.2353
662.6600, 337.2715
664.5884, 325.5971
666.5169, 316.1067
668.4454, 311.1069
670.3738, 312.3138
672.3023, 314.0638
674.2308, 316.5761
676.1592, 318.7210
678.0877, 317.6631
680.0162, 310.6192
681.9446, 304.7285
683.8731, 303.9902
685.8016, 306.1901
687.7300, 304.7621
689.6585, 292.8698
691.5870, 284.2330
693.5154, 285.1441
695.4439, 297.2580
697.3724, 306.6581
699.3008, 308.3605
701.2293, 311.3364
703.1578, 321.1461
705.0862, 337.8456
707.0147, 356.9226
708.9432, 378.8402
710.8716, 402.0036
712.8001, 425.6779
714.7286, 456.9053
716.6570, 477.8902
718.5855, 489.3926
720.5140, 488.6958
722.4424, 472.8107
724.3709, 434.7509
726.2994, 397.0314
728.2278, 363.7415
730.1563, 335.3264
732.0848, 314.7334
734.0132, 307.4140
735.9417, 301.6267
737.8702, 293.9115
739.7986, 285.1704
741.7271, 279.3266
743.6556, 278.0671
745.5840, 278.2051
747.5125, 279.0372
749.4410, 281.2105
751.3694, 280.2567
753.2979, 272.2012
755.2264, 264.6459
757.1548, 263.0625
759.0833, 267.7710
761.0118, 271.3238
762.9402, 271.6412
764.8687, 271.1792
766.7972, 272.0280
768.7256, 275.2671
770.6541, 276.5733
772.5826, 273.9731
774.5110, 270.1872
776.4395, 268.7521
778.3680, 270.9948
780.2964, 271.4494
782.2249, 266.2477
784.1534, 259.7448
786.0818, 257.8123
788.0103, 263.9453
789.9388, 267.6342
791.8672, 264.2758
793.7957, 257.3800
795.7242, 255.5392
797.6526, 263.4418
799.5811, 268.9973
801.5096, 266.7359
803.4380, 260.4638
805.3665, 258.3041
807.2950, 263.4521
809.2234, 268.0688
811.1519, 269.4700
813.0804, 268.0673
815.0089, 266.7052
816.9373, 266.1211
818.8658, 264.7244
820.7943, 260.6109
822.7227, 255.0049
824.6512, 252.7071
826.5797, 256.2027
828.5081, 260.1141
830.4366, 262.3898
832.3651, 263.0291
834.2935, 263.5084
836.2220, 264.4119
838.1505, 264.5718
840.0789, 262.7504
842.0074, 259.1063
843.9359, 257.2144
845.8643, 258.3542
847.7928, 259.9554
849.7213, 261.1236
851.6497, 261.8882
853.5782, 261.3912
855.5067, 256.4714
857.4351, 253.1372
859.3636, 255.1118
861.2921, 263.3406
863.2205, 268.4608
865.1490, 268.5489
867.0775, 267.1575
869.0059, 265.6737
870.9344, 264.1143
872.8629, 262.9984
874.7913, 261.8973
876.7198, 261.8641
878.6483, 264.0050
880.5767, 269.1015
882.5052, 272.2347
884.4337, 272.8565
886.3621, 272.2827
888.2906, 270.2976
890.2191, 267.1225
892.1475, 265.9532
894.0760, 269.2307
896.0045, 272.2944
897.9329, 271.8162
899.8614, 266.8954
901.7899, 265.9964
903.7183, 274.1897
905.6468, 281.7575
907.5753, 283.2930
909.5037, 278.3120
911.4322, 275.3218
913.3607, 274.8216
915.2891, 275.9140
917.2176, 279.1816
919.1461, 284.2001
921.0745, 287.1635
923.0030, 286.4427
924.9315, 284.8458
926.8599, 283.1878
928.7884, 281.4940
930.7169, 280.1031
932.6453, 278.8489
934.5738, 278.0336
936.5023, 276.8875
938.4307, 276.0765
940.3592, 278.7710
942.2877, 288.9638
944.2161, 296.5617
946.1446, 296.1593
948.0731, 289.2562
950.0015, 285.1602
951.9300, 287.0800
953.8585, 288.3230
955.7869, 286.5505
957.7154, 282.9512
959.6439, 281.7371
961.5723, 284.6045
963.5008, 286.5097
965.4293, 284.5694
967.3577, 280.9166
969.2862, 279.1474
971.2147, 279.8859
973.1431, 281.4451
975.0716, 284.1709
977.0001, 287.1757
978.9285, 289.0654
980.8570, 290.0239
982.7855, 289.5223
984.7139, 286.7653
986.6424, 282.8884
988.5709, 278.5349
990.4993, 273.1335
992.4278, 270.6871
994.3563, 274.6329
996.2847, 280.1721
998.2132, 283.5003
1000.142, 284.0225
1002.070, 284.9313
1003.999, 286.5613
1005.927, 288.4954
1007.856, 290.5512
1009.784, 292.7021
1011.712, 294.5560
1013.641, 296.4417
1015.569, 297.5850
1017.498, 296.8803
1019.426, 294.9016
1021.355, 294.1874
1023.283, 296.1334
1025.212, 297.7246
1027.140, 297.8380
1029.069, 296.7421
1030.997, 295.5499
1032.926, 292.5815
1034.854, 291.6164
1036.782, 294.8233
1038.711, 300.0792
1040.639, 303.1940
1042.568, 303.9618
1044.496, 303.4898
1046.425, 300.4260
1048.353, 297.2085
1050.282, 296.6458
1052.210, 299.4818
1054.139, 301.2361
1056.067, 299.0921
1057.996, 297.2932
1059.924, 299.2621
1061.853, 306.5447
1063.781, 310.5002
1065.709, 308.7876
1067.638, 306.1746
1069.566, 304.1067
1071.495, 302.7904
1073.423, 303.5178
1075.352, 307.8629
1077.280, 311.6584
1079.209, 312.9503
1081.137, 312.5713
1083.066, 312.2983
1084.994, 313.1198
1086.923, 311.9844
1088.851, 305.1833
1090.780, 297.8427
1092.708, 296.5789
1094.637, 306.4367
1096.565, 312.7226
1098.494, 314.5278
1100.422, 313.5961
1102.350, 309.9802
1104.279, 303.9709
1106.207, 299.6838
1108.136, 298.2909
1110.064, 297.6644
1111.993, 296.6111
1113.921, 295.3413
1115.850, 295.0978
1117.778, 297.7623
1119.707, 298.3442
1121.635, 293.6986
1123.564, 286.9857
1125.492, 283.7651
1127.421, 287.6900
1129.349, 288.8258
1131.277, 283.9221
1133.206, 278.2120
1135.134, 276.8408
1137.063, 279.5561
1138.991, 280.7690
1140.920, 278.6954
1142.848, 276.4546
1144.777, 275.1328
1146.705, 274.8240
1148.634, 276.3616
1150.562, 282.1100
1152.491, 285.7060
1154.419, 284.4352
1156.348, 280.7270
1158.276, 278.1518
1160.204, 276.1942
1162.133, 276.4575
1164.061, 281.7660
1165.990, 287.0634
1167.918, 288.2667
1169.847, 285.6230
1171.775, 282.7676
1173.704, 278.4254
1175.632, 276.1841
1177.561, 280.5248
1179.489, 287.7199
1181.418, 288.8986
1183.346, 280.3220
1185.275, 274.4575
1187.203, 276.2931
1189.131, 280.4786
1191.060, 282.0792
1192.988, 280.2847
1194.917, 278.4637
1196.845, 275.6695
1198.774, 273.9170
1200.702, 274.7084
1202.631, 277.5856
1204.559, 279.8570
1206.488, 281.2950
1208.416, 282.5236
1210.345, 284.1873
1212.273, 285.3049
1214.202, 284.4514
1216.130, 281.2978
1218.058, 279.0883
1219.987, 277.7141
1221.915, 278.3813
1223.844, 283.3275
1225.772, 292.0228
1227.701, 296.5159
1229.629, 294.7260
1231.558, 291.3380
1233.486, 284.8803
1235.415, 278.1794
1237.343, 275.2939
1239.272, 277.1502
1241.200, 280.3032
1243.129, 287.6612
1245.057, 293.4736
1246.985, 292.7927
1248.914, 287.3920
1250.842, 284.9643
1252.771, 287.7301
1254.699, 288.9923
1256.628, 284.5705
1258.556, 278.4614
1260.485, 274.9771
1262.413, 274.3790
1264.342, 274.8840
1266.270, 277.1384
1268.199, 279.6955
1270.127, 281.5573
1272.056, 283.0831
1273.984, 286.1866
1275.912, 294.0583
1277.841, 299.0871
1279.769, 297.4665
1281.698, 294.6996
1283.626, 297.9020
1285.555, 308.5013
1287.483, 311.7545
1289.412, 300.4731
1291.340, 290.0257
1293.269, 287.3941
1295.197, 289.4980
1297.126, 290.2021
1299.054, 288.9167
1300.983, 288.6278
1302.911, 292.2663
1304.839, 294.8914
1306.768, 291.5733
1308.696, 283.2497
1310.625, 280.6040
1312.553, 288.8982
1314.482, 294.9840
1316.410, 293.5131
1318.339, 289.3256
1320.267, 288.6790
1322.196, 293.5976
1324.124, 295.8032
1326.053, 293.6954
1327.981, 290.8102
1329.910, 288.1504
1331.838, 285.8378
1333.766, 284.1903
1335.695, 283.0468
1337.623, 283.0070
1339.552, 284.2924
1341.480, 286.6428
1343.409, 291.8983
1345.337, 298.5765
1347.266, 298.6454
1349.194, 287.7296
1351.123, 279.4073
1353.051, 280.4987
1354.980, 285.0121
1356.908, 287.7459
1358.837, 288.7089
1360.765, 287.7627
1362.693, 282.7947
1364.622, 279.1384
1366.550, 278.7375
1368.479, 280.7610
1370.407, 283.9969
1372.336, 289.4537
1374.264, 293.3828
1376.193, 295.7020
1378.121, 296.3950
1380.050, 294.4020
1381.978, 290.5809
1383.907, 288.2529
1385.835, 289.2984
1387.764, 288.3940
1389.692, 282.0804
1391.620, 276.5195
1393.549, 277.4509
1395.477, 283.5620
1397.406, 285.5287
1399.334, 281.8078
1401.263, 277.8123
1403.191, 273.4740
1405.120, 270.5835
1407.048, 271.5117
1408.977, 275.5689
1410.905, 278.6604
1412.834, 281.1459
1414.762, 281.0089
1416.691, 273.9226
1418.619, 266.2549
1420.547, 264.7254
1422.476, 269.3653
1424.404, 274.6873
1426.333, 282.8265
1428.261, 287.1276
1430.190, 282.2437
1432.118, 274.3273
1434.047, 271.9034
1435.975, 276.6006
1437.904, 278.7614
1439.832, 275.1942
1441.761, 272.3639
1443.689, 273.3156
1445.618, 275.6319
1447.546, 275.2425
1449.474, 270.6882
1451.403, 268.2943
1453.331, 270.1088
1455.260, 271.5940
1457.188, 270.4015
1459.117, 268.1124
1461.045, 267.5832
1462.974, 269.2166
1464.902, 270.7477
1466.831, 273.2531
1468.759, 274.1885
1470.688, 270.1606
1472.616, 264.7932
1474.545, 265.5813
1476.473, 273.3854
1478.401, 277.6662
1480.330, 274.6201
1482.258, 271.4582
1484.187, 272.6304
1486.115, 275.1704
1488.044, 273.7433
1489.972, 267.9516
1491.901, 265.6983
1493.829, 271.2044
1495.758, 275.4557
1497.686, 272.3550
1499.615, 266.4196
1501.543, 263.5945
1503.472, 264.0197
1505.400, 265.5240
1507.328, 268.0865
1509.257, 271.3998
1511.185, 277.6694
1513.114, 283.3153
1515.042, 282.5544
1516.971, 274.7262
1518.899, 269.9262
1520.828, 269.6761
1522.756, 271.3057
1524.685, 277.2571
1526.613, 282.3327
1528.542, 279.5561
1530.470, 267.5979
1532.399, 261.4457
1534.327, 265.0696
1536.255, 268.6940
1538.184, 270.4631
1540.112, 271.6598
1542.041, 273.1672
1543.969, 274.9957
1545.898, 277.5020
1547.826, 282.1509
1549.755, 285.2067
1551.683, 284.6794
1553.612, 284.0250
1555.540, 286.7822
1557.469, 291.7047
1559.397, 292.7572
1561.326, 285.7657
1563.254, 281.7414
1565.182, 282.9010
1567.111, 284.7215
1569.039, 284.8140
1570.968, 283.9268
1572.896, 284.0182
1574.825, 285.9684
1576.753, 286.1019
1578.682, 283.3052
1580.610, 280.0759
1582.539, 275.3680
1584.467, 271.7949
1586.396, 274.4160
1588.324, 284.0940
1590.253, 288.1231
1592.181, 281.2088
1594.109, 276.7700
1596.038, 280.1758
1597.966, 285.4127
1599.895, 287.9859
1601.823, 287.9373
1603.752, 285.3683
1605.680, 278.0226
1607.609, 274.8010
1609.537, 282.4024
1611.466, 289.1406
1613.394, 287.0018
1615.323, 279.8795
1617.251, 275.8703
1619.180, 275.0544
1621.108, 275.7754
1623.036, 278.7692
1624.965, 281.7606
1626.893, 283.3232
1628.822, 284.8211
1630.750, 289.1396
1632.679, 295.4923
1634.607, 297.0920
1636.536, 292.3221
1638.464, 286.7310
1640.393, 278.1835
1642.321, 272.7872
1644.250, 277.0011
1646.178, 286.7378
1648.107, 291.9823
1650.035, 292.0905
1651.964, 292.8855
1653.892, 297.0533
1655.820, 298.9793
1657.749, 293.6805
1659.677, 286.8472
1661.606, 285.8689
1663.534, 289.5537
1665.463, 289.3927
1667.391, 282.5055
1669.320, 279.6654
1671.248, 287.5526
1673.177, 296.0128
1675.105, 298.8888
1677.034, 298.2307
1678.962, 298.3345
1680.891, 299.2802
1682.819, 298.0540
1684.747, 291.1378
1686.676, 287.9286
1688.604, 296.0167
1690.533, 305.7050
1692.461, 308.4309
1694.390, 305.5187
1696.318, 301.1733
1698.247, 294.2864
1700.175, 291.5553
1702.104, 297.4544
1704.032, 303.3204
1705.961, 306.4885
1707.889, 306.8515
1709.818, 302.1694
1711.746, 293.3426
1713.674, 290.7725
1715.603, 297.7559
1717.531, 303.2517
1719.460, 303.6856
1721.388, 303.3062
1723.317, 305.1982
1725.245, 307.5448
1727.174, 306.1787
1729.102, 300.8068
1731.031, 298.6678
1732.959, 302.5934
1734.888, 305.2467
1736.816, 302.9079
1738.745, 300.8334
1740.673, 304.0145
1742.601, 309.9195
1744.530, 311.4523
1746.458, 307.0716
1748.387, 306.2380
1750.315, 313.8123
1752.244, 318.4646
1754.172, 316.7852
1756.101, 312.1066
1758.029, 304.2084
1759.958, 295.5522
1761.886, 294.5519
1763.815, 304.5850
1765.743, 312.1506
1767.672, 319.2452
1769.600, 321.2721
1771.528, 311.2964
1773.457, 301.2359
1775.385, 301.9285
1777.314, 310.6199
1779.242, 317.8941
1781.171, 325.1978
1783.099, 326.8243
1785.028, 315.5881
1786.956, 308.4790
1788.885, 312.6617
1790.813, 319.1150
1792.742, 320.6632
1794.670, 318.8617
1796.599, 319.2133
1798.527, 322.9570
1800.455, 323.5222
1802.384, 317.5249
1804.312, 313.6166
1806.241, 316.0295
1808.169, 318.8555
1810.098, 317.4773
1812.026, 313.7242
1813.955, 311.9500
1815.883, 312.1817
1817.812, 314.3560
1819.740, 319.9753
1821.669, 323.7463
1823.597, 322.5852
1825.526, 320.9091
1827.454, 321.6116
1829.382, 323.2642
1831.311, 322.8875
1833.239, 320.8381
1835.168, 322.2326
1837.096, 329.1421
1839.025, 333.1876
1840.953, 330.2545
1842.882, 326.9987
1844.810, 326.9380
1846.739, 328.3984
1848.667, 330.4283
1850.596, 332.3964
1852.524, 330.6519
1854.453, 323.9749
1856.381, 319.0057
1858.309, 316.9991
1860.238, 316.5343
1862.166, 318.5989
1864.095, 320.7997
1866.023, 320.7913
1867.952, 319.3316
1869.880, 318.3785
1871.809, 317.6616
1873.737, 318.5395
1875.666, 322.2226
1877.594, 325.4752
1879.523, 329.0797
1881.451, 330.6673
1883.380, 327.8103
1885.308, 322.8589
1887.236, 317.6466
1889.165, 312.4219
1891.093, 315.0984
1893.022, 329.1628
1894.950, 340.8146
1896.879, 351.7697
1898.807, 355.2349
1900.736, 342.4570
1902.664, 328.0481
1904.593, 322.9167
1906.521, 324.3760
1908.450, 327.4831
1910.378, 332.1200
1912.307, 332.3806
1914.235, 325.8605
1916.163, 322.1074
1918.092, 325.3927
1920.020, 329.0744
1921.949, 328.3247
1923.877, 327.4246
1925.806, 332.6687
1927.734, 341.4481
1929.663, 344.4141
1931.591, 340.8656
1933.520, 336.9090
1935.448, 330.7557
1937.377, 328.0577
1939.305, 333.3375
1941.234, 338.3036
1943.162, 337.6379
1945.090, 334.8506
1947.019, 334.3083
1948.947, 335.6935
1950.876, 336.9592
1952.804, 338.1978
1954.733, 338.8201
1956.661, 337.3778
1958.590, 337.8251
1960.518, 344.4551
1962.447, 349.2086
1964.375, 346.7072
1966.304, 341.0081
1968.232, 336.2897
1970.161, 332.7473
1972.089, 331.4015
1974.017, 332.3434
1975.946, 334.4428
1977.874, 337.8785
1979.803, 341.6720
1981.731, 347.6810
1983.660, 351.4416
1985.588, 348.9765
1987.517, 344.2234
1989.445, 341.7933
1991.374, 341.0486
1993.302, 338.7583
1995.231, 333.3743
1997.159, 333.1436
1999.088, 343.3911
2001.016, 350.2415
2002.944, 351.4729
2004.873, 350.2180
2006.801, 345.5136
2008.730, 340.9143
2010.658, 340.9464
2012.587, 343.4406
2014.515, 341.4690
2016.444, 335.2201
2018.372, 333.6761
2020.301, 338.2993
2022.229, 343.0960
2024.158, 347.8534
2026.086, 350.7228
2028.015, 350.5898
2029.943, 348.6460
2031.871, 344.7279
2033.800, 340.1216
2035.728, 335.9814
2037.657, 332.7227
2039.585, 333.3402
2041.514, 339.3758
2043.442, 344.2277
2045.371, 350.1397
2047.299, 351.3361
2049.228, 340.7844
2051.156, 333.4381
2053.084, 338.4001
2055.013, 346.5568
2056.941, 350.1298
2058.870, 350.6539
2060.798, 351.7610
2062.727, 353.2486
2064.656, 352.7342
2066.584, 349.6830
2068.512, 347.7174
2070.441, 347.7318
2072.369, 348.0309
2074.298, 346.6805
2076.226, 347.2501
2078.155, 355.1749
2080.083, 362.9223
2082.012, 360.8361
2083.940, 352.8772
2085.869, 349.5335
2087.797, 350.9890
2089.726, 352.4788
2091.654, 354.9596
2093.583, 354.3503
2095.511, 347.4002
2097.439, 342.9853
2099.368, 343.6714
2101.296, 346.8761
2103.225, 355.8371
2105.153, 362.6522
2107.082, 356.7794
2109.010, 345.0725
2110.939, 341.2769
2112.867, 344.6100
2114.796, 346.6156
2116.724, 346.0474
2118.653, 348.6166
2120.581, 360.0362
2122.510, 366.1622
2124.438, 361.6880
2126.366, 355.9540
2128.295, 350.3162
2130.223, 347.2271
2132.152, 350.3928
2134.080, 356.2634
2136.009, 359.6774
2137.937, 360.6974
2139.866, 358.5373
2141.794, 353.2616
2143.723, 352.4918
2145.651, 358.6179
2147.580, 362.3683
2149.508, 361.3951
2151.437, 358.9816
2153.365, 353.2337
2155.293, 349.8047
2157.222, 352.6795
2159.150, 358.5811
2161.079, 367.6113
2163.007, 375.7030
2164.936, 370.9728
2166.864, 355.0865
2168.793, 348.5542
2170.721, 352.2582
2172.650, 355.2006
2174.578, 355.9081
2176.507, 357.6043
2178.435, 362.7410
2180.364, 365.6308
2182.292, 362.3126
2184.220, 358.4135
2186.149, 356.3571
2188.077, 356.1597
2190.006, 359.6893
2191.934, 364.3359
2193.863, 362.9629
2195.791, 356.6349
2197.720, 358.2552
2199.648, 368.7807
2201.577, 371.6965
2203.505, 363.3134
2205.434, 359.6020
2207.362, 366.1807
2209.291, 371.4661
2211.219, 370.3113
2213.147, 368.6129
2215.076, 370.7343
2217.004, 371.9702
2218.933, 364.6871
2220.861, 356.5420
2222.790, 362.4469
2224.718, 377.2516
2226.647, 380.5622
2228.575, 372.7740
2230.504, 367.5444
2232.432, 365.4004
2234.361, 365.1395
2236.289, 367.5599
2238.218, 368.2919
2240.146, 364.1300
2242.074, 361.7045
2244.003, 364.5414
2245.931, 367.9467
2247.860, 370.7830
2249.788, 371.6241
2251.717, 366.2929
2253.645, 360.0419
2255.574, 362.6761
2257.502, 371.4605
2259.431, 377.0216
2261.359, 379.4290
2263.288, 378.4577
2265.216, 373.5323
2267.145, 373.4147
2269.073, 382.8841
2271.001, 386.5972
2272.930, 376.5757
2274.858, 369.2552
2276.787, 368.3401
2278.715, 370.9201
2280.644, 380.7456
2282.572, 387.9551
2284.501, 382.7104
2286.429, 373.3490
2288.358, 368.3698
2290.286, 366.6067
2292.215, 366.6108
2294.143, 367.9684
2296.072, 368.2631
2298.000, 367.3051
2299.928, 368.7879
2301.857, 374.9909
2303.785, 377.6774
2305.714, 375.2535
2307.642, 373.1924
2309.571, 372.3752
2311.499, 371.5788
2313.428, 369.6057
2315.356, 368.9743
2317.285, 371.9443
2319.213, 364.9238
2321.142, 377.5933
2323.070, 384.5804
2324.999, 386.1901
2326.927, 366.3175
2328.855, 374.1851
2330.784, 370.9355
2332.712, 367.2302
2334.641, 379.0019
2336.569, 362.2539
2338.498, 373.7802
2340.426, 374.0199
2342.355, 379.4252
2344.283, 373.6449
2346.212, 371.3194
2348.140, 380.1833
2350.069, 379.6084
2351.997, 385.1659
2353.926, 382.2862
2355.854, 378.9480
2357.782, 378.2873
2359.711, 378.2732
2361.639, 377.6254
2363.568, 376.9874
2365.496, 376.3567
2367.425, 376.6012
2369.353, 379.7989
2371.282, 384.6703
2373.210, 388.0093
2375.139, 389.9019
2377.067, 390.9077
2378.996, 391.0302
2380.924, 389.3505
2382.853, 385.7421
2384.781, 381.2156
2386.709, 374.8074
2388.638, 372.9917
2390.566, 380.1330
2392.495, 385.1642
2394.423, 384.6198
2396.352, 384.3864
2398.280, 386.6725
2400.209, 388.5633
2402.137, 388.7738
2404.066, 388.5615
2405.994, 390.0373
2407.923, 389.7299
2409.851, 381.9584
2411.780, 373.3284
2413.708, 371.0862
2415.636, 373.7626
2417.565, 380.6096
2419.493, 389.7702
2421.422, 395.5561
2423.350, 398.2923
2425.279, 399.2173
2427.207, 398.4620
2429.136, 397.0454
2431.064, 394.8390
2432.993, 393.8647
2434.921, 395.0330
2436.850, 395.0284
2438.778, 392.6802
2440.707, 391.5664
2442.635, 392.2831
2444.563, 393.8306
2446.492, 397.9454
2448.420, 398.4416
2450.349, 387.9068
2452.277, 381.4732
2454.206, 390.4369
2456.134, 399.1139
2458.063, 397.9265
2459.991, 393.7605
2461.920, 388.3262
2463.848, 385.8049
2465.777, 395.9366
2467.705, 406.5288
2469.634, 398.7710
2471.562, 384.1041
2473.490, 383.7656
2475.419, 392.1772
2477.347, 393.4701
2479.276, 389.2951
2481.204, 389.0550
2483.133, 392.3200
2485.061, 394.4442
2486.990, 395.4384
2488.918, 397.9626
2490.847, 402.7456
2492.775, 402.3598
2494.704, 392.4373
2496.632, 388.5994
2498.561, 395.5063
2500.489, 396.1552
2502.417, 385.3524
2504.346, 380.6613
2506.274, 387.9239
2508.203, 394.3699
2510.131, 383.1093
2512.060, 396.1520
2513.988, 403.5121
2515.917, 405.4951
2517.845, 385.9956
2519.774, 394.2363
2521.702, 391.3600
2523.631, 388.0278
2525.559, 400.1728
2527.488, 383.7979
2529.416, 395.6974
2531.344, 396.3103
2533.273, 402.0889
2535.201, 396.6817
2537.130, 394.7295
2539.058, 403.9665
2540.987, 396.0703
2542.915, 396.7484
2544.844, 401.1190
2546.772, 406.5916
2548.701, 407.5627
2550.629, 404.5967
2552.558, 397.1880
2554.486, 387.4038
2556.415, 390.8350
2558.343, 404.3206
2560.271, 406.5112
2562.200, 398.1110
2564.128, 391.2169
2566.057, 386.1145
2567.985, 387.0995
2569.914, 395.5805
2571.842, 403.9142
2573.771, 412.7866
2575.699, 415.0438
2577.628, 409.5643
2579.556, 401.7968
2581.485, 390.2734
2583.413, 385.2793
2585.342, 393.3181
2587.270, 398.4091
2589.198, 399.5340
2591.127, 398.6091
2593.055, 394.3607
2594.984, 393.0821
2596.912, 397.7314
2598.841, 401.8213
2600.769, 402.9324
2602.698, 404.1362
2604.626, 405.7118
2606.555, 408.4234
2608.483, 415.4098
2610.412, 417.8636
2612.340, 410.1251
2614.269, 401.5459
2616.197, 392.3770
2618.125, 389.1592
2620.054, 402.4786
2621.982, 412.1542
2623.911, 402.8268
2625.839, 393.3746
2627.768, 394.5137
2629.696, 397.4650
2631.625, 395.8560
2633.553, 394.8445
2635.482, 401.9677
2637.410, 406.7757
2639.339, 395.1226
2641.267, 384.2472
2643.196, 390.7912
2645.124, 401.2169
2647.052, 405.3296
2648.981, 405.4754
2650.909, 402.0401
2652.838, 397.9691
2654.766, 397.4027
2656.695, 397.3191
2658.623, 392.9628
2660.552, 388.2387
2662.480, 385.1327
2664.409, 386.6996
2666.337, 403.5414
2668.266, 422.3344
2670.194, 419.5624
2672.123, 407.8436
2674.051, 408.2533
2675.979, 412.0950
2677.908, 403.9836
2679.836, 391.9681
2681.765, 390.0900
2683.693, 394.3217
2685.622, 398.8865
2687.550, 402.5844
2689.479, 401.1412
2691.407, 398.2067
2693.336, 401.3362
2695.264, 407.4285
2697.193, 410.1715
2699.121, 410.7860
2701.050, 412.4997
2702.978, 414.2447
2704.906, 411.7461
2706.835, 408.3702
2708.763, 414.0265
2710.692, 422.8396
2712.620, 418.8787
2714.549, 407.5495
2716.477, 401.1830
2718.406, 399.3466
2720.334, 403.5905
2722.263, 410.2300
2724.191, 409.9665
2726.120, 406.2542
2728.048, 408.3678
2729.977, 413.6602
2731.905, 416.3652
2733.833, 416.4341
2735.762, 412.0435
2737.690, 405.8315
2739.619, 403.3253
2741.547, 403.2180
2743.476, 402.1477
2745.404, 401.3147
2747.333, 405.3591
2749.261, 410.5226
2751.190, 407.8680
2753.118, 402.2274
2755.047, 402.9501
2756.975, 407.5383
2758.904, 413.5151
2760.832, 418.1101
2762.760, 412.8038
2764.689, 405.2411
2766.617, 409.3003
2768.546, 417.6419
2770.474, 419.2737
2772.403, 416.3379
2774.331, 408.0727
2776.260, 401.0462
2778.188, 407.0536
2780.117, 416.7114
2782.045, 418.0462
2783.974, 415.9581
2785.902, 416.3999
2787.831, 417.3779
2789.759, 413.9772
2791.688, 412.6259
2793.616, 425.3723
2795.544, 436.8764
2797.473, 426.6178
2799.401, 413.3448
2801.330, 416.3759
2803.258, 421.9776
2805.187, 419.8429
2807.115, 415.8056
2809.044, 413.2570
2810.972, 412.0335
2812.901, 412.4843
2814.829, 413.6844
2816.758, 414.5801
2818.686, 416.8293
2820.615, 426.1418
2822.543, 429.9989
2824.471, 415.4822
2826.400, 403.6624
2828.328, 404.3108
2830.257, 407.1998
2832.185, 408.7702
2834.114, 411.1684
2836.042, 417.5377
2837.971, 420.9633
2839.899, 417.7110
2841.828, 415.3574
2843.756, 415.5663
2845.685, 416.7667
2847.613, 420.4492
2849.542, 420.5805
2851.470, 411.0733
2853.398, 410.5479
2855.327, 423.7288
2857.255, 430.5530
2859.184, 426.4132
2861.112, 423.2031
2863.041, 422.3112
2864.969, 423.4384
2866.898, 427.2706
2868.826, 424.8252
2870.755, 415.2827
2872.683, 412.8165
2874.612, 418.9431
2876.540, 418.7580
2878.469, 412.4654
2880.397, 411.9984
2882.325, 416.1748
2884.254, 417.2758
2886.182, 415.8212
2888.111, 413.7815
2890.039, 412.2662
2891.968, 416.6310
2893.896, 424.2556
2895.825, 431.4231
2897.753, 435.4617
2899.682, 428.4079
2901.610, 417.6980
2903.539, 414.4827
2905.467, 414.9538
2907.396, 414.8893
2909.324, 415.8539
2911.252, 421.6992
2913.181, 426.3356
2915.109, 423.6272
2917.038, 419.4537
2918.966, 416.2018
2920.895, 414.3769
2922.823, 414.1537
2924.752, 415.4965
2926.680, 421.6079
2928.609, 423.0794
2930.537, 414.3986
2932.466, 409.5092
2934.394, 414.0972
2936.323, 419.5990
2938.251, 425.5320
2940.179, 430.2850
2942.108, 433.7640
2944.036, 436.2010
2945.965, 437.9501
2947.893, 435.6129
2949.822, 428.1640
2951.750, 423.8723
2953.679, 422.7089
2955.607, 425.9070
2957.536, 431.6667
2959.464, 427.0493
2961.393, 415.6503
2963.321, 410.6860
2965.250, 411.0595
2967.178, 417.0490
2969.106, 424.2065
2971.035, 425.3507
2972.963, 423.9135
2974.892, 425.0597
2976.820, 424.6634
2978.749, 415.7539
2980.677, 409.0153
2982.606, 413.6868
2984.534, 420.0737
2986.463, 423.9343
2988.391, 427.2156
2990.320, 431.9407
2992.248, 433.0302
2994.177, 425.4993
2996.105, 420.7497
2998.033, 420.0694
2999.962, 422.7586
3001.890, 429.7408
3003.819, 431.3129
3005.747, 424.7468
3007.676, 424.1475
3009.604, 429.1101
3011.533, 431.7913
3013.461, 431.5912
3015.390, 425.6074
3017.318, 416.6504
3019.247, 411.5845
3021.175, 411.5084
3023.104, 425.0316
3025.032, 438.2355
3026.960, 429.5705
3028.889, 417.9363
3030.817, 421.9083
3032.746, 428.8558
3034.674, 432.4404
3036.603, 434.7648
3038.531, 437.4730
3040.460, 437.8924
3042.388, 434.0429
3044.317, 432.1547
3046.245, 434.5201
3048.174, 433.9851
3050.102, 427.1495
3052.031, 423.9155
3053.959, 424.2770
3055.887, 425.7787
3057.816, 428.2100
3059.744, 431.4977
3061.673, 434.8112
3063.601, 433.0798
3065.530, 429.6666
3067.458, 432.2155
3069.387, 436.9070
3071.315, 440.5731
3073.244, 441.6835
3075.172, 434.5591
3077.101, 430.3201
3079.029, 439.8322
3080.958, 446.2440
3082.886, 437.6473
3084.814, 435.1065
3086.743, 445.6755
3088.671, 449.2497
3090.600, 439.2594
3092.528, 434.5699
3094.457, 436.8987
3096.385, 438.0071
3098.314, 437.2689
3100.242, 428.9264
3102.171, 417.0103
3104.099, 416.8257
3106.028, 423.5631
3107.956, 431.0964
3109.885, 435.7842
3111.813, 431.9049
3113.741, 425.7067
3115.670, 419.0886
3117.598, 416.7155
3119.527, 423.0779
3121.455, 428.1817
3123.384, 429.5702
3125.312, 425.5780
3127.241, 413.5514
3129.169, 413.1661
3131.098, 427.5458
3133.026, 434.3672
3134.955, 433.4537
3136.883, 431.7421
3138.812, 430.5473
3140.740, 436.2528
3142.668, 443.1048
3144.597, 438.7843
3146.525, 433.1164
3148.454, 437.5141
3150.382, 442.9254
3152.311, 445.1172
3154.239, 444.1752
3156.168, 437.3342
3158.096, 434.2184
3160.025, 437.4124
3161.953, 440.9914
3163.882, 445.2065
3165.810, 444.4431
3167.739, 439.1414
3169.667, 432.5199
3171.595, 426.8816
3173.524, 431.6917
3175.452, 440.6914
3177.381, 444.0576
3179.309, 442.8979
3181.238, 433.9573
3183.166, 427.4223
3185.095, 430.9879
3187.023, 436.5368
3188.952, 441.6902
3190.880, 448.6748
3192.809, 463.2411
3194.737, 465.3723
3196.666, 454.6479
3198.594, 444.2836
3200.522, 435.9026
3202.451, 435.9984
3204.379, 440.8996
3206.308, 442.9826
3208.236, 442.2078
3210.165, 435.2048
3212.093, 430.4271
3214.022, 436.9475
3215.950, 443.1209
3217.879, 445.9524
3219.807, 445.1648
3221.736, 437.9479
3223.664, 432.1957
3225.593, 427.8342
3227.521, 432.9695
3229.449, 445.7460
3231.378, 452.5384
3233.306, 454.2224
3235.235, 452.8362
3237.163, 447.8995
3239.092, 433.5020
3241.020, 423.6193
3242.949, 433.4103
3244.877, 440.5511
3246.806, 436.8445
3248.734, 434.8033
3250.663, 437.1963
3252.591, 440.7683
3254.520, 445.1035
3256.448, 443.9168
3258.376, 439.4427
3260.305, 441.8142
3262.233, 446.1351
3264.162, 442.6381
3266.090, 439.1704
3268.019, 444.7885
3269.947, 447.8404
3271.876, 440.9572
3273.804, 438.3669
3275.733, 445.1886
3277.661, 450.6980
3279.590, 454.2811
3281.518, 452.8911
3283.447, 448.0292
3285.375, 446.4320
3287.303, 447.0083
3289.232, 446.8961
3291.160, 448.9666
3293.089, 459.9443
3295.017, 466.8356
3296.946, 459.5869
3298.874, 453.4149
3300.803, 450.9072
3302.731, 447.9026
3304.660, 443.2682
3306.588, 447.1350
3308.517, 456.6151
3310.445, 459.6714
3312.374, 458.7971
3314.302, 456.7499
3316.230, 454.1625
3318.159, 449.2471
3320.087, 448.3915
3322.016, 459.5646
3323.944, 464.0661
3325.873, 458.8099
3327.801, 456.2587
3329.730, 457.4362
3331.658, 458.7972
3333.587, 458.9784
3335.515, 452.0590
3337.444, 442.8771
3339.372, 433.0639
3341.301, 429.6703
3343.229, 440.9183
3345.157, 448.7828
3347.086, 446.4715
3349.014, 444.1937
3350.943, 442.6489
3352.871, 444.1959
3354.800, 447.6053
3356.728, 445.6859
3358.657, 443.3169
3360.585, 452.3219
3362.514, 459.7135
3364.442, 453.3890
3366.371, 448.1937
3368.299, 449.4162
3370.228, 450.1639
3372.156, 449.2700
3374.084, 453.3923
3376.013, 461.3491
3377.941, 461.3562
3379.870, 458.1237
3381.798, 462.0557
3383.727, 463.2403
3385.655, 448.3936
3387.584, 438.1802
3389.512, 441.6341
3391.441, 447.5128
3393.369, 455.0208
3395.298, 459.9746
3397.226, 462.3895
3399.155, 463.0664
3401.083, 462.8953
3403.011, 463.0384
3404.940, 463.6492
3406.868, 465.3867
3408.797, 466.1578
3410.725, 463.8949
3412.654, 468.0570
3414.582, 481.0571
3416.511, 482.8978
3418.439, 475.7024
3420.368, 467.6232
3422.296, 462.5942
3424.225, 468.8769
3426.153, 475.7735
3428.082, 477.0135
3430.010, 477.5589
3431.938, 479.1353
3433.867, 479.5267
3435.795, 478.5282
3437.724, 472.9472
3439.652, 465.1830
3441.581, 460.1315
3443.509, 458.2143
3445.438, 461.9681
3447.366, 464.7326
3449.295, 460.9018
3451.223, 462.3833
3453.152, 470.8306
3455.080, 470.6354
3457.009, 463.8026
3458.937, 465.5321
3460.865, 471.9094
3462.794, 481.3309
3464.722, 485.8998
3466.651, 475.2563
3468.579, 468.7100
3470.508, 471.3076
3472.436, 469.0736
3474.365, 461.4432
3476.293, 464.5762
3478.222, 471.4671
3480.150, 465.4128
3482.079, 460.3624
3484.007, 472.0896
3485.936, 478.9053
3487.864, 468.5209
3489.792, 465.2675
3491.721, 470.2068
3493.649, 476.0462
3495.578, 479.8266
3497.506, 469.3380
3499.435, 460.2268
3501.363, 469.2401
3503.292, 479.5191
3505.220, 488.7510
3507.149, 483.2679
3509.077, 462.5893
3511.006, 462.6779
3512.934, 475.9023
3514.863, 476.4245
3516.791, 469.3558
3518.719, 449.9863
3520.648, 444.7670
3522.576, 470.6084
3524.505, 484.1032
3526.433, 477.5510
3528.362, 479.1950
3530.290, 486.6298
3532.219, 492.9460
3534.147, 496.0155
3536.076, 491.3538
3538.004, 486.3619
3539.933, 483.0474
3541.861, 483.1006
3543.790, 487.5382
3545.718, 482.4905
3547.646, 472.8658
3549.575, 470.3466
3551.503, 470.8965
3553.432, 471.0287
3555.360, 472.3986
3557.289, 476.8052
3559.217, 478.7744
3561.146, 478.0169
3563.074, 474.2748
3565.003, 468.9788
3566.931, 462.4962
3568.860, 459.9071
3570.788, 467.1556
3572.717, 472.7349
3574.645, 472.9728
3576.573, 477.5655
3578.502, 484.8083
3580.430, 479.8814
3582.359, 471.0400
3584.287, 468.6286
3586.216, 471.6828
3588.144, 484.5413
3590.073, 492.8257
3592.001, 495.1027
3593.930, 486.0875
3595.858, 472.7072
3597.787, 482.2217
3599.715, 493.7282
3601.644, 485.0775
3603.572, 477.4858
3605.500, 477.2502
3607.429, 478.8159
3609.357, 481.4616
3611.286, 482.1951
3613.214, 482.9455
3615.143, 491.8718
3617.071, 493.7629
3619.000, 469.8741
3620.928, 460.0349
3622.857, 471.5194
3624.785, 478.7516
3626.714, 481.8281
3628.642, 483.3686
3630.571, 484.2695
3632.499, 486.2958
3634.427, 485.1594
3636.356, 478.3812
3638.284, 478.0764
3640.213, 483.8992
3642.141, 483.8779
3644.070, 481.9458
3645.998, 483.9758
3647.927, 485.3721
3649.855, 482.7166
3651.784, 486.8028
3653.712, 500.0008
3655.641, 506.7953
3657.569, 506.9130
3659.498, 495.8401
3661.426, 487.4805
3663.354, 495.0160
3665.283, 493.6211
3667.211, 471.6272
3669.140, 480.3459
3671.068, 504.9933
3672.997, 496.0540
3674.925, 482.0260
3676.854, 489.3474
3678.782, 498.4296
3680.711, 504.8382
3682.639, 510.0447
3684.568, 512.6160
3686.496, 502.5718
3688.425, 490.2885
3690.353, 486.2708
3692.281, 486.7984
3694.210, 493.3300
3696.138, 492.1447
3698.067, 484.5162
3699.995, 487.0736
3701.924, 491.1128
3703.852, 483.4501
3705.781, 477.0580
3707.709, 476.0416
3709.638, 480.9760
3711.566, 490.9406
3713.495, 497.6244
3715.423, 502.1025
3717.352, 507.7278
3719.280, 506.6852
3721.208, 492.1139
3723.137, 487.3063
3725.065, 493.1051
3726.994, 497.6750
3728.922, 501.0986
3730.851, 502.3250
3732.779, 505.5165
3734.708, 514.8613
3736.636, 513.7481
3738.565, 502.1911
3740.493, 495.2570
3742.422, 491.9227
3744.350, 489.8237
3746.279, 493.9036
3748.207, 508.9115
3750.135, 513.8953
3752.064, 508.8582
3753.992, 510.3737
3755.921, 511.8806
3757.849, 502.8326
3759.778, 495.8063
3761.706, 494.9716
3763.635, 496.9793
3765.563, 500.4191
3767.492, 497.3788
3769.420, 492.5703
3771.349, 488.4443
3773.277, 490.1815
3775.206, 501.2485
3777.134, 500.5187
3779.063, 490.8050
3780.991, 483.6972
3782.919, 482.3159
3784.848, 494.9113
3786.776, 502.9047
3788.705, 502.2550
3790.633, 504.4553
3792.562, 507.1540
3794.490, 499.3484
3796.419, 495.9665
3798.347, 511.6400
3800.276, 518.6631
3802.204, 512.5823
3804.133, 505.0351
3806.061, 501.7877
3807.990, 518.4114
3809.918, 529.1636
3811.846, 521.4997
3813.775, 515.6838
3815.703, 513.2128
3817.632, 507.5988
3819.560, 503.5637
3821.489, 510.1482
3823.417, 508.7716
3825.346, 493.5054
3827.274, 498.7054
3829.203, 515.8593
3831.131, 510.7174
3833.060, 502.7302
3834.988, 505.6515
3836.917, 510.3837
3838.845, 515.4664
3840.773, 515.9224
3842.702, 512.2620
3844.630, 499.2964
3846.559, 494.1482
3848.487, 511.9828
3850.416, 520.6634
3852.344, 519.6896
3854.273, 507.7786
3856.201, 498.4897
3858.130, 504.6829
3860.058, 514.9979
3861.987, 527.7932
3863.915, 530.3503
3865.844, 524.4263
3867.772, 506.8151
3869.700, 496.9793
3871.629, 505.8565
3873.557, 514.0929
3875.486, 520.6121
3877.414, 530.8743
3879.343, 533.4737
3881.271, 509.2289
3883.200, 500.9560
3885.128, 519.5308
3887.057, 524.5553
3888.985, 517.2337
3890.914, 504.1656
3892.842, 500.5243
3894.771, 512.2944
3896.699, 518.4117
3898.627, 514.9992
3900.556, 506.6005
3902.484, 504.3419
3904.413, 512.5529
3906.341, 520.6815
3908.270, 528.5362
3910.198, 526.1487
3912.127, 520.3867
3914.055, 520.4050
3915.984, 520.6604
3917.912, 517.9348
3919.841, 513.7526
3921.769, 512.3948
3923.698, 521.1885
3925.626, 523.2836
3927.554, 514.1841
3929.483, 516.8884
3931.411, 521.9460
3933.340, 526.2619
3935.268, 528.7780
3937.197, 525.5245
3939.125, 523.6673
3941.054, 518.4597
3942.982, 511.0155
3944.911, 505.4531
3946.839, 508.3204
3948.768, 513.5815
3950.696, 515.7087
3952.625, 520.6524
3954.553, 527.7081
3956.481, 519.8017
3958.410, 511.7567
3960.338, 520.9481
3962.267, 530.8401
3964.195, 534.7437
3966.124, 533.0526
3968.052, 526.7241
3969.981, 517.8477
3971.909, 520.2855
3973.838, 528.6421
3975.766, 526.3130
3977.695, 523.1996
3979.623, 529.4150
3981.552, 534.3947
3983.480, 530.5595
3985.408, 523.5995
3987.337, 519.7888
3989.265, 525.5762
3991.194, 532.5979
3993.122, 535.2324
3995.051, 531.6500
3996.979, 526.8939
3998.908, 530.1752
4000.836, 532.1763
4002.765, 527.1991
4004.693, 519.2418
4006.622, 514.1571
4008.550, 529.1154
4010.479, 543.4721
4012.407, 543.0655
4014.335, 539.1415
4016.264, 534.6540
4018.192, 539.0991
4020.121, 541.6284
4022.049, 531.1136
4023.978, 525.7573
4025.906, 527.1008
4027.835, 525.6673
4029.763, 526.0318
4031.692, 534.9887
4033.620, 539.5515
4035.549, 536.2265
4037.477, 538.9926
4039.406, 542.2582
4041.334, 535.3256
4043.262, 530.4532
4045.191, 536.1429
4047.119, 538.0860
4049.048, 535.9283
4050.976, 538.2296
4052.905, 538.7381
4054.833, 532.6013
4056.762, 532.7055
4058.690, 537.0446
4060.619, 540.9539
4062.547, 540.7507
4064.476, 539.6368
4066.404, 543.4818
4068.333, 538.9242
4070.261, 542.5287
4072.189, 544.8920
4074.118, 528.5261
4076.046, 526.4423
4077.975, 544.0919
4079.903, 543.7983
4081.832, 535.5701
4083.760, 531.5503
4085.689, 533.9424
4087.617, 539.0422
4089.546, 539.3848
4091.474, 541.4063
4093.403, 542.1139
4095.331, 535.9349
4097.260, 536.4543
4099.188, 542.0671
4101.117, 542.1088
4103.045, 543.8208
4104.974, 548.0404
4106.902, 546.0385
4108.831, 551.4235
4110.759, 560.3522
4112.688, 547.4225
4114.616, 534.4523
4116.544, 531.3537
4118.473, 536.1971
4120.401, 557.0970
4122.330, 563.0856
4124.258, 558.9551
4126.187, 544.9892
4128.115, 537.4907
4130.043, 553.0046
4131.972, 555.7511
4133.900, 550.1460
4135.829, 555.0586
4137.757, 558.6690
4139.686, 553.2532
4141.614, 552.9291
4143.543, 559.4146
4145.471, 563.9309
4147.400, 562.7349
4149.328, 557.6935
4151.257, 562.6663
4153.185, 571.1744
4155.114, 564.8303
4157.042, 560.4702
4158.971, 583.4415
4160.899, 587.6193
4162.828, 569.7195
4164.756, 568.2982
4166.685, 573.7687
4168.613, 575.6125
4170.542, 569.6215
4172.470, 562.5361
4174.398, 574.2037
4176.327, 584.1069
4178.255, 581.0433
4180.184, 577.9399
4182.112, 573.9871
4184.041, 583.0544
4185.969, 593.2611
4187.897, 593.3057
4189.826, 584.7087
4191.754, 570.4971
4193.683, 576.4174
4195.611, 585.7361
4197.540, 580.8445
4199.468, 579.2913
4201.397, 582.9990
4203.325, 578.3218
4205.254, 576.9850
4207.182, 589.2937
4209.111, 597.9567
4211.039, 602.4963
4212.968, 597.6353
4214.896, 594.0194
4216.825, 598.6483
4218.753, 605.0840
4220.682, 611.2140
4222.610, 614.3140
4224.539, 611.9597
4226.467, 599.9058
4228.396, 605.7671
4230.324, 619.0103
4232.252, 607.7709
4234.181, 597.3264
4236.109, 597.9067
4238.038, 601.6055
4239.966, 606.0183
4241.895, 606.3842
4243.823, 610.6021
4245.751, 621.2041
4247.680, 625.4183
4249.608, 625.1011
4251.537, 626.2094
4253.465, 617.1500
4255.394, 596.7939
4257.322, 599.7437
4259.251, 613.4570
4261.179, 624.5105
4263.108, 632.1423
4265.036, 636.2893
4266.965, 637.4105
4268.893, 636.3172
4270.822, 631.6536
4272.750, 631.6545
4274.679, 637.2196
4276.607, 651.6061
4278.536, 662.1573
4280.464, 660.0987
4282.393, 655.2471
4284.321, 648.9476
4286.250, 642.3855
4288.178, 635.3292
4290.106, 626.1891
4292.035, 631.6652
4293.963, 644.8585
4295.892, 654.1668
4297.820, 655.8452
4299.749, 648.4941
4301.677, 655.7852
4303.605, 668.1545
4305.534, 677.5972
4307.462, 671.1877
4309.391, 649.9060
4311.319, 654.7690
4313.248, 665.0007
4315.176, 660.7004
4317.105, 664.6891
4319.033, 674.1897
4320.962, 668.3689
4322.890, 662.6772
4324.819, 667.8307
4326.747, 665.9709
4328.676, 663.3909
4330.604, 677.0256
4332.533, 686.9708
4334.461, 686.2468
4336.390, 698.5012
4338.318, 710.7106
4340.247, 709.7445
4342.175, 692.2609
4344.104, 662.8135
4346.032, 667.3994
4347.960, 680.1026
4349.889, 688.0304
4351.817, 685.1868
4353.746, 676.8399
4355.674, 675.7786
4357.603, 676.1013
4359.531, 675.7609
4361.459, 686.3918
4363.388, 700.2411
4365.316, 711.7974
4367.245, 708.0027
4369.173, 691.1711
4371.102, 676.8659
4373.030, 676.3112
4374.959, 700.4344
4376.887, 697.5958
4378.816, 681.5489
4380.744, 691.2079
4382.673, 705.2838
4384.601, 717.1967
4386.530, 704.0035
4388.458, 687.2835
4390.387, 692.0427
4392.315, 698.7698
4394.244, 704.4342
4396.172, 704.1588
4398.101, 706.6540
4400.029, 720.4476
4401.958, 715.2733
4403.886, 701.7484
4405.814, 696.5845
4407.743, 696.1348
4409.671, 699.5117
4411.600, 707.1517
4413.528, 710.2703
4415.457, 700.5219
4417.385, 705.3289
4419.313, 717.1823
4421.242, 710.9948
4423.170, 706.3611
4425.099, 708.7822
4427.027, 725.0875
4428.956, 736.7798
4430.884, 719.6781
4432.813, 719.6884
4434.741, 730.3113
4436.670, 714.6227
4438.598, 697.0298
4440.527, 686.3895
4442.455, 683.6693
4444.384, 688.6030
4446.312, 705.2328
4448.241, 715.1208
4450.169, 716.2440
4452.098, 704.0328
4454.026, 699.6355
4455.955, 711.6404
4457.883, 713.4843
4459.812, 711.4926
4461.740, 716.1133
4463.668, 715.9208
4465.597, 711.1085
4467.525, 706.6959
4469.454, 706.4962
4471.382, 714.2817
4473.311, 709.0066
4475.239, 703.1689
4477.167, 719.7491
4479.096, 720.7542
4481.024, 708.3029
4482.953, 721.1823
4484.881, 721.6857
4486.810, 694.5414
4488.738, 692.0450
4490.667, 702.9088
4492.595, 719.1038
4494.524, 713.4119
4496.452, 695.8046
4498.381, 712.1801
4500.309, 720.3145
4502.238, 701.8118
4504.166, 702.3100
4506.095, 709.0627
4508.023, 711.0878
4509.952, 708.5871
4511.880, 704.8407
4513.809, 710.4586
4515.737, 712.1081
4517.666, 707.1667
4519.594, 702.5853
4521.522, 702.8576
4523.451, 712.1464
4525.379, 717.3521
4527.308, 717.0683
4529.236, 705.5837
4531.165, 705.2858
4533.093, 717.3630
4535.021, 719.4096
4536.950, 717.7273
4538.878, 715.2972
4540.807, 703.2292
4542.735, 695.8499
4544.664, 713.2413
4546.592, 721.9362
4548.521, 720.0803
4550.449, 711.4169
4552.378, 707.2441
4554.306, 711.0724
4556.235, 714.0087
4558.163, 716.2443
4560.092, 718.2403
4562.020, 718.5301
4563.949, 717.2108
4565.877, 713.9901
4567.806, 709.3214
4569.734, 705.2826
4571.663, 711.1653
4573.591, 716.1188
4575.520, 715.2299
4577.448, 720.1233
4579.376, 725.4655
4581.305, 727.9352
4583.233, 720.4540
4585.162, 711.1467
4587.090, 720.2260
4589.019, 712.3994
4590.947, 690.7534
4592.875, 695.9963
4594.804, 706.6244
4596.732, 713.1971
4598.661, 726.7924
4600.589, 734.4227
4602.518, 721.1320
4604.446, 722.2888
4606.375, 729.3473
4608.303, 724.1066
4610.232, 711.8897
4612.160, 699.3514
4614.089, 710.9589
4616.017, 720.3309
4617.946, 717.2979
4619.874, 710.4913
4621.803, 702.0682
4623.731, 692.0359
4625.660, 695.2917
4627.588, 705.4808
4629.517, 717.1976
4631.445, 717.2806
4633.374, 709.4999
4635.302, 710.1700
4637.230, 704.3961
4639.159, 690.3514
4641.087, 706.0294
4643.016, 718.1497
4644.944, 711.6616
4646.873, 709.7939
4648.801, 712.2242
4650.729, 717.9054
4652.658, 728.0003
4654.586, 735.7227
4656.515, 726.5151
4658.443, 716.9541
4660.372, 711.1403
4662.300, 720.8574
4664.229, 717.8554
4666.157, 699.2461
4668.086, 704.2040
4670.014, 714.5034
4671.943, 722.8217
4673.871, 705.0667
4675.800, 689.7589
4677.728, 702.6215
4679.657, 713.1008
4681.585, 717.8750
4683.514, 712.1863
4685.442, 720.5783
4687.371, 735.4092
4689.299, 720.3886
4691.228, 710.1228
4693.156, 710.3434
4695.084, 703.1258
4697.013, 698.1053
4698.941, 698.9733
4700.870, 710.7429
4702.798, 719.2714
4704.727, 713.7197
4706.655, 709.4082
4708.583, 706.1966
4710.512, 703.3846
4712.440, 701.9813
4714.369, 702.3789
4716.297, 705.3868
4718.226, 708.7362
4720.154, 711.9234
4722.083, 716.2688
4724.011, 713.7501
4725.940, 705.7269
4727.868, 706.7229
4729.797, 706.8472
4731.725, 702.4775
4733.654, 700.9290
4735.582, 698.6703
4737.511, 693.7975
4739.439, 706.0237
4741.368, 716.4977
4743.296, 708.2594
4745.225, 709.4583
4747.153, 718.1075
4749.082, 736.4661
4751.010, 719.8702
4752.938, 693.6210
4754.867, 709.7343
4756.795, 718.7419
4758.724, 717.9907
4760.652, 718.2286
4762.581, 713.5894
4764.509, 706.6756
4766.438, 719.9681
4768.366, 717.3855
4770.294, 697.1652
4772.223, 715.9339
4774.151, 724.6158
4776.080, 703.1955
4778.008, 718.8516
4779.937, 725.8843
4781.865, 703.2561
4783.794, 708.0462
4785.722, 723.5462
4787.651, 738.7251
4789.579, 738.6751
4791.508, 734.3091
4793.436, 735.5721
4795.365, 726.4866
4797.293, 717.9602
4799.222, 729.8655
4801.150, 727.8079
4803.079, 719.6685
4805.007, 720.7124
4806.936, 721.7037
4808.864, 719.9922
4810.792, 710.7768
4812.721, 705.7211
4814.649, 705.4142
4816.578, 707.9686
4818.506, 708.8403
4820.435, 710.7992
4822.363, 733.7540
4824.292, 729.8571
4826.220, 700.5627
4828.148, 715.9572
4830.077, 719.4895
4832.005, 703.0482
4833.934, 711.1167
4835.862, 709.3756
4837.791, 690.0057
4839.719, 727.4232
4841.648, 746.0592
4843.576, 723.3920
4845.505, 723.2021
4847.433, 724.3090
4849.362, 716.8541
4851.290, 725.2147
4853.219, 729.2020
4855.147, 719.3643
4857.076, 730.4209
4859.004, 735.0739
4860.933, 717.4185
4862.861, 716.4279
4864.790, 724.2449
4866.718, 736.4197
4868.646, 729.6304
4870.575, 728.9581
4872.503, 752.2816
4874.432, 735.2856
4876.360, 714.8906
4878.289, 724.2643
4880.217, 720.2589
4882.146, 713.3651
4884.074, 711.7631
4886.002, 714.1483
4887.931, 715.6364
4889.859, 708.3904
4891.788, 723.7017
4893.716, 730.5049
4895.645, 701.4313
4897.573, 716.2513
4899.502, 741.6128
4901.430, 746.4435
4903.359, 719.1240
4905.287, 699.7672
4907.216, 723.3998
4909.144, 722.9834
4911.073, 715.6590
4913.001, 719.7309
4914.930, 722.0366
4916.858, 718.0588
4918.787, 700.9727
4920.715, 713.8060
4922.644, 727.4698
4924.572, 717.9890
4926.500, 711.2940
4928.429, 709.7333
4930.357, 717.1380
4932.286, 712.4039
4934.214, 708.5825
4936.143, 714.3282
4938.071, 715.0522
4940.000, 713.4682
4941.928, 711.3747
4943.856, 715.3801
4945.785, 717.7169
4947.713, 714.0416
4949.642, 710.8826
4951.570, 704.8587
4953.499, 695.1704
4955.427, 722.6163
4957.356, 737.3643
4959.284, 714.8603
4961.213, 719.5693
4963.141, 728.7565
4965.070, 733.1586
4966.998, 733.2301
4968.927, 728.7842
4970.855, 721.2202
4972.784, 729.3558
4974.712, 739.1410
4976.641, 743.9441
4978.569, 732.4063
4980.498, 719.8488
4982.426, 712.0323
4984.354, 715.8878
4986.283, 722.9274
4988.211, 728.7025
4990.140, 723.4630
4992.068, 722.8590
4993.997, 726.1270
4995.925, 728.5222
4997.854, 714.2593
4999.782, 697.5547
5001.710, 710.1481
5003.639, 727.4153
5005.567, 736.0112
5007.496, 717.4651
5009.424, 720.7496
5011.353, 730.3738
5013.281, 721.3102
5015.210, 727.7448
5017.138, 729.2121
5019.067, 707.8060
5020.995, 720.3574
5022.924, 731.4651
5024.852, 716.8388
5026.781, 709.9722
5028.709, 710.5502
5030.638, 717.6957
5032.566, 726.8627
5034.495, 731.2774
5036.423, 729.5953
5038.352, 726.4294
5040.280, 723.0985
5042.208, 722.3336
5044.137, 739.6215
5046.065, 736.7355
5047.994, 720.8645
5049.922, 724.9156
5051.851, 740.7136
5053.779, 753.9311
5055.708, 743.3069
5057.636, 730.9365
5059.564, 723.5815
5061.493, 726.8335
5063.421, 734.7835
5065.350, 738.2562
5067.278, 731.0416
5069.207, 729.4147
5071.135, 733.6198
5073.064, 742.8562
5074.992, 716.7537
5076.921, 705.0844
5078.849, 719.0967
5080.778, 729.2766
5082.706, 735.1599
5084.635, 736.3107
5086.563, 724.5174
5088.492, 741.1218
5090.420, 766.4263
5092.349, 756.8519
5094.277, 752.2796
5096.206, 748.7697
5098.134, 737.0144
5100.063, 740.4762
5101.991, 742.0510
5103.919, 728.3362
5105.848, 713.2190
5107.776, 718.1012
5109.705, 743.1490
5111.633, 728.9196
5113.562, 721.5095
5115.490, 726.7422
5117.418, 727.5136
5119.347, 713.1943
5121.275, 703.1199
5123.204, 741.0260
5125.132, 733.2953
5127.061, 715.8373
5128.989, 731.8629
5130.918, 733.1407
5132.846, 721.8778
5134.775, 700.7087
5136.703, 717.5112
5138.632, 729.2159
5140.560, 725.5134
5142.489, 726.8202
5144.417, 746.4382
5146.346, 763.7941
5148.274, 718.8059
5150.203, 720.5612
5152.131, 741.5969
5154.060, 737.9689
5155.988, 755.2688
5157.917, 761.0820
5159.845, 739.0163
5161.773, 748.7937
5163.702, 750.0697
5165.630, 732.9236
5167.559, 720.4558
5169.487, 731.2514
5171.416, 752.3013
5173.344, 751.4869
5175.272, 752.6386
5177.201, 751.4940
5179.129, 740.8723
5181.058, 744.9589
5182.986, 747.8730
5184.915, 741.0076
5186.843, 731.4828
5188.772, 741.7848
5190.700, 760.9433
5192.629, 731.5245
5194.557, 729.6934
5196.486, 741.9161
5198.414, 732.1720
5200.343, 745.5298
5202.271, 754.2116
5204.200, 737.1234
5206.128, 749.1430
5208.057, 755.5815
5209.985, 748.7234
5211.914, 739.8743
5213.842, 750.4024
5215.771, 763.5102
5217.699, 741.9614
5219.627, 736.6971
5221.556, 744.5992
5223.484, 761.5266
5225.413, 743.5733
5227.341, 735.0524
5229.270, 745.4102
5231.198, 748.2232
5233.126, 750.2355
5235.055, 750.9045
5236.983, 747.0133
5238.912, 740.2730
5240.840, 742.0944
5242.769, 759.0909
5244.697, 765.5027
5246.626, 758.1206
5248.554, 743.4005
5250.483, 745.2748
5252.411, 743.5518
5254.340, 743.9832
5256.268, 765.7813
5258.197, 749.7198
5260.125, 742.5107
5262.054, 765.8153
5263.982, 758.6722
5265.911, 753.5490
5267.839, 754.6754
5269.768, 747.6599
5271.696, 755.8924
5273.625, 764.9840
5275.553, 757.6801
5277.481, 754.0034
5279.410, 759.2076
5281.338, 770.4244
5283.267, 761.4885
5285.195, 769.7523
5287.124, 778.4539
5289.052, 746.7968
5290.980, 753.5522
5292.909, 765.0619
5294.837, 759.9193
5296.766, 762.8926
5298.694, 759.9496
5300.623, 752.2416
5302.551, 748.4328
5304.480, 762.6278
5306.408, 771.9323
5308.337, 756.9584
5310.265, 756.6282
5312.194, 766.6725
5314.122, 777.0510
5316.051, 757.6588
5317.979, 749.3962
5319.908, 750.9775
5321.836, 754.8284
5323.765, 754.4313
5325.693, 759.9274
5327.622, 771.2629
5329.550, 765.0819
5331.479, 775.0059
5333.407, 786.5530
5335.335, 773.2706
5337.264, 777.7470
5339.192, 774.1525
5341.121, 757.4301
5343.049, 765.6313
5344.978, 776.0341
5346.906, 779.3098
5348.834, 766.8262
5350.763, 757.4606
5352.691, 759.5339
5354.620, 774.0874
5356.548, 794.4131
5358.477, 767.8448
5360.405, 735.2621
5362.334, 762.4628
5364.262, 773.0189
5366.191, 780.2308
5368.119, 790.2189
5370.048, 783.6858
5371.976, 772.7527
5373.905, 765.8525
5375.833, 770.8705
5377.762, 781.1840
5379.690, 778.6674
5381.619, 768.0038
5383.547, 813.8170
5385.476, 795.5376
5387.404, 755.1976
5389.333, 755.4110
5391.261, 780.4520
5393.189, 784.7060
5395.118, 766.3386
5397.046, 779.2281
5398.975, 794.7417
5400.903, 792.2039
5402.832, 761.7188
5404.760, 770.1710
5406.688, 781.1262
5408.617, 779.4382
5410.545, 749.2393
5412.474, 755.2522
5414.402, 779.7213
5416.331, 805.3562
5418.259, 763.9514
5420.188, 782.3505
5422.116, 792.7939
5424.045, 795.7092
5425.973, 768.5491
5427.902, 780.2252
5429.830, 776.3375
5431.759, 771.8116
5433.687, 788.9538
5435.616, 766.1682
5437.544, 782.9666
5439.473, 783.9639
5441.401, 792.1929
5443.330, 784.7621
5445.258, 782.1681
5447.187, 795.2391
5449.115, 799.6363
5451.043, 790.4026
5452.972, 799.0915
5454.900, 775.7587
5456.829, 780.5253
5458.757, 797.4155
5460.686, 788.9694
5462.614, 797.9444
5464.542, 800.2845
5466.471, 772.4715
5468.399, 797.0978
5470.328, 799.0458
5472.256, 777.7081
5474.185, 783.5143
5476.113, 800.7700
5478.042, 814.3765
5479.970, 790.3196
5481.899, 774.1126
5483.827, 779.4601
5485.756, 799.3924
5487.684, 807.4244
5489.613, 801.6610
5491.541, 795.1959
5493.470, 795.1004
5495.398, 791.9066
5497.327, 796.3589
5499.255, 807.1259
5501.184, 819.2289
5503.112, 791.9636
5505.041, 781.7968
5506.969, 790.6747
5508.897, 784.0369
5510.826, 797.7878
5512.754, 803.3151
5514.683, 792.8583
5516.611, 795.8331
5518.540, 788.4507
5520.468, 783.9125
5522.396, 791.7684
5524.325, 785.6344
5526.253, 796.5456
5528.182, 807.7287
5530.110, 793.2570
5532.039, 786.5416
5533.967, 783.7032
5535.896, 788.8068
5537.824, 822.4734
5539.753, 821.4902
5541.681, 806.0254
5543.610, 794.8602
5545.538, 819.0855
5547.467, 817.1020
5549.395, 814.1465
5551.324, 826.8047
5553.252, 823.7971
5555.181, 810.6478
5557.109, 797.1787
5559.038, 791.5463
5560.966, 807.5978
5562.895, 806.6010
5564.823, 800.8588
5566.751, 828.1600
5568.680, 819.1034
5570.608, 802.5786
5572.537, 796.5402
5574.465, 816.8364
5576.394, 817.9606
5578.322, 810.3770
5580.250, 803.9427
5582.179, 807.2201
5584.107, 816.7460
5586.036, 812.1365
5587.964, 794.1619
5589.893, 814.8862
5591.821, 822.5410
5593.750, 824.9022
5595.678, 830.3889
5597.607, 829.8552
5599.535, 820.8506
5601.464, 816.3394
5603.392, 825.0775
5605.321, 814.8923
5607.249, 810.1405
5609.178, 808.2033
5611.106, 802.0316
5613.035, 800.9062
5614.963, 813.3257
5616.892, 821.7651
5618.820, 804.7563
5620.749, 806.9717
5622.677, 825.7811
5624.605, 841.9353
5626.534, 824.2177
5628.462, 826.3057
5630.391, 831.0541
5632.319, 833.9395
5634.248, 837.0223
5636.176, 841.7873
5638.104, 832.2145
5640.033, 822.0573
5641.961, 843.4970
5643.890, 831.6247
5645.818, 823.7256
5647.747, 828.5085
5649.675, 832.9097
5651.604, 823.6511
5653.532, 816.4172
5655.461, 818.2858
5657.389, 833.6920
5659.318, 834.1025
5661.246, 829.6982
5663.175, 830.9019
5665.103, 851.5665
5667.032, 871.0563
5668.960, 874.9385
5670.889, 862.3918
5672.817, 840.1641
5674.746, 835.8932
5676.674, 835.5439
5678.603, 834.8403
5680.531, 838.4540
5682.459, 844.0836
5684.388, 838.9637
5686.316, 828.6031
5688.245, 833.0792
5690.173, 825.2456
5692.102, 837.3529
5694.030, 860.0911
5695.958, 851.3210
5697.887, 863.2822
5699.815, 868.8083
5701.744, 862.2504
5703.672, 849.2515
5705.601, 834.3403
5707.529, 841.6399
5709.458, 855.8690
5711.386, 850.6220
5713.315, 850.6123
5715.243, 862.8812
5717.172, 874.3624
5719.100, 869.7190
5721.029, 834.4462
5722.957, 836.1361
5724.886, 853.4227
5726.814, 855.9692
5728.743, 868.2668
5730.671, 874.4160
5732.600, 877.6591
5734.528, 880.7399
5736.457, 868.0980
5738.385, 837.8220
5740.313, 841.5812
5742.242, 884.6273
5744.170, 866.6648
5746.099, 861.6735
5748.027, 865.3137
5749.956, 866.3946
5751.884, 853.6962
5753.813, 866.4594
5755.741, 880.5202
5757.669, 877.1817
5759.598, 845.4249
5761.526, 881.1666
5763.455, 892.8193
5765.383, 878.9939
5767.312, 874.8925
5769.240, 867.3440
5771.169, 856.6833
5773.097, 860.5231
5775.026, 888.3677
5776.954, 867.2201
5778.883, 849.2073
5780.811, 855.1554
5782.740, 877.6606
5784.668, 845.3545
5786.597, 870.9174
5788.525, 881.8450
5790.454, 865.2385
5792.382, 879.1601
5794.311, 865.3063
5796.239, 870.2642
5798.167, 884.6559
5800.096, 876.9222
5802.024, 897.8183
5803.953, 876.2819
5805.881, 858.1466
5807.810, 886.2525
5809.738, 905.5062
5811.667, 895.4597
5813.595, 884.8990
5815.523, 886.4487
5817.452, 879.9109
5819.380, 900.2668
5821.309, 904.0921
5823.237, 895.4647
5825.166, 909.2786
5827.094, 939.9773
5829.023, 928.5293
5830.951, 902.8887
5832.880, 899.2966
5834.808, 888.9285
5836.737, 903.1157
5838.665, 909.6542
5840.594, 895.4307
5842.522, 877.0420
5844.451, 877.1320
5846.379, 896.1876
5848.308, 914.4066
5850.236, 907.9669
5852.165, 892.7377
5854.093, 895.8401
5856.021, 909.9404
5857.950, 919.1570
5859.878, 900.0425
5861.807, 894.4913
5863.735, 899.0182
5865.664, 905.5971
5867.592, 907.8993
5869.521, 906.4431
5871.449, 915.1022
5873.377, 915.1337
5875.306, 896.3829
5877.234, 917.2378
5879.163, 900.8995
5881.091, 898.3107
5883.020, 919.5900
5884.948, 921.4233
5886.877, 909.8946
5888.805, 899.2493
5890.734, 907.1366
5892.662, 938.5386
5894.591, 923.4059
5896.519, 923.2456
5898.448, 926.4468
5900.376, 924.6363
5902.305, 919.0834
5904.233, 940.4497
5906.162, 942.1363
5908.090, 932.5734
5910.019, 930.3672
5911.947, 922.7662
5913.875, 939.6382
5915.804, 952.9459
5917.732, 953.4597
5919.661, 950.3829
5921.589, 947.9085
5923.518, 930.5985
5925.446, 923.1083
5927.375, 934.6484
5929.303, 914.8157
5931.231, 924.6022
5933.160, 932.6432
5935.088, 927.6509
5937.017, 918.4694
5938.945, 964.1375
5940.874, 954.5303
5942.802, 927.7928
5944.731, 925.8689
5946.659, 960.7360
5948.588, 962.0839
5950.516, 953.9849
5952.445, 946.8069
5954.373, 945.6483
5956.302, 971.5057
5958.230, 980.4975
5960.159, 958.6432
5962.087, 936.8134
5964.016, 954.9623
5965.944, 957.5029
5967.873, 964.4966
5969.801, 949.0709
5971.729, 922.9674
5973.658, 953.3499
5975.586, 969.3439
5977.515, 961.7408
5979.443, 949.0453
5981.372, 951.0911
5983.300, 998.2407
5985.229, 988.3432
5987.157, 985.0892
5989.085, 985.9587
5991.014, 966.5121
5992.942, 975.3870
5994.871, 982.5533
5996.799, 984.5751
5998.728, 983.4514
6000.656, 982.1260
6002.585, 966.2905
6004.513, 988.1324
6006.442, 980.3397
6008.370, 947.2900
6010.299, 989.9266
6012.227, 994.2953
6014.156, 966.2515
6016.084, 960.4294
6018.013, 990.2445
6019.941, 1007.341
6021.870, 1002.036
6023.798, 992.4543
6025.727, 984.3627
6027.655, 979.3015
6029.583, 982.0148
6031.512, 976.4880
6033.440, 988.3470
6035.369, 999.4465
6037.297, 993.3397
6039.226, 991.9198
6041.154, 1011.189
6043.083, 1013.127
6045.011, 1001.147
6046.939, 992.3839
6048.868, 993.6917
6050.796, 1006.406
6052.725, 1004.130
6054.653, 1004.924
6056.582, 1030.250
6058.510, 1054.221
6060.439, 1045.527
6062.367, 1024.028
6064.296, 1013.472
6066.224, 1023.497
6068.153, 1017.645
6070.081, 1023.751
6072.010, 1023.576
6073.938, 1014.640
6075.867, 1010.006
6077.795, 1060.105
6079.724, 1024.630
6081.652, 999.4832
6083.581, 1003.903
6085.509, 1017.405
6087.438, 1022.603
6089.366, 1026.519
6091.294, 1025.579
6093.223, 1027.291
6095.151, 1033.054
6097.080, 1020.494
6099.008, 1009.094
6100.937, 1020.768
6102.865, 1035.441
6104.793, 1034.306
6106.722, 1017.015
6108.650, 1029.938
6110.579, 1032.056
6112.507, 1019.598
6114.436, 1011.890
6116.364, 1041.790
6118.293, 1026.815
6120.221, 1027.973
6122.150, 1033.750
6124.078, 1043.329
6126.007, 1076.107
6127.935, 1039.615
6129.864, 1043.731
6131.792, 1044.995
6133.721, 1040.752
6135.649, 1057.185
6137.578, 1067.798
6139.506, 1074.346
6141.435, 1076.413
6143.363, 1053.444
6145.292, 1011.819
6147.220, 1049.953
6149.148, 1083.828
6151.077, 1058.121
6153.005, 1051.259
6154.934, 1083.365
6156.862, 1061.452
6158.791, 1026.762
6160.719, 1031.574
6162.647, 1051.110
6164.576, 1066.388
6166.504, 1075.027
6168.433, 1085.221
6170.361, 1070.263
6172.290, 1062.980
6174.218, 1075.074
6176.147, 1096.078
6178.075, 1093.679
6180.004, 1079.601
6181.932, 1066.664
6183.861, 1060.584
6185.789, 1061.096
6187.718, 1064.609
6189.646, 1069.645
6191.575, 1071.213
6193.503, 1091.462
6195.432, 1098.852
6197.360, 1074.127
6199.289, 1092.042
6201.217, 1085.177
6203.146, 1086.491
6205.074, 1079.070
6207.002, 1064.086
6208.931, 1068.743
6210.859, 1072.838
6212.788, 1089.989
6214.716, 1099.759
6216.645, 1103.607
6218.573, 1111.994
6220.501, 1126.416
6222.430, 1118.920
6224.358, 1098.805
6226.287, 1098.934
6228.215, 1107.904
6230.144, 1094.412
6232.072, 1117.183
6234.001, 1116.791
6235.929, 1123.697
6237.858, 1114.218
6239.786, 1083.305
6241.715, 1080.750
6243.643, 1089.974
6245.572, 1083.820
6247.500, 1091.068
6249.429, 1110.957
6251.357, 1122.879
6253.286, 1102.050
6255.214, 1105.737
6257.143, 1111.327
6259.071, 1113.375
6261.000, 1108.064
6262.928, 1095.526
6264.856, 1132.047
6266.785, 1090.825
6268.713, 1113.276
6270.642, 1126.460
6272.570, 1106.622
6274.499, 1130.002
6276.427, 1113.339
6278.355, 1129.588
6280.284, 1102.918
6282.212, 1089.165
6284.141, 1122.552
6286.069, 1146.391
6287.998, 1098.476
6289.926, 1126.940
6291.855, 1130.252
6293.783, 1105.050
6295.712, 1092.786
6297.640, 1108.108
6299.569, 1109.498
6301.497, 1102.265
6303.426, 1127.978
6305.354, 1137.175
6307.283, 1117.947
6309.211, 1162.268
6311.140, 1150.916
6313.068, 1136.181
6314.997, 1130.269
6316.925, 1128.390
6318.854, 1132.177
6320.782, 1160.511
6322.710, 1143.985
6324.639, 1144.310
6326.567, 1140.407
6328.496, 1128.373
6330.424, 1116.490
6332.353, 1110.552
6334.281, 1123.064
6336.209, 1116.380
6338.138, 1118.026
6340.066, 1137.189
6341.995, 1152.950
6343.923, 1142.402
6345.852, 1172.447
6347.780, 1158.816
6349.709, 1148.437
6351.637, 1159.895
6353.566, 1178.408
6355.494, 1177.886
6357.423, 1145.803
6359.351, 1149.510
6361.280, 1141.697
6363.208, 1141.088
6365.137, 1145.732
6367.065, 1142.515
6368.994, 1156.244
6370.922, 1111.315
6372.851, 1127.215
6374.779, 1139.844
6376.708, 1141.345
6378.636, 1148.285
6380.564, 1147.428
6382.493, 1123.403
6384.421, 1134.450
6386.350, 1168.183
6388.278, 1169.965
6390.207, 1159.037
6392.135, 1182.980
6394.063, 1162.214
6395.992, 1164.262
6397.920, 1149.977
6399.849, 1141.165
6401.777, 1132.494
6403.706, 1123.111
6405.634, 1148.126
6407.563, 1156.697
6409.491, 1168.846
6411.420, 1149.514
6413.348, 1148.013
6415.277, 1172.664
6417.205, 1182.981
6419.134, 1167.274
6421.062, 1167.700
6422.991, 1155.072
6424.919, 1153.691
6426.848, 1168.309
6428.776, 1172.794
6430.705, 1145.546
6432.633, 1174.825
6434.562, 1178.311
6436.490, 1162.267
6438.418, 1160.213
6440.347, 1164.007
6442.275, 1159.772
6444.204, 1169.199
6446.132, 1174.407
6448.061, 1156.425
6449.989, 1166.236
6451.917, 1159.798
6453.846, 1143.621
6455.774, 1157.429
6457.703, 1176.538
6459.631, 1161.648
6461.560, 1168.220
6463.488, 1173.327
6465.417, 1186.256
6467.345, 1184.815
6469.274, 1148.454
6471.202, 1143.629
6473.131, 1187.177
6475.059, 1171.928
6476.988, 1169.119
6478.916, 1165.904
6480.845, 1164.607
6482.773, 1188.399
6484.702, 1180.196
6486.630, 1201.613
6488.559, 1177.986
6490.487, 1165.635
6492.416, 1147.859
6494.344, 1141.161
##END=



