##NAMES=Mbobomkulite
##RRUFFID=R060597
##IDEAL CHEMISTRY=(Ni,Cu)Al_4_(NO_3_,SO_4_)_2_(OH)_12_·3H_2_O
##LOCALITY=Jomac mine, San Juan County, Utah, USA
##OWNER=RRUFF
##SOURCE=Michael Scott
##DESCRIPTION=
##STATUS=The identification of this mineral is not yet confirmed
##URL=https://www.rruff.net/odr/rruff_sample/R060597
##FILETYPE=Raman Processed
##RAMAN WAVELENGTH=780

82.41455, 4.166372
84.34302, 4.530867
86.27148, 4.763779
88.19995, 5.149336
90.12842, 5.750050
92.05688, 6.305381
93.98535, 6.709320
95.91382, 6.666963
97.84229, 6.246943
99.77075, 5.939857
101.6992, 5.821617
103.6277, 5.934797
105.5562, 5.926172
107.4846, 5.602288
109.4131, 5.250147
111.3416, 5.041394
113.2700, 4.945111
115.1985, 4.796950
117.1270, 4.569753
119.0554, 4.375189
120.9839, 4.243742
122.9124, 4.148137
124.8408, 4.075536
126.7693, 4.025436
128.6978, 4.002748
130.6262, 4.017630
132.5547, 4.006804
134.4832, 3.909120
136.4116, 3.822788
138.3401, 3.836366
140.2686, 3.904303
142.1970, 3.872423
144.1255, 3.721205
146.0540, 3.600690
147.9824, 3.570660
149.9109, 3.553218
151.8394, 3.511365
153.7678, 3.459629
155.6963, 3.429217
157.6248, 3.421471
159.5532, 3.411635
161.4817, 3.374442
163.4102, 3.359561
165.3386, 3.379372
167.2671, 3.434226
169.1956, 3.540996
171.1240, 3.695426
173.0525, 3.804130
174.9810, 3.841910
176.9094, 3.844642
178.8379, 3.829406
180.7664, 3.771520
182.6948, 3.612669
184.6233, 3.384506
186.5518, 3.228662
188.4802, 3.202503
190.4087, 3.171481
192.3372, 3.082896
194.2656, 3.022901
196.1941, 3.072366
198.1226, 3.185328
200.0510, 3.278833
201.9795, 3.349719
203.9080, 3.400760
205.8364, 3.420122
207.7649, 3.436878
209.6934, 3.470115
211.6218, 3.501098
213.5503, 3.493256
215.4788, 3.432147
217.4072, 3.462543
219.3357, 3.666508
221.2642, 3.816066
223.1926, 3.843667
225.1211, 3.828305
227.0496, 3.794933
228.9780, 3.763065
230.9065, 3.821135
232.8350, 4.027048
234.7634, 4.173567
236.6919, 4.217507
238.6204, 4.259381
240.5488, 4.377629
242.4773, 4.499830
244.4058, 4.547678
246.3342, 4.518115
248.2627, 4.406598
250.1912, 4.172427
252.1196, 3.992373
254.0481, 3.983582
255.9766, 3.959989
257.9050, 3.789081
259.8335, 3.527234
261.7620, 3.301436
263.6904, 3.106550
265.6189, 3.021196
267.5474, 3.119997
269.4758, 3.174124
271.4043, 3.061278
273.3328, 2.899414
275.2612, 2.762544
277.1897, 2.657078
279.1182, 2.621571
281.0466, 2.665749
282.9751, 2.674419
284.9036, 2.603092
286.8320, 2.522565
288.7605, 2.439225
290.6890, 2.375054
292.6174, 2.376270
294.5459, 2.425416
296.4744, 2.423897
298.4028, 2.351388
300.3313, 2.309479
302.2598, 2.376193
304.1882, 2.415116
306.1167, 2.340961
308.0452, 2.226521
309.9736, 2.171742
311.9021, 2.167099
313.8306, 2.182789
315.7590, 2.218236
317.6875, 2.269513
319.6160, 2.373797
321.5445, 2.446980
323.4729, 2.435237
325.4014, 2.377980
327.3299, 2.315406
329.2583, 2.252461
331.1868, 2.226896
333.1153, 2.270846
335.0437, 2.283802
336.9722, 2.250381
338.9007, 2.190381
340.8291, 2.072793
342.7576, 1.962097
344.6861, 1.940649
346.6145, 1.995209
348.5430, 2.024485
350.4715, 1.989601
352.3999, 2.000652
354.3284, 2.119819
356.2569, 2.211635
358.1853, 2.201069
360.1138, 2.154919
362.0423, 2.135659
363.9707, 2.137664
365.8992, 2.122739
367.8277, 2.074254
369.7561, 2.048113
371.6846, 2.049056
373.6131, 2.063989
375.5415, 2.091424
377.4700, 2.129476
379.3985, 2.158575
381.3269, 2.199259
383.2554, 2.334846
385.1839, 2.614424
387.1123, 2.713628
389.0408, 2.539265
390.9693, 2.430260
392.8977, 2.510101
394.8262, 2.626129
396.7547, 2.695725
398.6831, 2.744709
400.6116, 2.812647
402.5401, 2.897928
404.4685, 2.957483
406.3970, 2.981977
408.3255, 3.038812
410.2539, 3.165559
412.1824, 3.270964
414.1109, 3.332617
416.0393, 3.342417
417.9678, 3.254853
419.8963, 3.116559
421.8247, 3.060139
423.7532, 3.083234
425.6817, 3.111279
427.6101, 3.134802
429.5386, 3.182756
431.4671, 3.287022
433.3955, 3.386493
435.3240, 3.466678
437.2525, 3.521473
439.1809, 3.514859
441.1094, 3.478322
443.0379, 3.521424
444.9663, 3.643695
446.8948, 3.816975
448.8233, 4.113686
450.7517, 4.267796
452.6802, 4.176090
454.6087, 3.985204
456.5371, 3.687897
458.4656, 3.384034
460.3941, 3.220294
462.3225, 3.152706
464.2510, 3.060000
466.1795, 2.935367
468.1079, 2.829014
470.0364, 2.750071
471.9649, 2.686697
473.8933, 2.661814
475.8218, 2.621082
477.7503, 2.500165
479.6787, 2.377939
481.6072, 2.342509
483.5357, 2.375703
485.4641, 2.456861
487.3926, 2.598661
489.3211, 2.658341
491.2495, 2.550371
493.1780, 2.475004
495.1065, 2.475914
497.0349, 2.472714
498.9634, 2.421788
500.8919, 2.361520
502.8203, 2.320969
504.7488, 2.296714
506.6773, 2.292171
508.6057, 2.312323
510.5342, 2.280663
512.4626, 2.143728
514.3911, 2.061845
516.3196, 2.076910
518.2480, 2.076774
520.1765, 2.007687
522.1050, 1.936733
524.0334, 1.903572
525.9619, 1.895883
527.8904, 1.923254
529.8188, 1.967747
531.7473, 1.913622
533.6758, 1.722509
535.6042, 1.649805
537.5327, 1.738866
539.4612, 1.798301
541.3896, 1.771248
543.3181, 1.744626
545.2466, 1.772903
547.1750, 1.801531
549.1035, 1.798416
551.0320, 1.769912
552.9604, 1.704084
554.8889, 1.614595
556.8174, 1.617681
558.7458, 1.716115
560.6743, 1.773746
562.6028, 1.763019
564.5313, 1.784785
566.4598, 1.901782
568.3882, 1.990051
570.3167, 1.985799
572.2452, 1.957988
574.1736, 1.965327
576.1021, 1.971281
578.0306, 1.896019
579.9590, 1.772785
581.8875, 1.731282
583.8160, 1.767525
585.7444, 1.827372
587.6729, 1.910887
589.6014, 1.991445
591.5298, 2.050817
593.4583, 2.129582
595.3868, 2.269597
597.3152, 2.391524
599.2437, 2.446657
601.1722, 2.467742
603.1006, 2.487988
605.0291, 2.499258
606.9576, 2.461988
608.8860, 2.399184
610.8145, 2.445975
612.7430, 2.628836
614.6714, 2.731315
616.5999, 2.682158
618.5284, 2.650900
620.4568, 2.700822
622.3853, 2.706473
624.3138, 2.544362
626.2422, 2.428617
628.1707, 2.614250
630.0992, 2.809285
632.0276, 2.624573
633.9561, 2.272137
635.8846, 2.194597
637.8130, 2.358861
639.7415, 2.344224
641.6700, 2.076941
643.5984, 1.886492
645.5269, 1.794083
647.4554, 1.743573
649.3839, 1.782959
651.3123, 1.773703
653.2408, 1.602713
655.1693, 1.483042
657.0977, 1.590770
659.0262, 1.733978
660.9547, 1.754339
662.8831, 1.718623
664.8116, 1.741889
666.7401, 1.795414
668.6685, 1.736482
670.5970, 1.555816
672.5255, 1.528505
674.4539, 1.691956
676.3824, 1.790190
678.3109, 1.797056
680.2393, 1.779762
682.1678, 1.729028
684.0963, 1.713825
686.0247, 1.791990
687.9532, 1.865332
689.8817, 1.896232
691.8101, 1.891560
693.7386, 1.819005
695.6671, 1.742110
697.5955, 1.785993
699.5240, 1.890306
701.4525, 1.850693
703.3809, 1.694522
705.3094, 1.676354
707.2379, 1.793793
709.1663, 1.853498
711.0948, 1.824871
713.0233, 1.859991
714.9517, 2.033205
716.8802, 2.132433
718.8087, 2.037029
720.7371, 1.958221
722.6656, 1.978868
724.5941, 2.005071
726.5225, 1.980326
728.4510, 1.947719
730.3795, 1.931294
732.3079, 1.939297
734.2364, 2.016650
736.1649, 2.111037
738.0933, 2.087834
740.0218, 1.991299
741.9503, 1.998283
743.8787, 2.104251
745.8072, 2.139103
747.7357, 2.080984
749.6641, 2.022307
751.5926, 1.948526
753.5211, 1.931494
755.4495, 2.019684
757.3780, 2.093444
759.3065, 2.126880
761.2349, 2.152966
763.1634, 2.202793
765.0919, 2.221780
767.0203, 2.153576
768.9488, 2.071384
770.8773, 2.001778
772.8057, 1.977429
774.7342, 2.075446
776.6627, 2.210325
778.5911, 2.224262
780.5196, 2.155605
782.4481, 2.133411
784.3765, 2.152340
786.3050, 2.139979
788.2335, 2.091692
790.1619, 2.052308
792.0904, 2.011671
794.0189, 2.023764
795.9473, 2.112980
797.8758, 2.169999
799.8043, 2.177074
801.7327, 2.170618
803.6612, 2.152402
805.5897, 2.136600
807.5181, 2.120132
809.4466, 2.123449
811.3751, 2.178873
813.3035, 2.222799
815.2320, 2.230719
817.1605, 2.204099
819.0889, 2.112874
821.0174, 2.018745
822.9459, 1.986223
824.8743, 1.989028
826.8028, 1.989662
828.7313, 1.996652
830.6597, 2.035128
832.5882, 2.094172
834.5167, 2.138083
836.4451, 2.168106
838.3736, 2.200787
840.3021, 2.231619
842.2305, 2.206011
844.1590, 2.124728
846.0875, 2.087199
848.0159, 2.103223
849.9444, 2.155206
851.8729, 2.264589
853.8013, 2.262824
855.7298, 2.056704
857.6583, 1.943236
859.5867, 2.041705
861.5152, 2.113865
863.4437, 2.106215
865.3721, 2.079992
867.3006, 2.051693
869.2291, 2.005266
871.1575, 1.893081
873.0860, 1.819687
875.0145, 1.881252
876.9429, 1.942335
878.8714, 1.894698
880.7999, 1.835774
882.7283, 1.854001
884.6568, 1.887102
886.5853, 1.872305
888.5137, 1.841008
890.4422, 1.837783
892.3707, 1.833514
894.2991, 1.758782
896.2276, 1.674152
898.1561, 1.707500
900.0845, 1.813388
902.0130, 1.904162
903.9415, 1.957651
905.8699, 1.837018
907.7984, 1.584128
909.7269, 1.514470
911.6553, 1.617896
913.5838, 1.668637
915.5123, 1.664016
917.4407, 1.684974
919.3692, 1.739479
921.2977, 1.747847
923.2261, 1.705427
925.1546, 1.627106
927.0831, 1.493053
929.0115, 1.445578
930.9400, 1.512515
932.8685, 1.533262
934.7969, 1.480754
936.7254, 1.461455
938.6539, 1.496118
940.5823, 1.524239
942.5108, 1.528809
944.4393, 1.569949
946.3677, 1.691864
948.2962, 1.708270
950.2247, 1.513806
952.1531, 1.419731
954.0816, 1.548948
956.0101, 1.676311
957.9385, 1.751316
959.8670, 1.782992
961.7955, 1.748469
963.7239, 1.718654
965.6524, 1.678752
967.5809, 1.707179
969.5093, 1.870446
971.4378, 2.039939
973.3663, 2.178258
975.2947, 2.304195
977.2232, 2.398242
979.1517, 2.521348
981.0801, 2.671534
983.0086, 2.900035
984.9371, 3.233360
986.8655, 3.650436
988.7940, 4.157826
990.7225, 4.722031
992.6509, 5.465342
994.5794, 6.065545
996.5079, 6.416987
998.4363, 6.434515
1000.365, 5.961184
1002.293, 5.267744
1004.222, 4.388667
1006.150, 3.549901
1008.079, 2.854497
1010.007, 2.336136
1011.936, 2.099205
1013.864, 1.950785
1015.793, 1.759205
1017.721, 1.587594
1019.649, 1.459219
1021.578, 1.400229
1023.506, 1.484160
1025.435, 1.575560
1027.363, 1.559341
1029.292, 1.525330
1031.220, 1.555073
1033.149, 1.576529
1035.077, 1.511286
1037.006, 1.447593
1038.934, 1.455669
1040.863, 1.484489
1042.791, 1.513882
1044.719, 1.529578
1046.648, 1.520530
1048.576, 1.495788
1050.505, 1.443951
1052.433, 1.401313
1054.362, 1.398844
1056.290, 1.405420
1058.219, 1.420823
1060.147, 1.411625
1062.076, 1.313749
1064.004, 1.242245
1065.933, 1.297164
1067.861, 1.359287
1069.790, 1.345176
1071.718, 1.337308
1073.647, 1.399834
1075.575, 1.454216
1077.504, 1.452070
1079.432, 1.442885
1081.360, 1.473731
1083.289, 1.468434
1085.217, 1.337679
1087.146, 1.248961
1089.074, 1.295029
1091.003, 1.357391
1092.931, 1.412591
1094.860, 1.444365
1096.788, 1.391833
1098.717, 1.407069
1100.645, 1.581074
1102.574, 1.747415
1104.502, 1.845812
1106.431, 1.967110
1108.359, 2.193666
1110.287, 2.330233
1112.216, 2.284741
1114.144, 2.258344
1116.073, 2.321021
1118.001, 2.313694
1119.930, 2.128193
1121.858, 2.079957
1123.787, 2.331654
1125.715, 2.372602
1127.644, 2.059737
1129.572, 1.868744
1131.501, 1.868569
1133.429, 1.803125
1135.358, 1.638193
1137.286, 1.541572
1139.214, 1.526583
1141.143, 1.499731
1143.071, 1.462297
1145.000, 1.386636
1146.928, 1.273672
1148.857, 1.185995
1150.785, 1.125219
1152.714, 1.111405
1154.642, 1.139107
1156.571, 1.193714
1158.499, 1.260535
1160.428, 1.300104
1162.356, 1.305246
1164.285, 1.229946
1166.213, 1.128648
1168.141, 1.101049
1170.070, 1.116924
1171.998, 1.161231
1173.927, 1.191607
1175.855, 1.128958
1177.784, 1.063300
1179.712, 1.086434
1181.641, 1.131419
1183.569, 1.168823
1185.498, 1.182612
1187.426, 1.147066
1189.355, 1.110778
1191.283, 1.071652
1193.212, 1.077050
1195.140, 1.184422
1197.068, 1.245586
1198.997, 1.196276
1200.925, 1.175961
1202.854, 1.229502
1204.782, 1.241161
1206.711, 1.176803
1208.639, 1.182640
1210.568, 1.288458
1212.496, 1.287360
1214.425, 1.163011
1216.353, 1.084326
1218.282, 1.059798
1220.210, 1.085975
1222.139, 1.141582
1224.067, 1.098672
1225.995, 1.010053
1227.924, 1.076361
1229.852, 1.204001
1231.781, 1.184028
1233.709, 1.107824
1235.638, 1.108292
1237.566, 1.122591
1239.495, 1.052736
1241.423, 1.008202
1243.352, 1.127384
1245.280, 1.228391
1247.209, 1.180830
1249.137, 1.123130
1251.066, 1.118000
1252.994, 1.107887
1254.922, 1.064460
1256.851, 1.040920
1258.779, 1.053153
1260.708, 1.071525
1262.636, 1.098673
1264.565, 1.100284
1266.493, 1.062593
1268.422, 1.107911
1270.350, 1.232567
1272.279, 1.266567
1274.207, 1.226162
1276.136, 1.183634
1278.064, 1.148654
1279.993, 1.164382
1281.921, 1.189303
1283.849, 1.144903
1285.778, 1.085683
1287.706, 1.055133
1289.635, 1.055220
1291.563, 1.126187
1293.492, 1.164974
1295.420, 1.082332
1297.349, 1.063294
1299.277, 1.204515
1301.206, 1.264517
1303.134, 1.179438
1305.063, 1.095489
1306.991, 1.030409
1308.920, 1.040154
1310.848, 1.119462
1312.776, 1.152192
1314.705, 1.146017
1316.633, 1.163848
1318.562, 1.190462
1320.490, 1.170461
1322.419, 1.150235
1324.347, 1.227050
1326.276, 1.301685
1328.204, 1.258229
1330.133, 1.205331
1332.061, 1.214011
1333.990, 1.227735
1335.918, 1.217773
1337.847, 1.222094
1339.775, 1.257445
1341.703, 1.291866
1343.632, 1.339564
1345.560, 1.295370
1347.489, 1.153576
1349.417, 1.116308
1351.346, 1.166362
1353.274, 1.231891
1355.203, 1.275532
1357.131, 1.148651
1359.060, 1.024965
1360.988, 1.144606
1362.917, 1.291957
1364.845, 1.339670
1366.774, 1.325912
1368.702, 1.234375
1370.630, 1.178045
1372.559, 1.202856
1374.487, 1.201497
1376.416, 1.146245
1378.344, 1.156965
1380.273, 1.236170
1382.201, 1.293357
1384.130, 1.317371
1386.058, 1.236584
1387.987, 1.110678
1389.915, 1.017704
1391.844, 0.9828147
1393.772, 1.074633
1395.701, 1.168526
1397.629, 1.197391
1399.557, 1.214236
1401.486, 1.232336
1403.414, 1.252029
1405.343, 1.277073
1407.271, 1.234546
1409.200, 1.128628
1411.128, 1.101643
1413.057, 1.140456
1414.985, 1.181546
1416.914, 1.216429
1418.842, 1.251928
1420.771, 1.244971
1422.699, 1.058323
1424.628, 0.9656233
1426.556, 1.238673
1428.484, 1.405402
1430.413, 1.316668
1432.341, 1.232134
1434.270, 1.172432
1436.198, 1.134423
1438.127, 1.120888
1440.055, 1.168547
1441.984, 1.247261
1443.912, 1.284783
1445.841, 1.306842
1447.769, 1.362004
1449.698, 1.383646
1451.626, 1.256515
1453.555, 1.215766
1455.483, 1.431222
1457.411, 1.545578
1459.340, 1.495968
1461.268, 1.414648
1463.197, 1.306601
1465.125, 1.341144
1467.054, 1.447987
1468.982, 1.438562
1470.911, 1.366247
1472.839, 1.251242
1474.768, 1.169911
1476.696, 1.172320
1478.625, 1.203986
1480.553, 1.271911
1482.482, 1.235599
1484.410, 1.057011
1486.339, 1.020757
1488.267, 1.102941
1490.195, 1.100794
1492.124, 1.076617
1494.052, 1.167719
1495.981, 1.284254
1497.909, 1.387960
1499.838, 1.401515
1501.766, 1.245560
1503.695, 1.183272
1505.623, 1.274811
1507.552, 1.323337
1509.480, 1.312021
1511.409, 1.250344
1513.337, 1.166502
1515.266, 1.100543
1517.194, 1.080737
1519.122, 1.187988
1521.051, 1.273693
1522.979, 1.219996
1524.908, 1.210369
1526.836, 1.294003
1528.765, 1.302278
1530.693, 1.231496
1532.622, 1.169206
1534.550, 1.130880
1536.479, 1.145872
1538.407, 1.196641
1540.336, 1.320355
1542.264, 1.379429
1544.193, 1.222289
1546.121, 1.149225
1548.049, 1.281605
1549.978, 1.241062
1551.906, 1.035279
1553.835, 1.048143
1555.763, 1.172994
1557.692, 1.140930
1559.620, 1.101316
1561.549, 1.201886
1563.477, 1.286924
1565.406, 1.289236
1567.334, 1.265863
1569.263, 1.207891
1571.191, 1.254961
1573.120, 1.370853
1575.048, 1.323293
1576.976, 1.212956
1578.905, 1.195299
1580.833, 1.185222
1582.762, 1.106458
1584.690, 1.128968
1586.619, 1.328263
1588.547, 1.368732
1590.476, 1.229831
1592.404, 1.233827
1594.333, 1.316285
1596.261, 1.352331
1598.190, 1.353520
1600.118, 1.326954
1602.047, 1.267375
1603.975, 1.156417
1605.903, 1.105566
1607.832, 1.126593
1609.760, 1.171792
1611.689, 1.220211
1613.617, 1.216683
1615.546, 1.196439
1617.474, 1.206392
1619.403, 1.195238
1621.331, 1.121626
1623.260, 1.084033
1625.188, 1.092342
1627.117, 1.123795
1629.045, 1.162582
1630.974, 1.144858
1632.902, 1.138384
1634.830, 1.274169
1636.759, 1.343567
1638.687, 1.181218
1640.616, 1.096613
1642.544, 1.119567
1644.473, 1.167088
1646.401, 1.218032
1648.330, 1.189541
1650.258, 1.155637
1652.187, 1.209988
1654.115, 1.232386
1656.044, 1.138555
1657.972, 1.115766
1659.901, 1.181729
1661.829, 1.221711
1663.757, 1.241736
1665.686, 1.246398
1667.614, 1.257245
1669.543, 1.313953
1671.471, 1.304458
1673.400, 1.165182
1675.328, 1.150262
1677.257, 1.259546
1679.185, 1.292603
1681.114, 1.274105
1683.042, 1.211340
1684.971, 1.176471
1686.899, 1.210919
1688.828, 1.269385
1690.756, 1.345644
1692.684, 1.295955
1694.613, 1.167840
1696.541, 1.131741
1698.470, 1.147274
1700.398, 1.193128
1702.327, 1.236958
1704.255, 1.275774
1706.184, 1.262168
1708.112, 1.202321
1710.041, 1.189061
1711.969, 1.194159
1713.898, 1.161419
1715.826, 1.136080
1717.755, 1.154360
1719.683, 1.170157
1721.611, 1.178393
1723.540, 1.162260
1725.468, 1.145729
1727.397, 1.222265
1729.325, 1.283418
1731.254, 1.207190
1733.182, 1.147706
1735.111, 1.148603
1737.039, 1.173802
1738.968, 1.204160
1740.896, 1.083116
1742.825, 0.9796902
1744.753, 1.118362
1746.682, 1.245126
1748.610, 1.273993
1750.538, 1.205183
1752.467, 1.055178
1754.395, 1.030271
1756.324, 1.074952
1758.252, 1.155624
1760.181, 1.163553
1762.109, 1.004780
1764.038, 0.9914538
1765.966, 1.153800
1767.895, 1.217749
1769.823, 1.202763
1771.752, 1.085626
1773.680, 1.010702
1775.609, 1.050303
1777.537, 1.100833
1779.465, 1.144431
1781.394, 1.148740
1783.322, 1.145089
1785.251, 1.236053
1787.179, 1.256742
1789.108, 1.098540
1791.036, 1.005185
1792.965, 1.008057
1794.893, 1.076769
1796.822, 1.162687
1798.750, 1.190261
1800.679, 1.200180
1802.607, 1.224225
1804.536, 1.185701
1806.464, 1.086836
1808.392, 0.9901064
1810.321, 0.9431192
1812.249, 1.057199
1814.178, 1.163949
1816.106, 1.198605
1818.035, 1.146982
1819.963, 1.024996
1821.892, 0.9192197
1823.820, 0.8878077
1825.749, 1.085159
1827.677, 1.202985
1829.606, 1.060085
1831.534, 0.9700543
1833.463, 0.9319054
1835.391, 0.9317938
1837.319, 0.9524066
1839.248, 0.9757034
1841.176, 1.023298
1843.105, 1.119185
1845.033, 1.144379
1846.962, 1.120049
1848.890, 1.103346
1850.819, 1.080798
1852.747, 1.039797
1854.676, 0.9998253
1856.604, 0.9652078
1858.533, 1.082250
1860.461, 1.226822
1862.390, 1.130168
1864.318, 1.076058
1866.246, 1.192948
1868.175, 1.142679
1870.103, 0.9539769
1872.032, 1.025953
1873.960, 1.143003
1875.889, 1.064576
1877.817, 0.9836412
1879.746, 0.9355329
1881.674, 0.9938728
1883.603, 1.085700
1885.531, 1.011092
1887.460, 0.9588779
1889.388, 1.054799
1891.317, 1.114084
1893.245, 1.117902
1895.173, 1.048230
1897.102, 0.9677487
1899.030, 0.9356049
1900.959, 0.9433261
1902.887, 0.9935071
1904.816, 0.9730588
1906.744, 0.9332941
1908.673, 1.013843
1910.601, 1.096735
1912.530, 1.107287
1914.458, 1.120312
1916.387, 1.133702
1918.315, 1.052836
1920.244, 0.9887646
1922.172, 1.085500
1924.100, 1.137806
1926.029, 1.096165
1927.957, 0.9781232
1929.886, 0.8707783
1931.814, 0.9819633
1933.743, 1.069801
1935.671, 1.023137
1937.600, 1.004598
1939.528, 1.015078
1941.457, 1.017916
1943.385, 1.026927
1945.314, 1.053933
1947.242, 1.075623
1949.171, 1.085607
1951.099, 1.064647
1953.027, 1.014988
1954.956, 0.8990053
1956.884, 0.8719270
1958.813, 0.9659046
1960.741, 1.074997
1962.670, 1.149021
1964.598, 1.075294
1966.527, 0.9977969
1968.455, 0.9588472
1970.384, 1.005120
1972.312, 1.083765
1974.241, 1.024952
1976.169, 0.9869354
1978.098, 1.083165
1980.026, 1.093500
1981.954, 1.015364
1983.883, 0.8760939
1985.811, 0.7727391
1987.740, 0.8254284
1989.668, 0.8030252
1991.597, 0.7120721
1993.525, 0.8134266
1995.454, 0.9654996
1997.382, 1.079922
1999.311, 1.062506
2001.239, 0.9068090
2003.168, 0.9484044
2005.096, 1.034696
2007.025, 1.004859
2008.953, 0.8937799
2010.881, 0.6846778
2012.810, 0.7543823
2014.738, 0.9210476
2016.667, 0.9123736
2018.595, 0.9313313
2020.524, 1.062152
2022.452, 0.9811001
2024.381, 0.8297706
2026.309, 0.9049100
2028.238, 0.9228286
2030.166, 0.7850910
2032.095, 0.8109111
2034.023, 0.8992947
2035.952, 0.7908886
2037.880, 0.7200300
2039.808, 0.7620115
2041.737, 0.7548050
2043.665, 0.7520312
2045.594, 0.9536783
2047.522, 1.052703
2049.451, 0.9479799
2051.379, 0.8983117
2053.308, 0.8874283
2055.236, 0.8298270
2057.165, 0.8164685
2059.093, 0.8754902
2061.022, 0.9607176
2062.950, 1.027923
2064.879, 0.9811167
2066.807, 0.9413236
2068.736, 0.9487954
2070.664, 0.9331897
2072.593, 0.9134592
2074.521, 0.9402105
2076.449, 0.9421553
2078.378, 0.8939129
2080.306, 0.8750813
2082.235, 0.8753766
2084.163, 0.8842048
2086.092, 0.8825566
2088.020, 0.8634320
2089.949, 0.8640118
2091.877, 0.8673579
2093.806, 0.8482283
2095.734, 0.8487917
2097.663, 0.8771286
2099.591, 0.7995926
2101.520, 0.7353615
2103.448, 0.8096629
2105.376, 0.8485430
2107.305, 0.8297287
2109.233, 0.8559285
2111.162, 0.8592546
2113.090, 0.7750181
2115.019, 0.7926790
2116.947, 0.8921973
2118.876, 0.8483934
2120.804, 0.8449901
2122.733, 0.9923846
2124.661, 0.9787750
2126.590, 0.8523213
2128.518, 0.7710230
2130.447, 0.7692886
2132.375, 0.8574375
2134.303, 0.9379991
2136.232, 0.9776920
2138.160, 0.9142027
2140.089, 0.8281415
2142.017, 0.7419010
2143.946, 0.7111830
2145.874, 0.7216699
2147.803, 0.7761694
2149.731, 0.8336872
2151.660, 0.8795092
2153.588, 0.8522168
2155.517, 0.8050128
2157.445, 0.7470567
2159.374, 0.7987840
2161.302, 0.8942333
2163.230, 0.8259801
2165.159, 0.7436577
2167.087, 0.6948113
2169.016, 0.7687902
2170.944, 0.8553079
2172.873, 0.7634750
2174.801, 0.7769606
2176.730, 0.9408799
2178.658, 0.8396904
2180.587, 0.7323647
2182.515, 0.8421358
2184.444, 0.7504131
2186.372, 0.5932359
2188.301, 1.240032
2190.229, 1.540991
2192.157, 1.018269
2194.086, 0.8240150
2196.014, 0.8477262
2197.943, 0.9041130
2199.871, 0.8815235
2201.800, 0.7771804
2203.728, 0.7712833
2205.657, 0.7997786
2207.585, 0.8277478
2209.514, 0.7883490
2211.442, 0.7095638
2213.371, 0.6518213
2215.299, 0.6557902
2217.228, 0.7272907
2219.156, 0.8240884
2221.084, 0.8767527
2223.013, 0.7649933
2224.941, 0.7071358
2226.870, 0.7208766
2228.798, 0.8202888
2230.727, 0.8620225
2232.655, 0.7485102
2234.584, 0.8898402
2236.512, 1.034827
2238.441, 0.7290018
2240.369, 0.5831518
2242.298, 0.6555035
2244.226, 0.6757981
2246.155, 0.7172356
2248.083, 0.8715162
2250.011, 0.8019879
2251.940, 0.6449705
2253.868, 0.6341539
2255.797, 0.6361883
2257.725, 0.6233680
2259.654, 0.6285101
2261.582, 0.6281072
2263.511, 0.6043274
2265.439, 0.6265310
2267.368, 0.6571187
2269.296, 0.5896664
2271.225, 0.6245815
2273.153, 0.7739493
2275.082, 0.7356080
2277.010, 0.6638206
2278.938, 0.6401773
2280.867, 0.6792760
2282.795, 0.7137988
2284.724, 0.5765333
2286.652, 0.5786122
2288.581, 0.7152923
2290.509, 0.6572152
2292.438, 0.6196252
2294.366, 0.7117034
2296.295, 0.7825486
2298.223, 0.7726986
2300.152, 0.5163993
2302.080, 0.4712647
2304.009, 0.6126659
2305.937, 0.7127749
2307.865, 0.6610106
2309.794, 0.4053712
2311.722, 0.4157768
2313.651, 0.5180852
2315.579, 0.5422636
2317.508, 0.5953290
2319.436, 0.6467721
2321.365, 0.5775203
2323.293, 0.5678634
2325.222, 0.6516544
2327.150, 0.5454486
2329.079, 0.4470935
2331.007, 0.4727851
2332.936, 0.6287241
2334.864, 0.7406711
2336.792, 0.5298720
2338.721, 0.5146087
2340.649, 0.6772543
2342.578, 0.6425261
2344.506, 0.5602724
2346.435, 0.4867840
2348.363, 0.6318169
2350.292, 0.7023982
2352.220, 0.4746091
2354.149, 0.5098855
2356.077, 0.6543885
2358.006, 0.5677021
2359.934, 0.5089294
2361.863, 0.5087120
2363.791, 0.5284694
2365.719, 0.5733801
2367.648, 0.6374179
2369.576, 0.6289478
2371.505, 0.5784672
2373.433, 0.4761542
2375.362, 0.5967731
2377.290, 0.7978489
2379.219, 0.9039355
2381.147, 0.7963923
2383.076, 0.5593035
2385.004, 0.4258534
2386.933, 0.4502290
2388.861, 0.6225121
2390.790, 0.5473662
2392.718, 0.4528055
2394.646, 0.4779210
2396.575, 0.5598174
2398.503, 0.6006598
2400.432, 0.4709418
2402.360, 0.4550078
2404.289, 0.5391376
2406.217, 0.6970001
2408.146, 0.6861358
2410.074, 0.5343658
2412.003, 0.6260375
2413.931, 0.6721562
2415.860, 0.5860623
2417.788, 0.7352319
2419.717, 0.7925442
2421.645, 0.5790823
2423.573, 0.4269170
2425.502, 0.4345793
2427.430, 0.7307998
2429.359, 0.7903885
2431.287, 0.6786414
2433.216, 0.5333106
2435.144, 0.5558074
2437.073, 0.7001534
2439.001, 0.7468467
2440.930, 0.6975455
2442.858, 0.5862241
2444.787, 0.5982702
2446.715, 0.5932236
2448.644, 0.5130861
2450.572, 0.4247779
2452.500, 0.3712190
2454.429, 0.3856406
2456.357, 0.4515820
2458.286, 0.5296276
2460.214, 0.5972726
2462.143, 0.5689284
2464.071, 0.4976393
2466.000, 0.4931868
2467.928, 0.3780202
2469.857, 0.2531907
2471.785, 0.5399774
2473.714, 0.6050774
2475.642, 0.3931760
2477.571, 0.3135161
2479.499, 0.3704629
2481.427, 0.5450622
2483.356, 0.4660271
2485.284, 0.3504440
2487.213, 0.3014444
2489.141, 0.4740600
2491.070, 0.5985757
2492.998, 0.5222620
2494.927, 0.4238530
2496.855, 0.3545148
2498.784, 0.3447978
2500.712, 0.3499303
2502.641, 0.3839335
2504.569, 0.4852489
2506.498, 0.5429908
2508.426, 0.5691778
2510.354, 0.6147822
2512.283, 0.5755587
2514.211, 0.4974907
2516.140, 0.5009145
2518.068, 0.5245776
2519.997, 0.5643488
2521.925, 0.6615887
2523.854, 0.6944677
2525.782, 0.6685503
2527.711, 0.7055054
2529.639, 0.7084137
2531.568, 0.6582840
2533.496, 0.5609744
2535.425, 0.5366545
2537.353, 0.6118320
2539.281, 0.5851792
2541.210, 0.5014740
2543.138, 0.3790093
2545.067, 0.3640293
2546.995, 0.3990574
2548.924, 0.4589801
2550.852, 0.5481372
2552.781, 0.5355827
2554.709, 0.3575098
2556.638, 0.4913660
2558.566, 0.5778695
2560.495, 0.4125682
2562.423, 0.4028320
2564.352, 0.4317877
2566.280, 0.4118723
2568.208, 0.4685837
2570.137, 0.5227205
2572.065, 0.5136329
2573.994, 0.5737475
2575.922, 0.5701831
2577.851, 0.3728222
2579.779, 0.5029206
2581.708, 0.6335152
2583.636, 0.4361747
2585.565, 0.4239975
2587.493, 0.4685722
2589.422, 0.4227806
2591.350, 0.4156992
2593.279, 0.4403961
2595.207, 0.5065830
2597.135, 0.5152817
2599.064, 0.4844117
2600.992, 0.3973603
2602.921, 0.4868034
2604.849, 0.5588248
2606.778, 0.3975494
2608.706, 0.3947630
2610.635, 0.4321475
2612.563, 0.3971110
2614.492, 0.3236275
2616.420, 0.3011503
2618.349, 0.3976690
2620.277, 0.4669465
2622.206, 0.4474089
2624.134, 0.3071998
2626.063, 0.3841906
2627.991, 0.3965538
2629.919, 0.1696640
2631.848, 0.3061323
2633.776, 0.4553919
2635.705, 0.4085017
2637.633, 0.4464517
2639.562, 0.5024248
2641.490, 0.5262498
2643.419, 0.3654755
2645.347, 0.2590705
2647.276, 0.3075914
2649.204, 0.4803334
2651.133, 0.5433679
2653.061, 0.4364735
2654.990, 0.3509053
2656.918, 0.3100748
2658.846, 0.3192496
2660.775, 0.3920048
2662.703, 0.5304155
2664.632, 0.6690696
2666.560, 0.4516561
2668.489, 0.2832376
2670.417, 0.2432097
2672.346, 0.2981159
2674.274, 0.3817429
2676.203, 0.4257900
2678.131, 0.2591849
2680.060, 0.2741472
2681.988, 0.3953925
2683.917, 0.4211854
2685.845, 0.3247484
2687.773, 0.2232659
2689.702, 0.2585192
2691.630, 0.3016850
2693.559, 0.3479959
2695.487, 0.4081004
2697.416, 0.3651963
2699.344, 0.3645872
2701.273, 0.4962255
2703.201, 0.5289201
2705.130, 0.4826460
2707.058, 0.3934833
2708.987, 0.4308289
2710.915, 0.3886774
2712.844, 0.2462076
2714.772, 0.2593620
2716.700, 0.3429917
2718.629, 0.4251021
2720.557, 0.3935681
2722.486, 0.2129003
2724.414, 3.1150609E-02
2726.343, 0.1462442
2728.271, 0.3456349
2730.200, 0.5058313
2732.128, 0.5119739
2734.057, 0.3530668
2735.985, 0.2233654
2737.914, 0.3195061
2739.842, 0.2953980
2741.771, 0.3085248
2743.699, 0.4546833
2745.627, 0.4280885
2747.556, 0.3288429
2749.484, 0.2273320
2751.413, 0.3627612
2753.341, 0.4287093
2755.270, 0.3757366
2757.198, 0.2223027
2759.127, 0.2035107
2761.055, 0.2867809
2762.984, 0.4003455
2764.912, 0.3448108
2766.841, 0.2607971
2768.769, 0.2708822
2770.698, 0.4030510
2772.626, 0.5133233
2774.554, 0.5306249
2776.483, 0.4261999
2778.411, 0.2901336
2780.340, 0.1918497
2782.268, 0.2817768
2784.197, 0.3466023
2786.125, 0.3284609
2788.054, 0.1364279
2789.982, 0.2236113
2791.911, 0.3528456
2793.839, 0.2043981
2795.768, 0.1454000
2797.696, 0.2128143
2799.625, 0.4084711
2801.553, 0.2299287
2803.481, 0.1499268
2805.410, 0.2357876
2807.338, 0.2841937
2809.267, 0.2752874
2811.195, 0.2260235
2813.124, 0.1476757
2815.052, 0.3101671
2816.981, 0.3400832
2818.909, 2.1091189E-02
2820.838, 0.1813301
2822.766, 0.3204801
2824.695, 0.2689219
2826.623, 0.2560853
2828.552, 0.2384885
2830.480, 0.2288614
2832.408, 0.2871619
2834.337, 0.2268054
2836.265, 0.1967418
2838.194, 0.3257478
2840.122, 0.1946200
2842.051, 0.1299646
2843.979, 0.2162077
2845.908, 0.2183911
2847.836, 0.1984167
2849.765, 0.1873526
2851.693, 0.2011579
2853.622, 0.3041147
2855.550, 0.3823346
2857.479, 0.3208545
2859.407, 0.3664212
2861.335, 0.3247769
2863.264, 0.1757327
2865.192, 0.1496753
2867.121, 0.2988265
2869.049, 0.3961634
2870.978, 0.1053157
2872.906, 0.2195757
2874.835, 0.3653204
2876.763, 0.2841851
2878.692, 0.2344583
2880.620, 0.1997968
2882.549, 0.1883638
2884.477, 0.2513057
2886.406, 0.2750346
2888.334, 0.2605117
2890.262, 0.2224336
2892.191, 0.1914928
2894.119, 0.2016588
2896.048, 0.2461083
2897.976, 0.2516963
2899.905, 0.3018543
2901.833, 0.3353914
2903.762, 0.2224395
2905.690, 0.2509603
2907.619, 0.2551271
2909.547, 0.1636040
2911.476, 0.1380779
2913.404, 0.1353393
2915.333, 0.1552731
2917.261, 0.2372723
2919.189, 0.2318399
2921.118, 0.1630728
2923.046, 5.9490040E-02
2924.975, 0.1125185
2926.903, 0.2135723
2928.832, 0.2591960
2930.760, 8.9247122E-02
2932.689, -3.0682229E-03
2934.617, -2.9020829E-02
2936.546, -2.6606491E-02
2938.474, -0.1235176
2940.403, 4.9044561E-02
2942.331, 0.3333940
2944.260, 0.1548731
2946.188, 0.2516038
2948.116, 0.2501457
2950.045, -4.0927000E-02
2951.973, 0.1807671
2953.902, 0.3665872
2955.830, 0.3769608
2957.759, 0.2006585
2959.687, 0.2247055
2961.616, 0.2273178
2963.544, 9.3927883E-02
2965.473, 0.1089143
2967.401, 0.1408479
2969.330, 0.1311870
2971.258, -1.4150920E-02
2973.187, 0.1968988
2975.115, 0.2613356
2977.043, -2.8102619E-03
2978.972, 6.4532019E-02
2980.900, 0.1112773
2982.829, 7.8792937E-02
2984.757, -3.2257792E-02
2986.686, 7.3755451E-02
2988.614, 0.2757797
2990.543, 0.4154765
2992.471, 0.1173465
2994.400, 9.7791754E-02
2996.328, 0.1379931
2998.257, 2.4992149E-02
3000.185, 0.1670823
3002.114, 0.2017985
3004.042, 0.1377859
3005.970, 0.1920483
3007.899, 0.1259536
3009.827, 0.1365168
3011.756, 0.2621754
3013.684, 0.2148743
3015.613, 9.5287457E-02
3017.541, 3.3334710E-02
3019.470, 0.1382772
3021.398, 0.1878536
3023.327, 0.1449737
3025.255, 9.6365467E-02
3027.184, 0.3103299
3029.112, 9.2008524E-02
3031.041, -6.8364307E-02
3032.969, 8.8259853E-02
3034.897, 0.1062651
3036.826, 0.1175493
3038.754, 0.1451750
3040.683, 0.1884442
3042.611, 0.1841281
3044.540, 0.2716784
3046.468, 0.3741397
3048.397, 0.2633215
3050.325, 0.2714491
3052.254, 0.2169620
3054.182, 7.1519993E-02
3056.111, 0.2013768
3058.039, 0.2918275
3059.968, 0.3236665
3061.896, 0.3075438
3063.824, 0.1360637
3065.753, 9.3142249E-02
3067.681, 0.1404062
3069.610, 0.1406562
3071.538, 0.1765660
3073.467, 0.1513097
3075.395, 7.2640203E-02
3077.324, 1.5455960E-02
3079.252, 3.2103810E-02
3081.181, 0.1201688
3083.109, 0.2415178
3085.038, 0.3171913
3086.966, 5.6453709E-02
3088.895, -7.2656758E-02
3090.823, 0.2463297
3092.751, 0.1569047
3094.680, 7.8789607E-02
3096.608, 3.6099970E-02
3098.537, -3.5448018E-02
3100.465, 0.1376229
3102.394, 0.2835086
3104.322, 0.3001683
3106.251, 0.1580245
3108.179, 0.1774238
3110.108, 0.2902527
3112.036, 0.3557490
3113.965, 0.1597600
3115.893, 0.3121311
3117.822, 0.2748143
3119.750, 2.1356130E-02
3121.678, 0.2638635
3123.607, 0.2001308
3125.535, 0.1570875
3127.464, 0.2612280
3129.392, 0.2348372
3131.321, 0.2594556
3133.249, 0.2022843
3135.178, 4.2156920E-02
3137.106, 0.2171200
3139.035, 0.1016738
3140.963, 1.6543809E-02
3142.892, 0.2241891
3144.820, 7.5034350E-02
3146.749, 9.7274877E-02
3148.677, 0.1307945
3150.605, -2.9712999E-02
3152.534, -0.1174841
3154.462, -3.2898702E-02
3156.391, 4.0713090E-02
3158.319, -5.2252740E-02
3160.248, 0.1106702
3162.176, 0.2107794
3164.105, 0.2517985
3166.033, 0.2936586
3167.962, 0.1950285
3169.890, 0.1951400
3171.819, 0.2655544
3173.747, 0.3038156
3175.676, 9.2219837E-02
3177.604, 0.1890931
3179.532, 0.3470719
3181.461, 0.2193383
3183.389, 0.2253918
3185.318, 0.1897982
3187.246, 0.1032445
3189.175, 1.3828410E-02
3191.103, 0.1296714
3193.032, 8.8849768E-02
3194.960, 1.5363270E-02
3196.889, 9.4736829E-02
3198.817, 0.3401502
3200.746, 0.2704482
3202.674, 9.8149687E-02
3204.603, 7.8130953E-02
3206.531, 0.1645761
3208.459, 0.1068661
3210.388, -1.7753679E-02
3212.316, -6.6530079E-02
3214.245, 0.4033309
3216.173, 0.2140639
3218.102, -9.7609563E-03
3220.030, 0.1116179
3221.959, -2.8756641E-02
3223.887, 9.5963500E-02
3225.816, 7.0187852E-02
3227.744, -0.1771433
3229.673, -7.3956743E-02
3231.601, -4.2202730E-02
3233.530, 7.5029142E-02
3235.458, 0.2126049
3237.386, 1.9125190E-02
3239.315, -2.3048090E-02
3241.243, 4.3365970E-02
3243.172, 0.1047382
3245.100, 1.4715480E-02
3247.029, 3.5481408E-02
3248.957, -7.4950919E-02
3250.886, -0.1214434
3252.814, 0.1993490
3254.743, 0.1668688
3256.671, 5.1628329E-02
3258.600, 8.1443809E-02
3260.528, 0.3150183
3262.457, 0.1519034
3264.385, 6.5135792E-02
3266.313, 7.0235170E-02
3268.242, 9.0153210E-02
3270.170, -3.4365531E-02
3272.099, 0.7111357
3274.027, 0.8118075
3275.956, 0.2522245
3277.884, 0.2842145
3279.813, 0.1650837
3281.741, 0.1198549
3283.670, 0.1811402
3285.598, 0.2561022
3287.527, 3.3137351E-02
3289.455, 8.3866142E-02
3291.384, 0.2001816
3293.312, 0.1948883
3295.240, 0.3294587
3297.169, 0.3230738
3299.097, 0.1847575
3301.026, 3.9680790E-02
3302.954, 0.1371656
3304.883, 5.3694900E-02
3306.811, 4.5137230E-02
3308.740, 6.0144059E-02
3310.668, -3.7596092E-02
3312.597, 0.1178962
3314.525, 0.1115874
3316.454, 0.1185607
3318.382, 0.2194204
3320.311, 0.1219003
3322.239, -4.4175830E-02
3324.167, -6.3138999E-02
3326.096, -4.0861061E-03
3328.024, -6.7077659E-02
3329.953, 0.1065580
3331.881, 0.1846294
3333.810, 0.1689710
3335.738, 0.1331855
3337.667, 5.1956311E-02
3339.595, 0.1852521
3341.524, 0.1929596
3343.452, 9.7237423E-02
3345.381, 0.2134144
3347.309, 0.1898916
3349.238, 7.1971819E-02
3351.166, 3.6769450E-02
3353.094, 0.1695928
3355.023, 0.1525382
3356.951, 0.1704720
3358.880, 0.1807565
3360.808, 0.1583903
3362.737, 0.1135265
3364.665, 0.2045160
3366.594, 0.1850141
3368.522, 2.5949970E-02
3370.451, -0.1515648
3372.379, 4.4629700E-02
3374.308, 0.1482850
3376.236, 7.8597963E-02
3378.165, -5.0865151E-02
3380.093, -7.1910568E-02
3382.021, 9.3077794E-02
3383.950, 0.1680540
3385.878, 0.1159081
3387.807, 2.6536720E-02
3389.735, 8.0211617E-02
3391.664, 0.1864986
3393.592, 0.2650554
3395.521, 0.2283225
3397.449, 7.2745413E-02
3399.378, 6.7697920E-02
3401.306, 7.1612664E-02
3403.235, 8.2067654E-02
3405.163, 4.8302989E-02
3407.092, -0.1060401
3409.020, -1.7068399E-02
3410.948, 6.0722452E-02
3412.877, -5.8805659E-02
3414.805, -0.2230790
3416.734, 3.8453359E-02
3418.662, 0.1639458
3420.591, -3.2151770E-02
3422.519, -0.1261049
3424.448, 5.7447981E-02
3426.376, 3.8352159E-03
3428.305, -1.4848490E-02
3430.233, -8.3457576E-03
3432.162, 3.1465091E-02
3434.090, 7.8750797E-02
3436.019, -8.3686441E-02
3437.947, -0.2331796
3439.875, -3.4823010E-03
3441.804, 0.3150749
3443.732, 0.2519007
3445.661, -0.1075623
3447.589, -1.0929590E-02
3449.518, 0.1639503
3451.446, 0.1537180
##END=



