##NAMES=Mcguinnessite
##RRUFFID=R070082
##IDEAL CHEMISTRY=CuMg(CO_3_)(OH)_2_
##LOCALITY=Copper King mine, Red Mountain District, Mendocino County, California, USA
##OWNER=RRUFF
##SOURCE=James Shigley
##DESCRIPTION=Aggregates of greenish blue radially fibrous spherules
##STATUS=The identification of this mineral is not yet confirmed
##URL=https://www.rruff.net/odr/rruff_sample/R070082
##FILETYPE=Raman RAW
##RAMAN WAVELENGTH=532

151.8621, 7627.662
153.7905, 8024.042
155.7190, 8408.911
157.6475, 8782.387
159.5759, 9149.455
161.5044, 9490.708
163.4329, 9817.776
165.3613, 10115.67
167.2898, 10371.15
169.2183, 10603.55
171.1467, 10761.85
173.0752, 10824.69
175.0037, 10730.83
176.9321, 10645.09
178.8606, 10584.67
180.7891, 10531.85
182.7175, 10453.69
184.6460, 10319.33
186.5745, 10180.41
188.5029, 10057.19
190.4314, 9951.208
192.3599, 9846.692
194.2883, 9747.723
196.2168, 9648.676
198.1453, 9533.543
200.0737, 9417.710
202.0022, 9274.240
203.9307, 9087.195
205.8591, 8857.025
207.7876, 8602.709
209.7161, 8314.692
211.6445, 8006.252
213.5730, 7710.998
215.5014, 7431.125
217.4299, 7161.380
219.3584, 6896.713
221.2868, 6635.474
223.2153, 6387.922
225.1438, 6151.938
227.0723, 5932.089
229.0007, 5728.286
230.9292, 5540.733
232.8577, 5372.851
234.7861, 5222.742
236.7146, 5090.005
238.6431, 4983.263
240.5715, 4907.314
242.5000, 4858.409
244.4285, 4828.714
246.3569, 4823.915
248.2854, 4835.516
250.2139, 4869.667
252.1423, 4928.016
254.0708, 4975.948
255.9993, 4991.860
257.9277, 5001.500
259.8562, 5034.601
261.7847, 5120.125
263.7131, 5200.687
265.6416, 5273.204
267.5701, 5336.089
269.4985, 5362.628
271.4270, 5325.359
273.3555, 5262.009
275.2839, 5200.464
277.2124, 5141.005
279.1409, 5078.453
281.0693, 5011.750
282.9978, 4941.795
284.9263, 4875.817
286.8547, 4814.342
288.7832, 4756.374
290.7117, 4699.910
292.6401, 4641.908
294.5686, 4597.293
296.4971, 4574.213
298.4255, 4568.167
300.3540, 4562.908
302.2825, 4559.076
304.2109, 4555.372
306.1394, 4548.715
308.0679, 4538.278
309.9963, 4531.732
311.9248, 4531.924
313.8533, 4536.494
315.7817, 4540.957
317.7102, 4551.417
319.6387, 4551.426
321.5671, 4534.852
323.4956, 4500.757
325.4241, 4461.143
327.3525, 4417.321
329.2810, 4368.465
331.2095, 4315.208
333.1379, 4257.057
335.0664, 4195.485
336.9948, 4130.907
338.9233, 4066.172
340.8518, 4005.288
342.7802, 3941.651
344.7087, 3881.255
346.6372, 3834.430
348.5656, 3803.364
350.4941, 3775.479
352.4226, 3743.096
354.3510, 3712.836
356.2795, 3696.946
358.2080, 3701.467
360.1364, 3708.878
362.0649, 3708.344
363.9934, 3697.659
365.9218, 3692.935
367.8503, 3696.900
369.7788, 3708.329
371.7072, 3720.310
373.6357, 3729.393
375.5642, 3739.470
377.4926, 3756.186
379.4211, 3781.588
381.3496, 3822.979
383.2780, 3889.041
385.2065, 3958.674
387.1350, 4018.842
389.0634, 4067.434
390.9919, 4130.047
392.9204, 4215.160
394.8488, 4320.197
396.7773, 4436.237
398.7058, 4559.685
400.6342, 4683.288
402.5627, 4808.148
404.4912, 4936.356
406.4196, 5084.067
408.3481, 5269.918
410.2766, 5464.903
412.2050, 5653.434
414.1335, 5833.561
416.0620, 5972.011
417.9904, 6042.135
419.9189, 6074.224
421.8474, 6092.552
423.7758, 6096.501
425.7043, 6079.433
427.6328, 6046.164
429.5612, 6003.146
431.4897, 5958.688
433.4182, 5925.748
435.3466, 5884.231
437.2751, 5823.228
439.2036, 5739.961
441.1320, 5672.837
443.0605, 5628.083
444.9890, 5596.750
446.9174, 5571.881
448.8459, 5564.371
450.7744, 5567.930
452.7029, 5567.995
454.6313, 5556.621
456.5598, 5536.293
458.4883, 5517.620
460.4167, 5492.167
462.3452, 5451.059
464.2737, 5383.324
466.2021, 5313.248
468.1306, 5254.843
470.0591, 5199.500
471.9875, 5138.401
473.9160, 5069.885
475.8445, 5012.081
477.7729, 4967.628
479.7014, 4940.162
481.6299, 4937.480
483.5583, 4954.111
485.4868, 4985.962
487.4153, 5030.646
489.3437, 5087.602
491.2722, 5167.393
493.2007, 5270.902
495.1291, 5389.181
497.0576, 5520.312
498.9861, 5664.839
500.9145, 5820.185
502.8430, 5988.596
504.7715, 6166.367
506.6999, 6347.589
508.6284, 6538.679
510.5569, 6750.543
512.4854, 7007.283
514.4138, 7278.259
516.3423, 7525.895
518.2708, 7716.875
520.1992, 7841.907
522.1277, 7907.802
524.0562, 7904.839
525.9846, 7826.601
527.9131, 7667.234
529.8416, 7454.895
531.7700, 7193.683
533.6985, 6905.755
535.6270, 6600.959
537.5554, 6288.718
539.4839, 5984.976
541.4124, 5692.393
543.3408, 5399.324
545.2693, 5118.781
547.1978, 4848.950
549.1262, 4590.666
551.0547, 4362.026
552.9832, 4171.357
554.9116, 3998.067
556.8401, 3839.290
558.7686, 3693.854
560.6970, 3564.637
562.6255, 3455.154
564.5540, 3360.998
566.4824, 3279.608
568.4109, 3211.712
570.3394, 3149.544
572.2678, 3091.139
574.1963, 3038.837
576.1248, 2996.082
578.0532, 2960.555
579.9817, 2929.477
581.9101, 2906.840
583.8386, 2887.198
585.7670, 2861.635
587.6955, 2823.451
589.6240, 2791.582
591.5524, 2770.775
593.4809, 2759.625
595.4094, 2751.228
597.3378, 2743.359
599.2663, 2735.406
601.1948, 2728.610
603.1232, 2725.109
605.0517, 2719.283
606.9802, 2708.539
608.9086, 2697.471
610.8371, 2687.197
612.7656, 2675.761
614.6940, 2671.783
616.6225, 2687.695
618.5510, 2703.700
620.4794, 2702.398
622.4079, 2681.362
624.3364, 2666.296
626.2648, 2664.200
628.1933, 2664.769
630.1218, 2661.699
632.0502, 2656.991
633.9787, 2658.047
635.9072, 2671.795
637.8356, 2685.163
639.7641, 2688.935
641.6926, 2682.385
643.6210, 2677.542
645.5495, 2678.382
647.4780, 2680.861
649.4064, 2681.837
651.3349, 2674.564
653.2634, 2674.451
655.1918, 2689.974
657.1203, 2715.034
659.0488, 2732.091
660.9772, 2733.052
662.9057, 2736.903
664.8342, 2753.176
666.7626, 2782.375
668.6911, 2803.542
670.6196, 2805.068
672.5480, 2810.803
674.4765, 2835.386
676.4050, 2875.275
678.3334, 2911.790
680.2619, 2940.200
682.1904, 2965.902
684.1188, 2989.349
686.0473, 3007.303
687.9758, 3037.575
689.9042, 3084.174
691.8327, 3140.755
693.7612, 3204.190
695.6896, 3275.146
697.6181, 3341.261
699.5466, 3395.793
701.4750, 3447.926
703.4035, 3507.903
705.3320, 3584.355
707.2604, 3648.260
709.1889, 3698.729
711.1174, 3736.164
713.0458, 3753.749
714.9743, 3746.379
716.9028, 3724.537
718.8312, 3687.206
720.7597, 3640.359
722.6882, 3601.098
724.6166, 3572.636
726.5451, 3538.997
728.4736, 3488.377
730.4020, 3434.514
732.3305, 3395.454
734.2590, 3379.119
736.1874, 3367.261
738.1159, 3355.271
740.0444, 3345.650
741.9728, 3332.814
743.9013, 3314.638
745.8298, 3292.171
747.7582, 3268.515
749.6867, 3246.422
751.6152, 3220.879
753.5436, 3185.793
755.4721, 3152.142
757.4006, 3127.601
759.3290, 3102.660
761.2575, 3077.714
763.1860, 3054.955
765.1144, 3041.802
767.0429, 3035.120
768.9714, 3029.881
770.8998, 3022.424
772.8283, 3010.829
774.7568, 2999.313
776.6852, 2991.166
778.6137, 2987.273
780.5422, 2980.719
782.4706, 2968.449
784.3991, 2957.809
786.3276, 2955.632
788.2560, 2959.196
790.1845, 2959.419
792.1130, 2952.208
794.0414, 2941.904
795.9699, 2933.150
797.8984, 2928.117
799.8268, 2926.320
801.7553, 2928.248
803.6838, 2933.825
805.6122, 2937.814
807.5407, 2936.740
809.4692, 2936.970
811.3976, 2941.189
813.3261, 2951.086
815.2546, 2962.624
817.1830, 2973.588
819.1115, 2987.362
821.0400, 3006.284
822.9684, 3032.634
824.8969, 3061.013
826.8254, 3078.612
828.7538, 3097.785
830.6823, 3131.578
832.6108, 3180.053
834.5392, 3216.927
836.4677, 3235.472
838.3962, 3248.957
840.3246, 3264.429
842.2531, 3277.424
844.1816, 3278.335
846.1100, 3277.649
848.0385, 3277.236
849.9670, 3274.211
851.8954, 3257.596
853.8239, 3247.251
855.7524, 3244.325
857.6808, 3234.525
859.6093, 3213.396
861.5378, 3195.176
863.4662, 3191.827
865.3947, 3205.680
867.3232, 3224.354
869.2516, 3240.690
871.1801, 3246.903
873.1086, 3257.676
875.0370, 3275.354
876.9655, 3292.730
878.8940, 3309.601
880.8224, 3334.623
882.7509, 3374.004
884.6794, 3411.614
886.6078, 3435.787
888.5363, 3449.372
890.4648, 3464.934
892.3932, 3490.954
894.3217, 3532.954
896.2502, 3588.486
898.1786, 3644.018
900.1071, 3686.369
902.0356, 3717.739
903.9641, 3737.022
905.8925, 3747.313
907.8210, 3760.658
909.7495, 3783.953
911.6779, 3801.140
913.6064, 3798.845
915.5349, 3792.093
917.4633, 3785.480
919.3918, 3776.614
921.3203, 3755.174
923.2487, 3719.397
925.1772, 3681.105
927.1057, 3645.752
929.0341, 3611.543
930.9626, 3573.422
932.8911, 3534.310
934.8195, 3502.420
936.7480, 3471.822
938.6765, 3435.839
940.6049, 3394.389
942.5334, 3361.514
944.4619, 3349.131
946.3903, 3335.301
948.3188, 3306.200
950.2473, 3269.540
952.1757, 3241.714
954.1042, 3224.408
956.0327, 3209.729
957.9611, 3194.508
959.8896, 3175.396
961.8181, 3147.423
963.7465, 3131.627
965.6750, 3123.169
967.6035, 3107.207
969.5319, 3088.194
971.4604, 3076.313
973.3889, 3071.642
975.3173, 3058.935
977.2458, 3047.765
979.1743, 3044.739
981.1027, 3050.927
983.0312, 3052.801
984.9597, 3047.912
986.8881, 3038.030
988.8166, 3036.137
990.7451, 3053.354
992.6735, 3070.909
994.6020, 3073.506
996.5305, 3064.807
998.4589, 3056.573
1000.387, 3047.418
1002.316, 3041.452
1004.244, 3042.714
1006.173, 3053.074
1008.101, 3064.960
1010.030, 3077.619
1011.958, 3092.879
1013.887, 3115.599
1015.815, 3136.322
1017.744, 3152.897
1019.672, 3171.875
1021.601, 3191.303
1023.529, 3203.460
1025.458, 3213.653
1027.386, 3237.671
1029.314, 3274.209
1031.243, 3309.656
1033.171, 3341.942
1035.100, 3383.646
1037.028, 3438.480
1038.957, 3500.759
1040.885, 3567.550
1042.814, 3641.889
1044.742, 3721.348
1046.671, 3805.042
1048.599, 3878.900
1050.528, 3952.886
1052.456, 4033.122
1054.385, 4121.788
1056.313, 4220.258
1058.241, 4317.874
1060.170, 4415.479
1062.098, 4518.838
1064.027, 4633.457
1065.955, 4752.814
1067.884, 4889.303
1069.812, 5050.212
1071.741, 5235.502
1073.669, 5439.103
1075.598, 5651.659
1077.526, 5896.477
1079.454, 6180.165
1081.383, 6498.404
1083.311, 6843.667
1085.240, 7229.880
1087.168, 7604.376
1089.097, 8023.874
1091.025, 8364.239
1092.954, 8561.083
1094.882, 8612.493
1096.811, 8531.772
1098.739, 8277.936
1100.668, 7930.494
1102.596, 7489.002
1104.525, 6968.221
1106.453, 6454.948
1108.381, 5917.551
1110.310, 5423.822
1112.238, 4983.146
1114.167, 4600.479
1116.095, 4273.499
1118.024, 4002.966
1119.952, 3780.512
1121.881, 3620.030
1123.809, 3496.205
1125.738, 3392.086
1127.666, 3307.627
1129.595, 3241.229
1131.523, 3204.883
1133.452, 3173.296
1135.380, 3139.198
1137.308, 3103.100
1139.237, 3073.504
1141.165, 3059.210
1143.094, 3046.715
1145.022, 3031.887
1146.951, 3014.630
1148.879, 3004.613
1150.808, 3005.287
1152.736, 3005.826
1154.665, 3003.727
1156.593, 2995.850
1158.522, 2979.460
1160.450, 2963.503
1162.379, 2959.026
1164.307, 2971.150
1166.235, 2979.789
1168.164, 2981.845
1170.092, 2980.713
1172.021, 2978.951
1173.949, 2978.506
1175.878, 2974.459
1177.806, 2962.263
1179.735, 2954.220
1181.663, 2961.582
1183.592, 2975.973
1185.520, 2984.744
1187.449, 2987.127
1189.377, 2991.380
1191.306, 3001.889
1193.234, 3009.385
1195.162, 3009.148
1197.091, 3001.299
1199.019, 2995.015
1200.948, 2992.055
1202.876, 2992.460
1204.805, 2996.049
1206.733, 2999.288
1208.662, 3003.241
1210.590, 3010.635
1212.519, 3015.679
1214.447, 3014.253
1216.376, 3009.958
1218.304, 3007.090
1220.233, 3006.520
1222.161, 3013.634
1224.089, 3035.018
1226.018, 3052.731
1227.946, 3054.196
1229.875, 3045.798
1231.803, 3039.924
1233.732, 3041.556
1235.660, 3046.905
1237.589, 3051.425
1239.517, 3051.142
1241.446, 3054.383
1243.374, 3069.576
1245.303, 3080.835
1247.231, 3083.923
1249.160, 3083.177
1251.088, 3082.873
1253.016, 3083.914
1254.945, 3082.310
1256.873, 3076.639
1258.802, 3076.466
1260.730, 3086.408
1262.659, 3100.360
1264.587, 3111.894
1266.516, 3119.270
1268.444, 3123.926
1270.373, 3133.480
1272.301, 3140.511
1274.230, 3132.940
1276.158, 3113.282
1278.087, 3114.755
1280.015, 3148.012
1281.943, 3171.330
1283.872, 3171.461
1285.800, 3160.082
1287.729, 3152.176
1289.657, 3153.219
1291.586, 3157.146
1293.514, 3164.362
1295.443, 3175.064
1297.371, 3186.642
1299.300, 3195.701
1301.228, 3203.560
1303.157, 3217.559
1305.085, 3224.925
1307.014, 3213.214
1308.942, 3201.660
1310.870, 3207.886
1312.799, 3228.181
1314.727, 3249.159
1316.656, 3277.625
1318.584, 3304.145
1320.513, 3321.499
1322.441, 3335.658
1324.370, 3352.663
1326.298, 3367.413
1328.227, 3377.585
1330.155, 3387.473
1332.084, 3400.811
1334.012, 3421.808
1335.941, 3452.107
1337.869, 3486.152
1339.797, 3524.018
1341.726, 3539.479
1343.654, 3527.695
1345.583, 3523.638
1347.511, 3547.369
1349.440, 3592.948
1351.368, 3626.550
1353.297, 3652.622
1355.225, 3682.283
1357.154, 3702.976
1359.082, 3714.938
1361.011, 3733.948
1362.939, 3765.050
1364.868, 3796.440
1366.796, 3821.665
1368.724, 3846.636
1370.653, 3877.480
1372.581, 3901.505
1374.510, 3906.509
1376.438, 3894.330
1378.367, 3888.911
1380.295, 3895.059
1382.224, 3882.385
1384.152, 3842.714
1386.081, 3793.947
1388.009, 3772.505
1389.938, 3791.804
1391.866, 3787.235
1393.795, 3739.127
1395.723, 3690.708
1397.651, 3669.647
1399.580, 3676.771
1401.508, 3687.209
1403.437, 3704.306
1405.365, 3708.344
1407.294, 3695.606
1409.222, 3685.612
1411.151, 3686.438
1413.079, 3694.775
1415.008, 3699.885
1416.936, 3700.665
1418.865, 3703.381
1420.793, 3716.372
1422.722, 3729.751
1424.650, 3723.478
1426.578, 3700.568
1428.507, 3697.760
1430.435, 3729.983
1432.364, 3759.746
1434.292, 3762.989
1436.221, 3758.568
1438.149, 3771.929
1440.078, 3800.643
1442.006, 3817.273
1443.935, 3810.718
1445.863, 3811.910
1447.792, 3836.613
1449.720, 3867.215
1451.649, 3889.343
1453.577, 3902.551
1455.505, 3909.456
1457.434, 3893.683
1459.362, 3899.064
1461.291, 3953.425
1463.219, 4020.969
1465.148, 4064.648
1467.076, 4082.838
1469.005, 4095.211
1470.933, 4091.442
1472.862, 4093.986
1474.790, 4121.159
1476.719, 4151.292
1478.647, 4153.925
1480.576, 4125.881
1482.504, 4108.252
1484.432, 4110.169
1486.361, 4109.395
1488.289, 4096.572
1490.218, 4083.955
1492.146, 4082.743
1494.075, 4092.420
1496.003, 4104.323
1497.932, 4117.621
1499.860, 4134.636
1501.789, 4153.688
1503.717, 4178.512
1505.646, 4213.360
1507.574, 4256.711
1509.503, 4301.835
1511.431, 4347.373
1513.359, 4397.746
1515.288, 4453.168
1517.216, 4514.294
1519.145, 4582.557
1521.073, 4657.397
1523.002, 4737.130
1524.930, 4822.707
1526.859, 4909.276
1528.787, 4989.861
1530.716, 5077.200
1532.644, 5180.269
1534.573, 5296.214
1536.501, 5425.344
1538.430, 5574.561
1540.358, 5686.586
1542.286, 5747.053
1544.215, 5775.958
1546.143, 5777.633
1548.072, 5754.441
1550.000, 5711.005
1551.929, 5647.626
1553.857, 5570.208
1555.786, 5466.197
1557.714, 5367.444
1559.643, 5279.333
1561.571, 5204.429
1563.500, 5150.133
1565.428, 5118.986
1567.357, 5083.646
1569.285, 5049.282
1571.214, 4999.520
1573.142, 4922.118
1575.070, 4839.097
1576.999, 4766.435
1578.927, 4699.864
1580.856, 4622.489
1582.784, 4528.560
1584.713, 4437.945
1586.641, 4345.093
1588.570, 4263.016
1590.498, 4200.805
1592.427, 4152.011
1594.355, 4105.267
1596.284, 4061.205
1598.212, 4020.993
1600.141, 3975.836
1602.069, 3945.072
1603.997, 3943.954
1605.926, 3952.295
1607.854, 3949.126
1609.783, 3934.160
1611.711, 3920.159
1613.640, 3904.127
1615.568, 3895.573
1617.497, 3908.149
1619.425, 3914.155
1621.354, 3885.502
1623.282, 3839.252
1625.211, 3823.262
1627.139, 3851.020
1629.068, 3869.168
1630.996, 3872.526
1632.924, 3875.085
1634.853, 3883.959
1636.781, 3891.538
1638.710, 3887.519
1640.638, 3871.889
1642.567, 3860.972
1644.495, 3850.860
1646.424, 3851.627
1648.352, 3876.993
1650.281, 3900.742
1652.209, 3906.660
1654.138, 3899.122
1656.066, 3887.684
1657.995, 3866.916
1659.923, 3862.995
1661.851, 3895.950
1663.780, 3919.404
1665.708, 3909.305
1667.637, 3893.298
1669.565, 3897.916
1671.494, 3921.332
1673.422, 3950.127
1675.351, 3997.438
1677.279, 4020.913
1679.208, 3998.590
1681.136, 3973.482
1683.065, 3958.481
1684.993, 3955.897
1686.922, 3975.078
1688.850, 4019.196
1690.778, 4045.657
1692.707, 4045.029
1694.635, 4041.426
1696.564, 4036.235
1698.492, 4030.768
1700.421, 4025.581
1702.349, 4020.835
1704.278, 4017.210
1706.206, 4015.427
1708.135, 4011.961
1710.063, 3995.302
1711.992, 3992.948
1713.920, 4027.310
1715.849, 4063.889
1717.777, 4068.550
1719.705, 4050.629
1721.634, 4049.592
1723.562, 4077.365
1725.491, 4093.657
1727.419, 4089.457
1729.348, 4085.768
1731.276, 4093.768
1733.205, 4101.139
1735.133, 4090.792
1737.062, 4066.853
1738.990, 4058.779
1740.919, 4080.490
1742.847, 4091.996
1744.776, 4083.943
1746.704, 4077.837
1748.632, 4088.304
1750.561, 4098.783
1752.489, 4088.005
1754.418, 4058.434
1756.346, 4036.850
1758.275, 4022.129
1760.203, 4018.188
1762.132, 4037.523
1764.060, 4051.767
1765.989, 4048.519
1767.917, 4037.527
1769.846, 4027.231
1771.774, 4018.020
1773.703, 4013.930
1775.631, 4016.252
1777.559, 4020.058
1779.488, 4028.665
1781.416, 4033.442
1783.345, 4026.075
1785.273, 4018.028
1787.202, 4021.226
1789.130, 4034.142
1791.059, 4047.484
1792.987, 4061.662
1794.916, 4074.670
1796.844, 4092.512
1798.773, 4098.309
1800.701, 4068.976
1802.630, 4039.816
1804.558, 4043.988
1806.486, 4070.413
1808.415, 4086.396
1810.343, 4090.743
1812.272, 4091.419
1814.200, 4088.186
1816.129, 4084.170
1818.057, 4074.079
1819.986, 4070.264
1821.914, 4089.865
1823.843, 4118.930
1825.771, 4129.133
1827.700, 4120.835
1829.628, 4118.217
1831.557, 4125.511
1833.485, 4132.709
1835.413, 4134.278
1837.342, 4138.304
1839.270, 4152.825
1841.199, 4170.250
1843.127, 4182.059
1845.056, 4187.699
1846.984, 4179.148
1848.913, 4144.039
1850.841, 4129.968
1852.770, 4160.388
1854.698, 4188.712
1856.627, 4197.810
1858.555, 4198.515
1860.484, 4199.043
1862.412, 4199.687
1864.340, 4201.603
1866.269, 4205.298
1868.197, 4208.440
1870.126, 4206.979
1872.054, 4211.009
1873.983, 4225.406
1875.911, 4241.793
1877.840, 4262.195
1879.768, 4277.899
1881.697, 4270.141
1883.625, 4239.392
1885.554, 4227.284
1887.482, 4237.363
1889.411, 4253.422
1891.339, 4277.851
1893.267, 4300.220
1895.196, 4321.152
1897.124, 4334.173
1899.053, 4329.808
1900.981, 4315.640
1902.910, 4307.302
1904.838, 4304.797
1906.767, 4304.612
1908.695, 4307.396
1910.624, 4308.588
1912.552, 4300.222
1914.481, 4300.157
1916.409, 4327.902
1918.338, 4359.069
1920.266, 4364.562
1922.194, 4353.327
1924.123, 4357.110
1926.051, 4379.421
1927.980, 4390.672
1929.908, 4380.375
1931.837, 4374.540
1933.765, 4379.467
1935.694, 4386.340
1937.622, 4389.509
1939.551, 4393.522
1941.479, 4408.898
1943.408, 4430.450
1945.336, 4429.297
1947.265, 4394.592
1949.193, 4386.556
1951.121, 4424.656
1953.050, 4452.995
1954.978, 4453.082
1956.907, 4449.903
1958.835, 4453.358
1960.764, 4460.345
1962.692, 4471.742
1964.621, 4483.498
1966.549, 4479.632
1968.478, 4459.532
1970.406, 4450.148
1972.335, 4455.058
1974.263, 4468.722
1976.192, 4504.839
1978.120, 4528.557
1980.048, 4504.956
1981.977, 4477.753
1983.905, 4498.507
1985.834, 4547.461
1987.762, 4568.633
1989.691, 4557.738
1991.619, 4559.822
1993.548, 4594.231
1995.476, 4609.563
1997.405, 4591.123
1999.333, 4571.814
2001.262, 4552.866
2003.190, 4545.565
2005.119, 4573.286
2007.047, 4610.625
2008.975, 4601.306
2010.904, 4553.929
2012.832, 4551.708
2014.761, 4605.359
2016.689, 4632.556
2018.618, 4609.262
2020.546, 4592.266
2022.475, 4600.824
2024.403, 4618.766
2026.332, 4650.083
2028.260, 4675.635
2030.189, 4664.176
2032.117, 4631.715
2034.046, 4627.590
2035.974, 4654.819
2037.902, 4680.155
2039.831, 4707.097
2041.759, 4726.285
2043.688, 4739.025
2045.616, 4741.800
2047.545, 4721.382
2049.473, 4704.348
2051.402, 4711.129
2053.330, 4728.909
2055.259, 4740.514
2057.187, 4747.761
2059.116, 4762.981
2061.044, 4786.641
2062.972, 4781.563
2064.901, 4729.980
2066.829, 4708.404
2068.758, 4755.014
2070.686, 4798.045
2072.615, 4806.541
2074.543, 4803.829
2076.472, 4805.496
2078.400, 4806.672
2080.329, 4797.866
2082.257, 4781.825
2084.186, 4772.672
2086.114, 4771.339
2088.042, 4771.727
2089.971, 4767.905
2091.899, 4780.911
2093.828, 4831.766
2095.756, 4868.586
2097.685, 4864.931
2099.613, 4854.083
2101.542, 4854.617
2103.470, 4860.239
2105.399, 4869.286
2107.327, 4876.526
2109.256, 4859.078
2111.184, 4817.992
2113.113, 4815.921
2115.041, 4873.767
2116.969, 4912.972
2118.898, 4917.441
2120.826, 4916.920
2122.755, 4911.786
2124.683, 4909.783
2126.612, 4917.335
2128.540, 4926.906
2130.469, 4929.853
2132.397, 4930.996
2134.326, 4942.908
2136.254, 4961.871
2138.183, 4965.938
2140.111, 4954.011
2142.040, 4951.595
2143.968, 4963.604
2145.896, 4976.327
2147.825, 4984.061
2149.753, 4996.635
2151.682, 5027.645
2153.610, 5051.522
2155.539, 5046.663
2157.467, 5033.200
2159.396, 5031.451
2161.324, 5037.637
2163.253, 5043.283
2165.181, 5048.645
2167.110, 5058.615
2169.038, 5074.126
2170.967, 5077.536
2172.895, 5061.356
2174.823, 5058.986
2176.752, 5087.440
2178.680, 5110.845
2180.609, 5115.654
2182.537, 5112.742
2184.466, 5096.477
2186.394, 5086.334
2188.323, 5115.734
2190.251, 5157.125
2192.180, 5150.537
2194.108, 5105.536
2196.037, 5088.875
2197.965, 5101.751
2199.894, 5117.279
2201.822, 5135.805
2203.750, 5146.372
2205.679, 5144.497
2207.607, 5141.983
2209.536, 5141.575
2211.464, 5142.424
2213.393, 5138.895
2215.321, 5142.463
2217.250, 5169.546
2219.178, 5201.746
2221.107, 5212.162
2223.035, 5210.977
2224.964, 5231.782
2226.892, 5270.276
2228.821, 5262.952
2230.749, 5206.864
2232.677, 5172.663
2234.606, 5166.165
2236.534, 5184.000
2238.463, 5242.761
2240.391, 5285.841
2242.320, 5289.482
2244.248, 5284.207
2246.177, 5278.440
2248.105, 5272.680
2250.034, 5269.692
2251.962, 5264.760
2253.891, 5246.627
2255.819, 5225.203
2257.748, 5224.992
2259.676, 5240.707
2261.604, 5247.458
2263.533, 5245.542
2265.461, 5254.381
2267.390, 5277.062
2269.318, 5300.637
2271.247, 5333.127
2273.175, 5347.790
2275.104, 5329.515
2277.032, 5310.246
2278.961, 5288.782
2280.889, 5280.800
2282.818, 5303.624
2284.746, 5332.030
2286.675, 5354.822
2288.603, 5366.502
2290.531, 5349.675
2292.460, 5321.924
2294.388, 5321.936
2296.317, 5344.197
2298.245, 5358.388
2300.174, 5364.262
2302.102, 5363.278
2304.031, 5349.366
2305.959, 5348.594
2307.888, 5364.694
2309.816, 5386.416
2311.745, 5419.829
2313.673, 5439.386
2315.602, 5432.090
2317.530, 5417.921
2319.458, 5392.616
2321.387, 5379.987
2323.315, 5407.624
2325.244, 5443.286
2327.172, 5451.816
2329.101, 5450.412
2331.029, 5471.294
2332.958, 5502.387
2334.886, 5503.404
2336.815, 5482.123
2338.743, 5483.297
2340.672, 5506.410
2342.600, 5508.070
2344.529, 5479.686
2346.457, 5464.050
2348.385, 5478.802
2350.314, 5479.648
2352.242, 5443.642
2354.171, 5427.050
2356.099, 5452.808
2358.028, 5474.698
2359.956, 5471.683
2361.885, 5470.697
2363.813, 5496.584
2365.742, 5518.144
2367.670, 5507.142
2369.599, 5484.356
2371.527, 5462.919
2373.456, 5451.604
2375.384, 5474.705
2377.313, 5517.801
2379.241, 5533.798
2381.169, 5528.561
2383.098, 5541.785
2385.026, 5571.520
2386.955, 5583.952
2388.883, 5575.807
2390.812, 5566.017
2392.740, 5552.163
2394.669, 5547.796
2396.597, 5561.373
2398.526, 5571.302
2400.454, 5572.568
2402.383, 5577.125
2404.311, 5596.734
2406.240, 5602.593
2408.168, 5564.121
2410.096, 5536.523
2412.025, 5555.304
2413.953, 5590.440
2415.882, 5641.660
2417.810, 5676.772
2419.739, 5638.770
2421.667, 5584.141
2423.596, 5605.389
2425.524, 5662.166
2427.453, 5665.461
2429.381, 5635.693
2431.310, 5630.072
2433.238, 5646.126
2435.167, 5665.912
2437.095, 5690.433
2439.023, 5685.389
2440.952, 5639.661
2442.880, 5619.970
2444.809, 5630.644
2446.737, 5645.825
2448.666, 5662.935
2450.594, 5686.409
2452.523, 5727.743
2454.451, 5746.500
2456.380, 5708.282
2458.308, 5686.569
2460.237, 5708.420
2462.165, 5734.644
2464.094, 5762.829
2466.022, 5777.866
2467.950, 5772.052
2469.879, 5752.783
2471.807, 5705.226
2473.736, 5668.549
2475.664, 5680.931
2477.593, 5713.066
2479.521, 5743.822
2481.450, 5767.671
2483.378, 5778.193
2485.307, 5775.856
2487.235, 5747.753
2489.164, 5713.435
2491.092, 5727.480
2493.021, 5772.924
2494.949, 5787.191
2496.877, 5774.572
2498.806, 5769.236
2500.734, 5771.061
2502.663, 5791.003
2504.591, 5829.505
2506.520, 5848.618
2508.448, 5845.204
2510.377, 5853.162
2512.305, 5883.616
2514.234, 5886.889
2516.162, 5823.013
2518.091, 5801.022
2520.019, 5847.567
2521.948, 5874.243
2523.876, 5865.681
2525.804, 5849.366
2527.733, 5820.993
2529.661, 5811.965
2531.590, 5851.705
2533.518, 5882.376
2535.447, 5880.691
2537.375, 5874.201
2539.304, 5868.388
2541.232, 5867.186
2543.161, 5873.852
2545.089, 5883.155
2547.018, 5892.637
2548.946, 5902.861
2550.875, 5913.747
2552.803, 5926.026
2554.731, 5945.721
2556.660, 5961.442
2558.588, 5952.138
2560.517, 5942.146
2562.445, 5978.308
2564.374, 6011.860
2566.302, 5957.924
2568.231, 5879.253
2570.159, 5881.371
2572.088, 5929.438
2574.016, 5960.758
2575.945, 5979.238
2577.873, 5990.885
2579.802, 5999.108
2581.730, 6018.591
2583.658, 6041.743
2585.587, 6038.299
2587.515, 6012.939
2589.444, 5990.949
2591.372, 5972.688
2593.301, 5961.171
2595.229, 5956.901
2597.158, 5966.005
2599.086, 5987.683
2601.015, 6010.588
2602.943, 6035.382
2604.872, 6040.906
2606.800, 6021.120
2608.729, 6020.001
2610.657, 6038.900
2612.585, 6057.063
2614.514, 6073.469
2616.442, 6084.134
2618.371, 6088.118
2620.299, 6088.283
2622.228, 6079.474
2624.156, 6081.738
2626.085, 6098.153
2628.013, 6114.243
2629.942, 6131.010
2631.870, 6132.411
2633.799, 6110.086
2635.727, 6091.662
2637.656, 6073.157
2639.584, 6075.626
2641.512, 6109.160
2643.441, 6138.805
2645.369, 6162.318
2647.298, 6170.991
2649.226, 6153.864
2651.155, 6145.527
2653.083, 6165.044
2655.012, 6172.726
2656.940, 6145.568
2658.869, 6147.903
2660.797, 6211.569
2662.726, 6245.701
2664.654, 6206.081
2666.583, 6177.634
2668.511, 6197.488
2670.439, 6208.762
2672.368, 6185.449
2674.296, 6178.389
2676.225, 6208.870
2678.153, 6230.298
2680.082, 6221.224
2682.010, 6214.071
2683.939, 6215.440
2685.867, 6226.499
2687.796, 6255.099
2689.724, 6282.254
2691.653, 6314.186
2693.581, 6319.252
2695.510, 6260.083
2697.438, 6220.467
2699.366, 6245.658
2701.295, 6268.114
2703.223, 6265.386
2705.152, 6260.090
2707.080, 6251.075
2709.009, 6255.795
2710.937, 6298.273
2712.866, 6325.059
2714.794, 6293.323
2716.723, 6284.939
2718.651, 6354.009
2720.580, 6390.499
2722.508, 6344.573
2724.437, 6308.145
2726.365, 6329.286
2728.293, 6341.458
2730.222, 6309.498
2732.150, 6292.716
2734.079, 6309.515
2736.007, 6333.638
2737.936, 6367.770
2739.864, 6384.761
2741.793, 6357.942
2743.721, 6342.738
2745.650, 6368.360
2747.578, 6376.224
2749.507, 6335.205
2751.435, 6335.820
2753.364, 6430.885
2755.292, 6489.627
2757.220, 6457.243
2759.149, 6417.333
2761.077, 6367.517
2763.006, 6345.859
2764.934, 6363.167
2766.863, 6391.642
2768.791, 6437.155
2770.720, 6459.161
2772.648, 6433.238
2774.577, 6414.466
2776.505, 6404.119
2778.434, 6410.400
2780.362, 6439.999
2782.291, 6454.318
2784.219, 6436.409
2786.147, 6437.899
2788.076, 6471.416
2790.004, 6494.541
2791.933, 6505.287
2793.861, 6506.333
2795.790, 6495.820
2797.718, 6498.018
2799.647, 6521.898
2801.575, 6523.002
2803.504, 6496.113
2805.432, 6508.445
2807.361, 6560.392
2809.289, 6569.690
2811.218, 6529.675
2813.146, 6518.570
2815.074, 6536.890
2817.003, 6552.414
2818.931, 6566.430
2820.860, 6598.861
2822.788, 6640.739
2824.717, 6630.567
2826.645, 6584.125
2828.574, 6586.702
2830.502, 6623.376
2832.431, 6635.809
2834.359, 6631.366
2836.288, 6626.530
2838.216, 6621.326
2840.145, 6608.449
2842.073, 6599.913
2844.001, 6629.988
2845.930, 6671.157
2847.858, 6676.280
2849.787, 6672.245
2851.715, 6695.437
2853.644, 6724.667
2855.572, 6738.758
2857.501, 6743.143
2859.429, 6736.839
2861.358, 6731.078
2863.286, 6726.003
2865.215, 6736.169
2867.143, 6792.900
2869.072, 6837.446
2871.000, 6833.674
2872.928, 6818.436
2874.857, 6801.585
2876.785, 6789.041
2878.714, 6781.386
2880.642, 6781.512
2882.571, 6788.319
2884.499, 6807.965
2886.428, 6849.644
2888.356, 6881.000
2890.285, 6900.122
2892.213, 6892.397
2894.142, 6845.097
2896.070, 6816.645
2897.999, 6812.707
2899.927, 6825.452
2901.855, 6858.581
2903.784, 6880.796
2905.712, 6889.230
2907.641, 6909.612
2909.569, 6940.141
2911.498, 6957.219
2913.426, 6961.665
2915.355, 6964.528
2917.283, 6968.101
2919.212, 6991.221
2921.140, 7020.563
2923.069, 7009.171
2924.997, 6983.051
2926.926, 6993.298
2928.854, 7015.602
2930.782, 7007.110
2932.711, 6996.118
2934.639, 7024.700
2936.568, 7051.556
2938.496, 7038.127
2940.425, 7014.167
2942.353, 6989.337
2944.282, 6978.062
2946.210, 6990.958
2948.139, 7009.792
2950.067, 7035.976
2951.996, 7050.076
2953.924, 7034.582
2955.853, 7033.985
2957.781, 7065.168
2959.709, 7064.903
2961.638, 7006.519
2963.566, 6967.143
2965.495, 6947.534
2967.423, 6979.891
2969.352, 7063.182
2971.280, 7070.320
2973.209, 7001.872
2975.137, 7000.544
2977.066, 7050.221
2978.994, 7049.479
2980.923, 7018.387
2982.851, 7007.958
2984.780, 7011.096
2986.708, 7020.591
2988.636, 7030.762
2990.565, 7033.586
2992.493, 7033.335
2994.422, 7029.273
2996.350, 7030.147
2998.279, 7045.331
3000.207, 7063.002
3002.136, 7092.010
3004.064, 7090.825
3005.993, 7016.793
3007.921, 6978.831
3009.850, 7030.073
3011.778, 7078.453
3013.707, 7121.222
3015.635, 7135.248
3017.563, 7115.317
3019.492, 7100.247
3021.420, 7092.561
3023.349, 7074.078
3025.277, 7049.282
3027.206, 7047.715
3029.134, 7065.053
3031.063, 7096.721
3032.991, 7128.201
3034.920, 7114.863
3036.848, 7101.533
3038.777, 7163.466
3040.705, 7220.308
3042.634, 7189.456
3044.562, 7148.347
3046.490, 7128.563
3048.419, 7138.331
3050.347, 7214.376
3052.276, 7246.124
3054.204, 7145.021
3056.133, 7120.194
3058.061, 7208.962
3059.990, 7229.060
3061.918, 7151.853
3063.847, 7136.964
3065.775, 7188.924
3067.704, 7256.116
3069.632, 7324.199
3071.561, 7310.926
3073.489, 7264.684
3075.417, 7297.457
3077.346, 7355.741
3079.274, 7366.452
3081.203, 7356.559
3083.131, 7340.799
3085.060, 7325.138
3086.988, 7307.274
3088.917, 7301.349
3090.845, 7313.748
3092.774, 7332.731
3094.702, 7368.079
3096.631, 7370.931
3098.559, 7327.064
3100.488, 7307.159
3102.416, 7313.382
3104.344, 7327.636
3106.273, 7346.858
3108.201, 7360.673
3110.130, 7367.254
3112.058, 7346.707
3113.987, 7329.943
3115.915, 7364.426
3117.844, 7418.699
3119.772, 7485.645
3121.701, 7525.194
3123.629, 7505.583
3125.558, 7476.407
3127.486, 7440.700
3129.415, 7436.081
3131.343, 7480.285
3133.271, 7479.040
3135.200, 7411.882
3137.128, 7411.769
3139.057, 7480.706
3140.985, 7516.681
3142.914, 7525.568
3144.842, 7517.404
3146.771, 7507.117
3148.699, 7531.107
3150.628, 7554.222
3152.556, 7530.671
3154.485, 7505.629
3156.413, 7500.665
3158.342, 7512.916
3160.270, 7545.244
3162.198, 7587.084
3164.127, 7640.980
3166.055, 7682.585
3167.984, 7711.232
3169.912, 7702.342
3171.841, 7663.436
3173.769, 7661.500
3175.698, 7683.932
3177.626, 7696.346
3179.555, 7704.036
3181.483, 7710.744
3183.412, 7722.762
3185.340, 7750.179
3187.269, 7776.372
3189.197, 7790.353
3191.125, 7806.589
3193.054, 7830.816
3194.982, 7843.755
3196.911, 7832.251
3198.839, 7851.731
3200.768, 7899.087
3202.696, 7923.250
3204.625, 7930.296
3206.553, 7937.665
3208.482, 7951.366
3210.410, 7992.600
3212.339, 8030.570
3214.267, 8035.050
3216.196, 8035.551
3218.124, 8040.780
3220.052, 8059.687
3221.981, 8099.315
3223.909, 8127.044
3225.838, 8132.194
3227.766, 8154.515
3229.695, 8190.895
3231.623, 8204.633
3233.552, 8211.897
3235.480, 8268.357
3237.409, 8329.917
3239.337, 8324.810
3241.266, 8314.179
3243.194, 8334.535
3245.123, 8367.104
3247.051, 8413.856
3248.979, 8446.633
3250.908, 8457.563
3252.836, 8482.063
3254.765, 8523.090
3256.693, 8577.428
3258.622, 8639.391
3260.550, 8690.384
3262.479, 8732.685
3264.407, 8756.777
3266.336, 8791.224
3268.264, 8853.296
3270.193, 8939.986
3272.121, 9083.822
3274.050, 9176.072
3275.978, 9184.705
3277.906, 9268.266
3279.835, 9442.009
3281.763, 9536.344
3283.692, 9572.578
3285.620, 9645.473
3287.549, 9739.548
3289.477, 9838.152
3291.406, 9936.922
3293.334, 10029.08
3295.263, 10126.38
3297.191, 10244.95
3299.120, 10333.04
3301.048, 10366.28
3302.977, 10436.83
3304.905, 10539.23
3306.833, 10583.13
3308.762, 10582.22
3310.690, 10567.80
3312.619, 10546.36
3314.547, 10530.19
3316.476, 10504.40
3318.404, 10450.29
3320.333, 10404.55
3322.261, 10385.76
3324.190, 10325.63
3326.118, 10206.34
3328.047, 10079.38
3329.975, 9949.789
3331.904, 9843.354
3333.832, 9761.679
3335.760, 9738.614
3337.689, 9698.031
3339.617, 9546.227
3341.546, 9425.652
3343.474, 9445.871
3345.403, 9389.641
3347.331, 9217.611
3349.260, 9173.913
3351.188, 9255.387
3353.117, 9256.146
3355.045, 9207.423
3356.974, 9179.919
3358.902, 9146.324
3360.831, 9054.595
3362.759, 8998.385
3364.688, 9039.704
3366.616, 9046.177
3368.544, 8979.963
3370.473, 8936.859
3372.401, 8920.339
3374.330, 8928.301
3376.258, 8950.790
3378.187, 8972.262
3380.115, 8987.923
3382.044, 8992.171
3383.972, 8990.219
3385.901, 8969.863
3387.829, 8981.148
3389.758, 9039.383
3391.686, 9025.482
3393.615, 8950.813
3395.543, 8973.071
3397.471, 9038.904
3399.400, 9021.749
3401.328, 9009.107
3403.257, 9092.311
3405.185, 9161.781
3407.114, 9178.979
3409.042, 9189.754
3410.971, 9200.078
3412.899, 9207.728
3414.828, 9218.196
3416.756, 9279.643
3418.685, 9348.114
3420.613, 9347.488
3422.542, 9352.602
3424.470, 9413.146
3426.398, 9476.277
3428.327, 9539.450
3430.255, 9553.824
3432.184, 9523.243
3434.112, 9530.736
3436.041, 9572.623
3437.969, 9664.613
3439.898, 9743.080
3441.826, 9728.752
3443.755, 9723.368
3445.683, 9791.252
3447.612, 9828.863
3449.540, 9826.255
3451.469, 9867.026
3453.397, 9935.327
3455.325, 9933.468
3457.254, 9911.955
3459.182, 9925.842
3461.111, 9963.855
3463.039, 10032.75
3464.968, 10103.51
3466.896, 10178.09
3468.825, 10179.13
3470.753, 10119.52
3472.682, 10166.44
3474.610, 10265.65
3476.539, 10327.82
3478.467, 10396.58
3480.396, 10507.18
3482.324, 10617.77
3484.252, 10701.70
3486.181, 10858.26
3488.109, 11086.15
3490.038, 11307.13
3491.966, 11537.75
3493.895, 11811.76
3495.823, 12114.67
3497.752, 12428.43
3499.680, 12779.62
3501.609, 13202.98
3503.537, 13597.42
3505.466, 13971.12
3507.394, 14460.03
3509.323, 14982.13
3511.251, 15328.24
3513.179, 15658.60
3515.108, 16135.17
3517.036, 16548.08
3518.965, 16868.57
3520.893, 16988.02
3522.822, 16901.76
3524.750, 16746.05
3526.679, 16525.10
3528.607, 16251.91
3530.536, 15901.22
3532.464, 15422.09
3534.393, 14913.06
3536.321, 14392.71
3538.250, 13853.38
3540.178, 13302.61
3542.106, 12795.82
3544.035, 12347.53
3545.963, 11993.50
3547.892, 11660.55
3549.820, 11292.89
3551.749, 10962.49
3553.677, 10681.14
3555.606, 10477.86
3557.534, 10330.58
3559.463, 10123.95
3561.391, 9903.145
3563.320, 9707.595
3565.248, 9544.096
3567.177, 9419.820
3569.105, 9298.335
3571.033, 9171.589
3572.962, 9090.578
3574.890, 9035.097
3576.819, 8968.701
3578.747, 8877.505
3580.676, 8720.021
3582.604, 8602.318
3584.533, 8563.617
3586.461, 8554.763
3588.390, 8566.574
3590.318, 8541.192
3592.247, 8503.984
3594.175, 8499.562
3596.104, 8485.001
3598.032, 8426.373
3599.960, 8399.136
3601.889, 8418.604
3603.817, 8412.159
3605.746, 8379.537
3607.674, 8289.675
3609.603, 8237.265
3611.531, 8337.529
3613.460, 8402.178
3615.388, 8346.646
3617.317, 8299.892
3619.245, 8268.369
3621.174, 8290.815
3623.102, 8318.836
3625.031, 8271.720
3626.959, 8222.175
3628.887, 8194.513
3630.816, 8198.570
3632.744, 8231.427
3634.673, 8219.597
3636.601, 8183.307
3638.530, 8160.158
3640.458, 8143.160
3642.387, 8129.211
3644.315, 8119.003
3646.244, 8114.436
3648.172, 8081.706
3650.101, 8029.860
3652.029, 7977.688
3653.958, 7946.444
3655.886, 7977.385
3657.814, 7968.929
3659.743, 7874.640
3661.671, 7847.376
3663.600, 7876.772
3665.528, 7882.415
3667.457, 7867.902
3669.385, 7835.333
3671.314, 7790.295
3673.242, 7710.121
3675.171, 7709.750
3677.099, 7775.365
3679.028, 7785.572
3680.956, 7763.821
3682.885, 7732.570
3684.813, 7707.056
3686.741, 7692.161
3688.670, 7694.123
3690.598, 7710.705
3692.527, 7727.484
3694.455, 7732.648
3696.384, 7703.383
3698.312, 7660.932
3700.241, 7584.799
3702.169, 7585.294
3704.098, 7657.742
3706.026, 7689.140
3707.955, 7690.903
3709.883, 7669.161
3711.812, 7654.854
3713.740, 7671.493
3715.668, 7679.588
3717.597, 7676.090
3719.525, 7650.798
3721.454, 7619.188
3723.382, 7606.200
3725.311, 7597.076
3727.239, 7584.089
3729.168, 7577.813
3731.096, 7577.558
3733.025, 7563.456
3734.953, 7552.502
3736.882, 7589.045
3738.810, 7605.458
3740.739, 7555.916
3742.667, 7536.319
3744.595, 7548.949
3746.524, 7577.661
3748.452, 7603.999
3750.381, 7612.426
3752.309, 7589.133
3754.238, 7503.136
3756.166, 7495.584
3758.095, 7551.809
3760.023, 7567.120
3761.952, 7562.937
3763.880, 7552.907
3765.809, 7552.059
3767.737, 7569.862
3769.666, 7561.823
3771.594, 7542.357
3773.522, 7583.144
3775.451, 7615.080
3777.379, 7563.751
3779.308, 7531.590
3781.236, 7544.460
3783.165, 7545.635
3785.093, 7543.813
3787.022, 7560.531
3788.950, 7581.802
3790.879, 7603.245
3792.807, 7613.541
3794.736, 7610.550
3796.664, 7586.894
3798.593, 7559.412
3800.521, 7559.617
3802.449, 7546.166
3804.378, 7495.645
3806.306, 7498.230
3808.235, 7546.454
3810.163, 7545.169
3812.092, 7541.719
3814.020, 7608.489
3815.949, 7616.616
3817.877, 7539.144
3819.806, 7518.928
3821.734, 7538.601
3823.663, 7546.593
3825.591, 7554.806
3827.520, 7580.227
3829.448, 7578.841
3831.376, 7550.804
3833.305, 7531.178
3835.233, 7515.610
3837.162, 7483.803
3839.090, 7484.885
3841.019, 7567.979
3842.947, 7568.485
3844.876, 7514.715
3846.804, 7507.583
3848.733, 7515.397
3850.661, 7517.566
3852.590, 7518.441
3854.518, 7517.859
3856.447, 7548.646
3858.375, 7580.100
3860.303, 7551.789
3862.232, 7508.294
3864.160, 7458.130
3866.089, 7455.359
3868.017, 7482.999
3869.946, 7464.083
3871.874, 7431.303
3873.803, 7407.910
3875.731, 7367.967
3877.660, 7310.431
3879.588, 7364.970
3881.517, 7446.688
3883.445, 7444.424
3885.374, 7416.148
3887.302, 7374.913
3889.230, 7374.120
3891.159, 7391.888
3893.087, 7342.295
3895.016, 7295.365
3896.944, 7299.587
3898.873, 7301.663
3900.801, 7298.017
3902.730, 7251.884
3904.658, 7207.182
3906.587, 7231.844
3908.515, 7235.023
3910.444, 7181.848
3912.372, 7192.596
3914.301, 7226.297
3916.229, 7213.067
3918.157, 7191.072
3920.086, 7175.580
3922.014, 7183.048
3923.943, 7192.973
3925.871, 7166.682
3927.800, 7139.896
3929.728, 7111.167
3931.657, 7112.734
3933.585, 7151.630
3935.514, 7142.242
3937.442, 7104.747
3939.371, 7077.418
3941.299, 7048.544
3943.228, 7017.140
3945.156, 7035.770
3947.084, 7070.085
3949.013, 7059.636
3950.941, 7047.441
3952.870, 7045.990
3954.798, 7024.845
3956.727, 7003.307
3958.655, 6988.440
3960.584, 6953.682
3962.512, 6927.026
3964.441, 6935.189
3966.369, 6958.565
3968.298, 6955.197
3970.226, 6924.478
3972.155, 6894.239
3974.083, 6908.404
3976.011, 6947.929
3977.940, 6919.132
3979.868, 6882.717
3981.797, 6888.508
3983.725, 6884.490
3985.654, 6865.037
3987.582, 6851.361
3989.511, 6838.565
3991.439, 6846.725
3993.368, 6862.475
3995.296, 6836.393
3997.225, 6797.462
3999.153, 6771.382
4001.082, 6763.509
4003.010, 6770.068
4004.938, 6789.580
4006.867, 6798.799
4008.795, 6790.901
4010.724, 6768.926
4012.652, 6731.145
4014.581, 6685.873
4016.509, 6676.047
4018.438, 6684.650
4020.366, 6692.388
4022.295, 6683.047
4024.223, 6643.964
4026.152, 6635.645
4028.080, 6645.682
4030.009, 6646.682
4031.937, 6635.438
4033.865, 6593.535
4035.794, 6589.246
4037.722, 6613.813
4039.651, 6643.383
4041.579, 6654.475
4043.508, 6625.631
4045.436, 6600.756
4047.365, 6580.149
4049.293, 6560.160
4051.222, 6547.503
4053.150, 6536.570
4055.079, 6522.920
4057.007, 6515.239
4058.936, 6517.987
4060.864, 6514.058
4062.792, 6500.050
4064.721, 6486.165
4066.649, 6478.513
4068.578, 6488.890
4070.506, 6496.173
4072.435, 6493.524
4074.363, 6493.491
4076.292, 6489.384
4078.220, 6452.889
4080.149, 6418.383
4082.077, 6407.783
4084.006, 6400.017
4085.934, 6395.870
4087.863, 6408.234
4089.791, 6409.956
4091.719, 6365.663
4093.648, 6348.593
4095.576, 6358.214
4097.505, 6342.552
4099.433, 6327.437
4101.362, 6350.777
4103.290, 6343.272
4105.219, 6305.714
4107.147, 6304.192
4109.076, 6321.828
4111.004, 6324.577
4112.933, 6292.552
4114.861, 6243.571
4116.790, 6248.973
4118.718, 6271.009
4120.646, 6246.274
4122.575, 6226.390
4124.503, 6239.070
4126.432, 6218.735
4128.360, 6187.326
4130.289, 6203.697
4132.217, 6221.314
4134.146, 6226.186
4136.074, 6221.385
4138.002, 6207.865
4139.931, 6175.485
4141.859, 6150.292
4143.788, 6181.405
4145.716, 6181.113
4147.645, 6142.139
4149.573, 6141.493
4151.502, 6156.621
4153.430, 6176.981
4155.359, 6162.591
4157.287, 6131.610
4159.216, 6137.329
4161.144, 6127.130
4163.073, 6115.968
4165.001, 6106.962
4166.930, 6064.232
4168.858, 6054.458
4170.787, 6075.919
4172.715, 6087.712
4174.644, 6083.397
4176.572, 6067.805
4178.500, 6078.784
4180.429, 6085.946
4182.357, 6035.885
4184.286, 6010.008
4186.214, 6007.154
4188.143, 5997.679
4190.071, 6000.358
4192.000, 6005.652
4193.928, 6027.783
4195.856, 6056.355
4197.785, 6008.694
4199.713, 5974.665
4201.642, 6015.525
4203.570, 6021.380
4205.499, 5979.162
4207.427, 5950.488
4209.356, 5950.797
4211.284, 5984.663
4213.213, 5988.108
4215.141, 5960.655
4217.070, 5925.987
4218.998, 5905.973
4220.927, 5915.547
4222.855, 5928.509
4224.784, 5934.074
4226.712, 5906.051
4228.641, 5893.528
4230.569, 5927.129
4232.498, 5926.019
4234.426, 5898.783
4236.354, 5856.611
4238.283, 5833.953
4240.211, 5855.488
4242.140, 5852.447
4244.068, 5838.612
4245.997, 5848.220
4247.925, 5851.272
4249.854, 5845.211
4251.782, 5830.270
4253.710, 5810.758
4255.639, 5780.996
4257.567, 5782.394
4259.496, 5826.386
4261.424, 5825.816
4263.353, 5818.374
4265.281, 5857.285
4267.210, 5869.665
4269.138, 5849.780
4271.067, 5854.012
4272.995, 5871.663
4274.924, 5907.320
4276.852, 5904.204
4278.781, 5871.945
4280.709, 5882.223
4282.638, 5899.765
4284.566, 5907.023
4286.495, 5933.258
4288.423, 5969.330
4290.352, 5990.586
4292.280, 5997.821
4294.208, 5949.042
4296.137, 5972.595
4298.065, 5967.159
4299.994, 5960.536
4301.922, 5994.268
4303.851, 5953.637
4305.779, 5986.729
4307.708, 5990.393
4309.636, 5946.646
4311.564, 5937.452
4313.493, 5905.378
4315.421, 5917.791
4317.350, 5934.095
4319.278, 5931.473
4321.207, 5924.012
4323.135, 5916.820
4325.064, 5921.002
4326.992, 5925.635
4328.921, 5927.258
4330.849, 5918.214
4332.778, 5910.913
4334.706, 5928.076
4336.635, 5937.290
4338.563, 5934.750
4340.492, 5934.619
4342.420, 5936.247
4344.349, 5935.819
4346.277, 5960.724
4348.206, 5989.011
4350.134, 5924.130
4352.063, 5888.143
4353.991, 5939.624
4355.919, 5969.623
4357.848, 5976.063
4359.776, 5951.107
4361.705, 5943.677
4363.633, 5961.986
4365.562, 5953.723
4367.490, 5941.464
4369.418, 5935.541
4371.347, 5973.517
4373.275, 6031.690
4375.204, 6017.528
4377.132, 5987.439
4379.061, 5961.091
4380.989, 5933.099
4382.918, 5921.762
4384.846, 5968.467
4386.775, 5980.823
4388.703, 5951.993
4390.632, 5993.561
4392.560, 6035.271
4394.489, 6036.298
4396.417, 6013.065
4398.346, 5990.640
4400.274, 6036.259
4402.203, 6048.847
4404.131, 6007.490
4406.060, 5985.463
4407.988, 5996.591
4409.917, 6084.717
4411.845, 6083.841
4413.773, 6017.397
4415.702, 6013.663
4417.630, 6021.836
4419.559, 6018.470
4421.487, 6038.376
4423.416, 6063.333
4425.344, 6076.167
4427.272, 6057.083
4429.201, 6016.451
4431.129, 6042.479
4433.058, 6071.965
4434.986, 6076.458
4436.915, 6065.712
4438.843, 6054.181
4440.772, 6063.030
4442.700, 6077.172
4444.629, 6088.698
4446.557, 6065.796
4448.486, 6037.012
4450.414, 6014.255
4452.343, 6033.123
4454.271, 6059.750
4456.200, 6015.785
4458.128, 6015.288
4460.057, 6071.140
4461.985, 6081.833
4463.914, 6060.583
4465.842, 6004.435
4467.771, 5997.920
4469.699, 6017.730
4471.627, 6024.267
4473.556, 6024.048
4475.484, 6019.553
4477.413, 6005.991
4479.341, 6014.386
4481.270, 6071.780
4483.198, 6046.893
4485.126, 5999.180
4487.055, 6042.604
4488.983, 6062.140
4490.912, 6046.383
4492.840, 6053.234
4494.769, 6060.113
4496.697, 6056.024
4498.626, 6048.733
4500.554, 6046.572
4502.483, 6070.737
4504.411, 6045.301
4506.340, 5988.807
4508.268, 6005.226
4510.197, 6032.925
4512.125, 6047.868
4514.054, 6065.820
4515.982, 6078.996
4517.911, 6068.606
4519.839, 6094.645
4521.768, 6132.864
4523.696, 6097.271
4525.625, 6061.842
4527.553, 6047.348
4529.481, 6090.743
4531.410, 6119.291
4533.338, 6081.066
4535.267, 6094.041
4537.195, 6114.282
4539.124, 6033.717
4541.052, 6016.261
4542.980, 6070.872
4544.909, 6109.534
4546.837, 6107.915
4548.766, 6051.903
4550.694, 6025.833
4552.623, 6025.499
4554.551, 6050.116
4556.480, 6066.410
4558.408, 6083.122
4560.337, 6140.927
4562.265, 6169.572
4564.194, 6154.838
4566.122, 6127.760
4568.051, 6107.321
4569.979, 6103.572
4571.908, 6121.491
4573.836, 6139.119
4575.765, 6135.962
4577.693, 6090.535
4579.622, 6041.190
4581.550, 6115.807
4583.479, 6147.791
4585.407, 6097.586
4587.335, 6082.711
4589.264, 6085.784
4591.192, 6097.181
4593.121, 6137.016
4595.049, 6162.595
4596.978, 6115.847
4598.906, 6078.466
4600.834, 6066.456
4602.763, 6104.596
4604.691, 6129.287
4606.620, 6124.100
4608.548, 6070.891
4610.477, 6064.243
4612.405, 6160.185
4614.334, 6145.027
4616.262, 6099.500
4618.191, 6106.993
4620.119, 6112.708
4622.048, 6113.952
4623.976, 6119.143
4625.905, 6115.577
4627.833, 6105.096
4629.762, 6112.811
4631.690, 6128.931
4633.619, 6148.175
4635.547, 6111.967
4637.476, 6082.206
4639.404, 6105.729
4641.333, 6119.696
4643.261, 6130.364
4645.189, 6151.368
4647.118, 6176.945
4649.046, 6200.019
4650.975, 6206.356
4652.903, 6190.805
4654.832, 6161.046
4656.760, 6162.023
4658.688, 6159.793
4660.617, 6136.760
4662.545, 6135.812
4664.474, 6145.607
4666.402, 6161.582
4668.331, 6139.736
4670.259, 6111.188
4672.188, 6114.287
4674.116, 6146.734
4676.045, 6184.123
4677.973, 6154.930
4679.902, 6163.335
4681.830, 6214.479
4683.759, 6225.576
4685.687, 6219.896
4687.616, 6205.761
4689.544, 6174.232
4691.473, 6151.164
4693.401, 6160.943
4695.330, 6134.179
4697.258, 6112.541
4699.187, 6137.512
4701.115, 6137.667
4703.043, 6137.654
4704.972, 6203.020
4706.900, 6201.217
4708.829, 6159.858
4710.757, 6209.982
4712.686, 6224.236
4714.614, 6191.321
4716.542, 6192.420
4718.471, 6183.214
4720.399, 6153.802
4722.328, 6166.879
4724.256, 6194.167
4726.185, 6222.547
4728.113, 6231.887
4730.042, 6218.770
4731.970, 6179.276
4733.899, 6118.210
4735.827, 6089.004
4737.756, 6179.669
4739.684, 6244.044
4741.613, 6266.954
4743.541, 6227.001
4745.470, 6194.037
4747.398, 6180.315
4749.327, 6197.281
4751.255, 6200.163
4753.184, 6183.794
4755.112, 6150.085
4757.041, 6169.139
4758.969, 6240.356
4760.897, 6243.021
4762.826, 6238.004
4764.754, 6253.159
4766.683, 6212.675
4768.611, 6169.606
4770.540, 6151.499
4772.468, 6149.470
4774.396, 6138.520
4776.325, 6080.832
4778.253, 6106.727
4780.182, 6156.433
4782.110, 6167.459
4784.039, 6208.515
4785.967, 6241.346
4787.896, 6192.624
4789.824, 6186.622
4791.753, 6201.174
4793.681, 6179.434
4795.610, 6130.495
4797.538, 6089.182
4799.467, 6150.896
4801.395, 6164.838
4803.324, 6135.823
4805.252, 6177.850
4807.181, 6201.461
4809.109, 6192.277
4811.038, 6161.180
4812.966, 6144.735
4814.895, 6151.147
4816.823, 6173.383
4818.751, 6169.384
4820.680, 6137.969
4822.608, 6190.864
4824.537, 6225.805
4826.465, 6199.449
4828.394, 6152.879
4830.322, 6137.742
4832.250, 6172.347
4834.179, 6153.314
4836.107, 6127.901
4838.036, 6127.446
4839.964, 6117.999
4841.893, 6125.142
4843.821, 6164.335
4845.750, 6129.941
4847.678, 6090.146
4849.607, 6102.045
4851.535, 6150.100
4853.464, 6182.631
4855.392, 6157.999
4857.321, 6143.087
4859.249, 6132.879
4861.178, 6122.051
4863.106, 6073.861
4865.035, 6050.204
4866.963, 6116.835
4868.892, 6150.791
4870.820, 6160.383
4872.749, 6160.733
4874.677, 6183.944
4876.605, 6187.007
4878.534, 6107.765
4880.462, 6094.382
4882.391, 6122.425
4884.319, 6161.499
4886.248, 6136.140
4888.176, 6096.126
4890.104, 6095.964
4892.033, 6172.565
4893.961, 6232.118
4895.890, 6146.232
4897.818, 6102.225
4899.747, 6087.771
4901.675, 6068.964
4903.604, 6043.034
4905.532, 6040.730
4907.461, 6109.890
4909.389, 6095.728
4911.318, 6056.175
4913.246, 6090.781
4915.175, 6072.252
4917.103, 6051.734
4919.032, 6100.447
4920.960, 6087.869
4922.889, 6057.875
4924.817, 6077.476
4926.746, 6046.502
4928.674, 6018.644
4930.603, 6055.912
4932.531, 6089.848
4934.459, 6098.198
4936.388, 6060.512
4938.316, 6058.700
4940.245, 6067.935
4942.173, 6063.729
4944.102, 6037.555
4946.030, 6038.313
4947.958, 6102.463
4949.887, 6029.178
4951.815, 5974.521
4953.744, 6073.025
4955.672, 6002.454
4957.601, 5935.010
4959.529, 5966.845
4961.458, 5992.123
4963.386, 6022.973
4965.315, 6064.921
4967.243, 6066.598
4969.172, 6058.107
4971.100, 6053.037
4973.029, 6018.888
4974.957, 6030.826
4976.886, 6091.912
4978.814, 6056.511
4980.743, 6025.431
4982.671, 6029.535
4984.600, 6067.950
4986.528, 6063.587
4988.457, 6016.593
4990.385, 5997.632
4992.313, 5984.057
4994.242, 5975.033
4996.170, 5986.594
4998.099, 5981.592
5000.027, 5970.522
5001.956, 5991.824
5003.884, 5990.723
5005.813, 5973.785
5007.741, 5956.817
5009.669, 5965.215
5011.598, 5978.598
5013.526, 5967.901
5015.455, 5983.163
5017.383, 5993.589
5019.312, 5969.920
5021.240, 5949.764
5023.169, 5950.000
5025.097, 5986.233
5027.026, 5965.661
5028.954, 5971.008
5030.883, 6027.903
5032.811, 5950.140
5034.740, 5886.065
5036.668, 5884.199
5038.597, 5901.147
5040.525, 5936.792
5042.454, 5975.938
5044.382, 5960.512
5046.311, 5929.792
5048.239, 5903.536
5050.167, 5908.446
5052.096, 5924.470
5054.024, 5937.373
5055.953, 5934.474
5057.881, 5892.612
5059.810, 5853.594
5061.738, 5859.292
5063.667, 5873.564
5065.595, 5885.607
5067.523, 5890.112
5069.452, 5881.778
5071.380, 5889.511
5073.309, 5921.766
5075.237, 5886.510
5077.166, 5874.629
5079.094, 5899.406
5081.023, 5921.558
5082.951, 5889.711
5084.880, 5834.873
5086.808, 5866.015
5088.737, 5863.145
5090.665, 5843.007
5092.594, 5849.951
5094.522, 5869.768
5096.451, 5876.026
5098.379, 5843.515
5100.308, 5833.157
5102.236, 5823.346
5104.165, 5801.766
5106.093, 5777.345
5108.021, 5819.559
5109.950, 5909.305
5111.878, 5871.132
5113.807, 5798.479
5115.735, 5744.165
5117.664, 5805.022
5119.592, 5793.793
5121.521, 5754.391
5123.449, 5771.073
5125.377, 5819.544
5127.306, 5844.027
5129.234, 5804.161
5131.163, 5742.323
5133.091, 5734.898
5135.020, 5795.999
5136.948, 5696.104
5138.877, 5669.535
5140.805, 5731.327
5142.734, 5764.669
5144.662, 5746.681
5146.591, 5724.296
5148.519, 5789.555
5150.448, 5779.087
5152.376, 5748.729
5154.305, 5748.959
5156.233, 5776.491
5158.162, 5767.060
5160.090, 5711.936
5162.019, 5748.597
5163.947, 5765.914
5165.875, 5751.059
5167.804, 5749.737
5169.732, 5760.713
5171.661, 5761.579
5173.589, 5722.739
5175.518, 5713.256
5177.446, 5718.332
5179.375, 5724.269
5181.303, 5721.453
5183.231, 5700.051
5185.160, 5667.071
5187.088, 5672.894
5189.017, 5660.878
5190.945, 5648.385
5192.874, 5692.262
5194.802, 5699.143
5196.731, 5679.358
5198.659, 5641.615
5200.588, 5641.305
5202.516, 5649.091
5204.445, 5653.467
5206.373, 5661.474
5208.302, 5675.509
5210.230, 5686.137
5212.159, 5671.772
5214.087, 5654.088
5216.016, 5642.443
5217.944, 5643.367
5219.873, 5664.024
5221.801, 5658.855
5223.729, 5620.845
5225.658, 5615.914
5227.586, 5635.297
5229.515, 5659.181
5231.443, 5649.890
5233.372, 5654.022
5235.300, 5656.358
5237.229, 5639.548
5239.157, 5672.259
5241.085, 5670.205
5243.014, 5613.764
5244.942, 5549.028
5246.871, 5543.097
5248.799, 5580.328
5250.728, 5638.006
5252.656, 5587.147
5254.585, 5548.697
5256.513, 5601.042
5258.442, 5515.049
5260.370, 5514.649
5262.299, 5598.305
5264.227, 5535.859
5266.156, 5514.920
5268.084, 5526.638
5270.013, 5538.704
5271.941, 5516.862
5273.870, 5497.027
5275.798, 5499.878
5277.727, 5566.384
5279.655, 5571.676
5281.583, 5535.167
5283.512, 5530.012
5285.440, 5555.200
5287.369, 5555.466
5289.297, 5491.728
5291.226, 5513.437
5293.154, 5524.499
5295.083, 5510.407
5297.011, 5512.003
5298.939, 5508.142
5300.868, 5505.271
5302.796, 5512.925
5304.725, 5474.837
5306.653, 5481.782
5308.582, 5537.580
5310.510, 5485.278
5312.439, 5499.167
5314.367, 5513.601
5316.296, 5419.049
5318.224, 5383.875
5320.153, 5387.993
5322.081, 5411.397
5324.010, 5439.950
5325.938, 5457.865
5327.867, 5460.492
5329.795, 5444.980
5331.724, 5405.935
5333.652, 5408.060
5335.581, 5463.052
5337.509, 5453.644
5339.438, 5405.358
5341.366, 5363.026
5343.294, 5395.116
5345.223, 5385.986
5347.151, 5365.154
5349.080, 5352.300
5351.008, 5358.011
5352.937, 5352.995
5354.865, 5338.192
5356.793, 5323.142
5358.722, 5323.940
5360.650, 5342.731
5362.579, 5372.777
5364.507, 5368.619
5366.436, 5351.606
5368.364, 5343.684
5370.293, 5373.995
5372.221, 5366.223
5374.150, 5344.055
5376.078, 5322.118
5378.007, 5290.604
5379.935, 5335.639
5381.864, 5377.739
5383.792, 5304.969
5385.721, 5277.579
5387.649, 5246.447
5389.578, 5211.765
5391.506, 5288.341
5393.435, 5261.964
5395.363, 5215.300
5397.292, 5245.875
5399.220, 5234.936
5401.148, 5233.683
5403.077, 5255.195
5405.005, 5295.718
5406.934, 5299.079
5408.862, 5283.981
5410.791, 5265.104
5412.719, 5210.435
5414.647, 5175.168
5416.576, 5154.198
5418.504, 5116.193
5420.433, 5166.913
5422.361, 5207.108
5424.290, 5197.202
5426.218, 5203.662
5428.147, 5171.436
5430.075, 5124.854
5432.004, 5089.640
5433.932, 5153.734
5435.861, 5163.716
5437.789, 5123.113
5439.718, 5157.052
5441.646, 5162.116
5443.575, 5142.576
5445.503, 5114.659
5447.432, 5109.163
5449.360, 5135.707
5451.289, 5139.943
5453.217, 5029.300
5455.146, 5061.633
5457.074, 5088.514
5459.002, 5073.789
5460.931, 5078.788
5462.859, 5070.497
5464.788, 5065.633
5466.716, 5073.354
5468.645, 5062.403
5470.573, 5049.068
5472.501, 5038.007
5474.430, 5028.358
5476.358, 5055.551
5478.287, 5061.684
5480.215, 5047.457
5482.144, 5079.421
5484.072, 5061.578
5486.001, 5021.978
5487.929, 4991.377
5489.858, 5027.133
5491.786, 5006.119
5493.715, 4970.633
5495.643, 4981.501
5497.572, 4964.875
5499.500, 4978.505
5501.429, 5004.335
5503.357, 4957.372
5505.286, 5004.104
5507.214, 5006.449
5509.143, 4934.163
5511.071, 4904.784
5513.000, 4922.889
5514.928, 4922.630
5516.856, 4872.294
5518.785, 4868.677
5520.713, 4910.445
5522.642, 4944.182
5524.570, 4916.681
5526.499, 4799.046
5528.427, 4812.934
5530.355, 4916.907
5532.284, 4911.997
5534.212, 4888.397
5536.141, 4884.260
5538.069, 4896.818
5539.998, 4881.871
5541.926, 4841.609
5543.855, 4837.002
5545.783, 4874.963
5547.712, 4792.804
5549.640, 4753.375
5551.569, 4752.023
5553.497, 4762.882
5555.426, 4791.560
5557.354, 4799.865
5559.283, 4800.524
5561.211, 4819.954
5563.140, 4784.244
5565.068, 4736.122
5566.997, 4716.557
5568.925, 4768.388
5570.854, 4795.532
5572.782, 4736.955
5574.710, 4646.770
5576.639, 4712.482
5578.567, 4743.468
5580.496, 4713.010
5582.424, 4648.375
5584.353, 4669.012
5586.281, 4717.661
5588.209, 4739.689
5590.138, 4718.307
5592.066, 4706.085
5593.995, 4707.486
5595.923, 4695.460
5597.852, 4662.646
5599.780, 4698.104
5601.709, 4686.444
5603.637, 4650.151
5605.566, 4627.538
5607.494, 4647.428
5609.423, 4660.933
5611.351, 4648.576
5613.280, 4600.456
5615.208, 4583.729
5617.137, 4622.674
5619.065, 4660.285
5620.994, 4626.634
5622.922, 4616.678
5624.851, 4610.281
5626.779, 4585.727
5628.708, 4527.882
5630.636, 4545.551
5632.564, 4564.735
5634.493, 4554.065
5636.421, 4502.446
5638.350, 4536.380
5640.278, 4569.908
5642.207, 4573.397
5644.135, 4541.644
5646.063, 4514.029
5647.992, 4529.734
5649.920, 4547.021
5651.849, 4478.512
5653.777, 4448.607
5655.706, 4461.479
5657.634, 4486.991
5659.563, 4482.581
5661.491, 4434.881
5663.420, 4437.590
5665.348, 4467.440
5667.277, 4445.514
5669.205, 4460.934
5671.134, 4468.169
5673.062, 4452.663
5674.991, 4411.175
5676.919, 4419.771
5678.848, 4438.432
5680.776, 4447.331
5682.705, 4435.689
5684.633, 4455.280
5686.562, 4427.582
5688.490, 4384.638
5690.418, 4390.407
5692.347, 4370.351
5694.275, 4349.549
5696.204, 4326.884
5698.132, 4298.415
5700.061, 4331.917
5701.989, 4349.245
5703.917, 4341.874
5705.846, 4319.396
5707.774, 4272.443
5709.703, 4275.156
5711.631, 4300.664
5713.560, 4314.157
5715.488, 4301.639
5717.417, 4274.061
5719.345, 4265.258
5721.274, 4283.848
5723.202, 4256.986
5725.131, 4286.341
5727.059, 4301.243
5728.988, 4275.297
5730.916, 4283.371
5732.845, 4239.013
5734.773, 4209.214
5736.702, 4232.031
5738.630, 4315.916
5740.559, 4232.315
5742.487, 4203.379
5744.416, 4242.999
5746.344, 4222.135
5748.272, 4176.787
5750.201, 4177.230
5752.129, 4190.754
5754.058, 4147.878
5755.986, 4216.673
5757.915, 4176.569
5759.843, 4113.096
5761.771, 4137.996
5763.700, 4183.106
5765.628, 4132.216
5767.557, 4103.827
5769.485, 4150.358
5771.414, 4138.389
5773.342, 4105.966
5775.271, 4105.104
5777.199, 4135.891
5779.128, 4154.378
5781.056, 4127.115
5782.985, 4074.202
5784.913, 4039.840
5786.842, 4065.705
5788.770, 4098.529
5790.699, 4124.984
5792.627, 4090.332
5794.556, 3973.328
5796.484, 3986.194
5798.413, 4034.139
5800.341, 4056.885
5802.270, 4042.726
5804.198, 4028.494
5806.126, 4080.685
5808.055, 4099.067
5809.983, 4066.957
5811.912, 4024.601
5813.840, 4015.992
5815.769, 3993.634
5817.697, 3964.169
5819.625, 3953.530
5821.554, 4029.449
5823.482, 3952.766
5825.411, 3923.407
5827.339, 4004.746
5829.268, 3964.054
5831.196, 3944.149
5833.125, 3954.139
5835.053, 3946.482
5836.982, 3867.620
5838.910, 3953.600
5840.839, 3979.163
5842.767, 3953.040
5844.696, 3928.178
5846.624, 3905.689
5848.553, 3900.927
5850.481, 3897.657
5852.410, 3893.450
5854.338, 3906.845
5856.267, 3886.476
5858.195, 3884.362
5860.124, 3873.201
5862.052, 3817.347
5863.980, 3821.019
5865.909, 3841.734
5867.837, 3829.967
5869.766, 3792.527
5871.694, 3798.948
5873.623, 3855.089
5875.551, 3840.990
5877.479, 3799.118
5879.408, 3809.102
5881.336, 3804.670
5883.265, 3776.078
5885.193, 3764.216
5887.122, 3779.765
5889.050, 3787.317
5890.979, 3820.599
5892.907, 3785.108
5894.836, 3738.427
5896.764, 3758.973
5898.693, 3757.792
5900.621, 3784.845
5902.550, 3753.643
5904.478, 3678.818
5906.407, 3711.073
5908.335, 3712.168
5910.264, 3706.373
5912.192, 3716.334
5914.121, 3741.989
5916.049, 3678.209
5917.978, 3689.882
5919.906, 3671.497
5921.834, 3614.444
5923.763, 3600.044
5925.691, 3639.016
5927.620, 3657.091
5929.548, 3671.069
5931.477, 3691.486
5933.405, 3664.520
5935.333, 3662.180
5937.262, 3656.583
5939.190, 3636.891
5941.119, 3607.075
5943.047, 3607.823
5944.976, 3607.750
5946.904, 3583.704
5948.833, 3571.825
5950.761, 3647.559
5952.690, 3642.232
5954.618, 3615.046
5956.547, 3603.302
5958.475, 3603.369
5960.404, 3555.401
5962.332, 3509.903
5964.261, 3527.999
5966.189, 3543.958
5968.118, 3497.536
5970.046, 3514.987
5971.975, 3476.927
5973.903, 3520.323
5975.832, 3576.925
5977.760, 3486.585
5979.688, 3508.433
5981.617, 3505.303
5983.545, 3499.269
5985.474, 3502.242
5987.402, 3485.505
5989.331, 3510.159
5991.259, 3488.741
5993.188, 3454.556
5995.116, 3442.707
5997.044, 3445.325
5998.973, 3455.841
6000.901, 3453.620
6002.830, 3461.063
6004.758, 3478.385
6006.687, 3384.049
6008.615, 3396.726
6010.544, 3420.998
6012.472, 3431.090
6014.401, 3440.008
6016.329, 3435.365
6018.258, 3402.772
6020.186, 3382.932
6022.115, 3381.027
6024.043, 3382.127
6025.972, 3381.488
6027.900, 3373.603
6029.829, 3370.321
6031.757, 3353.143
6033.686, 3296.905
6035.614, 3348.365
6037.542, 3382.548
6039.471, 3352.265
6041.399, 3307.855
6043.328, 3340.115
6045.256, 3325.381
6047.185, 3304.190
6049.113, 3298.226
6051.042, 3311.251
6052.970, 3338.372
6054.898, 3319.961
6056.827, 3299.997
6058.755, 3281.181
6060.684, 3279.885
6062.612, 3322.836
6064.541, 3300.424
6066.469, 3272.318
6068.398, 3242.504
6070.326, 3219.702
6072.255, 3219.258
6074.183, 3236.285
6076.112, 3215.474
6078.040, 3224.704
6079.969, 3239.960
6081.897, 3198.754
6083.826, 3239.870
6085.754, 3193.052
6087.683, 3192.736
6089.611, 3212.667
6091.540, 3174.322
6093.468, 3231.526
6095.396, 3171.413
6097.325, 3171.258
6099.253, 3190.469
6101.182, 3148.195
6103.110, 3147.493
6105.039, 3124.572
6106.967, 3126.594
6108.896, 3142.545
6110.824, 3151.812
6112.752, 3155.913
6114.681, 3148.576
6116.609, 3140.199
6118.538, 3119.375
6120.466, 3084.799
6122.395, 3041.932
6124.323, 3125.628
6126.252, 3102.373
6128.180, 3087.931
6130.109, 3111.154
6132.037, 3098.517
6133.966, 3082.260
6135.894, 3124.136
6137.823, 3097.080
6139.751, 3046.570
6141.680, 3056.903
6143.608, 3049.881
6145.537, 3047.808
6147.465, 2981.384
6149.394, 2957.346
6151.322, 3018.558
6153.250, 3050.558
6155.179, 2974.891
6157.107, 2983.318
6159.036, 3008.361
6160.964, 2997.069
6162.893, 2959.664
6164.821, 2966.836
6166.750, 2974.268
6168.678, 2980.786
6170.606, 2981.237
6172.535, 2972.566
6174.463, 2965.871
6176.392, 2941.257
6178.320, 2956.233
6180.249, 2970.933
6182.177, 2955.070
6184.106, 2917.958
6186.034, 2913.367
6187.963, 2896.172
6189.891, 2908.859
6191.820, 2911.159
6193.748, 2869.653
6195.677, 2865.332
6197.605, 2910.872
6199.534, 2883.241
6201.462, 2848.881
6203.391, 2840.536
6205.319, 2826.655
6207.248, 2902.543
6209.176, 2866.347
6211.104, 2862.960
6213.033, 2846.248
6214.961, 2780.422
6216.890, 2814.465
6218.818, 2785.744
6220.747, 2799.327
6222.675, 2801.604
6224.604, 2779.625
6226.532, 2768.774
6228.460, 2774.938
6230.389, 2831.822
6232.317, 2833.757
6234.246, 2767.977
6236.174, 2709.661
6238.103, 2755.395
6240.031, 2761.302
6241.960, 2767.640
6243.888, 2765.175
6245.817, 2728.968
6247.745, 2682.166
6249.674, 2727.302
6251.602, 2712.139
6253.531, 2735.440
6255.459, 2765.418
6257.388, 2745.848
6259.316, 2672.028
6261.245, 2667.984
6263.173, 2688.491
6265.102, 2653.969
6267.030, 2674.087
6268.958, 2723.983
6270.887, 2703.276
6272.815, 2699.310
6274.744, 2623.429
6276.672, 2626.761
6278.601, 2653.802
6280.529, 2677.501
6282.458, 2719.942
6284.386, 2662.380
6286.314, 2625.959
6288.243, 2613.056
6290.171, 2634.430
6292.100, 2642.572
6294.028, 2590.840
6295.957, 2661.627
6297.885, 2636.197
6299.814, 2573.307
6301.742, 2548.633
6303.671, 2562.376
6305.599, 2567.588
6307.528, 2572.743
6309.456, 2582.025
6311.385, 2556.639
6313.313, 2525.227
6315.242, 2527.285
6317.170, 2575.135
6319.099, 2608.719
6321.027, 2569.955
6322.956, 2545.200
6324.884, 2550.706
6326.813, 2540.166
6328.741, 2484.827
6330.669, 2518.319
6332.598, 2509.295
6334.526, 2482.256
6336.455, 2480.871
6338.383, 2492.019
6340.312, 2488.573
6342.240, 2486.190
6344.168, 2533.214
6346.097, 2481.115
6348.025, 2461.191
6349.954, 2466.323
6351.882, 2450.597
6353.811, 2448.004
6355.739, 2468.150
6357.668, 2509.461
6359.596, 2498.060
6361.525, 2438.219
6363.453, 2407.172
6365.382, 2459.109
6367.310, 2417.501
6369.239, 2464.658
6371.167, 2402.204
6373.096, 2373.803
6375.024, 2414.607
6376.953, 2436.664
6378.881, 2381.260
6380.810, 2416.507
6382.738, 2414.480
6384.667, 2384.286
6386.595, 2372.247
6388.523, 2374.818
6390.452, 2343.953
6392.380, 2370.893
6394.309, 2371.511
6396.237, 2343.076
6398.166, 2344.033
6400.094, 2356.668
6402.022, 2338.235
6403.951, 2319.590
6405.879, 2380.548
6407.808, 2371.949
6409.736, 2368.604
6411.665, 2331.479
6413.593, 2294.393
6415.522, 2350.091
6417.450, 2309.398
6419.379, 2284.716
6421.307, 2296.242
6423.236, 2344.078
6425.164, 2353.999
6427.093, 2305.469
6429.021, 2286.256
6430.950, 2332.904
6432.878, 2308.294
6434.807, 2259.176
6436.735, 2240.227
6438.664, 2254.831
6440.592, 2274.762
6442.521, 2275.535
6444.449, 2252.507
6446.377, 2231.940
6448.306, 2263.834
6450.234, 2262.161
6452.163, 2210.864
6454.091, 2181.321
6456.020, 2232.774
6457.948, 2237.302
6459.876, 2213.458
6461.805, 2255.888
6463.733, 2240.319
6465.662, 2178.032
6467.590, 2171.634
6469.519, 2183.475
6471.447, 2185.578
6473.376, 2184.161
6475.304, 2190.417
6477.233, 2174.058
6479.161, 2167.456
6481.090, 2199.526
6483.018, 2203.422
6484.947, 2187.245
6486.875, 2118.589
6488.804, 2172.145
6490.732, 2162.712
6492.661, 2092.166
6494.589, 2083.823
6496.518, 2138.752
6498.446, 2133.734
6500.375, 2114.992
6502.303, 2117.445
6504.231, 2123.942
6506.160, 2122.923
6508.088, 2113.189
6510.017, 2099.061
6511.945, 2112.228
6513.874, 2109.440
6515.802, 2121.937
6517.730, 2091.596
6519.659, 2089.310
6521.587, 2095.482
6523.516, 2042.513
6525.444, 2036.682
6527.373, 2053.178
6529.301, 2053.246
6531.230, 2091.555
6533.158, 2069.788
6535.087, 2022.736
6537.015, 2025.382
6538.944, 2058.667
6540.872, 2040.975
6542.801, 2067.948
6544.729, 2023.808
6546.658, 2004.210
6548.586, 2017.848
6550.515, 2019.702
6552.443, 1990.882
6554.372, 1969.514
6556.300, 2015.254
6558.229, 2047.475
6560.157, 2010.668
6562.085, 1989.385
6564.014, 1994.916
6565.942, 1981.682
6567.871, 1943.560
6569.799, 1975.703
6571.728, 1982.410
6573.656, 1964.028
6575.584, 1965.991
6577.513, 1936.969
6579.441, 1953.531
6581.370, 2001.056
6583.298, 1965.659
6585.227, 1935.075
6587.155, 1938.217
6589.084, 1940.044
6591.012, 1938.791
6592.941, 1939.779
6594.869, 1970.870
6596.798, 1981.011
6598.726, 1919.427
6600.655, 1910.524
6602.583, 1930.139
6604.512, 1908.922
6606.440, 1897.081
6608.369, 1911.353
6610.297, 1928.521
6612.226, 1908.264
6614.154, 1865.841
6616.083, 1917.369
6618.011, 1881.821
6619.939, 1880.227
6621.868, 1903.726
6623.796, 1887.132
6625.725, 1882.962
6627.653, 1896.328
##END=



