##NAMES=Meneghinite
##RRUFFID=R050444
##IDEAL CHEMISTRY=Pb_13_CuSb_7_S_24_
##LOCALITY=Bottino, Tucsany, Italy
##OWNER=RRUFF
##SOURCE=Peter Megaw
##DESCRIPTION=Lead-gray metallic slender prismatic and striated crystal
##STATUS=The identification of this mineral is confirmed by single-crystal X-ray diffraction and chemical analysis
##URL=https://www.rruff.net/odr/rruff_sample/R050444
##MEASURED CHEMISTRY=(Pb_12.75_Sb_0.25_)(Cu_0.73_Sb_0.13_Fe_0.01_)Sb_7.00_S_24.00_
##DIFFRACTION SAMPLE DESCRIPTION=Single crystal, powder profile is calculated
##CELL PARAMETERS=a: 11.357 b: 24.058 c: 4.1274 alpha: 90 beta: 90 gamma: 90 volume: 1127.7 crystal system: orthorhombic
##FILETYPE=Raman RAW
##RAMAN WAVELENGTH=780

83.53443, 40.00208
85.46290, 46.61353
87.39137, 54.84035
89.31983, 64.05113
91.24830, 74.25232
93.17677, 84.33204
95.10523, 86.16673
97.03370, 87.63667
98.96217, 89.02113
100.8906, 90.82861
102.8191, 92.25856
104.7476, 92.92815
106.6760, 93.17396
108.6045, 93.59532
110.5330, 94.11962
112.4614, 94.80479
114.3899, 95.64974
116.3184, 96.51765
118.2468, 97.15331
120.1753, 97.74636
122.1038, 98.86266
124.0322, 100.4756
125.9607, 101.8748
127.8892, 102.6568
129.8176, 103.4628
131.7461, 104.5316
133.6746, 105.7604
135.6030, 106.9870
137.5315, 108.2061
139.4600, 109.3759
141.3884, 110.5943
143.3169, 111.6119
145.2454, 112.4916
147.1738, 113.0378
149.1023, 112.9615
151.0308, 112.3131
152.9592, 111.2679
154.8877, 109.4315
156.8162, 107.8145
158.7446, 106.6028
160.6731, 105.7491
162.6016, 105.2823
164.5300, 105.1488
166.4585, 105.1549
168.3870, 105.1231
170.3154, 105.5593
172.2439, 106.7145
174.1724, 108.1880
176.1008, 109.6544
178.0293, 111.1962
179.9578, 113.0994
181.8862, 115.5797
183.8147, 117.9619
185.7432, 120.0916
187.6716, 122.2248
189.6001, 124.4057
191.5286, 126.7095
193.4570, 129.2831
195.3855, 132.1769
197.3140, 135.1600
199.2424, 138.9118
201.1709, 141.8392
203.0994, 143.1552
205.0278, 143.5496
206.9563, 143.9057
208.8848, 144.2973
210.8132, 143.2203
212.7417, 140.4207
214.6702, 136.6047
216.5986, 130.9911
218.5271, 125.2628
220.4556, 120.4074
222.3840, 116.3001
224.3125, 112.5569
226.2410, 109.1170
228.1694, 106.2557
230.0979, 103.8677
232.0264, 102.2260
233.9548, 101.6318
235.8833, 101.7642
237.8118, 102.4554
239.7402, 103.7530
241.6687, 104.8568
243.5972, 105.7177
245.5256, 106.5624
247.4541, 107.7474
249.3826, 108.5606
251.3110, 108.2940
253.2395, 107.3639
255.1680, 107.1311
257.0964, 107.7761
259.0249, 107.8626
260.9534, 107.1920
262.8818, 106.1211
264.8103, 104.8408
266.7388, 103.2213
268.6672, 101.0426
270.5957, 98.33537
272.5242, 95.60692
274.4526, 92.93266
276.3811, 89.86567
278.3096, 86.00658
280.2380, 82.10115
282.1665, 78.41267
284.0950, 74.93758
286.0234, 71.55058
287.9519, 68.29635
289.8804, 65.67134
291.8088, 63.66122
293.7373, 62.42772
295.6658, 62.07826
297.5942, 62.45619
299.5227, 63.56085
301.4512, 65.34921
303.3796, 67.82301
305.3081, 70.92042
307.2366, 74.29554
309.1650, 78.10416
311.0935, 81.73443
313.0220, 85.46070
314.9504, 88.54772
316.8789, 90.19042
318.8074, 90.92824
320.7358, 91.81609
322.6643, 92.84109
324.5928, 94.02341
326.5212, 95.60902
328.4497, 96.93132
330.3782, 98.04674
332.3066, 98.67805
334.2351, 99.07616
336.1636, 98.60983
338.0920, 96.30395
340.0205, 92.13036
341.9490, 86.77300
343.8774, 79.62971
345.8059, 72.20921
347.7344, 64.20442
349.6628, 56.48618
351.5913, 49.28379
353.5198, 42.90033
355.4482, 37.81004
357.3767, 34.04678
359.3052, 30.90134
361.2336, 28.47348
363.1621, 26.51026
365.0906, 25.08377
367.0190, 23.99307
368.9475, 23.30033
370.8760, 22.80849
372.8044, 22.27169
374.7329, 21.69496
376.6614, 21.27537
378.5898, 21.16261
380.5183, 20.90181
382.4468, 20.35738
384.3752, 19.85745
386.3037, 19.56329
388.2322, 19.35066
390.1606, 19.09262
392.0891, 18.82558
394.0176, 18.71914
395.9460, 18.85557
397.8745, 18.84567
399.8030, 18.61680
401.7314, 18.41112
403.6599, 18.32771
405.5884, 18.25966
407.5168, 18.11524
409.4453, 17.96026
411.3738, 17.92817
413.3022, 18.00789
415.2307, 17.94793
417.1592, 17.73135
419.0876, 17.48132
421.0161, 17.15771
422.9446, 16.93405
424.8730, 16.97173
426.8015, 17.04342
428.7300, 16.90531
430.6584, 16.66438
432.5869, 16.69777
434.5154, 16.99157
436.4438, 17.12368
438.3723, 17.03848
440.3008, 16.90525
442.2292, 16.75045
444.1577, 16.57405
446.0862, 16.36640
448.0146, 16.16923
449.9431, 15.98439
451.8716, 15.82992
453.8000, 15.82126
455.7285, 15.95890
457.6570, 15.99364
459.5854, 15.83697
461.5139, 15.71077
463.4424, 15.67258
465.3708, 15.67592
467.2993, 15.74153
469.2278, 15.81170
471.1563, 15.81048
473.0847, 15.74269
475.0132, 15.61249
476.9417, 15.41876
478.8701, 15.26502
480.7986, 15.14007
482.7271, 15.10365
484.6555, 15.36665
486.5840, 15.47357
488.5125, 14.95790
490.4409, 14.37852
492.3694, 14.46556
494.2979, 14.90773
496.2263, 15.05412
498.1548, 14.87539
500.0833, 14.67006
502.0117, 14.40761
503.9402, 14.23632
505.8687, 14.24308
507.7971, 14.22838
509.7256, 14.05951
511.6541, 13.90498
513.5825, 13.96760
515.5110, 14.10568
517.4395, 14.08316
519.3679, 13.89977
521.2964, 13.70154
523.2249, 13.45308
525.1533, 13.29189
527.0818, 13.27142
529.0103, 13.23275
530.9387, 13.10093
532.8672, 13.00744
534.7957, 13.10386
536.7241, 13.19546
538.6526, 13.05598
540.5811, 12.77614
542.5095, 12.64927
544.4380, 12.70822
546.3665, 12.62572
548.2949, 12.30122
550.2234, 12.18583
552.1519, 12.47069
554.0803, 12.63778
556.0088, 12.42975
557.9373, 12.14680
559.8657, 11.90924
561.7942, 11.72736
563.7227, 11.64434
565.6511, 11.62841
567.5796, 11.52620
569.5081, 11.31525
571.4365, 11.28957
573.3650, 11.50897
575.2935, 11.53520
577.2219, 11.20083
579.1504, 10.91224
581.0789, 10.83517
583.0073, 10.82252
584.9358, 10.85154
586.8643, 10.85325
588.7927, 10.77424
590.7212, 10.63105
592.6497, 10.40412
594.5781, 10.12631
596.5066, 10.03237
598.4351, 10.13601
600.3635, 10.09317
602.2920, 9.773853
604.2205, 9.583854
606.1489, 9.772309
608.0774, 9.902534
610.0059, 9.827363
611.9343, 9.674577
613.8628, 9.519248
615.7913, 9.354188
617.7197, 9.119832
619.6482, 8.860633
621.5767, 8.721460
623.5051, 8.691204
625.4336, 8.618421
627.3621, 8.467885
629.2905, 8.390194
631.2190, 8.463599
633.1475, 8.523117
635.0759, 8.521132
637.0044, 8.513469
638.9329, 8.594984
640.8613, 8.607520
642.7898, 8.345942
644.7183, 8.036363
646.6467, 7.944077
648.5752, 7.984212
650.5037, 8.001164
652.4321, 7.990358
654.3606, 7.932032
656.2891, 7.792092
658.2175, 7.737055
660.1460, 7.881377
662.0745, 7.938509
664.0029, 7.834185
665.9314, 7.703177
667.8599, 7.575140
669.7883, 7.465974
671.7168, 7.373663
673.6453, 7.311131
675.5737, 7.300253
677.5022, 7.301213
679.4307, 7.270590
681.3591, 7.217109
683.2876, 7.138238
685.2161, 7.023215
687.1445, 6.943284
689.0730, 6.932703
691.0015, 6.820920
692.9299, 6.549673
694.8584, 6.370862
696.7869, 6.324676
698.7153, 6.387130
700.6438, 6.661562
702.5723, 6.848847
704.5007, 6.720782
706.4292, 6.528520
708.3577, 6.416474
710.2861, 6.362150
712.2146, 6.331109
714.1431, 6.310320
716.0715, 6.311043
718.0000, 6.322449
719.9285, 6.233613
721.8569, 6.057177
723.7854, 6.111284
725.7139, 6.429602
727.6423, 6.633822
729.5708, 6.677373
731.4993, 6.556619
733.4277, 6.141342
735.3562, 5.887861
737.2847, 6.086564
739.2131, 6.261237
741.1416, 6.219719
743.0701, 6.141878
744.9985, 6.126464
746.9270, 6.133127
748.8555, 6.138922
750.7839, 6.126484
752.7124, 6.060185
754.6409, 5.980369
756.5693, 5.970401
758.4978, 6.008037
760.4263, 6.025438
762.3547, 6.024499
764.2832, 6.026161
766.2117, 6.033505
768.1401, 5.996164
770.0686, 5.859988
771.9971, 5.823749
773.9255, 6.004901
775.8540, 6.135282
777.7825, 6.185618
779.7109, 6.166210
781.6394, 6.027084
783.5679, 5.896230
785.4963, 5.836077
787.4248, 5.806697
789.3533, 5.792591
791.2817, 5.786354
793.2102, 5.763846
795.1387, 5.737686
797.0671, 5.741971
798.9956, 5.762839
800.9241, 5.786784
802.8525, 5.806748
804.7810, 5.730075
806.7095, 5.551356
808.6379, 5.515149
810.5664, 5.668175
812.4949, 5.750617
814.4233, 5.708312
816.3518, 5.709685
818.2803, 5.781428
820.2087, 5.834872
822.1372, 5.871658
824.0657, 5.890757
825.9941, 5.894886
827.9226, 5.827483
829.8511, 5.614464
831.7795, 5.473144
833.7080, 5.555601
835.6365, 5.625597
837.5649, 5.540964
839.4934, 5.427507
841.4219, 5.298180
843.3503, 5.240313
845.2788, 5.428241
847.2073, 5.639443
849.1357, 5.545585
851.0642, 5.341263
852.9927, 5.372615
854.9211, 5.522674
856.8496, 5.509379
858.7781, 5.381166
860.7065, 5.308809
862.6350, 5.293254
864.5635, 5.304571
866.4919, 5.323853
868.4204, 5.376486
870.3489, 5.484809
872.2773, 5.532014
874.2058, 5.493011
876.1343, 5.451235
878.0627, 5.413638
879.9912, 5.397674
881.9197, 5.438691
883.8481, 5.398697
885.7766, 5.187737
887.7051, 5.035792
889.6335, 4.981891
891.5620, 5.009249
893.4905, 5.245250
895.4189, 5.360855
897.3474, 5.179372
899.2759, 5.003119
901.2043, 4.908746
903.1328, 4.867988
905.0613, 4.918141
906.9897, 4.973997
908.9182, 4.990177
910.8467, 4.980557
912.7751, 4.934133
914.7036, 4.896757
916.6321, 4.916430
918.5605, 4.952634
920.4890, 4.939785
922.4175, 4.922356
924.3459, 4.986170
926.2744, 5.063583
928.2029, 5.063955
930.1313, 5.036766
932.0598, 5.080764
933.9883, 5.146963
935.9167, 5.101494
937.8452, 4.975740
939.7737, 4.878837
941.7021, 4.831037
943.6306, 4.826125
945.5591, 4.835131
947.4875, 4.839078
949.4160, 4.859902
951.3445, 4.907920
953.2729, 4.951238
955.2014, 4.900302
957.1299, 4.784814
959.0583, 4.769450
960.9868, 4.844356
962.9153, 4.866503
964.8438, 4.833559
966.7722, 4.810679
968.7007, 4.791345
970.6292, 4.811049
972.5576, 4.886923
974.4861, 4.914638
976.4146, 4.870142
978.3430, 4.881128
980.2715, 4.973769
982.2000, 4.937094
984.1284, 4.745315
986.0569, 4.711997
987.9854, 4.870568
989.9138, 4.912316
991.8423, 4.803710
993.7708, 4.617269
995.6992, 4.338897
997.6277, 4.318440
999.5562, 4.641493
1001.485, 4.796974
1003.413, 4.693909
1005.342, 4.606400
1007.270, 4.579237
1009.198, 4.497432
1011.127, 4.315031
1013.055, 4.257905
1014.984, 4.391356
1016.912, 4.487258
1018.841, 4.505624
1020.769, 4.539082
1022.698, 4.630791
1024.626, 4.611845
1026.555, 4.417207
1028.483, 4.260493
1030.412, 4.130306
1032.340, 4.123363
1034.269, 4.314670
1036.197, 4.459074
1038.125, 4.559351
1040.054, 4.583210
1041.982, 4.445935
1043.911, 4.389504
1045.839, 4.478431
1047.768, 4.546796
1049.696, 4.611930
1051.625, 4.606562
1053.553, 4.470548
1055.482, 4.401512
1057.410, 4.466115
1059.339, 4.459131
1061.267, 4.307748
1063.196, 4.207487
1065.124, 4.181454
1067.052, 4.215855
1068.981, 4.352567
1070.909, 4.400862
1072.838, 4.312383
1074.766, 4.298598
1076.695, 4.398819
1078.623, 4.406884
1080.552, 4.271981
1082.480, 4.259127
1084.409, 4.413889
1086.337, 4.516945
1088.266, 4.552168
1090.194, 4.469473
1092.123, 4.269547
1094.051, 4.210713
1095.979, 4.300637
1097.908, 4.351814
1099.836, 4.347212
1101.765, 4.309377
1103.693, 4.247355
1105.622, 4.210667
1107.550, 4.197096
1109.479, 4.136232
1111.407, 4.038254
1113.336, 4.036477
1115.264, 4.124708
1117.193, 4.206623
1119.121, 4.244203
1121.050, 4.126005
1122.978, 3.960742
1124.906, 4.059635
1126.835, 4.271293
1128.763, 4.212554
1130.692, 4.028575
1132.620, 4.024818
1134.549, 4.146276
1136.477, 4.324633
1138.406, 4.454042
1140.334, 4.387947
1142.263, 4.237066
1144.191, 4.069310
1146.120, 3.948297
1148.048, 3.976990
1149.977, 4.049932
1151.905, 4.109888
1153.833, 4.121001
1155.762, 3.985260
1157.690, 3.876453
1159.619, 3.953161
1161.547, 4.046608
1163.476, 4.069083
1165.404, 4.074029
1167.333, 4.074773
1169.261, 4.029908
1171.190, 3.892477
1173.118, 3.855698
1175.047, 4.023037
1176.975, 4.145572
1178.904, 4.164853
1180.832, 4.138162
1182.760, 4.055543
1184.689, 4.008470
1186.617, 4.019090
1188.546, 3.992455
1190.474, 3.899308
1192.403, 3.879035
1194.331, 3.956502
1196.260, 3.977647
1198.188, 3.947892
1200.117, 3.895240
1202.045, 3.813495
1203.974, 3.861217
1205.902, 3.998280
1207.831, 3.975453
1209.759, 3.879185
1211.688, 3.911302
1213.616, 4.009545
1215.544, 4.141667
1217.473, 4.222077
1219.401, 4.089654
1221.330, 3.905033
1223.258, 3.783448
1225.187, 3.754883
1227.115, 3.900987
1229.044, 4.007911
1230.972, 3.937250
1232.901, 3.904738
1234.829, 4.020844
1236.758, 4.070707
1238.686, 3.963040
1240.615, 3.919472
1242.543, 4.005815
1244.471, 4.043977
1246.400, 3.995378
1248.328, 4.004704
1250.257, 4.097601
1252.185, 4.084215
1254.114, 3.952472
1256.042, 3.842464
1257.971, 3.783111
1259.899, 3.852183
1261.828, 3.999933
1263.756, 4.090392
1265.685, 4.122967
1267.613, 4.119489
1269.542, 4.090882
1271.470, 4.016088
1273.398, 3.987247
1275.327, 4.156690
1277.255, 4.234645
1279.184, 3.945971
1281.112, 3.711380
1283.041, 3.735302
1284.969, 3.808678
1286.898, 3.926621
1288.826, 3.943184
1290.755, 3.763457
1292.683, 3.733230
1294.612, 3.945726
1296.540, 3.993523
1298.469, 3.860822
1300.397, 3.767933
1302.325, 3.720925
1304.254, 3.821114
1306.182, 3.976102
1308.111, 3.896296
1310.039, 3.759739
1311.968, 3.861334
1313.896, 3.989841
1315.825, 3.912513
1317.753, 3.831014
1319.682, 3.875242
1321.610, 3.915882
1323.539, 3.892749
1325.467, 3.935025
1327.396, 4.118113
1329.324, 4.131450
1331.252, 3.916122
1333.181, 3.795531
1335.109, 3.768903
1337.038, 3.799387
1338.966, 3.876396
1340.895, 3.803461
1342.823, 3.686771
1344.752, 3.855184
1346.680, 4.085898
1348.609, 4.009196
1350.537, 3.885235
1352.466, 3.991966
1354.394, 4.078381
1356.323, 3.961852
1358.251, 3.850244
1360.179, 3.807404
1362.108, 3.779704
1364.036, 3.786326
1365.965, 3.738601
1367.893, 3.606966
1369.822, 3.704701
1371.750, 4.009926
1373.679, 4.024113
1375.607, 3.829196
1377.536, 3.785415
1379.464, 3.802909
1381.393, 3.725506
1383.321, 3.680568
1385.250, 3.784797
1387.178, 3.854678
1389.106, 3.793466
1391.035, 3.759004
1392.963, 3.812589
1394.892, 3.854186
1396.820, 3.850601
1398.749, 3.877894
1400.677, 3.933011
1402.606, 3.853295
1404.534, 3.694891
1406.463, 3.735328
1408.391, 3.865094
1410.320, 3.858082
1412.248, 3.793118
1414.177, 3.685192
1416.105, 3.618580
1418.033, 3.741029
1419.962, 3.845142
1421.890, 3.802612
1423.819, 3.729453
1425.747, 3.644114
1427.676, 3.695347
1429.604, 3.904199
1431.533, 3.832606
1433.461, 3.580138
1435.390, 3.624739
1437.318, 3.794583
1439.247, 3.793324
1441.175, 3.737451
1443.104, 3.733538
1445.032, 3.751390
1446.960, 3.737918
1448.889, 3.716187
1450.817, 3.742395
1452.746, 3.734208
1454.674, 3.663494
1456.603, 3.595826
1458.531, 3.572881
1460.460, 3.723098
1462.388, 3.876687
1464.317, 3.720711
1466.245, 3.540642
1468.174, 3.571210
1470.102, 3.653304
1472.031, 3.807126
1473.959, 3.838184
1475.887, 3.681784
1477.816, 3.589491
1479.744, 3.553342
1481.673, 3.541542
1483.601, 3.569377
1485.530, 3.677761
1487.458, 3.752349
1489.387, 3.620500
1491.315, 3.494050
1493.244, 3.541152
1495.172, 3.605134
1497.101, 3.608460
1499.029, 3.700025
1500.958, 3.923527
1502.886, 3.857486
1504.814, 3.593180
1506.743, 3.546491
1508.671, 3.586204
1510.600, 3.577424
1512.528, 3.559610
1514.457, 3.504875
1516.385, 3.505740
1518.314, 3.616773
1520.242, 3.675913
1522.171, 3.657987
1524.099, 3.690678
1526.028, 3.765241
1527.956, 3.711256
1529.885, 3.601342
1531.813, 3.545103
1533.741, 3.511204
1535.670, 3.498784
1537.598, 3.563728
1539.527, 3.749239
1541.455, 3.786258
1543.384, 3.645918
1545.312, 3.519154
1547.241, 3.398842
1549.169, 3.404836
1551.098, 3.517552
1553.026, 3.616371
1554.955, 3.644293
1556.883, 3.572652
1558.812, 3.478637
1560.740, 3.350531
1562.668, 3.369077
1564.597, 3.516968
1566.525, 3.639179
1568.454, 3.765938
1570.382, 3.737164
1572.311, 3.619280
1574.239, 3.559812
1576.168, 3.521942
1578.096, 3.470294
1580.025, 3.449620
1581.953, 3.450982
1583.882, 3.465105
1585.810, 3.531477
1587.739, 3.586980
1589.667, 3.616467
1591.595, 3.578677
1593.524, 3.507957
1595.452, 3.472045
1597.381, 3.445828
1599.309, 3.447381
1601.238, 3.550290
1603.166, 3.703478
1605.095, 3.648047
1607.023, 3.459167
1608.952, 3.281278
1610.880, 3.235168
1612.809, 3.435488
1614.737, 3.541423
1616.666, 3.456342
1618.594, 3.455061
1620.522, 3.522236
1622.451, 3.507045
1624.379, 3.473013
1626.308, 3.365149
1628.236, 3.258438
1630.165, 3.343045
1632.093, 3.446931
1634.022, 3.508662
1635.950, 3.476676
1637.879, 3.367177
1639.807, 3.284570
1641.736, 3.182248
1643.664, 3.362590
1645.593, 3.611504
1647.521, 3.413947
1649.449, 3.277388
1651.378, 3.495750
1653.306, 3.537929
1655.235, 3.308786
1657.163, 3.160123
1659.092, 3.144222
1661.020, 3.090776
1662.949, 3.061848
1664.877, 3.194164
1666.806, 3.353129
1668.734, 3.457844
1670.663, 3.406154
1672.591, 3.261804
1674.520, 3.217316
1676.448, 3.218986
1678.376, 3.289269
1680.305, 3.335057
1682.233, 3.240968
1684.162, 3.208738
1686.090, 3.258113
1688.019, 3.292108
1689.947, 3.362599
1691.876, 3.319879
1693.804, 3.219313
1695.733, 3.178480
1697.661, 3.161316
1699.590, 3.213892
1701.518, 3.222292
1703.447, 3.133413
1705.375, 3.135367
1707.303, 3.163596
1709.232, 3.119180
1711.160, 3.094242
1713.089, 3.095828
1715.017, 3.081556
1716.946, 3.110881
1718.874, 3.100473
1720.803, 3.025833
1722.731, 3.083177
1724.660, 3.224730
1726.588, 3.232784
1728.517, 3.185306
1730.445, 3.149437
1732.374, 3.137192
1734.302, 3.216543
1736.230, 3.148392
1738.159, 3.037623
1740.087, 3.156362
1742.016, 3.220252
1743.944, 3.098958
1745.873, 3.107386
1747.801, 3.213177
1749.730, 3.239984
1751.658, 3.172055
1753.587, 3.005776
1755.515, 2.895018
1757.444, 2.914019
1759.372, 2.919412
1761.301, 2.875120
1763.229, 2.917546
1765.157, 3.063335
1767.086, 3.081812
1769.014, 3.071449
1770.943, 3.069222
1772.871, 3.035677
1774.800, 3.011268
1776.728, 3.007519
1778.657, 2.967139
1780.585, 2.943421
1782.514, 3.028096
1784.442, 3.080259
1786.371, 3.051864
1788.299, 3.106725
1790.228, 3.125721
1792.156, 3.038837
1794.084, 3.019570
1796.013, 3.002119
1797.941, 2.844274
1799.870, 2.826106
1801.798, 3.091732
1803.727, 3.085256
1805.655, 2.849231
1807.584, 2.796530
1809.512, 2.797842
1811.441, 2.842265
1813.369, 2.941190
1815.298, 2.862700
1817.226, 2.801972
1819.155, 2.888729
1821.083, 2.963258
1823.011, 2.972495
1824.940, 2.988575
1826.868, 2.981402
1828.797, 2.883255
1830.725, 2.811575
1832.654, 2.787312
1834.582, 2.828622
1836.511, 2.961083
1838.439, 2.982372
1840.368, 2.856862
1842.296, 2.682728
1844.225, 2.666801
1846.153, 2.793072
1848.082, 2.824570
1850.010, 2.794980
1851.938, 2.829727
1853.867, 2.745594
1855.795, 2.560468
1857.724, 2.658662
1859.652, 2.821139
1861.581, 2.824131
1863.509, 2.789223
1865.438, 2.714462
1867.366, 2.746593
1869.295, 2.831678
1871.223, 2.863594
1873.152, 2.907990
1875.080, 2.878710
1877.009, 2.829573
1878.937, 2.824593
1880.865, 2.845101
1882.794, 2.834672
1884.722, 2.743857
1886.651, 2.773471
1888.579, 2.773675
1890.508, 2.692127
1892.436, 2.729730
1894.365, 2.654551
1896.293, 2.525191
1898.222, 2.542103
1900.150, 2.632414
1902.079, 2.710490
1904.007, 2.754381
1905.936, 2.776424
1907.864, 2.710727
1909.792, 2.675229
1911.721, 2.680943
1913.649, 2.672399
1915.578, 2.671097
1917.506, 2.676248
1919.435, 2.617485
1921.363, 2.589527
1923.292, 2.698429
1925.220, 2.793255
1927.149, 2.792347
1929.077, 2.773975
1931.006, 2.782019
1932.934, 2.633193
1934.863, 2.551078
1936.791, 2.647115
1938.719, 2.641006
1940.648, 2.738521
1942.576, 2.864308
1944.505, 2.687660
1946.433, 2.608825
1948.362, 2.714119
1950.290, 2.610849
1952.219, 2.539222
1954.147, 2.722903
1956.076, 2.758669
1958.004, 2.715839
1959.933, 2.695135
1961.861, 2.590098
1963.790, 2.514903
1965.718, 2.505520
1967.646, 2.574414
1969.575, 2.587137
1971.503, 2.456577
1973.432, 2.486592
1975.360, 2.544153
1977.289, 2.382233
1979.217, 2.325936
1981.146, 2.353293
1983.074, 2.369950
1985.003, 2.472023
1986.931, 2.458305
1988.860, 2.399203
1990.788, 2.486576
1992.717, 2.455209
1994.645, 2.372595
1996.573, 2.422983
1998.502, 2.413502
2000.430, 2.333711
2002.359, 2.304321
2004.287, 2.318862
2006.216, 2.299473
2008.144, 2.350553
2010.073, 2.427038
2012.001, 2.521140
2013.930, 2.552838
2015.858, 2.414546
2017.787, 2.338656
2019.715, 2.432763
2021.644, 2.444816
2023.572, 2.353637
2025.500, 2.374725
2027.429, 2.334684
2029.357, 2.265842
2031.286, 2.232869
2033.214, 2.178254
2035.143, 2.245027
2037.071, 2.327598
2039.000, 2.395915
2040.928, 2.437404
2042.857, 2.371336
2044.785, 2.246992
2046.714, 2.130113
2048.642, 2.167095
2050.571, 2.313133
2052.499, 2.406751
2054.427, 2.392401
2056.356, 2.232467
2058.284, 2.079142
2060.213, 2.122136
2062.141, 2.247828
2064.070, 2.336285
2065.998, 2.387550
2067.927, 2.422086
2069.855, 2.286943
2071.784, 2.111172
2073.712, 2.100152
2075.641, 2.150403
2077.569, 2.192865
2079.498, 2.177208
2081.426, 2.191080
2083.354, 2.291377
2085.283, 2.190338
2087.211, 2.059998
2089.140, 2.086658
2091.068, 2.157810
2092.997, 2.176949
2094.925, 2.178855
2096.854, 2.148214
2098.782, 2.107728
2100.711, 2.126407
2102.639, 2.189083
2104.568, 2.253517
2106.496, 2.172508
2108.425, 1.994650
2110.353, 2.028726
2112.281, 2.146794
2114.210, 2.164355
2116.138, 2.068973
2118.067, 1.976342
2119.995, 2.024112
2121.924, 2.067615
2123.852, 2.163898
2125.781, 2.233094
2127.709, 2.056218
2129.638, 1.960962
2131.566, 2.026122
2133.495, 2.051501
2135.423, 2.117934
2137.352, 2.089023
2139.280, 1.877324
2141.208, 1.754683
2143.137, 1.863471
2145.065, 2.041682
2146.994, 2.087756
2148.922, 1.993836
2150.851, 1.910593
2152.779, 1.996855
2154.708, 2.121815
2156.636, 2.113431
2158.565, 2.102304
2160.493, 2.146877
2162.422, 2.121543
2164.350, 1.950757
2166.279, 1.842245
2168.207, 1.874769
2170.135, 1.939004
2172.064, 1.927842
2173.992, 1.949554
2175.921, 1.993828
2177.849, 1.948941
2179.778, 1.831776
2181.706, 1.764437
2183.635, 1.716359
2185.563, 1.720142
2187.492, 1.885663
2189.420, 1.922827
2191.349, 1.818651
2193.277, 1.884462
2195.206, 1.941096
2197.134, 1.809284
2199.063, 1.782044
2200.991, 1.840314
2202.919, 1.843882
2204.848, 1.777951
2206.776, 1.734923
2208.705, 1.782496
2210.633, 1.808839
2212.562, 1.663507
2214.490, 1.657816
2216.419, 1.858077
2218.347, 1.917341
2220.276, 1.881941
2222.204, 1.810787
2224.133, 1.742353
2226.061, 1.664117
2227.990, 1.737653
2229.918, 1.810651
2231.846, 1.708385
2233.775, 1.768823
2235.703, 1.798426
2237.632, 1.794703
2239.560, 1.826932
2241.489, 1.623871
2243.417, 1.656646
2245.346, 1.818735
2247.274, 1.813318
2249.203, 1.772014
2251.131, 1.756705
2253.060, 1.581863
2254.988, 1.414152
2256.917, 1.563085
2258.845, 1.805612
2260.773, 1.783808
2262.702, 1.802183
2264.630, 1.874328
2266.559, 1.841326
2268.487, 1.838349
2270.416, 1.776420
2272.344, 1.586602
2274.273, 1.592453
2276.201, 1.685510
2278.130, 1.641244
2280.058, 1.606861
2281.987, 1.501062
2283.915, 1.497398
2285.844, 1.541839
2287.772, 1.586595
2289.700, 1.659132
2291.629, 1.628384
2293.557, 1.660726
2295.486, 1.525485
2297.414, 1.422751
2299.343, 1.487924
2301.271, 1.585169
2303.200, 1.712205
2305.128, 1.711128
2307.057, 1.634518
2308.985, 1.542872
2310.914, 1.502522
2312.842, 1.621369
2314.771, 1.725699
2316.699, 1.618572
2318.627, 1.652422
2320.556, 1.804850
2322.484, 1.734492
2324.413, 1.687809
2326.341, 1.554304
2328.270, 1.401901
2330.198, 1.324711
2332.127, 1.352680
2334.055, 1.284258
2335.984, 1.294492
2337.912, 1.426849
2339.841, 1.473430
2341.769, 1.411074
2343.698, 1.450982
2345.626, 1.552813
2347.554, 1.555538
2349.483, 1.533542
2351.411, 1.432038
2353.340, 1.435562
2355.268, 1.461212
2357.197, 1.417098
2359.125, 1.441236
2361.054, 1.472121
2362.982, 1.538819
2364.911, 1.594121
2366.839, 1.592992
2368.768, 1.403379
2370.696, 1.331505
2372.625, 1.481196
2374.553, 1.597982
2376.481, 1.527785
2378.410, 1.415687
2380.338, 1.323436
2382.267, 1.241606
2384.195, 1.393796
2386.124, 1.491671
2388.052, 1.485045
2389.981, 1.454203
2391.909, 1.407183
2393.838, 1.380644
2395.766, 1.417619
2397.695, 1.413684
2399.623, 1.353882
2401.552, 1.401755
2403.480, 1.454788
2405.408, 1.463885
2407.337, 1.282160
2409.265, 0.9883870
2411.194, 1.085868
2413.122, 1.307552
2415.051, 1.385169
2416.979, 1.301964
2418.908, 1.370950
2420.836, 1.465959
2422.765, 1.281059
2424.693, 1.156098
2426.622, 1.231793
2428.550, 1.298782
2430.479, 1.395457
2432.407, 1.506112
2434.335, 1.353074
2436.264, 1.257652
2438.192, 1.305997
2440.121, 1.301071
2442.049, 1.285556
2443.978, 1.231628
2445.906, 1.142288
2447.835, 1.104387
2449.763, 1.172828
2451.692, 1.252786
2453.620, 1.329788
2455.549, 1.282877
2457.477, 1.200200
2459.406, 1.212328
2461.334, 1.282985
2463.262, 1.320878
2465.191, 1.281665
2467.119, 1.231347
2469.048, 1.185368
2470.976, 1.040193
2472.905, 1.124177
2474.833, 1.336265
2476.762, 1.383939
2478.690, 1.292799
2480.619, 1.098904
2482.547, 1.039405
2484.476, 1.203014
2486.404, 1.470894
2488.333, 1.239048
2490.261, 0.9845245
2492.189, 0.8629728
2494.118, 1.015400
2496.046, 1.199747
2497.975, 1.244326
2499.903, 1.254901
2501.832, 1.191418
2503.760, 1.083073
2505.689, 1.012732
2507.617, 1.039181
2509.546, 1.288705
2511.474, 1.420651
2513.403, 1.368923
2515.331, 1.236453
2517.260, 1.107368
2519.188, 1.016729
2521.116, 1.061544
2523.045, 1.048757
2524.973, 1.023358
2526.902, 1.126682
2528.830, 1.136808
2530.759, 1.178180
2532.687, 1.055608
2534.616, 0.8936607
2536.544, 0.8869900
2538.473, 0.9080566
2540.401, 1.001021
2542.330, 1.150271
2544.258, 1.152443
2546.187, 1.062506
2548.115, 1.005024
2550.043, 1.006592
2551.972, 1.042473
2553.900, 1.073920
2555.829, 1.057765
2557.757, 1.099369
2559.686, 1.217400
2561.614, 1.180496
2563.543, 1.110740
2565.471, 1.053643
2567.400, 1.105307
2569.328, 1.138564
2571.257, 0.9704779
2573.185, 0.9158507
2575.114, 0.9240555
2577.042, 1.017648
2578.970, 0.9609169
2580.899, 0.8699357
2582.827, 1.075118
2584.756, 0.9799168
2586.684, 0.6958199
2588.613, 0.8611470
2590.541, 1.063483
2592.470, 1.085383
2594.398, 0.9196653
2596.327, 0.9118434
2598.255, 0.9804093
2600.184, 0.9545183
2602.112, 1.010337
2604.041, 1.000434
2605.969, 0.9272992
2607.897, 0.9204417
2609.826, 0.9563876
2611.754, 0.8185719
2613.683, 0.8344018
2615.611, 0.9683030
2617.540, 0.9022389
2619.468, 0.8237265
2621.397, 0.8285856
2623.325, 1.083697
2625.254, 0.9458471
2627.182, 0.6599931
2629.111, 0.8183005
2631.039, 0.8580490
2632.968, 0.8178972
2634.896, 1.065929
2636.824, 1.014210
2638.753, 0.8296929
2640.681, 0.9056296
2642.610, 0.9340817
2644.538, 0.9025064
2646.467, 0.9686948
2648.395, 0.8666021
2650.324, 0.6921207
2652.252, 0.6738694
2654.181, 0.9035361
2656.109, 1.052564
2658.038, 0.8412597
2659.966, 0.9273602
2661.895, 0.9317344
2663.823, 0.6152258
2665.751, 0.6108173
2667.680, 0.7666287
2669.608, 1.035925
2671.537, 1.007426
2673.465, 0.9877421
2675.394, 1.036470
2677.322, 0.8076590
2679.251, 0.6322013
2681.179, 0.6133713
2683.108, 0.5806243
2685.036, 0.6903847
2686.965, 0.8540680
2688.893, 0.7110617
2690.822, 0.7084286
2692.750, 0.8833874
2694.678, 0.6953994
2696.607, 0.6485994
2698.535, 0.7046290
2700.464, 0.6448329
2702.392, 0.7225575
2704.321, 0.7756167
2706.249, 0.7788119
2708.178, 0.6695902
2710.106, 0.5569291
2712.035, 0.5878449
2713.963, 0.6738617
2715.892, 0.7717057
2717.820, 1.042687
2719.749, 0.9278989
2721.677, 0.8106763
2723.605, 0.9707595
2725.534, 0.7854679
2727.462, 0.6032823
2729.391, 0.5389858
2731.319, 0.7108229
2733.248, 0.6911145
2735.176, 0.4346232
2737.105, 0.5195262
2739.033, 0.6963794
2740.962, 0.8470266
2742.890, 0.8592953
2744.819, 0.7163156
2746.747, 0.5695712
2748.676, 0.7122394
2750.604, 0.8157965
2752.532, 0.7827266
2754.461, 0.5821515
2756.389, 0.5724109
2758.318, 0.5730417
2760.246, 0.4818533
2762.175, 0.7072271
2764.103, 0.8306637
2766.032, 0.7237774
2767.960, 0.8215759
2769.889, 0.8417689
2771.817, 0.7626721
2773.746, 0.8228486
2775.674, 0.7528110
2777.603, 0.6340528
2779.531, 0.6683394
2781.459, 0.6472881
2783.388, 0.6605595
2785.316, 0.7791264
2787.245, 0.8058353
2789.173, 0.7051910
2791.102, 0.4754266
2793.030, 0.5235038
2794.959, 0.6305730
2796.887, 0.6278939
2798.816, 0.3521768
2800.744, 0.3990761
2802.673, 0.6561184
2804.601, 0.5956294
2806.530, 0.5851920
2808.458, 0.5797242
2810.386, 0.3886786
2812.315, 0.5643539
2814.243, 0.7328957
2816.172, 0.6531422
2818.100, 0.5987769
2820.029, 0.5452449
2821.957, 0.4765593
2823.886, 0.5149664
2825.814, 0.4190840
2827.743, 0.2934338
2829.671, 0.2043090
2831.600, 0.5735217
2833.528, 0.8000896
2835.457, 0.3731532
2837.385, 0.3051836
2839.313, 0.4344503
2841.242, 0.6112127
2843.170, 0.4535125
2845.099, 0.5152203
2847.027, 0.6680092
2848.956, 0.3907608
2850.884, 0.3141464
2852.813, 0.4082804
2854.741, 0.5699262
2856.670, 0.5567793
2858.598, 0.5297067
2860.527, 0.5520515
2862.455, 0.5272170
2864.384, 0.3973648
2866.312, 0.3128681
2868.240, 0.4889683
2870.169, 0.6317530
2872.097, 0.6514903
2874.026, 0.4711150
2875.954, 0.5384254
2877.883, 0.6122895
2879.811, 0.5299302
2881.740, 0.4788535
2883.668, 0.4554882
2885.597, 0.4340166
2887.525, 0.4703594
2889.454, 0.5904375
2891.382, 0.5650914
2893.311, 0.1971192
2895.239, 0.5391313
2897.167, 0.6836958
2899.096, 0.5333827
2901.024, 0.5749334
2902.953, 0.4204416
2904.881, 0.3312994
2906.810, 0.6085480
2908.738, 0.5207247
2910.667, 0.4090615
2912.595, 0.4165201
2914.524, 0.4520271
2916.452, 0.2736453
2918.381, 0.1651223
2920.309, 0.4612837
2922.238, 0.4155963
2924.166, 0.4462384
2926.094, 0.5744580
2928.023, 0.2107752
2929.951, 0.1284276
2931.880, 0.2550360
2933.808, 0.2796646
2935.737, 0.5130520
2937.665, 0.5746460
2939.594, 0.3776479
2941.522, 0.3732334
2943.451, 0.2451322
2945.379, 0.1184955
2947.308, 0.5062023
2949.236, 0.5445589
2951.165, 0.2930328
2953.093, -3.3787329E-02
2955.021, 0.3523189
2956.950, 0.4677292
2958.878, 0.2891813
2960.807, 0.3265233
2962.735, 0.2716789
2964.664, 0.2036997
2966.592, 0.2381439
2968.521, 0.3758855
2970.449, 0.3291839
2972.378, 0.2287226
2974.306, 0.3139192
2976.235, 0.2151747
2978.163, 0.2161318
2980.092, 0.4843788
2982.020, 0.2727768
2983.948, 0.3481070
2985.877, 0.5542691
2987.805, 0.4875615
2989.734, 0.4187061
2991.662, 0.4162677
2993.591, 0.3600174
2995.519, 5.8859050E-02
2997.448, -1.9014381E-02
2999.376, 6.6995509E-02
3001.305, 0.2168126
3003.233, 0.3631738
3005.162, 0.3716360
3007.090, 0.2591125
3009.019, 0.4277800
3010.947, 0.4164435
3012.875, 0.3472572
3014.804, 0.3095812
3016.732, 0.1989830
3018.661, 0.1917587
3020.589, 0.2704028
3022.518, 0.4217234
3024.446, 0.3573647
3026.375, 0.2714575
3028.303, 0.2873459
3030.232, 0.1620587
3032.160, 0.3038768
3034.089, 0.4475797
3036.017, 0.4265147
3037.946, 0.4137074
3039.874, 0.2962573
3041.802, 0.2310244
3043.731, 0.2589602
3045.659, 0.3766461
3047.588, 0.4579515
3049.516, 0.4469638
3051.445, 0.3525697
3053.373, 0.1817363
3055.302, 0.1473937
3057.230, 0.3920402
3059.159, 0.3313381
3061.087, 0.3701907
3063.016, 0.4257375
3064.944, 0.2671176
3066.873, 0.2449742
3068.801, 0.1683917
3070.729, 6.0237151E-02
3072.658, 8.9456633E-02
3074.586, 0.1931146
3076.515, 0.2509363
3078.443, 0.2805939
3080.372, 0.2197532
3082.300, 0.2801772
3084.229, 0.3262551
3086.157, 0.2815304
3088.086, 0.3016796
3090.014, 0.2958949
3091.943, 0.2967472
3093.871, 0.5334147
3095.800, 3.3566259E-02
3097.728, -3.8025562E-02
3099.656, 0.3860975
3101.585, 0.4297902
3103.513, 0.1253244
3105.442, 5.3094543E-04
3107.370, 0.2650496
3109.299, 0.1374946
3111.227, 0.2998900
3113.156, 0.3759727
3115.084, 0.2060764
3117.013, 0.3187138
3118.941, 0.2679170
3120.870, 0.1532603
3122.798, 0.2142989
3124.727, 0.1880458
3126.655, 9.7043198E-03
3128.583, -9.7678177E-02
3130.512, 0.1197534
3132.440, 0.1764004
3134.369, 0.1985260
3136.297, 0.1658289
3138.226, 9.5197663E-02
3140.154, 0.1766214
3142.083, 0.2807256
3144.011, 0.3937489
3145.940, 0.3829045
3147.868, 0.2529917
3149.797, 0.3136866
3151.725, 0.5091353
3153.654, 0.3786956
3155.582, 0.2772193
3157.510, 0.2542256
3159.439, 0.2613092
3161.367, 0.3137444
3163.296, 0.2452631
3165.224, 0.1708563
3167.153, 0.2851062
3169.081, 4.8903421E-02
3171.010, 0.2695195
3172.938, 0.2258315
3174.867, -0.3987068
3176.795, 0.1012814
3178.724, 0.2145744
3180.652, 0.1906785
3182.581, 0.3913002
3184.509, 0.3095213
3186.438, 0.1349345
3188.366, 2.0419020E-02
3190.294, -2.3027290E-02
3192.223, -2.6970500E-02
3194.151, 0.3330074
3196.080, 0.5967810
3198.008, 0.4189448
3199.937, 0.4027932
3201.865, 0.1460865
3203.794, 7.0681557E-02
3205.722, 0.3587779
3207.651, 0.4154423
3209.579, 0.1734730
3211.508, 8.7644076E-03
3213.436, 9.4620623E-02
3215.365, 7.3148459E-03
3217.293, 0.2644545
3219.221, 0.2105343
3221.150, -0.3086114
3223.078, 0.2559690
3225.007, 0.3503187
3226.935, 0.1112736
3228.864, -4.0792990E-02
3230.792, 0.4701941
3232.721, 0.4740735
3234.649, 0.2805665
3236.578, 0.1629514
3238.506, -5.0117350E-03
3240.435, 0.2384732
3242.363, 0.1902117
3244.292, -6.8926640E-02
3246.220, 0.2802039
3248.148, 0.1150270
3250.077, 0.1343279
3252.005, 0.2477980
3253.934, 0.1753827
3255.862, -7.2300360E-02
3257.791, -0.1235508
3259.719, 4.5005180E-02
3261.648, 3.1921528E-02
3263.576, 0.3916107
3265.505, 0.4448424
3267.433, 0.2396237
3269.362, 8.1076071E-02
3271.290, 3.1489719E-02
3273.219, 0.2393946
3275.147, 0.3565956
3277.075, 0.2126473
3279.004, -0.1780987
3280.932, 0.1119768
3282.861, 0.2583627
3284.789, 0.1698374
3286.718, 0.1156677
3288.646, -2.7023410E-02
3290.575, -0.2039861
3292.503, -0.1948700
3294.432, 0.2212506
3296.360, 0.2710611
3298.289, 0.1166849
3300.217, -7.2064601E-02
3302.146, -0.1223619
3304.074, 0.3741148
3306.002, 0.2183616
3307.931, 0.1027882
3309.859, 0.1679762
3311.788, 4.6491429E-02
3313.716, 5.9899371E-02
3315.645, 6.3413613E-02
3317.573, 4.4323791E-02
3319.502, 8.4159888E-02
3321.430, 0.3902080
3323.359, 0.6336754
3325.287, 0.3590992
3327.216, -0.2185844
3329.144, 0.4520473
3331.073, 0.1975245
3333.001, -0.1280598
3334.929, -0.1106857
3336.858, 0.1031552
3338.786, 0.1939208
3340.715, 0.2396564
3342.643, 0.2435260
3344.572, 0.1951985
3346.500, -3.2179300E-03
3348.429, -0.1323885
3350.357, -0.1942182
3352.286, -0.1560053
3354.214, 2.7598931E-02
3356.143, 9.9271633E-02
3358.071, 3.0723801E-02
3360.000, -7.3466539E-02
3361.928, -2.2233250E-02
3363.856, 0.3664213
3365.785, 0.2998447
3367.713, 0.3049051
3369.642, 0.4126919
3371.570, 5.4200582E-04
3373.499, 0.1001428
3375.427, 8.3932050E-02
3377.356, -2.0744219E-02
3379.284, -0.1072104
3381.213, 0.1514714
3383.141, 5.7866398E-02
3385.070, 3.6307890E-02
3386.998, 0.1135621
3388.927, 7.8192657E-05
3390.855, 3.2479521E-02
3392.783, 0.1260798
3394.712, 0.1429379
3396.640, 5.8110230E-02
3398.569, 0.1308781
3400.497, -8.5752808E-02
3402.426, 5.5447601E-02
3404.354, 0.2915029
3406.283, 0.2118707
3408.211, -7.7090047E-02
3410.140, 8.6834617E-02
3412.068, 0.2454223
3413.997, 0.2509380
3415.925, 0.2760559
3417.854, 1.2079050E-02
3419.782, 0.2905224
3421.710, 0.4521101
3423.639, 0.1698705
3425.567, 0.2219970
3427.496, 0.3142948
3429.424, 0.1401212
3431.353, 1.3335990E-02
3433.281, 0.1711659
3435.210, -0.2807348
3437.138, 0.1244675
3439.067, 0.4302289
3440.995, 0.2130435
3442.924, -0.4199530
3444.852, 0.1148048
3446.781, 0.2782988
3448.709, 0.2664936
3450.637, 0.2495020
3452.566, 0.1082783
3454.494, 0.1698114
3456.423, 0.3651248
3458.351, 0.4521230
3460.280, 0.3527772
3462.208, 0.2251661
3464.137, 0.3978193
3466.065, 3.4155410E-03
3467.994, -0.3330050
3469.922, -0.2351234
3471.851, -0.1211557
3473.779, -6.7900263E-02
3475.708, -0.1104315
3477.636, 4.1896060E-02
3479.564, 0.2948925
3481.493, -0.1879780
3483.421, -0.1249290
3485.350, 0.1752142
3487.278, 0.2399383
3489.207, -7.3592879E-02
3491.135, -0.4452094
3493.064, -0.2022267
3494.992, -5.4677840E-02
3496.921, -5.6639131E-02
3498.849, 5.3615561E-03
3500.778, 0.4675460
3502.706, 0.3430088
3504.635, 0.1028200
3506.563, -1.7791910E-02
3508.491, 1.6948370E-02
3510.420, 0.1164677
3512.348, 0.1375279
3514.277, 0.2058509
3516.205, 0.2377529
3518.134, 0.2240426
3520.062, 0.3262464
3521.991, 9.2794612E-02
3523.919, -3.7887201E-02
3525.848, 9.5283702E-02
3527.776, 0.3265041
3529.705, 0.2950975
3531.633, 0.2034777
3533.562, -0.1665926
3535.490, -2.5178861E-02
3537.418, 0.4178508
3539.347, 0.3679290
3541.275, 0.5205671
3543.204, 0.1607300
3545.132, -0.2220360
3547.061, -0.1207212
3548.989, 0.4556485
3550.918, 0.1916887
3552.846, 8.8134453E-02
3554.775, 3.0406840E-02
3556.703, -3.3411730E-02
3558.632, -7.6766923E-02
3560.560, -2.9665090E-02
3562.489, -0.2202495
3564.417, 8.5566320E-02
3566.345, 0.2143467
3568.274, 2.3418011E-03
3570.202, 9.9308282E-02
3572.131, 0.2394417
3574.059, 3.7385531E-02
3575.988, -3.0785970E-02
3577.916, 0.2974844
3579.845, 0.7705739
3581.773, 4.2697150E-02
3583.702, 0.3712328
3585.630, 0.4518670
3587.559, 0.2599965
3589.487, 0.1573197
3591.416, 0.2260680
3593.344, 0.1031803
3595.272, -8.4166951E-02
3597.201, 5.6726269E-02
3599.129, 0.2397282
3601.058, 5.3117909E-02
3602.986, -4.5240638E-03
3604.915, 0.2402360
3606.843, 0.2030110
3608.772, 0.1327726
3610.700, 0.1564024
3612.629, -2.1363251E-02
3614.557, 0.2672757
3616.486, 0.2418094
3618.414, 0.3774751
3620.343, 0.3590215
3622.271, -8.0277517E-02
3624.199, 0.1970864
3626.128, 7.1490079E-02
3628.056, 6.3117176E-02
3629.985, 6.9581144E-02
3631.913, 7.8831203E-02
3633.842, 0.2032364
3635.770, -4.1210961E-02
3637.699, 0.1674309
3639.627, 0.4021429
3641.556, 0.4671768
3643.484, 0.3024293
3645.413, -9.6424863E-02
3647.341, -0.1604847
3649.270, -0.1631568
3651.198, 4.6360191E-02
3653.126, -5.6988820E-02
3655.055, -0.5357330
3656.983, -0.4541203
3658.912, -0.1268394
3660.840, -0.2045237
3662.769, -7.0594080E-02
3664.697, 7.4034013E-02
3666.626, 1.1204960E-02
3668.554, 0.3497355
3670.483, -7.4311927E-02
3672.411, 0.1223624
3674.340, -9.5685869E-02
3676.268, -0.3670358
3678.197, -0.1273979
3680.125, -0.1474653
3682.053, -0.5798750
3683.982, -2.1746591E-02
3685.910, 0.2213100
3687.839, -0.1244497
3689.767, -0.3877118
3691.696, 0.2096094
3693.624, -5.7700321E-02
3695.553, -0.1128179
3697.481, -0.3579932
3699.410, -0.4537148
3701.338, -0.1922683
3703.267, -0.1530854
3705.195, 1.0063650E-02
3707.124, -0.2138276
3709.052, 0.1944515
3710.980, 0.2645559
3712.909, -0.2825060
3714.837, -0.2714800
3716.766, -0.1618628
3718.694, 0.3260575
3720.623, 0.1007400
3722.551, -7.5253822E-02
3724.480, -2.8105989E-02
3726.408, -0.2755794
3728.337, -0.2340305
3730.265, 0.3841888
3732.194, -3.0730391E-02
3734.122, -0.2368755
3736.051, -0.1293432
3737.979, -0.2016537
3739.907, -9.5547907E-02
3741.836, 0.2331359
3743.764, 0.2573594
3745.693, 7.2424144E-02
3747.621, 0.1158663
3749.550, 0.4046982
3751.478, 0.4840272
3753.407, -5.5727441E-02
3755.335, -0.1685522
3757.264, -0.1352805
3759.192, 0.1507755
3761.121, 0.3171733
3763.049, 0.1160411
3764.978, 2.4587750E-02
3766.906, 8.9950681E-02
3768.834, -0.1142204
3770.763, 1.8488489E-02
3772.691, 7.8492388E-02
3774.620, -6.6432707E-02
3776.548, -4.9797751E-02
3778.477, 0.4462920
3780.405, 0.4377513
3782.334, 0.2135171
3784.262, 0.1158313
3786.191, -9.0892889E-02
3788.119, -0.2974512
3790.048, -0.1002686
3791.976, -0.1079311
3793.905, 0.1074359
3795.833, 0.2101024
3797.761, 7.6978937E-02
3799.690, 0.1342939
3801.618, 0.3538681
3803.547, 0.2485466
3805.475, 0.3045783
3807.404, 0.1586001
3809.332, 9.4642527E-02
3811.261, -3.4092660E-03
3813.189, -0.4590021
3815.118, -0.7002676
3817.046, -3.8695220E-02
3818.975, -2.8274020E-02
3820.903, 0.1306068
3822.832, -9.9287443E-02
3824.760, 8.7990873E-02
3826.688, 0.2014372
3828.617, 6.5624908E-02
3830.545, 9.3068048E-02
3832.474, 5.8986180E-02
3834.402, 6.7751586E-02
3836.331, 0.1307651
3838.259, 3.1926069E-02
3840.188, -0.3565435
3842.116, -0.4717339
3844.045, -9.2129797E-02
3845.973, -0.2122613
3847.902, -6.1461098E-02
3849.830, -6.2601537E-02
3851.759, -0.4990371
3853.687, -0.4177268
3855.615, -0.1057858
3857.544, -8.4871247E-02
3859.472, -0.1483085
3861.401, -1.7701279E-02
3863.329, -2.0734640E-02
3865.258, 0.1303067
3867.186, 0.3781913
3869.115, -0.3043822
3871.043, -0.4487357
3872.972, 0.6096298
3874.900, 0.2032548
3876.829, -9.0042017E-02
3878.757, -0.4681682
3880.686, -2.8735340E-02
3882.614, -0.1251888
3884.542, -0.1895007
3886.471, -5.2177411E-02
3888.399, -0.1719782
3890.328, -0.1716396
3892.256, -0.1174609
3894.185, -0.1036870
3896.113, 0.1037483
3898.042, 0.3615032
3899.970, 0.1176887
3901.899, -0.1301915
3903.827, 0.1298200
3905.756, -0.1251806
3907.684, -0.1303264
3909.613, 9.6713834E-02
3911.541, 8.4181689E-02
3913.469, 0.1125758
3915.398, 0.1821426
3917.326, 7.5510051E-03
3919.255, -0.2222645
3921.183, 8.0591373E-02
3923.112, -0.1711254
3925.040, -0.3843597
3926.969, -0.1249535
3928.897, 0.1370087
3930.826, 0.2942231
3932.754, -5.7417300E-02
3934.683, -0.3436428
3936.611, 0.3605624
3938.540, 0.1830575
3940.468, 7.5340673E-02
3942.396, 0.2044075
3944.325, -0.2347485
3946.253, -0.5037231
3948.182, -0.3228012
3950.110, -0.1558541
3952.039, -7.0044167E-02
3953.967, 0.3175507
3955.896, -0.3488975
3957.824, -0.2190397
3959.753, -0.1193206
3961.681, 3.2582551E-02
3963.610, -8.7523788E-02
3965.538, -0.1805288
3967.467, -0.2313126
3969.395, -0.2755094
3971.323, -0.2616061
3973.252, 5.4873992E-02
3975.180, 1.1208950E-03
3977.109, -0.1103401
3979.037, 0.1494983
3980.966, 9.1489680E-02
3982.894, 0.2432432
3984.823, 0.2922047
3986.751, 0.2041069
3988.680, 0.4750904
3990.608, 0.2869832
3992.537, -0.3254738
3994.465, -3.6771610E-02
3996.394, 6.4683437E-02
3998.322, 0.4372408
4000.250, 0.1227877
4002.179, 2.9447760E-02
4004.107, 0.3611250
4006.036, 0.4260103
4007.964, 0.1602983
4009.893, -8.6029097E-02
4011.821, -5.0349649E-02
4013.750, 0.5466592
4015.678, 1.4229200E-02
4017.607, 0.2030899
4019.535, 0.4109558
4021.464, -9.2132185E-03
4023.392, -0.2480020
4025.321, -0.2863826
4027.249, -8.7678634E-02
4029.177, 0.2678679
4031.106, 2.9781140E-02
4033.034, -0.1362448
4034.963, -0.1773171
4036.891, 9.8865367E-02
4038.820, -2.5929660E-02
4040.748, 0.3088188
4042.677, 0.4279709
4044.605, 0.1784629
4046.534, -0.3069553
4048.462, -0.6782973
4050.391, -6.3510202E-02
4052.319, 6.8564370E-02
4054.248, 0.2019684
4056.176, 0.3912041
4058.104, 0.3680713
4060.033, -0.1867495
4061.961, -0.3011768
4063.890, -1.9025600E-02
4065.818, 0.1180037
4067.747, 1.8750530E-02
4069.675, -9.4387129E-02
4071.604, -4.9310248E-02
4073.532, -0.2944403
4075.461, -0.1343126
4077.389, 0.1562136
4079.318, 0.1421569
4081.246, 0.2255467
4083.175, 0.2626165
4085.103, 0.2107056
4087.031, 2.2317680E-02
4088.960, -1.6979240E-03
4090.888, 0.4273619
4092.817, -0.1462671
4094.745, 0.1942717
4096.674, -2.9864360E-02
4098.603, 3.3452280E-02
4100.531, 0.1735033
4102.459, 0.3713303
4104.388, 0.1952665
4106.316, 0.2642187
4108.245, 0.1227098
4110.173, -0.3900699
4112.102, -0.1679540
4114.030, 0.1672050
4115.958, 0.1812649
4117.887, 8.7463208E-02
4119.815, -1.8596619E-02
4121.744, 0.1352610
4123.672, -0.3131706
4125.601, -6.7266099E-02
4127.529, -0.3036557
4129.458, -0.4655687
4131.386, -2.2137701E-04
4133.315, 0.2292845
4135.243, -2.0915410E-02
4137.172, 1.6699471E-03
4139.100, 2.5060410E-02
4141.029, -0.1857827
4142.957, -5.6647860E-02
4144.886, 3.2489982E-02
4146.814, -0.1383230
4148.743, -2.9870961E-02
4150.671, -0.2412992
4152.600, 2.8126410E-03
4154.528, 0.2381969
4156.457, 0.3186249
4158.385, 0.4873821
4160.313, 0.1481088
4162.242, 0.2879884
4164.170, 6.0795009E-02
4166.099, 0.2232800
4168.027, -5.5833779E-02
4169.956, 0.2828073
4171.884, 0.2171769
4173.813, 0.2104256
4175.741, 0.3815131
4177.669, 0.6121807
4179.598, 0.4521513
4181.526, 0.1123044
4183.455, 6.6849463E-02
4185.383, 0.1714714
4187.312, 9.6327104E-02
4189.240, -6.8003341E-05
4191.169, 0.1489653
4193.097, 0.6915429
4195.026, -3.0326800E-02
4196.954, 7.6725200E-02
4198.883, -0.2278450
4200.811, 0.5289364
4202.740, 9.9215202E-02
4204.668, 0.1767054
4206.597, 0.4728338
4208.525, -7.7762580E-03
4210.454, -9.7677954E-02
4212.382, 0.3016699
4214.311, 0.1849690
4216.239, 0.2567209
4218.167, 6.5339677E-02
4220.096, -3.7475031E-02
4222.024, 0.3027526
4223.953, -0.1890831
4225.881, 0.1158203
4227.810, -4.2156760E-02
4229.738, 4.4201352E-02
4231.667, 0.5620546
4233.595, 0.3453957
4235.523, 0.1087679
4237.452, 0.3269117
4239.380, 0.3793127
4241.309, 1.6876210E-02
4243.237, -0.2462848
4245.166, -0.1973328
4247.094, 3.4191171E-04
4249.023, 0.3012207
4250.951, 0.1429742
4252.880, -4.4055659E-02
4254.808, 0.2415597
4256.737, -0.4312872
4258.665, -0.1580618
4260.594, 0.2991346
4262.522, 4.7072060E-02
4264.451, 0.2306771
4266.379, -3.0758381E-02
4268.308, -0.1514966
4270.236, -0.2741706
4272.165, 0.1330763
4274.093, 0.3704342
4276.021, -0.3222601
4277.950, -0.6124209
4279.878, 2.7879400E-02
4281.807, 0.5432745
4283.735, 0.2832100
4285.664, -0.5187199
4287.592, 0.2871939
4289.521, 0.1624925
4291.449, 5.4697469E-02
4293.377, -0.1306545
4295.306, 8.0843158E-03
4297.234, -9.0948390E-03
4299.163, 0.1276906
4301.091, 0.2239435
4303.020, 0.3791624
4304.948, 7.1995728E-02
4306.877, 0.2287839
4308.805, -0.1934362
4310.734, -0.1430654
4312.662, 7.3242960E-03
4314.591, 0.3707131
4316.519, 0.1625983
4318.448, -0.1612433
4320.376, 0.4086245
4322.305, 0.7162164
4324.233, 0.4167237
4326.162, 0.1689844
4328.090, -0.2027988
4330.019, -0.1505831
4331.947, -0.2031451
4333.875, 0.4260533
4335.804, 0.1674197
4337.732, 0.3158846
4339.661, 0.1096598
4341.589, -0.1218879
4343.518, -0.2170833
4345.446, 0.3953551
4347.375, 0.1186870
4349.303, -0.1726451
4351.231, 4.4255398E-02
4353.160, 7.2061129E-02
4355.088, 5.7337679E-02
4357.017, 0.3444319
4358.945, 9.2389181E-02
4360.874, -0.2436404
4362.802, 0.4573601
4364.731, 0.3863272
4366.659, -9.5530502E-02
4368.588, 7.2730348E-02
4370.516, 0.4169632
4372.445, 2.5712540E-02
4374.373, -3.5228331E-02
4376.302, -2.0924579E-02
4378.230, -0.1342266
4380.159, 3.2831620E-02
4382.087, 9.1587983E-02
##END=



