##NAMES=Merlinoite
##RRUFFID=R130095
##IDEAL CHEMISTRY=K_5_Ca_2_(Si_23_Al_9_)O_64_·24H_2_O
##LOCALITY=Pollena quarry, Vesuvius, Napoli, Campania, Italy
##OWNER=RRUFF
##SOURCE=Donald Doell
##DESCRIPTION=Sprays and clusters of colorless prismatic crystals associated with calcite. Merlinoite crystals are twinned with 90 deg rotations around c-axis.
##STATUS=The identification of this mineral has been confirmed by single-crystal X-ray diffraction
##URL=https://www.rruff.net/odr/rruff_sample/R130095
##DIFFRACTION SAMPLE DESCRIPTION=Single crystal, powder profile is calculated
##CELL PARAMETERS=a: 14.2293 b: 14.233 c: 9.966 alpha: 90 beta: 90 gamma: 90 volume: 2018.2 crystal system: orthorhombic
##FILETYPE=Raman RAW
##RAMAN WAVELENGTH=532

186.6096, 80.79426
188.5381, 90.37165
190.4665, 101.1438
192.3950, 113.1079
194.3235, 126.3478
196.2519, 133.3882
198.1804, 136.9194
200.1089, 139.0582
202.0373, 142.1884
203.9658, 147.2965
205.8943, 152.3721
207.8227, 156.8340
209.7512, 161.0829
211.6797, 163.8730
213.6081, 164.4007
215.5366, 163.4509
217.4651, 162.4819
219.3935, 161.4934
221.3220, 160.5068
223.2505, 159.5203
225.1789, 158.5146
227.1074, 157.5459
229.0359, 156.6172
230.9643, 155.7213
232.8928, 154.8649
234.8213, 153.8747
236.7497, 153.0099
238.6782, 152.3974
240.6067, 152.0053
242.5351, 151.7849
244.4636, 151.7101
246.3921, 151.7505
248.3205, 151.8032
250.2490, 152.1134
252.1775, 152.1950
254.1059, 151.7308
256.0344, 150.2799
257.9629, 149.3013
259.8913, 149.2534
261.8198, 149.9685
263.7483, 150.4497
265.6767, 150.7394
267.6052, 150.7712
269.5337, 150.5082
271.4621, 149.4408
273.3906, 148.8172
275.3191, 148.9018
277.2475, 149.5106
279.1760, 150.0838
281.1045, 150.4440
283.0329, 150.8684
284.9614, 151.5298
286.8899, 152.7181
288.8183, 153.6115
290.7468, 153.9393
292.6753, 153.9129
294.6037, 153.9704
296.5322, 154.4346
298.4607, 154.7608
300.3891, 154.6673
302.3176, 154.0637
304.2461, 153.4690
306.1745, 152.9488
308.1030, 152.5039
310.0315, 152.1498
311.9599, 152.0957
313.8884, 151.9710
315.8169, 151.6258
317.7453, 151.0676
319.6738, 150.4205
321.6023, 149.5632
323.5307, 148.6368
325.4592, 147.8656
327.3877, 147.5069
329.3161, 147.0034
331.2446, 146.0962
333.1731, 144.8302
335.1015, 143.5562
337.0300, 142.3457
338.9585, 141.1673
340.8869, 139.9971
342.8154, 138.8767
344.7439, 137.7659
346.6723, 136.5429
348.6008, 135.2475
350.5292, 134.3830
352.4577, 134.3404
354.3862, 134.4925
356.3146, 134.3283
358.2431, 133.7281
360.1716, 133.2021
362.1000, 132.8112
364.0285, 132.5452
365.9570, 132.5270
367.8854, 132.8932
369.8139, 133.3482
371.7424, 133.8291
373.6708, 134.3718
375.5993, 134.6362
377.5278, 134.2457
379.4562, 133.5826
381.3847, 133.3521
383.3132, 133.8603
385.2416, 134.4874
387.1701, 135.1227
389.0986, 135.7816
391.0270, 136.4444
392.9555, 136.9020
394.8840, 137.4749
396.8124, 138.4929
398.7409, 139.9890
400.6694, 141.7701
402.5978, 143.9133
404.5263, 146.3162
406.4548, 148.7444
408.3832, 151.0097
410.3117, 153.4156
412.2402, 156.1772
414.1686, 159.3371
416.0971, 162.5668
418.0256, 165.9785
419.9540, 169.4040
421.8825, 172.5694
423.8110, 176.1606
425.7394, 178.7857
427.6679, 179.7607
429.5964, 179.2110
431.5248, 178.4216
433.4533, 177.0363
435.3818, 175.8173
437.3102, 175.2876
439.2387, 175.3817
441.1672, 176.3850
443.0956, 178.2598
445.0241, 181.1474
446.9526, 185.1011
448.8810, 189.9654
450.8095, 196.2335
452.7380, 204.1292
454.6664, 214.0064
456.5949, 224.6205
458.5234, 236.2717
460.4518, 248.5609
462.3803, 261.0998
464.3088, 274.0645
466.2372, 287.0324
468.1657, 300.4581
470.0942, 314.0155
472.0226, 326.1615
473.9511, 337.2324
475.8796, 346.6110
477.8080, 354.4218
479.7365, 360.9814
481.6650, 364.4809
483.5934, 365.7431
485.5219, 363.9207
487.4504, 357.3484
489.3788, 345.4501
491.3073, 331.5844
493.2358, 316.4895
495.1642, 300.2262
497.0927, 282.2347
499.0212, 259.8684
500.9496, 238.0785
502.8781, 218.7814
504.8066, 201.7921
506.7350, 186.9940
508.6635, 175.1128
510.5920, 165.2062
512.5204, 156.6409
514.4489, 149.9062
516.3774, 144.1650
518.3058, 139.6326
520.2343, 136.1680
522.1628, 133.1920
524.0912, 130.7659
526.0197, 128.8113
527.9482, 127.3853
529.8766, 126.6408
531.8051, 125.7035
533.7336, 124.3083
535.6620, 122.9181
537.5905, 121.8976
539.5190, 121.3240
541.4474, 120.7103
543.3759, 119.9434
545.3044, 119.0546
547.2328, 118.0937
549.1613, 116.9333
551.0898, 115.8547
553.0182, 114.9663
554.9467, 114.2352
556.8752, 113.5590
558.8036, 113.0602
560.7321, 112.5337
562.6606, 111.8967
564.5891, 111.1378
566.5175, 110.3269
568.4460, 109.2741
570.3745, 108.2838
572.3029, 107.5918
574.2314, 107.2566
576.1599, 107.1047
578.0883, 107.2073
580.0168, 107.4416
581.9453, 107.4758
583.8737, 107.1473
585.8022, 106.8725
587.7307, 106.8470
589.6591, 107.0458
591.5876, 107.2188
593.5161, 107.5687
595.4445, 107.7417
597.3729, 107.4134
599.3014, 106.5088
601.2299, 105.9299
603.1583, 106.0723
605.0868, 106.4273
607.0153, 106.5262
608.9437, 106.0528
610.8722, 105.8884
612.8007, 106.3383
614.7291, 107.1208
616.6576, 107.6448
618.5861, 107.7677
620.5145, 107.9298
622.4430, 108.3531
624.3715, 108.9879
626.2999, 109.4187
628.2284, 109.5874
630.1569, 109.5828
632.0853, 109.3112
634.0138, 108.7803
635.9423, 108.3943
637.8707, 108.3153
639.7992, 108.2938
641.7277, 108.1954
643.6561, 108.0575
645.5846, 107.7787
647.5131, 107.3846
649.4415, 106.8814
651.3700, 106.2010
653.2985, 105.2222
655.2269, 104.5686
657.1554, 104.6947
659.0839, 105.2163
661.0123, 105.4085
662.9408, 104.9107
664.8693, 104.4600
666.7977, 104.2105
668.7262, 104.0921
670.6547, 103.8875
672.5831, 103.5157
674.5116, 103.1421
676.4401, 102.7674
678.3685, 102.3688
680.2970, 102.2616
682.2255, 102.7179
684.1539, 103.1874
686.0824, 103.3055
688.0109, 103.0936
689.9393, 102.9984
691.8678, 103.3671
693.7963, 103.6701
695.7247, 103.5215
697.6532, 102.4507
699.5817, 101.8160
701.5101, 101.8414
703.4386, 102.1936
705.3671, 102.5593
707.2955, 102.9720
709.2240, 103.2735
711.1525, 103.3132
713.0809, 103.2483
715.0094, 103.3017
716.9379, 103.5942
718.8663, 103.8623
720.7948, 104.0270
722.7233, 104.1565
724.6517, 104.4078
726.5802, 104.8833
728.5087, 105.2675
730.4371, 105.4815
732.3656, 105.5283
734.2941, 105.4041
736.2225, 104.7248
738.1510, 104.2859
740.0795, 104.5282
742.0079, 105.2794
743.9364, 105.7226
745.8649, 105.5410
747.7933, 105.4171
749.7218, 105.7016
751.6503, 106.4532
753.5787, 106.9736
755.5072, 106.9986
757.4357, 107.0486
759.3641, 107.4775
761.2926, 108.2358
763.2211, 108.7320
765.1495, 108.8327
767.0780, 108.6769
769.0065, 108.3197
770.9349, 107.6930
772.8634, 107.1374
774.7919, 106.7828
776.7203, 106.4298
778.6488, 105.8817
780.5773, 105.1295
782.5057, 104.5543
784.4342, 104.2621
786.3627, 104.1254
788.2911, 104.0521
790.2196, 104.0399
792.1481, 104.0366
794.0765, 104.0855
796.0050, 104.0944
797.9335, 103.9253
799.8619, 103.5424
801.7904, 103.3408
803.7189, 103.7454
805.6473, 104.1570
807.5758, 104.0192
809.5043, 103.0309
811.4327, 102.3053
813.3612, 102.0602
815.2897, 102.0153
817.2181, 101.8813
819.1466, 101.6274
821.0751, 101.3956
823.0035, 101.1554
824.9320, 100.9930
826.8605, 101.0015
828.7889, 101.2523
830.7174, 101.5146
832.6459, 101.8143
834.5743, 102.0920
836.5028, 102.2523
838.4313, 102.2306
840.3597, 102.2795
842.2882, 102.4936
844.2167, 102.7354
846.1451, 102.9040
848.0736, 103.0077
850.0021, 102.9617
851.9305, 102.6130
853.8590, 102.2052
855.7875, 101.9789
857.7159, 102.0117
859.6444, 102.0679
861.5729, 102.2161
863.5013, 102.3441
865.4298, 102.3518
867.3583, 102.2277
869.2867, 102.0939
871.2152, 101.8575
873.1437, 101.7008
875.0721, 101.7971
877.0006, 102.3296
878.9291, 102.6864
880.8575, 102.7887
882.7860, 102.7697
884.7145, 102.6399
886.6429, 102.3844
888.5714, 102.3934
890.4999, 102.9645
892.4283, 103.6293
894.3568, 104.1271
896.2853, 104.4296
898.2137, 104.6225
900.1422, 104.7299
902.0707, 104.7139
903.9991, 104.4176
905.9276, 103.8815
907.8561, 103.6878
909.7845, 104.1651
911.7130, 104.7018
913.6415, 105.0166
915.5699, 105.1059
917.4984, 105.1455
919.4269, 104.9988
921.3553, 104.9392
923.2838, 105.0952
925.2123, 105.4388
927.1407, 105.7404
929.0692, 105.9798
930.9976, 106.1952
932.9261, 106.4790
934.8546, 106.7625
936.7830, 106.8054
938.7115, 106.4089
940.6400, 106.0779
942.5684, 105.9434
944.4969, 105.9693
946.4254, 106.0707
948.3538, 106.3160
950.2823, 106.5135
952.2108, 106.4841
954.1392, 106.4451
956.0677, 106.6967
957.9962, 107.3282
959.9246, 107.9162
961.8531, 108.3414
963.7816, 108.6786
965.7100, 108.9858
967.6385, 109.2251
969.5670, 109.4949
971.4954, 109.6797
973.4239, 109.9644
975.3524, 110.6679
977.2808, 111.7675
979.2093, 112.3983
981.1378, 111.9855
983.0662, 111.5947
984.9947, 111.8893
986.9232, 112.9232
988.8516, 113.6120
990.7801, 113.7577
992.7086, 113.7864
994.6370, 113.7497
996.5655, 113.6779
998.4940, 113.7213
1000.422, 113.8643
1002.351, 114.0869
1004.279, 114.3817
1006.208, 114.7256
1008.136, 115.1240
1010.065, 115.6600
1011.993, 116.0385
1013.922, 116.2128
1015.850, 116.2454
1017.779, 116.1714
1019.707, 115.8326
1021.636, 115.8060
1023.564, 116.4098
1025.493, 117.1034
1027.421, 117.4446
1029.349, 117.4628
1031.278, 117.5303
1033.206, 117.5981
1035.135, 117.8219
1037.063, 118.3640
1038.992, 119.1800
1040.920, 119.7236
1042.849, 119.8442
1044.777, 119.8613
1046.706, 119.6620
1048.634, 119.4325
1050.563, 119.6359
1052.491, 120.4162
1054.420, 121.1588
1056.348, 121.5995
1058.276, 122.0114
1060.205, 122.6674
1062.133, 123.6100
1064.062, 124.5549
1065.990, 125.5026
1067.919, 126.4176
1069.847, 127.2643
1071.776, 128.0372
1073.704, 128.8347
1075.633, 129.6757
1077.561, 130.4895
1079.490, 131.2207
1081.418, 131.8834
1083.347, 132.5563
1085.275, 133.2945
1087.203, 133.8964
1089.132, 134.1646
1091.060, 134.3736
1092.989, 134.8529
1094.917, 135.7824
1096.846, 136.5021
1098.774, 136.8894
1100.703, 137.1442
1102.631, 137.3637
1104.560, 137.5251
1106.488, 137.5826
1108.417, 137.4220
1110.345, 137.2499
1112.273, 137.2342
1114.202, 137.2387
1116.130, 136.9818
1118.059, 136.3778
1119.987, 135.8277
1121.916, 135.6058
1123.844, 135.4196
1125.773, 134.9619
1127.701, 134.0538
1129.630, 133.4321
1131.558, 133.3620
1133.487, 133.2671
1135.415, 132.8269
1137.344, 132.0709
1139.272, 131.3144
1141.200, 130.5187
1143.129, 129.7608
1145.057, 129.1260
1146.986, 128.4971
1148.914, 127.7052
1150.843, 126.6991
1152.771, 125.7418
1154.700, 124.9768
1156.628, 124.1975
1158.557, 123.2637
1160.485, 122.1736
1162.414, 121.1644
1164.342, 120.2096
1166.271, 119.3815
1168.199, 118.7781
1170.127, 118.3080
1172.056, 117.7934
1173.984, 117.2272
1175.913, 116.6765
1177.841, 116.1183
1179.770, 115.6210
1181.698, 115.1703
1183.627, 114.7674
1185.555, 114.6351
1187.484, 114.9324
1189.412, 115.3095
1191.341, 115.7406
1193.269, 116.1518
1195.198, 116.3805
1197.126, 116.3374
1199.054, 116.2530
1200.983, 116.1891
1202.911, 116.0588
1204.840, 115.6982
1206.768, 115.1577
1208.697, 114.9126
1210.625, 115.1847
1212.554, 115.4332
1214.482, 115.3815
1216.411, 115.1682
1218.339, 115.0012
1220.268, 114.8614
1222.196, 114.8269
1224.125, 114.9641
1226.053, 115.1628
1227.981, 115.4570
1229.910, 115.8504
1231.838, 115.8872
1233.767, 115.1289
1235.695, 114.6213
1237.624, 114.7220
1239.552, 115.1311
1241.481, 115.4179
1243.409, 115.5642
1245.338, 115.7647
1247.266, 116.1101
1249.195, 116.4413
1251.123, 116.7238
1253.052, 116.9318
1254.980, 116.9255
1256.908, 116.5518
1258.837, 116.3152
1260.765, 116.3465
1262.694, 116.5306
1264.622, 116.8123
1266.551, 117.2313
1268.479, 117.4831
1270.408, 117.3846
1272.336, 117.3658
1274.265, 117.6672
1276.193, 118.1264
1278.122, 118.3593
1280.050, 118.2753
1281.979, 118.4593
1283.907, 119.2451
1285.835, 120.0725
1287.764, 120.5466
1289.692, 120.7654
1291.621, 121.0906
1293.549, 121.6622
1295.478, 121.9860
1297.406, 121.6230
1299.335, 121.1708
1301.263, 121.2017
1303.192, 121.8350
1305.120, 122.1626
1307.049, 122.0118
1308.977, 121.7696
1310.906, 121.4519
1312.834, 121.1369
1314.762, 120.9400
1316.691, 120.8513
1318.619, 120.9269
1320.548, 121.4257
1322.476, 121.8136
1324.405, 121.7032
1326.333, 121.2987
1328.262, 121.1402
1330.190, 121.2982
1332.119, 121.4252
1334.047, 121.4409
1335.976, 121.4051
1337.904, 121.2832
1339.833, 121.1240
1341.761, 121.2233
1343.689, 121.7272
1345.618, 122.1874
1347.546, 122.4836
1349.475, 122.6914
1351.403, 122.8785
1353.332, 123.0524
1355.260, 123.1769
1357.189, 123.4157
1359.117, 123.4235
1361.046, 122.8976
1362.974, 122.2248
1364.903, 121.8094
1366.831, 121.6107
1368.760, 121.9261
1370.688, 123.4729
1372.616, 124.5931
1374.545, 124.4106
1376.473, 123.5499
1378.402, 122.9917
1380.330, 122.7795
1382.259, 122.4493
1384.187, 121.7409
1386.116, 121.2174
1388.044, 121.2579
1389.973, 121.6304
1391.901, 121.9330
1393.830, 122.1779
1395.758, 122.2163
1397.687, 121.6342
1399.615, 121.2438
1401.543, 121.6209
1403.472, 122.4343
1405.400, 122.7113
1407.329, 122.0756
1409.257, 121.6794
1411.186, 121.5408
1413.114, 121.6778
1415.043, 122.2665
1416.971, 123.1483
1418.900, 123.7885
1420.828, 124.1259
1422.757, 124.3643
1424.685, 124.1293
1426.614, 124.1769
1428.542, 125.3628
1430.470, 127.1429
1432.399, 127.7701
1434.327, 126.8491
1436.256, 126.6436
1438.184, 128.3361
1440.113, 130.0838
1442.041, 130.6476
1443.970, 130.4392
1445.898, 130.3531
1447.827, 130.4120
1449.755, 130.5338
1451.684, 131.0047
1453.612, 131.1549
1455.541, 130.4267
1457.469, 129.1618
1459.397, 128.4060
1461.326, 128.4337
1463.254, 128.1773
1465.183, 127.1410
1467.111, 126.2180
1469.040, 125.7698
1470.968, 125.7077
1472.897, 125.8601
1474.825, 126.5286
1476.754, 126.7386
1478.682, 126.1268
1480.611, 125.4992
1482.539, 125.1238
1484.468, 124.9721
1486.396, 125.0259
1488.324, 125.3601
1490.253, 125.5828
1492.181, 125.4766
1494.110, 125.4717
1496.038, 125.9093
1497.967, 126.4175
1499.895, 126.3780
1501.824, 125.8052
1503.752, 125.4954
1505.681, 125.6731
1507.609, 125.8792
1509.538, 126.1001
1511.466, 126.2036
1513.395, 125.8952
1515.323, 125.2837
1517.251, 125.1420
1519.180, 125.6624
1521.108, 126.2346
1523.037, 126.6944
1524.965, 127.0559
1526.894, 127.2897
1528.822, 127.4147
1530.751, 127.5732
1532.679, 127.8162
1534.608, 127.9806
1536.536, 128.0054
1538.465, 128.0523
1540.393, 128.2856
1542.322, 128.6297
1544.250, 128.7682
1546.178, 128.5445
1548.107, 128.7440
1550.035, 129.8148
1551.964, 130.7950
1553.892, 131.3471
1555.821, 131.5779
1557.749, 131.6049
1559.678, 131.3753
1561.606, 131.2560
1563.535, 131.2574
1565.463, 131.4153
1567.392, 131.8787
1569.320, 132.4110
1571.249, 132.8490
1573.177, 133.1788
1575.105, 133.3217
1577.034, 133.2059
1578.962, 132.9821
1580.891, 132.3724
1582.819, 131.9825
1584.748, 132.3407
1586.676, 133.1238
1588.605, 133.5772
1590.533, 133.5546
1592.462, 133.8222
1594.390, 134.5982
1596.319, 135.3678
1598.247, 135.9605
1600.176, 136.4472
1602.104, 136.8784
1604.032, 137.2405
1605.961, 137.5813
1607.889, 137.8570
1609.818, 138.1992
1611.746, 138.7673
1613.675, 139.2959
1615.603, 139.7142
1617.532, 139.9814
1619.460, 139.8733
1621.389, 139.3234
1623.317, 139.2486
1625.246, 139.9858
1627.174, 140.8024
1629.103, 141.3745
1631.031, 141.9319
1632.959, 142.8805
1634.888, 144.0449
1636.816, 144.5482
1638.745, 144.1731
1640.673, 143.8746
1642.602, 144.0018
1644.530, 144.1092
1646.459, 143.8933
1648.387, 143.5558
1650.316, 143.4460
1652.244, 143.5497
1654.173, 143.4102
1656.101, 142.8149
1658.030, 142.3500
1659.958, 142.3668
1661.886, 142.4028
1663.815, 142.0910
1665.743, 141.5497
1667.672, 141.0244
1669.600, 140.5263
1671.529, 140.1620
1673.457, 140.1406
1675.386, 139.9375
1677.314, 139.0649
1679.243, 138.1114
1681.171, 137.5262
1683.100, 137.2939
1685.028, 137.4905
1686.957, 138.2463
1688.885, 138.6792
1690.813, 138.4267
1692.742, 138.0697
1694.670, 137.8643
1696.599, 137.7492
1698.527, 137.6987
1700.456, 137.6956
1702.384, 137.5919
1704.313, 137.3930
1706.241, 137.0534
1708.170, 136.4449
1710.098, 135.8666
1712.027, 135.3938
1713.955, 135.1317
1715.884, 135.2748
1717.812, 135.8018
1719.740, 136.4379
1721.669, 137.2502
1723.597, 137.8398
1725.526, 137.9682
1727.454, 137.9571
1729.383, 138.0424
1731.311, 138.0771
1733.240, 137.7312
1735.168, 137.0453
1737.097, 136.7412
1739.025, 137.0188
1740.954, 137.3315
1742.882, 137.5555
1744.811, 137.7484
1746.739, 137.9371
1748.667, 138.1225
1750.596, 138.3058
1752.524, 138.4832
1754.453, 138.6492
1756.381, 138.8156
1758.310, 138.9367
1760.238, 138.8877
1762.167, 138.9172
1764.095, 139.1362
1766.024, 139.5246
1767.952, 140.2111
1769.880, 141.1213
1771.809, 141.4044
1773.737, 140.7398
1775.666, 140.2868
1777.594, 140.5109
1779.523, 140.8087
1781.451, 140.9389
1783.380, 140.9574
1785.308, 140.9282
1787.237, 140.8506
1789.165, 140.6561
1791.094, 140.2216
1793.022, 140.0749
1794.951, 140.5733
1796.879, 141.0273
1798.807, 141.1315
1800.736, 141.0947
1802.664, 141.1712
1804.593, 141.3144
1806.521, 141.2209
1808.450, 140.7562
1810.378, 140.5309
1812.307, 140.6877
1814.235, 140.9113
1816.164, 141.1299
1818.092, 141.3580
1820.021, 141.6897
1821.949, 142.0262
1823.878, 142.1217
1825.806, 141.9822
1827.734, 141.6469
1829.663, 140.6917
1831.591, 140.2400
1833.520, 140.7409
1835.448, 141.4090
1837.377, 141.9279
1839.305, 142.2957
1841.234, 142.4617
1843.162, 142.4233
1845.091, 142.4192
1847.019, 142.3765
1848.948, 142.5285
1850.876, 143.2271
1852.805, 143.6948
1854.733, 143.4529
1856.661, 143.1829
1858.590, 143.6399
1860.518, 144.4604
1862.447, 144.4737
1864.375, 143.5864
1866.304, 143.3424
1868.232, 144.1221
1870.161, 144.7454
1872.089, 144.7723
1874.018, 144.7943
1875.946, 145.1676
1877.875, 145.6475
1879.803, 145.9905
1881.732, 146.2090
1883.660, 146.3440
1885.589, 146.3894
1887.517, 146.4089
1889.445, 146.4348
1891.374, 146.3718
1893.302, 145.9694
1895.231, 145.7216
1897.159, 146.1687
1899.088, 146.8463
1901.016, 147.0403
1902.945, 146.8161
1904.873, 146.5856
1906.802, 146.3213
1908.730, 146.1992
1910.659, 146.3772
1912.587, 146.4963
1914.516, 146.3637
1916.444, 146.2372
1918.372, 146.3596
1920.301, 146.5920
1922.229, 146.6322
1924.158, 146.4807
1926.086, 146.5583
1928.015, 147.0728
1929.943, 147.3766
1931.872, 147.2054
1933.800, 147.1488
1935.729, 147.5991
1937.657, 147.9521
1939.586, 147.6752
1941.514, 147.1071
1943.443, 146.8312
1945.371, 146.8428
1947.299, 146.8819
1949.228, 146.9060
1951.156, 147.1852
1953.085, 147.9624
1955.013, 148.5342
1956.942, 148.5474
1958.870, 148.4099
1960.799, 148.2989
1962.727, 148.2647
1964.656, 148.4698
1966.584, 148.8158
1968.513, 148.7550
1970.441, 148.1570
1972.370, 148.0841
1974.298, 148.9933
1976.226, 149.7133
1978.155, 149.7383
1980.083, 149.7695
1982.012, 150.4039
1983.940, 151.0691
1985.869, 150.8764
1987.797, 150.1828
1989.726, 150.3475
1991.654, 151.6076
1993.583, 152.2918
1995.511, 152.0791
1997.440, 151.8738
1999.368, 151.7358
2001.297, 151.6403
2003.225, 151.4912
2005.153, 151.4898
2007.082, 151.9614
2009.010, 152.6026
2010.939, 152.8305
2012.867, 152.7308
2014.796, 152.7771
2016.724, 153.0065
2018.653, 153.1363
2020.581, 153.0700
2022.510, 153.0225
2024.438, 152.9812
2026.367, 153.0540
2028.295, 153.4382
2030.224, 153.8271
2032.152, 153.8766
2034.080, 153.7193
2036.009, 153.6525
2037.937, 153.6800
2039.866, 153.7969
2041.794, 154.2020
2043.723, 154.3073
2045.651, 153.8631
2047.580, 153.5030
2049.508, 153.4061
2051.437, 153.3424
2053.365, 153.2005
2055.294, 153.0278
2057.222, 152.7372
2059.151, 152.4886
2061.079, 152.8266
2063.008, 153.6873
2064.936, 154.3390
2066.865, 154.7622
2068.793, 154.8189
2070.721, 154.2096
2072.650, 153.8919
2074.578, 154.3925
2076.507, 154.9619
2078.435, 155.2299
2080.364, 155.3441
2082.292, 155.3040
2084.220, 155.2689
2086.149, 155.7395
2088.077, 156.6989
2090.006, 157.1766
2091.934, 157.1100
2093.863, 156.8111
2095.791, 156.0277
2097.720, 155.6048
2099.648, 155.8586
2101.577, 156.2249
2103.505, 156.5499
2105.434, 156.8105
2107.362, 156.8965
2109.291, 156.9964
2111.219, 157.4210
2113.147, 158.0860
2115.076, 158.6958
2117.004, 159.2456
2118.933, 159.5862
2120.861, 159.5171
2122.790, 159.6132
2124.718, 160.1740
2126.647, 160.4396
2128.575, 159.8640
2130.504, 159.4408
2132.432, 160.0081
2134.361, 160.6771
2136.289, 160.6316
2138.218, 160.1710
2140.146, 159.7865
2142.074, 159.4612
2144.003, 158.9851
2145.931, 158.3369
2147.860, 158.2523
2149.788, 158.9064
2151.717, 159.5733
2153.645, 160.3220
2155.574, 160.6809
2157.502, 160.2200
2159.431, 159.7336
2161.359, 159.7122
2163.288, 159.7820
2165.216, 159.4491
2167.145, 159.0526
2169.073, 159.2424
2171.001, 159.9165
2172.930, 160.6004
2174.858, 161.2864
2176.787, 161.4754
2178.715, 161.0312
2180.644, 160.7173
2182.572, 160.6681
2184.501, 160.7262
2186.429, 160.9883
2188.358, 161.1675
2190.286, 161.0414
2192.215, 160.9288
2194.143, 161.0572
2196.072, 161.3311
2198.000, 161.7614
2199.928, 162.1914
2201.857, 162.1068
2203.785, 161.5426
2205.714, 161.3545
2207.642, 161.5565
2209.571, 162.1172
2211.499, 163.1996
2213.428, 163.8607
2215.356, 163.7353
2217.285, 163.6339
2219.213, 163.8253
2221.142, 164.0693
2223.070, 164.2644
2224.999, 164.4404
2226.927, 164.6111
2228.855, 164.7842
2230.784, 164.9495
2232.712, 165.1467
2234.641, 165.5590
2236.569, 166.1392
2238.498, 166.2891
2240.426, 165.9948
2242.355, 165.7510
2244.283, 165.5883
2246.212, 165.4592
2248.140, 165.3935
2250.069, 165.2537
2251.997, 164.8750
2253.926, 164.6209
2255.854, 164.7780
2257.782, 164.9096
2259.711, 164.3554
2261.639, 164.0432
2263.568, 165.4895
2265.496, 167.3092
2267.425, 167.0263
2269.353, 165.3824
2271.282, 164.5361
2273.210, 164.4087
2275.139, 164.2466
2277.067, 164.0125
2278.996, 164.0907
2280.924, 164.7374
2282.853, 164.9844
2284.781, 164.3098
2286.709, 163.8854
2288.638, 164.1227
2290.566, 164.2446
2292.495, 163.6861
2294.423, 163.3944
2296.352, 164.1697
2298.280, 165.0506
2300.209, 165.4034
2302.137, 165.3749
2304.066, 164.7424
2305.994, 164.0311
2307.923, 164.6008
2309.851, 166.1345
2311.780, 166.9366
2313.708, 166.9561
2315.636, 166.9217
2317.565, 166.7578
2319.493, 166.9743
2321.422, 167.6811
2323.350, 168.5166
2325.279, 169.6167
2327.207, 170.3269
2329.136, 170.3319
2331.064, 170.1803
2332.993, 169.9793
2334.921, 169.7883
2336.850, 169.5555
2338.778, 169.4022
2340.707, 169.4232
2342.635, 169.5620
2344.563, 169.8974
2346.492, 170.2382
2348.420, 170.1294
2350.349, 169.8042
2352.277, 169.8900
2354.206, 170.3258
2356.134, 170.7320
2358.063, 171.1002
2359.991, 171.1499
2361.920, 170.6533
2363.848, 170.4793
2365.777, 170.8652
2367.705, 170.9248
2369.634, 170.4046
2371.562, 170.1105
2373.490, 170.4504
2375.419, 170.5573
2377.347, 169.7682
2379.276, 169.2135
2381.204, 169.6703
2383.133, 170.2088
2385.061, 170.1741
2386.990, 170.0275
2388.918, 170.3208
2390.847, 170.6286
2392.775, 170.2270
2394.704, 169.5718
2396.632, 169.4751
2398.561, 169.7993
2400.489, 170.3942
2402.417, 171.1240
2404.346, 171.1940
2406.274, 170.5961
2408.203, 170.1926
2410.131, 169.9044
2412.060, 170.4027
2413.988, 172.0216
2415.917, 172.8973
2417.845, 172.6469
2419.774, 172.5555
2421.702, 173.0047
2423.631, 173.1245
2425.559, 172.1708
2427.488, 171.6667
2429.416, 172.3441
2431.344, 173.1462
2433.273, 173.7413
2435.201, 174.2374
2437.130, 174.6389
2439.058, 175.0030
2440.987, 175.4944
2442.915, 175.8346
2444.844, 175.6207
2446.772, 175.2731
2448.701, 175.4289
2450.629, 175.7678
2452.558, 175.5161
2454.486, 175.0507
2456.415, 175.6034
2458.343, 176.8362
2460.271, 177.0185
2462.200, 176.3547
2464.128, 176.1642
2466.057, 176.4570
2467.985, 176.6604
2469.914, 176.7206
2471.842, 176.9464
2473.771, 177.6004
2475.699, 177.6737
2477.628, 176.9837
2479.556, 176.4623
2481.485, 176.2272
2483.413, 176.0815
2485.342, 175.9726
2487.270, 175.9348
2489.198, 175.8389
2491.127, 176.0267
2493.055, 177.0933
2494.984, 177.7236
2496.912, 177.1722
2498.841, 176.5708
2500.769, 176.1324
2502.698, 176.0649
2504.626, 176.8721
2506.555, 177.5677
2508.483, 177.3407
2510.412, 176.8519
2512.340, 176.5711
2514.269, 176.4514
2516.197, 176.4206
2518.125, 176.5605
2520.054, 177.2842
2521.982, 177.9895
2523.911, 177.3672
2525.839, 176.3472
2527.768, 176.9191
2529.696, 178.4118
2531.625, 179.0602
2533.553, 179.0766
2535.482, 179.2534
2537.410, 179.5574
2539.339, 179.7249
2541.267, 179.7531
2543.196, 179.5847
2545.124, 179.2083
2547.052, 178.9900
2548.981, 178.8758
2550.909, 179.2783
2552.838, 180.3289
2554.766, 180.9879
2556.695, 181.2166
2558.623, 181.5163
2560.552, 182.0163
2562.480, 182.0248
2564.409, 181.1192
2566.337, 180.8626
2568.266, 181.8934
2570.194, 182.5871
2572.123, 182.7661
2574.051, 182.8976
2575.979, 183.0157
2577.908, 183.1825
2579.836, 183.4566
2581.765, 183.6533
2583.693, 183.7830
2585.622, 183.7118
2587.550, 182.9872
2589.479, 182.7436
2591.407, 183.5910
2593.336, 184.2299
2595.264, 184.0105
2597.193, 183.8524
2599.121, 184.4841
2601.050, 184.7989
2602.978, 184.1229
2604.906, 183.3085
2606.835, 182.3997
2608.763, 182.0283
2610.692, 183.0268
2612.620, 183.8578
2614.549, 183.1895
2616.477, 182.5434
2618.406, 183.0930
2620.334, 183.8159
2622.263, 184.1018
2624.191, 184.1063
2626.120, 183.6078
2628.048, 183.3025
2629.977, 184.0419
2631.905, 184.8531
2633.833, 184.6571
2635.762, 184.2993
2637.690, 184.6287
2639.619, 185.1922
2641.547, 185.7445
2643.476, 186.0568
2645.404, 185.5122
2647.333, 185.0348
2649.261, 186.0499
2651.190, 187.3748
2653.118, 187.2862
2655.047, 186.7619
2656.975, 187.0322
2658.904, 187.7541
2660.832, 188.8253
2662.760, 189.7196
2664.689, 189.4523
2666.617, 188.8064
2668.546, 189.0738
2670.474, 189.6999
2672.403, 189.5801
2674.331, 189.3454
2676.260, 190.3747
2678.188, 191.7523
2680.117, 192.0392
2682.045, 191.7141
2683.974, 191.2882
2685.902, 191.0339
2687.831, 191.7346
2689.759, 192.7729
2691.688, 193.0420
2693.616, 192.8159
2695.544, 192.3702
2697.473, 191.9364
2699.401, 191.9909
2701.330, 192.3313
2703.258, 192.6232
2705.187, 192.8796
2707.115, 193.1579
2709.044, 193.3675
2710.972, 193.2424
2712.901, 193.0255
2714.829, 193.2361
2716.758, 193.6013
2718.686, 193.5672
2720.615, 193.3911
2722.543, 193.4759
2724.471, 193.7529
2726.400, 194.0926
2728.328, 194.5444
2730.257, 195.4710
2732.185, 196.3214
2734.114, 196.0600
2736.042, 195.2822
2737.971, 194.7163
2739.899, 194.3674
2741.828, 194.3807
2743.756, 194.5051
2745.685, 194.2082
2747.613, 193.9777
2749.542, 194.6783
2751.470, 195.5691
2753.398, 195.8637
2755.327, 195.8275
2757.255, 195.6867
2759.184, 195.4688
2761.112, 195.0773
2763.041, 194.7901
2764.969, 194.9403
2766.898, 195.2871
2768.826, 195.6080
2770.755, 196.0303
2772.683, 196.8100
2774.612, 197.5235
2776.540, 197.6566
2778.469, 197.7608
2780.397, 198.2737
2782.325, 198.7924
2784.254, 198.9836
2786.182, 199.1868
2788.111, 199.8844
2790.039, 200.3264
2791.968, 199.9507
2793.896, 199.4363
2795.825, 198.6534
2797.753, 198.5868
2799.682, 200.5245
2801.610, 202.0264
2803.539, 201.4621
2805.467, 201.2623
2807.396, 202.2669
2809.324, 203.3889
2811.252, 204.6453
2813.181, 205.1183
2815.109, 203.8044
2817.038, 202.9662
2818.966, 202.9402
2820.895, 203.7317
2822.823, 205.8415
2824.752, 206.9740
2826.680, 206.0622
2828.609, 205.5922
2830.537, 205.6798
2832.466, 206.6929
2834.394, 208.7770
2836.323, 210.9267
2838.251, 213.0484
2840.179, 215.0016
2842.108, 216.5759
2844.036, 219.0835
2845.965, 222.6589
2847.893, 225.2276
2849.822, 226.7447
2851.750, 227.7968
2853.679, 228.4036
2855.607, 228.7293
2857.536, 228.7906
2859.464, 228.7296
2861.393, 228.6608
2863.321, 229.1231
2865.250, 229.9737
2867.178, 230.8027
2869.106, 231.5522
2871.035, 232.0551
2872.963, 232.3133
2874.892, 231.9590
2876.820, 231.6785
2878.749, 232.6629
2880.677, 234.0816
2882.606, 234.9689
2884.534, 235.6839
2886.463, 236.5390
2888.391, 237.4807
2890.320, 238.6156
2892.248, 239.6112
2894.177, 240.1218
2896.105, 240.5924
2898.033, 241.5363
2899.962, 242.0132
2901.890, 241.0984
2903.819, 240.7638
2905.747, 242.2436
2907.676, 243.5791
2909.604, 244.4822
2911.533, 244.7542
2913.461, 244.0876
2915.390, 244.0094
2917.318, 245.3489
2919.247, 245.6293
2921.175, 244.3530
2923.104, 243.7778
2925.032, 243.9983
2926.960, 244.0791
2928.889, 243.9377
2930.817, 243.3865
2932.746, 242.4546
2934.674, 241.6830
2936.603, 240.9583
2938.531, 239.6540
2940.460, 238.0199
2942.388, 236.6056
2944.317, 235.4243
2946.245, 234.4758
2948.174, 233.7834
2950.102, 233.6855
2952.031, 233.5039
2953.959, 232.3252
2955.887, 231.0206
2957.816, 230.2745
2959.744, 229.7346
2961.673, 229.3741
2963.601, 228.8351
2965.530, 227.6994
2967.458, 226.7665
2969.387, 226.5403
2971.315, 226.1131
2973.244, 225.2868
2975.172, 224.4856
2977.101, 223.6791
2979.029, 223.3694
2980.958, 223.8250
2982.886, 223.2743
2984.814, 221.6865
2986.743, 221.6240
2988.671, 223.0495
2990.600, 222.8725
2992.528, 221.5295
2994.457, 221.5544
2996.385, 222.3877
2998.314, 222.5436
3000.242, 222.5147
3002.171, 223.1119
3004.099, 223.9915
3006.028, 225.0598
3007.956, 225.7603
3009.885, 225.3905
3011.813, 224.8823
3013.741, 224.4902
3015.670, 224.6645
3017.598, 226.0666
3019.527, 226.8022
3021.455, 225.9019
3023.384, 225.4148
3025.312, 226.0022
3027.241, 226.7180
3029.169, 227.6137
3031.098, 228.0148
3033.026, 227.8814
3034.955, 227.5271
3036.883, 227.0473
3038.812, 227.5255
3040.740, 228.6419
3042.668, 229.4451
3044.597, 229.8220
3046.525, 229.1548
3048.454, 228.3332
3050.382, 228.5966
3052.311, 229.2858
3054.239, 230.0213
3056.168, 230.7132
3058.096, 231.4004
3060.025, 231.8667
3061.953, 231.9831
3063.882, 232.0154
3065.810, 231.9630
3067.739, 232.0468
3069.667, 232.4302
3071.595, 232.5698
3073.524, 232.4530
3075.452, 232.4886
3077.381, 232.6877
3079.309, 232.8449
3081.238, 232.9912
3083.166, 233.3487
3085.095, 233.7727
3087.023, 233.8680
3088.952, 234.0248
3090.880, 235.1724
3092.809, 236.0365
3094.737, 235.1499
3096.666, 234.4824
3098.594, 235.2124
3100.522, 236.0406
3102.451, 236.4225
3104.379, 237.0686
3106.308, 238.0370
3108.236, 239.3478
3110.165, 241.1716
3112.093, 241.8842
3114.022, 241.5024
3115.950, 241.7602
3117.879, 242.4220
3119.807, 242.5398
3121.736, 242.5394
3123.664, 243.3196
3125.593, 244.3742
3127.521, 245.0495
3129.449, 245.8357
3131.378, 247.1280
3133.306, 248.5162
3135.235, 250.0109
3137.163, 251.0245
3139.092, 251.1444
3141.020, 251.8564
3142.949, 254.0155
3144.877, 254.5421
3146.806, 253.5298
3148.734, 253.0609
3150.663, 253.2251
3152.591, 254.2973
3154.520, 255.6997
3156.448, 255.9600
3158.376, 255.9973
3160.305, 256.8104
3162.233, 257.8414
3164.162, 258.9111
3166.090, 259.5892
3168.019, 259.4337
3169.947, 259.6054
3171.876, 260.3601
3173.804, 261.7422
3175.733, 263.8804
3177.661, 264.9842
3179.590, 265.1063
3181.518, 265.3099
3183.447, 265.6647
3185.375, 266.2286
3187.303, 267.0543
3189.232, 268.3598
3191.160, 269.6946
3193.089, 270.3969
3195.017, 271.4125
3196.946, 273.4608
3198.874, 275.1069
3200.803, 275.8529
3202.731, 276.2336
3204.660, 276.1414
3206.588, 277.0142
3208.517, 278.7864
3210.445, 280.1803
3212.374, 281.2666
3214.302, 282.2543
3216.230, 283.3730
3218.159, 285.0490
3220.087, 286.9109
3222.016, 289.1317
3223.944, 290.5707
3225.873, 290.2782
3227.801, 290.5768
3229.730, 292.2565
3231.658, 294.3562
3233.587, 296.9749
3235.515, 297.9887
3237.444, 297.7828
3239.372, 299.1277
3241.301, 301.3930
3243.229, 303.0744
3245.157, 304.4647
3247.086, 305.7957
3249.014, 307.0812
3250.943, 308.2614
3252.871, 309.5067
3254.800, 310.9866
3256.728, 312.1753
3258.657, 312.9713
3260.585, 313.6500
3262.514, 314.2875
3264.442, 315.7982
3266.371, 317.7439
3268.299, 318.8269
3270.228, 319.4580
3272.156, 320.1104
3274.084, 320.6670
3276.013, 320.8029
3277.941, 321.2989
3279.870, 322.9628
3281.798, 323.7177
3283.727, 323.2037
3285.655, 323.3758
3287.584, 324.3628
3289.512, 325.3932
3291.441, 326.4034
3293.369, 327.1066
3295.298, 327.7971
3297.226, 329.1133
3299.155, 330.1527
3301.083, 330.3945
3303.011, 330.2458
3304.940, 329.2008
3306.868, 329.4560
3308.797, 331.2912
3310.725, 332.1345
3312.654, 332.1533
3314.582, 333.9751
3316.511, 336.4017
3318.439, 336.2057
3320.368, 335.7060
3322.296, 336.8274
3324.225, 338.8266
3326.153, 342.1172
3328.082, 344.0801
3330.010, 343.6895
3331.938, 344.6280
3333.867, 347.2357
3335.795, 348.2511
3337.724, 348.9472
3339.652, 354.4198
3341.581, 360.2562
3343.509, 359.0490
3345.438, 357.7617
3347.366, 361.0898
3349.295, 364.2293
3351.223, 365.5994
3353.152, 367.4505
3355.080, 369.9507
3357.009, 371.5918
3358.937, 372.7741
3360.865, 375.8499
3362.794, 379.5154
3364.722, 381.5853
3366.651, 383.7944
3368.579, 388.2701
3370.508, 391.4008
3372.436, 391.6787
3374.365, 393.1298
3376.293, 396.5941
3378.222, 399.6682
3380.150, 402.3131
3382.079, 404.2156
3384.007, 405.7640
3385.936, 407.1369
3387.864, 409.0004
3389.792, 411.8719
3391.721, 415.0072
3393.649, 418.4956
3395.578, 421.2209
3397.506, 423.1617
3399.435, 426.0150
3401.363, 429.2820
3403.292, 430.4976
3405.220, 431.3617
3407.148, 433.9179
3409.077, 436.9695
3411.005, 439.9998
3412.934, 442.9489
3414.862, 445.9187
3416.791, 447.8069
3418.719, 448.5843
3420.648, 449.0366
3422.576, 449.8153
3424.505, 452.5853
3426.433, 456.0062
3428.362, 459.2699
3430.290, 461.6533
3432.219, 462.2505
3434.147, 463.9433
3436.075, 467.4393
3438.004, 469.9932
3439.932, 471.6273
3441.861, 472.6176
3443.789, 473.3929
3445.718, 474.5313
3447.646, 475.9544
3449.575, 477.5951
3451.503, 479.8090
3453.432, 483.0001
3455.360, 484.6547
3457.289, 484.7968
3459.217, 486.8091
3461.146, 489.7992
3463.074, 491.8786
3465.002, 493.4546
3466.931, 494.9862
3468.859, 495.7677
3470.788, 495.2951
3472.716, 495.8190
3474.645, 497.7062
3476.573, 499.9521
3478.502, 502.0932
3480.430, 502.3308
3482.359, 502.1418
3484.287, 503.2538
3486.216, 504.1684
3488.144, 504.1815
3490.073, 504.6336
3492.001, 505.7442
3493.929, 507.3565
3495.858, 508.8971
3497.786, 508.0587
3499.715, 506.8548
3501.643, 508.1876
3503.572, 509.5264
3505.500, 509.6786
3507.429, 510.1925
3509.357, 511.3737
3511.286, 511.1952
3513.214, 510.1537
3515.143, 510.4387
3517.071, 511.3234
3519.000, 512.0587
3520.928, 512.7834
3522.856, 513.6249
3524.785, 514.5845
3526.713, 515.7197
3528.642, 514.4147
3530.570, 511.7773
3532.499, 512.4699
3534.427, 513.8162
3536.356, 512.5775
3538.284, 511.7946
3540.213, 513.2376
3542.141, 513.7095
3544.070, 512.8554
3545.998, 510.6875
3547.927, 507.8716
3549.855, 506.4005
3551.783, 505.1648
3553.712, 503.0435
3555.640, 501.0591
3557.569, 499.5965
3559.497, 497.2105
3561.426, 493.7700
3563.354, 491.4308
3565.283, 489.4265
3567.211, 486.5732
3569.140, 482.9903
3571.068, 478.1807
3572.997, 474.2764
3574.925, 472.2423
3576.854, 467.7601
3578.782, 461.4052
3580.710, 458.5260
3582.639, 457.0651
3584.567, 455.4110
3586.496, 452.1527
3588.424, 445.9969
3590.353, 441.0820
3592.281, 438.2271
3594.210, 435.4879
3596.138, 432.6315
3598.067, 429.0231
3599.995, 425.1605
3601.924, 421.5593
3603.852, 417.5813
3605.781, 412.5455
3607.709, 408.7221
3609.637, 405.9023
3611.566, 402.9293
3613.494, 399.3083
3615.423, 393.3560
3617.351, 388.1417
3619.280, 385.7506
3621.208, 382.2697
3623.137, 377.2690
3625.065, 374.2445
3626.994, 371.9004
3628.922, 366.8180
3630.851, 360.9582
3632.779, 355.1631
3634.708, 350.5034
3636.636, 347.5415
3638.564, 343.9911
3640.493, 339.9205
3642.421, 336.1167
3644.350, 332.2424
3646.278, 327.9150
3648.207, 323.4561
3650.135, 318.7913
3652.064, 314.5408
3653.992, 310.7579
3655.921, 307.8349
3657.849, 305.2797
3659.778, 302.3138
3661.706, 299.4811
3663.635, 297.2304
3665.563, 294.6900
3667.491, 291.8311
3669.420, 289.6942
3671.348, 288.0371
3673.277, 286.3995
3675.205, 284.9694
3677.134, 283.9448
3679.062, 283.0244
3680.991, 282.1847
3682.919, 281.4190
3684.848, 280.6374
3686.776, 279.5252
3688.705, 278.3550
3690.633, 276.9806
3692.562, 276.4464
3694.490, 276.9804
3696.418, 277.3568
3698.347, 277.3128
3700.275, 275.7999
3702.204, 274.3355
3704.132, 274.3339
3706.061, 274.1410
3707.989, 273.3467
3709.918, 272.6617
3711.846, 272.0836
3713.775, 271.4920
3715.703, 270.9123
3717.632, 270.2593
3719.560, 269.9531
3721.489, 270.3013
3723.417, 269.5377
3725.345, 268.1013
3727.274, 267.5522
3729.202, 267.5566
3731.131, 268.2770
3733.059, 268.0597
3734.988, 266.1754
3736.916, 264.9067
3738.845, 264.3173
3740.773, 264.6094
3742.702, 265.0817
3744.630, 265.6225
3746.559, 264.8472
3748.487, 261.8607
3750.416, 262.2981
3752.344, 264.4247
3754.272, 262.9503
3756.201, 261.3844
3758.129, 262.1454
3760.058, 263.1565
3761.986, 264.1339
3763.915, 263.6329
3765.843, 262.5533
3767.772, 263.1323
3769.700, 263.3287
3771.629, 261.6779
3773.557, 261.1570
3775.486, 262.2533
3777.414, 262.1797
3779.343, 261.6117
3781.271, 261.3505
3783.199, 261.7258
3785.128, 263.1284
3787.056, 263.5110
3788.985, 262.8773
3790.913, 263.6894
3792.842, 264.9274
3794.770, 265.5002
3796.699, 265.7948
3798.627, 265.9462
3800.556, 265.2971
3802.484, 264.2753
3804.413, 265.2951
3806.341, 266.6018
3808.270, 266.4922
3810.198, 266.9281
3812.126, 268.2836
3814.055, 268.4417
3815.983, 267.9291
3817.912, 267.8407
3819.840, 268.2720
3821.769, 269.8360
3823.697, 270.0553
3825.626, 268.8617
3827.554, 269.4546
3829.483, 270.5535
3831.411, 270.6183
3833.340, 270.1998
3835.268, 269.3330
3837.197, 269.2337
3839.125, 269.6992
3841.053, 269.6823
3842.982, 269.6169
3844.910, 270.1772
3846.839, 269.7970
3848.767, 268.3246
3850.696, 268.0271
3852.624, 268.0862
3854.553, 266.5233
3856.481, 265.6701
3858.410, 266.9179
3860.338, 268.4831
3862.267, 269.9096
3864.195, 269.1863
3866.124, 267.9476
3868.052, 267.3040
3869.980, 267.5110
3871.909, 268.8117
3873.837, 268.4723
3875.766, 267.6921
3877.694, 269.3055
3879.623, 269.9547
3881.551, 268.1127
3883.480, 267.1038
3885.408, 267.1187
3887.337, 268.0523
3889.265, 269.0084
3891.194, 268.9422
3893.122, 269.3158
3895.051, 270.3309
3896.979, 271.1119
3898.907, 271.4667
3900.836, 270.6291
3902.764, 270.4996
3904.693, 271.9633
3906.621, 272.8795
3908.550, 273.1671
3910.478, 272.7764
3912.407, 272.4320
3914.335, 272.7255
3916.264, 272.7913
3918.192, 272.7303
3920.121, 274.6445
3922.049, 276.6449
3923.978, 276.3039
3925.906, 275.6629
3927.834, 275.1401
3929.763, 275.1312
3931.691, 275.6584
3933.620, 277.1465
3935.548, 278.2861
3937.477, 278.5634
3939.405, 278.2111
3941.334, 277.5481
3943.262, 277.8933
3945.191, 278.4940
3947.119, 279.0674
3949.048, 279.0309
3950.976, 278.3392
3952.905, 277.1803
3954.833, 276.4456
3956.761, 277.4642
3958.690, 278.0819
3960.618, 277.8929
3962.547, 277.9138
3964.475, 278.0309
3966.404, 278.1033
3968.332, 277.8924
3970.261, 277.1004
3972.189, 276.8000
3974.118, 276.9609
3976.046, 277.6804
3977.975, 278.1765
3979.903, 278.0405
3981.832, 277.6367
3983.760, 277.2124
3985.688, 278.0396
3987.617, 278.8514
3989.545, 278.6354
3991.474, 278.6918
3993.402, 279.0922
3995.331, 278.5728
3997.259, 278.0693
3999.188, 278.4173
4001.116, 279.4649
4003.045, 281.0156
4004.973, 280.6918
4006.902, 279.9122
4008.830, 280.7104
4010.759, 280.9217
4012.687, 279.9744
4014.615, 280.0147
4016.544, 280.6587
4018.472, 281.7278
4020.401, 282.0465
4022.329, 280.8306
4024.258, 281.4776
4026.186, 283.1310
4028.115, 284.4271
4030.043, 285.0780
4031.972, 284.9779
4033.900, 284.5155
4035.829, 284.2365
4037.757, 285.9633
4039.686, 287.1933
4041.614, 286.6286
4043.542, 286.8363
4045.471, 287.4631
4047.399, 287.0623
4049.328, 286.4064
4051.256, 285.3833
4053.185, 286.2625
4055.113, 288.3171
4057.042, 289.3872
4058.970, 289.7314
4060.899, 289.4640
4062.827, 288.6644
4064.756, 287.6938
4066.684, 288.0141
4068.613, 288.4359
4070.541, 288.4097
4072.469, 287.9020
4074.398, 287.0727
4076.326, 286.2908
4078.255, 285.7348
4080.183, 285.8090
4082.112, 285.1078
4084.040, 283.9838
4085.969, 283.6786
4087.897, 284.1174
4089.826, 285.4874
4091.754, 285.9917
4093.683, 285.7764
4095.611, 285.6683
4097.540, 285.7377
4099.468, 286.1468
4101.396, 285.6557
4103.325, 284.7682
4105.253, 285.5971
4107.182, 286.2861
4109.110, 285.8383
4111.039, 285.3327
4112.967, 285.0486
4114.896, 286.0012
4116.824, 286.6288
4118.752, 285.8110
4120.681, 286.2482
4122.609, 287.6002
4124.538, 289.7975
4126.466, 290.4174
4128.395, 288.5022
4130.323, 287.5397
4132.252, 287.6653
4134.180, 289.4100
4136.109, 290.4104
4138.037, 290.1137
4139.966, 290.7235
4141.894, 291.9227
4143.823, 293.4561
4145.751, 294.3749
4147.680, 294.4437
4149.608, 294.8090
4151.537, 295.4760
4153.465, 296.6681
4155.394, 297.6183
4157.322, 298.1792
4159.250, 297.5844
4161.179, 297.3036
4163.107, 299.3814
4165.036, 299.9400
4166.964, 299.0788
4168.893, 299.0628
4170.821, 299.6100
4172.750, 300.9446
4174.678, 301.1254
4176.606, 300.5298
4178.535, 300.0756
4180.463, 300.5986
4182.392, 302.4847
4184.320, 304.0629
4186.249, 304.8605
4188.177, 303.6255
4190.106, 303.0758
4192.034, 303.8530
4193.963, 304.7617
4195.891, 305.3773
4197.820, 305.0936
4199.748, 305.0028
4201.677, 305.2965
4203.605, 305.7569
4205.534, 306.5261
4207.462, 307.8860
4209.391, 308.7774
4211.319, 309.0123
4213.248, 307.7388
4215.176, 306.8473
4217.104, 307.3603
4219.033, 308.2064
4220.961, 309.2059
4222.890, 310.4262
4224.818, 310.9091
4226.747, 310.2054
4228.675, 310.2240
4230.604, 310.9391
4232.532, 312.5591
4234.460, 314.3294
4236.389, 316.1078
4238.317, 317.9289
4240.246, 319.0504
4242.174, 318.3447
4244.103, 317.9594
##END=



