##NAMES=Mesolite
##RRUFFID=R040139
##IDEAL CHEMISTRY=Na_2_Ca_2_(Si_9_Al_6_)O_30_·8H_2_O
##LOCALITY=Lake Superior beach,  41 miles north of Tofte, Minnesota, USA
##OWNER=RRUFF
##SOURCE=University of Arizona Mineral Museum
##DESCRIPTION=Aggregate of white radiating thin acicular crystals.
##STATUS=The identification of this mineral has been confirmed by X-ray diffraction and chemical analysis
##URL=https://www.rruff.net/odr/rruff_sample/R040139
##MEASURED CHEMISTRY=Na_1.95_Ca_1.89_(Si_9.21_Al_5.82_)O_30_·8H_2_O
##DIFFRACTION SAMPLE DESCRIPTION=Powder
##CELL PARAMETERS=a: 18.408 b: 56.605 c: 6.544 alpha: 90 beta: 90 gamma: 90 volume: 6819 crystal system: orthorhombic
##FILETYPE=Raman RAW
##RAMAN WAVELENGTH=785

135.8303, 1029.769
137.7588, 1158.122
139.6873, 1303.805
141.6157, 1475.267
143.5442, 1647.560
145.4727, 1792.299
147.4011, 1912.109
149.3296, 2007.169
151.2581, 2067.758
153.1865, 2126.333
155.1150, 2194.127
157.0435, 2255.200
158.9719, 2297.370
160.9004, 2328.130
162.8289, 2361.115
164.7573, 2398.178
166.6858, 2425.940
168.6143, 2441.518
170.5427, 2448.638
172.4712, 2450.167
174.3997, 2439.231
176.3281, 2409.303
178.2566, 2366.299
180.1851, 2322.174
182.1135, 2273.356
184.0420, 2229.857
185.9705, 2203.087
187.8989, 2165.260
189.8274, 2097.279
191.7559, 2022.362
193.6843, 1958.030
195.6128, 1902.479
197.5413, 1848.704
199.4697, 1800.249
201.3982, 1747.696
203.3267, 1683.632
205.2551, 1623.965
207.1836, 1577.178
209.1121, 1538.479
211.0405, 1501.579
212.9690, 1466.997
214.8975, 1444.860
216.8259, 1438.702
218.7544, 1437.332
220.6829, 1438.508
222.6113, 1433.087
224.5398, 1414.702
226.4683, 1396.772
228.3967, 1393.744
230.3252, 1399.229
232.2537, 1394.281
234.1821, 1376.951
236.1106, 1363.785
238.0391, 1371.612
239.9675, 1372.580
241.8960, 1350.157
243.8245, 1320.112
245.7529, 1297.205
247.6814, 1282.855
249.6099, 1274.615
251.5383, 1270.402
253.4668, 1262.720
255.3953, 1253.794
257.3237, 1246.049
259.2522, 1234.944
261.1807, 1224.420
263.1091, 1219.401
265.0376, 1218.951
266.9661, 1218.357
268.8945, 1217.109
270.8230, 1230.733
272.7515, 1272.153
274.6799, 1300.459
276.6084, 1298.901
278.5369, 1302.353
280.4653, 1334.836
282.3938, 1378.365
284.3223, 1414.424
286.2507, 1443.600
288.1792, 1471.675
290.1077, 1498.817
292.0361, 1515.593
293.9646, 1519.278
295.8931, 1516.881
297.8215, 1511.798
299.7500, 1498.786
301.6785, 1472.459
303.6069, 1439.135
305.5354, 1408.176
307.4639, 1377.044
309.3923, 1342.680
311.3208, 1307.823
313.2493, 1280.802
315.1777, 1262.338
317.1062, 1246.999
319.0347, 1237.042
320.9631, 1230.177
322.8916, 1221.122
324.8201, 1207.643
326.7485, 1195.998
328.6770, 1187.541
330.6055, 1180.583
332.5340, 1176.749
334.4624, 1175.458
336.3909, 1176.032
338.3194, 1176.966
340.2478, 1178.149
342.1763, 1179.653
344.1048, 1182.044
346.0332, 1185.243
347.9617, 1186.753
349.8902, 1186.444
351.8186, 1186.925
353.7471, 1186.758
355.6756, 1187.044
357.6040, 1191.772
359.5325, 1192.989
361.4610, 1183.191
363.3894, 1169.694
365.3179, 1157.223
367.2464, 1145.103
369.1748, 1134.549
371.1033, 1124.234
373.0318, 1112.994
374.9602, 1099.299
376.8887, 1089.181
378.8172, 1085.883
380.7456, 1085.463
382.6741, 1087.005
384.6026, 1086.503
386.5310, 1077.750
388.4595, 1064.787
390.3880, 1067.866
392.3164, 1089.573
394.2449, 1107.500
396.1734, 1116.548
398.1018, 1132.634
400.0303, 1160.217
401.9588, 1197.733
403.8872, 1248.552
405.8157, 1304.230
407.7442, 1355.858
409.6726, 1404.564
411.6011, 1459.624
413.5296, 1519.145
415.4580, 1571.977
417.3865, 1616.122
419.3150, 1663.876
421.2434, 1727.353
423.1719, 1777.164
425.1004, 1792.422
427.0288, 1809.641
428.9573, 1860.693
430.8858, 1916.581
432.8142, 1934.422
434.7427, 1932.443
436.6712, 1954.767
438.5996, 2003.276
440.5281, 2032.166
442.4566, 2035.782
444.3850, 2023.703
446.3135, 1988.694
448.2420, 1950.564
450.1704, 1925.440
452.0989, 1887.235
454.0274, 1809.282
455.9558, 1715.961
457.8843, 1631.769
459.8128, 1555.402
461.7412, 1484.365
463.6697, 1419.751
465.5982, 1360.245
467.5266, 1303.988
469.4551, 1255.442
471.3836, 1213.182
473.3120, 1183.015
475.2405, 1173.408
477.1690, 1168.661
479.0974, 1155.866
481.0259, 1145.038
482.9544, 1149.267
484.8828, 1164.279
486.8113, 1180.370
488.7398, 1198.153
490.6682, 1217.891
492.5967, 1238.943
494.5252, 1269.116
496.4536, 1308.935
498.3821, 1362.833
500.3106, 1434.133
502.2390, 1515.246
504.1675, 1595.627
506.0960, 1693.393
508.0244, 1820.295
509.9529, 1974.266
511.8814, 2158.233
513.8098, 2378.687
515.7383, 2640.503
517.6667, 2940.236
519.5952, 3264.101
521.5237, 3615.712
523.4521, 3973.753
525.3806, 4383.406
527.3091, 4727.086
529.2375, 5003.570
531.1660, 5183.544
533.0945, 5232.139
535.0229, 5169.161
536.9514, 4963.412
538.8799, 4656.934
540.8083, 4321.348
542.7368, 3949.971
544.6653, 3588.608
546.5938, 3237.459
548.5222, 2902.490
550.4507, 2589.340
552.3792, 2313.602
554.3076, 2072.783
556.2361, 1866.381
558.1646, 1688.943
560.0930, 1535.195
562.0215, 1407.479
563.9500, 1302.215
565.8784, 1212.530
567.8069, 1133.536
569.7354, 1064.956
571.6638, 1010.367
573.5923, 974.1458
575.5208, 949.3779
577.4493, 917.6479
579.3777, 880.5934
581.3062, 853.1227
583.2347, 836.2653
585.1631, 822.9531
587.0916, 811.9008
589.0201, 800.8445
590.9485, 787.8137
592.8770, 775.5377
594.8055, 772.9280
596.7339, 772.4706
598.6624, 757.8221
600.5909, 742.0719
602.5193, 744.8798
604.4478, 753.6213
606.3763, 751.8663
608.3047, 742.9895
610.2332, 733.8337
612.1617, 725.4667
614.0901, 716.7010
616.0186, 706.2356
617.9471, 696.8736
619.8755, 690.3958
621.8040, 686.0318
623.7325, 682.3054
625.6609, 678.7688
627.5894, 678.7750
629.5179, 677.9626
631.4464, 672.5645
633.3748, 665.7811
635.3033, 661.4091
637.2318, 661.9661
639.1602, 665.3276
641.0887, 664.5633
643.0172, 658.4784
644.9456, 654.4393
646.8741, 653.7380
648.8026, 650.6852
650.7310, 649.1317
652.6595, 656.6388
654.5880, 670.2516
656.5164, 682.0439
658.4449, 688.2077
660.3734, 694.1636
662.3018, 699.7618
664.2303, 699.2814
666.1588, 694.5058
668.0872, 692.7022
670.0157, 696.8912
671.9442, 703.9262
673.8726, 703.3863
675.8011, 690.2695
677.7296, 682.7084
679.6580, 689.0851
681.5865, 692.6843
683.5150, 690.6934
685.4434, 694.1896
687.3719, 696.5451
689.3004, 694.3514
691.2288, 704.0948
693.1573, 722.7944
695.0858, 729.0516
697.0142, 727.8516
698.9427, 740.9936
700.8712, 768.9585
702.7996, 798.5402
704.7281, 821.4478
706.6566, 829.1302
708.5850, 833.7446
710.5135, 851.1084
712.4420, 862.5508
714.3704, 855.9196
716.2989, 840.5240
718.2274, 826.2817
720.1558, 808.5041
722.0843, 785.1502
724.0128, 767.6288
725.9412, 760.0795
727.8697, 752.8438
729.7982, 735.2350
731.7266, 710.1633
733.6551, 688.7198
735.5836, 676.9396
737.5120, 672.1684
739.4405, 668.9955
741.3690, 666.2334
743.2974, 664.3198
745.2259, 665.0765
747.1544, 671.8323
749.0828, 678.5447
751.0113, 678.6139
752.9398, 676.1323
754.8682, 673.8171
756.7967, 668.6867
758.7252, 665.4886
760.6536, 665.7993
762.5821, 659.1901
764.5106, 643.4561
766.4390, 627.8525
768.3675, 611.8874
770.2960, 590.8348
772.2244, 572.9539
774.1529, 562.7242
776.0814, 553.8209
778.0098, 544.4350
779.9383, 535.9335
781.8668, 525.4441
783.7952, 513.6225
785.7237, 507.3752
787.6522, 507.5891
789.5806, 504.5688
791.5091, 494.8381
793.4376, 485.4448
795.3660, 479.7268
797.2945, 473.6504
799.2230, 467.3766
801.1514, 467.6452
803.0799, 471.2007
805.0084, 468.6722
806.9368, 463.7814
808.8653, 463.7926
810.7938, 466.0490
812.7222, 464.8247
814.6507, 461.6472
816.5792, 460.7155
818.5076, 460.0033
820.4361, 456.7442
822.3646, 454.0098
824.2930, 454.7353
826.2215, 455.8194
828.1500, 457.6465
830.0784, 466.0602
832.0069, 470.2218
833.9354, 457.2865
835.8638, 445.0197
837.7923, 447.9471
839.7208, 453.1472
841.6492, 453.3538
843.5777, 454.0719
845.5062, 456.4446
847.4346, 456.8675
849.3631, 454.9525
851.2916, 455.3795
853.2200, 462.6078
855.1485, 468.0521
857.0770, 458.7357
859.0054, 444.9799
860.9339, 444.6299
862.8624, 451.8578
864.7908, 453.1292
866.7193, 449.5301
868.6478, 448.0891
870.5762, 449.9573
872.5047, 450.7515
874.4332, 449.1029
876.3616, 446.0616
878.2901, 440.2621
880.2186, 436.4392
882.1470, 439.1710
884.0755, 444.1046
886.0040, 447.5429
887.9324, 451.7828
889.8609, 457.4431
891.7894, 455.1986
893.7178, 444.8786
895.6463, 439.1327
897.5748, 438.8544
899.5032, 436.1640
901.4317, 431.5268
903.3602, 436.5617
905.2886, 451.1079
907.2171, 457.8960
909.1456, 455.0615
911.0740, 455.2203
913.0025, 460.7559
914.9310, 469.3198
916.8594, 479.6685
918.7879, 487.3719
920.7164, 492.4737
922.6448, 495.5652
924.5733, 496.3011
926.5018, 500.2144
928.4302, 507.3943
930.3587, 520.6710
932.2872, 542.1635
934.2156, 556.7053
936.1441, 562.5542
938.0726, 565.8022
940.0010, 567.1598
941.9295, 564.1697
943.8580, 555.9197
945.7864, 548.6166
947.7149, 542.8222
949.6434, 533.0732
951.5718, 516.2307
953.5003, 509.2454
955.4288, 513.9177
957.3572, 521.2846
959.2857, 532.0572
961.2142, 542.1434
963.1426, 551.8869
965.0711, 560.7784
966.9996, 568.4461
968.9280, 576.8477
970.8565, 584.6215
972.7850, 595.2236
974.7134, 611.5586
976.6419, 625.6974
978.5704, 636.2999
980.4988, 637.8602
982.4273, 630.1329
984.3558, 620.8570
986.2842, 609.9177
988.2127, 611.8998
990.1412, 627.7656
992.0696, 628.4416
993.9981, 612.3954
995.9266, 608.2067
997.8550, 617.4473
999.7835, 623.8336
1001.712, 626.6285
1003.640, 623.2687
1005.569, 613.7314
1007.497, 611.5721
1009.426, 617.3702
1011.354, 623.8075
1013.283, 630.2074
1015.211, 643.9666
1017.140, 665.0199
1019.068, 674.6032
1020.997, 674.4950
1022.925, 685.6530
1024.854, 708.2048
1026.782, 736.8749
1028.710, 769.8127
1030.639, 799.5240
1032.567, 822.3592
1034.496, 845.1511
1036.424, 873.6486
1038.353, 901.6509
1040.281, 922.5819
1042.210, 939.3221
1044.138, 948.0880
1046.067, 943.0920
1047.995, 928.8804
1049.924, 906.5137
1051.852, 876.1503
1053.781, 826.8834
1055.709, 772.2995
1057.637, 734.4271
1059.566, 704.6265
1061.494, 677.3901
1063.423, 655.0926
1065.351, 637.3185
1067.280, 627.0488
1069.208, 625.5357
1071.137, 625.1713
1073.065, 623.5985
1074.994, 620.8466
1076.922, 616.2744
1078.851, 615.4085
1080.779, 620.2776
1082.708, 620.0710
1084.636, 611.1844
1086.565, 603.4208
1088.493, 598.5163
1090.422, 593.6017
1092.350, 592.5928
1094.278, 590.0014
1096.207, 577.3824
1098.135, 564.7947
1100.064, 561.3040
1101.992, 555.7271
1103.921, 541.3510
1105.849, 532.3771
1107.778, 531.9137
1109.706, 530.1109
1111.635, 526.5352
1113.563, 517.1143
1115.492, 501.8964
1117.420, 492.9726
1119.349, 490.0870
1121.277, 480.3931
1123.205, 463.7138
1125.134, 459.0218
1127.062, 465.8824
1128.991, 463.1027
1130.919, 453.7067
1132.848, 448.6550
1134.776, 444.7408
1136.705, 436.4385
1138.633, 424.6312
1140.562, 417.8046
1142.490, 418.2434
1144.419, 421.3195
1146.347, 420.9044
1148.276, 415.8586
1150.204, 413.3455
1152.132, 414.7784
1154.061, 414.8050
1155.989, 413.8547
1157.918, 412.2048
1159.846, 407.2484
1161.775, 401.6875
1163.703, 399.5043
1165.632, 404.6950
1167.560, 412.2992
1169.489, 409.2968
1171.417, 401.2119
1173.346, 399.0129
1175.274, 399.8073
1177.203, 399.7327
1179.131, 396.9890
1181.059, 392.7982
1182.988, 391.1254
1184.916, 392.9137
1186.845, 395.9662
1188.773, 400.1967
1190.702, 404.8456
1192.630, 402.2380
1194.559, 395.3605
1196.487, 397.9036
1198.416, 404.9757
1200.344, 402.0828
1202.273, 395.6675
1204.201, 395.3205
1206.130, 399.8356
1208.058, 411.9838
1209.986, 416.6663
1211.915, 401.9606
1213.843, 392.2185
1215.772, 393.3164
1217.700, 397.8123
1219.629, 409.8900
1221.557, 414.3001
1223.486, 402.1809
1225.414, 394.8994
1227.343, 398.5743
1229.271, 403.8201
1231.200, 407.9511
1233.128, 406.1715
1235.057, 400.3499
1236.985, 397.5292
1238.913, 397.9218
1240.842, 402.3842
1242.770, 405.5534
1244.699, 398.4948
1246.627, 391.0306
1248.556, 394.0612
1250.484, 397.5476
1252.413, 391.9359
1254.341, 388.2388
1256.270, 394.2692
1258.198, 399.9560
1260.127, 401.8164
1262.055, 400.7440
1263.984, 398.7426
1265.912, 395.6286
1267.840, 389.4979
1269.769, 391.6800
1271.697, 400.8469
1273.626, 405.7249
1275.554, 407.2050
1277.483, 400.2643
1279.411, 390.8712
1281.340, 396.6774
1283.268, 404.3779
1285.197, 394.4011
1287.125, 383.8471
1289.054, 385.6804
1290.982, 389.3253
1292.911, 391.2471
1294.839, 395.3900
1296.767, 404.3490
1298.696, 408.4250
1300.624, 408.2463
1302.553, 403.5604
1304.481, 391.5624
1306.410, 387.9045
1308.338, 392.5036
1310.267, 396.0802
1312.195, 397.3953
1314.124, 393.5207
1316.052, 390.9013
1317.981, 397.7448
1319.909, 404.5513
1321.838, 406.1437
1323.766, 404.5510
1325.694, 399.4893
1327.623, 395.7107
1329.551, 393.8045
1331.480, 393.1762
1333.408, 393.8186
1335.337, 400.2624
1337.265, 410.7083
1339.194, 406.4773
1341.122, 394.1370
1343.051, 388.8453
1344.979, 388.7308
1346.908, 396.7264
1348.836, 401.5818
1350.765, 391.9212
1352.693, 385.6553
1354.621, 390.1111
1356.550, 395.7461
1358.478, 401.9540
1360.407, 399.2641
1362.335, 385.9206
1364.264, 384.5217
1366.192, 393.1629
1368.121, 399.8177
1370.049, 402.7007
1371.978, 394.9117
1373.906, 385.6915
1375.835, 384.0227
1377.763, 386.2993
1379.692, 394.4778
1381.620, 397.4174
1383.548, 391.0156
1385.477, 385.4619
1387.405, 382.2420
1389.334, 380.2531
1391.262, 379.1112
1393.191, 376.3028
1395.119, 373.2854
1397.048, 373.6313
1398.976, 375.7566
1400.905, 379.7419
1402.833, 381.7415
1404.762, 376.0747
1406.690, 374.3893
1408.619, 380.7946
1410.547, 386.4892
1412.475, 390.6191
1414.404, 388.8948
1416.332, 382.9017
1418.261, 382.1079
1420.189, 383.3217
1422.118, 378.4604
1424.046, 374.6538
1425.975, 384.1315
1427.903, 388.0572
1429.832, 368.8194
1431.760, 359.5569
1433.689, 369.6433
1435.617, 373.2647
1437.546, 369.4103
1439.474, 362.9174
1441.402, 356.8583
1443.331, 362.7650
1445.259, 371.2067
1447.188, 369.0565
1449.116, 367.8422
1451.045, 380.2348
1452.973, 385.0782
1454.902, 370.0270
1456.830, 360.9842
1458.759, 359.3434
1460.687, 359.7910
1462.616, 362.9121
1464.544, 376.7941
1466.473, 389.2151
1468.401, 379.8397
1470.329, 367.8970
1472.258, 364.0284
1474.186, 363.8579
1476.115, 367.8229
1478.043, 369.1111
1479.972, 366.8413
1481.900, 366.8534
1483.829, 367.7718
1485.757, 361.1850
1487.686, 355.2146
1489.614, 366.3351
1491.543, 372.4295
1493.471, 357.6875
1495.400, 350.0898
1497.328, 358.1326
1499.256, 368.7968
1501.185, 380.4486
1503.113, 378.8778
1505.042, 369.5394
1506.970, 362.3349
1508.899, 360.9815
1510.827, 377.4298
1512.756, 385.2861
1514.684, 373.0228
1516.613, 360.4273
1518.541, 350.7749
1520.470, 348.2578
1522.398, 351.2856
1524.327, 352.4510
1526.255, 353.3080
1528.183, 356.7794
1530.112, 359.9642
1532.040, 360.7496
1533.969, 362.6089
1535.897, 366.8183
1537.826, 363.0425
1539.754, 352.8406
1541.683, 356.4466
1543.611, 365.6575
1545.540, 365.6678
1547.468, 361.8853
1549.397, 355.1087
1551.325, 353.3615
1553.254, 360.5523
1555.182, 359.0898
1557.110, 349.0511
1559.039, 347.7383
1560.967, 351.7359
1562.896, 353.3319
1564.824, 354.6781
1566.753, 359.2133
1568.681, 360.6999
1570.610, 355.5175
1572.538, 354.3173
1574.467, 357.5685
1576.395, 364.0461
1578.324, 369.5815
1580.252, 364.2249
1582.181, 357.3409
1584.109, 354.9407
1586.037, 356.5578
1587.966, 364.6914
1589.894, 368.7383
1591.823, 368.5524
1593.751, 363.8417
1595.680, 360.4803
1597.608, 375.6693
1599.537, 385.0587
1601.465, 365.2767
1603.394, 349.3099
1605.322, 346.7380
1607.251, 342.4629
1609.179, 337.7409
1611.108, 344.8006
1613.036, 355.2242
1614.964, 360.0741
1616.893, 359.6015
1618.821, 349.5987
1620.750, 348.4871
1622.678, 361.7111
1624.607, 357.7722
1626.535, 344.4476
1628.464, 347.5732
1630.392, 354.7566
1632.321, 355.4379
1634.249, 357.7794
1636.178, 364.4380
1638.106, 374.3740
1640.035, 386.4700
1641.963, 389.3154
1643.891, 388.4465
1645.820, 392.5785
1647.748, 398.0018
1649.677, 405.4369
1651.605, 402.0277
1653.534, 385.1086
1655.462, 375.4246
1657.391, 371.2010
1659.319, 366.0487
1661.248, 363.4959
1663.176, 369.5641
1665.105, 370.0246
1667.033, 361.1818
1668.962, 355.1882
1670.890, 351.1916
1672.818, 337.9787
1674.747, 325.1646
1676.675, 325.5953
1678.604, 327.8387
1680.532, 328.9936
1682.461, 326.7543
1684.389, 321.6037
1686.318, 318.1914
1688.246, 315.7471
1690.175, 312.7840
1692.103, 310.9232
1694.032, 312.0930
1695.960, 308.6903
1697.889, 301.0672
1699.817, 302.4606
1701.745, 307.5977
1703.674, 307.3382
1705.602, 306.2834
1707.531, 307.0646
1709.459, 307.9303
1711.388, 308.6808
1713.316, 307.5794
1715.245, 305.8660
1717.173, 306.5038
1719.102, 306.4782
1721.030, 303.2990
1722.959, 300.3807
1724.887, 298.0593
1726.816, 296.9957
1728.744, 296.3445
1730.672, 294.0167
1732.601, 292.3156
1734.529, 291.9814
1736.458, 294.9671
1738.386, 301.6949
1740.315, 299.3239
1742.243, 293.9937
1744.172, 297.0573
1746.100, 301.0663
1748.029, 303.2640
1749.957, 301.8588
1751.886, 297.0072
1753.814, 294.8789
1755.743, 294.7037
1757.671, 297.5572
1759.599, 296.2431
1761.528, 284.5067
1763.456, 284.5651
1765.385, 295.2742
1767.313, 295.1846
1769.242, 291.0416
1771.170, 289.7739
1773.099, 289.4190
1775.027, 289.9688
1776.956, 284.1417
1778.884, 275.4517
1780.813, 281.4144
1782.741, 288.7122
1784.670, 286.8233
1786.598, 283.7798
1788.526, 281.2579
1790.455, 278.7846
1792.383, 275.8666
1794.312, 269.0763
1796.240, 266.1256
1798.169, 272.0259
1800.097, 273.5815
1802.026, 270.0342
1803.954, 273.8245
1805.883, 277.4124
1807.811, 266.3428
1809.740, 260.8643
1811.668, 267.2242
1813.597, 266.5343
1815.525, 261.9278
1817.453, 271.7232
1819.382, 280.4421
1821.310, 272.1132
1823.239, 268.3192
1825.167, 270.9661
1827.096, 263.2864
1829.024, 254.2584
1830.953, 259.6193
1832.881, 266.2177
1834.810, 270.4040
1836.738, 269.6866
1838.667, 265.1869
1840.595, 260.7539
1842.524, 258.4611
1844.452, 261.4336
1846.380, 262.4325
1848.309, 261.1078
1850.237, 260.0901
1852.166, 258.1094
1854.094, 250.5355
1856.023, 249.0242
1857.951, 262.2670
1859.880, 261.3830
1861.808, 251.3073
1863.737, 248.3635
1865.665, 250.0228
1867.594, 257.3444
1869.522, 257.9465
1871.451, 252.0947
1873.379, 252.1058
1875.307, 252.7380
1877.236, 248.3807
1879.164, 243.5005
1881.093, 239.4711
1883.021, 243.0504
1884.950, 248.2695
1886.878, 249.4827
1888.807, 249.1937
1890.735, 246.1511
1892.664, 242.4470
1894.592, 238.7180
1896.521, 238.3954
1898.449, 239.6606
1900.378, 240.8531
1902.306, 240.7473
1904.234, 239.6632
1906.163, 236.9904
1908.091, 232.6714
1910.020, 225.7276
1911.948, 225.7052
1913.877, 232.3677
1915.805, 231.8062
1917.734, 229.8237
1919.662, 235.9260
1921.591, 235.4057
1923.519, 225.6341
1925.448, 227.3301
1927.376, 232.7782
1929.305, 225.5062
1931.233, 221.5213
1933.161, 226.6742
1935.090, 230.9047
1937.018, 232.0722
1938.947, 228.8712
1940.875, 225.3996
1942.804, 222.0023
1944.732, 219.2827
1946.661, 217.4404
1948.589, 213.5935
1950.518, 211.4756
1952.446, 213.7635
1954.375, 218.4686
1956.303, 221.9370
1958.232, 212.9830
1960.160, 208.3895
1962.089, 222.9068
1964.017, 223.1949
1965.945, 213.2499
1967.874, 209.2217
1969.802, 210.6304
1971.731, 220.1800
1973.659, 218.5985
1975.588, 210.0575
1977.516, 213.2068
1979.445, 217.4901
1981.373, 217.9606
1983.302, 216.1878
1985.230, 213.0591
1987.159, 213.1933
1989.087, 214.2849
1991.016, 215.5619
1992.944, 213.9595
1994.872, 210.9741
1996.801, 208.3622
1998.729, 206.3648
2000.658, 208.1829
2002.586, 206.0093
2004.515, 199.9636
2006.443, 190.2413
2008.372, 185.4866
2010.300, 191.2036
2012.229, 194.6369
2014.157, 195.6496
2016.086, 196.9009
2018.014, 197.1478
2019.943, 197.0073
2021.871, 194.0627
2023.799, 188.6797
2025.728, 185.3109
2027.656, 187.3635
2029.585, 197.0692
2031.513, 193.1657
2033.442, 182.8231
2035.370, 182.3287
2037.299, 182.7733
2039.227, 182.2398
2041.156, 181.4078
2043.084, 180.9456
2045.013, 181.4122
2046.941, 185.0904
2048.869, 191.1346
2050.798, 181.3318
2052.726, 170.7775
2054.655, 176.7625
2056.583, 183.1714
2058.512, 188.7887
2060.440, 190.8036
2062.369, 188.5313
2064.297, 178.8582
2066.226, 175.3668
2068.154, 177.9586
2070.083, 180.9840
2072.011, 181.6344
2073.940, 177.4427
2075.868, 181.1675
2077.797, 187.1680
2079.725, 184.1400
2081.654, 178.7005
2083.582, 171.9513
2085.510, 174.7120
2087.439, 179.4220
2089.367, 177.8942
2091.296, 174.0179
2093.224, 167.7919
2095.153, 163.6131
2097.081, 163.0074
2099.010, 169.5510
2100.938, 165.7149
2102.867, 154.8354
2104.795, 156.9186
2106.724, 161.0302
2108.652, 161.8343
2110.581, 166.3172
2112.509, 170.7659
2114.438, 166.7686
2116.366, 165.7025
2118.294, 170.4826
2120.223, 162.3559
2122.151, 154.9017
2124.080, 160.9901
2126.008, 162.6720
2127.937, 159.0086
2129.865, 154.6517
2131.794, 152.5589
2133.722, 154.3262
2135.651, 151.4938
2137.579, 148.1964
2139.508, 153.5137
2141.436, 158.9655
2143.365, 162.5926
2145.293, 164.0997
2147.221, 165.0549
2149.150, 165.7865
2151.078, 160.9896
2153.007, 154.1965
2154.935, 150.9258
2156.864, 151.6136
2158.792, 156.0521
2160.721, 156.6039
2162.649, 154.1085
2164.578, 146.0630
2166.506, 144.3535
2168.435, 148.7702
2170.363, 144.9669
2172.292, 140.9112
2174.220, 141.7301
2176.148, 140.1651
2178.077, 139.3505
2180.005, 150.9214
2181.934, 154.1160
2183.862, 149.3208
2185.791, 151.0663
2187.719, 150.9082
2189.648, 143.9474
2191.576, 141.8478
2193.505, 143.9014
2195.433, 149.4028
2197.362, 143.6750
2199.290, 129.9263
2201.219, 131.5575
2203.147, 136.5946
2205.075, 143.0625
2207.004, 142.0297
2208.932, 136.7004
2210.861, 141.8036
2212.789, 142.5444
2214.718, 136.0465
2216.646, 138.7560
2218.575, 142.3968
2220.503, 142.9662
2222.432, 141.8981
2224.360, 137.2754
2226.289, 128.8225
2228.217, 125.9008
2230.146, 128.6615
2232.074, 134.8075
2234.002, 134.5393
2235.931, 128.0088
2237.859, 126.8315
2239.788, 124.9272
2241.716, 119.0610
2243.645, 126.9515
2245.573, 139.8538
2247.502, 134.6649
2249.430, 133.5371
2251.359, 135.7422
2253.287, 128.7942
2255.216, 122.8243
2257.144, 126.8875
2259.073, 128.6888
2261.001, 126.2225
2262.929, 126.8972
2264.858, 130.9615
2266.786, 132.5523
2268.715, 127.0261
2270.643, 120.2101
2272.572, 112.8509
2274.500, 115.8607
2276.429, 121.3489
2278.357, 123.0234
2280.286, 121.3823
2282.214, 116.2720
2284.143, 119.0367
2286.071, 121.6771
2288.000, 120.4411
2289.928, 118.5959
2291.856, 118.1120
2293.785, 119.9005
2295.713, 123.9034
2297.642, 125.3173
2299.570, 118.6830
2301.499, 114.4511
2303.427, 111.8477
2305.356, 109.7298
2307.284, 109.5826
2309.213, 106.2896
2311.141, 104.3139
2313.070, 107.1355
2314.998, 105.1874
2316.927, 101.7524
2318.855, 102.3589
2320.783, 105.2198
2322.712, 108.4110
2324.640, 110.2233
2326.569, 106.4617
2328.497, 97.08654
2330.426, 92.29015
2332.354, 99.87471
2334.283, 103.0648
2336.211, 101.1795
2338.140, 102.3308
2340.068, 100.6430
2341.997, 97.40555
2343.925, 97.15849
2345.854, 99.89460
2347.782, 96.19593
2349.710, 96.73822
2351.639, 103.7675
2353.567, 96.44683
2355.496, 91.44371
2357.424, 93.92118
2359.353, 95.17845
2361.281, 92.49789
2363.210, 87.26797
2365.138, 86.82195
2367.067, 90.91692
2368.995, 92.71331
2370.924, 85.55516
2372.852, 81.51302
2374.781, 85.24694
2376.709, 86.74014
2378.637, 85.37756
2380.566, 84.17228
2382.494, 91.75595
2384.423, 98.98218
2386.351, 94.84563
2388.280, 86.77731
2390.208, 81.08007
2392.137, 85.68765
2394.065, 85.69218
2395.994, 84.74812
2397.922, 88.85228
2399.851, 90.53148
2401.779, 89.67598
2403.708, 92.03430
2405.636, 87.97527
2407.564, 76.35957
2409.493, 79.40604
2411.421, 84.45199
2413.350, 85.73854
2415.278, 83.44704
2417.207, 80.05757
2419.135, 84.02579
2421.064, 84.92429
2422.992, 81.97972
2424.921, 80.66801
2426.849, 82.46579
2428.778, 81.09673
2430.706, 78.68130
2432.635, 80.46297
2434.563, 83.48853
2436.491, 78.15031
2438.420, 73.48817
2440.348, 74.13011
2442.277, 74.74689
2444.205, 75.57887
2446.134, 74.01673
2448.062, 76.92100
2449.991, 77.82181
2451.919, 71.37372
2453.848, 69.42676
2455.776, 69.83607
2457.705, 64.81644
2459.633, 66.70705
2461.562, 75.50223
2463.490, 76.54532
2465.418, 69.58624
2467.347, 67.15107
2469.275, 66.99520
2471.204, 67.92380
2473.132, 67.15234
2475.061, 64.61888
2476.989, 61.05256
2478.918, 61.36417
2480.846, 68.54783
2482.775, 60.00219
2484.703, 52.79850
2486.632, 60.54739
2488.560, 73.80343
2490.489, 78.00861
2492.417, 63.06450
2494.345, 65.99833
2496.274, 71.45337
2498.202, 66.46722
2500.131, 63.46323
2502.059, 62.76953
2503.988, 71.41997
2505.916, 73.25246
2507.845, 69.16960
2509.773, 67.20972
2511.702, 67.74451
2513.630, 68.77871
2515.559, 65.66401
2517.487, 64.10215
2519.416, 64.37560
2521.344, 62.78436
2523.272, 62.62162
2525.201, 63.60091
2527.129, 64.62562
2529.058, 66.03593
2530.986, 67.71181
2532.915, 66.48959
2534.843, 59.75104
2536.772, 54.50217
2538.700, 58.15511
2540.629, 60.63734
2542.557, 60.49022
2544.486, 52.57341
2546.414, 51.70034
2548.343, 55.65915
2550.271, 54.95204
2552.199, 53.92416
2554.128, 53.89142
2556.056, 56.76302
2557.985, 55.24249
2559.913, 51.59324
2561.842, 54.46153
2563.770, 54.89365
2565.699, 52.04531
2567.627, 54.74163
2569.556, 53.99239
2571.484, 50.34336
2573.413, 48.48673
2575.341, 49.86005
2577.270, 51.07196
2579.198, 44.72039
2581.126, 51.54934
2583.055, 59.94079
2584.983, 54.23521
2586.912, 53.90096
2588.840, 54.61778
2590.769, 50.68815
2592.697, 51.85759
2594.626, 54.58783
2596.554, 55.85087
2598.483, 49.39774
2600.411, 45.18876
2602.340, 49.15511
2604.268, 51.59916
2606.197, 51.15479
2608.125, 48.20263
2610.053, 48.53304
2611.982, 46.08368
2613.910, 39.40660
2615.839, 36.07262
2617.767, 36.29824
2619.696, 40.09636
2621.624, 45.70694
2623.553, 48.47348
2625.481, 49.69287
2627.410, 51.49174
2629.338, 48.18000
2631.267, 42.48845
2633.195, 48.11163
2635.124, 47.92506
2637.052, 44.88649
2638.980, 47.43543
2640.909, 45.67040
2642.837, 42.55226
2644.766, 37.37012
2646.694, 38.86653
2648.623, 43.16193
2650.551, 44.38144
2652.480, 44.44487
2654.408, 42.49870
2656.337, 38.16053
2658.265, 39.72078
2660.194, 39.64403
2662.122, 38.16111
2664.051, 31.14264
2665.979, 29.51721
2667.907, 35.36850
2669.836, 37.41371
2671.764, 36.91905
2673.693, 36.04102
2675.621, 42.31908
2677.550, 42.66844
2679.478, 39.31934
2681.407, 35.16454
2683.335, 34.10680
2685.264, 32.62768
2687.192, 38.02486
2689.121, 36.94677
2691.049, 33.25647
2692.978, 34.76571
2694.906, 33.73340
2696.834, 33.59509
2698.763, 35.63567
2700.691, 41.87667
2702.620, 43.67621
2704.548, 39.64322
2706.477, 38.20483
2708.405, 35.46438
2710.334, 35.60535
2712.262, 36.38934
2714.191, 36.10723
2716.119, 36.32253
2718.048, 40.43650
2719.976, 40.26101
2721.905, 37.27507
2723.833, 32.04467
2725.761, 30.09832
2727.690, 33.14552
2729.618, 31.07459
2731.547, 28.96824
2733.475, 31.87914
2735.404, 35.95302
2737.332, 32.50860
2739.261, 31.32053
2741.189, 33.09223
2743.118, 30.44020
2745.046, 32.86987
2746.975, 34.27172
2748.903, 28.89468
2750.832, 29.11283
2752.760, 29.09274
2754.688, 30.06603
2756.617, 29.89775
2758.545, 25.69543
2760.474, 30.07617
2762.402, 32.33171
2764.331, 30.92503
2766.259, 30.46140
2768.188, 24.54684
2770.116, 24.07617
2772.045, 27.23524
2773.973, 28.74335
2775.902, 24.04850
2777.830, 20.17964
2779.759, 19.97345
2781.687, 22.37902
2783.615, 26.49705
2785.544, 22.89488
2787.472, 16.65776
2789.401, 21.83522
2791.329, 26.79224
2793.258, 31.98479
2795.186, 29.95849
2797.115, 23.77699
2799.043, 21.19110
2800.972, 18.91776
2802.900, 21.89607
2804.829, 28.96226
2806.757, 27.81732
2808.686, 23.15681
2810.614, 24.45217
2812.542, 20.13513
2814.471, 20.14716
2816.399, 24.97400
2818.328, 27.01236
2820.256, 27.68929
2822.185, 27.99681
2824.113, 26.80526
2826.042, 23.70059
2827.970, 25.37009
2829.899, 21.87160
2831.827, 18.76728
2833.756, 21.13456
2835.684, 24.38768
2837.613, 18.95560
2839.541, 13.77196
2841.469, 15.26391
2843.398, 21.81493
2845.326, 20.70213
2847.255, 15.15310
2849.183, 13.25933
2851.112, 15.73822
2853.040, 19.84637
2854.969, 16.69969
2856.897, 9.814137
2858.826, 18.58357
2860.754, 21.98246
2862.683, 20.08755
2864.611, 15.19980
2866.540, 17.09670
2868.468, 20.85469
2870.396, 18.15779
2872.325, 19.26871
2874.253, 18.93828
2876.182, 18.28576
2878.110, 19.93539
2880.039, 19.73410
2881.967, 19.58509
2883.896, 19.26674
2885.824, 20.56405
2887.753, 18.53363
2889.681, 16.10474
2891.610, 20.04466
2893.538, 19.82600
2895.467, 18.60380
2897.395, 24.34382
2899.323, 20.62702
2901.252, 18.95439
2903.180, 19.20416
2905.109, 18.73396
2907.037, 11.24623
2908.966, 7.765349
2910.894, 13.73975
2912.823, 19.15629
2914.751, 18.43811
2916.680, 12.22876
2918.608, 23.63800
2920.537, 23.14937
2922.465, 16.16945
2924.394, 11.78051
2926.322, 15.57491
2928.250, 18.69315
2930.179, 16.15430
2932.107, 16.01211
2934.036, 17.44592
2935.964, 19.79567
2937.893, 16.24769
2939.821, 11.15451
2941.750, 10.06555
2943.678, 12.61673
2945.607, 12.54234
2947.535, 13.67218
2949.464, 14.36959
2951.392, 14.28632
2953.321, 11.29550
2955.249, 11.74301
2957.177, 13.30796
2959.106, 15.14824
2961.034, 7.932774
2962.963, 6.417004
2964.891, 14.87292
2966.820, 20.51064
2968.748, 18.50885
2970.677, 14.27512
2972.605, 11.55567
2974.534, 14.20893
2976.462, 18.66069
2978.391, 17.63412
2980.319, 12.17109
2982.248, 9.872401
2984.176, 9.659132
2986.104, 15.26762
2988.033, 20.90842
2989.961, 19.26849
2991.890, 13.44505
2993.818, 13.10262
2995.747, 15.31864
2997.675, 13.15194
2999.604, 11.88824
3001.532, 11.76054
3003.461, 11.18536
3005.389, 13.90638
3007.318, 16.49440
3009.246, 14.03228
3011.175, 10.07915
3013.103, 10.40712
3015.031, 15.44126
3016.960, 17.02706
3018.888, 14.22190
3020.817, 11.50935
3022.745, 12.35032
3024.674, 17.76581
3026.602, 15.46360
3028.531, 10.80199
3030.459, 11.42402
3032.388, 12.59956
3034.316, 15.09459
3036.245, 16.06039
3038.173, 5.508878
3040.102, 10.97573
3042.030, 13.80743
3043.958, 8.349773
3045.887, 6.344849
3047.815, 4.016429
3049.744, 7.533601
3051.672, 16.48615
3053.601, 8.183875
3055.529, 7.099763
3057.458, 9.564758
3059.386, 10.21384
3061.315, 7.161739
3063.243, 9.195045
3065.172, 12.62930
3067.100, 10.49448
3069.029, 11.60495
3070.957, 13.64739
3072.885, 14.62870
3074.814, 12.55554
3076.742, 9.794920
3078.671, 15.01744
3080.599, 23.29874
3082.528, 21.07131
3084.456, 17.94733
3086.385, 16.34169
3088.313, 15.93032
3090.242, 13.16350
3092.170, 6.928813
3094.099, 8.743276
3096.027, 17.03280
3097.956, 12.08807
3099.884, 9.862238
3101.813, 10.17372
3103.741, 11.06063
3105.669, 12.54787
3107.598, 14.23652
3109.526, 14.81957
3111.455, 14.81902
3113.383, 12.88725
3115.312, 9.639133
3117.240, 8.979281
3119.169, 11.45679
3121.097, 11.13624
3123.026, 9.900930
3124.954, 5.958331
3126.883, 1.734687
3128.811, 11.91301
3130.740, 11.38383
3132.668, 9.272502
3134.596, 9.977182
3136.525, 6.436511
3138.453, 4.733021
3140.382, 8.450748
3142.310, 15.04204
3144.239, 14.94849
3146.167, 9.229543
3148.096, 8.336789
3150.024, 14.15192
3151.953, 7.063536
3153.881, 6.133799
3155.810, 7.515738
3157.738, 6.937997
3159.667, 6.589020
3161.595, 15.80118
3163.523, 18.84564
3165.452, 17.20486
3167.380, 17.91902
3169.309, 13.86001
3171.237, 13.09087
3173.166, 17.76970
3175.094, 21.29945
3177.023, 16.30576
3178.951, 13.88813
3180.880, 14.70999
3182.808, 15.76928
3184.737, 23.82894
3186.665, 21.53800
3188.594, 16.20135
3190.522, 20.99517
3192.450, 23.15652
3194.379, 13.49671
3196.307, 5.178909
3198.236, 12.97944
3200.164, 15.36346
3202.093, 13.59739
3204.021, 11.02792
3205.950, 12.84552
3207.878, 15.24995
3209.807, 17.30049
3211.735, 15.54647
3213.664, 9.741025
3215.592, 8.204069
3217.521, 3.359207
3219.449, 10.96973
3221.377, 23.53237
3223.306, 17.37381
3225.234, 13.55491
3227.163, 12.89944
3229.091, 11.00057
3231.020, 10.63127
3232.948, 10.91755
3234.877, 17.75256
3236.805, 22.88327
3238.734, 20.26539
3240.662, 15.39284
3242.591, 14.28699
3244.519, 13.44372
3246.448, 13.47377
3248.376, 15.77954
3250.304, 17.76300
3252.233, 16.40487
3254.161, 14.86645
3256.090, 13.20108
3258.018, 15.31166
3259.947, 16.65485
3261.875, 17.01983
3263.804, 15.88879
3265.732, 17.86417
3267.661, 9.408371
3269.589, 11.03964
3271.518, 24.50296
3273.446, 23.76003
3275.375, 17.20328
3277.303, 21.18196
3279.231, 25.22193
3281.160, 20.43504
3283.088, 24.32773
3285.017, 22.85534
3286.945, 15.12102
3288.874, 7.565263
3290.802, 8.780090
3292.731, 10.07069
3294.659, 12.03220
3296.588, 9.844363
3298.516, -0.8020132
3300.445, 9.275894
3302.373, 9.222039
3304.302, 6.990464
3306.230, 8.725326
3308.158, 13.96183
3310.087, 16.56375
3312.015, 11.36798
3313.944, 11.37485
3315.872, 22.58891
3317.801, 17.78223
3319.729, 15.76260
3321.658, 10.06186
3323.586, 5.555570
3325.515, 9.879631
3327.443, 10.99536
3329.372, 7.414067
3331.300, 5.405967
3333.229, 10.81212
3335.157, 15.11846
3337.085, 12.74403
3339.014, 9.996872
3340.942, 10.48429
3342.871, 14.83586
3344.799, 19.37625
3346.728, 16.27074
3348.656, 18.90486
3350.585, 23.76551
3352.513, 7.548413
3354.442, 20.39341
3356.370, 21.05204
3358.299, 17.09050
3360.227, 22.11659
3362.156, 19.28136
3364.084, 21.82906
3366.012, 24.01575
3367.941, 20.80011
3369.869, 12.25411
3371.798, 23.49715
3373.726, 17.69032
3375.655, 19.82853
3377.583, 27.24766
3379.512, 16.26270
3381.440, 14.13511
3383.369, 4.360885
3385.297, 3.123001
3387.226, 13.80487
3389.154, 17.14730
3391.083, 21.06393
3393.011, 26.03853
3394.939, 25.38850
3396.868, 18.26762
3398.796, 19.24953
3400.725, 5.930382
3402.653, 10.21426
3404.582, 13.92142
3406.510, 2.983937
3408.439, 10.48410
3410.367, 16.15718
3412.296, 15.02610
3414.224, 15.26628
3416.153, 20.48297
3418.081, 14.10274
3420.010, 13.33049
3421.938, 17.40154
3423.866, 18.34799
3425.795, 13.50248
3427.723, 26.96446
3429.652, 21.29934
3431.580, 18.35505
3433.509, 18.53754
3435.437, 15.76404
3437.366, 13.78403
3439.294, 8.964956
3441.223, 7.398349
3443.151, 11.29966
3445.080, 19.44995
3447.008, 26.78830
3448.937, 21.05114
3450.865, 19.70430
3452.793, 20.22158
3454.722, 18.64196
3456.650, 22.45302
3458.579, 12.02915
3460.507, 10.06667
3462.436, 14.79236
3464.364, 20.35859
3466.293, 26.08389
3468.221, 13.36272
3470.150, 12.67676
3472.078, 12.60051
3474.007, 8.725750
3475.935, 11.53680
3477.864, 9.533195
3479.792, 20.63577
3481.720, 20.94445
3483.649, 13.76788
3485.577, 17.93716
3487.506, 19.31791
3489.434, 6.227914
3491.363, 7.557115
3493.291, 17.21391
3495.220, 17.84836
3497.148, 5.437127
3499.077, 13.93576
3501.005, 21.63217
3502.934, 21.62466
3504.862, 17.63965
3506.791, 18.16608
3508.719, 7.758054
3510.647, 24.75371
3512.576, 30.94901
3514.504, 26.36345
3516.433, 38.07245
3518.361, 31.90190
3520.290, 33.62127
3522.218, 26.06812
3524.147, 28.01208
3526.075, 44.18576
3528.004, 24.37130
3529.932, 30.65914
3531.861, 30.98374
3533.789, 29.51150
3535.718, 26.51992
3537.646, 15.70887
3539.574, 22.36983
3541.503, 15.64885
3543.431, 20.65144
3545.360, 27.01904
3547.288, 23.15191
3549.217, 20.30559
3551.145, 26.11299
3553.074, 23.77209
3555.002, 14.34975
3556.931, 15.60070
3558.859, 34.16613
3560.788, 20.01052
3562.716, 24.93697
3564.645, 18.07163
3566.573, 17.52468
3568.501, 23.57287
3570.430, 13.86265
3572.358, 14.87828
3574.287, 24.37018
3576.215, 26.37049
3578.144, 24.85631
3580.072, 23.97975
3582.001, 17.55559
3583.929, 18.18413
3585.858, 19.41875
3587.786, 18.55281
3589.715, 21.07506
3591.643, 26.33754
3593.572, 15.48567
3595.500, 4.671071
3597.428, 14.00629
3599.357, 9.660211
3601.285, 3.980437
3603.214, 16.46116
3605.142, 10.48363
3607.071, 18.78531
3608.999, 10.83138
3610.928, 8.669778
3612.856, 13.08190
3614.785, 12.09609
3616.713, 10.28164
3618.642, 25.39084
3620.570, 5.082368
3622.499, -0.6217785
3624.427, 0.6039793
3626.355, -14.66937
3628.284, -8.649955
3630.212, -19.34491
3632.141, -2.883182
3634.069, 9.213010
3635.998, 10.56338
3637.926, 11.55571
3639.855, 12.66662
3641.783, 7.495573
3643.712, 1.252040
3645.640, 15.06538
3647.569, 22.25021
3649.497, 7.564706
3651.426, -4.927435
3653.354, -0.7043726
3655.282, 3.486322
3657.211, 3.880900
3659.139, 6.390448
3661.068, 14.31542
3662.996, 22.08805
3664.925, 6.798912
3666.853, 1.863266
3668.782, -0.7602130
3670.710, 3.949632
3672.639, 8.904955
3674.567, 7.648181
3676.496, 12.02095
3678.424, -0.4716718
3680.353, -4.644736
3682.281, -0.7141575
3684.209, 2.773864
3686.138, 4.552794
3688.066, 8.436552
3689.995, -0.9205604
3691.923, 3.260434
3693.852, 2.465420
3695.780, 4.818965
3697.709, 6.524187
3699.637, 3.026206
3701.566, 4.480211
3703.494, 8.450611
3705.423, 4.380003
3707.351, 4.740740
3709.280, 4.148556
3711.208, 4.794919
3713.136, 8.844321
3715.065, -3.892718
3716.993, -10.66700
3718.922, 9.445449
3720.850, 8.302728
3722.779, -0.7936651
3724.707, 0.5689888
3726.636, 4.493780
3728.564, -6.848815
3730.493, 1.210611
3732.421, -8.135094
3734.350, -5.091222
3736.278, -1.237984
3738.207, -0.7209109
3740.135, 8.634443
3742.063, -1.235631
3743.992, 3.946980
3745.920, 12.47675
3747.849, 11.59541
3749.777, 9.154387
3751.706, 9.320394
3753.634, 8.748552
3755.563, 15.85021
3757.491, 1.996842
3759.420, 1.620274
3761.348, 11.87083
3763.277, 11.60594
3765.205, 1.575332
3767.134, -3.709430
3769.062, -2.237919
3770.990, 2.227449
3772.919, -7.862465
3774.847, 1.867370
3776.776, 9.980220
3778.704, 6.663673
3780.633, 3.660404
3782.561, 12.30209
3784.490, 24.20904
3786.418, 1.271957
3788.347, -1.748773
3790.275, 4.944214
3792.204, 0.2979478
3794.132, -3.250637
3796.061, 6.613725
3797.989, -5.768846
3799.917, -4.179030
3801.846, -6.364253
3803.774, -5.260530
3805.703, -4.319655
3807.631, -0.9650992
3809.560, 5.406519
3811.488, 8.787310
3813.417, 8.241043
3815.345, 5.226940
3817.274, 0.7773811
3819.202, -1.634246
3821.131, -6.553759
3823.059, -0.9555550
3824.988, 10.71529
3826.916, -0.5325452
3828.844, -5.523963
3830.773, 7.240861
3832.701, 15.86580
3834.630, 3.308591
3836.558, -0.7348887
3838.487, 4.004043
3840.415, 7.228012
3842.344, 12.24515
3844.272, 1.348820
3846.201, -1.980288
3848.129, 0.3827493
3850.058, 4.576677
3851.986, 4.578268
3853.915, 5.738047
3855.843, 6.783911
3857.771, 2.370932
3859.700, 3.946464
3861.628, 2.545351
3863.557, -4.9910549E-02
3865.485, -3.914720
3867.414, 6.915009
3869.342, 1.514529
3871.271, -6.711728
3873.199, 3.069401
3875.128, 4.061094
3877.056, 1.213546
3878.985, -11.96762
3880.913, -2.784489
3882.842, -7.305086
3884.770, 3.601973
3886.698, 2.238132
3888.627, -7.309283
3890.555, 1.913006
3892.484, -0.8564589
3894.412, -5.900253
3896.341, 0.1164316
3898.269, -3.734177
3900.198, 2.077346
3902.126, 6.929003
3904.055, 3.208263
3905.983, -3.026585
3907.912, -0.9669836
3909.840, 8.825010
3911.769, -9.763323
3913.697, -2.726263
3915.625, 7.146646
3917.554, 2.387847
3919.482, -7.246041
3921.411, -1.057126
3923.339, 8.813178
3925.268, 7.996687
3927.196, 8.279102
3929.125, 10.21192
3931.053, 6.313611
3932.982, -1.061210
3934.910, 2.396849
3936.839, -2.050991
3938.767, -4.867904
3940.696, 2.3588469E-02
3942.624, 2.345350
3944.552, -0.2623074
3946.481, 5.956259
3948.409, 6.621857
3950.338, -3.043957
3952.266, -10.06067
3954.195, -1.721448
3956.123, -7.580620
3958.052, -12.53038
3959.980, -2.261303
3961.909, 5.794792
3963.837, -2.543625
3965.766, -10.52880
3967.694, -3.808934
3969.623, -0.9363030
3971.551, 6.301847
3973.479, 1.732541
3975.408, 7.485702
3977.336, 2.340905
3979.265, -3.7315089E-02
3981.193, 8.907516
3983.122, 14.12947
3985.050, 7.809329
3986.979, 4.364717
3988.907, 7.408574
3990.836, -1.605213
3992.764, 6.525318
3994.693, 12.22207
3996.621, 9.580821
3998.550, -4.719514
4000.478, -0.4158586
4002.406, 8.517663
4004.335, 5.423077
4006.263, 6.529481
4008.192, 5.093430
4010.120, -13.65856
4012.049, 4.517680
4013.977, 7.316979
4015.906, 7.027662
4017.834, 2.256060
4019.763, 3.521241
4021.691, 5.817721
4023.620, -0.3778732
4025.548, -4.836041
4027.477, -1.222150
4029.405, 1.246513
4031.333, 6.278790
4033.262, -8.675923
4035.190, -0.3270308
4037.119, 1.036672
4039.047, 2.342093
4040.976, -8.028492
4042.904, -2.774738
4044.833, 1.140965
4046.761, 8.8431977E-02
4048.690, -3.588001
4050.618, -4.192302
4052.547, 4.722990
4054.475, 9.378014
4056.404, 9.587684
4058.332, 2.890848
4060.260, -0.6708633
4062.189, 11.33659
4064.117, -6.265997
4066.046, -1.614112
4067.974, 14.87159
4069.903, 11.86302
4071.831, 4.779747
4073.760, 6.376395
4075.688, 11.69583
4077.617, 8.322968
4079.545, -8.620699
4081.474, 5.799070
4083.402, 6.579339
4085.331, -7.734929
4087.259, 3.833323
4089.188, -2.928558
4091.116, 2.013797
4093.044, -1.710683
4094.973, -4.575172
4096.901, -2.157082
4098.830, -2.902570
4100.758, -2.766323
4102.687, -3.4943219E-02
4104.615, 2.246943
4106.544, 4.315038
4108.472, 0.3413644
4110.401, 6.164644
4112.329, 5.087100
4114.258, -10.28882
4116.186, -6.448358
4118.115, 6.534064
4120.043, -5.879023
4121.972, 1.526434
4123.900, 5.472664
4125.829, 16.40930
4127.757, 9.569266
4129.686, 13.82725
4131.614, 17.06947
4133.542, 3.553038
4135.471, -2.415241
4137.399, -3.196429
4139.328, 13.35277
4141.256, 8.299502
4143.185, 15.88952
4145.113, 2.370903
4147.042, 1.904842
4148.970, 3.392962
4150.898, -1.081403
4152.827, 4.606505
4154.755, 12.56235
4156.684, 4.185145
4158.612, 1.432519
4160.541, 10.05131
4162.469, 8.098702
4164.398, -2.439834
4166.326, -2.865783
4168.255, 8.035695
4170.183, 8.245749
4172.112, -6.153748
4174.040, 3.401877
4175.969, 3.971728
4177.897, -1.679778
4179.826, -0.1350713
4181.754, -6.497474
4183.683, 4.599966
4185.611, -3.620741
4187.540, 4.369773
4189.468, 5.743029
4191.396, 3.841760
4193.325, 8.534540
4195.253, 10.92907
4197.182, 15.50681
4199.110, 11.26214
4201.039, 5.845108
4202.967, -2.107591
4204.896, 0.8534698
4206.824, 8.446395
4208.752, 4.429234
4210.681, 3.891214
4212.609, 8.266041
4214.538, 13.63960
4216.466, 17.21905
4218.395, 10.52500
4220.323, -6.822864
4222.252, 2.519821
4224.180, 1.971057
4226.109, 8.686509
4228.037, 16.65375
4229.966, 2.293782
4231.894, 11.53131
4233.823, 17.65825
4235.751, 1.291401
4237.680, 4.728586
4239.608, 5.521230
4241.537, -10.99249
4243.465, -7.107842
4245.394, 2.670843
4247.322, 5.925978
4249.250, 8.275770
4251.179, 1.861297
4253.107, 1.971458
4255.036, 6.514731
4256.964, 0.5651092
4258.893, -3.599283
4260.821, 6.570830
4262.750, 6.729371
4264.678, -6.402518
4266.606, -2.5335930E-02
4268.535, -0.3953266
4270.463, 7.546559
4272.392, 3.871301
4274.320, 18.14432
4276.249, 4.505567
4278.177, 11.50219
4280.106, 2.587793
4282.034, -5.241270
4283.963, -0.9906990
4285.891, 15.60154
4287.820, 10.11198
4289.748, 0.5057889
4291.677, 7.239143
4293.605, 0.7142395
4295.534, 4.296020
4297.462, 9.065166
4299.391, -0.1318664
4301.319, 14.78841
4303.248, 11.71171
4305.176, 4.364492
4307.104, -9.332140
4309.033, -0.4388711
4310.961, 0.8768923
4312.890, 1.017133
4314.818, -1.322038
4316.747, 3.251882
4318.675, 10.80050
4320.604, 9.973608
4322.532, 0.5797814
4324.460, -2.425975
4326.389, -4.242795
4328.317, -2.330810
4330.246, 10.53030
4332.174, 10.58009
4334.103, 4.157110
4336.031, 5.580856
4337.960, 1.148325
4339.888, -8.040951
4341.817, 1.635747
4343.745, 6.225799
4345.674, 7.944079
4347.602, 5.615148
4349.531, 0.2376663
4351.459, 5.339560
4353.388, 6.918311
4355.316, 6.303412
4357.245, 2.398561
4359.173, 1.381807
4361.102, 4.842870
4363.030, 10.37718
4364.958, 0.4348623
4366.887, -2.181918
4368.815, 13.15969
4370.744, 4.237012
4372.672, 5.281211
4374.601, 1.842841
4376.529, -1.3686200E-02
4378.458, -1.325476
4380.386, -0.9999385
4382.314, 3.740657
##END=



