##NAMES=Metauroxite
##RRUFFID=R250101
##IDEAL CHEMISTRY=(UO_2_)_2_(C_2_O_4_)(OH)_2_(H_2_O)_2_
##LOCALITY=Burro mine, Slick Rock district, San Miguel County, Colorado, USA
##OWNER=Natural History Museum of Los Angeles County
##SOURCE=Tony Kampf
##DESCRIPTION=Light yellow crude blades and tablets exhibiting weak green–grey fluorescence. Type sample, described in Kampf et al (2020)
##STATUS=The identification of this mineral is confirmed by single-crystal X-ray diffraction and chemical analysis
##URL=https://www.rruff.net/odr/rruff_sample/R250101
##MEASURED CHEMISTRY=(U_1.00_O_2_)_2_(C_2_O_4_)(OH)_2_(H_2_O)_2_
##DIFFRACTION SAMPLE DESCRIPTION=Single crystal, powder profile is calculated
##CELL PARAMETERS=a: 5.5635 b: 6.1152 c: 7.8283 alpha: 85.572 beta: 89.34 gamma: 82.468 volume: 263.25 crystal system: triclinic
##FILETYPE=Raman RAW
##RAMAN WAVELENGTH=532

60.3338	290.526
62.2176	352.948
64.101	354.738
65.9818	246.528
67.8644	260.213
69.7467	268.424
71.6264	194.424
73.5079	120.53
75.3868	116.636
77.2676	115.373
79.1458	118.952
81.0236	121.795
82.9011	124.638
84.7803	125.059
86.657	124.639
88.5333	124.744
90.4093	130.534
92.2849	131.587
94.1601	130.535
96.0349	134.01
97.9093	136.852
99.7834	141.484
101.655	154.958
103.528	163.906
105.401	186.433
107.272	223.381
109.144	307.276
111.016	405.382
112.885	499.067
114.756	570.857
116.625	593.91
118.493	574.858
120.363	549.069
122.23	490.438
124.097	463.175
125.964	429.702
127.83	356.123
129.696	347.387
131.562	383.072
133.427	414.335
135.292	410.652
137.156	384.442
139.02	305.916
140.884	257.811
142.745	235.496
144.608	242.865
146.471	254.128
148.331	271.392
150.193	283.708
152.052	278.972
153.913	261.815
155.772	241.499
157.63	248.973
159.49	269.29
161.348	337.606
163.205	478.028
165.062	692.975
166.918	935.081
168.774	1094.56
170.63	1146.14
172.485	1001.4
174.34	703.925
176.195	455.399
178.049	329.4
179.903	260.243
181.754	225.401
183.607	193.823
185.46	179.191
187.31	172.771
189.162	160.35
191.011	151.719
192.861	152.351
194.711	145.51
196.56	142.879
198.408	139.195
200.255	139.827
202.105	135.933
203.952	141.302
205.798	141.513
207.645	146.776
209.49	145.935
211.336	152.251
213.179	159.936
215.023	163.936
216.868	178.568
218.712	187.727
220.553	208.043
222.397	230.359
224.237	266.149
226.08	299.097
227.92	324.15
229.762	338.361
231.601	320.151
233.44	302.889
235.279	280.994
237.119	286.258
238.957	323.838
240.794	377.628
242.631	459.312
244.468	532.576
246.305	597.419
248.141	627.103
249.974	632.893
251.81	589.315
253.645	529.526
255.479	448.474
257.311	356.579
259.145	276.054
260.977	223.949
262.81	201.949
264.64	192.371
266.471	199.213
268.303	212.898
270.132	239.53
271.962	262.899
273.791	270.268
275.619	278.584
277.447	268.48
279.275	247.743
281.102	220.27
282.93	200.06
284.756	181.324
286.583	171.745
288.409	157.114
290.232	144.588
292.057	139.431
293.88	137.853
295.705	131.011
297.527	125.433
299.351	125.854
301.172	120.802
302.993	119.329
304.816	118.487
306.636	120.067
308.456	119.436
310.276	121.541
312.095	122.384
313.914	122.595
315.732	128.174
317.551	128.596
319.368	128.912
321.184	142.807
323.001	145.124
324.818	164.493
326.632	180.283
328.448	214.073
330.262	255.968
332.077	298.495
333.89	354.916
335.702	383.548
337.516	388.391
339.328	362.812
341.14	304.708
342.951	247.235
344.762	202.077
346.572	170.288
348.382	148.499
350.192	140.71
352.001	133.342
353.81	121.553
355.616	121.764
357.425	117.133
359.233	113.134
361.038	109.766
362.845	110.398
364.65	114.609
366.456	112.504
368.26	117.557
370.064	122.716
371.87	121.664
373.673	127.243
375.475	130.507
377.278	134.507
379.079	137.35
380.881	142.719
382.682	142.193
384.483	144.299
386.282	147.247
388.082	147.773
389.882	142.09
391.679	138.09
393.478	134.091
395.275	128.302
397.073	125.355
398.869	120.724
400.667	113.777
402.462	109.672
404.257	107.883
406.052	104.094
407.846	100.516
409.642	100.095
411.436	98.7273
413.229	95.9909
415.02	95.3598
416.812	96.3077
418.604	95.3609
420.396	98.2035
422.185	95.7829
423.976	97.1518
425.767	92.8365
427.556	90.837
429.346	91.6797
431.133	88.2065
432.921	86.628
434.708	86.839
436.496	85.6816
438.282	85.5769
440.068	86.63
441.854	83.1568
443.639	80.631
445.424	83.2631
447.208	80.5268
448.993	80.2115
450.774	80.5278
452.558	80.7388
454.341	84.1077
456.122	80.845
457.904	79.3719
459.684	80.6355
461.466	83.0571
463.245	82.005
465.024	80.9528
466.805	84.3217
468.583	83.7959
470.361	84.2175
472.139	87.5864
473.916	85.0606
475.693	90.0085
477.47	87.6932
479.246	92.641
481.02	96.8521
482.795	101.905
484.571	104.643
486.343	106.538
488.118	112.433
489.89	125.486
491.664	141.697
493.435	154.329
495.206	174.33
496.979	210.436
498.75	261.383
500.52	336.647
502.29	413.49
504.059	485.49
505.828	520.648
507.597	486.544
509.365	399.386
511.131	300.334
512.899	222.124
514.666	170.019
516.431	135.809
518.198	119.915
519.962	108.547
521.728	99.6004
523.492	92.3378
525.255	93.6014
527.02	89.2861
528.782	83.813
530.545	84.1292
532.306	81.814
534.068	82.8671
535.829	80.0255
537.59	81.7102
539.351	76.7633
541.109	79.9217
542.869	78.9749
544.628	77.7122
546.385	78.239
548.144	77.9237
549.901	71.5032
551.659	75.7142
553.415	72.9779
555.17	73.3994
556.925	72.1368
558.68	73.2952
560.436	74.3483
562.19	72.6646
563.944	73.1914
565.696	72.9814
567.449	71.9292
569.202	74.6666
570.954	72.1408
572.704	73.4044
574.456	73.7207
576.207	78.2475
577.956	82.0375
579.707	86.7749
581.455	86.249
583.203	91.618
584.951	94.0395
586.7	90.04
588.447	87.83
590.194	89.0936
591.941	83.9362
593.687	81.8315
595.43	78.9899
597.176	82.5693
598.921	77.6225
600.665	77.5177
602.408	81.6235
604.152	77.9398
605.893	79.9403
607.637	79.0987
609.378	78.7834
611.118	82.7839
612.861	80.7844
614.601	81.9428
616.34	84.3643
618.08	87.1017
619.819	86.7864
621.557	84.1553
623.296	88.8926
625.034	84.051
626.769	94.0516
628.507	90.1573
630.244	92.1578
631.978	88.3688
633.715	90.7904
635.449	90.054
637.184	91.844
638.918	87.634
640.651	86.0555
642.383	85.4245
644.116	83.7408
645.848	85.1097
647.579	83.6365
649.311	83.9528
651.042	83.0059
652.773	81.3222
654.503	80.3753
656.231	79.5337
657.961	78.7974
659.688	78.1663
661.417	78.4826
663.144	79.8515
664.872	78.0626
666.598	75.642
668.324	80.3794
670.049	81.7483
671.774	74.3804
673.501	78.1703
675.223	78.2761
676.948	77.7503
678.671	79.1192
680.395	80.9092
682.118	77.9623
683.839	78.6997
685.561	77.437
687.281	78.9112
689.003	76.5959
690.722	77.649
692.443	79.6495
694.162	80.0711
695.881	80.8084
697.599	79.8616
699.317	79.5463
701.034	80.7047
702.751	82.1789
704.468	82.6004
706.185	77.8641
707.901	82.4961
709.615	78.9177
711.33	79.655
713.044	78.3924
714.758	79.9718
716.471	79.6565
718.185	74.7097
719.897	76.9207
721.609	75.8686
723.32	78.9217
725.031	77.238
726.742	76.1859
728.452	78.8179
730.162	77.6605
731.872	78.3979
733.581	77.2405
735.288	80.9252
736.997	81.7678
738.705	82.1894
740.411	81.5583
742.119	79.9798
743.824	77.3488
745.529	81.4545
747.234	83.455
748.94	83.4555
750.645	81.6665
752.348	82.1934
754.052	83.457
755.755	81.6681
757.456	87.7738
759.158	85.7743
760.861	88.3011
762.56	88.828
764.262	92.1969
765.961	93.9869
767.662	94.8295
769.361	100.935
771.061	101.883
772.759	103.147
774.457	106.516
776.154	110.832
777.851	110.306
779.548	115.465
781.244	111.255
782.94	113.466
784.634	112.94
786.329	108.098
788.024	106.414
789.717	104.31
791.411	101.363
793.104	102.311
794.795	101.469
796.489	100.838
798.18	99.9964
799.871	99.9969
801.562	100.313
803.252	102.629
804.942	100.946
806.631	100.42
808.321	103.368
810.01	105.579
811.696	104.421
813.385	109.79
815.071	118.001
816.758	120.318
818.444	128.95
820.131	136.529
821.816	146.635
823.5	151.478
825.184	160.004
826.868	173.479
828.552	193.374
830.235	211.48
831.918	251.48
833.6	288.533
835.281	347.165
836.963	405.271
838.644	479.903
840.324	569.904
842.003	745.062
843.683	1150.54
845.362	2171.8
847.04	3401.38
848.718	4188.54
850.397	4716.75
852.074	4461.7
853.749	2603.07
855.426	1080.12
857.102	561.488
858.778	363.067
860.453	261.804
862.127	207.91
863.802	168.226
865.474	144.753
867.147	124.017
868.821	113.807
870.492	103.386
872.164	95.071
873.835	90.7558
875.506	84.4405
877.176	82.862
878.846	77.9152
880.516	79.2841
882.186	75.2846
883.853	75.1798
885.522	70.5487
887.191	70.9703
888.857	70.3392
890.523	70.5502
892.191	70.0244
893.856	66.7618
895.521	66.5517
897.186	66.2365
898.851	70.9738
900.515	65.5006
902.179	69.6064
903.842	67.9227
905.506	66.1337
907.167	67.5026
908.829	65.6084
910.492	69.0826
912.152	66.7673
913.814	68.7678
915.473	73.2946
917.132	78.6635
918.791	84.9798
920.45	89.4014
922.108	97.5071
923.766	103.087
925.423	116.561
927.081	116.772
928.738	121.614
930.394	116.983
932.049	103.51
933.705	91.5106
935.359	77.7217
937.014	72.2485
938.667	69.8279
940.32	62.8811
941.973	59.7237
943.625	60.9873
945.277	62.1457
946.929	60.8831
948.58	60.4625
950.231	61.9367
951.882	60.253
953.533	57.7272
955.181	60.675
956.831	58.5703
958.478	58.0445
960.126	60.5713
961.774	60.256
963.421	59.6249
965.068	55.6254
966.714	54.9943
968.359	56.258
970.005	56.469
971.65	57.3116
973.295	56.47
974.94	51.7337
976.582	55.7342
978.226	57.1031
979.868	59.3141
981.511	56.4725
983.152	55.2099
984.793	60.8946
986.435	56.2635
988.076	55.5272
989.715	55.6329
991.355	55.7387
992.994	57.2129
994.631	57.1081
996.27	57.4244
997.909	56.8986
999.547	58.1623
1001.18	59.7417
1002.82	59.5317
1004.46	58.1638
1006.09	56.6906
1007.73	56.6911
1009.36	55.9547
1011	56.271
1012.63	51.8505
1014.26	56.3773
1015.9	53.4304
1017.53	54.1678
1019.16	51.4314
1020.79	53.1161
1022.42	55.3272
1024.05	56.0645
1025.68	52.6966
1027.31	51.4339
1028.94	53.3292
1030.57	53.856
1032.2	54.8039
1033.83	53.7517
1035.45	55.3312
1037.08	51.0159
1038.71	52.1743
1040.34	49.5432
1041.96	52.07
1043.59	52.3863
1045.21	51.3342
1046.84	50.0715
1048.46	48.4931
1050.08	48.7041
1051.71	51.3362
1053.33	52.1788
1054.95	52.4951
1056.57	50.6008
1058.19	52.6013
1059.82	50.1808
1061.44	52.2866
1063.06	52.0765
1064.68	48.2876
1066.29	51.5512
1067.91	51.7622
1069.53	52.2891
1071.15	49.1317
1072.77	53.2374
1074.38	52.8169
1076	53.6595
1077.62	50.1863
1079.23	50.0815
1080.85	50.7136
1082.46	54.9246
1084.08	50.1883
1085.69	50.7151
1087.3	52.6104
1088.92	52.0845
1090.53	46.8219
1092.14	51.0329
1093.75	49.9808
1095.37	48.4023
1096.98	52.1923
1098.59	49.6665
1100.2	49.8775
1101.81	49.2465
1103.41	52.5101
1105.02	48.6159
1106.63	46.7216
1108.24	48.8274
1109.85	47.7753
1111.45	48.9337
1113.06	46.8289
1114.66	48.8294
1116.27	47.672
1117.88	46.3041
1119.48	44.6204
1121.09	48.1998
1122.69	46.5161
1124.29	46.9377
1125.89	47.4645
1127.5	43.886
1129.1	47.0444
1130.7	46.5186
1132.3	46.2033
1133.9	45.6775
1135.5	46.5201
1137.1	46.5206
1138.7	46.5211
1140.3	44.2058
1141.9	43.259
1143.5	45.3647
1145.09	45.26
1146.69	45.6815
1148.29	44.5241
1149.89	45.8931
1151.48	42.2093
1153.08	44.2098
1154.67	43.7893
1156.27	45.5793
1157.86	45.7903
1159.45	42.6329
1161.05	45.1597
1162.64	45.7918
1164.23	44.4239
1165.82	45.3717
1167.41	46.5301
1169	45.057
1170.6	45.4785
1172.19	44.1106
1173.77	44.5322
1175.37	42.5326
1176.95	45.4805
1178.54	44.6389
1180.13	43.3763
1181.72	45.9031
1183.31	42.851
1184.89	43.9041
1186.48	46.3256
1188.06	44.0103
1189.65	45.0635
1191.23	43.5903
1192.82	46.1171
1194.4	44.1176
1195.98	45.3813
1197.57	43.3818
1199.15	42.4349
1200.73	45.488
1202.31	45.0675
1203.9	44.2259
1205.48	43.0685
1207.06	42.5427
1208.64	43.9116
1210.22	42.0174
1211.8	44.9652
1213.38	41.9131
1214.95	44.5452
1216.53	43.3878
1218.11	44.6514
1219.69	44.6519
1221.26	42.0209
1222.84	41.3898
1224.42	41.285
1225.99	42.4434
1227.57	41.8123
1229.14	42.4444
1230.71	45.1818
1232.29	40.4454
1233.86	41.0775
1235.43	42.6569
1237.01	42.0259
1238.58	42.2369
1240.15	42.2374
1241.72	41.08
1243.29	40.7647
1244.86	38.1336
1246.43	41.1868
1248	42.1346
1249.57	37.3983
1251.14	40.7672
1252.7	40.873
1254.27	40.663
1255.84	38.5582
1257.41	40.664
1258.97	41.9276
1260.54	39.9281
1262.1	40.2444
1263.67	39.1923
1265.23	39.7191
1266.8	36.9828
1268.36	39.7201
1269.92	41.6153
1271.48	38.3527
1273.05	36.8795
1274.61	42.4589
1276.17	37.5121
1277.73	40.4599
1279.29	41.5131
1280.85	37.1978
1282.41	38.1457
1283.97	40.2514
1285.53	38.0414
1287.09	39.8314
1288.65	38.5687
1290.2	39.0955
1291.76	39.096
1293.32	38.886
1294.87	38.1497
1296.43	39.3081
1297.98	37.8349
1299.54	38.1512
1301.09	38.9938
1302.65	35.6259
1304.2	38.0474
1305.75	36.89
1307.31	38.5747
1308.86	39.7331
1310.41	36.4705
1311.96	37.1026
1313.51	39.1031
1315.06	38.9983
1316.61	38.3672
1318.16	34.473
1319.71	39.1051
1321.26	37.0003
1322.81	38.7903
1324.36	37.8434
1325.91	37.7386
1327.45	37.0023
1329	37.1081
1330.55	38.0559
1332.09	38.7933
1333.64	38.0569
1335.18	37.4259
1336.73	40.5842
1338.27	36.7953
1339.81	38.5852
1341.36	37.9542
1342.9	36.3757
1344.44	41.5341
1345.98	37.8504
1347.53	36.0614
1349.07	35.3251
1350.61	39.0098
1352.15	38.1682
1353.69	35.9582
1355.23	38.6955
1356.77	36.8013
1358.31	38.5913
1359.84	38.9076
1361.38	37.4344
1362.92	36.5928
1364.45	39.9617
1365.99	38.3832
1367.53	37.1206
1369.06	34.0685
1370.6	38.5953
1372.13	36.3853
1373.67	35.6489
1375.2	35.7547
1376.73	37.5446
1378.27	36.0715
1379.8	37.8614
1381.33	35.9672
1382.86	36.5993
1384.39	37.7577
1385.92	35.9687
1387.45	37.3376
1388.98	36.9171
1390.51	37.4439
1392.04	34.6023
1393.57	36.1817
1395.1	37.2349
1396.63	36.8143
1398.15	36.3938
1399.68	36.289
1401.21	36.2895
1402.73	38.0795
1404.26	38.8168
1405.78	37.1331
1407.31	37.8705
1408.83	40.5025
1410.36	40.3978
1411.88	40.1877
1413.4	42.6093
1414.93	42.0835
1416.45	45.4524
1417.97	44.4003
1419.49	42.8218
1421.01	47.2434
1422.53	48.086
1424.05	48.4023
1425.57	48.1923
1427.09	46.6138
1428.61	47.4564
1430.13	44.5095
1431.65	46.1943
1433.16	44.3
1434.68	46.7216
1436.2	44.5115
1437.71	42.091
1439.23	41.5652
1440.75	42.5131
1442.26	43.7767
1443.77	41.7772
1445.29	41.2514
1446.8	41.1466
1448.32	43.1471
1449.83	41.7792
1451.34	39.9902
1452.85	43.5697
1454.36	43.886
1455.87	43.7812
1457.39	43.887
1458.9	42.8349
1460.41	43.4669
1461.91	43.7832
1463.42	44.5206
1464.93	46.1
1466.44	47.3637
1467.95	49.5747
1469.46	53.4699
1470.96	55.5757
1472.47	58.2078
1473.97	60.2083
1475.48	62.6298
1476.99	65.4724
1478.49	74.4203
1479.99	82.5261
1481.5	100.632
1483	132.738
1484.5	183.685
1486.01	238.949
1487.51	314.108
1489.01	351.371
1490.51	363.793
1492.01	336.951
1493.51	274.215
1495.01	203.373
1496.51	148.637
1498.01	110.637
1499.51	92.2168
1501.01	81.691
1502.51	74.5336
1504.01	68.5341
1505.5	64.8504
1507	61.2719
1508.5	55.6935
1509.99	54.2203
1511.49	50.9577
1512.98	48.2213
1514.48	44.2218
1515.97	47.0644
1517.46	41.5912
1518.96	42.5391
1520.45	41.2764
1521.94	36.9612
1523.43	37.488
1524.93	35.9095
1526.42	39.0679
1527.91	34.2263
1529.4	34.5426
1530.89	36.5431
1532.38	37.2805
1533.87	34.4388
1535.35	36.2288
1536.84	34.8609
1538.33	34.4404
1539.82	36.4409
1541.3	33.8098
1542.79	33.705
1544.28	34.0213
1545.76	37.706
1547.25	34.0223
1548.73	35.6018
1550.22	35.7075
1551.7	36.1291
1553.18	33.7085
1554.67	35.0774
1556.15	36.8674
1557.63	33.9206
1559.11	36.3421
1560.6	37.0794
1562.08	36.9747
1563.56	33.8173
1565.04	38.2388
1566.52	33.8183
1568	36.6609
1569.48	34.7692
1570.95	36.304
1572.43	33.7368
1573.91	37.1853
1575.39	36.8324
1576.86	37.0335
1578.34	36.9069
1579.82	35.8019
1581.29	36.6016
1582.77	37.0319
1584.24	36.9801
1585.72	36.2081
1587.19	37.3154
1588.66	35.9833
1590.14	35.025
1591.61	37.9804
1593.08	38.4155
1594.55	38.9457
1596.02	38.9321
1597.49	40.952
1598.97	40.277
1600.43	43.8369
1601.9	46.9292
1603.37	49.1998
1604.84	49.6266
1606.31	55.7372
1607.78	57.3797
1609.25	64.9567
1610.71	69.1916
1612.18	73.7699
1613.65	75.8594
1615.11	75.4805
1616.58	69.1705
1618.04	67.8685
1619.51	62.1842
1620.97	56.721
1622.44	49.4512
1623.9	47.9726
1625.36	45.3601
1626.82	43.147
1628.29	42.0887
1629.75	40.1624
1631.21	39.3142
1632.67	39.304
1634.13	38.732
1635.59	39.5635
1637.05	36.8815
1638.51	34.9689
1639.97	34.9091
1641.43	35.3687
1642.88	34.955
1644.34	34.4833
1645.8	34.0917
1647.25	32.5971
1648.71	33.5275
1650.17	32.4877
1651.62	33.8751
1653.08	34.2847
1654.53	33.1699
1655.99	31.7653
1657.44	31.1356
1658.89	32.7772
1660.35	32.4076
1661.8	30.1
1663.25	31.2837
1664.7	29.836
1666.15	30.5246
1667.6	30.3947
1669.05	31.4492
1670.5	31.5579
1671.95	30.1578
1673.4	32.0168
1674.85	31.1893
1676.3	30.6994
1677.75	28.9242
1679.2	31.2003
1680.64	30.8854
1682.09	31.2711
1683.53	31.2684
1684.98	33.0896
1686.43	32.6556
1687.87	35.2865
1689.31	38.3409
1690.76	39.6272
1692.2	41.8672
1693.65	40.4975
1695.09	38.1576
1696.53	37.1927
1697.97	34.6871
1699.42	32.1628
1700.86	30.7449
1702.3	30.9781
1703.74	29.7643
1705.18	28.2153
1706.62	29.1163
1708.06	29.4814
1709.49	27.3137
1710.93	26.9275
1712.37	26.7999
1713.81	26.7281
1715.25	28.8053
1716.68	30.7398
1718.12	28.802
1719.56	26.1947
1720.99	26.454
1721.23	26.5526
1722.72	26.5536
1724.2	28.0282
1725.69	28.8712
1727.18	27.3985
1728.66	28.9784
1730.15	27.2951
1731.63	27.2961
1733.12	24.3497
1734.6	28.0348
1736.09	25.1937
1737.57	29.5104
1739.06	29.5113
1740.54	28.0386
1742.02	27.5132
1743.5	26.4616
1744.99	27.8309
1746.47	29.095
1747.95	24.7802
1749.43	27.3074
1750.91	27.6242
1752.39	27.0988
1753.87	26.784
1755.35	26.8902
1756.83	28.1543
1758.31	26.6816
1759.79	25.4193
1761.27	27.7361
1762.74	27.0002
1764.22	27.6327
1765.7	27.1073
1767.17	28.2662
1768.65	26.7935
1770.13	27.1102
1771.6	26.4796
1773.08	27.9542
1774.55	25.9551
1776.03	24.7982
1777.5	25.4307
1778.97	27.3264
1780.45	26.1695
1781.92	24.802
1783.39	27.1187
1784.87	25.8565
1786.34	28.489
1787.81	27.0163
1789.28	28.3857
1790.75	27.2287
1792.22	24.7034
1793.69	27.5464
1795.16	25.4421
1796.63	25.8641
1798.1	25.865
1799.57	27.0239
1801.04	26.0775
1802.5	25.0258
1803.97	25.9741
1805.44	27.0277
1806.91	28.0812
1808.37	24.5033
1809.84	24.7147
1811.31	24.0841
1812.77	23.8745
1814.24	27.3491
1815.7	27.2448
1817.16	24.7195
1818.63	26.5099
1820.09	26.6161
1821.56	27.7749
1823.02	23.2496
1824.48	27.1453
1825.94	26.4094
1827.4	25.7787
1828.87	23.8849
1830.33	23.2543
1831.79	25.571
1833.25	25.6773
1834.71	27.994
1836.17	26.416
1837.63	26.1012
1839.09	26.2074
1840.55	25.4715
1842	25.8935
1843.46	26.526
1844.92	26.3164
1846.37	27.5805
1847.83	26.8446
1849.29	26.4245
1850.74	27.1623
1852.2	24.1106
1853.65	26.8484
1855.11	26.9546
1856.57	24.5345
1858.02	24.0092
1859.47	24.4312
1860.93	26.7479
1862.38	26.1173
1863.83	23.6972
1865.28	24.7507
1866.74	25.3833
1868.19	25.5947
1869.64	25.8062
1871.09	24.544
1872.54	23.0713
1873.99	24.2301
1875.44	27.5995
1876.89	23.811
1878.34	25.3908
1879.79	23.7076
1881.24	23.3927
1882.69	25.499
1884.13	23.4999
1885.58	25.1851
1887.03	25.0807
1888.47	25.7133
1889.92	25.1879
1891.37	23.9257
1892.81	25.2951
1894.26	26.1381
1895.7	22.4548
1897.15	24.5611
1898.59	23.2989
1900.03	22.3524
1901.48	23.406
1902.92	22.7754
1904.36	23.6184
1905.8	23.7246
1907.25	22.1466
1908.69	25.4107
1910.13	22.6749
1911.57	26.4653
1913.01	21.9399
1914.45	23.0987
1915.89	23.8365
1917.33	24.1533
1918.77	24.1542
1920.21	27.1025
1921.65	20.5772
1923.08	23.8413
1924.52	23.1054
1925.96	24.8958
1927.4	23.1073
1928.83	24.4766
1930.27	23.3197
1931.71	21.6364
1933.14	22.5848
1934.58	24.2699
1936.01	25.6393
1937.44	21.0086
1938.88	21.5359
1940.31	24.2737
1941.75	22.1694
1943.18	20.3809
1944.61	24.066
1946.04	23.8564
1947.47	26.0679
1948.91	22.8057
1950.34	24.3856
1951.77	21.9655
1953.2	23.3349
1954.63	21.5463
1956.06	22.7052
1957.49	23.2324
1958.92	24.0755
1960.35	24.9185
1961.77	23.0248
1963.2	22.2889
1964.63	21.8688
1966.06	24.6066
1967.48	21.9759
1968.91	22.5032
1970.34	21.241
1971.76	22.1893
1973.19	20.6113
1974.61	21.6649
1976.04	22.8237
1977.46	24.2983
1978.89	20.7203
1980.31	23.6686
1981.73	22.1959
1983.16	21.3548
1984.58	25.0399
1986	21.6724
1987.42	22.726
1988.84	21.5691
1990.26	22.9384
1991.68	23.0447
1993.11	21.5719
1994.53	21.1518
1995.95	23.1528
1997.36	21.7853
1998.78	23.0494
2000.2	21.9977
2001.62	22.946
2003.04	24.4207
2004.46	20.7374
2005.87	20.8436
2007.29	21.5814
2008.71	23.8981
2010.12	23.1622
2011.54	23.479
2012.95	23.4799
2014.37	21.0598
2015.78	22.6397
2017.2	24.7459
2018.61	20.3258
2020.03	22.5373
2021.44	22.6435
2022.85	22.4339
2024.26	21.8033
2025.68	22.12
2027.09	22.0157
2028.5	22.6482
2029.91	23.5966
2031.32	21.2817
2032.73	21.9142
2034.14	21.5994
2035.55	23.074
2036.96	21.3908
2038.37	24.3391
2039.78	22.5506
2041.19	22.4463
2042.59	20.5525
2044	21.9218
2045.41	20.2386
2046.82	21.3974
2048.22	21.7141
2049.63	22.873
2051.03	22.0318
2052.44	19.8223
2053.84	21.7179
2055.25	22.2452
2056.65	22.7725
2058.06	21.5103
2059.46	23.827
2060.86	21.3016
2062.27	23.092
2063.67	20.8825
2065.07	22.3571
2066.47	22.1475
2067.88	20.8853
2069.28	20.8863
2070.68	21.5188
2072.08	21.0987
2073.48	21.5207
2074.88	21.4164
2076.28	21.312
2077.68	22.3656
2079.07	21.735
2080.47	21.7359
2081.87	21.5264
2083.27	21.5273
2084.67	19.9493
2086.06	22.1608
2087.46	22.267
2088.85	21.9522
2090.25	23.6373
2091.65	23.8488
2093.04	21.7445
2094.44	21.5349
2095.83	21.4306
2097.22	23.4315
2098.62	22.2746
2100.01	22.065
2101.4	23.7502
2102.8	19.6458
2104.19	21.6468
2105.58	22.8056
2106.97	22.5961
2108.36	21.9654
2109.75	21.5453
2111.14	21.441
2112.53	20.2841
2113.92	22.7061
2115.31	22.2859
2116.7	21.6553
2118.09	21.9721
2119.48	22.2888
2120.87	19.5529
2122.25	20.1854
2123.64	22.6074
2125.03	23.0294
2126.42	22.7146
2127.8	22.8208
2129.19	21.6638
2130.57	20.5069
2131.96	20.6131
2133.34	21.2456
2134.73	21.5624
2136.11	21.4581
2137.49	18.6169
2138.88	22.6178
2140.26	20.1977
2141.64	18.5145
2143.03	21.8839
2144.41	22.6216
2145.79	19.991
2147.17	21.2551
2148.55	19.5718
2149.93	21.3623
2151.31	22.2053
2152.69	19.4694
2154.07	21.4704
2155.45	20.945
2156.83	21.5775
2158.21	20.1048
2159.58	22.8426
2160.96	21.0541
2162.34	22.7392
2163.72	20.3191
2165.09	20.4253
2166.47	19.3736
2167.85	22.1114
2169.22	23.9019
2170.6	21.7975
2171.97	21.7985
2173.35	20.9573
2174.72	20.1162
2176.09	21.4855
2177.47	20.9602
2178.84	24.119
2180.21	21.6989
2181.59	20.6472
2182.96	21.385
2184.33	21.7017
2185.7	19.808
2187.07	23.0721
2188.44	20.9678
2189.81	21.495
2191.18	21.2854
2192.55	20.0232
2193.92	20.6558
2195.29	21.4988
2196.66	22.7629
2198.03	22.4481
2199.39	21.0806
2200.76	20.871
2202.13	20.872
2203.5	20.1361
2204.86	19.6107
2206.23	19.8222
2207.59	22.4547
2208.96	21.403
2210.32	20.9829
2211.69	21.5102
2213.05	21.0901
2214.42	21.3015
2215.78	22.8814
2217.14	21.935
2218.51	20.7781
2219.87	20.9896
2221.23	20.9905
2222.59	21.7283
2223.95	22.2556
2225.31	20.8881
2226.68	21.0996
2228.03	19.6268
2229.4	20.8909
2230.75	19.9445
2232.12	18.8928
2233.47	21.9464
2234.83	22.6842
2236.19	20.3693
2237.55	22.1598
2238.91	20.4765
2240.26	20.8985
2241.62	19.7416
2242.98	19.953
2244.33	20.0592
2245.69	21.4286
2247.04	19.0085
2248.4	21.0095
2249.75	22.4841
2251.11	20.5903
2252.46	21.8544
2253.82	21.6448
2255.17	21.33
2256.52	20.6993
2257.87	20.174
2259.23	20.7012
2260.58	21.3338
2261.93	22.2821
2263.28	21.2304
2264.63	19.7577
2265.98	21.7586
2267.33	20.4964
2268.68	22.1816
2270.03	19.972
2271.38	22.1835
2272.73	20.7107
2274.08	19.5538
2275.43	20.1863
2276.77	22.503
2278.12	22.2935
2279.47	22.2944
2280.81	19.9796
2282.16	20.191
2283.51	19.9815
2284.85	22.5087
2286.2	20.4044
2287.54	20.1948
2288.89	24.1958
2290.23	19.4599
2291.58	21.0398
2292.92	22.0934
2294.26	22.7259
2295.61	23.0426
2296.95	22.3067
2298.29	19.7814
2299.63	21.677
2300.97	21.7833
2302.31	22.3105
2303.65	19.0483
2304.99	21.4703
2306.33	21.366
2307.67	21.2617
2309.01	21.2626
2310.35	21.6846
2311.69	20.8435
2313.03	20.7391
2314.37	21.0559
2315.7	21.2674
2317.04	20.8473
2318.38	20.4272
2319.72	22.5334
2321.05	21.1659
2322.39	19.7984
2323.72	21.273
2325.06	22.9582
2326.39	21.8013
2327.73	20.6443
2329.06	20.54
2330.39	23.2778
2331.73	21.384
2333.06	21.806
2334.39	22.649
2335.73	20.5447
2337.06	21.8088
2338.39	22.1256
2339.72	21.7055
2341.05	21.6012
2342.38	22.4442
2343.71	18.7609
2345.04	20.1303
2346.37	21.7102
2347.7	23.0796
2349.03	21.9226
2350.36	20.1341
2351.68	20.6614
2353.01	21.9255
2354.34	20.2422
2355.67	20.4537
2356.99	21.9283
2358.32	20.0345
2359.65	21.2986
2360.97	24.0364
2362.3	21.09
2363.62	21.1962
2364.95	23.6182
2366.27	20.7771
2367.6	22.5675
2368.92	22.779
2370.24	22.3588
2371.56	22.4651
2372.89	21.0976
2374.21	21.8354
2375.53	20.3626
2376.85	20.2583
2378.17	21.9435
2379.49	22.7865
2380.81	18.998
2382.13	20.8937
2383.45	20.7894
2384.77	22.4745
2386.09	21.8439
2387.41	20.5817
2388.73	21.0037
2390.05	21.531
2391.37	21.0056
2392.68	21.7434
2394	19.8496
2395.32	18.9032
2396.63	19.5357
2397.95	22.063
2399.26	23.2218
2400.58	22.3806
2401.89	22.8026
2403.21	21.6457
2404.52	23.4361
2405.84	20.7002
2407.15	23.017
2408.46	21.7548
2409.78	23.5452
2411.09	21.3356
2412.4	23.3365
2413.71	25.6533
2415.02	22.8121
2416.33	22.8131
2417.64	23.8666
2418.96	21.6571
2420.27	21.1317
2421.57	22.6063
2422.88	21.8704
2424.19	20.3977
2425.5	20.0829
2426.81	21.6628
2428.12	20.9269
2429.42	22.9278
2430.73	20.7182
2432.04	22.4034
2433.35	20.0885
2434.65	19.879
2435.96	23.7747
2437.26	20.3019
2438.57	22.1976
2439.87	20.7249
2441.18	20.5153
2442.48	21.7794
2443.78	20.7277
2445.09	20.6234
2446.39	20.4138
2447.69	21.0463
2449	20.0999
2450.3	21.4693
2451.6	20.5229
2452.9	21.0501
2454.2	19.6827
2455.5	19.7889
2456.8	20.8424
2458.1	20.3171
2459.4	21.0549
2460.7	21.6874
2462	21.2673
2463.3	20.5314
2464.6	20.8481
2465.89	19.9017
2467.19	20.1132
2468.49	19.9036
2469.79	17.9046
2471.08	18.116
2472.38	19.3801
2473.67	18.6442
2474.97	20.6452
2476.27	20.8567
2477.56	19.4892
2478.85	20.648
2480.15	19.2806
2481.44	20.0183
2482.74	18.4403
2484.03	20.336
2485.32	19.1791
2486.61	19.8116
2487.91	19.8126
2489.2	21.3925
2490.49	19.6039
2491.78	20.6575
2493.07	20.869
2494.36	20.8699
2495.65	18.8709
2496.94	21.5034
2498.23	22.4517
2499.52	18.8737
2500.81	19.6115
2502.09	20.0335
2503.38	20.4555
2504.67	20.3512
2505.96	19.2995
2507.24	19.6163
2508.53	19.1961
2509.82	16.9866
2511.1	19.4086
2512.39	18.7779
2513.67	18.4631
2514.96	19.4114
2516.24	19.2018
2517.52	19.7291
2518.81	21.8353
2520.09	19.6257
2521.37	21.4161
2522.66	21.3118
2523.94	19.5233
2525.22	17.9453
2526.5	20.7884
2527.78	18.9998
2529.07	20.4745
2530.35	20.8965
2531.63	20.6869
2532.91	20.0563
2534.19	19.4256
2535.47	19.0055
2536.74	18.5854
2538.02	17.4285
2539.3	18.6926
2540.58	19.5356
2541.86	18.4839
2543.13	18.1691
2544.41	19.749
2545.69	19.7499
2546.96	19.3298
2548.24	22.3834
2549.51	20.0686
2550.79	20.7011
2552.06	20.1757
2553.34	18.703
2554.61	18.7039
2555.89	20.9154
2557.16	19.8637
2558.43	19.0226
2559.7	20.1814
2560.98	19.235
2562.25	20.0781
2563.52	19.2369
2564.79	19.2378
2566.06	17.9756
2567.33	17.8713
2568.6	18.9249
2569.87	19.8732
2571.14	20.611
2572.41	17.8751
2573.68	17.9813
2574.95	17.5612
2576.22	19.0358
2577.48	18.0894
2578.75	17.7746
2580.02	18.0913
2581.29	20.8291
2582.55	19.1458
2583.82	20.9363
2585.08	20.2004
2586.35	18.4118
2587.62	17.676
2588.88	19.2558
2590.15	19.6779
2591.41	17.4683
2592.67	19.6797
2593.94	19.4702
2595.2	18.8395
2596.46	19.3668
2597.72	17.8941
2598.99	18.5266
2600.25	18.8433
2601.51	18.318
2602.77	19.3715
2604.03	17.583
2605.29	19.0576
2606.55	20.3217
2607.81	19.2701
2609.07	19.7973
2610.33	17.693
2611.59	20.7466
2612.85	20.3265
2614.1	16.4327
2615.36	17.9073
2616.62	21.0662
2617.88	18.4355
2619.13	19.1733
2620.39	18.2269
2621.64	17.2805
2622.9	19.913
2624.16	18.9666
2625.41	18.2307
2626.67	18.9685
2627.92	18.4431
2629.17	21.0756
2630.43	17.1819
2631.68	20.3407
2632.93	19.289
2634.18	18.0268
2635.44	19.1856
2636.69	18.4498
2637.94	20.6612
2639.19	18.6622
2640.44	17.7158
2641.69	20.3483
2642.94	20.7703
2644.19	19.5081
2645.44	19.088
2646.69	18.0363
2647.94	21.4056
2649.19	19.6171
2650.44	18.5654
2651.68	19.3032
2652.93	19.62
2654.18	20.1472
2655.42	20.464
2656.67	17.8333
2657.92	18.4659
2659.16	19.8352
2660.41	19.2046
2661.65	19.6266
2662.9	20.4697
2664.14	17.3127
2665.38	20.3663
2666.63	19.4199
2667.87	17.6313
2669.11	20.4744
2670.36	20.6859
2671.6	19.0026
2672.84	21.3193
2674.08	18.5834
2675.32	20.2686
2676.57	20.1643
2677.81	20.3758
2679.05	20.482
2680.29	19.0092
2681.52	21.1154
2682.76	19.0111
2684	16.9068
2685.24	19.6446
2686.48	19.5403
2687.72	21.2255
2688.95	18.279
2690.19	20.1747
2691.43	19.6493
2692.67	19.8608
2693.9	19.8618
2695.14	19.4417
2696.37	21.1268
2697.61	22.0751
2698.84	19.7603
2700.08	20.077
2701.31	19.0254
2702.54	18.3947
2703.78	21.6588
2705.01	18.5019
2706.24	20.3976
2707.48	17.0301
2708.71	19.3468
2709.94	19.2425
2711.17	18.2961
2712.4	18.4023
2713.63	19.1401
2714.86	21.5621
2716.09	19.7736
2717.32	18.8271
2718.55	19.6702
2719.78	19.7764
2721.01	18.3037
2722.24	20.3046
2723.47	20.4108
2724.69	20.6223
2725.92	19.8864
2727.15	17.7821
2728.38	19.8883
2729.6	19.9945
2730.83	21.1534
2732.05	21.7859
2733.28	21.5763
2734.5	19.0509
2735.73	22.1045
2736.95	21.7897
2738.18	18.0011
2739.4	16.8442
2740.62	20.1083
2741.85	20.3198
2743.07	19.5839
2744.29	20.1111
2745.51	20.1121
2746.74	20.5341
2747.96	18.9561
2749.18	20.0097
2750.4	20.3264
2751.62	20.9589
2752.84	17.9073
2754.06	21.2766
2755.28	20.7513
2756.49	19.8048
2757.71	21.0689
2758.93	18.9646
2760.15	19.9129
2761.37	22.6507
2762.58	19.599
2763.8	20.4421
2765.02	18.7588
2766.23	18.5493
2767.45	21.6028
2768.66	20.7617
2769.88	20.0258
2771.09	19.7109
2772.31	22.3435
2773.52	21.3971
2774.74	18.2401
2775.95	19.9253
2777.16	21.9262
2778.38	18.664
2779.59	18.8755
2780.8	20.1396
2782.01	19.7195
2783.22	21.4046
2784.43	20.774
2785.65	22.1434
2786.86	19.9338
2788.07	21.4084
2789.28	20.8831
2790.49	21.6208
2791.7	21.2007
2792.9	21.8333
2794.11	19.7289
2795.32	21.6246
2796.53	22.6782
2797.73	22.0402
2798.94	20.2733
2800.15	20.8686
2801.35	22.4646
2802.56	21.5743
2803.77	20.9232
2804.97	22.0825
2806.18	20.2612
2807.38	23.6337
2808.59	21.873
2809.79	19.5228
2811	22.1183
2812.2	21.9803
2813.4	21.753
2814.6	21.4659
2815.81	22.4887
2817.01	23.1071
2818.21	20.9931
2819.41	21.2963
2820.61	23.6357
2821.81	20.7993
2823.01	22.8611
2824.21	20.6542
2825.41	21.5516
2826.61	22.0781
2827.81	22.2533
2829.01	23.3865
2830.21	22.4753
2831.41	21.4451
2832.6	22.8424
2833.8	24.2127
2835	22.5039
2836.19	22.0613
2837.39	21.821
2838.59	23.2112
2839.78	24.5298
2840.98	21.369
2842.17	23.3694
2843.37	22.3476
2844.56	24.7679
2845.76	22.8415
2846.95	23.4235
2848.14	24.2942
2849.34	23.2428
2850.53	22.5261
2851.72	23.9836
2852.91	22.9198
2854.1	24.2075
2855.3	23.5577
2856.49	22.8716
2857.68	24.2546
2858.87	23.815
2860.06	24.6561
2861.25	23.0882
2862.44	23.3439
2863.63	23.1872
2864.81	23.207
2866	23.9979
2867.19	25.2899
2868.38	24.9144
2869.57	25.9078
2870.75	23.6608
2871.94	23.6215
2873.13	23.6112
2874.31	23.9846
2875.5	24.0836
2876.68	24.4957
2877.87	24.2764
2879.05	25.2577
2880.24	23.9604
2881.42	24.7815
2882.6	24.3989
2883.79	24.6808
2884.97	25.366
2886.15	25.6205
2887.34	25.4477
2888.52	25.8891
2889.7	25.729
2890.88	26.018
2892.06	25.3772
2893.24	25.2863
2894.42	25.3117
2895.6	25.7366
2896.78	24.8481
2897.96	25.5906
2899.14	25.52
2900.32	26.3274
2901.5	26.6563
2902.67	25.9598
2903.85	26.8977
2905.03	28.4941
2906.21	27.5125
2907.38	26.4293
2908.56	25.9436
2909.74	26.62
2910.91	26.8912
2912.09	27.2517
2913.26	27.4384
2914.44	27.1625
2915.61	28.1702
2916.78	29.9075
2917.96	28.3552
2919.13	27.7408
2920.3	27.9181
2920.55	27.974
2921.78	29.4465
2923	27.7611
2924.23	29.3389
2925.45	27.1272
2926.68	28.9156
2927.9	28.7039
2929.12	28.9133
2930.35	29.8595
2931.57	26.5952
2932.79	29.5414
2934.02	29.856
2935.24	29.9601
2936.46	30.5906
2937.68	29.0105
2938.9	31.6409
2940.12	30.7976
2941.34	29.6386
2942.56	28.9006
2943.78	31.2152
2945	29.3194
2946.22	29.8445
2947.44	31.2118
2948.66	29.4212
2949.88	30.0516
2951.1	32.7873
2952.32	30.5756
2953.54	32.6797
2954.75	30.1522
2955.97	31.2037
2957.19	31.6236
2958.4	32.8856
2959.62	33.8319
2960.84	33.3044
2962.05	33.3032
2963.27	32.7758
2964.48	34.6693
2965.7	32.5629
2966.91	34.6671
2968.13	36.8764
2969.34	39.4016
2970.55	37.7162
2971.77	36.4519
2972.98	39.6087
2974.19	38.1338
2975.41	37.6063
2976.62	36.8684
2977.83	37.8146
2979.04	36.3397
2980.25	34.4439
2981.46	34.1269
2982.68	37.4942
2983.89	34.0193
2985.1	36.8603
2986.31	32.1223
2987.52	34.0159
2988.73	35.5937
2989.94	34.2241
2991.14	31.9072
2992.35	35.3797
2993.56	31.6944
2994.77	31.3774
2995.98	35.271
2997.18	33.4804
2998.39	33.1634
2999.6	32.8465
3000.8	34.8453
3002.01	32.5284
3003.22	34.5272
3004.42	34.3156
3005.63	34.8407
3006.83	33.2606
3008.04	33.2595
3009.24	35.3636
3010.45	33.2572
3011.65	35.3613
3012.85	34.4128
3014.06	35.8853
3015.26	34.621
3016.46	38.304
3017.66	34.8292
3018.87	33.6702
3020.07	34.3006
3021.27	34.7205
3022.47	35.6667
3023.67	34.4024
3024.87	37.3486
3026.07	34.8212
3027.27	35.2411
3028.48	34.6083
3029.67	36.7124
3030.87	34.185
3032.07	35.2365
3033.27	33.9721
3034.47	35.4447
3035.67	37.1277
3036.87	35.7582
3038.06	36.0728
3039.26	36.8085
3040.46	36.1758
3041.65	37.122
3042.85	37.0156
3044.05	35.9618
3045.24	38.1712
3046.44	38.4858
3047.63	36.8004
3048.83	38.7993
3050.02	41.0086
3051.22	37.7443
3052.41	36.7958
3053.6	37.321
3054.8	37.9514
3055.99	37.0029
3057.18	40.1596
3058.38	35.5269
3059.57	37.4205
3060.76	37.9457
3061.95	41.1024
3063.14	39.417
3064.34	41.3106
3065.53	39.9411
3066.72	40.0452
3067.91	40.6756
3069.1	40.4639
3070.29	41.9364
3071.48	40.3564
3072.67	42.1447
3073.85	40.1435
3075.04	41.6161
3076.23	42.1412
3077.42	40.7716
3078.61	44.0336
3079.8	39.2957
3080.98	40.7682
3082.17	41.8197
3083.36	40.1343
3084.54	42.5542
3085.73	40.9741
3086.91	43.0782
3088.1	42.8666
3089.29	42.6549
3090.47	43.18
3091.65	42.5473
3092.84	44.1251
3094.02	45.0713
3095.21	42.9649
3096.39	45.3848
3097.57	43.8047
3098.76	45.2772
3099.94	44.2234
3101.12	44.0118
3102.3	44.2212
3103.48	45.9042
3104.67	43.1662
3105.85	45.4809
3107.03	44.8481
3108.21	44.1101
3109.39	46.8458
3110.57	44.2131
3111.75	47.2646
3112.93	45.1582
3114.11	43.8938
3115.28	45.7874
3116.46	44.9442
3117.64	46.3115
3118.82	45.4682
3120	46.2039
3121.17	46.5185
3122.35	45.9911
3123.53	48.7267
3124.71	47.0414
3125.88	45.1455
3127.06	49.8812
3128.23	45.9853
3129.41	46.4052
3130.58	46.9304
3131.76	47.1397
3132.93	47.1386
3134.11	48.9269
3135.28	50.0836
3136.45	50.1878
3137.63	48.0813
3138.8	49.0276
3139.97	49.9738
3141.15	49.9726
3142.32	49.3399
3143.49	49.6545
3144.66	48.3902
3145.83	49.8628
3147	50.7037
3148.18	52.3868
3149.35	48.1751
3150.52	51.5424
3151.68	48.2781
3152.85	50.9085
3154.02	54.5915
3155.19	53.3272
3156.36	50.6945
3157.53	48.9039
3158.7	53.2185
3159.87	53.0068
3161.03	49.1109
3162.2	52.8993
3163.37	54.5823
3164.54	54.897
3165.7	52.3695
3166.87	53.421
3168.03	51.9461
3169.2	56.2608
3170.36	56.1544
3171.53	54.469
3172.69	54.6784
3173.86	55.9404
3175.02	55.9392
3176.19	55.096
3177.35	56.8843
3178.51	55.0937
3179.68	57.9346
3180.84	57.4072
3182	58.4586
3183.16	60.7733
3184.33	58.0353
3185.49	53.2973
3186.65	59.6119
3187.81	57.295
3188.97	56.8728
3190.13	58.6611
3191.29	63.2915
3192.45	61.2904
3193.61	59.605
3194.77	60.6565
3195.93	58.6554
3197.09	57.2858
3198.24	61.8109
3199.4	60.2309
3200.56	64.2297
3201.72	60.7549
3202.88	65.8064
3204.03	61.9105
3205.19	64.1198
3206.35	60.2239
3207.5	62.8544
3208.66	59.9058
3209.81	63.7994
3210.97	61.5878
3212.12	66.7445
3213.28	65.1644
3214.43	64.8475
3215.59	66.32
3216.74	65.582
3217.89	65.5808
3219.05	64.8429
3220.2	64.5259
3221.35	65.4721
3222.51	65.892
3223.66	68.1014
3224.81	68.9424
3225.96	69.3623
3227.11	68.9401
3228.26	62.8336
3229.41	73.8851
3230.56	67.2524
3231.71	70.1986
3232.86	72.7238
3234.01	69.3542
3235.16	70.5109
3236.31	71.4572
3237.46	71.035
3238.61	71.4549
3239.76	72.5063
3240.9	72.7157
3242.05	73.1356
3243.2	70.3976
3244.35	74.186
3245.49	69.5532
3246.64	74.3942
3247.78	75.0246
3248.93	75.7603
3250.08	75.4434
3251.22	77.2317
3252.37	78.2831
3253.51	78.9136
3254.65	78.0703
3255.8	79.5428
3256.94	77.1207
3258.09	84.1721
3259.23	80.3815
3260.37	80.6962
3261.52	85.2213
3262.66	84.4833
3263.8	81.219
3264.94	84.481
3266.08	88.1641
3267.22	84.7945
3268.36	86.8986
3269.51	89.8448
3270.65	87.0016
3271.79	87.3162
3272.93	91.3151
3274.07	90.2613
3275.2	89.9443
3276.34	96.1537
3277.48	92.0473
3278.62	94.783
3279.76	91.5187
3280.9	93.8333
3282.03	95.4111
3283.17	97.41
3284.31	92.672
3285.44	96.6708
3286.58	93.3012
3287.72	95.8264
3288.85	94.8779
3289.99	98.7715
3291.12	95.823
3292.26	95.6113
3293.39	94.5575
3294.53	94.7669
3295.66	96.4499
3296.79	94.133
3297.93	95.1845
3299.06	95.1833
3300.19	93.6032
3301.33	94.2336
3302.46	95.7062
3303.59	93.4945
3304.72	91.9144
3305.85	95.5975
3306.99	91.7016
3308.12	93.2794
3309.25	94.8572
3310.38	93.5928
3311.51	94.3285
3312.64	91.8011
3313.77	93.1683
3314.9	92.0093
3316.02	87.9029
3317.15	90.8491
3318.28	92.2164
3319.41	90.3205
3320.54	90.9509
3321.67	91.5813
3322.79	92.7381
3323.92	90.4211
3325.05	89.7884
3326.17	91.0504
3327.3	89.5756
3328.42	92.206
3329.55	87.9943
3330.68	87.5721
3331.8	87.1499
3332.92	87.8856
3334.05	88.095
3335.17	88.3044
3336.3	90.0927
3337.42	89.3547
3338.54	84.8272
3339.67	85.0366
3340.79	83.3512
3341.91	89.0343
3343.03	85.6647
3344.16	84.2952
3345.28	83.7677
3346.4	87.2402
3347.52	84.7128
3348.64	85.5537
3349.76	83.1315
3350.88	84.4988
3352	86.8134
3353.12	84.707
3354.24	81.0216
3355.36	83.231
3356.48	83.0193
3357.59	80.3866
3358.71	80.7012
3359.83	81.7527
3360.95	82.3832
3362.07	80.6978
3363.18	81.1177
3364.3	81.7481
3365.42	82.168
3366.53	81.2195
3367.65	78.692
3368.76	80.5856
3369.88	79.9529
3370.99	79.2149
3372.11	82.6874
3373.22	79.2126
3374.34	79.9483
3375.45	80.684
3376.56	79.3144
3377.68	78.6817
3378.79	74.9963
3379.9	78.5741
3381.02	74.994
3382.13	78.9929
3383.24	76.2549
3384.35	75.7274
3385.46	74.1473
3386.57	75.4093
3387.68	73.8292
3388.79	73.828
3389.9	72.0374
3391.01	75.2994
3392.12	72.5614
3393.23	72.9813
3394.34	74.1381
3395.45	73.1895
3396.56	73.0831
3397.67	75.1873
3398.78	72.765
3399.88	71.1849
3400.99	70.1312
3402.1	73.1827
3403.2	72.8657
3404.31	72.7593
3405.42	74.1266
3406.52	74.5465
3407.63	69.5979
3408.73	69.3863
3409.84	72.122
3410.94	75.9103
3412.05	71.9091
3413.15	70.4343
3414.26	73.9068
3415.36	76.6425
3416.46	75.4835
3417.56	76.1139
3418.67	74.4285
3419.77	76.0063
3420.87	74.4262
3421.97	78.3198
3423.08	76.4239
3424.18	80.9491
3425.28	79.7901
3426.38	80.5257
3427.48	80.8404
3428.58	79.2603
3429.68	82.3118
3430.78	79.679
3431.88	77.5726
3432.98	80.7294
3434.08	79.3598
3435.18	79.6744
3436.27	82.3049
3437.37	78.7248
3438.47	83.2499
3439.57	85.354
3440.66	84.3002
3441.76	86.0886
3442.86	83.7716
3443.95	90.2968
3445.05	89.3483
3446.14	96.084
3447.24	98.6091
3448.33	102.503
3449.43	112.291
3450.52	120.079
3451.62	127.762
3452.71	149.024
3453.81	172.392
3454.9	200.391
3455.99	238.81
3457.08	275.862
3458.18	313.861
3459.27	338.912
3460.36	332.595
3461.45	318.278
3462.55	286.909
3463.64	256.697
3464.73	212.907
3465.82	186.59
3466.91	160.378
3468	147.429
3469.09	130.165
3470.18	122.795
3471.27	112.794
3472.36	106.056
3473.44	99.5289
3474.53	97.1067
3475.62	87.7371
3476.71	85.9465
3477.8	84.0506
3478.88	78.2599
3479.97	76.4693
3481.06	74.1524
3482.14	72.2565
3483.23	70.3606
3484.32	70.3594
3485.4	68.7794
3486.49	68.0413
3487.57	65.4086
3488.65	66.7759
3489.74	63.6169
3490.82	65.2999
3491.91	63.9303
3492.99	64.0344
3494.07	64.2438
3495.16	60.0321
3496.24	62.8731
3497.32	58.5562
3498.4	57.0813
3499.49	54.7644
3500.57	54.3422
3501.65	56.7621
3502.73	54.8662
3503.81	55.0756
3504.89	53.2849
3505.97	51.8101
3507.05	53.4932
3508.13	50.3341
3509.21	48.0172
3510.29	48.4371
3511.37	47.278
3512.45	48.54
3513.52	45.0652
3514.6	44.5377
3515.68	42.8524
3516.76	46.3249
3517.83	44.6396
3518.91	42.3226
3519.99	42.0057
3521.06	42.8466
3522.14	41.8981
3523.21	40.9496
3524.29	38.2116
3525.36	38.6315
3526.44	38.4198
3527.51	37.5766
3528.59	37.9965
3529.66	37.5742
3530.74	35.4678
3531.81	38.7298
3532.88	36.4129
3533.95	36.7275
3535.03	36.4106
3536.1	33.5673
3537.17	36.303
3538.24	32.1966
3539.31	34.5113
3540.39	34.2996
3541.46	31.1405
3542.53	33.2446
3543.6	33.454
3544.67	32.716
3545.74	32.5043
3546.81	32.2927
3547.88	32.081
3548.94	30.7114
3550.01	30.4997
3551.08	29.7617
3552.15	29.5501
3553.22	29.7594
3554.28	28.1793
3555.35	28.7045
3556.42	29.2297
3557.49	29.2285
3558.55	30.3853
3559.62	27.7525
3560.68	28.2777
3561.75	28.4871
3562.81	29.4333
3563.88	28.6953
3564.94	27.852
3566.01	25.4298
3567.07	27.4287
3568.14	28.4802
3569.2	28.479
3570.26	25.0042
3571.32	26.6872
3572.39	25.1071
3573.45	26.7902
3574.51	25.9469
3575.57	23.63
3576.63	25.6289
3577.7	24.154
3578.76	24.3634
3579.82	24.8886
3580.88	27.2032
3581.94	25.0968
3583	23.0956
3584.06	24.0418
3585.12	23.4091
3586.18	22.3553
3587.24	22.5647
3588.29	21.8267
3589.35	22.7729
3590.41	21.5086
3591.47	22.8759
3592.52	21.6116
3593.58	22.0315
3594.64	20.8724
3595.7	22.9766
3596.75	18.7649
3597.81	20.869
3598.86	23.3941
3599.92	21.1825
3600.97	22.0234
3602.03	20.6539
3603.08	20.5474
3604.14	17.3884
3605.19	19.4925
3606.24	21.7019
3607.3	20.5428
3608.35	21.1733
3609.4	20.9616
3610.46	20.8552
3611.51	18.3277
3612.56	17.5897
3613.61	18.7464
3614.66	18.3242
3615.71	19.2705
3616.77	18.0062
3617.82	18.9524
3618.87	19.7933
3619.92	18.6343
3620.97	18.2121
3622.02	18.1057
3623.07	15.894
3624.11	18.6297
3625.16	17.0496
3626.21	16.1011
3627.26	17.6789
3628.31	16.0988
3629.35	17.466
3630.4	16.5175
3631.45	17.569
3632.5	17.8836
3633.54	17.5667
3634.59	15.2497
3635.63	16.8275
3636.68	15.6685
3637.73	15.0358
3638.77	14.8241
3639.81	17.0335
3640.86	17.2428
3641.9	17.5575
3642.95	15.7668
3643.99	17.7657
3645.03	15.9751
3646.08	14.816
3647.12	16.7096
3648.16	16.0769
3649.2	16.181
3650.25	15.3377
3651.29	14.1787
3652.33	15.2302
3653.37	14.5974
3654.41	15.7542
3655.45	16.1741
3656.49	14.6992
3657.53	14.277
3658.57	15.9601
3659.61	14.38
3660.65	16.3788
3661.69	15.5356
3662.73	15.3239
3663.77	16.6912
3664.8	16.5848
3665.84	15.0047
3666.88	14.4772
3667.92	15.7392
3668.95	13.7381
3669.99	15.6316
3671.03	16.7884
3672.06	15.103
3673.1	13.7335
3674.13	15.1007
3675.17	13.3101
3676.2	14.8879
3677.24	14.7815
3678.27	15.2014
3679.31	13.8318
3680.34	15.1991
3681.38	16.2506
3682.41	14.881
3683.44	14.564
3684.47	15.8261
3685.51	14.5617
3686.54	14.5606
3687.57	14.6647
3688.6	13.4004
3689.63	15.6098
3690.66	12.556
3691.7	16.4496
3692.72	12.8695
3693.76	14.8683
3694.79	14.6566
3695.81	13.7081
3696.84	16.3386
3697.87	15.0742
3698.9	16.9678
3699.93	14.9667
3700.96	14.9655
3701.99	14.9644
3703.02	14.0159
3704.04	14.0147
3705.07	14.3293
3706.1	13.6966
3707.12	12.7481
3708.15	13.4838
3709.17	14.1142
3710.2	15.1657
3711.23	14.0066
3712.25	12.9529
3713.28	15.5833
3714.3	13.7927
3715.33	14.5284
3716.35	12.2114
3717.37	14.526
3718.4	13.1565
3719.42	13.7869
3720.44	14.3121
3721.47	12.4162
3722.49	15.1519
3723.51	15.0574
3724.53	15.9102
3725.55	14.5525
3726.58	11.7212
3727.6	14.0477
3728.62	15.0058
3729.64	14.1745
3730.66	12.1852
3731.68	13.9854
3732.7	13.4699
3733.72	15.1648
3734.74	14.544
3735.75	13.2916
3736.77	14.1444
3737.79	14.3657
3738.81	13.1133
3739.83	14.9135
3740.84	13.5558
3741.86	12.3034
3742.88	14.2089
3743.89	14.2196
3744.91	12.5462
3745.93	14.3464
3746.94	13.3045
3747.96	14.3679
3748.97	12.1681
3749.99	14.7052
3751	12.4001
3752.02	14.2003
3753.03	14.9479
3754.05	12.2218
3755.06	12.9694
3756.07	15.9275
3757.09	12.7804
3758.1	14.0543
3759.11	15.0124
3760.12	13.3389
3761.13	13.876
3762.15	14.413
3763.16	14.8448
3764.17	12.5398
3765.18	15.0769
3766.19	12.9823
3767.2	14.0457
3768.21	13.4249
3769.22	12.383
3770.23	14.6043
3771.24	13.6676
3772.25	13.7837
3773.26	14.9523
3774.26	14.0157
3775.27	14.2369
3776.28	15.9319
3777.29	14.5742
3778.29	12.6902
3779.3	14.3852
3780.31	14.817
3781.31	15.5646
3782.32	15.1543
3783.33	12.4282
3784.33	14.1231
3785.34	14.2391
3786.34	13.6183
3787.35	11.8396
3788.35	14.5872
3789.35	14.7032
3790.36	13.4508
3791.36	13.4615
3792.36	13.788
3793.37	15.5883
3794.37	12.7569
3795.37	14.0308
3796.38	13.6205
3797.38	15.3154
3798.38	14.6946
3799.38	14.2843
3800.38	13.6635
3801.38	14.0953
3802.38	12.7376
3803.38	14.4325
3804.38	15.4959
3805.38	14.7698
3806.38	12.4648
3807.38	15.2124
3808.38	13.8547
3809.38	16.6907
3810.38	14.3014
3811.37	13.5153
3812.37	15.212
3813.37	14.6577
3814.37	14.6805
3815.36	15.0961
3816.36	15.9617
3817.36	14.787
3818.35	14.7837
3819.35	16.4464
3820.34	13.4167
3821.34	14.2394
3822.34	13.256
3823.33	14.226
3824.32	14.8598
3825.32	14.189
3826.31	15.4784
3827.31	15.0629
3828.3	15.7617
3829.29	15.9023
3830.29	14.1058
3831.28	14.8187
3832.27	14.1132
3833.26	14.5094
3834.25	14.478
3835.25	15.0751
3836.24	15.8376
3837.23	15.107
3838.22	14.2205
3839.21	14.4346
3840.2	14.9461
3841.19	15.6537
3842.18	14.5367
3843.17	14.6254
3844.16	14.412
3845.14	14.9197
3846.13	12.771
3847.12	14.6318
3848.11	15.9804
3849.1	14.9194
3850.08	14.8736
3851.07	14.377
3852.06	14.4311
3853.04	13.7686
3854.03	15.0453
3855.02	14.8001
3856	14.3227
3856.99	15.0705
3857.97	14.2909
3858.96	14.7491
3859.94	14.2255
3860.93	13.4218
3861.91	14.8277
3862.89	15.6965
3863.88	15.2548
3864.86	14.0875
3865.84	14.8898
3866.83	14.3271
3867.81	14.4306
3868.79	14.0864
3869.77	14.4438
3870.75	15.6924
3871.73	13.8202
3872.72	14.4898
3873.7	14.6402
3874.68	15.0478
3875.66	14.0969
3876.64	15.16
3877.62	15.0474
3878.6	14.9609
3879.57	14.1587
3880.55	15.6669
3881.53	15.5498
3882.51	16.2817
3883.49	16.1579
3884.47	14.5031
3885.44	14.2335
3886.42	14.6415
3887.4	14.2854
3888.37	13.4272
3889.35	13.9518
3890.33	15.4101
3891.3	14.6202
3892.28	14.9162
3893.25	14.1759
3894.23	14.642
3895.2	16.0908
3896.18	15.3188
3897.15	15.0561
3898.13	14.395
3899.1	14.1104
3900.07	15.1027
3901.04	15.8764
3902.02	15.0266
3902.99	13.5574
3903.96	13.9628
3904.93	15.1923
3905.91	15.1769
3906.88	15.2944
3907.85	15.4148
3908.82	14.3946
3909.79	13.9903
3910.76	15.163
3911.73	14.9296
3912.7	14.3674
3913.57	11.8639
3914.59	15.8617
3915.61	13.9648
3916.63	14.9099
3917.65	14.9077
3918.68	14.1687
3919.7	15.1139
3920.72	16.6906
3921.74	13.9516
3922.76	13.8441
3923.78	13.2104
3924.8	14.2608
3925.82	12.6796
3926.83	15.0985
3927.85	13.0963
3928.87	14.9888
3929.89	15.3024
3930.91	12.0371
3931.93	15.2981
3932.94	14.3485
3933.96	15.2937
3934.98	14.4494
3936	13.2893
3937.01	15.0766
3938.03	13.2849
3939.05	13.7037
3940.06	14.7542
3941.08	14.3309
3942.09	14.7498
3943.11	15.5897
3944.12	12.9559
3945.14	16.1116
3946.15	14.32
3947.17	14.2125
3948.18	15.2629
3949.19	14.8397
3950.21	16.4164
3951.22	13.9932
3952.23	12.0963
3953.25	15.3572
3954.26	14.0919
3955.27	11.9844
3956.28	16.1927
3957.3	14.2958
3958.31	13.3463
3959.32	14.923
3960.33	14.184
3961.34	15.6555
3962.35	13.2322
3963.36	13.1248
3964.37	13.7541
3965.38	15.2256
3966.39	13.7497
3967.4	16.0633
3968.41	14.1664
3969.42	12.6905
3970.43	13.1094
3971.44	14.8967
3972.45	15.105
3973.45	14.1554
3974.46	14.469
3975.47	14.2563
3976.48	12.991
3977.49	12.9888
3978.49	15.1971
3979.5	13.9317
3980.51	15.4032
3981.51	13.9274
3982.52	14.5567
3983.52	14.344
3984.53	14.3418
3985.53	14.1291
3986.54	13.4953
3987.54	14.5458
3988.55	12.7541
3989.55	14.2256
3990.56	15.5918
3991.56	14.2212
3992.56	13.9032
3993.57	14.4273
3994.57	13.4778
3995.57	14.4229
3996.58	14.4207
3997.58	12.9449
3998.58	14.4164
3999.58	14.3089
