##NAMES=Metatorbernite
##RRUFFID=R070686
##IDEAL CHEMISTRY=Cu(UO_2_)_2_(PO_4_)_2_·8H_2_O
##LOCALITY=Fichtelgebirge, Franconia, Bavaria, Germany
##OWNER=RRUFF
##SOURCE=Michael Scott
##DESCRIPTION=Green tabular crystals
##STATUS=The identification of this mineral has been confirmed by X-ray diffraction
##URL=https://www.rruff.net/odr/rruff_sample/R070686
##DIFFRACTION SAMPLE DESCRIPTION=Powder
##CELL PARAMETERS=a: 6.9645 b: 6.9645 c: 17.322 alpha: 90 beta: 90 gamma: 90 volume: 840.19 crystal system: tetragonal
##FILETYPE=Raman RAW
##RAMAN WAVELENGTH=780

7.931860e+001, 0.000000e+000
8.124707e+001, 1.429848e+002
8.317554e+001, 1.378596e+002
8.510400e+001, 1.388223e+002
8.703247e+001, 1.462113e+002
8.896094e+001, 1.576621e+002
9.088940e+001, 1.735931e+002
9.281787e+001, 1.920140e+002
9.474634e+001, 2.114740e+002
9.667480e+001, 2.130962e+002
9.860327e+001, 2.075936e+002
1.005317e+002, 1.975986e+002
1.024602e+002, 1.868832e+002
1.043887e+002, 1.744530e+002
1.063171e+002, 1.630802e+002
1.082456e+002, 1.534405e+002
1.101741e+002, 1.444392e+002
1.121025e+002, 1.349736e+002
1.140310e+002, 1.247736e+002
1.159595e+002, 1.157492e+002
1.178879e+002, 1.072469e+002
1.198164e+002, 1.005900e+002
1.217449e+002, 9.678834e+001
1.236733e+002, 9.441893e+001
1.256018e+002, 9.285239e+001
1.275303e+002, 9.201189e+001
1.294587e+002, 8.999065e+001
1.313872e+002, 8.631768e+001
1.333157e+002, 8.285307e+001
1.352441e+002, 8.001762e+001
1.371726e+002, 7.781180e+001
1.391011e+002, 7.641283e+001
1.410295e+002, 7.578313e+001
1.429580e+002, 7.530978e+001
1.448865e+002, 7.501279e+001
1.468149e+002, 7.479543e+001
1.487434e+002, 7.482655e+001
1.506719e+002, 7.473459e+001
1.526003e+002, 7.423693e+001
1.545288e+002, 7.339849e+001
1.564573e+002, 7.244267e+001
1.583857e+002, 7.127030e+001
1.603142e+002, 7.053311e+001
1.622427e+002, 7.036964e+001
1.641711e+002, 7.074004e+001
1.660996e+002, 7.161636e+001
1.680281e+002, 7.306894e+001
1.699565e+002, 7.509364e+001
1.718850e+002, 7.763887e+001
1.738135e+002, 8.113548e+001
1.757419e+002, 8.584982e+001
1.776704e+002, 9.143178e+001
1.795989e+002, 9.809885e+001
1.815273e+002, 1.054564e+002
1.834558e+002, 1.131682e+002
1.853843e+002, 1.211674e+002
1.873127e+002, 1.286423e+002
1.892412e+002, 1.370827e+002
1.911697e+002, 1.421777e+002
1.930981e+002, 1.430909e+002
1.950266e+002, 1.402989e+002
1.969551e+002, 1.324360e+002
1.988835e+002, 1.210947e+002
2.008120e+002, 1.107991e+002
2.027405e+002, 1.010541e+002
2.046689e+002, 9.467186e+001
2.065974e+002, 9.278812e+001
2.085259e+002, 9.323365e+001
2.104543e+002, 9.538290e+001
2.123828e+002, 9.886267e+001
2.143113e+002, 1.033797e+002
2.162397e+002, 1.094279e+002
2.181682e+002, 1.138850e+002
2.200967e+002, 1.172112e+002
2.220251e+002, 1.181631e+002
2.239536e+002, 1.159410e+002
2.258821e+002, 1.112647e+002
2.278105e+002, 1.044336e+002
2.297390e+002, 9.561442e+001
2.316675e+002, 8.793208e+001
2.335959e+002, 8.144992e+001
2.355244e+002, 7.629603e+001
2.374529e+002, 7.262421e+001
2.393813e+002, 7.018493e+001
2.413098e+002, 6.917803e+001
2.432383e+002, 6.918218e+001
2.451667e+002, 6.947257e+001
2.470952e+002, 7.035759e+001
2.490237e+002, 7.060533e+001
2.509521e+002, 7.029794e+001
2.528806e+002, 6.930862e+001
2.548091e+002, 6.710716e+001
2.567375e+002, 6.459361e+001
2.586660e+002, 6.246400e+001
2.605945e+002, 6.071651e+001
2.625229e+002, 5.930172e+001
2.644514e+002, 5.813772e+001
2.663799e+002, 5.749510e+001
2.683083e+002, 5.749032e+001
2.702368e+002, 5.790400e+001
2.721653e+002, 5.863470e+001
2.740938e+002, 5.968203e+001
2.760222e+002, 6.115067e+001
2.779507e+002, 6.310199e+001
2.798792e+002, 6.490621e+001
2.818076e+002, 6.663948e+001
2.837361e+002, 6.806847e+001
2.856646e+002, 6.947829e+001
2.875930e+002, 7.009288e+001
2.895215e+002, 6.919460e+001
2.914500e+002, 6.724993e+001
2.933784e+002, 6.533450e+001
2.953069e+002, 6.345691e+001
2.972354e+002, 6.148510e+001
2.991638e+002, 5.929710e+001
3.010923e+002, 5.730116e+001
3.030208e+002, 5.567886e+001
3.049492e+002, 5.428315e+001
3.068777e+002, 5.311769e+001
3.088062e+002, 5.210859e+001
3.107346e+002, 5.100872e+001
3.126631e+002, 4.982156e+001
3.145916e+002, 4.855330e+001
3.165200e+002, 4.707261e+001
3.184485e+002, 4.579832e+001
3.203770e+002, 4.492235e+001
3.223054e+002, 4.424212e+001
3.242339e+002, 4.363940e+001
3.261624e+002, 4.310223e+001
3.280908e+002, 4.257973e+001
3.300193e+002, 4.207202e+001
3.319477e+002, 4.160723e+001
3.338762e+002, 4.111279e+001
3.358047e+002, 4.082302e+001
3.377331e+002, 4.096703e+001
3.396616e+002, 4.117579e+001
3.415901e+002, 4.109954e+001
3.435185e+002, 4.085587e+001
3.454470e+002, 4.074990e+001
3.473755e+002, 4.078160e+001
3.493039e+002, 4.092038e+001
3.512324e+002, 4.125806e+001
3.531609e+002, 4.153722e+001
3.550893e+002, 4.165027e+001
3.570178e+002, 4.173577e+001
3.589463e+002, 4.185422e+001
3.608747e+002, 4.203856e+001
3.628032e+002, 4.236416e+001
3.647317e+002, 4.283152e+001
3.666601e+002, 4.325452e+001
3.685886e+002, 4.344411e+001
3.705171e+002, 4.389151e+001
3.724455e+002, 4.473333e+001
3.743740e+002, 4.577214e+001
3.763025e+002, 4.673283e+001
3.782309e+002, 4.793024e+001
3.801594e+002, 4.965134e+001
3.820879e+002, 5.191927e+001
3.840163e+002, 5.491699e+001
3.859448e+002, 5.823606e+001
3.878733e+002, 6.328273e+001
3.898017e+002, 6.994448e+001
3.917302e+002, 7.851781e+001
3.936587e+002, 8.985201e+001
3.955871e+002, 1.026610e+002
3.975156e+002, 1.168335e+002
3.994441e+002, 1.314469e+002
4.013725e+002, 1.428878e+002
4.033010e+002, 1.518414e+002
4.052295e+002, 1.550443e+002
4.071579e+002, 1.530394e+002
4.090864e+002, 1.450281e+002
4.110149e+002, 1.263611e+002
4.129433e+002, 1.064669e+002
4.148718e+002, 8.995766e+001
4.168003e+002, 7.707622e+001
4.187287e+002, 6.885453e+001
4.206572e+002, 6.545786e+001
4.225857e+002, 6.384613e+001
4.245141e+002, 6.438610e+001
4.264426e+002, 6.565726e+001
4.283711e+002, 6.748874e+001
4.302995e+002, 7.011346e+001
4.322280e+002, 7.425867e+001
4.341565e+002, 7.867581e+001
4.360849e+002, 8.303940e+001
4.380134e+002, 8.679067e+001
4.399419e+002, 8.815379e+001
4.418703e+002, 8.685899e+001
4.437988e+002, 8.419497e+001
4.457273e+002, 7.971033e+001
4.476557e+002, 7.530848e+001
4.495842e+002, 7.121617e+001
4.515127e+002, 6.769053e+001
4.534411e+002, 6.469494e+001
4.553696e+002, 6.241248e+001
4.572981e+002, 6.128856e+001
4.592265e+002, 6.106596e+001
4.611550e+002, 6.081632e+001
4.630835e+002, 6.056673e+001
4.650119e+002, 5.963956e+001
4.669404e+002, 5.777325e+001
4.688689e+002, 5.598729e+001
4.707973e+002, 5.457949e+001
4.727258e+002, 5.335283e+001
4.746543e+002, 5.225230e+001
4.765827e+002, 5.125863e+001
4.785112e+002, 5.037918e+001
4.804397e+002, 4.958646e+001
4.823681e+002, 4.872002e+001
4.842966e+002, 4.779169e+001
4.862251e+002, 4.722615e+001
4.881535e+002, 4.715472e+001
4.900820e+002, 4.711795e+001
4.920105e+002, 4.695061e+001
4.939389e+002, 4.684359e+001
4.958674e+002, 4.683118e+001
4.977959e+002, 4.693238e+001
4.997243e+002, 4.723235e+001
5.016528e+002, 4.763887e+001
5.035813e+002, 4.797308e+001
5.055097e+002, 4.823275e+001
5.074382e+002, 4.836452e+001
5.093667e+002, 4.834564e+001
5.112951e+002, 4.829301e+001
5.132236e+002, 4.817031e+001
5.151521e+002, 4.809994e+001
5.170806e+002, 4.816232e+001
5.190090e+002, 4.822395e+001
5.209375e+002, 4.811917e+001
5.228660e+002, 4.800607e+001
5.247944e+002, 4.818687e+001
5.267229e+002, 4.853810e+001
5.286514e+002, 4.861122e+001
5.305798e+002, 4.833779e+001
5.325083e+002, 4.828806e+001
5.344368e+002, 4.880513e+001
5.363652e+002, 4.905868e+001
5.382937e+002, 4.880909e+001
5.402222e+002, 4.849791e+001
5.421506e+002, 4.826195e+001
5.440791e+002, 4.807267e+001
5.460076e+002, 4.792303e+001
5.479360e+002, 4.779129e+001
5.498645e+002, 4.762909e+001
5.517930e+002, 4.744390e+001
5.537214e+002, 4.736497e+001
5.556499e+002, 4.752234e+001
5.575784e+002, 4.741180e+001
5.595068e+002, 4.672799e+001
5.614353e+002, 4.630005e+001
5.633638e+002, 4.640973e+001
5.652922e+002, 4.656690e+001
5.672207e+002, 4.663271e+001
5.691492e+002, 4.656124e+001
5.710776e+002, 4.618556e+001
5.730061e+002, 4.573104e+001
5.749345e+002, 4.565010e+001
5.768630e+002, 4.590661e+001
5.787914e+002, 4.600050e+001
5.807199e+002, 4.581432e+001
5.826484e+002, 4.593935e+001
5.845768e+002, 4.649568e+001
5.865053e+002, 4.703401e+001
5.884338e+002, 4.752022e+001
5.903622e+002, 4.787169e+001
5.922907e+002, 4.785893e+001
5.942192e+002, 4.792983e+001
5.961476e+002, 4.840456e+001
5.980761e+002, 4.910808e+001
6.000046e+002, 4.988987e+001
6.019330e+002, 5.069582e+001
6.038615e+002, 5.127689e+001
6.057900e+002, 5.161504e+001
6.077184e+002, 5.200708e+001
6.096469e+002, 5.243409e+001
6.115754e+002, 5.307670e+001
6.135038e+002, 5.410752e+001
6.154323e+002, 5.493041e+001
6.173608e+002, 5.527490e+001
6.192892e+002, 5.546794e+001
6.212177e+002, 5.561198e+001
6.231462e+002, 5.571521e+001
6.250746e+002, 5.589687e+001
6.270031e+002, 5.597467e+001
6.289316e+002, 5.557056e+001
6.308600e+002, 5.479204e+001
6.327885e+002, 5.406879e+001
6.347170e+002, 5.340437e+001
6.366454e+002, 5.290215e+001
6.385739e+002, 5.260905e+001
6.405024e+002, 5.214525e+001
6.424308e+002, 5.126057e+001
6.443593e+002, 5.064201e+001
6.462878e+002, 5.077108e+001
6.482162e+002, 5.078153e+001
6.501447e+002, 5.016737e+001
6.520732e+002, 4.951905e+001
6.540016e+002, 4.937400e+001
6.559301e+002, 4.938597e+001
6.578586e+002, 4.906731e+001
6.597870e+002, 4.855027e+001
6.617155e+002, 4.813098e+001
6.636440e+002, 4.780058e+001
6.655724e+002, 4.750545e+001
6.675009e+002, 4.724550e+001
6.694294e+002, 4.698535e+001
6.713578e+002, 4.675147e+001
6.732863e+002, 4.643969e+001
6.752148e+002, 4.589202e+001
6.771432e+002, 4.549393e+001
6.790717e+002, 4.544512e+001
6.810002e+002, 4.541488e+001
6.829286e+002, 4.523000e+001
6.848571e+002, 4.500983e+001
6.867856e+002, 4.483580e+001
6.887141e+002, 4.469861e+001
6.906425e+002, 4.457631e+001
6.925710e+002, 4.448424e+001
6.944995e+002, 4.449878e+001
6.964279e+002, 4.460223e+001
6.983564e+002, 4.453315e+001
7.002849e+002, 4.422668e+001
7.022133e+002, 4.402693e+001
7.041418e+002, 4.394484e+001
7.060703e+002, 4.396977e+001
7.079987e+002, 4.428394e+001
7.099272e+002, 4.436196e+001
7.118557e+002, 4.380021e+001
7.137841e+002, 4.349580e+001
7.157126e+002, 4.405053e+001
7.176411e+002, 4.464363e+001
7.195695e+002, 4.477079e+001
7.214980e+002, 4.466939e+001
7.234265e+002, 4.448056e+001
7.253549e+002, 4.423763e+001
7.272834e+002, 4.389623e+001
7.292119e+002, 4.356036e+001
7.311403e+002, 4.362823e+001
7.330688e+002, 4.407745e+001
7.349973e+002, 4.443756e+001
7.369257e+002, 4.471225e+001
7.388542e+002, 4.484920e+001
7.407827e+002, 4.484435e+001
7.427111e+002, 4.466950e+001
7.446396e+002, 4.419382e+001
7.465681e+002, 4.404622e+001
7.484965e+002, 4.455103e+001
7.504250e+002, 4.497329e+001
7.523535e+002, 4.499236e+001
7.542819e+002, 4.493976e+001
7.562104e+002, 4.478491e+001
7.581389e+002, 4.484170e+001
7.600673e+002, 4.551967e+001
7.619958e+002, 4.631602e+001
7.639243e+002, 4.670409e+001
7.658527e+002, 4.686873e+001
7.677812e+002, 4.698926e+001
7.697097e+002, 4.716394e+001
7.716381e+002, 4.769874e+001
7.735666e+002, 4.855606e+001
7.754951e+002, 4.956427e+001
7.774235e+002, 5.069830e+001
7.793520e+002, 5.161045e+001
7.812805e+002, 5.225799e+001
7.832089e+002, 5.338860e+001
7.851374e+002, 5.514559e+001
7.870659e+002, 5.709043e+001
7.889943e+002, 5.902184e+001
7.909228e+002, 6.146460e+001
7.928513e+002, 6.450176e+001
7.947797e+002, 6.815083e+001
7.967082e+002, 7.201121e+001
7.986367e+002, 7.706799e+001
8.005651e+002, 8.327821e+001
8.024936e+002, 9.139069e+001
8.044221e+002, 1.004938e+002
8.063505e+002, 1.131808e+002
8.082790e+002, 1.298939e+002
8.102075e+002, 1.530868e+002
8.121359e+002, 1.852422e+002
8.140644e+002, 2.263793e+002
8.159929e+002, 2.763022e+002
8.179213e+002, 3.347510e+002
8.198498e+002, 4.073959e+002
8.217783e+002, 4.878171e+002
8.237067e+002, 5.595878e+002
8.256352e+002, 6.189329e+002
8.275637e+002, 6.056193e+002
8.294921e+002, 5.095250e+002
8.314206e+002, 4.068909e+002
8.333491e+002, 2.882057e+002
8.352775e+002, 1.998164e+002
8.372060e+002, 1.533054e+002
8.391345e+002, 1.187927e+002
8.410629e+002, 9.967432e+001
8.429914e+002, 8.571819e+001
8.449199e+002, 7.741133e+001
8.468483e+002, 7.113775e+001
8.487768e+002, 6.649899e+001
8.507053e+002, 6.296316e+001
8.526337e+002, 6.076744e+001
8.545622e+002, 5.892509e+001
8.564907e+002, 5.707824e+001
8.584191e+002, 5.525013e+001
8.603476e+002, 5.333136e+001
8.622761e+002, 5.159463e+001
8.642045e+002, 5.025233e+001
8.661330e+002, 4.915796e+001
8.680615e+002, 4.814500e+001
8.699899e+002, 4.733626e+001
8.719184e+002, 4.683123e+001
8.738469e+002, 4.667108e+001
8.757753e+002, 4.701085e+001
8.777038e+002, 4.770790e+001
8.796323e+002, 4.844412e+001
8.815607e+002, 4.924051e+001
8.834892e+002, 5.014122e+001
8.854177e+002, 5.116353e+001
8.873461e+002, 5.250533e+001
8.892746e+002, 5.412334e+001
8.912031e+002, 5.542203e+001
8.931315e+002, 5.640770e+001
8.950600e+002, 5.725310e+001
8.969885e+002, 5.795991e+001
8.989169e+002, 5.817017e+001
9.008454e+002, 5.785523e+001
9.027739e+002, 5.712003e+001
9.047023e+002, 5.593389e+001
9.066308e+002, 5.482348e+001
9.085593e+002, 5.390910e+001
9.104877e+002, 5.274829e+001
9.124162e+002, 5.119795e+001
9.143447e+002, 4.968316e+001
9.162731e+002, 4.819555e+001
9.182016e+002, 4.703670e+001
9.201301e+002, 4.632452e+001
9.220585e+002, 4.584121e+001
9.239870e+002, 4.560954e+001
9.259155e+002, 4.547496e+001
9.278439e+002, 4.535459e+001
9.297724e+002, 4.538841e+001
9.317009e+002, 4.565366e+001
9.336293e+002, 4.601872e+001
9.355578e+002, 4.639972e+001
9.374863e+002, 4.691536e+001
9.394147e+002, 4.757825e+001
9.413432e+002, 4.845615e+001
9.432717e+002, 4.959097e+001
9.452001e+002, 5.095769e+001
9.471286e+002, 5.258350e+001
9.490571e+002, 5.439420e+001
9.509855e+002, 5.626222e+001
9.529140e+002, 5.838340e+001
9.548425e+002, 6.077807e+001
9.567709e+002, 6.365620e+001
9.586994e+002, 6.677646e+001
9.606279e+002, 7.092567e+001
9.625563e+002, 7.622436e+001
9.644848e+002, 8.358638e+001
9.664133e+002, 9.296824e+001
9.683417e+002, 1.059501e+002
9.702702e+002, 1.226379e+002
9.721987e+002, 1.454438e+002
9.741271e+002, 1.763463e+002
9.760556e+002, 2.162347e+002
9.779841e+002, 2.670515e+002
9.799125e+002, 3.272791e+002
9.818410e+002, 3.986013e+002
9.837695e+002, 4.745694e+002
9.856979e+002, 5.515517e+002
9.876264e+002, 6.190719e+002
9.895549e+002, 6.589542e+002
9.914833e+002, 6.707543e+002
9.934118e+002, 6.496790e+002
9.953403e+002, 6.016852e+002
9.972687e+002, 5.357205e+002
9.991972e+002, 4.579396e+002
1.001126e+003, 3.811379e+002
1.003054e+003, 3.082126e+002
1.004983e+003, 2.476360e+002
1.006911e+003, 1.984151e+002
1.008840e+003, 1.580319e+002
1.010768e+003, 1.261951e+002
1.012696e+003, 1.029918e+002
1.014625e+003, 8.728858e+001
1.016553e+003, 7.586571e+001
1.018482e+003, 6.819748e+001
1.020410e+003, 6.276203e+001
1.022339e+003, 5.919717e+001
1.024267e+003, 5.631801e+001
1.026196e+003, 5.404700e+001
1.028124e+003, 5.211420e+001
1.030053e+003, 5.051566e+001
1.031981e+003, 4.929002e+001
1.033910e+003, 4.835561e+001
1.035838e+003, 4.739910e+001
1.037767e+003, 4.645244e+001
1.039695e+003, 4.560297e+001
1.041624e+003, 4.487297e+001
1.043552e+003, 4.446828e+001
1.045480e+003, 4.422523e+001
1.047409e+003, 4.351189e+001
1.049337e+003, 4.253357e+001
1.051266e+003, 4.192694e+001
1.053194e+003, 4.159383e+001
1.055123e+003, 4.131315e+001
1.057051e+003, 4.102862e+001
1.058980e+003, 4.051781e+001
1.060908e+003, 3.991351e+001
1.062837e+003, 3.957597e+001
1.064765e+003, 3.941327e+001
1.066694e+003, 3.929252e+001
1.068622e+003, 3.910788e+001
1.070550e+003, 3.844140e+001
1.072479e+003, 3.763554e+001
1.074407e+003, 3.750540e+001
1.076336e+003, 3.774518e+001
1.078264e+003, 3.776778e+001
1.080193e+003, 3.767172e+001
1.082121e+003, 3.767666e+001
1.084050e+003, 3.768179e+001
1.085978e+003, 3.746488e+001
1.087907e+003, 3.716330e+001
1.089835e+003, 3.697997e+001
1.091764e+003, 3.687311e+001
1.093692e+003, 3.683312e+001
1.095620e+003, 3.678374e+001
1.097549e+003, 3.658821e+001
1.099477e+003, 3.635717e+001
1.101406e+003, 3.619495e+001
1.103334e+003, 3.609958e+001
1.105263e+003, 3.617950e+001
1.107191e+003, 3.620205e+001
1.109120e+003, 3.585265e+001
1.111048e+003, 3.544207e+001
1.112977e+003, 3.527647e+001
1.114905e+003, 3.511755e+001
1.116834e+003, 3.476950e+001
1.118762e+003, 3.437663e+001
1.120691e+003, 3.393581e+001
1.122619e+003, 3.362644e+001
1.124547e+003, 3.361208e+001
1.126476e+003, 3.367777e+001
1.128404e+003, 3.384579e+001
1.130333e+003, 3.382159e+001
1.132261e+003, 3.336516e+001
1.134190e+003, 3.287138e+001
1.136118e+003, 3.247537e+001
1.138047e+003, 3.213031e+001
1.139975e+003, 3.175003e+001
1.141904e+003, 3.161186e+001
1.143832e+003, 3.194731e+001
1.145761e+003, 3.212594e+001
1.147689e+003, 3.195422e+001
1.149618e+003, 3.166351e+001
1.151546e+003, 3.122030e+001
1.153474e+003, 3.104739e+001
1.155403e+003, 3.129283e+001
1.157331e+003, 3.144192e+001
1.159260e+003, 3.141450e+001
1.161188e+003, 3.129271e+001
1.163117e+003, 3.108224e+001
1.165045e+003, 3.083238e+001
1.166974e+003, 3.054608e+001
1.168902e+003, 3.049178e+001
1.170831e+003, 3.066444e+001
1.172759e+003, 3.057915e+001
1.174688e+003, 3.026587e+001
1.176616e+003, 3.026901e+001
1.178545e+003, 3.051017e+001
1.180473e+003, 3.048630e+001
1.182401e+003, 3.024659e+001
1.184330e+003, 2.988071e+001
1.186258e+003, 2.954819e+001
1.188187e+003, 2.978165e+001
1.190115e+003, 3.022742e+001
1.192044e+003, 3.019106e+001
1.193972e+003, 2.993277e+001
1.195901e+003, 2.976104e+001
1.197829e+003, 2.964361e+001
1.199758e+003, 2.954861e+001
1.201686e+003, 2.948330e+001
1.203615e+003, 2.941978e+001
1.205543e+003, 2.943745e+001
1.207472e+003, 2.970774e+001
1.209400e+003, 2.991204e+001
1.211328e+003, 2.988481e+001
1.213257e+003, 2.971863e+001
1.215185e+003, 2.928918e+001
1.217114e+003, 2.905933e+001
1.219042e+003, 2.929409e+001
1.220971e+003, 2.948602e+001
1.222899e+003, 2.953335e+001
1.224828e+003, 2.944709e+001
1.226756e+003, 2.909311e+001
1.228685e+003, 2.911891e+001
1.230613e+003, 2.974598e+001
1.232542e+003, 2.998814e+001
1.234470e+003, 2.974472e+001
1.236399e+003, 2.958070e+001
1.238327e+003, 2.949676e+001
1.240255e+003, 2.956483e+001
1.242184e+003, 2.975130e+001
1.244112e+003, 2.981773e+001
1.246041e+003, 2.981165e+001
1.247969e+003, 2.993480e+001
1.249898e+003, 3.006887e+001
1.251826e+003, 2.986784e+001
1.253755e+003, 2.962896e+001
1.255683e+003, 2.985387e+001
1.257612e+003, 3.014741e+001
1.259540e+003, 3.008242e+001
1.261469e+003, 2.998059e+001
1.263397e+003, 3.006083e+001
1.265326e+003, 3.017008e+001
1.267254e+003, 3.020619e+001
1.269182e+003, 3.033124e+001
1.271111e+003, 3.069971e+001
1.273039e+003, 3.085977e+001
1.274968e+003, 3.064363e+001
1.276896e+003, 3.054199e+001
1.278825e+003, 3.063653e+001
1.280753e+003, 3.078369e+001
1.282682e+003, 3.096335e+001
1.284610e+003, 3.089671e+001
1.286539e+003, 3.062513e+001
1.288467e+003, 3.062603e+001
1.290396e+003, 3.082056e+001
1.292324e+003, 3.080226e+001
1.294253e+003, 3.073252e+001
1.296181e+003, 3.105532e+001
1.298109e+003, 3.146291e+001
1.300038e+003, 3.154058e+001
1.301966e+003, 3.146485e+001
1.303895e+003, 3.131060e+001
1.305823e+003, 3.120697e+001
1.307752e+003, 3.131606e+001
1.309680e+003, 3.137012e+001
1.311609e+003, 3.114396e+001
1.313537e+003, 3.104000e+001
1.315466e+003, 3.127610e+001
1.317394e+003, 3.140761e+001
1.319323e+003, 3.128485e+001
1.321251e+003, 3.133664e+001
1.323180e+003, 3.161065e+001
1.325108e+003, 3.180989e+001
1.327036e+003, 3.193206e+001
1.328965e+003, 3.187066e+001
1.330893e+003, 3.171459e+001
1.332822e+003, 3.184485e+001
1.334750e+003, 3.210743e+001
1.336679e+003, 3.222861e+001
1.338607e+003, 3.229569e+001
1.340536e+003, 3.240157e+001
1.342464e+003, 3.249563e+001
1.344393e+003, 3.259575e+001
1.346321e+003, 3.255627e+001
1.348250e+003, 3.221030e+001
1.350178e+003, 3.203245e+001
1.352107e+003, 3.219489e+001
1.354035e+003, 3.237843e+001
1.355964e+003, 3.254262e+001
1.357892e+003, 3.262387e+001
1.359820e+003, 3.261635e+001
1.361749e+003, 3.267342e+001
1.363677e+003, 3.275611e+001
1.365606e+003, 3.256365e+001
1.367534e+003, 3.228782e+001
1.369463e+003, 3.243275e+001
1.371391e+003, 3.269823e+001
1.373320e+003, 3.271729e+001
1.375248e+003, 3.265368e+001
1.377177e+003, 3.263964e+001
1.379105e+003, 3.256222e+001
1.381034e+003, 3.235088e+001
1.382962e+003, 3.211497e+001
1.384891e+003, 3.182956e+001
1.386819e+003, 3.179855e+001
1.388747e+003, 3.207454e+001
1.390676e+003, 3.209367e+001
1.392604e+003, 3.188641e+001
1.394533e+003, 3.200522e+001
1.396461e+003, 3.235873e+001
1.398390e+003, 3.273401e+001
1.400318e+003, 3.298045e+001
1.402247e+003, 3.278932e+001
1.404175e+003, 3.245763e+001
1.406104e+003, 3.207858e+001
1.408032e+003, 3.193420e+001
1.409961e+003, 3.243308e+001
1.411889e+003, 3.271333e+001
1.413818e+003, 3.238957e+001
1.415746e+003, 3.217265e+001
1.417674e+003, 3.210129e+001
1.419603e+003, 3.220203e+001
1.421531e+003, 3.245024e+001
1.423460e+003, 3.244427e+001
1.425388e+003, 3.228724e+001
1.427317e+003, 3.227886e+001
1.429245e+003, 3.235610e+001
1.431174e+003, 3.250625e+001
1.433102e+003, 3.258980e+001
1.435031e+003, 3.242817e+001
1.436959e+003, 3.233291e+001
1.438888e+003, 3.255576e+001
1.440816e+003, 3.251785e+001
1.442745e+003, 3.192088e+001
1.444673e+003, 3.176362e+001
1.446601e+003, 3.212983e+001
1.448530e+003, 3.210892e+001
1.450458e+003, 3.184234e+001
1.452387e+003, 3.209968e+001
1.454315e+003, 3.252276e+001
1.456244e+003, 3.245415e+001
1.458172e+003, 3.226698e+001
1.460101e+003, 3.228653e+001
1.462029e+003, 3.224986e+001
1.463958e+003, 3.202272e+001
1.465886e+003, 3.182462e+001
1.467815e+003, 3.170297e+001
1.469743e+003, 3.165359e+001
1.471672e+003, 3.167360e+001
1.473600e+003, 3.168597e+001
1.475528e+003, 3.167636e+001
1.477457e+003, 3.154677e+001
1.479385e+003, 3.141791e+001
1.481314e+003, 3.146892e+001
1.483242e+003, 3.162888e+001
1.485171e+003, 3.201482e+001
1.487099e+003, 3.216074e+001
1.489028e+003, 3.179755e+001
1.490956e+003, 3.163529e+001
1.492885e+003, 3.179991e+001
1.494813e+003, 3.180430e+001
1.496742e+003, 3.164364e+001
1.498670e+003, 3.151977e+001
1.500599e+003, 3.144448e+001
1.502527e+003, 3.142671e+001
1.504455e+003, 3.145828e+001
1.506384e+003, 3.151686e+001
1.508312e+003, 3.164510e+001
1.510241e+003, 3.201349e+001
1.512169e+003, 3.214276e+001
1.514098e+003, 3.183738e+001
1.516026e+003, 3.177404e+001
1.517955e+003, 3.197243e+001
1.519883e+003, 3.201482e+001
1.521812e+003, 3.192451e+001
1.523740e+003, 3.172083e+001
1.525669e+003, 3.156250e+001
1.527597e+003, 3.177180e+001
1.529526e+003, 3.186473e+001
1.531454e+003, 3.136810e+001
1.533382e+003, 3.107421e+001
1.535311e+003, 3.129201e+001
1.537239e+003, 3.145248e+001
1.539168e+003, 3.154145e+001
1.541096e+003, 3.147015e+001
1.543025e+003, 3.129476e+001
1.544953e+003, 3.115014e+001
1.546882e+003, 3.108274e+001
1.548810e+003, 3.116777e+001
1.550739e+003, 3.131254e+001
1.552667e+003, 3.153856e+001
1.554596e+003, 3.158831e+001
1.556524e+003, 3.134779e+001
1.558453e+003, 3.124033e+001
1.560381e+003, 3.128477e+001
1.562309e+003, 3.145141e+001
1.564238e+003, 3.160301e+001
1.566166e+003, 3.129820e+001
1.568095e+003, 3.096725e+001
1.570023e+003, 3.111511e+001
1.571952e+003, 3.117019e+001
1.573880e+003, 3.090583e+001
1.575809e+003, 3.074366e+001
1.577737e+003, 3.075404e+001
1.579666e+003, 3.072478e+001
1.581594e+003, 3.068353e+001
1.583523e+003, 3.084179e+001
1.585451e+003, 3.104315e+001
1.587380e+003, 3.104804e+001
1.589308e+003, 3.101847e+001
1.591236e+003, 3.103683e+001
1.593165e+003, 3.110057e+001
1.595093e+003, 3.124069e+001
1.597022e+003, 3.104033e+001
1.598950e+003, 3.056145e+001
1.600879e+003, 3.046818e+001
1.602807e+003, 3.059079e+001
1.604736e+003, 3.069168e+001
1.606664e+003, 3.069202e+001
1.608593e+003, 3.042169e+001
1.610521e+003, 3.024677e+001
1.612450e+003, 3.033513e+001
1.614378e+003, 3.031417e+001
1.616307e+003, 3.016853e+001
1.618235e+003, 2.997741e+001
1.620163e+003, 2.981766e+001
1.622092e+003, 2.992956e+001
1.624020e+003, 3.004371e+001
1.625949e+003, 2.982102e+001
1.627877e+003, 2.973499e+001
1.629806e+003, 3.017698e+001
1.631734e+003, 3.020110e+001
1.633663e+003, 2.973308e+001
1.635591e+003, 2.965793e+001
1.637520e+003, 2.979307e+001
1.639448e+003, 2.971924e+001
1.641377e+003, 2.948288e+001
1.643305e+003, 2.896811e+001
1.645234e+003, 2.870875e+001
1.647162e+003, 2.902814e+001
1.649090e+003, 2.900965e+001
1.651019e+003, 2.858060e+001
1.652947e+003, 2.852427e+001
1.654876e+003, 2.865647e+001
1.656804e+003, 2.852067e+001
1.658733e+003, 2.842375e+001
1.660661e+003, 2.871334e+001
1.662590e+003, 2.864732e+001
1.664518e+003, 2.792887e+001
1.666447e+003, 2.776187e+001
1.668375e+003, 2.816094e+001
1.670304e+003, 2.811229e+001
1.672232e+003, 2.793302e+001
1.674161e+003, 2.831306e+001
1.676089e+003, 2.853012e+001
1.678017e+003, 2.806771e+001
1.679946e+003, 2.775312e+001
1.681874e+003, 2.773585e+001
1.683803e+003, 2.755710e+001
1.685731e+003, 2.730263e+001
1.687660e+003, 2.741978e+001
1.689588e+003, 2.769459e+001
1.691517e+003, 2.809125e+001
1.693445e+003, 2.813971e+001
1.695374e+003, 2.750665e+001
1.697302e+003, 2.722117e+001
1.699231e+003, 2.734735e+001
1.701159e+003, 2.759451e+001
1.703088e+003, 2.778847e+001
1.705016e+003, 2.756607e+001
1.706944e+003, 2.727597e+001
1.708873e+003, 2.709316e+001
1.710801e+003, 2.709513e+001
1.712730e+003, 2.734635e+001
1.714658e+003, 2.728699e+001
1.716587e+003, 2.703725e+001
1.718515e+003, 2.719069e+001
1.720444e+003, 2.739829e+001
1.722372e+003, 2.733708e+001
1.724301e+003, 2.715899e+001
1.726229e+003, 2.681739e+001
1.728158e+003, 2.662932e+001
1.730086e+003, 2.659813e+001
1.732015e+003, 2.677452e+001
1.733943e+003, 2.693755e+001
1.735871e+003, 2.668861e+001
1.737800e+003, 2.642233e+001
1.739728e+003, 2.633731e+001
1.741657e+003, 2.624965e+001
1.743585e+003, 2.613361e+001
1.745514e+003, 2.599118e+001
1.747442e+003, 2.585779e+001
1.749371e+003, 2.580006e+001
1.751299e+003, 2.582707e+001
1.753228e+003, 2.600648e+001
1.755156e+003, 2.597503e+001
1.757085e+003, 2.563135e+001
1.759013e+003, 2.587393e+001
1.760942e+003, 2.640451e+001
1.762870e+003, 2.626723e+001
1.764798e+003, 2.599567e+001
1.766727e+003, 2.600126e+001
1.768655e+003, 2.599116e+001
1.770584e+003, 2.590753e+001
1.772512e+003, 2.572026e+001
1.774441e+003, 2.551841e+001
1.776369e+003, 2.561988e+001
1.778298e+003, 2.579211e+001
1.780226e+003, 2.586707e+001
1.782155e+003, 2.582993e+001
1.784083e+003, 2.566639e+001
1.786012e+003, 2.562513e+001
1.787940e+003, 2.568977e+001
1.789869e+003, 2.581426e+001
1.791797e+003, 2.585787e+001
1.793725e+003, 2.558416e+001
1.795654e+003, 2.542058e+001
1.797582e+003, 2.545087e+001
1.799511e+003, 2.567907e+001
1.801439e+003, 2.593544e+001
1.803368e+003, 2.563276e+001
1.805296e+003, 2.525171e+001
1.807225e+003, 2.508578e+001
1.809153e+003, 2.523083e+001
1.811082e+003, 2.581093e+001
1.813010e+003, 2.576906e+001
1.814939e+003, 2.533185e+001
1.816867e+003, 2.503144e+001
1.818796e+003, 2.496993e+001
1.820724e+003, 2.539142e+001
1.822652e+003, 2.565274e+001
1.824581e+003, 2.565454e+001
1.826509e+003, 2.525702e+001
1.828438e+003, 2.472308e+001
1.830366e+003, 2.466333e+001
1.832295e+003, 2.470776e+001
1.834223e+003, 2.469638e+001
1.836152e+003, 2.468966e+001
1.838080e+003, 2.469037e+001
1.840009e+003, 2.447911e+001
1.841937e+003, 2.424524e+001
1.843866e+003, 2.433416e+001
1.845794e+003, 2.443740e+001
1.847723e+003, 2.445682e+001
1.849651e+003, 2.446724e+001
1.851579e+003, 2.445471e+001
1.853508e+003, 2.418763e+001
1.855436e+003, 2.399375e+001
1.857365e+003, 2.432564e+001
1.859293e+003, 2.459816e+001
1.861222e+003, 2.469059e+001
1.863150e+003, 2.465916e+001
1.865079e+003, 2.454511e+001
1.867007e+003, 2.439364e+001
1.868936e+003, 2.427326e+001
1.870864e+003, 2.425786e+001
1.872793e+003, 2.414694e+001
1.874721e+003, 2.395103e+001
1.876650e+003, 2.409774e+001
1.878578e+003, 2.433492e+001
1.880506e+003, 2.432610e+001
1.882435e+003, 2.421884e+001
1.884363e+003, 2.403151e+001
1.886292e+003, 2.406517e+001
1.888220e+003, 2.416684e+001
1.890149e+003, 2.356454e+001
1.892077e+003, 2.306764e+001
1.894006e+003, 2.353888e+001
1.895934e+003, 2.376728e+001
1.897863e+003, 2.359495e+001
1.899791e+003, 2.366772e+001
1.901720e+003, 2.378196e+001
1.903648e+003, 2.357294e+001
1.905577e+003, 2.338587e+001
1.907505e+003, 2.335275e+001
1.909433e+003, 2.344722e+001
1.911362e+003, 2.363411e+001
1.913290e+003, 2.384121e+001
1.915219e+003, 2.392627e+001
1.917147e+003, 2.374540e+001
1.919076e+003, 2.357753e+001
1.921004e+003, 2.346940e+001
1.922933e+003, 2.345442e+001
1.924861e+003, 2.351611e+001
1.926790e+003, 2.366677e+001
1.928718e+003, 2.379086e+001
1.930647e+003, 2.385613e+001
1.932575e+003, 2.384966e+001
1.934504e+003, 2.374419e+001
1.936432e+003, 2.324357e+001
1.938360e+003, 2.306696e+001
1.940289e+003, 2.368237e+001
1.942217e+003, 2.368042e+001
1.944146e+003, 2.309710e+001
1.946074e+003, 2.332588e+001
1.948003e+003, 2.360357e+001
1.949931e+003, 2.302997e+001
1.951860e+003, 2.292534e+001
1.953788e+003, 2.342923e+001
1.955717e+003, 2.346045e+001
1.957645e+003, 2.326161e+001
1.959574e+003, 2.317692e+001
1.961502e+003, 2.308712e+001
1.963431e+003, 2.295862e+001
1.965359e+003, 2.286035e+001
1.967287e+003, 2.281649e+001
1.969216e+003, 2.292799e+001
1.971144e+003, 2.296591e+001
1.973073e+003, 2.274176e+001
1.975001e+003, 2.282167e+001
1.976930e+003, 2.309638e+001
1.978858e+003, 2.309545e+001
1.980787e+003, 2.302531e+001
1.982715e+003, 2.302872e+001
1.984644e+003, 2.302640e+001
1.986572e+003, 2.298963e+001
1.988501e+003, 2.256563e+001
1.990429e+003, 2.227217e+001
1.992358e+003, 2.274092e+001
1.994286e+003, 2.297439e+001
1.996214e+003, 2.283838e+001
1.998143e+003, 2.249142e+001
2.000071e+003, 2.219359e+001
2.002000e+003, 2.224716e+001
2.003928e+003, 2.228181e+001
2.005857e+003, 2.219346e+001
2.007785e+003, 2.247236e+001
2.009714e+003, 2.272051e+001
2.011642e+003, 2.227230e+001
2.013571e+003, 2.188982e+001
2.015499e+003, 2.179355e+001
2.017428e+003, 2.162835e+001
2.019356e+003, 2.149478e+001
2.021285e+003, 2.167155e+001
2.023213e+003, 2.180353e+001
2.025141e+003, 2.179398e+001
2.027070e+003, 2.159865e+001
2.028998e+003, 2.134689e+001
2.030927e+003, 2.128425e+001
2.032855e+003, 2.126052e+001
2.034784e+003, 2.122393e+001
2.036712e+003, 2.131489e+001
2.038641e+003, 2.142076e+001
2.040569e+003, 2.124574e+001
2.042498e+003, 2.110539e+001
2.044426e+003, 2.112356e+001
2.046355e+003, 2.083936e+001
2.048283e+003, 2.049176e+001
2.050212e+003, 2.071622e+001
2.052140e+003, 2.091455e+001
2.054068e+003, 2.084373e+001
2.055997e+003, 2.095587e+001
2.057925e+003, 2.104010e+001
2.059854e+003, 2.051995e+001
2.061782e+003, 2.007684e+001
2.063711e+003, 1.997365e+001
2.065639e+003, 2.016340e+001
2.067568e+003, 2.038927e+001
2.069496e+003, 2.005564e+001
2.071425e+003, 1.984165e+001
2.073353e+003, 2.010890e+001
2.075281e+003, 2.000979e+001
2.077210e+003, 1.975476e+001
2.079138e+003, 1.966551e+001
2.081067e+003, 1.974170e+001
2.082995e+003, 2.007840e+001
2.084924e+003, 1.968797e+001
2.086852e+003, 1.916009e+001
2.088781e+003, 1.948243e+001
2.090709e+003, 1.961757e+001
2.092638e+003, 1.924010e+001
2.094566e+003, 1.952576e+001
2.096495e+003, 1.992347e+001
2.098423e+003, 1.975214e+001
2.100352e+003, 1.944390e+001
2.102280e+003, 1.912441e+001
2.104208e+003, 1.946618e+001
2.106137e+003, 1.981143e+001
2.108065e+003, 1.943693e+001
2.109994e+003, 1.931264e+001
2.111922e+003, 1.950428e+001
2.113851e+003, 1.893058e+001
2.115779e+003, 1.914952e+001
2.117708e+003, 2.191384e+001
2.119636e+003, 2.184646e+001
2.121565e+003, 1.948733e+001
2.123493e+003, 1.898937e+001
2.125422e+003, 1.891398e+001
2.127350e+003, 1.852547e+001
2.129279e+003, 1.831606e+001
2.131207e+003, 1.828736e+001
2.133135e+003, 1.846627e+001
2.135064e+003, 1.847532e+001
2.136992e+003, 1.818287e+001
2.138921e+003, 1.792281e+001
2.140849e+003, 1.777448e+001
2.142778e+003, 1.786826e+001
2.144706e+003, 1.798437e+001
2.146635e+003, 1.807698e+001
2.148563e+003, 1.821350e+001
2.150492e+003, 1.828862e+001
2.152420e+003, 1.816768e+001
2.154349e+003, 1.808029e+001
2.156277e+003, 1.801702e+001
2.158206e+003, 1.765554e+001
2.160134e+003, 1.743240e+001
2.162063e+003, 1.770171e+001
2.163991e+003, 1.757264e+001
2.165919e+003, 1.722595e+001
2.167848e+003, 1.718793e+001
2.169776e+003, 1.715601e+001
2.171705e+003, 1.702206e+001
2.173633e+003, 1.723484e+001
2.175562e+003, 1.751421e+001
2.177490e+003, 1.754688e+001
2.179419e+003, 1.741045e+001
2.181347e+003, 1.717389e+001
2.183276e+003, 1.733227e+001
2.185204e+003, 1.737489e+001
2.187133e+003, 1.696501e+001
2.189061e+003, 1.686223e+001
2.190990e+003, 1.696716e+001
2.192918e+003, 1.688905e+001
2.194846e+003, 1.675377e+001
2.196775e+003, 1.659938e+001
2.198703e+003, 1.624470e+001
2.200632e+003, 1.599817e+001
2.202560e+003, 1.646988e+001
2.204489e+003, 1.642693e+001
2.206417e+003, 1.597342e+001
2.208346e+003, 1.638528e+001
2.210274e+003, 1.676199e+001
2.212203e+003, 1.659095e+001
2.214131e+003, 1.617649e+001
2.216060e+003, 1.575637e+001
2.217988e+003, 1.566438e+001
2.219917e+003, 1.585114e+001
2.221845e+003, 1.625068e+001
2.223773e+003, 1.616848e+001
2.225702e+003, 1.598532e+001
2.227630e+003, 1.601302e+001
2.229559e+003, 1.608874e+001
2.231487e+003, 1.610745e+001
2.233416e+003, 1.564088e+001
2.235344e+003, 1.548405e+001
2.237273e+003, 1.599005e+001
2.239201e+003, 1.592122e+001
2.241130e+003, 1.578789e+001
2.243058e+003, 1.618192e+001
2.244987e+003, 1.600398e+001
2.246915e+003, 1.543301e+001
2.248844e+003, 1.581057e+001
2.250772e+003, 1.591239e+001
2.252700e+003, 1.524401e+001
2.254629e+003, 1.537560e+001
2.256557e+003, 1.573236e+001
2.258486e+003, 1.563480e+001
2.260414e+003, 1.542376e+001
2.262343e+003, 1.521507e+001
2.264271e+003, 1.525751e+001
2.266200e+003, 1.535500e+001
2.268128e+003, 1.542873e+001
2.270057e+003, 1.548102e+001
2.271985e+003, 1.550740e+001
2.273914e+003, 1.547840e+001
2.275842e+003, 1.550829e+001
2.277771e+003, 1.557716e+001
2.279699e+003, 1.557729e+001
2.281627e+003, 1.551426e+001
2.283556e+003, 1.539472e+001
2.285484e+003, 1.543010e+001
2.287413e+003, 1.546051e+001
2.289341e+003, 1.523279e+001
2.291270e+003, 1.516907e+001
2.293198e+003, 1.527055e+001
2.295127e+003, 1.555030e+001
2.297055e+003, 1.557095e+001
2.298984e+003, 1.520403e+001
2.300912e+003, 1.517668e+001
2.302841e+003, 1.522663e+001
2.304769e+003, 1.508743e+001
2.306698e+003, 1.510104e+001
2.308626e+003, 1.520458e+001
2.310554e+003, 1.525715e+001
2.312483e+003, 1.525158e+001
2.314411e+003, 1.518047e+001
2.316340e+003, 1.486244e+001
2.318268e+003, 1.459354e+001
2.320197e+003, 1.453051e+001
2.322125e+003, 1.475265e+001
2.324054e+003, 1.501994e+001
2.325982e+003, 1.506242e+001
2.327911e+003, 1.481840e+001
2.329839e+003, 1.440944e+001
2.331768e+003, 1.431376e+001
2.333696e+003, 1.429295e+001
2.335625e+003, 1.426798e+001
2.337553e+003, 1.424171e+001
2.339481e+003, 1.426538e+001
2.341410e+003, 1.438164e+001
2.343338e+003, 1.457471e+001
2.345267e+003, 1.466304e+001
2.347195e+003, 1.418279e+001
2.349124e+003, 1.383295e+001
2.351052e+003, 1.373753e+001
2.352981e+003, 1.399955e+001
2.354909e+003, 1.403306e+001
2.356838e+003, 1.364018e+001
2.358766e+003, 1.358987e+001
2.360695e+003, 1.372548e+001
2.362623e+003, 1.398977e+001
2.364552e+003, 1.399408e+001
2.366480e+003, 1.388564e+001
2.368408e+003, 1.404745e+001
2.370337e+003, 1.391146e+001
2.372265e+003, 1.353200e+001
2.374194e+003, 1.360753e+001
2.376122e+003, 1.370941e+001
2.378051e+003, 1.365438e+001
2.379979e+003, 1.387219e+001
2.381908e+003, 1.406672e+001
2.383836e+003, 1.398846e+001
2.385765e+003, 1.393948e+001
2.387693e+003, 1.383975e+001
2.389622e+003, 1.348953e+001
2.391550e+003, 1.341871e+001
2.393479e+003, 1.355526e+001
2.395407e+003, 1.330288e+001
2.397335e+003, 1.341172e+001
2.399264e+003, 1.400224e+001
2.401192e+003, 1.380922e+001
2.403121e+003, 1.346138e+001
2.405049e+003, 1.327074e+001
2.406978e+003, 1.335693e+001
2.408906e+003, 1.339777e+001
2.410835e+003, 1.305926e+001
2.412763e+003, 1.314678e+001
2.414692e+003, 1.337196e+001
2.416620e+003, 1.303391e+001
2.418549e+003, 1.270178e+001
2.420477e+003, 1.255249e+001
2.422406e+003, 1.296536e+001
2.424334e+003, 1.329798e+001
2.426262e+003, 1.337975e+001
2.428191e+003, 1.323351e+001
2.430119e+003, 1.300886e+001
2.432048e+003, 1.277261e+001
2.433976e+003, 1.268739e+001
2.435905e+003, 1.262432e+001
2.437833e+003, 1.243196e+001
2.439762e+003, 1.246523e+001
2.441690e+003, 1.256357e+001
2.443619e+003, 1.247342e+001
2.445547e+003, 1.248077e+001
2.447476e+003, 1.251576e+001
2.449404e+003, 1.232714e+001
2.451333e+003, 1.225316e+001
2.453261e+003, 1.228018e+001
2.455189e+003, 1.202721e+001
2.457118e+003, 1.187887e+001
2.459046e+003, 1.193167e+001
2.460975e+003, 1.182977e+001
2.462903e+003, 1.176102e+001
2.464832e+003, 1.182242e+001
2.466760e+003, 1.141553e+001
2.468689e+003, 1.109897e+001
2.470617e+003, 1.125145e+001
2.472546e+003, 1.107300e+001
2.474474e+003, 1.093497e+001
2.476403e+003, 1.128277e+001
2.478331e+003, 1.125412e+001
2.480260e+003, 1.111566e+001
2.482188e+003, 1.147840e+001
2.484116e+003, 1.142068e+001
2.486045e+003, 1.104588e+001
2.487973e+003, 1.073271e+001
2.489902e+003, 1.080615e+001
2.491830e+003, 1.109965e+001
2.493759e+003, 1.084281e+001
2.495687e+003, 1.065024e+001
2.497616e+003, 1.065100e+001
2.499544e+003, 1.080772e+001
2.501473e+003, 1.068231e+001
2.503401e+003, 1.025234e+001
2.505330e+003, 1.064721e+001
2.507258e+003, 1.099268e+001
2.509187e+003, 1.088991e+001
2.511115e+003, 1.051888e+001
2.513043e+003, 1.021240e+001
2.514972e+003, 1.019525e+001
2.516900e+003, 1.028709e+001
2.518829e+003, 1.034017e+001
2.520757e+003, 1.021730e+001
2.522686e+003, 1.005799e+001
2.524614e+003, 9.961439e+000
2.526543e+003, 1.002588e+001
2.528471e+003, 1.008131e+001
2.530400e+003, 1.011103e+001
2.532328e+003, 1.009164e+001
2.534257e+003, 1.030686e+001
2.536185e+003, 1.047839e+001
2.538114e+003, 1.014885e+001
2.540042e+003, 9.866725e+000
2.541970e+003, 9.699024e+000
2.543899e+003, 9.666625e+000
2.545827e+003, 9.576380e+000
2.547756e+003, 9.441731e+000
2.549684e+003, 9.301866e+000
2.551613e+003, 9.423987e+000
2.553541e+003, 9.636039e+000
2.555470e+003, 9.316374e+000
2.557398e+003, 9.031167e+000
2.559327e+003, 8.960506e+000
2.561255e+003, 9.507080e+000
2.563184e+003, 9.445327e+000
2.565112e+003, 8.903906e+000
2.567041e+003, 9.135029e+000
2.568969e+003, 9.248053e+000
2.570897e+003, 9.091635e+000
2.572826e+003, 8.722500e+000
2.574754e+003, 8.794198e+000
2.576683e+003, 9.204186e+000
2.578611e+003, 8.855731e+000
2.580540e+003, 8.818814e+000
2.582468e+003, 9.182723e+000
2.584397e+003, 9.015714e+000
2.586325e+003, 8.738091e+000
2.588254e+003, 8.493899e+000
2.590182e+003, 8.452770e+000
2.592111e+003, 8.436110e+000
2.594039e+003, 8.387403e+000
2.595968e+003, 8.189504e+000
2.597896e+003, 8.200658e+000
2.599824e+003, 8.431181e+000
2.601753e+003, 8.340875e+000
2.603681e+003, 8.153419e+000
2.605610e+003, 7.943976e+000
2.607538e+003, 7.742293e+000
2.609467e+003, 7.682076e+000
2.611395e+003, 7.753029e+000
2.613324e+003, 7.681959e+000
2.615252e+003, 7.814700e+000
2.617181e+003, 8.047370e+000
2.619109e+003, 7.367805e+000
2.621038e+003, 7.309527e+000
2.622966e+003, 7.866713e+000
2.624895e+003, 7.566889e+000
2.626823e+003, 7.477694e+000
2.628751e+003, 7.677925e+000
2.630680e+003, 7.706203e+000
2.632608e+003, 7.463548e+000
2.634537e+003, 7.173854e+000
2.636465e+003, 7.539245e+000
2.638394e+003, 7.641252e+000
2.640322e+003, 7.485318e+000
2.642251e+003, 7.485319e+000
2.644179e+003, 7.281630e+000
2.646108e+003, 7.016716e+000
2.648036e+003, 7.064826e+000
2.649965e+003, 7.256429e+000
2.651893e+003, 7.321994e+000
2.653822e+003, 6.817252e+000
2.655750e+003, 6.388578e+000
2.657678e+003, 6.306384e+000
2.659607e+003, 6.919386e+000
2.661535e+003, 6.794589e+000
2.663464e+003, 6.526609e+000
2.665392e+003, 6.887752e+000
2.667321e+003, 6.897318e+000
2.669249e+003, 6.679376e+000
2.671178e+003, 6.399158e+000
2.673106e+003, 6.661875e+000
2.675035e+003, 6.850251e+000
2.676963e+003, 6.576264e+000
2.678892e+003, 6.675728e+000
2.680820e+003, 6.784009e+000
2.682749e+003, 6.720946e+000
2.684677e+003, 6.927943e+000
2.686605e+003, 6.907382e+000
2.688534e+003, 6.565050e+000
2.690462e+003, 6.500522e+000
2.692391e+003, 6.728168e+000
2.694319e+003, 7.089806e+000
2.696248e+003, 7.069479e+000
2.698176e+003, 6.655038e+000
2.700105e+003, 6.141284e+000
2.702033e+003, 6.372507e+000
2.703962e+003, 6.478572e+000
2.705890e+003, 6.388698e+000
2.707819e+003, 6.292583e+000
2.709747e+003, 6.010204e+000
2.711676e+003, 5.777392e+000
2.713604e+003, 5.977326e+000
2.715532e+003, 6.062929e+000
2.717461e+003, 6.102997e+000
2.719389e+003, 6.218184e+000
2.721318e+003, 6.100823e+000
2.723246e+003, 5.989005e+000
2.725175e+003, 6.049365e+000
2.727103e+003, 6.388144e+000
2.729032e+003, 6.334678e+000
2.730960e+003, 5.739941e+000
2.732889e+003, 6.537387e+000
2.734817e+003, 6.713147e+000
2.736746e+003, 6.010445e+000
2.738674e+003, 5.821963e+000
2.740603e+003, 5.938357e+000
2.742531e+003, 6.136509e+000
2.744459e+003, 5.978455e+000
2.746388e+003, 5.928661e+000
2.748316e+003, 6.002761e+000
2.750245e+003, 6.191017e+000
2.752173e+003, 6.057870e+000
2.754102e+003, 5.955940e+000
2.756030e+003, 6.165728e+000
2.757959e+003, 5.831320e+000
2.759887e+003, 5.498372e+000
2.761816e+003, 5.428689e+000
2.763744e+003, 5.617544e+000
2.765673e+003, 5.755664e+000
2.767601e+003, 5.805859e+000
2.769530e+003, 6.050771e+000
2.771458e+003, 5.776675e+000
2.773386e+003, 5.333745e+000
2.775315e+003, 5.613216e+000
2.777243e+003, 5.678785e+000
2.779172e+003, 5.421219e+000
2.781100e+003, 4.723975e+000
2.783029e+003, 5.052726e+000
2.784957e+003, 5.446527e+000
2.786886e+003, 5.307125e+000
2.788814e+003, 5.037826e+000
2.790743e+003, 5.140016e+000
2.792671e+003, 5.564786e+000
2.794600e+003, 5.291990e+000
2.796528e+003, 5.156982e+000
2.798457e+003, 5.182864e+000
2.800385e+003, 5.148166e+000
2.802313e+003, 5.186597e+000
2.804242e+003, 5.278735e+000
2.806170e+003, 5.397267e+000
2.808099e+003, 5.664414e+000
2.810027e+003, 5.517576e+000
2.811956e+003, 4.928603e+000
2.813884e+003, 5.193103e+000
2.815813e+003, 5.421870e+000
2.817741e+003, 5.376214e+000
2.819670e+003, 5.045136e+000
2.821598e+003, 4.951735e+000
2.823527e+003, 4.946246e+000
2.825455e+003, 4.666517e+000
2.827384e+003, 4.965637e+000
2.829312e+003, 5.202313e+000
2.831240e+003, 4.987903e+000
2.833169e+003, 4.759207e+000
2.835097e+003, 4.731498e+000
2.837026e+003, 4.881594e+000
2.838954e+003, 4.978781e+000
2.840883e+003, 4.936213e+000
2.842811e+003, 4.823857e+000
2.844740e+003, 4.730653e+000
2.846668e+003, 4.672595e+000
2.848597e+003, 4.779012e+000
2.850525e+003, 5.095828e+000
2.852454e+003, 4.948100e+000
2.854382e+003, 4.876488e+000
2.856311e+003, 4.909472e+000
2.858239e+003, 4.628931e+000
2.860167e+003, 4.292008e+000
2.862096e+003, 4.228012e+000
2.864024e+003, 4.739305e+000
2.865953e+003, 4.589490e+000
2.867881e+003, 4.330760e+000
2.869810e+003, 4.284075e+000
2.871738e+003, 4.611925e+000
2.873667e+003, 4.597346e+000
2.875595e+003, 4.291658e+000
2.877524e+003, 4.054003e+000
2.879452e+003, 4.259633e+000
2.881381e+003, 4.350609e+000
2.883309e+003, 3.872365e+000
2.885238e+003, 3.944901e+000
2.887166e+003, 4.069492e+000
2.889094e+003, 4.078727e+000
2.891023e+003, 4.043292e+000
2.892951e+003, 3.830517e+000
2.894880e+003, 3.629341e+000
2.896808e+003, 3.660502e+000
2.898737e+003, 3.970700e+000
2.900665e+003, 4.148073e+000
2.902594e+003, 4.028275e+000
2.904522e+003, 3.823433e+000
2.906451e+003, 3.772857e+000
2.908379e+003, 3.762604e+000
2.910308e+003, 3.544422e+000
2.912236e+003, 3.840532e+000
2.914165e+003, 3.988324e+000
2.916093e+003, 3.666385e+000
2.918021e+003, 3.657569e+000
2.919950e+003, 3.827707e+000
2.921878e+003, 3.954010e+000
2.923807e+003, 3.645222e+000
2.925735e+003, 3.722143e+000
2.927664e+003, 3.833914e+000
2.929592e+003, 3.740420e+000
2.931521e+003, 3.599638e+000
2.933449e+003, 3.569897e+000
2.935378e+003, 3.620560e+000
2.937306e+003, 3.591844e+000
2.939235e+003, 3.719452e+000
2.941163e+003, 3.742958e+000
2.943092e+003, 3.492116e+000
2.945020e+003, 3.186090e+000
2.946948e+003, 3.308395e+000
2.948877e+003, 3.612544e+000
2.950805e+003, 3.365680e+000
2.952734e+003, 3.468163e+000
2.954662e+003, 3.459493e+000
2.956591e+003, 3.024540e+000
2.958519e+003, 2.852378e+000
2.960448e+003, 3.175147e+000
2.962376e+003, 3.645238e+000
2.964305e+003, 3.633494e+000
2.966233e+003, 3.475957e+000
2.968162e+003, 3.352420e+000
2.970090e+003, 3.329827e+000
2.972019e+003, 3.295020e+000
2.973947e+003, 3.325767e+000
2.975875e+003, 3.389204e+000
2.977804e+003, 3.425579e+000
2.979732e+003, 3.154616e+000
2.981661e+003, 3.028512e+000
2.983589e+003, 3.139309e+000
2.985518e+003, 3.128681e+000
2.987446e+003, 2.939048e+000
2.989375e+003, 2.802163e+000
2.991303e+003, 2.928702e+000
2.993232e+003, 3.240245e+000
2.995160e+003, 3.072678e+000
2.997089e+003, 2.651331e+000
2.999017e+003, 2.906478e+000
3.000946e+003, 2.981501e+000
3.002874e+003, 2.894670e+000
3.004802e+003, 2.742697e+000
3.006731e+003, 3.014987e+000
3.008659e+003, 2.936508e+000
3.010588e+003, 2.710556e+000
3.012516e+003, 2.778191e+000
3.014445e+003, 2.834674e+000
3.016373e+003, 2.798563e+000
3.018302e+003, 2.743182e+000
3.020230e+003, 2.993425e+000
3.022159e+003, 3.040040e+000
3.024087e+003, 2.881184e+000
3.026016e+003, 2.616573e+000
3.027944e+003, 2.729260e+000
3.029873e+003, 2.722410e+000
3.031801e+003, 2.578288e+000
3.033729e+003, 2.426169e+000
3.035658e+003, 2.117735e+000
3.037586e+003, 2.199094e+000
3.039515e+003, 2.588633e+000
3.041443e+003, 2.422754e+000
3.043372e+003, 2.479514e+000
3.045300e+003, 2.551905e+000
3.047229e+003, 2.482639e+000
3.049157e+003, 2.383415e+000
3.051086e+003, 2.284564e+000
3.053014e+003, 2.376416e+000
3.054943e+003, 2.921391e+000
3.056871e+003, 2.607372e+000
3.058800e+003, 2.421646e+000
3.060728e+003, 2.509574e+000
3.062656e+003, 2.599093e+000
3.064585e+003, 2.498726e+000
3.066513e+003, 2.323298e+000
3.068442e+003, 2.199412e+000
3.070370e+003, 2.377014e+000
3.072299e+003, 2.497100e+000
3.074227e+003, 2.509361e+000
3.076156e+003, 2.415745e+000
3.078084e+003, 2.115174e+000
3.080013e+003, 2.152915e+000
3.081941e+003, 2.361725e+000
3.083870e+003, 2.461585e+000
3.085798e+003, 2.511398e+000
3.087727e+003, 2.364527e+000
3.089655e+003, 2.119664e+000
3.091583e+003, 1.988032e+000
3.093512e+003, 2.147482e+000
3.095440e+003, 2.334167e+000
3.097369e+003, 2.456710e+000
3.099297e+003, 2.602088e+000
3.101226e+003, 2.465077e+000
3.103154e+003, 2.339068e+000
3.105083e+003, 2.346961e+000
3.107011e+003, 2.362039e+000
3.108940e+003, 2.358967e+000
3.110868e+003, 2.293134e+000
3.112797e+003, 2.160022e+000
3.114725e+003, 2.135293e+000
3.116654e+003, 2.165608e+000
3.118582e+003, 2.231925e+000
3.120510e+003, 2.312563e+000
3.122439e+003, 1.862976e+000
3.124367e+003, 2.040998e+000
3.126296e+003, 2.364377e+000
3.128224e+003, 2.154377e+000
3.130153e+003, 2.196728e+000
3.132081e+003, 2.239315e+000
3.134010e+003, 2.323051e+000
3.135938e+003, 2.553117e+000
3.137867e+003, 2.137400e+000
3.139795e+003, 2.135007e+000
3.141724e+003, 2.370186e+000
3.143652e+003, 2.093063e+000
3.145581e+003, 2.093235e+000
3.147509e+003, 2.032985e+000
3.149438e+003, 1.945151e+000
3.151366e+003, 2.127492e+000
3.153294e+003, 2.266774e+000
3.155223e+003, 2.281049e+000
3.157151e+003, 2.176418e+000
3.159080e+003, 1.972322e+000
3.161008e+003, 1.786240e+000
3.162937e+003, 2.107768e+000
3.164865e+003, 2.634710e+000
3.166794e+003, 2.329537e+000
3.168722e+003, 2.206442e+000
3.170651e+003, 2.330939e+000
3.172579e+003, 2.582017e+000
3.174508e+003, 2.732237e+000
3.176436e+003, 2.550265e+000
3.178365e+003, 2.305656e+000
3.180293e+003, 2.108967e+000
3.182221e+003, 1.933738e+000
3.184150e+003, 2.331352e+000
3.186078e+003, 2.405159e+000
3.188007e+003, 2.146420e+000
3.189935e+003, 2.250946e+000
3.191864e+003, 1.917190e+000
3.193792e+003, 2.173293e+000
3.195721e+003, 2.646004e+000
3.197649e+003, 2.021521e+000
3.199578e+003, 1.994677e+000
3.201506e+003, 2.080793e+000
3.203435e+003, 2.113298e+000
3.205363e+003, 2.162478e+000
3.207292e+003, 1.956926e+000
3.209220e+003, 1.539697e+000
3.211148e+003, 1.449833e+000
3.213077e+003, 2.457198e+000
3.215005e+003, 2.292729e+000
3.216934e+003, 1.940832e+000
3.218862e+003, 1.725159e+000
3.220791e+003, 1.700788e+000
3.222719e+003, 2.021639e+000
3.224648e+003, 2.085226e+000
3.226576e+003, 1.995083e+000
3.228505e+003, 1.957906e+000
3.230433e+003, 2.059924e+000
3.232362e+003, 2.110807e+000
3.234290e+003, 1.984463e+000
3.236219e+003, 1.691471e+000
3.238147e+003, 1.578016e+000
3.240075e+003, 1.757536e+000
3.242004e+003, 1.842790e+000
3.243932e+003, 1.657566e+000
3.245861e+003, 1.232435e+000
3.247789e+003, 1.528015e+000
3.249718e+003, 1.853689e+000
3.251646e+003, 1.888087e+000
3.253575e+003, 1.625089e+000
3.255503e+003, 1.549386e+000
3.257432e+003, 1.689421e+000
3.259360e+003, 1.835424e+000
3.261289e+003, 1.708772e+000
3.263217e+003, 1.849524e+000
3.265146e+003, 1.522824e+000
3.267074e+003, 1.189066e+000
3.269002e+003, 1.373829e+000
3.270931e+003, 1.361597e+000
3.272859e+003, 1.335130e+000
3.274788e+003, 1.596118e+000
3.276716e+003, 2.073760e+000
3.278645e+003, 1.903210e+000
3.280573e+003, 1.592822e+000
3.282502e+003, 1.583744e+000
3.284430e+003, 1.657713e+000
3.286359e+003, 1.148719e+000
3.288287e+003, 1.409388e+000
3.290216e+003, 1.307000e+000
3.292144e+003, 1.140174e+000
3.294073e+003, 1.495747e+000
3.296001e+003, 1.150704e+000
3.297929e+003, 1.030071e+000
3.299858e+003, 1.279715e+000
3.301786e+003, 1.645159e+000
3.303715e+003, 1.302806e+000
3.305643e+003, 1.406758e+000
3.307572e+003, 1.534456e+000
3.309500e+003, 1.523545e+000
3.311429e+003, 1.527236e+000
3.313357e+003, 1.008693e+000
3.315286e+003, 9.703741e-001
3.317214e+003, 1.188708e+000
3.319143e+003, 1.235684e+000
3.321071e+003, 1.380744e+000
3.323000e+003, 1.787046e+000
3.324928e+003, 1.889214e+000
3.326856e+003, 1.531536e+000
3.328785e+003, 1.138284e+000
3.330713e+003, 8.935352e-001
3.332642e+003, 1.143688e+000
3.334570e+003, 1.519416e+000
3.336499e+003, 1.567294e+000
3.338427e+003, 1.978179e+000
3.340356e+003, 1.729829e+000
3.342284e+003, 1.414395e+000
3.344213e+003, 1.404301e+000
3.346141e+003, 1.501830e+000
3.348070e+003, 1.566893e+000
3.349998e+003, 1.555401e+000
3.351927e+003, 1.514240e+000
3.353855e+003, 1.506822e+000
3.355783e+003, 1.500178e+000
3.357712e+003, 1.529609e+000
3.359640e+003, 1.613268e+000
3.361569e+003, 1.703202e+000
3.363497e+003, 1.662351e+000
3.365426e+003, 1.577837e+000
3.367354e+003, 1.530639e+000
3.369283e+003, 1.435981e+000
3.371211e+003, 1.218574e+000
3.373140e+003, 1.115797e+000
3.375068e+003, 1.026590e+000
3.376997e+003, 1.159137e+000
3.378925e+003, 1.397340e+000
3.380854e+003, 1.373614e+000
3.382782e+003, 1.745140e+000
3.384710e+003, 1.303337e+000
3.386639e+003, 9.246780e-001
3.388567e+003, 1.222607e+000
3.390496e+003, 1.338579e+000
3.392424e+003, 1.456736e+000
3.394353e+003, 1.437597e+000
3.396281e+003, 1.298371e+000
3.398210e+003, 1.157825e+000
3.400138e+003, 1.324688e+000
3.402067e+003, 9.394106e-001
3.403995e+003, 8.422438e-001
3.405924e+003, 1.161717e+000
3.407852e+003, 1.286728e+000
3.409781e+003, 1.291933e+000
3.411709e+003, 1.215463e+000
3.413637e+003, 1.193546e+000
3.415566e+003, 1.221731e+000
3.417494e+003, 1.020653e+000
3.419423e+003, 1.064011e+000
3.421351e+003, 1.380166e+000
3.423280e+003, 1.441086e+000
3.425208e+003, 9.974343e-001
3.427137e+003, 9.473709e-001
3.429065e+003, 1.243512e+000
3.430994e+003, 1.563516e+000
3.432922e+003, 1.379032e+000
3.434851e+003, 5.473744e-001
3.436779e+003, 8.346220e-001
3.438708e+003, 1.238510e+000
3.440636e+003, 1.070917e+000
3.442564e+003, 7.593253e-001
3.444493e+003, 1.104289e+000
3.446421e+003, 9.235697e-001
3.448350e+003, 1.039277e+000
3.450278e+003, 9.508305e-001
3.452207e+003, 7.037938e-001
3.454135e+003, 9.206085e-001
3.456064e+003, 8.310021e-001
##END=



