##NAMES=Metazeunerite
##RRUFFID=R050524
##IDEAL CHEMISTRY=Cu(UO_2_)_2_(AsO_4_)_2_·8H_2_O
##LOCALITY=Majuba Hill mine, Pershing County, Nevada
##OWNER=RRUFF
##SOURCE=University of Arizona Mineral Museum
##DESCRIPTION=Green tabular crystal, cell parameters indicate a disordered structure
##STATUS=The identification of this mineral has been confirmed only by single crystal X-ray diffraction
##URL=https://www.rruff.net/odr/rruff_sample/R050524
##DIFFRACTION SAMPLE DESCRIPTION=Single crystal, powder profile is calculated
##CELL PARAMETERS=a: 7.082 b: 7.082 c: 8.7 alpha: 90 beta: 90 gamma: 90 volume: 436.4 crystal system: tetragonal
##FILETYPE=Raman RAW
##RAMAN WAVELENGTH=532

87.21906, 47.95953
89.14753, 47.61626
91.07600, 47.20821
93.00446, 46.62899
94.93293, 46.01215
96.86140, 45.52901
98.78986, 44.67784
100.7183, 44.41397
102.6468, 44.96797
104.5753, 46.01815
106.5037, 48.77704
108.4322, 51.65785
110.3607, 55.72750
112.2891, 67.38960
114.2176, 83.67381
116.1461, 108.6727
118.0745, 144.1002
120.0030, 190.5467
121.9315, 245.0868
123.8599, 307.9946
125.7884, 378.9173
127.7169, 451.9662
129.6453, 526.4273
131.5738, 603.4695
133.5023, 684.1510
135.4307, 771.5228
137.3592, 858.6296
139.2877, 943.3433
141.2161, 1024.847
143.1446, 1070.078
145.0731, 1094.693
147.0015, 1119.662
148.9300, 1144.991
150.8585, 1170.496
152.7869, 1197.619
154.7154, 1228.215
156.6439, 1263.111
158.5723, 1293.042
160.5008, 1319.139
162.4293, 1341.484
164.3577, 1359.594
166.2862, 1370.386
168.2147, 1384.001
170.1431, 1400.722
172.0716, 1420.418
174.0001, 1450.536
175.9285, 1497.187
177.8570, 1551.419
179.7855, 1605.082
181.7139, 1665.780
183.6424, 1717.404
185.5709, 1758.805
187.4993, 1788.968
189.4278, 1805.068
191.3563, 1798.714
193.2847, 1781.124
195.2132, 1758.724
197.1417, 1727.536
199.0701, 1697.772
200.9986, 1669.069
202.9271, 1641.052
204.8555, 1625.118
206.7840, 1628.527
208.7125, 1640.481
210.6409, 1652.293
212.5694, 1668.420
214.4979, 1675.047
216.4263, 1666.775
218.3548, 1640.768
220.2833, 1615.624
222.2117, 1590.861
224.1402, 1566.875
226.0687, 1543.552
227.9971, 1520.394
229.9256, 1498.898
231.8541, 1477.920
233.7825, 1457.974
235.7110, 1444.007
237.6395, 1441.018
239.5679, 1441.043
241.4964, 1438.380
243.4249, 1430.953
245.3533, 1423.251
247.2818, 1415.423
249.2103, 1407.641
251.1387, 1400.304
253.0672, 1391.666
254.9957, 1384.836
256.9242, 1382.024
258.8526, 1384.973
260.7811, 1388.337
262.7096, 1390.412
264.6380, 1392.176
266.5665, 1396.616
268.4950, 1404.473
270.4234, 1414.420
272.3519, 1427.660
274.2804, 1445.045
276.2088, 1459.212
278.1373, 1466.870
280.0658, 1470.644
281.9942, 1474.860
283.9227, 1477.538
285.8512, 1482.408
287.7796, 1491.724
289.7081, 1505.056
291.6366, 1518.922
293.5650, 1534.686
295.4935, 1549.933
297.4220, 1560.925
299.3504, 1565.872
301.2789, 1571.409
303.2074, 1576.441
305.1358, 1579.801
307.0643, 1597.611
308.9928, 1635.439
310.9212, 1682.256
312.8497, 1733.359
314.7782, 1793.294
316.7066, 1843.943
318.6351, 1883.971
320.5636, 1914.336
322.4920, 1923.301
324.4205, 1902.821
326.3490, 1867.789
328.2774, 1827.295
330.2059, 1778.975
332.1344, 1732.928
334.0628, 1688.145
335.9913, 1648.699
337.9198, 1619.889
339.8482, 1604.355
341.7767, 1594.503
343.7052, 1589.511
345.6336, 1591.226
347.5621, 1583.237
349.4906, 1558.611
351.4190, 1529.800
353.3475, 1503.539
355.2760, 1477.780
357.2044, 1459.320
359.1329, 1450.696
361.0614, 1450.707
362.9898, 1453.031
364.9183, 1458.733
366.8468, 1465.319
368.7752, 1471.637
370.7037, 1477.579
372.6322, 1484.871
374.5606, 1493.657
376.4891, 1503.006
378.4176, 1513.700
380.3460, 1526.332
382.2745, 1540.036
384.2030, 1552.855
386.1314, 1564.384
388.0599, 1578.531
389.9884, 1597.690
391.9168, 1618.393
393.8453, 1636.934
395.7738, 1653.214
397.7022, 1667.921
399.6307, 1681.494
401.5592, 1693.981
403.4876, 1704.533
405.4161, 1713.060
407.3446, 1720.324
409.2730, 1725.599
411.2015, 1728.798
413.1300, 1734.567
415.0584, 1743.433
416.9869, 1755.092
418.9154, 1770.722
420.8438, 1789.903
422.7723, 1810.844
424.7008, 1835.001
426.6292, 1862.347
428.5577, 1889.931
430.4862, 1912.882
432.4146, 1939.174
434.3431, 1973.823
436.2716, 2016.401
438.2000, 2060.589
440.1285, 2106.324
442.0570, 2151.198
443.9854, 2194.473
445.9139, 2238.044
447.8424, 2276.621
449.7708, 2307.594
451.6993, 2328.520
453.6278, 2337.542
455.5562, 2329.303
457.4847, 2313.137
459.4132, 2291.956
461.3416, 2265.697
463.2701, 2238.615
465.1986, 2211.556
467.1270, 2185.169
469.0555, 2160.399
470.9840, 2138.444
472.9124, 2115.255
474.8409, 2089.579
476.7694, 2063.338
478.6978, 2038.903
480.6263, 2016.943
482.5548, 1997.422
484.4832, 1976.389
486.4117, 1954.442
488.3402, 1935.439
490.2686, 1919.774
492.1971, 1907.686
494.1256, 1899.747
496.0540, 1895.608
497.9825, 1893.019
499.9110, 1891.055
501.8394, 1889.737
503.7679, 1888.892
505.6964, 1888.479
507.6248, 1886.282
509.5533, 1880.851
511.4818, 1875.184
513.4103, 1872.527
515.3387, 1877.545
517.2672, 1880.937
519.1957, 1879.867
521.1241, 1875.611
523.0526, 1872.512
524.9811, 1871.969
526.9095, 1872.258
528.8380, 1872.032
530.7665, 1870.754
532.6949, 1869.832
534.6234, 1870.607
536.5519, 1871.875
538.4803, 1872.413
540.4088, 1871.825
542.3373, 1872.271
544.2657, 1874.373
546.1942, 1878.017
548.1227, 1883.251
550.0511, 1890.991
551.9796, 1896.248
553.9081, 1896.495
555.8365, 1894.494
557.7650, 1895.603
559.6935, 1901.050
561.6219, 1905.990
563.5504, 1909.552
565.4789, 1911.788
567.4073, 1913.295
569.3358, 1913.413
571.2643, 1913.106
573.1927, 1913.681
575.1212, 1916.513
577.0497, 1921.616
578.9781, 1928.398
580.9066, 1934.774
582.8351, 1938.987
584.7635, 1941.029
586.6920, 1944.465
588.6205, 1951.320
590.5490, 1960.330
592.4774, 1969.953
594.4059, 1978.838
596.3344, 1986.714
598.2628, 1992.573
600.1913, 1996.867
602.1198, 2000.679
604.0482, 2004.844
605.9767, 2011.273
607.9052, 2021.395
609.8336, 2034.353
611.7621, 2044.788
613.6906, 2049.954
615.6190, 2054.887
617.5475, 2062.436
619.4760, 2072.861
621.4044, 2082.515
623.3329, 2089.493
625.2614, 2096.146
627.1898, 2103.947
629.1183, 2113.983
631.0468, 2125.087
632.9752, 2135.994
634.9037, 2145.633
636.8322, 2153.633
638.7606, 2159.883
640.6891, 2166.122
642.6176, 2173.564
644.5460, 2181.264
646.4745, 2187.971
648.4030, 2192.227
650.3314, 2196.182
652.2599, 2201.742
654.1884, 2208.242
656.1168, 2213.759
658.0453, 2214.805
659.9738, 2216.502
661.9022, 2220.271
663.8307, 2225.962
665.7592, 2230.831
667.6876, 2235.757
669.6161, 2241.594
671.5446, 2248.835
673.4730, 2255.687
675.4015, 2260.370
677.3300, 2262.739
679.2584, 2262.668
681.1869, 2258.029
683.1154, 2252.437
685.0438, 2249.991
686.9723, 2252.951
688.9008, 2257.153
690.8292, 2261.202
692.7577, 2262.038
694.6862, 2261.528
696.6146, 2261.865
698.5431, 2263.923
700.4716, 2267.948
702.4000, 2272.732
704.3285, 2277.296
706.2570, 2280.787
708.1854, 2284.352
710.1139, 2288.374
712.0424, 2292.892
713.9708, 2298.632
715.8993, 2307.685
717.8278, 2316.593
719.7562, 2322.688
721.6847, 2323.424
723.6132, 2325.078
725.5416, 2329.649
727.4701, 2335.175
729.3986, 2339.315
731.3270, 2342.212
733.2555, 2346.461
735.1840, 2352.980
737.1124, 2361.559
739.0409, 2371.647
740.9694, 2382.969
742.8978, 2394.925
744.8263, 2406.718
746.7548, 2422.054
748.6832, 2443.116
750.6117, 2468.279
752.5402, 2496.032
754.4686, 2522.036
756.3971, 2558.558
758.3256, 2604.234
760.2540, 2663.265
762.1825, 2739.801
764.1110, 2831.482
766.0394, 2939.707
767.9679, 3074.555
769.8964, 3223.254
771.8248, 3378.593
773.7533, 3544.105
775.6818, 3710.502
777.6102, 3880.322
779.5387, 4047.197
781.4672, 4246.374
783.3956, 4487.163
785.3241, 4776.547
787.2526, 5094.648
789.1810, 5450.800
791.1095, 5818.515
793.0380, 6157.729
794.9664, 6521.814
796.8949, 6962.288
798.8234, 7482.408
800.7518, 8105.293
802.6803, 8876.354
804.6088, 9730.665
806.5372, 10671.70
808.4657, 11671.89
810.3942, 12477.10
812.3226, 13170.82
814.2511, 13518.79
816.1796, 13411.67
818.1080, 12861.09
820.0365, 12196.93
821.9650, 11365.06
823.8934, 10492.13
825.8219, 9611.295
827.7504, 8722.497
829.6788, 7927.424
831.6073, 7258.783
833.5358, 6683.712
835.4642, 6201.487
837.3927, 5833.237
839.3212, 5455.499
841.2496, 5031.515
843.1781, 4623.635
845.1066, 4272.407
847.0350, 3971.271
848.9635, 3718.450
850.8920, 3530.300
852.8204, 3376.500
854.7489, 3245.901
856.6774, 3138.030
858.6058, 3058.889
860.5343, 3013.969
862.4628, 2988.167
864.3912, 2980.547
866.3197, 2987.862
868.2482, 3002.719
870.1766, 3023.913
872.1051, 3055.850
874.0336, 3101.723
875.9620, 3159.309
877.8905, 3219.530
879.8190, 3292.616
881.7474, 3355.673
883.6759, 3408.341
885.6044, 3445.427
887.5328, 3459.944
889.4613, 3449.829
891.3898, 3418.658
893.3182, 3362.172
895.2467, 3288.237
897.1752, 3210.449
899.1036, 3122.300
901.0321, 3039.987
902.9606, 2965.163
904.8890, 2897.526
906.8175, 2836.715
908.7460, 2783.062
910.6744, 2733.533
912.6029, 2689.568
914.5314, 2647.628
916.4598, 2605.000
918.3883, 2561.516
920.3168, 2520.321
922.2452, 2478.792
924.1737, 2440.107
926.1022, 2408.475
928.0306, 2383.261
929.9591, 2360.559
931.8876, 2340.801
933.8160, 2323.356
935.7445, 2307.253
937.6730, 2292.156
939.6014, 2280.161
941.5299, 2271.254
943.4584, 2266.085
945.3868, 2265.577
947.3153, 2269.410
949.2438, 2272.662
951.1722, 2274.315
953.1007, 2275.865
955.0292, 2278.361
956.9576, 2281.601
958.8861, 2283.382
960.8146, 2280.208
962.7430, 2280.830
964.6715, 2289.596
966.6000, 2303.246
968.5284, 2315.887
970.4569, 2325.762
972.3854, 2338.922
974.3138, 2357.195
976.2423, 2379.704
978.1708, 2403.876
980.0992, 2429.280
982.0277, 2455.191
983.9562, 2486.477
985.8846, 2515.744
987.8131, 2537.238
989.7416, 2550.605
991.6700, 2552.592
993.5985, 2540.952
995.5270, 2523.626
997.4554, 2503.363
999.3839, 2476.249
1001.312, 2450.031
1003.241, 2424.566
1005.169, 2405.132
1007.098, 2392.588
1009.026, 2385.000
1010.955, 2382.046
1012.883, 2385.635
1014.812, 2391.960
1016.740, 2399.469
1018.669, 2408.319
1020.597, 2420.685
1022.526, 2438.366
1024.454, 2454.951
1026.382, 2470.052
1028.311, 2482.230
1030.239, 2490.336
1032.168, 2493.723
1034.096, 2491.117
1036.025, 2480.243
1037.953, 2466.151
1039.882, 2451.446
1041.810, 2435.959
1043.739, 2421.917
1045.667, 2410.110
1047.596, 2398.519
1049.524, 2384.569
1051.453, 2369.468
1053.381, 2358.381
1055.309, 2351.704
1057.238, 2345.820
1059.166, 2338.902
1061.095, 2333.297
1063.023, 2330.372
1064.952, 2329.433
1066.880, 2325.833
1068.809, 2318.009
1070.737, 2309.916
1072.666, 2304.818
1074.594, 2305.531
1076.523, 2306.875
1078.451, 2306.848
1080.380, 2304.640
1082.308, 2301.315
1084.236, 2300.201
1086.165, 2300.618
1088.093, 2302.750
1090.022, 2305.073
1091.950, 2306.441
1093.879, 2306.157
1095.807, 2306.994
1097.736, 2312.866
1099.664, 2317.961
1101.593, 2319.642
1103.521, 2318.099
1105.450, 2316.909
1107.378, 2316.234
1109.307, 2314.801
1111.235, 2314.067
1113.163, 2316.229
1115.092, 2322.234
1117.020, 2326.511
1118.949, 2328.083
1120.877, 2331.008
1122.806, 2335.679
1124.734, 2340.576
1126.663, 2343.810
1128.591, 2346.583
1130.520, 2349.628
1132.448, 2352.087
1134.377, 2353.260
1136.305, 2354.191
1138.234, 2356.985
1140.162, 2361.964
1142.090, 2365.249
1144.019, 2365.083
1145.947, 2364.339
1147.876, 2365.078
1149.804, 2366.539
1151.733, 2366.778
1153.661, 2368.286
1155.590, 2371.445
1157.518, 2374.018
1159.447, 2374.793
1161.375, 2375.941
1163.304, 2381.082
1165.232, 2386.385
1167.161, 2390.222
1169.089, 2392.697
1171.017, 2394.786
1172.946, 2398.483
1174.874, 2404.957
1176.803, 2410.209
1178.731, 2412.253
1180.660, 2413.056
1182.588, 2415.379
1184.517, 2419.967
1186.445, 2425.605
1188.374, 2428.833
1190.302, 2429.791
1192.231, 2430.659
1194.159, 2432.940
1196.088, 2436.532
1198.016, 2440.486
1199.944, 2442.973
1201.873, 2444.899
1203.801, 2447.484
1205.730, 2451.073
1207.658, 2455.055
1209.587, 2459.850
1211.515, 2465.126
1213.444, 2467.663
1215.372, 2467.828
1217.301, 2469.911
1219.229, 2476.970
1221.158, 2484.147
1223.086, 2485.585
1225.015, 2486.884
1226.943, 2491.855
1228.871, 2499.683
1230.800, 2506.023
1232.728, 2509.724
1234.657, 2514.663
1236.585, 2519.270
1238.514, 2523.120
1240.442, 2528.476
1242.371, 2536.859
1244.299, 2544.814
1246.228, 2549.467
1248.156, 2553.475
1250.085, 2559.028
1252.013, 2564.577
1253.942, 2567.354
1255.870, 2567.004
1257.798, 2567.114
1259.727, 2571.076
1261.655, 2575.900
1263.584, 2578.266
1265.512, 2578.077
1267.441, 2579.184
1269.369, 2580.197
1271.298, 2582.740
1273.226, 2589.700
1275.155, 2598.420
1277.083, 2606.774
1279.012, 2615.638
1280.940, 2625.239
1282.869, 2632.461
1284.797, 2636.462
1286.725, 2639.408
1288.654, 2642.774
1290.582, 2647.516
1292.511, 2653.844
1294.439, 2658.998
1296.368, 2660.700
1298.296, 2661.335
1300.225, 2665.071
1302.153, 2672.066
1304.082, 2677.273
1306.010, 2678.195
1307.939, 2679.961
1309.867, 2684.375
1311.796, 2689.865
1313.724, 2693.516
1315.652, 2693.936
1317.581, 2694.992
1319.509, 2697.887
1321.438, 2702.926
1323.366, 2709.676
1325.295, 2717.118
1327.223, 2724.261
1329.152, 2731.311
1331.080, 2738.199
1333.009, 2744.357
1334.937, 2749.579
1336.866, 2754.084
1338.794, 2758.304
1340.723, 2761.542
1342.651, 2763.194
1344.579, 2764.137
1346.508, 2766.806
1348.436, 2767.886
1350.365, 2764.644
1352.293, 2757.713
1354.222, 2756.068
1356.150, 2763.086
1358.079, 2771.056
1360.007, 2778.587
1361.936, 2785.510
1363.864, 2791.558
1365.793, 2796.085
1367.721, 2801.467
1369.650, 2808.125
1371.578, 2814.883
1373.506, 2821.327
1375.435, 2827.221
1377.363, 2830.524
1379.292, 2830.028
1381.220, 2830.257
1383.149, 2834.094
1385.077, 2838.605
1387.006, 2840.252
1388.934, 2841.392
1390.863, 2845.432
1392.791, 2852.841
1394.720, 2856.914
1396.648, 2852.596
1398.577, 2849.778
1400.505, 2855.011
1402.433, 2865.198
1404.362, 2871.946
1406.290, 2874.265
1408.219, 2876.583
1410.147, 2880.295
1412.076, 2882.537
1414.004, 2882.269
1415.933, 2881.691
1417.861, 2883.731
1419.790, 2889.866
1421.718, 2895.296
1423.647, 2899.646
1425.575, 2904.782
1427.504, 2911.825
1429.432, 2919.838
1431.360, 2925.016
1433.289, 2925.858
1435.217, 2927.272
1437.146, 2931.250
1439.074, 2935.185
1441.003, 2936.695
1442.931, 2936.724
1444.860, 2938.846
1446.788, 2943.879
1448.717, 2947.657
1450.645, 2947.367
1452.574, 2948.022
1454.502, 2953.786
1456.431, 2961.455
1458.359, 2963.484
1460.287, 2957.485
1462.216, 2956.671
1464.144, 2969.806
1466.073, 2981.690
1468.001, 2982.721
1469.930, 2977.266
1471.858, 2978.139
1473.787, 2988.504
1475.715, 2995.650
1477.644, 2993.432
1479.572, 2992.431
1481.501, 2998.512
1483.429, 3008.175
1485.358, 3013.626
1487.286, 3011.343
1489.214, 3011.890
1491.143, 3018.931
1493.071, 3024.197
1495.000, 3023.465
1496.928, 3020.005
1498.857, 3019.603
1500.785, 3024.077
1502.714, 3026.380
1504.642, 3023.351
1506.571, 3022.480
1508.499, 3028.536
1510.428, 3036.301
1512.356, 3037.683
1514.285, 3032.403
1516.213, 3030.334
1518.141, 3033.263
1520.070, 3036.356
1521.998, 3039.476
1523.927, 3041.335
1525.855, 3040.004
1527.784, 3036.795
1529.712, 3035.764
1531.641, 3037.430
1533.569, 3040.086
1535.498, 3043.096
1537.426, 3047.287
1539.355, 3054.691
1541.283, 3063.190
1543.212, 3066.490
1545.140, 3063.001
1547.068, 3061.817
1548.997, 3066.228
1550.925, 3071.386
1552.854, 3075.887
1554.782, 3079.109
1556.711, 3079.272
1558.639, 3075.787
1560.568, 3072.713
1562.496, 3071.024
1564.425, 3069.190
1566.353, 3065.215
1568.282, 3061.987
1570.210, 3064.042
1572.139, 3071.875
1574.067, 3077.728
1575.995, 3081.812
1577.924, 3084.053
1579.852, 3080.430
1581.781, 3077.566
1583.709, 3082.177
1585.638, 3092.025
1587.566, 3096.625
1589.495, 3091.970
1591.423, 3090.602
1593.352, 3097.699
1595.280, 3103.273
1597.209, 3101.797
1599.137, 3097.194
1601.066, 3095.348
1602.994, 3096.490
1604.922, 3097.142
1606.851, 3096.292
1608.779, 3095.329
1610.708, 3095.382
1612.636, 3094.698
1614.565, 3092.093
1616.493, 3088.337
1618.422, 3084.671
1620.350, 3080.227
1622.279, 3078.478
1624.207, 3081.152
1626.136, 3084.874
1628.064, 3089.152
1629.993, 3092.216
1631.921, 3090.282
1633.849, 3082.094
1635.778, 3078.654
1637.706, 3084.297
1639.635, 3087.980
1641.563, 3087.824
1643.492, 3085.582
1645.420, 3081.379
1647.349, 3076.369
1649.277, 3074.534
1651.206, 3076.494
1653.134, 3077.921
1655.063, 3077.943
1656.991, 3077.468
1658.920, 3077.265
1660.848, 3076.467
1662.776, 3072.475
1664.705, 3066.388
1666.633, 3067.639
1668.562, 3080.017
1670.490, 3089.443
1672.419, 3091.836
1674.347, 3091.665
1676.276, 3089.366
1678.204, 3086.020
1680.133, 3083.285
1682.061, 3081.045
1683.990, 3081.580
1685.918, 3088.981
1687.847, 3091.826
1689.775, 3084.578
1691.703, 3075.337
1693.632, 3068.962
1695.560, 3064.970
1697.489, 3061.871
1699.417, 3059.469
1701.346, 3058.541
1703.274, 3058.958
1705.203, 3060.952
1707.131, 3067.866
1709.060, 3073.598
1710.988, 3071.570
1712.917, 3064.156
1714.845, 3058.978
1716.774, 3055.799
1718.702, 3055.085
1720.630, 3059.462
1722.559, 3061.850
1724.487, 3057.000
1726.416, 3051.310
1728.344, 3052.664
1730.273, 3058.893
1732.201, 3059.448
1734.130, 3053.064
1736.058, 3047.954
1737.987, 3046.576
1739.915, 3044.836
1741.844, 3039.950
1743.772, 3035.130
1745.701, 3034.193
1747.629, 3036.317
1749.557, 3037.046
1751.486, 3036.049
1753.414, 3035.044
1755.343, 3032.592
1757.271, 3031.994
1759.200, 3036.180
1761.128, 3040.813
1763.057, 3041.262
1764.985, 3038.334
1766.914, 3036.157
1768.842, 3034.882
1770.771, 3034.750
1772.699, 3038.851
1774.628, 3040.616
1776.556, 3035.155
1778.484, 3029.194
1780.413, 3028.886
1782.341, 3032.458
1784.270, 3033.993
1786.198, 3031.172
1788.127, 3032.654
1790.055, 3047.358
1791.984, 3054.034
1793.912, 3042.154
1795.841, 3028.084
1797.769, 3023.784
1799.698, 3026.422
1801.626, 3028.488
1803.555, 3028.890
1805.483, 3033.002
1807.411, 3043.616
1809.340, 3052.332
1811.268, 3057.007
1813.197, 3059.981
1815.125, 3062.498
1817.054, 3064.246
1818.982, 3065.120
1820.911, 3065.463
1822.839, 3063.749
1824.768, 3058.368
1826.696, 3055.874
1828.625, 3057.994
1830.553, 3061.999
1832.482, 3069.025
1834.410, 3075.393
1836.339, 3076.369
1838.267, 3073.230
1840.195, 3073.050
1842.124, 3076.481
1844.052, 3078.657
1845.981, 3078.081
1847.909, 3078.819
1849.838, 3082.130
1851.766, 3087.323
1853.695, 3095.279
1855.623, 3103.900
1857.552, 3109.886
1859.480, 3113.140
1861.409, 3113.363
1863.337, 3108.846
1865.266, 3109.112
1867.194, 3121.074
1869.122, 3130.534
1871.051, 3128.173
1872.979, 3122.542
1874.908, 3121.227
1876.836, 3123.229
1878.765, 3125.965
1880.693, 3129.475
1882.622, 3132.375
1884.550, 3134.266
1886.479, 3136.069
1888.407, 3138.098
1890.336, 3140.105
1892.264, 3141.823
1894.193, 3143.730
1896.121, 3146.545
1898.049, 3150.222
1899.978, 3153.846
1901.906, 3156.562
1903.835, 3161.290
1905.763, 3170.331
1907.692, 3177.585
1909.620, 3178.852
1911.549, 3180.860
1913.477, 3190.969
1915.406, 3202.921
1917.334, 3204.872
1919.263, 3197.291
1921.191, 3196.279
1923.120, 3204.066
1925.048, 3210.810
1926.976, 3215.388
1928.905, 3218.895
1930.833, 3219.236
1932.762, 3221.008
1934.690, 3228.640
1936.619, 3238.504
1938.547, 3245.511
1940.476, 3249.622
1942.404, 3249.847
1944.333, 3245.488
1946.261, 3243.753
1948.190, 3246.753
1950.118, 3251.268
1952.047, 3257.387
1953.975, 3263.518
1955.904, 3267.582
1957.832, 3271.377
1959.760, 3278.290
1961.689, 3287.427
1963.617, 3293.129
1965.546, 3293.606
1967.474, 3296.932
1969.403, 3306.863
1971.331, 3314.708
1973.260, 3319.029
1975.188, 3320.947
1977.117, 3318.520
1979.045, 3315.930
1980.974, 3319.086
1982.902, 3326.493
1984.831, 3331.333
1986.759, 3333.052
1988.688, 3336.521
1990.616, 3342.436
1992.544, 3349.563
1994.473, 3359.979
1996.401, 3368.300
1998.330, 3371.295
2000.258, 3372.105
2002.187, 3370.273
2004.115, 3368.923
2006.044, 3376.106
2007.972, 3390.015
2009.901, 3396.652
2011.829, 3393.487
2013.758, 3393.700
2015.686, 3402.715
2017.615, 3409.771
2019.543, 3410.996
2021.471, 3411.326
2023.400, 3412.603
2025.328, 3415.409
2027.257, 3420.723
2029.185, 3427.730
2031.114, 3433.969
2033.042, 3438.876
2034.971, 3443.683
2036.899, 3450.055
2038.828, 3451.148
2040.756, 3440.603
2042.685, 3434.063
2044.613, 3440.533
2046.542, 3448.872
2048.470, 3453.339
2050.398, 3455.975
2052.327, 3458.812
2054.255, 3461.887
2056.184, 3464.870
2058.112, 3467.504
2060.041, 3471.250
2061.969, 3476.226
2063.898, 3480.853
2065.826, 3484.532
2067.755, 3487.991
2069.683, 3492.182
2071.612, 3495.753
2073.540, 3496.855
2075.469, 3497.671
2077.397, 3501.895
2079.325, 3508.314
2081.254, 3511.966
2083.182, 3512.614
2085.111, 3511.415
2087.039, 3506.261
2088.968, 3507.410
2090.896, 3521.226
2092.825, 3531.049
2094.753, 3527.675
2096.682, 3523.813
2098.610, 3528.514
2100.539, 3534.862
2102.467, 3535.274
2104.396, 3532.187
2106.324, 3530.641
2108.252, 3530.750
2110.181, 3533.171
2112.109, 3538.754
2114.038, 3544.810
2115.966, 3554.055
2117.895, 3559.934
2119.823, 3558.068
2121.752, 3557.842
2123.680, 3563.649
2125.609, 3570.999
2127.537, 3577.938
2129.466, 3583.080
2131.394, 3582.616
2133.323, 3578.736
2135.251, 3579.228
2137.179, 3583.942
2139.108, 3589.636
2141.036, 3596.874
2142.965, 3601.405
2144.893, 3601.674
2146.822, 3601.631
2148.750, 3602.512
2150.679, 3603.383
2152.607, 3601.647
2154.536, 3602.239
2156.464, 3611.283
2158.393, 3623.800
2160.321, 3631.379
2162.250, 3635.679
2164.178, 3645.566
2166.106, 3660.626
2168.035, 3668.679
2169.963, 3668.048
2171.892, 3667.351
2173.820, 3666.672
2175.749, 3669.353
2177.677, 3680.489
2179.606, 3688.954
2181.534, 3686.878
2183.463, 3684.393
2185.391, 3688.764
2187.320, 3696.332
2189.248, 3703.560
2191.177, 3710.079
2193.105, 3714.913
2195.033, 3718.038
2196.962, 3720.053
2198.890, 3721.112
2200.819, 3720.435
2202.747, 3717.818
2204.676, 3716.187
2206.604, 3715.975
2208.533, 3718.400
2210.461, 3726.831
2212.390, 3734.281
2214.318, 3735.649
2216.247, 3735.846
2218.175, 3737.383
2220.104, 3740.309
2222.032, 3745.784
2223.960, 3752.565
2225.889, 3757.728
2227.817, 3761.444
2229.746, 3763.091
2231.674, 3762.977
2233.603, 3761.995
2235.531, 3759.817
2237.460, 3760.474
2239.388, 3766.567
2241.317, 3770.888
2243.245, 3767.447
2245.174, 3766.290
2247.102, 3774.110
2249.031, 3782.734
2250.959, 3786.622
2252.887, 3788.305
2254.816, 3790.210
2256.744, 3792.364
2258.673, 3794.894
2260.601, 3797.483
2262.530, 3798.406
2264.458, 3797.701
2266.387, 3799.485
2268.315, 3804.573
2270.244, 3807.861
2272.172, 3807.981
2274.101, 3809.305
2276.029, 3815.192
2277.958, 3818.951
2279.886, 3816.974
2281.814, 3815.049
2283.743, 3814.501
2285.671, 3815.616
2287.600, 3820.311
2289.528, 3824.926
2291.457, 3824.228
2293.385, 3821.603
2295.314, 3823.390
2297.242, 3828.243
2299.171, 3832.379
2301.099, 3835.750
2303.028, 3831.544
2304.956, 3815.836
2306.885, 3808.658
2308.813, 3813.663
2310.741, 3818.070
2312.670, 3820.793
2314.598, 3823.479
2316.527, 3826.438
2318.455, 3829.332
2320.384, 3832.426
2322.312, 3834.506
2324.241, 3834.284
2326.169, 3833.336
2328.098, 3832.847
2330.026, 3832.284
2331.955, 3831.953
2333.883, 3830.444
2335.812, 3823.708
2337.740, 3813.583
2339.668, 3808.090
2341.597, 3806.580
2343.525, 3804.396
2345.454, 3801.560
2347.382, 3795.827
2349.311, 3786.105
2351.239, 3779.169
2353.168, 3776.272
2355.096, 3774.920
2357.025, 3775.685
2358.953, 3776.341
2360.882, 3776.582
2362.810, 3776.420
2364.739, 3775.865
2366.667, 3774.913
2368.595, 3774.118
2370.524, 3772.052
2372.452, 3766.082
2374.381, 3759.442
2376.309, 3756.612
2378.238, 3755.076
2380.166, 3749.789
2382.095, 3743.121
2384.023, 3743.167
2385.952, 3748.172
2387.880, 3743.395
2389.809, 3730.142
2391.737, 3722.621
2393.666, 3721.364
2395.594, 3723.817
2397.522, 3731.238
2399.451, 3735.122
2401.379, 3733.712
2403.308, 3730.180
2405.236, 3722.384
2407.165, 3717.067
2409.093, 3717.769
2411.022, 3716.943
2412.950, 3711.976
2414.879, 3705.882
2416.807, 3697.708
2418.736, 3692.196
2420.664, 3696.077
2422.593, 3699.473
2424.521, 3690.159
2426.449, 3679.276
2428.378, 3682.023
2430.306, 3689.505
2432.235, 3688.069
2434.163, 3680.699
2436.092, 3672.866
2438.020, 3664.884
2439.949, 3657.220
2441.877, 3650.343
2443.806, 3646.982
2445.734, 3647.630
2447.663, 3647.023
2449.591, 3644.937
2451.520, 3642.705
2453.448, 3639.929
2455.376, 3637.092
2457.305, 3633.340
2459.233, 3631.894
2461.162, 3635.575
2463.090, 3635.729
2465.019, 3631.133
2466.947, 3623.592
2468.876, 3610.203
2470.804, 3600.469
2472.733, 3597.630
2474.661, 3597.597
2476.590, 3599.374
2478.518, 3601.146
2480.447, 3602.196
2482.375, 3601.444
2484.303, 3598.069
2486.232, 3592.983
2488.160, 3586.382
2490.089, 3580.073
2492.017, 3577.137
2493.946, 3575.273
2495.874, 3568.873
2497.803, 3562.562
2499.731, 3565.678
2501.660, 3573.423
2503.588, 3575.127
2505.517, 3571.717
2507.445, 3566.535
2509.374, 3559.996
2511.302, 3557.309
2513.230, 3558.049
2515.159, 3558.781
2517.087, 3559.247
2519.016, 3552.067
2520.944, 3536.218
2522.873, 3526.690
2524.801, 3525.910
2526.730, 3526.392
2528.658, 3528.831
2530.587, 3528.622
2532.515, 3523.540
2534.444, 3523.283
2536.372, 3530.949
2538.301, 3535.107
2540.229, 3532.010
2542.157, 3528.363
2544.086, 3526.320
2546.014, 3523.458
2547.943, 3518.459
2549.871, 3515.173
2551.800, 3514.794
2553.728, 3515.757
2555.657, 3517.853
2557.585, 3519.677
2559.514, 3520.383
2561.442, 3520.322
2563.371, 3520.909
2565.299, 3519.111
2567.228, 3510.070
2569.156, 3502.460
2571.084, 3502.813
2573.013, 3504.927
2574.941, 3504.910
2576.870, 3503.836
2578.798, 3503.349
2580.727, 3501.563
2582.655, 3493.998
2584.584, 3486.841
2586.512, 3488.586
2588.441, 3493.627
2590.369, 3495.559
2592.298, 3496.020
2594.226, 3497.225
2596.155, 3498.207
2598.083, 3497.593
2600.011, 3495.629
2601.940, 3491.894
2603.868, 3488.004
2605.797, 3488.469
2607.725, 3491.337
2609.654, 3491.277
2611.582, 3489.699
2613.511, 3491.537
2615.439, 3495.038
2617.368, 3493.238
2619.296, 3487.074
2621.225, 3482.129
2623.153, 3478.568
2625.082, 3478.607
2627.010, 3481.376
2628.938, 3481.016
2630.867, 3477.975
2632.795, 3473.424
2634.724, 3467.774
2636.652, 3466.009
2638.581, 3467.640
2640.509, 3464.356
2642.438, 3456.521
2644.366, 3457.906
2646.295, 3469.245
2648.223, 3470.220
2650.152, 3458.625
2652.080, 3457.107
2654.009, 3465.909
2655.937, 3464.787
2657.865, 3453.170
2659.794, 3449.058
2661.722, 3455.257
2663.651, 3458.664
2665.579, 3458.391
2667.508, 3456.438
2669.436, 3451.897
2671.365, 3453.967
2673.293, 3463.554
2675.222, 3465.359
2677.150, 3456.313
2679.079, 3451.839
2681.007, 3454.069
2682.936, 3456.650
2684.864, 3459.868
2686.792, 3461.727
2688.721, 3461.921
2690.649, 3461.027
2692.578, 3458.271
2694.506, 3458.471
2696.435, 3463.151
2698.363, 3466.394
2700.292, 3468.393
2702.220, 3466.991
2704.149, 3461.445
2706.077, 3462.353
2708.006, 3472.819
2709.934, 3477.841
2711.863, 3474.839
2713.791, 3472.318
2715.719, 3469.878
2717.648, 3471.074
2719.576, 3476.408
2721.505, 3478.905
2723.433, 3477.389
2725.362, 3476.340
2727.290, 3475.901
2729.219, 3477.887
2731.147, 3482.912
2733.076, 3482.396
2735.004, 3475.492
2736.933, 3478.307
2738.861, 3494.429
2740.790, 3502.427
2742.718, 3500.979
2744.646, 3497.242
2746.575, 3491.302
2748.503, 3493.657
2750.432, 3504.616
2752.360, 3513.492
2754.289, 3519.594
2756.217, 3523.766
2758.146, 3525.628
2760.074, 3527.065
2762.003, 3528.034
2763.931, 3529.395
2765.860, 3531.279
2767.788, 3532.120
2769.717, 3532.465
2771.645, 3535.852
2773.573, 3541.966
2775.502, 3547.155
2777.430, 3550.862
2779.359, 3548.671
2781.287, 3543.250
2783.216, 3548.943
2785.144, 3562.253
2787.073, 3569.338
2789.001, 3571.281
2790.930, 3568.320
2792.858, 3564.172
2794.787, 3567.475
2796.715, 3575.979
2798.644, 3586.367
2800.572, 3596.714
2802.500, 3601.732
2804.429, 3605.249
2806.357, 3617.504
2808.286, 3630.008
2810.214, 3628.477
2812.143, 3621.944
2814.071, 3621.587
2816.000, 3624.330
2817.928, 3625.552
2819.857, 3628.462
2821.785, 3637.626
2823.714, 3647.613
2825.642, 3653.409
2827.571, 3657.651
2829.499, 3662.227
2831.427, 3666.913
2833.356, 3673.863
2835.284, 3678.319
2837.213, 3672.623
2839.141, 3671.093
2841.070, 3687.731
2842.998, 3699.822
2844.927, 3693.502
2846.855, 3691.442
2848.784, 3708.052
2850.712, 3721.609
2852.641, 3724.324
2854.569, 3724.668
2856.498, 3722.636
2858.426, 3723.263
2860.354, 3728.823
2862.283, 3733.542
2864.211, 3735.678
2866.140, 3738.037
2868.068, 3740.215
2869.997, 3746.386
2871.925, 3757.885
2873.854, 3763.750
2875.782, 3761.375
2877.711, 3761.969
2879.639, 3765.482
2881.568, 3773.204
2883.496, 3784.204
2885.425, 3786.248
2887.353, 3780.765
2889.281, 3784.395
2891.210, 3794.574
2893.138, 3793.337
2895.067, 3785.560
2896.995, 3786.997
2898.924, 3795.011
2900.852, 3806.191
2902.781, 3817.311
2904.709, 3821.843
2906.638, 3823.733
2908.566, 3829.861
2910.495, 3835.396
2912.423, 3834.590
2914.352, 3832.980
2916.280, 3834.467
2918.208, 3837.945
2920.137, 3842.697
2922.065, 3848.180
2923.994, 3855.355
2925.922, 3860.261
2927.851, 3859.759
2929.779, 3859.444
2931.708, 3861.655
2933.636, 3863.530
2935.565, 3864.475
2937.493, 3866.619
2939.422, 3872.736
2941.350, 3873.714
2943.279, 3867.132
2945.207, 3864.245
2947.135, 3865.495
2949.064, 3868.712
2950.992, 3873.956
2952.921, 3875.244
2954.849, 3873.384
2956.778, 3874.282
2958.706, 3877.708
2960.635, 3882.451
2962.563, 3887.504
2964.492, 3890.494
2966.420, 3891.214
2968.349, 3886.944
2970.277, 3882.385
2972.206, 3884.700
2974.134, 3887.274
2976.063, 3883.957
2977.991, 3879.474
2979.919, 3877.065
2981.848, 3875.853
2983.776, 3874.120
2985.705, 3876.315
2987.633, 3887.834
2989.562, 3895.489
2991.490, 3895.649
2993.419, 3893.230
2995.347, 3887.711
2997.276, 3886.433
2999.204, 3894.556
3001.133, 3893.041
3003.061, 3882.091
3004.990, 3877.484
3006.918, 3878.878
3008.846, 3875.782
3010.775, 3870.777
3012.703, 3880.029
3014.632, 3895.776
3016.560, 3899.665
3018.489, 3896.741
3020.417, 3891.054
3022.346, 3886.293
3024.274, 3889.106
3026.203, 3891.075
3028.131, 3883.935
3030.060, 3878.590
3031.988, 3882.229
3033.917, 3885.989
3035.845, 3886.113
3037.773, 3887.688
3039.702, 3892.326
3041.630, 3896.067
3043.559, 3899.907
3045.487, 3897.034
3047.416, 3886.860
3049.344, 3880.086
3051.273, 3877.294
3053.201, 3881.597
3055.130, 3890.055
3057.058, 3890.977
3058.987, 3887.180
3060.915, 3884.560
3062.844, 3882.312
3064.772, 3876.347
3066.700, 3874.337
3068.629, 3889.832
3070.557, 3902.028
3072.486, 3894.915
3074.414, 3890.857
3076.343, 3905.900
3078.271, 3912.343
3080.200, 3902.284
3082.128, 3895.068
3084.057, 3893.818
3085.985, 3892.957
3087.914, 3892.070
3089.842, 3891.218
3091.771, 3890.910
3093.699, 3897.598
3095.627, 3908.098
3097.556, 3913.547
3099.484, 3916.007
3101.413, 3918.932
3103.341, 3921.229
3105.270, 3921.929
3107.198, 3921.555
3109.127, 3920.730
3111.055, 3918.833
3112.984, 3915.310
3114.912, 3912.731
3116.841, 3911.012
3118.769, 3914.035
3120.698, 3924.321
3122.626, 3931.631
3124.554, 3935.586
3126.483, 3935.053
3128.411, 3931.782
3130.340, 3937.839
3132.268, 3949.307
3134.197, 3956.848
3136.125, 3961.976
3138.054, 3964.900
3139.982, 3968.530
3141.911, 3979.880
3143.839, 3984.946
3145.768, 3972.469
3147.696, 3965.526
3149.625, 3977.402
3151.553, 3986.368
3153.481, 3989.858
3155.410, 3996.683
3157.338, 4007.410
3159.267, 4019.620
3161.195, 4032.502
3163.124, 4044.748
3165.052, 4054.294
3166.981, 4054.766
3168.909, 4052.689
3170.838, 4053.481
3172.766, 4059.614
3174.695, 4076.415
3176.623, 4092.575
3178.552, 4105.244
3180.480, 4111.339
3182.408, 4105.050
3184.337, 4110.264
3186.265, 4129.675
3188.194, 4139.082
3190.122, 4137.897
3192.051, 4139.439
3193.979, 4143.435
3195.908, 4148.250
3197.836, 4155.097
3199.765, 4166.199
3201.693, 4179.247
3203.622, 4193.216
3205.550, 4205.403
3207.479, 4213.632
3209.407, 4219.107
3211.335, 4221.180
3213.264, 4221.687
3215.192, 4221.123
3217.121, 4222.428
3219.049, 4226.146
3220.978, 4225.837
3222.906, 4223.468
3224.835, 4219.646
3226.763, 4220.277
3228.692, 4238.287
3230.620, 4255.468
3232.549, 4254.701
3234.477, 4254.341
3236.406, 4263.658
3238.334, 4268.835
3240.262, 4266.424
3242.191, 4264.394
3244.119, 4263.363
3246.048, 4267.818
3247.976, 4275.790
3249.905, 4277.024
3251.833, 4276.169
3253.762, 4284.633
3255.690, 4292.115
3257.619, 4286.784
3259.547, 4281.845
3261.476, 4284.193
3263.404, 4286.331
3265.333, 4284.626
3267.261, 4288.759
3269.189, 4300.068
3271.118, 4303.432
3273.046, 4299.982
3274.975, 4298.441
3276.903, 4297.870
3278.832, 4292.046
3280.760, 4292.083
3282.689, 4314.231
3284.617, 4334.968
3286.546, 4340.813
3288.474, 4342.446
3290.403, 4339.623
3292.331, 4343.532
3294.260, 4357.281
3296.188, 4356.059
3298.116, 4343.826
3300.045, 4337.369
3301.973, 4336.389
3303.902, 4345.510
3305.830, 4352.621
3307.759, 4346.033
3309.687, 4337.792
3311.616, 4330.360
3313.544, 4329.659
3315.473, 4338.386
3317.401, 4338.828
3319.330, 4330.238
3321.258, 4321.039
3323.187, 4314.856
3325.115, 4330.183
3327.043, 4347.218
3328.972, 4341.327
3330.900, 4331.896
3332.829, 4330.310
3334.757, 4330.289
3336.686, 4331.272
3338.614, 4329.943
3340.543, 4324.782
3342.471, 4327.714
3344.400, 4335.189
3346.328, 4334.114
3348.257, 4328.806
3350.185, 4325.264
3352.114, 4322.501
3354.042, 4319.713
3355.970, 4318.108
3357.899, 4317.581
3359.827, 4320.696
3361.756, 4327.744
3363.684, 4331.545
3365.613, 4332.765
3367.541, 4340.528
3369.470, 4347.380
3371.398, 4336.718
3373.327, 4325.775
3375.255, 4333.300
3377.184, 4334.425
3379.112, 4319.546
3381.041, 4310.649
3382.969, 4314.771
3384.897, 4303.771
3386.826, 4283.018
3388.754, 4279.359
3390.683, 4282.454
3392.611, 4278.123
3394.540, 4270.019
3396.468, 4260.712
3398.397, 4249.495
3400.325, 4234.827
3402.254, 4222.616
3404.182, 4213.127
3406.111, 4202.093
3408.039, 4190.304
3409.968, 4182.668
3411.896, 4176.114
3413.824, 4167.839
3415.753, 4158.068
3417.681, 4146.417
3419.610, 4134.671
3421.538, 4122.750
3423.467, 4114.555
3425.395, 4109.958
3427.324, 4104.019
3429.252, 4096.864
3431.181, 4088.837
3433.109, 4080.361
3435.038, 4071.934
3436.966, 4063.094
3438.895, 4053.321
3440.823, 4044.771
3442.751, 4038.720
3444.680, 4026.142
3446.608, 4009.993
3448.537, 3999.796
3450.465, 3993.979
3452.394, 3993.013
3454.322, 3990.589
3456.251, 3982.983
3458.179, 3971.253
3460.108, 3953.523
3462.036, 3945.440
3463.965, 3945.516
3465.893, 3932.955
3467.822, 3915.234
3469.750, 3906.349
3471.678, 3899.649
3473.607, 3890.262
3475.535, 3882.666
3477.464, 3878.641
3479.392, 3867.057
3481.321, 3846.993
3483.249, 3837.755
3485.178, 3835.416
3487.106, 3833.708
3489.035, 3829.508
3490.963, 3817.302
3492.892, 3807.875
3494.820, 3805.556
3496.749, 3799.060
3498.677, 3786.830
3500.605, 3779.833
3502.534, 3775.531
3504.462, 3767.500
3506.391, 3758.875
3508.319, 3752.257
3510.248, 3746.776
3512.176, 3743.692
3514.105, 3736.002
3516.033, 3723.428
3517.962, 3709.372
3519.890, 3697.353
3521.819, 3699.043
3523.747, 3700.512
3525.676, 3687.820
3527.604, 3675.981
3529.532, 3669.198
3531.461, 3669.632
3533.389, 3675.804
3535.318, 3666.474
3537.246, 3650.673
3539.175, 3651.153
3541.103, 3651.421
3543.032, 3636.030
3544.960, 3624.458
3546.889, 3621.623
3548.817, 3623.201
3550.746, 3627.414
3552.674, 3622.538
3554.603, 3613.809
3556.531, 3611.424
3558.459, 3608.726
3560.388, 3601.824
3562.316, 3593.735
3564.245, 3584.905
3566.173, 3575.433
3568.102, 3566.962
3570.030, 3572.082
3571.959, 3578.915
3573.887, 3574.606
3575.816, 3566.081
3577.744, 3556.261
3579.673, 3544.392
3581.601, 3530.752
3583.530, 3524.224
3585.458, 3522.417
3587.386, 3518.587
3589.315, 3514.737
3591.243, 3510.927
3593.172, 3510.435
3595.100, 3514.409
3597.029, 3516.099
3598.957, 3514.922
3600.886, 3510.628
3602.814, 3504.339
3604.743, 3496.710
3606.671, 3489.483
3608.600, 3483.159
3610.528, 3479.802
3612.457, 3480.601
3614.385, 3483.307
3616.313, 3484.445
3618.242, 3470.342
3620.170, 3458.038
3622.099, 3464.610
3624.027, 3468.438
3625.956, 3463.024
3627.884, 3461.111
3629.813, 3461.351
3631.741, 3451.093
3633.670, 3439.903
3635.598, 3440.818
3637.527, 3441.730
3639.455, 3438.565
3641.384, 3435.040
3643.312, 3431.486
3645.240, 3427.393
3647.169, 3422.846
3649.097, 3417.449
3651.026, 3413.087
3652.954, 3410.989
3654.883, 3409.861
3656.811, 3410.020
3658.740, 3404.663
3660.668, 3397.508
3662.597, 3395.615
3664.525, 3398.418
3666.454, 3410.063
3668.382, 3411.918
3670.311, 3395.764
3672.239, 3384.887
3674.167, 3378.960
3676.096, 3377.521
3678.024, 3377.058
3679.953, 3374.626
3681.881, 3370.663
3683.810, 3363.606
3685.738, 3362.890
3687.667, 3366.704
3689.595, 3365.374
3691.524, 3364.000
3693.452, 3371.516
3695.381, 3374.026
3697.309, 3365.660
3699.238, 3362.456
3701.166, 3363.878
3703.094, 3360.446
3705.023, 3356.711
3706.951, 3358.136
3708.880, 3360.645
3710.808, 3363.970
3712.737, 3361.159
3714.665, 3353.387
3716.594, 3352.227
3718.522, 3354.181
3720.451, 3357.357
3722.379, 3358.837
3724.308, 3358.488
3726.236, 3349.280
3728.165, 3333.597
3730.093, 3330.335
3732.021, 3333.785
3733.950, 3341.708
3735.878, 3346.233
3737.807, 3344.629
3739.735, 3341.285
3741.664, 3337.094
3743.592, 3333.809
3745.521, 3334.735
3747.449, 3349.507
3749.378, 3356.819
3751.306, 3350.737
3753.235, 3344.798
3755.163, 3340.543
3757.092, 3340.813
3759.020, 3343.855
3760.948, 3350.796
3762.877, 3354.392
3764.805, 3353.036
3766.734, 3354.744
3768.662, 3358.007
3770.591, 3356.104
3772.519, 3354.380
3774.448, 3356.378
3776.376, 3361.965
3778.305, 3371.105
3780.233, 3370.631
3782.162, 3365.511
3784.090, 3366.838
3786.019, 3367.876
3787.947, 3359.575
3789.875, 3366.215
3791.804, 3386.348
3793.732, 3385.734
3795.661, 3376.918
3797.589, 3375.741
3799.518, 3380.352
3801.446, 3393.137
3803.375, 3401.842
3805.303, 3405.573
3807.232, 3399.693
3809.160, 3397.112
3811.089, 3413.198
3813.017, 3424.163
3814.946, 3423.392
3816.874, 3426.100
3818.802, 3429.864
3820.731, 3425.787
3822.659, 3422.748
3824.588, 3425.708
3826.516, 3430.846
3828.445, 3437.202
3830.373, 3441.142
3832.302, 3441.806
3834.230, 3433.410
3836.159, 3431.445
3838.087, 3443.794
3840.016, 3445.006
3841.944, 3438.507
3843.873, 3445.933
3845.801, 3455.946
3847.729, 3460.028
3849.658, 3462.701
3851.586, 3464.629
3853.515, 3466.193
3855.443, 3466.295
3857.372, 3459.405
3859.300, 3458.643
3861.229, 3471.548
3863.157, 3472.103
3865.086, 3461.947
3867.014, 3460.046
3868.943, 3462.166
3870.871, 3466.231
3872.800, 3470.421
3874.728, 3473.954
3876.656, 3474.987
3878.585, 3473.981
3880.513, 3467.923
3882.442, 3464.774
3884.370, 3470.737
3886.299, 3470.167
3888.227, 3465.214
3890.156, 3469.219
3892.084, 3473.367
3894.013, 3470.272
3895.941, 3464.294
3897.870, 3456.275
3899.798, 3457.282
3901.727, 3461.808
3903.655, 3465.276
3905.583, 3463.605
3907.512, 3452.988
3909.440, 3453.023
3911.369, 3459.135
3913.297, 3449.211
3915.226, 3439.966
3917.154, 3443.224
3919.083, 3441.215
3921.011, 3433.680
3922.940, 3430.098
3924.868, 3425.702
3926.797, 3413.531
3928.725, 3407.268
3930.654, 3409.499
3932.582, 3411.958
3934.510, 3413.846
3936.439, 3416.879
3938.367, 3417.329
3940.296, 3412.738
3942.224, 3408.321
3944.153, 3404.251
3946.081, 3399.089
3948.010, 3393.222
3949.938, 3387.221
3951.867, 3384.587
3953.795, 3383.345
3955.724, 3379.416
3957.652, 3374.953
3959.581, 3366.907
3961.509, 3367.354
3963.438, 3376.756
3965.366, 3370.305
3967.294, 3359.344
3969.223, 3354.603
3971.151, 3351.308
3973.080, 3348.406
3975.008, 3348.944
3976.937, 3351.102
3978.865, 3352.470
3980.794, 3349.899
3982.722, 3339.135
3984.651, 3336.093
3986.579, 3337.732
3988.508, 3334.992
3990.436, 3328.983
3992.365, 3318.881
3994.293, 3312.140
3996.221, 3309.509
3998.150, 3313.746
4000.078, 3317.781
4002.007, 3317.413
4003.935, 3312.238
4005.864, 3302.840
4007.792, 3304.220
4009.721, 3307.437
4011.649, 3300.135
4013.578, 3297.578
4015.506, 3303.227
4017.435, 3298.589
4019.363, 3290.949
4021.292, 3291.930
4023.220, 3291.941
4025.148, 3288.725
4027.077, 3289.317
4029.005, 3290.763
4030.934, 3285.754
4032.862, 3279.501
4034.791, 3276.860
4036.719, 3276.663
4038.648, 3277.824
4040.576, 3276.883
4042.505, 3272.966
4044.433, 3269.620
4046.362, 3270.412
4048.290, 3270.981
4050.219, 3269.953
4052.147, 3269.717
4054.075, 3270.121
4056.004, 3266.715
4057.932, 3262.258
4059.861, 3258.021
4061.789, 3255.562
4063.718, 3258.284
4065.646, 3258.318
4067.575, 3257.491
4069.503, 3249.698
4071.432, 3244.167
4073.360, 3248.483
4075.289, 3250.676
4077.217, 3249.670
4079.146, 3246.413
4081.074, 3241.622
4083.002, 3241.497
4084.931, 3241.666
4086.859, 3239.927
4088.788, 3238.788
4090.716, 3234.112
4092.645, 3225.547
4094.573, 3224.293
4096.502, 3234.574
4098.430, 3235.390
4100.359, 3224.933
4102.287, 3221.440
4104.216, 3226.898
4106.144, 3230.207
4108.073, 3228.495
4110.001, 3229.100
4111.930, 3227.977
4113.858, 3227.433
4115.787, 3231.993
4117.715, 3232.254
4119.644, 3229.179
4121.572, 3225.655
4123.500, 3221.500
4125.429, 3221.862
4127.357, 3224.960
4129.286, 3228.713
4131.214, 3223.725
4133.143, 3217.359
4135.071, 3220.293
4137.000, 3218.406
4138.928, 3212.507
4140.856, 3217.080
4142.785, 3225.132
4144.713, 3223.526
4146.642, 3220.943
4148.570, 3218.600
4150.499, 3217.326
4152.427, 3216.409
4154.356, 3214.234
4156.284, 3209.770
4158.213, 3199.656
4160.141, 3197.318
4162.070, 3199.305
4163.998, 3196.970
4165.927, 3193.872
4167.855, 3190.556
4169.784, 3187.034
4171.712, 3186.653
4173.641, 3188.567
4175.569, 3186.930
4177.498, 3178.050
4179.426, 3177.043
4181.354, 3177.078
4183.283, 3163.932
4185.211, 3156.702
4187.140, 3160.334
4189.068, 3159.896
4190.997, 3156.137
4192.925, 3150.927
4194.854, 3144.988
4196.782, 3138.315
4198.710, 3138.086
4200.639, 3136.094
4202.567, 3119.932
4204.496, 3115.208
4206.424, 3120.759
4208.353, 3119.526
4210.281, 3116.081
4212.210, 3109.501
4214.138, 3109.959
4216.067, 3116.073
4217.995, 3116.282
4219.924, 3111.437
4221.852, 3101.149
4223.781, 3093.289
4225.709, 3087.398
4227.638, 3081.269
4229.566, 3076.040
4231.495, 3072.088
4233.423, 3070.741
4235.352, 3070.528
4237.280, 3069.488
4239.208, 3063.136
4241.137, 3048.831
4243.065, 3061.331
4244.994, 3075.894
4246.922, 3057.480
4248.851, 3043.922
4250.779, 3041.857
4252.708, 3043.260
4254.636, 3045.253
4256.564, 3045.710
4258.493, 3044.815
4260.421, 3042.801
4262.350, 3039.623
4264.278, 3037.657
4266.207, 3038.340
4268.135, 3043.066
4270.064, 3048.353
4271.992, 3041.755
4273.921, 3036.802
4275.849, 3038.661
4277.778, 3041.221
4279.706, 3041.768
4281.635, 3035.885
4283.563, 3026.587
4285.492, 3014.394
4287.420, 3021.161
4289.349, 3028.217
4291.277, 3015.256
4293.206, 3010.095
4295.134, 3013.793
4297.063, 3013.393
4298.991, 3012.821
4300.919, 3013.948
4302.848, 3017.492
4304.776, 3020.407
4306.705, 3013.519
4308.633, 3008.835
4310.562, 3010.185
4312.490, 3009.421
4314.418, 3006.897
4316.347, 3000.349
4318.275, 3004.583
4320.204, 3019.155
4322.132, 3016.865
4324.061, 3010.796
4325.989, 3007.888
4327.918, 3008.557
4329.846, 3010.641
4331.775, 3009.165
4333.703, 3008.485
4335.632, 3010.062
4337.560, 3002.585
4339.489, 2994.780
4341.417, 2996.736
4343.346, 3003.672
4345.274, 3012.523
4347.203, 3010.289
4349.131, 3009.738
4351.060, 3018.695
4352.988, 3020.562
4354.917, 3015.710
4356.845, 3003.679
4358.773, 3000.816
4360.702, 3010.244
4362.630, 3000.759
4364.559, 2992.143
4366.487, 3008.062
4368.416, 3015.267
4370.344, 3013.435
4372.272, 3015.695
4374.201, 3014.638
4376.129, 3004.171
4378.058, 3008.640
4379.986, 3016.438
4381.915, 3009.446
4383.843, 3001.604
4385.772, 2996.658
4387.700, 3013.251
4389.629, 3024.374
4391.557, 3010.630
4393.486, 3005.086
4395.414, 3006.059
4397.343, 3009.343
4399.271, 3010.360
4401.200, 3008.211
4403.128, 3007.319
4405.057, 3004.754
4406.985, 2997.161
4408.914, 2999.487
4410.842, 3006.489
4412.771, 3001.733
4414.699, 3000.277
4416.627, 3005.210
4418.556, 3007.277
4420.484, 3004.700
4422.413, 2994.584
4424.341, 2982.441
4426.270, 2974.623
4428.198, 2992.391
4430.126, 3002.683
4432.055, 2994.429
4433.983, 2985.284
4435.912, 2979.081
4437.840, 2981.403
4439.769, 2978.812
4441.697, 2973.067
4443.626, 2974.830
4445.554, 2969.042
4447.483, 2952.124
4449.411, 2958.895
4451.340, 2969.508
4453.268, 2968.405
4455.197, 2962.384
4457.125, 2953.748
4459.054, 2943.922
4460.982, 2938.864
4462.911, 2939.997
4464.839, 2943.545
4466.768, 2947.945
4468.696, 2953.332
4470.625, 2951.630
4472.553, 2946.023
4474.481, 2945.287
4476.410, 2941.249
4478.338, 2932.774
4480.267, 2922.098
4482.195, 2913.720
4484.124, 2909.917
4486.052, 2911.917
4487.980, 2914.909
4489.909, 2912.584
4491.837, 2909.267
4493.766, 2904.608
4495.694, 2888.641
4497.623, 2882.324
4499.551, 2896.438
4501.480, 2893.402
4503.408, 2884.598
4505.337, 2880.667
4507.265, 2884.289
4509.194, 2890.977
4511.122, 2889.785
4513.051, 2881.770
4514.979, 2868.237
4516.908, 2858.280
4518.836, 2852.737
4520.765, 2852.289
4522.693, 2850.639
4524.622, 2848.233
4526.550, 2848.637
4528.479, 2840.032
4530.407, 2825.379
4532.335, 2827.673
4534.264, 2827.628
4536.192, 2816.572
4538.121, 2814.469
4540.049, 2813.918
4541.978, 2809.012
4543.906, 2806.657
4545.834, 2804.434
4547.763, 2795.983
4549.691, 2787.159
4551.620, 2779.550
4553.548, 2775.362
4555.477, 2771.884
4557.405, 2767.387
4559.334, 2769.722
4561.262, 2773.222
4563.191, 2773.091
4565.119, 2769.967
4567.048, 2764.412
4568.976, 2755.968
4570.905, 2749.393
4572.833, 2744.474
4574.762, 2734.777
4576.690, 2729.577
4578.619, 2734.122
4580.547, 2719.194
4582.476, 2706.058
4584.404, 2717.238
4586.333, 2712.387
4588.261, 2700.889
4590.189, 2702.092
4592.118, 2702.835
4594.046, 2701.855
4595.975, 2705.091
4597.903, 2703.149
4599.832, 2693.129
4601.760, 2696.229
4603.688, 2698.131
4605.617, 2689.027
4607.545, 2679.068
4609.474, 2671.413
4611.402, 2669.444
4613.331, 2669.509
4615.259, 2670.156
4617.188, 2669.138
4619.116, 2668.394
4621.045, 2667.687
4622.973, 2664.540
4624.902, 2658.148
4626.830, 2647.996
4628.759, 2641.776
4630.687, 2639.637
4632.616, 2641.985
4634.544, 2645.039
4636.473, 2647.845
4638.401, 2650.438
4640.330, 2649.172
4642.258, 2644.955
4644.187, 2639.418
4646.115, 2637.504
4648.043, 2639.434
4649.972, 2638.913
4651.900, 2643.185
4653.829, 2653.137
4655.757, 2650.729
4657.686, 2643.227
4659.614, 2633.645
4661.542, 2633.630
4663.471, 2636.215
4665.399, 2634.453
4667.328, 2633.737
4669.256, 2633.138
4671.185, 2628.759
4673.113, 2626.596
4675.042, 2626.808
4676.970, 2627.267
4678.899, 2628.194
4680.827, 2629.890
4682.756, 2635.966
4684.684, 2641.812
4686.613, 2645.402
4688.541, 2642.164
4690.470, 2639.534
4692.398, 2645.651
4694.327, 2636.828
4696.255, 2628.959
4698.184, 2638.039
4700.112, 2652.517
4702.041, 2663.508
4703.969, 2656.423
4705.897, 2654.635
4707.826, 2657.391
4709.754, 2655.083
4711.683, 2656.186
4713.611, 2661.485
4715.540, 2669.969
4717.468, 2670.461
4719.396, 2662.894
4721.325, 2664.623
4723.253, 2671.185
4725.182, 2681.139
4727.110, 2675.573
4729.039, 2671.182
4730.967, 2677.387
4732.896, 2677.558
4734.824, 2678.421
4736.753, 2687.520
4738.681, 2696.648
4740.610, 2703.378
4742.538, 2704.313
4744.467, 2705.471
4746.395, 2707.690
4748.324, 2711.506
4750.252, 2716.827
4752.181, 2722.218
4754.109, 2726.249
4756.038, 2722.446
4757.966, 2713.948
4759.895, 2714.350
4761.823, 2720.137
4763.751, 2728.867
4765.680, 2736.148
4767.608, 2735.110
4769.537, 2725.138
4771.465, 2733.745
4773.394, 2739.611
4775.322, 2736.306
4777.250, 2744.723
4779.179, 2752.362
4781.107, 2751.575
4783.036, 2753.131
4784.964, 2755.540
4786.893, 2757.919
4788.821, 2759.072
4790.750, 2759.525
4792.678, 2758.259
4794.607, 2764.516
4796.535, 2771.631
4798.464, 2773.396
4800.392, 2769.957
4802.321, 2765.549
4804.249, 2765.116
4806.178, 2765.434
4808.106, 2765.560
4810.035, 2764.273
4811.963, 2761.984
4813.892, 2762.480
4815.820, 2773.709
4817.749, 2782.508
4819.677, 2786.259
4821.605, 2780.563
4823.534, 2780.016
4825.462, 2783.830
4827.391, 2787.472
4829.319, 2787.134
4831.248, 2786.272
4833.176, 2799.338
4835.104, 2798.686
4837.033, 2787.100
4838.961, 2784.689
4840.890, 2787.564
4842.818, 2792.379
4844.747, 2791.707
4846.675, 2787.179
4848.604, 2781.573
4850.532, 2783.533
4852.461, 2786.903
4854.389, 2789.286
4856.318, 2787.968
4858.246, 2778.996
4860.175, 2766.506
4862.103, 2773.917
4864.032, 2775.351
4865.960, 2766.619
4867.889, 2759.504
4869.817, 2757.619
4871.746, 2760.969
4873.674, 2768.587
4875.603, 2770.150
4877.531, 2764.499
4879.459, 2759.930
4881.388, 2753.439
4883.316, 2745.756
4885.245, 2741.054
4887.173, 2745.845
4889.102, 2756.604
4891.030, 2745.495
4892.958, 2736.717
4894.887, 2733.892
4896.815, 2725.927
4898.744, 2725.463
4900.672, 2731.949
4902.601, 2728.452
4904.529, 2727.885
4906.458, 2728.698
4908.386, 2711.258
4910.315, 2706.562
4912.243, 2713.943
4914.172, 2708.100
4916.100, 2702.438
4918.029, 2698.796
4919.957, 2693.619
4921.886, 2692.550
4923.814, 2692.475
4925.743, 2681.290
4927.671, 2673.980
4929.600, 2672.150
4931.528, 2676.335
4933.457, 2671.836
4935.385, 2662.500
4937.313, 2657.203
4939.242, 2656.866
4941.170, 2659.583
4943.099, 2662.835
4945.027, 2664.745
4946.956, 2663.379
4948.884, 2653.703
4950.813, 2652.913
4952.741, 2654.556
4954.669, 2650.441
4956.598, 2646.710
4958.526, 2642.011
4960.455, 2634.267
4962.383, 2625.017
4964.312, 2619.437
4966.240, 2621.608
4968.169, 2623.809
4970.097, 2622.172
4972.026, 2614.952
4973.954, 2617.301
4975.883, 2614.432
4977.811, 2597.887
4979.740, 2595.907
4981.668, 2601.360
4983.597, 2608.589
4985.525, 2598.063
4987.454, 2587.509
4989.382, 2583.792
4991.311, 2595.727
4993.239, 2594.711
4995.167, 2579.724
4997.096, 2567.646
4999.024, 2567.170
5000.953, 2573.293
5002.881, 2572.449
5004.810, 2565.973
5006.738, 2558.952
5008.667, 2560.678
5010.595, 2553.824
5012.523, 2546.267
5014.452, 2554.998
5016.380, 2537.277
5018.309, 2516.879
5020.237, 2515.148
5022.166, 2516.841
5024.094, 2516.783
5026.023, 2512.500
5027.951, 2513.344
5029.880, 2508.430
5031.808, 2493.150
5033.737, 2474.938
5035.665, 2469.499
5037.594, 2475.086
5039.522, 2464.339
5041.451, 2461.369
5043.379, 2464.318
5045.308, 2449.476
5047.236, 2446.001
5049.165, 2448.157
5051.093, 2437.679
5053.021, 2436.683
5054.950, 2436.138
5056.878, 2420.618
5058.807, 2413.820
5060.735, 2411.845
5062.664, 2411.803
5064.592, 2403.382
5066.521, 2391.076
5068.449, 2378.327
5070.377, 2378.039
5072.306, 2372.651
5074.234, 2357.906
5076.163, 2336.067
5078.091, 2331.231
5080.020, 2337.367
5081.948, 2331.286
5083.877, 2325.090
5085.805, 2319.235
5087.734, 2311.740
5089.662, 2309.997
5091.591, 2307.486
5093.519, 2299.056
5095.448, 2282.397
5097.376, 2270.347
5099.305, 2268.415
5101.233, 2266.933
5103.162, 2258.643
5105.090, 2245.957
5107.019, 2245.978
5108.947, 2245.497
5110.875, 2240.415
5112.804, 2224.511
5114.732, 2219.425
5116.661, 2217.201
5118.589, 2208.433
5120.518, 2200.377
5122.446, 2193.766
5124.375, 2188.233
5126.303, 2176.263
5128.231, 2172.052
5130.160, 2176.562
5132.088, 2170.487
5134.017, 2164.089
5135.945, 2158.817
5137.874, 2152.989
5139.802, 2147.008
5141.731, 2142.362
5143.659, 2142.322
5145.588, 2125.519
5147.516, 2112.992
5149.445, 2115.064
5151.373, 2102.318
5153.302, 2097.276
5155.230, 2101.853
5157.159, 2102.208
5159.087, 2094.342
5161.016, 2084.806
5162.944, 2086.214
5164.873, 2082.323
5166.801, 2076.573
5168.729, 2072.359
5170.658, 2065.476
5172.586, 2060.032
5174.515, 2057.323
5176.443, 2053.361
5178.372, 2047.971
5180.300, 2042.833
5182.229, 2042.080
5184.157, 2032.851
5186.085, 2024.845
5188.014, 2029.367
5189.942, 2028.241
5191.871, 2019.847
5193.799, 2005.771
5195.728, 2005.180
5197.656, 2003.814
5199.585, 1999.546
5201.513, 1995.191
5203.442, 1995.592
5205.370, 1996.088
5207.299, 1990.334
5209.227, 1991.115
5211.156, 1988.398
5213.084, 1978.849
5215.013, 1976.350
5216.941, 1971.296
5218.870, 1963.268
5220.798, 1954.126
5222.727, 1953.974
5224.655, 1957.491
5226.583, 1959.267
5228.512, 1960.291
5230.440, 1955.952
5232.369, 1946.941
5234.297, 1946.290
5236.226, 1944.490
5238.154, 1940.704
5240.083, 1935.576
5242.011, 1939.031
5243.939, 1939.628
5245.868, 1929.939
5247.796, 1933.437
5249.725, 1931.231
5251.653, 1922.770
5253.582, 1927.182
5255.510, 1926.832
5257.439, 1922.572
5259.367, 1917.583
5261.296, 1916.693
5263.224, 1918.170
5265.153, 1919.936
5267.081, 1914.745
5269.010, 1911.203
5270.938, 1910.336
5272.867, 1911.495
5274.795, 1908.816
5276.724, 1909.244
5278.652, 1917.033
5280.581, 1909.865
5282.509, 1913.940
5284.438, 1926.013
5286.366, 1916.599
5288.294, 1914.349
5290.223, 1917.792
5292.151, 1923.212
5294.080, 1931.359
5296.008, 1934.046
5297.937, 1931.048
5299.865, 1932.941
5301.793, 1930.213
5303.722, 1926.400
5305.650, 1927.069
5307.579, 1930.919
5309.507, 1930.314
5311.436, 1924.699
5313.364, 1930.768
5315.293, 1931.977
5317.221, 1931.993
5319.150, 1939.451
5321.078, 1944.612
5323.007, 1944.266
5324.935, 1939.522
5326.864, 1945.420
5328.792, 1952.096
5330.721, 1955.102
5332.649, 1950.430
5334.578, 1956.700
5336.506, 1958.501
5338.435, 1952.461
5340.363, 1966.630
5342.292, 1967.179
5344.220, 1960.514
5346.148, 1964.773
5348.077, 1966.814
5350.005, 1972.681
5351.934, 1981.769
5353.862, 1972.595
5355.791, 1976.199
5357.719, 1984.536
5359.647, 1981.089
5361.576, 1982.629
5363.504, 1982.575
5365.433, 1979.528
5367.361, 1982.517
5369.290, 1986.076
5371.218, 1989.789
5373.147, 1994.016
5375.075, 1991.257
5377.004, 1996.475
5378.932, 2008.935
5380.861, 2010.379
5382.789, 2012.143
5384.718, 2013.376
5386.646, 2012.212
5388.575, 2011.260
5390.503, 2012.824
5392.432, 2015.969
5394.360, 2017.702
5396.289, 2023.882
5398.217, 2026.455
5400.146, 2022.134
5402.074, 2025.781
5404.002, 2026.882
5405.931, 2024.307
5407.859, 2018.189
5409.788, 2028.317
5411.716, 2031.776
5413.645, 2024.088
5415.573, 2024.237
5417.501, 2028.672
5419.430, 2031.735
5421.358, 2029.228
5423.287, 2028.710
5425.215, 2024.394
5427.144, 2020.282
5429.072, 2028.857
5431.001, 2030.255
5432.929, 2025.788
5434.858, 2018.551
5436.786, 2014.965
5438.715, 2012.012
5440.643, 2011.469
5442.572, 2016.004
5444.500, 2016.122
5446.429, 2015.941
5448.357, 2015.032
5450.286, 2008.035
5452.214, 2006.969
5454.143, 2009.835
5456.071, 2013.243
5458.000, 2007.322
5459.928, 2007.774
5461.856, 2006.790
5463.785, 1993.164
5465.713, 2008.547
5467.642, 2010.755
5469.570, 1997.963
5471.499, 1994.324
5473.427, 1996.197
5475.355, 1997.311
5477.284, 1993.972
5479.212, 1981.281
5481.141, 1981.092
5483.069, 1981.988
5484.998, 1972.448
5486.926, 1975.065
5488.855, 1976.494
5490.783, 1974.006
5492.712, 1969.004
5494.640, 1965.653
5496.569, 1964.427
5498.497, 1962.629
5500.426, 1951.799
5502.354, 1949.379
5504.283, 1950.390
5506.211, 1950.326
5508.140, 1949.884
5510.068, 1944.611
5511.997, 1940.210
5513.925, 1943.018
5515.854, 1938.508
5517.782, 1933.271
5519.710, 1929.629
5521.639, 1928.123
5523.567, 1928.870
5525.496, 1928.226
5527.424, 1924.810
5529.353, 1918.021
5531.281, 1913.695
5533.209, 1912.835
5535.138, 1913.317
5537.066, 1901.918
5538.995, 1900.963
5540.923, 1901.163
5542.852, 1894.485
5544.780, 1890.548
5546.709, 1892.610
5548.637, 1893.586
5550.566, 1886.199
5552.494, 1874.308
5554.423, 1871.279
5556.351, 1873.975
5558.280, 1873.325
5560.208, 1874.429
5562.137, 1870.024
5564.065, 1862.420
5565.994, 1861.295
5567.922, 1859.555
5569.851, 1859.906
5571.779, 1860.683
5573.708, 1854.152
5575.636, 1845.719
5577.564, 1841.748
5579.493, 1843.892
5581.421, 1850.884
5583.350, 1837.313
5585.278, 1827.263
5587.207, 1833.055
5589.135, 1819.274
5591.063, 1816.312
5592.992, 1819.941
5594.920, 1821.916
5596.849, 1812.747
5598.777, 1809.074
5600.706, 1807.135
5602.634, 1801.704
5604.563, 1802.362
5606.491, 1800.170
5608.420, 1796.521
5610.348, 1794.643
5612.277, 1793.021
5614.205, 1783.938
5616.134, 1775.500
5618.062, 1779.967
5619.991, 1780.177
5621.919, 1777.295
5623.848, 1772.969
5625.776, 1768.615
5627.705, 1761.000
5629.633, 1762.265
5631.562, 1765.918
5633.490, 1759.516
5635.418, 1756.016
5637.347, 1753.147
5639.275, 1749.964
5641.204, 1746.391
5643.132, 1743.295
5645.061, 1737.427
5646.989, 1731.721
5648.917, 1732.302
5650.846, 1727.531
5652.774, 1718.978
5654.703, 1713.732
5656.631, 1719.998
5658.560, 1716.793
5660.488, 1708.918
5662.417, 1702.746
5664.345, 1703.746
5666.274, 1702.375
5668.202, 1693.716
5670.131, 1683.437
5672.059, 1681.197
5673.988, 1677.331
5675.916, 1678.592
5677.845, 1679.842
5679.773, 1672.612
5681.702, 1675.636
5683.630, 1669.779
5685.559, 1657.006
5687.487, 1645.825
5689.416, 1650.203
5691.344, 1651.971
5693.272, 1646.746
5695.201, 1636.005
5697.129, 1636.460
5699.058, 1632.648
5700.986, 1629.352
5702.915, 1631.227
5704.843, 1617.057
5706.771, 1609.656
5708.700, 1606.930
5710.628, 1604.692
5712.557, 1604.702
5714.485, 1597.512
5716.414, 1593.903
5718.342, 1597.217
5720.271, 1595.528
5722.199, 1585.544
5724.128, 1579.077
5726.056, 1575.734
5727.985, 1560.404
5729.913, 1555.280
5731.842, 1552.957
5733.770, 1549.680
5735.699, 1545.173
5737.627, 1542.473
5739.556, 1540.225
5741.484, 1537.629
5743.413, 1534.306
5745.341, 1530.740
5747.270, 1522.807
5749.198, 1514.076
5751.126, 1509.095
5753.055, 1510.625
5754.983, 1505.287
5756.912, 1499.114
5758.840, 1496.775
5760.769, 1493.682
5762.697, 1486.420
5764.625, 1481.185
5766.554, 1480.129
5768.482, 1481.564
5770.411, 1468.944
5772.339, 1457.987
5774.268, 1456.593
5776.196, 1470.122
5778.125, 1452.433
5780.053, 1442.296
5781.982, 1440.399
5783.910, 1436.540
5785.839, 1432.704
5787.767, 1427.105
5789.696, 1426.851
5791.624, 1430.041
5793.553, 1408.609
5795.481, 1415.802
5797.410, 1415.186
5799.338, 1400.656
5801.267, 1398.199
5803.195, 1397.206
5805.124, 1393.081
5807.052, 1388.295
5808.980, 1386.220
5810.909, 1377.266
5812.837, 1379.370
5814.766, 1379.981
5816.694, 1370.696
5818.623, 1365.826
5820.551, 1356.356
5822.479, 1350.285
5824.408, 1349.349
5826.336, 1350.147
5828.265, 1340.869
5830.193, 1335.584
5832.122, 1336.438
5834.050, 1340.042
5835.979, 1333.865
5837.907, 1331.335
5839.836, 1331.454
5841.764, 1329.663
5843.693, 1319.459
5845.621, 1314.127
5847.550, 1313.553
5849.478, 1313.882
5851.407, 1311.155
5853.335, 1306.221
5855.264, 1304.919
5857.192, 1300.002
5859.121, 1288.915
5861.049, 1284.373
5862.978, 1291.512
5864.906, 1290.217
5866.834, 1281.292
5868.763, 1280.105
5870.691, 1278.597
5872.620, 1271.871
5874.548, 1270.582
5876.477, 1278.176
5878.405, 1266.004
5880.333, 1262.884
5882.262, 1262.857
5884.190, 1261.365
5886.119, 1257.525
5888.047, 1261.276
5889.976, 1261.390
5891.904, 1259.257
5893.833, 1257.382
5895.761, 1253.276
5897.690, 1254.659
5899.618, 1252.225
5901.547, 1246.999
5903.475, 1245.219
5905.404, 1241.235
5907.332, 1237.938
5909.261, 1236.452
5911.189, 1236.309
5913.118, 1235.568
5915.046, 1232.626
5916.975, 1231.605
5918.903, 1229.298
5920.832, 1222.254
5922.760, 1224.070
5924.688, 1219.206
5926.617, 1216.214
5928.545, 1216.740
5930.474, 1212.020
5932.402, 1213.661
5934.331, 1222.919
5936.259, 1221.484
5938.188, 1204.082
5940.116, 1206.211
5942.044, 1205.115
5943.973, 1201.865
5945.901, 1199.790
5947.830, 1201.120
5949.758, 1196.246
5951.687, 1196.904
5953.615, 1195.263
5955.544, 1191.440
5957.472, 1194.150
5959.401, 1186.245
5961.329, 1182.067
5963.258, 1184.806
5965.186, 1189.401
5967.115, 1182.273
5969.043, 1179.777
5970.972, 1181.465
5972.900, 1179.983
5974.829, 1173.102
5976.757, 1179.182
5978.686, 1190.694
5980.614, 1201.471
5982.542, 1206.788
5984.471, 1203.192
5986.399, 1182.070
5988.328, 1172.528
5990.256, 1162.084
5992.185, 1147.448
5994.113, 1137.506
5996.042, 1128.963
5997.970, 1128.493
5999.898, 1128.669
6001.827, 1124.953
6003.755, 1118.918
6005.684, 1118.431
6007.612, 1115.945
6009.541, 1115.753
6011.469, 1118.427
6013.398, 1109.592
6015.326, 1109.919
6017.255, 1102.929
6019.183, 1095.573
6021.112, 1094.720
6023.040, 1088.551
6024.969, 1081.908
6026.897, 1074.033
6028.826, 1072.159
6030.754, 1078.249
6032.683, 1066.996
6034.611, 1064.170
6036.540, 1062.234
6038.468, 1058.201
6040.396, 1052.937
6042.325, 1048.766
6044.253, 1046.573
6046.182, 1043.429
6048.110, 1036.815
6050.039, 1027.333
6051.967, 1027.906
6053.896, 1027.401
6055.824, 1021.656
6057.752, 1015.759
6059.681, 1014.519
6061.609, 1009.627
6063.538, 1001.484
6065.466, 998.3007
6067.395, 997.7399
6069.323, 995.0763
6071.252, 992.6194
6073.180, 983.2184
6075.109, 980.6451
6077.037, 982.5464
6078.966, 980.6882
6080.894, 967.8483
6082.823, 969.8708
6084.751, 963.7321
6086.680, 954.1193
6088.608, 950.2343
6090.537, 949.2919
6092.465, 948.8881
6094.394, 948.4820
6096.322, 945.0583
6098.250, 938.9879
6100.179, 935.7645
6102.107, 932.6065
6104.036, 931.8726
6105.964, 929.0587
6107.893, 924.9190
6109.821, 925.6507
6111.750, 918.5474
6113.678, 913.4454
6115.606, 914.4297
6117.535, 914.6604
6119.463, 905.3043
6121.392, 902.6766
6123.320, 902.0618
6125.249, 896.0372
6127.177, 890.2883
6129.106, 891.8339
6131.034, 891.8398
6132.963, 885.7077
6134.891, 882.8574
6136.820, 878.6485
6138.748, 872.9454
6140.677, 881.0956
6142.605, 875.0461
6144.534, 869.5232
6146.462, 864.8834
6148.391, 863.3361
6150.319, 870.4529
6152.248, 866.6191
6154.176, 868.1384
6156.104, 864.0048
6158.033, 858.5892
6159.961, 861.2031
6161.890, 859.9768
6163.818, 860.3907
6165.747, 857.1921
6167.675, 854.9921
6169.604, 854.2648
6171.532, 845.2335
6173.460, 850.9411
6175.389, 847.6952
6177.317, 839.8709
6179.246, 836.1163
6181.174, 840.7529
6183.103, 843.5701
6185.031, 839.6637
6186.960, 839.5412
6188.888, 837.7027
6190.817, 831.1088
6192.745, 831.6956
6194.674, 833.2881
6196.602, 831.1874
6198.531, 830.9058
6200.459, 832.1174
6202.388, 830.0007
6204.316, 823.9716
6206.245, 827.7420
6208.173, 830.1464
6210.102, 829.7396
6212.030, 828.1346
6213.958, 824.4088
6215.887, 815.1260
6217.815, 820.9144
6219.744, 824.1803
6221.672, 819.9596
6223.601, 815.7215
6225.529, 827.3391
6227.458, 816.3535
6229.386, 815.8184
6231.314, 820.9353
6233.243, 821.4143
6235.171, 815.6109
6237.100, 818.0334
6239.028, 820.2945
6240.957, 816.5276
6242.885, 814.1628
6244.814, 814.3914
6246.742, 805.1000
6248.671, 809.8189
6250.599, 810.2271
6252.528, 811.8956
6254.456, 812.6951
6256.385, 809.8358
6258.313, 811.1989
6260.242, 809.7883
6262.170, 807.4852
6264.099, 805.6590
6266.027, 806.8109
6267.956, 809.9991
6269.884, 803.5724
6271.813, 805.1220
6273.741, 803.0002
6275.669, 802.3438
6277.598, 804.9536
6279.526, 805.8254
6281.455, 799.2748
6283.383, 804.3958
6285.312, 800.8620
6287.240, 801.8668
6289.168, 808.4369
6291.097, 806.0538
6293.025, 798.2783
6294.954, 799.7466
6296.882, 803.0723
6298.811, 804.9103
6300.739, 803.1497
6302.668, 796.5712
6304.596, 798.8874
6306.525, 797.9171
6308.453, 795.5746
6310.382, 792.8476
6312.310, 793.5667
6314.239, 801.1736
6316.167, 795.6563
6318.096, 793.5283
6320.024, 790.4067
6321.953, 794.6783
6323.881, 800.0634
6325.810, 794.1097
6327.738, 789.1900
6329.667, 787.9368
6331.595, 786.7475
6333.523, 791.8327
6335.452, 792.9257
6337.380, 782.6996
6339.309, 787.2173
6341.237, 787.1968
6343.166, 786.8257
6345.094, 787.6462
6347.022, 788.3762
6348.951, 786.4511
6350.879, 780.1696
6352.808, 783.5900
6354.736, 780.5461
6356.665, 778.8219
6358.593, 777.3534
6360.522, 775.2147
6362.450, 777.3191
6364.379, 774.0226
6366.307, 773.4775
6368.236, 775.8676
6370.164, 779.3622
6372.093, 778.5422
6374.021, 770.2830
6375.950, 769.9186
6377.878, 768.6564
6379.807, 766.4044
6381.735, 765.8231
6383.664, 764.7031
6385.592, 761.8312
6387.521, 761.1349
6389.449, 757.7408
6391.377, 752.5352
6393.306, 749.3163
6395.234, 749.6985
6397.163, 752.4620
6399.091, 753.9755
6401.020, 749.0380
6402.948, 744.2219
6404.876, 745.2247
6406.805, 742.8934
6408.733, 739.0392
6410.662, 737.1799
6412.590, 732.6207
6414.519, 727.3547
6416.447, 732.1192
6418.376, 727.5470
6420.304, 724.1083
6422.233, 726.6393
6424.161, 728.3294
6426.090, 722.8380
6428.018, 727.4949
6429.947, 721.2399
6431.875, 717.6706
6433.804, 717.1823
6435.732, 718.2361
6437.661, 722.0170
6439.589, 720.7816
6441.518, 712.1671
6443.446, 710.7563
6445.375, 707.2507
6447.303, 703.5131
6449.231, 703.2888
6451.160, 703.2476
6453.088, 700.5741
6455.017, 696.7434
6456.945, 698.2137
6458.874, 695.5156
6460.802, 691.7909
6462.730, 690.1380
6464.659, 684.8513
6466.587, 690.8270
6468.516, 686.3553
6470.444, 690.2082
6472.373, 688.2961
6474.301, 683.2188
6476.230, 681.6395
6478.158, 679.2715
6480.087, 680.5938
6482.015, 678.6843
6483.944, 677.3763
6485.872, 671.7391
6487.801, 672.8480
6489.729, 678.3612
6491.658, 668.2963
6493.586, 670.2742
6495.515, 670.6865
6497.443, 668.5858
6499.372, 669.3351
6501.300, 670.9863
6503.229, 669.2033
6505.157, 663.2040
6507.085, 657.1746
6509.014, 659.0482
6510.942, 661.9129
6512.871, 658.2692
6514.799, 657.2421
6516.728, 656.3343
6518.656, 650.0113
6520.584, 651.5014
6522.513, 653.4005
6524.441, 651.9986
6526.370, 646.6302
6528.298, 640.8038
6530.227, 641.2742
6532.155, 642.7161
6534.084, 632.4287
6536.012, 642.9111
6537.941, 640.0129
6539.869, 639.6956
6541.798, 634.6034
6543.726, 636.7115
6545.655, 641.3261
6547.583, 634.7209
6549.512, 628.9612
6551.440, 635.6771
6553.369, 631.8527
6555.297, 630.4749
6557.226, 628.1713
6559.154, 621.3288
6561.083, 616.3062
6563.011, 620.6458
6564.939, 622.1406
6566.868, 617.6102
6568.796, 616.0678
6570.725, 616.9542
6572.653, 613.6321
6574.582, 611.4690
6576.510, 613.9238
6578.438, 613.9584
6580.367, 613.1306
6582.295, 602.7096
6584.224, 603.0244
6586.152, 603.4961
6588.081, 602.3918
6590.009, 600.0717
6591.938, 595.2673
6593.866, 589.2025
6595.795, 593.9382
6597.723, 593.1984
6599.652, 586.1022
6601.580, 588.4417
6603.509, 583.4014
6605.437, 578.5020
6607.366, 580.8227
6609.294, 575.8557
6611.223, 578.2309
6613.151, 569.7545
6615.080, 566.9611
6617.008, 569.0328
6618.937, 567.8545
6620.865, 565.9648
6622.793, 564.8763
6624.722, 562.0989
6626.650, 562.7643
6628.579, 556.5935
6630.507, 556.6221
##END=



