##NAMES=Meta-autunite
##RRUFFID=R050612
##IDEAL CHEMISTRY=Ca(UO_2_)_2_(PO_4_)_2_·6H_2_O
##LOCALITY=Daybreak mine, Mt. Spokane, Spokane County, Washington, USA
##OWNER=RRUFF
##SOURCE=Dave Bunk Minerals
##DESCRIPTION=Green thin tabular crystal
##STATUS=The identification of this mineral has been confirmed by X-ray diffraction and chemical analysis
##URL=https://www.rruff.net/odr/rruff_sample/R050612
##MEASURED CHEMISTRY=(Ca_0.85_[box]_0.15_)(U_1.00_O_2_)_2_(P_1.00_O_4_)_2_·3((H_2_O)_0.90_(H_3_O)^+^_0.10_)
##DIFFRACTION SAMPLE DESCRIPTION=Powder
##CELL PARAMETERS=a: 6.9654 b: 6.9654 c: 8.416 alpha: 90 beta: 90 gamma: 90 volume: 408.33 crystal system: tetragonal
##FILETYPE=Raman Processed
##RAMAN WAVELENGTH=780

148.9851, 1912.560
150.9135, 1941.792
152.8420, 1982.426
154.7705, 2033.983
156.6989, 2097.860
158.6274, 2173.767
160.5559, 2254.035
162.4843, 2338.978
164.4128, 2426.669
166.3413, 2521.659
168.2697, 2615.475
170.1982, 2696.174
172.1267, 2764.768
174.0551, 2828.847
175.9836, 2885.778
177.9121, 2945.445
179.8405, 3003.218
181.7690, 3070.522
183.6975, 3157.910
185.6259, 3264.306
187.5544, 3387.247
189.4829, 3535.080
191.4113, 3670.191
193.3398, 3807.296
195.2683, 3906.663
197.1967, 3958.183
199.1252, 3946.375
201.0537, 3850.866
202.9821, 3667.210
204.9106, 3436.716
206.8391, 3129.948
208.7675, 2821.263
210.6960, 2519.631
212.6245, 2238.602
214.5529, 1992.200
216.4814, 1779.285
218.4099, 1602.566
220.3383, 1473.827
222.2668, 1366.617
224.1953, 1281.623
226.1237, 1212.418
228.0522, 1157.496
229.9807, 1114.087
231.9091, 1078.131
233.8376, 1050.878
235.7661, 1027.408
237.6945, 1006.872
239.6230, 989.9707
241.5515, 977.7121
243.4799, 969.0921
245.4084, 962.2379
247.3369, 957.0240
249.2654, 956.6016
251.1938, 964.4124
253.1223, 972.1147
255.0508, 978.9103
256.9792, 985.0472
258.9077, 990.9531
260.8362, 996.2723
262.7646, 999.8284
264.6931, 1001.214
266.6216, 1001.569
268.5500, 1000.722
270.4785, 999.2518
272.4070, 998.3405
274.3354, 995.9628
276.2639, 989.7673
278.1924, 979.9779
280.1208, 970.6416
282.0493, 962.3644
283.9778, 953.2180
285.9062, 944.1741
287.8347, 932.5203
289.7632, 916.3355
291.6916, 897.1220
293.6201, 876.5039
295.5486, 854.3762
297.4770, 830.9769
299.4055, 805.9134
301.3340, 780.7993
303.2624, 754.7628
305.1909, 730.5042
307.1194, 710.1045
309.0478, 692.1935
310.9763, 673.5023
312.9048, 653.6287
314.8332, 637.6172
316.7617, 626.1951
318.6902, 616.6771
320.6186, 609.1516
322.5471, 602.1761
324.4756, 594.9984
326.4040, 587.8604
328.3325, 580.9680
330.2609, 574.3083
332.1894, 569.3886
334.1179, 567.2823
336.0463, 564.2356
337.9748, 558.2593
339.9033, 551.6799
341.8317, 545.4090
343.7602, 539.6275
345.6887, 534.7912
347.6171, 530.8414
349.5456, 527.8514
351.4741, 526.2034
353.4025, 524.5068
355.3310, 521.5927
357.2595, 519.4159
359.1879, 519.1725
361.1164, 520.2682
363.0449, 522.1218
364.9733, 524.5067
366.9018, 525.9423
368.8303, 525.7928
370.7587, 526.2715
372.6872, 528.3331
374.6157, 530.4537
376.5441, 531.5441
378.4726, 532.6271
380.4011, 535.4223
382.3295, 539.3791
384.2580, 542.7037
386.1865, 545.4962
388.1149, 546.6865
390.0434, 545.9344
391.9719, 543.9509
393.9003, 540.9178
395.8288, 536.5550
397.7573, 530.6778
399.6857, 523.4108
401.6142, 514.1216
403.5427, 502.2451
405.4711, 492.9951
407.3996, 488.2696
409.3281, 484.1486
411.2565, 480.0132
413.1850, 476.4408
415.1135, 473.5946
417.0419, 471.7279
418.9704, 471.2013
420.8989, 471.9380
422.8273, 472.9459
424.7558, 474.4258
426.6843, 475.8034
428.6127, 476.3239
430.5412, 477.8015
432.4697, 481.3706
434.3981, 485.7392
436.3266, 489.9756
438.2551, 494.0623
440.1835, 498.2457
442.1120, 502.7770
444.0405, 505.6113
445.9689, 505.5054
447.8974, 506.5570
449.8259, 510.6540
451.7543, 513.9500
453.6828, 514.1248
455.6113, 512.8641
457.5397, 512.1748
459.4682, 511.3341
461.3967, 507.4568
463.3251, 500.0302
465.2536, 491.7286
467.1821, 482.2416
469.1105, 472.6858
471.0390, 462.8320
472.9675, 453.7293
474.8959, 445.5297
476.8244, 438.6477
478.7529, 433.9804
480.6813, 431.0067
482.6098, 427.6630
484.5383, 423.8651
486.4667, 420.9209
488.3952, 418.7196
490.3237, 417.9850
492.2521, 419.9305
494.1806, 421.6851
496.1091, 421.7734
498.0375, 421.3664
499.9660, 421.4025
501.8945, 421.7552
503.8229, 422.4215
505.7514, 423.3926
507.6799, 423.5845
509.6083, 422.8506
511.5368, 421.7025
513.4653, 419.8041
515.3937, 418.4005
517.3222, 417.9466
519.2507, 417.9395
521.1791, 418.2606
523.1076, 418.7496
525.0361, 419.1720
526.9645, 419.4885
528.8930, 419.6230
530.8215, 419.5869
532.7499, 419.1686
534.6784, 417.8904
536.6069, 417.3568
538.5353, 418.8034
540.4638, 419.8908
542.3923, 419.0551
544.3207, 418.0422
546.2492, 418.8902
548.1777, 420.4637
550.1061, 420.5441
552.0346, 419.3947
553.9631, 418.6495
555.8915, 418.6773
557.8200, 417.5992
559.7485, 414.5951
561.6769, 411.3013
563.6054, 407.6596
565.5339, 404.0446
567.4623, 400.8768
569.3908, 397.7303
571.3193, 393.4569
573.2477, 389.1748
575.1762, 387.2680
577.1047, 387.4920
579.0331, 386.6054
580.9616, 383.9520
582.8901, 382.0223
584.8185, 381.5252
586.7470, 380.6908
588.6755, 378.5889
590.6039, 377.0632
592.5324, 377.6554
594.4609, 378.2068
596.3893, 376.5028
598.3178, 374.1673
600.2463, 373.1201
602.1747, 373.4414
604.1032, 376.2797
606.0317, 382.6019
607.9601, 386.2182
609.8886, 386.2042
611.8171, 386.6451
613.7455, 388.7844
615.6740, 389.5577
617.6025, 387.4047
619.5309, 384.3504
621.4594, 380.7846
623.3879, 377.7489
625.3163, 376.2317
627.2448, 375.8091
629.1733, 375.8712
631.1017, 376.3951
633.0302, 376.8644
634.9587, 377.2866
636.8871, 377.6680
638.8156, 378.1381
640.7441, 378.1200
642.6725, 377.3350
644.6010, 376.4020
646.5295, 375.8438
648.4579, 374.8284
650.3864, 372.2504
652.3149, 369.7211
654.2433, 369.4102
656.1718, 369.7294
658.1003, 367.8466
660.0287, 364.1661
661.9572, 359.9787
663.8857, 355.2667
665.8141, 350.8074
667.7426, 346.7567
669.6711, 342.2929
671.5995, 337.2698
673.5280, 331.7708
675.4565, 325.2657
677.3849, 319.1481
679.3134, 313.9899
681.2419, 309.1437
683.1703, 303.6337
685.0988, 298.8310
687.0273, 296.7310
688.9557, 295.9729
690.8842, 293.7979
692.8127, 290.8685
694.7411, 289.5353
696.6696, 289.7286
698.5981, 289.0917
700.5265, 287.2532
702.4550, 285.6885
704.3834, 284.4220
706.3119, 283.8444
708.2404, 284.3612
710.1688, 284.8882
712.0973, 285.0320
714.0258, 285.2619
715.9542, 285.7142
717.8827, 286.5376
719.8112, 287.9548
721.7396, 289.5572
723.6681, 291.3667
725.5966, 292.9620
727.5250, 292.8148
729.4535, 291.4219
731.3820, 291.8775
733.3104, 294.3439
735.2389, 297.6121
737.1674, 302.5197
739.0958, 305.9343
741.0243, 306.8018
742.9528, 307.9975
744.8812, 309.1443
746.8097, 311.8379
748.7382, 317.3101
750.6666, 323.0335
752.5951, 327.9347
754.5236, 332.7342
756.4520, 337.1968
758.3805, 342.4365
760.3090, 349.8437
762.2374, 358.5162
764.1659, 366.4608
766.0944, 374.6842
768.0228, 385.7190
769.9513, 399.4959
771.8798, 416.4979
773.8082, 436.7162
775.7367, 461.7313
777.6652, 491.0373
779.5936, 526.4987
781.5221, 567.6896
783.4506, 617.2491
785.3790, 674.4912
787.3075, 743.1322
789.2360, 820.4881
791.1644, 917.2319
793.0929, 1030.417
795.0214, 1176.062
796.9498, 1355.552
798.8783, 1575.968
800.8068, 1854.754
802.7352, 2162.584
804.6637, 2492.975
806.5922, 2818.412
808.5206, 3104.634
810.4491, 3353.746
812.3776, 3552.862
814.3060, 3721.759
816.2345, 3917.195
818.1630, 4146.784
820.0914, 4463.231
822.0199, 4863.558
823.9484, 5324.090
825.8768, 5846.964
827.8053, 6309.891
829.7338, 6730.171
831.6622, 6886.210
833.5907, 6740.116
835.5192, 6339.053
837.4476, 5579.266
839.3761, 4778.557
841.3046, 3925.547
843.2330, 3162.128
845.1615, 2513.993
847.0900, 1984.971
849.0184, 1600.935
850.9469, 1305.685
852.8754, 1089.836
854.8038, 920.8743
856.7323, 781.7595
858.6608, 667.8821
860.5892, 578.4142
862.5177, 507.9875
864.4462, 452.7148
866.3746, 410.2681
868.3031, 379.8926
870.2316, 358.7046
872.1600, 341.1141
874.0885, 326.8214
876.0170, 315.4743
877.9454, 307.0035
879.8739, 300.2907
881.8024, 295.2828
883.7308, 292.9453
885.6593, 293.5734
887.5878, 294.5565
889.5162, 296.0359
891.4447, 297.4057
893.3732, 298.8209
895.3016, 299.7968
897.2301, 300.4210
899.1586, 300.3571
901.0870, 299.2423
903.0155, 298.1593
904.9440, 297.5143
906.8724, 296.3948
908.8009, 294.0687
910.7294, 292.6100
912.6578, 292.9116
914.5863, 293.3887
916.5148, 293.0504
918.4432, 293.6100
920.3717, 295.7521
922.3002, 299.1556
924.2286, 303.8420
926.1571, 309.4040
928.0856, 314.7701
930.0140, 322.2344
931.9425, 333.2920
933.8710, 346.5610
935.7994, 360.8801
937.7279, 377.4040
939.6564, 395.8937
941.5848, 418.4005
943.5133, 445.4752
945.4418, 479.2986
947.3702, 519.8739
949.2987, 571.1000
951.2272, 636.6656
953.1556, 717.5675
955.0841, 817.1785
957.0126, 933.0340
958.9410, 1065.117
960.8695, 1206.982
962.7980, 1347.897
964.7264, 1485.734
966.6549, 1610.202
968.5834, 1731.859
970.5118, 1867.971
972.4403, 2026.656
974.3688, 2229.814
976.2972, 2478.009
978.2257, 2782.456
980.1542, 3131.133
982.0826, 3500.990
984.0111, 3871.805
985.9396, 4176.184
987.8680, 4404.291
989.7965, 4507.521
991.7250, 4493.918
993.6534, 4412.684
995.5819, 4276.175
997.5104, 4184.959
999.4388, 4144.206
1001.367, 4183.083
1003.296, 4302.125
1005.224, 4464.196
1007.153, 4672.000
1009.081, 4837.124
1011.010, 4963.422
1012.938, 4975.230
1014.867, 4869.244
1016.795, 4667.138
1018.724, 4361.819
1020.652, 4003.728
1022.580, 3584.098
1024.509, 3173.924
1026.437, 2768.526
1028.366, 2403.968
1030.294, 2079.480
1032.223, 1804.878
1034.151, 1583.146
1036.080, 1395.888
1038.008, 1245.219
1039.937, 1117.716
1041.865, 1015.573
1043.794, 922.8007
1045.722, 838.6721
1047.651, 774.4034
1049.579, 731.7234
1051.507, 681.3954
1053.436, 622.8295
1055.364, 572.8790
1057.293, 531.7144
1059.221, 498.7587
1061.150, 474.0633
1063.078, 453.1669
1065.007, 435.8592
1066.935, 420.1990
1068.864, 406.3018
1070.792, 395.9069
1072.721, 388.6341
1074.649, 380.1135
1076.578, 370.6346
1078.506, 363.6428
1080.434, 359.0521
1082.363, 355.7061
1084.291, 353.1188
1086.220, 348.2793
1088.148, 341.8498
1090.077, 337.1853
1092.005, 333.9222
1093.934, 331.1453
1095.862, 328.4575
1097.791, 323.8774
1099.719, 318.2143
1101.648, 313.7832
1103.576, 310.3574
1105.505, 308.2191
1107.433, 306.4550
1109.361, 302.1833
1111.290, 296.5578
1113.218, 292.4909
1115.147, 289.1527
1117.075, 284.4584
1119.004, 279.1419
1120.932, 274.7713
1122.861, 270.7167
1124.789, 265.9813
1126.718, 261.0576
1128.646, 256.4203
1130.575, 251.7363
1132.503, 246.8559
1134.432, 242.0268
1136.360, 237.0675
1138.288, 232.4363
1140.217, 228.9429
1142.145, 225.4468
1144.074, 221.0451
1146.002, 216.5024
1147.931, 212.3568
1149.859, 208.0287
1151.788, 202.7707
1153.716, 198.0628
1155.645, 194.9310
1157.573, 191.8882
1159.502, 188.2698
1161.430, 184.6892
1163.359, 180.8029
1165.287, 178.6961
1167.215, 179.6420
1169.144, 179.9556
1171.072, 178.6944
1173.001, 177.5344
1174.929, 176.8550
1176.858, 175.4236
1178.786, 172.6402
1180.715, 172.3941
1182.643, 175.4078
1184.572, 177.2865
1186.500, 177.7879
1188.429, 177.5799
1190.357, 176.5772
1192.286, 176.6420
1194.214, 177.7606
1196.142, 178.0274
1198.071, 177.7150
1199.999, 178.3034
1201.928, 179.6671
1203.856, 181.2229
1205.785, 182.7185
1207.713, 184.3859
1209.642, 185.8747
1211.570, 185.9771
1213.499, 185.7823
1215.427, 186.6713
1217.356, 187.8680
1219.284, 188.8720
1221.213, 189.6965
1223.141, 189.5867
1225.069, 190.4525
1226.998, 194.4285
1228.926, 197.4145
1230.855, 197.0537
1232.783, 197.3570
1234.712, 199.6162
1236.640, 201.9006
1238.569, 203.6758
1240.497, 206.1057
1242.426, 209.3218
1244.354, 213.1303
1246.283, 217.7712
1248.211, 221.4254
1250.140, 223.9465
1252.068, 227.3450
1253.996, 231.5714
1255.925, 236.1514
1257.853, 241.1032
1259.782, 245.7374
1261.710, 250.3196
1263.639, 255.9963
1265.567, 262.3714
1267.496, 268.9546
1269.424, 275.0385
1271.353, 279.6545
1273.281, 284.3687
1275.210, 290.3362
1277.138, 296.7977
1279.067, 303.4909
1280.995, 309.4874
1282.923, 314.8795
1284.852, 319.3759
1286.780, 322.2714
1288.709, 326.0716
1290.637, 331.5853
1292.566, 335.8513
1294.494, 338.4610
1296.423, 341.7067
1298.351, 345.4981
1300.280, 347.4197
1302.208, 347.8482
1304.137, 348.2915
1306.065, 348.3560
1307.994, 347.2338
1309.922, 345.8719
1311.850, 345.5731
1313.779, 345.1219
1315.707, 343.1234
1317.636, 340.8741
1319.564, 338.6505
1321.493, 338.1613
1323.421, 340.1794
1325.350, 342.3554
1327.278, 344.0685
1329.207, 347.1327
1331.135, 351.6550
1333.064, 357.0692
1334.992, 363.5496
1336.921, 369.9047
1338.849, 375.8770
1340.777, 381.4704
1342.706, 386.5596
1344.634, 389.9035
1346.563, 392.8533
1348.491, 398.9379
1350.420, 404.1573
1352.348, 403.8922
1354.277, 402.3799
1356.205, 401.8585
1358.134, 400.8529
1360.062, 399.3551
1361.991, 396.2517
1363.919, 391.0430
1365.848, 386.1487
1367.776, 381.4307
1369.704, 375.9218
1371.633, 369.8770
1373.561, 364.0967
1375.490, 358.5557
1377.418, 353.2713
1379.347, 348.1094
1381.275, 342.7318
1383.204, 337.1443
1385.132, 331.6361
1387.061, 326.6821
1388.989, 322.4468
1390.918, 318.4046
1392.846, 314.3917
1394.775, 310.4957
1396.703, 306.7378
1398.631, 302.5995
1400.560, 298.1441
1402.488, 295.2625
1404.417, 293.4515
1406.345, 290.7049
1408.274, 287.0720
1410.202, 282.7280
1412.131, 278.9278
1414.059, 276.5372
1415.988, 274.2495
1417.916, 271.5413
1419.845, 269.5611
1421.773, 268.9350
1423.702, 267.1763
1425.630, 263.6185
1427.558, 262.2350
1429.487, 263.0233
1431.415, 262.6865
1433.344, 261.8873
1435.272, 261.1277
1437.201, 260.2725
1439.129, 260.2345
1441.058, 260.6207
1442.986, 260.7521
1444.915, 260.6009
1446.843, 260.3243
1448.771, 259.9425
1450.700, 259.1703
1452.628, 259.7798
1454.557, 261.6917
1456.485, 262.3029
1458.414, 262.0442
1460.342, 261.9832
1462.271, 261.9784
1464.199, 262.2181
1466.128, 262.9644
1468.056, 264.1556
1469.985, 264.8985
1471.913, 264.6539
1473.842, 265.2764
1475.770, 267.4564
1477.698, 269.0675
1479.627, 270.0584
1481.555, 270.0837
1483.484, 269.6064
1485.412, 270.4043
1487.341, 271.5920
1489.269, 271.1953
1491.198, 270.8660
1493.126, 271.8029
1495.055, 272.1359
1496.983, 271.8182
1498.912, 271.0057
1500.840, 269.2184
1502.769, 267.9968
1504.697, 267.0083
1506.625, 264.2457
1508.554, 260.6056
1510.482, 257.7949
1512.411, 255.0017
1514.339, 251.3825
1516.268, 247.5818
1518.196, 243.6596
1520.125, 240.6506
1522.053, 238.7659
1523.982, 236.5542
1525.910, 234.2880
1527.839, 232.9398
1529.767, 231.7289
1531.696, 230.2732
1533.624, 229.6363
1535.552, 230.2841
1537.481, 230.2004
1539.409, 228.6573
1541.338, 228.1246
1543.266, 228.9909
1545.195, 228.3309
1547.123, 226.0439
1549.052, 225.9692
1550.980, 227.2900
1552.909, 226.1438
1554.837, 224.5555
1556.766, 225.4097
1558.694, 225.6876
1560.623, 223.5916
1562.551, 222.7781
1564.479, 223.3533
1566.408, 223.8031
1568.336, 224.3975
1570.265, 224.9939
1572.193, 225.2051
1574.122, 224.2794
1576.050, 223.5935
1577.979, 224.4996
1579.907, 225.3083
1581.836, 225.8712
1583.764, 226.4070
1585.693, 226.1320
1587.621, 226.3163
1589.550, 227.7583
1591.478, 229.3624
1593.406, 229.9303
1595.335, 229.4509
1597.263, 229.8938
1599.192, 231.7571
1601.120, 232.7804
1603.049, 232.5762
1604.977, 232.6613
1606.906, 233.2635
1608.834, 234.5242
1610.763, 235.9571
1612.691, 238.3055
1614.620, 240.4910
1616.548, 240.3797
1618.477, 240.3965
1620.405, 241.6264
1622.333, 242.9420
1624.262, 244.3569
1626.190, 244.3469
1628.119, 243.5440
1630.047, 243.8857
1631.976, 244.3256
1633.904, 243.7613
1635.833, 243.3112
1637.761, 243.1784
1639.690, 243.6114
1641.618, 244.1518
1643.547, 242.2344
1645.475, 240.0929
1647.404, 239.2872
1649.332, 237.5764
1651.260, 235.0025
1653.189, 232.7011
1655.117, 230.2085
1657.046, 228.8054
1658.974, 228.4450
1660.903, 227.2522
1662.831, 225.6699
1664.760, 223.9456
1666.688, 222.3973
1668.617, 221.4765
1670.545, 220.3414
1672.474, 218.8235
1674.402, 216.5981
1676.331, 214.0446
1678.259, 213.2820
1680.188, 213.3901
1682.116, 211.8296
1684.044, 210.0173
1685.973, 209.3551
1687.901, 208.8720
1689.830, 209.1235
1691.758, 209.1863
1693.687, 207.6405
1695.615, 205.2070
1697.544, 203.5479
1699.472, 202.6643
1701.401, 202.8592
1703.329, 203.5430
1705.258, 203.3219
1707.186, 202.7017
1709.115, 200.3988
1711.043, 198.4512
1712.971, 199.3062
1714.900, 199.5506
1716.828, 197.4993
1718.757, 196.8448
1720.685, 198.2099
1722.614, 198.2793
1724.542, 197.5709
1726.471, 196.8260
1728.399, 196.0715
1730.328, 197.1326
1732.256, 198.2839
1734.185, 198.0167
1736.113, 197.5066
1738.042, 197.2243
1739.970, 196.7768
1741.898, 196.0851
1743.827, 195.8835
1745.755, 195.9026
1747.684, 194.8422
1749.612, 193.1044
1751.541, 192.1385
1753.469, 191.8910
1755.398, 192.2004
1757.326, 192.9587
1759.255, 192.5390
1761.183, 191.2084
1763.112, 190.1631
1765.040, 189.8276
1766.969, 189.6655
1768.897, 188.9790
1770.825, 187.9040
1772.754, 186.6201
1774.682, 185.6009
1776.611, 185.0880
1778.539, 184.3672
1780.468, 184.2729
1782.396, 184.7205
1784.325, 183.9367
1786.253, 182.8533
1788.182, 182.3993
1790.110, 182.6794
1792.039, 183.7996
1793.967, 183.8769
1795.896, 182.7744
1797.824, 181.2456
1799.752, 179.9138
1801.681, 180.0638
1803.609, 179.6999
1805.538, 177.2556
1807.466, 175.1407
1809.395, 173.5793
1811.323, 172.9054
1813.252, 172.0809
1815.180, 170.2575
1817.109, 167.7283
1819.037, 165.2743
1820.966, 163.7976
1822.894, 162.2020
1824.823, 160.5239
1826.751, 158.3929
1828.679, 156.3875
1830.608, 154.2376
1832.536, 151.0971
1834.465, 148.6081
1836.393, 146.5500
1838.322, 144.4905
1840.250, 142.0904
1842.179, 139.3509
1844.107, 136.9389
1846.036, 134.8248
1847.964, 132.7203
1849.893, 130.2346
1851.821, 127.2543
1853.750, 125.4169
1855.678, 124.4341
1857.606, 122.4277
1859.535, 120.1569
1861.463, 119.0109
1863.392, 117.6121
1865.320, 115.0823
1867.249, 112.5098
1869.177, 110.2756
1871.106, 109.8359
1873.034, 110.2349
1874.963, 109.1665
1876.891, 107.4280
1878.820, 106.3082
1880.748, 105.6683
1882.677, 104.8142
1884.605, 103.6237
1886.533, 102.8512
1888.462, 101.7256
1890.390, 99.91076
1892.319, 98.52962
1894.247, 98.05036
1896.176, 97.65528
1898.104, 96.84370
1900.033, 96.35423
1901.961, 96.16053
1903.890, 95.28370
1905.818, 94.47792
1907.747, 92.89971
1909.675, 91.13314
1911.604, 90.95493
1913.532, 90.69737
1915.460, 88.78890
1917.389, 87.88277
1919.317, 88.41663
1921.246, 87.94933
1923.174, 85.86205
1925.103, 83.96758
1927.031, 83.61257
1928.960, 83.65376
1930.888, 86.32472
1932.817, 87.49201
1934.745, 82.32772
1936.674, 81.39242
1938.602, 84.17159
1940.531, 84.45527
1942.459, 84.31309
1944.387, 87.03484
1946.316, 88.32189
1948.244, 86.49427
1950.173, 84.28878
1952.101, 84.28075
1954.030, 90.06792
1955.958, 90.75751
1957.887, 82.24885
1959.815, 79.24201
1961.744, 79.39847
1963.672, 77.78921
1965.601, 75.94821
1967.529, 75.54759
1969.458, 78.57756
1971.386, 82.19740
1973.314, 76.77699
1975.243, 71.27380
1977.171, 71.10082
1979.100, 71.53199
1981.028, 71.42876
1982.957, 71.26087
1984.885, 70.83707
1986.814, 70.48135
1988.742, 70.24584
1990.671, 69.40034
1992.599, 68.97654
1994.528, 69.72102
1996.456, 69.89733
1998.385, 69.35423
2000.313, 69.59452
2002.241, 69.13472
2004.170, 68.50126
2006.098, 68.66736
2008.027, 68.72710
2009.955, 69.23621
2011.884, 68.55136
2013.812, 66.95632
2015.741, 66.58134
2017.669, 67.08160
2019.598, 67.78645
2021.526, 67.77214
2023.455, 67.51106
2025.383, 67.03954
2027.312, 66.11762
2029.240, 65.35378
2031.168, 64.96026
2033.097, 64.19148
2035.025, 62.96198
2036.954, 62.32830
2038.882, 62.02766
2040.811, 61.87048
2042.739, 61.23951
2044.668, 60.45055
2046.596, 60.92375
2048.525, 61.14576
2050.453, 59.82585
2052.382, 59.25377
2054.310, 59.14424
2056.239, 58.68743
2058.167, 58.97584
2060.095, 58.52900
2062.024, 57.07674
2063.952, 56.95157
2065.881, 57.64011
2067.809, 57.24709
2069.738, 56.66890
2071.666, 56.19269
2073.595, 56.24966
2075.523, 55.93989
2077.452, 54.62148
2079.380, 54.20619
2081.309, 54.27690
2083.237, 54.19513
2085.166, 54.05293
2087.094, 53.24389
2089.022, 52.66674
2090.951, 52.12331
2092.879, 51.32365
2094.808, 50.77247
2096.736, 50.50407
2098.665, 51.31702
2100.593, 51.60345
2102.522, 50.79778
2104.450, 50.46653
2106.379, 50.41435
2108.307, 50.00594
2110.236, 48.77022
2112.164, 47.46331
2114.093, 46.83006
2116.021, 46.64146
2117.949, 46.96030
2119.878, 47.13467
2121.806, 47.07457
2123.735, 45.83070
2125.663, 44.27882
2127.592, 44.11452
2129.520, 44.80001
2131.449, 45.71589
2133.377, 45.58546
2135.306, 44.83555
2137.234, 44.76457
2139.163, 44.89524
2141.091, 44.00694
2143.020, 43.61465
2144.948, 43.70583
2146.876, 43.29515
2148.805, 42.63083
2150.733, 41.77378
2152.662, 41.69331
2154.590, 41.90674
2156.519, 42.04104
2158.447, 41.69387
2160.376, 41.23967
2162.304, 41.36769
2164.233, 41.13321
2166.161, 40.45749
2168.090, 40.73309
2170.018, 40.46706
2171.947, 39.76572
2173.875, 39.86274
2175.803, 39.98150
2177.732, 39.96650
2179.660, 39.77744
2181.589, 40.44328
2183.517, 40.77717
2185.446, 40.06014
2187.374, 40.14420
2189.303, 39.94788
2191.231, 39.11034
2193.160, 38.81395
2195.088, 38.71074
2197.017, 38.57528
2198.945, 38.49780
2200.874, 38.43631
2202.802, 38.84503
2204.730, 38.38375
2206.659, 37.31491
2208.587, 37.49552
2210.516, 38.04976
2212.444, 37.73946
2214.373, 37.52752
2216.301, 37.58284
2218.230, 36.60324
2220.158, 35.79140
2222.087, 36.00042
2224.015, 35.32691
2225.944, 34.73642
2227.872, 34.73360
2229.801, 35.04559
2231.729, 35.30764
2233.657, 35.14323
2235.586, 34.87312
2237.514, 34.50947
2239.443, 34.27250
2241.371, 33.99926
2243.300, 33.87929
2245.228, 33.53473
2247.157, 32.53080
2249.085, 32.25305
2251.014, 32.15002
2252.942, 32.51339
2254.871, 32.15090
2256.799, 31.09013
2258.728, 31.54728
2260.656, 31.95877
2262.584, 32.03332
2264.513, 32.74447
2266.441, 33.02126
2268.370, 31.57807
2270.298, 30.49255
2272.227, 29.89796
2274.155, 29.70371
2276.084, 30.03554
2278.012, 30.41039
2279.941, 30.79628
2281.869, 30.98602
2283.798, 30.76553
2285.726, 29.74605
2287.655, 29.14901
2289.583, 29.70049
2291.511, 29.92365
2293.440, 29.57507
2295.368, 29.54959
2297.297, 29.87655
2299.225, 29.96213
2301.154, 29.92006
2303.082, 30.45924
2305.011, 30.29709
2306.939, 29.43838
2308.868, 28.49783
2310.796, 28.53680
2312.725, 28.76097
2314.653, 28.07817
2316.582, 28.01589
2318.510, 28.75045
2320.438, 28.83591
2322.367, 28.01845
2324.295, 26.81865
2326.224, 27.13798
2328.152, 27.65936
2330.081, 27.20096
2332.009, 26.90183
2333.938, 26.66072
2335.866, 25.85952
2337.795, 25.71854
2339.723, 26.33978
2341.652, 26.07849
2343.580, 25.58446
2345.509, 25.46411
2347.437, 25.68093
2349.365, 26.03287
2351.294, 26.13787
2353.222, 26.14083
2355.151, 26.35963
2357.079, 25.47225
2359.008, 25.08634
2360.936, 25.56691
2362.865, 25.17826
2364.793, 25.11711
2366.722, 25.01581
2368.650, 24.82003
2370.579, 24.68473
2372.507, 24.38291
2374.436, 24.28609
2376.364, 24.45509
2378.292, 25.38019
2380.221, 25.64846
2382.149, 24.94440
2384.078, 24.07800
2386.006, 23.90212
2387.935, 25.32635
2389.863, 25.44372
2391.792, 24.77755
2393.720, 24.09556
2395.649, 24.21489
2397.577, 24.86426
2399.506, 24.39642
2401.434, 23.87447
2403.363, 23.63882
2405.291, 23.38205
2407.219, 23.31156
2409.148, 23.36036
2411.076, 23.75823
2413.005, 23.90263
2414.933, 22.43306
2416.862, 23.06043
2418.790, 24.23121
2420.719, 22.93641
2422.647, 22.16440
2424.576, 22.29785
2426.504, 22.08308
2428.433, 22.02043
2430.361, 22.70152
2432.290, 22.47864
2434.218, 22.27948
2436.146, 22.77897
2438.075, 22.09809
2440.003, 21.24525
2441.932, 21.28050
2443.860, 21.19363
2445.789, 21.28622
2447.717, 21.97420
2449.646, 21.17763
2451.574, 19.63604
2453.503, 20.61781
2455.431, 21.39984
2457.360, 21.52687
2459.288, 21.50273
2461.217, 21.17150
2463.145, 20.86799
2465.073, 20.32965
2467.002, 19.91291
2468.930, 19.80648
2470.859, 20.35312
2472.787, 20.76217
2474.716, 19.46600
2476.644, 20.08990
2478.573, 22.89444
2480.501, 29.06366
2482.430, 29.33154
2484.358, 21.91395
2486.287, 19.70816
2488.215, 19.70127
2490.144, 19.84385
2492.072, 19.17280
2494.000, 19.13490
2495.929, 19.65457
2497.857, 19.23764
2499.786, 18.79220
2501.714, 18.97131
2503.643, 19.08877
2505.571, 18.98001
2507.500, 18.97815
2509.428, 19.14780
2511.357, 19.18988
2513.285, 18.33635
2515.214, 17.98666
2517.142, 17.89399
2519.071, 17.73028
2520.999, 17.66400
2522.927, 17.74949
2524.856, 17.90332
2526.784, 18.11306
2528.713, 18.07777
2530.641, 17.96263
2532.570, 17.65690
2534.498, 17.11012
2536.427, 17.85686
2538.355, 18.42542
2540.284, 18.26744
2542.212, 17.32462
2544.141, 17.55926
2546.069, 18.89536
2547.998, 17.34198
2549.926, 16.31079
2551.854, 17.10501
2553.783, 17.95689
2555.711, 17.97843
2557.640, 17.17794
2559.568, 17.15103
2561.497, 17.54261
2563.425, 18.09528
2565.354, 17.99046
2567.282, 17.33274
2569.211, 16.02378
2571.139, 15.78955
2573.068, 16.17241
2574.996, 16.49048
2576.925, 16.07981
2578.853, 15.83100
2580.781, 16.44525
2582.710, 15.97276
2584.638, 15.40605
2586.567, 15.65508
2588.495, 15.68732
2590.424, 15.69929
2592.352, 15.04949
2594.281, 15.80521
2596.209, 16.81426
2598.138, 16.83496
2600.066, 16.26901
2601.995, 15.95330
2603.923, 16.60665
2605.852, 15.89511
2607.780, 14.72902
2609.708, 13.40084
2611.637, 13.22699
2613.565, 13.71433
2615.494, 14.43951
2617.422, 14.58365
2619.351, 14.71922
2621.279, 15.11937
2623.208, 14.65720
2625.136, 14.29504
2627.065, 14.25420
2628.993, 14.36819
2630.922, 14.01841
2632.850, 12.49360
2634.779, 13.18980
2636.707, 13.90429
2638.635, 13.38358
2640.564, 14.08853
2642.492, 14.31378
2644.421, 13.54078
2646.349, 13.50723
2648.278, 13.62304
2650.206, 13.82257
2652.135, 13.45116
2654.063, 13.46259
2655.992, 14.18675
2657.920, 14.35556
2659.849, 13.86741
2661.777, 12.61659
2663.706, 13.49173
2665.634, 13.74430
2667.563, 12.54964
2669.491, 12.11584
2671.419, 12.03805
2673.348, 12.04339
2675.276, 11.97592
2677.205, 12.11362
2679.133, 12.48669
2681.062, 13.31339
2682.990, 13.22009
2684.919, 12.41500
2686.847, 12.74252
2688.776, 13.06915
2690.704, 12.92003
2692.633, 12.76447
2694.561, 13.26073
2696.490, 13.69812
2698.418, 13.22286
2700.346, 12.11908
2702.275, 11.58878
2704.203, 12.09362
2706.132, 12.62305
2708.060, 12.00541
2709.989, 9.591551
2711.917, 10.72949
2713.846, 11.98006
2715.774, 12.12344
2717.703, 10.64075
2719.631, 10.40129
2721.560, 12.08510
2723.488, 12.45030
2725.417, 12.40234
2727.345, 12.30405
2729.273, 12.23099
2731.202, 12.27917
2733.130, 12.08879
2735.059, 10.02373
2736.987, 10.04646
2738.916, 11.45872
2740.844, 11.41634
2742.773, 10.87141
2744.701, 10.34251
2746.630, 9.951498
2748.558, 9.472286
2750.487, 9.417629
2752.415, 9.482612
2754.344, 10.14417
2756.272, 10.87233
2758.200, 11.22935
2760.129, 10.13481
2762.057, 10.25176
2763.986, 11.82775
2765.914, 10.87252
2767.843, 9.815379
2769.771, 9.485868
2771.700, 10.55029
2773.628, 10.13191
2775.557, 9.127889
2777.485, 9.150310
2779.414, 8.965888
2781.342, 8.572442
2783.271, 8.452316
2785.199, 9.271322
2787.127, 9.757681
2789.056, 9.279334
2790.984, 8.784357
2792.913, 8.720807
2794.841, 8.960875
2796.770, 9.261765
2798.698, 10.05078
2800.627, 10.38086
2802.555, 8.948168
2804.484, 8.839152
2806.412, 9.163675
2808.341, 8.611789
2810.269, 9.130537
2812.198, 9.648590
2814.126, 9.447839
2816.054, 8.303516
2817.983, 8.265836
2819.911, 9.365873
2821.840, 9.228642
2823.768, 9.155767
2825.697, 9.331163
2827.625, 9.521800
2829.554, 8.928588
2831.482, 8.337927
2833.411, 8.872166
2835.339, 7.926746
2837.268, 7.172650
2839.196, 7.467399
2841.125, 8.604654
2843.053, 9.116381
2844.981, 8.991109
2846.910, 8.167031
2848.838, 8.550085
2850.767, 9.072747
2852.695, 8.641994
2854.624, 8.002378
2856.552, 7.523272
2858.481, 7.161253
2860.409, 8.721843
2862.338, 8.967057
2864.266, 8.265638
2866.195, 8.332105
2868.123, 7.741953
2870.052, 7.639170
2871.980, 8.655118
2873.908, 8.951293
2875.837, 7.949411
2877.765, 6.727755
2879.694, 8.092480
2881.622, 8.421607
2883.551, 7.649186
2885.479, 6.703959
2887.408, 7.465609
2889.336, 7.321557
2891.265, 6.012609
2893.193, 6.173035
2895.122, 6.944892
2897.050, 7.670149
2898.979, 7.367417
2900.907, 6.085153
2902.835, 5.415192
2904.764, 5.594496
2906.692, 6.316028
2908.621, 7.317702
2910.549, 8.160994
2912.478, 8.266363
2914.406, 8.215777
2916.335, 7.573763
2918.263, 6.798689
2920.192, 6.600532
2922.120, 6.782093
2924.048, 6.990159
2925.977, 5.423507
2927.905, 5.688644
2929.834, 6.196118
2931.762, 5.292186
2933.691, 5.307348
2935.619, 5.736634
2937.548, 6.372861
2939.476, 7.345863
2941.405, 7.331979
2943.333, 6.446626
2945.261, 5.205258
2947.190, 5.739689
2949.118, 6.888353
2951.047, 7.129138
2952.975, 6.054332
2954.904, 5.056753
2956.832, 4.492912
2958.761, 5.136011
2960.689, 6.622971
2962.618, 7.586009
2964.546, 7.433152
2966.475, 6.431110
2968.403, 6.557699
2970.332, 7.079833
2972.260, 6.453168
2974.188, 5.481575
2976.117, 5.302485
2978.045, 5.916561
2979.974, 6.721132
2981.902, 6.593908
2983.831, 6.245500
2985.759, 6.848412
2987.688, 5.953078
2989.616, 5.355906
2991.545, 5.846218
2993.473, 6.014411
2995.402, 5.460494
2997.330, 4.890411
2999.259, 5.580414
3001.187, 5.861075
3003.115, 5.293006
3005.044, 4.790395
3006.972, 4.646071
3008.901, 5.542243
3010.829, 6.362638
3012.758, 5.441817
3014.686, 3.627983
3016.615, 3.672871
3018.543, 4.785777
3020.472, 5.059277
3022.400, 4.659655
3024.329, 5.090921
3026.257, 6.272838
3028.186, 5.851695
3030.114, 6.309068
3032.042, 6.509051
3033.971, 5.533032
3035.899, 4.469516
3037.828, 4.772721
3039.756, 5.737882
3041.685, 6.261597
3043.613, 5.204648
3045.542, 5.298091
3047.470, 6.701238
3049.399, 4.953979
3051.327, 3.970826
3053.256, 4.418174
3055.184, 5.540375
3057.113, 5.947023
3059.041, 5.455516
3060.969, 4.753715
3062.898, 4.882878
3064.826, 5.711064
3066.755, 6.359337
3068.683, 6.111605
3070.612, 4.930725
3072.540, 4.143720
3074.469, 4.020432
3076.397, 5.144255
3078.326, 6.547781
3080.254, 5.840957
3082.183, 5.019534
3084.111, 5.959547
3086.040, 5.631682
3087.968, 4.456258
3089.896, 4.348149
3091.825, 4.272686
3093.753, 3.782505
3095.682, 4.369021
3097.610, 5.972936
3099.539, 5.791239
3101.467, 4.147212
3103.396, 3.706878
3105.324, 4.846673
3107.253, 4.527040
3109.181, 4.483308
3111.110, 4.675155
3113.038, 4.204656
3114.967, 5.068973
3116.895, 4.433101
3118.823, 3.824956
3120.752, 5.899337
3122.680, 4.335005
3124.609, 5.369647
3126.537, 7.227188
3128.466, 4.121058
3130.394, 4.680796
3132.323, 5.291888
3134.251, 4.855418
3136.180, 4.224388
3138.108, 4.440428
3140.037, 4.690213
3141.965, 5.058371
3143.894, 5.030877
3145.822, 5.611107
3147.750, 6.026522
3149.679, 5.850700
3151.607, 5.917921
3153.536, 5.322191
3155.464, 5.816372
3157.393, 6.458751
3159.321, 6.361042
3161.250, 5.473516
3163.178, 4.121171
3165.107, 3.933642
3167.035, 5.142192
3168.964, 5.022120
3170.892, 5.141887
3172.821, 6.971289
3174.749, 5.556572
3176.677, 5.698005
3178.606, 6.325801
3180.534, 6.219951
3182.463, 5.216996
3184.391, 6.438134
3186.320, 6.841418
3188.248, 5.321446
3190.177, 7.095984
3192.105, 7.873384
3194.034, 7.701006
3195.962, 6.611969
3197.891, 6.633007
3199.819, 6.552110
3201.748, 6.787454
3203.676, 7.361782
3205.604, 5.151206
3207.533, 5.235423
3209.461, 5.886744
3211.390, 6.321437
3213.318, 7.783762
3215.247, 7.727108
3217.175, 7.220446
3219.104, 7.297112
3221.032, 8.075022
3222.961, 8.126013
3224.889, 6.981044
3226.818, 5.294082
3228.746, 5.973205
3230.675, 7.435200
3232.603, 7.899291
3234.531, 7.239633
3236.460, 8.640630
3238.388, 7.809563
3240.317, 6.373827
3242.245, 5.828119
3244.174, 8.757305
3246.102, 8.149160
3248.031, 7.643734
3249.959, 8.610553
3251.888, 10.50213
3253.816, 7.347001
3255.745, 7.177305
3257.673, 9.044020
3259.602, 8.272173
3261.530, 6.520791
3263.458, 7.099420
3265.387, 7.892782
3267.315, 7.373224
3269.244, 9.689528
3271.172, 9.609665
3273.101, 8.787317
3275.029, 8.800441
3276.958, 10.19703
3278.886, 10.44232
3280.815, 10.69493
3282.743, 11.46825
3284.672, 12.14619
3286.600, 13.06315
3288.529, 12.44386
3290.457, 10.81113
3292.385, 8.980411
3294.314, 10.35319
3296.242, 10.37844
3298.171, 10.27962
3300.099, 11.95305
3302.028, 12.15138
3303.956, 13.50481
3305.885, 14.80508
3307.813, 14.86639
3309.742, 11.82344
3311.670, 13.98962
3313.599, 13.55463
3315.527, 12.39379
3317.456, 16.46657
3319.384, 16.90103
3321.313, 14.82343
3323.241, 13.73290
3325.169, 15.85174
3327.098, 16.33003
3329.026, 13.65879
3330.955, 14.72298
3332.883, 18.40575
3334.812, 17.18513
3336.740, 16.20770
3338.669, 16.32050
3340.597, 17.50953
3342.526, 18.97068
3344.454, 17.45373
3346.383, 17.03712
3348.311, 17.32200
3350.240, 17.74869
3352.168, 17.50956
3354.096, 17.76488
3356.025, 18.33591
3357.953, 17.02987
3359.882, 13.44480
3361.810, 15.73374
3363.739, 13.33313
3365.667, 12.46797
3367.596, 14.59754
3369.524, 14.28036
3371.453, 14.14182
3373.381, 15.54739
3375.310, 16.35036
3377.238, 14.71661
3379.167, 15.30015
3381.095, 14.51432
3383.023, 14.37301
3384.952, 14.84297
3386.880, 13.35213
3388.809, 11.33876
3390.737, 12.54177
3392.666, 13.87268
3394.594, 13.51758
3396.523, 13.98901
3398.451, 13.87076
3400.380, 13.70712
3402.308, 13.59774
3404.237, 13.55790
3406.165, 14.17182
3408.094, 14.39824
3410.022, 14.05336
3411.950, 13.39806
3413.879, 12.58311
3415.807, 15.25901
3417.736, 16.20536
3419.664, 16.06804
3421.593, 16.09242
3423.521, 14.03493
3425.450, 12.41869
3427.378, 13.35227
3429.307, 14.77016
3431.235, 13.96782
3433.164, 12.10365
3435.092, 13.76129
3437.021, 12.12970
3438.949, 8.910665
3440.877, 12.38208
3442.806, 14.34946
3444.734, 13.03911
3446.663, 12.12242
3448.591, 12.74989
3450.520, 12.37912
3452.448, 13.14775
3454.377, 13.79540
3456.305, 13.26571
3458.234, 11.97886
3460.162, 12.14452
3462.091, 11.50020
3464.019, 11.10943
3465.948, 11.06662
3467.876, 11.22822
3469.804, 11.78851
3471.733, 11.84765
3473.661, 12.21348
3475.590, 11.59588
3477.518, 9.617726
3479.447, 9.558325
3481.375, 9.038103
3483.304, 9.336782
3485.232, 10.34719
3487.161, 11.14502
3489.089, 9.841802
3491.018, 9.218080
3492.946, 9.436823
3494.875, 10.38963
3496.803, 11.44665
3498.731, 9.870805
3500.660, 10.91658
3502.588, 10.81073
3504.517, 9.619779
3506.445, 8.977011
3508.374, 10.37645
3510.302, 11.77044
3512.231, 10.37113
3514.159, 8.958189
3516.088, 9.679088
3518.016, 10.71630
3519.945, 6.759773
3521.873, 8.161761
3523.802, 10.38209
3525.730, 9.517842
3527.658, 8.535189
3529.587, 7.850846
3531.515, 7.134177
3533.444, 7.692899
3535.372, 9.012464
3537.301, 8.886786
3539.229, 6.005037
3541.158, 6.438420
3543.086, 7.133172
3545.015, 6.562512
3546.943, 5.520157
3548.872, 6.304739
3550.800, 6.457108
3552.729, 6.699310
3554.657, 6.791900
3556.585, 6.604070
3558.514, 8.122432
3560.442, 8.198484
3562.371, 6.712807
3564.299, 6.266029
3566.228, 6.895274
3568.156, 5.023523
3570.085, 4.396185
3572.013, 6.599359
3573.942, 7.682772
3575.870, 6.520433
3577.799, 5.139453
3579.727, 8.066352
3581.656, 6.872562
3583.584, 5.225098
3585.512, 4.598706
3587.441, 4.290802
3589.369, 2.582810
3591.298, 3.043664
3593.226, 4.218009
3595.155, 5.465933
3597.083, 5.463712
3599.012, 3.131726
3600.940, 3.660528
3602.869, 5.192208
3604.797, 3.975534
3606.726, 2.863255
3608.654, 3.878390
3610.583, 3.838304
3612.511, 5.319932
3614.439, 6.091812
3616.368, 5.381701
3618.296, 4.655338
3620.225, 5.202363
3622.153, 3.301434
3624.082, 3.980196
3626.010, 3.710087
3627.939, 3.960688
3629.867, 4.344889
3631.796, 2.123492
3633.724, 3.351400
3635.653, 2.644142
3637.581, 2.511554
3639.510, 3.834075
3641.438, 5.119903
3643.366, 3.603370
3645.295, 2.557105
3647.223, 1.946487
3649.152, 3.547881
3651.080, 4.829417
3653.009, 3.599696
3654.937, 3.216034
3656.866, 3.378804
3658.794, 3.671168
3660.723, 4.331146
3662.651, 2.712850
3664.580, -1.346031
3666.508, 3.288316
3668.437, 2.602074
3670.365, 1.188912
3672.293, 1.611702
3674.222, 2.686594
3676.150, 2.336225
3678.079, 1.274619
3680.007, 1.888666
3681.936, 1.905420
3683.864, 2.622425
3685.793, 2.984898
3687.721, 1.974620
3689.650, 3.570014
3691.578, 2.623457
3693.507, 1.645570
3695.435, 0.6515225
3697.364, 0.1125831
3699.292, 0.6532309
3701.220, 2.125615
3703.149, 1.925457
3705.077, 0.7026508
3707.006, 1.279511
3708.934, 1.829488
3710.863, 1.165380
3712.791, 2.815303
3714.720, 2.540385
3716.648, 2.717598
3718.577, 2.135186
3720.505, 0.6188846
3722.434, -5.2092060E-02
3724.362, 1.747387
3726.291, -8.9758977E-02
3728.219, 1.968720
3730.147, 1.363413
3732.076, 1.717319
3734.004, 3.382904
3735.933, 2.806552
3737.861, -0.6003188
3739.790, 1.438157
3741.718, 2.997004
3743.647, 2.020116
3745.575, 0.3394336
3747.504, 7.5862907E-02
3749.432, 1.504847
3751.361, 1.611920
3753.289, 0.3627205
3755.218, -0.3778230
3757.146, 1.056202
3759.074, 1.985994
3761.003, 0.1253381
3762.931, 0.7202246
3764.860, 1.692755
3766.788, 1.648821
3768.717, 2.615699
3770.645, 2.494647
3772.574, 1.023739
3774.502, 1.039427
3776.431, 1.603451
3778.359, -1.525873
3780.288, 7.7401780E-02
3782.216, 1.092016
3784.145, 1.706607
3786.073, 2.485780
3788.001, 0.1785740
3789.930, -0.4308710
3791.858, 2.414598
3793.787, 1.510763
3795.715, 0.5853134
3797.644, 0.9622343
3799.572, 1.058900
3801.501, 8.4525377E-02
3803.429, 1.765861
3805.358, 0.7631949
3807.286, 0.8120441
3809.215, 1.652593
3811.143, 0.8800045
3813.072, -0.4484204
3815.000, 1.991941
3816.928, -0.7664566
3818.857, 2.203627
3820.785, 3.332095
3822.714, 1.421853
3824.642, 1.353079
3826.571, 2.942193
3828.499, 0.8654776
3830.428, -0.9104851
3832.356, 1.245711
3834.285, 1.311388
3836.213, 0.6857976
3838.142, 1.037925
3840.070, 1.692418
3841.999, 1.459170
3843.927, 1.594352
3845.855, 0.7839304
3847.784, 1.798975
3849.712, 0.3220043
3851.641, 9.6115857E-02
3853.569, 0.3472625
3855.498, -0.5566744
3857.426, 1.297492
3859.355, 2.396909
3861.283, -2.5677809E-02
3863.212, 2.495882
3865.140, 3.377370
3867.069, 1.621091
3868.997, 0.8510420
3870.926, 1.825474
3872.854, -0.4477738
3874.782, 2.280422
3876.711, 3.2875980E-03
3878.639, 1.235369
3880.568, 1.863741
3882.496, 0.5316486
3884.425, -0.3285686
3886.353, 3.2799721E-02
3888.282, -1.947102
3890.210, -1.581509
3892.139, 0.7815422
3894.067, 1.523119
3895.996, 1.430150
3897.924, 0.4898259
3899.853, 9.7360022E-02
3901.781, 1.740156
3903.709, -0.1819499
3905.638, 3.182182
3907.566, -0.5206826
3909.495, -0.2747613
3911.423, 0.5217299
3913.352, 1.018344
3915.280, 1.611894
3917.209, 0.7556791
3919.137, -1.101700
3921.066, 1.212557
3922.994, 1.619445
3924.923, -1.319721
3926.851, 0.4584093
3928.780, -0.5855819
3930.708, -0.3348696
3932.636, 4.590416
3934.565, 2.236212
3936.493, 0.2695697
3938.422, -9.3801953E-02
3940.350, 1.611604
3942.279, 0.2174893
3944.207, 0.1169879
3946.136, 1.761784
3948.064, 2.749171
3949.993, 2.787248
3951.921, 3.493156
3953.850, 0.8873225
3955.778, 2.120513
3957.707, -0.4440151
3959.635, -1.794142
3961.563, 2.8387530E-02
3963.492, 1.631543
3965.420, 1.202476
3967.349, 0.3754219
3969.277, 1.617055
3971.206, 1.185379
3973.134, 1.727698
3975.063, 1.411101
3976.991, 2.308882
3978.920, 1.302781
3980.848, -0.6593998
3982.777, 0.6947021
3984.705, 1.615246
3986.634, -8.8725351E-03
3988.562, -0.8376487
3990.490, -0.1821320
3992.419, 0.1205840
3994.347, 0.9689060
3996.276, 0.2374513
3998.204, 1.500599
4000.133, 1.467821
4002.061, -0.5528340
4003.990, -0.2292201
4005.918, 1.661856
4007.847, 2.171196
4009.775, 1.598171
4011.704, 1.681694
4013.632, 2.514473
4015.561, 1.142964
4017.489, 1.793365
4019.417, -2.397542
4021.346, -1.862661
4023.274, 0.4426493
4025.203, -6.0268249E-02
4027.131, -0.3791232
4029.060, 1.623861
4030.988, -0.5560196
4032.917, -0.2118994
4034.845, -1.063348
4036.774, -0.1963921
4038.702, 0.7355921
4040.631, 0.1436906
4042.559, 2.621087
4044.488, 3.269488
4046.416, -1.454599
4048.344, 2.339767
4050.273, -9.4591208E-02
4052.201, -2.309897
4054.130, -0.5616055
4056.058, 1.452278
4057.987, 5.0265990E-02
4059.915, -1.152748
4061.844, -1.545175
4063.772, 0.2666386
4065.701, 2.940429
4067.629, 0.6248603
4069.558, 9.1838174E-02
4071.486, 0.7618351
4073.415, -2.656113
4075.343, -0.1878207
4077.271, -1.303150
4079.200, 1.629086
4081.128, 2.980372
4083.057, 0.9365141
4084.985, 0.3937725
4086.914, 1.608362
4088.842, 1.222474
4090.771, 3.407346
4092.699, 4.227770
4094.628, 1.154049
4096.556, 0.7805251
4098.484, 1.074098
4100.413, 1.746735
4102.341, 0.4497151
4104.270, -1.073494
4106.198, 1.401066
4108.127, 4.085249
4110.055, 4.1795559E-02
4111.984, 0.4348769
4113.912, 1.397319
4115.841, 0.1882208
4117.769, 0.6395777
4119.698, 0.5052254
4121.626, -0.3362500
4123.555, -0.1932413
4125.483, -0.1518243
4127.412, -0.7661611
4129.340, 0.6959797
4131.269, 3.348176
4133.197, 1.434225
4135.125, 1.256849
4137.054, 1.968471
4138.982, -1.250347
4140.911, -0.4931973
4142.839, 0.1534505
4144.768, 0.7077908
4146.696, -9.4141029E-02
4148.625, -2.460850
4150.553, -1.025334
4152.481, 0.7937106
4154.410, 0.7508774
4156.338, 2.066103
4158.267, -0.8506711
4160.195, 1.207270
4162.124, 0.5885062
4164.052, 0.5787979
4165.981, 3.939444
4167.909, 0.3158829
4169.838, 0.5946133
4171.766, 0.3821425
4173.695, 0.5365342
4175.623, 3.566677
4177.552, 3.883615
4179.480, 0.6979138
4181.409, 0.7072896
4183.337, 3.263511
4185.266, 2.831053
4187.194, 1.379985
4189.123, 0.2907798
4191.051, 6.9377594E-02
4192.979, 0.9539514
4194.908, -0.1776289
4196.836, 0.7089705
4198.765, 0.9542398
4200.693, 1.795102
4202.622, -0.9502807
4204.550, -2.116096
4206.479, 0.3176771
4208.407, 1.028149
4210.335, -5.9063740E-02
4212.264, -0.5305416
4214.192, -0.4490720
4216.121, 2.470928
4218.049, -1.323459
4219.978, -1.128065
4221.906, -2.592416
4223.835, -0.5138344
4225.763, -1.095303
4227.692, -0.1229398
4229.620, 1.048220
4231.549, -1.119459
4233.477, -4.9666461E-02
4235.406, 1.433012
4237.334, 0.7016346
4239.263, 0.8521259
4241.191, 7.2179884E-02
4243.120, -2.300845
4245.048, -0.5097592
4246.977, 0.6496360
4248.905, -2.741719
4250.833, -0.4069838
4252.762, 1.067240
4254.690, -1.560979
4256.619, -0.1605638
4258.547, -8.3958283E-02
4260.476, -2.839816
4262.404, -1.199925
4264.333, -2.388285
4266.261, -2.452618
4268.189, -0.7129349
4270.118, 0.8034492
4272.046, 2.351645
4273.975, 1.221253
4275.903, -0.3987182
4277.832, 0.9156381
4279.760, -1.048019
4281.689, 1.133480
4283.617, 0.6561090
4285.546, 0.3817941
4287.474, 3.8247619E-02
4289.403, 0.7329558
4291.331, 1.416289
4293.260, 2.978554
4295.188, -1.878881
4297.117, -1.006076
4299.045, -0.1546760
4300.974, 1.0792370E-02
4302.902, -1.261207
4304.831, -1.803227
4306.759, -1.685082
4308.688, 0.5873818
4310.616, 1.186336
4312.544, 1.853981
4314.473, 1.222355
4316.401, -0.9831904
4318.330, 0.5517787
4320.258, 2.062115
4322.187, 1.933870
4324.115, 0.9988412
4326.043, 0.9629434
4327.972, -1.680162
4329.900, 0.8056805
4331.829, 0.5172483
4333.757, 0.9676989
4335.686, -1.091310
4337.614, -1.649960
4339.543, 0.6071892
4341.471, 0.7286901
4343.400, 0.8382787
4345.328, 1.218828
4347.257, -1.450596
4349.185, 0.3833789
4351.114, 1.199632
4353.042, 2.008194
4354.971, 0.5348266
4356.899, 0.4539977
4358.828, -1.458887
4360.756, -2.202649
4362.685, 1.438727
4364.613, 1.974195
4366.542, -1.091414
4368.470, -0.3092861
4370.398, 1.555388
4372.327, 0.8716004
4374.255, 0.6335685
4376.184, 0.2214809
4378.112, 0.2764302
4380.041, 0.5870901
4381.969, -2.240290
##END=



