##NAMES=Meurigite-K
##RRUFFID=R110135
##IDEAL CHEMISTRY=KFe^3+^_8_(PO_4_)_6_(OH)_7_·6.5H_2_O
##LOCALITY=Sapucaia mine, Galileia, Minas Gerais, Brazil
##OWNER=RRUFF
##SOURCE=Luiz Menezes
##DESCRIPTION=Pale yellow spheres on black cryptomelane
##STATUS=The identification of this mineral is not yet confirmed
##URL=https://www.rruff.net/odr/rruff_sample/R110135
##FILETYPE=Raman Processed
##RAMAN WAVELENGTH=532

200.3092, 49632.32
202.2376, 49837.63
204.1661, 49954.86
206.0946, 49942.95
208.0230, 49929.82
209.9515, 49940.11
211.8800, 49964.39
213.8084, 49993.25
215.7369, 49998.73
217.6654, 50029.90
219.5938, 50126.95
221.5223, 50300.28
223.4508, 50478.68
225.3792, 50642.81
227.3077, 50789.39
229.2362, 50926.28
231.1646, 51010.58
233.0931, 51099.35
235.0216, 51238.36
236.9500, 51449.73
238.8785, 51665.00
240.8070, 51865.47
242.7354, 52035.61
244.6639, 52159.89
246.5924, 52201.62
248.5208, 52243.04
250.4493, 52329.27
252.3778, 52511.65
254.3062, 52679.80
256.2347, 52829.81
258.1632, 52955.39
260.0916, 53056.27
262.0201, 53088.80
263.9486, 53145.28
265.8770, 53276.08
267.8055, 53514.93
269.7340, 53709.09
271.6624, 53800.77
273.5909, 53839.65
275.5194, 53912.93
277.4478, 54066.36
279.3763, 54221.75
281.3048, 54338.75
283.2332, 54416.58
285.1617, 54510.25
287.0902, 54653.40
289.0186, 54816.44
290.9471, 54968.93
292.8756, 55100.07
294.8040, 55236.02
296.7325, 55373.24
298.6610, 55507.51
300.5894, 55641.13
302.5179, 55801.95
304.4464, 55979.74
306.3748, 56145.50
308.3033, 56279.85
310.2318, 56420.16
312.1602, 56602.34
314.0887, 56815.89
316.0172, 57002.97
317.9456, 57143.96
319.8741, 57262.28
321.8026, 57374.44
323.7310, 57486.53
325.6595, 57610.91
327.5880, 57747.24
329.5164, 57894.00
331.4449, 58053.46
333.3734, 58221.89
335.3018, 58418.19
337.2303, 58646.55
339.1588, 58898.75
341.0872, 59088.71
343.0157, 59196.46
344.9442, 59286.08
346.8727, 59402.24
348.8011, 59539.96
350.7296, 59681.46
352.6581, 59833.77
354.5865, 60001.25
356.5150, 60189.63
358.4435, 60414.39
360.3719, 60611.99
362.3004, 60753.32
364.2289, 60843.98
366.1573, 60963.97
368.0858, 61124.49
370.0143, 61294.14
371.9427, 61435.47
373.8712, 61541.71
375.7997, 61660.68
377.7281, 61815.20
379.6566, 61996.57
381.5851, 62131.45
383.5135, 62241.54
385.4420, 62346.93
387.3705, 62437.58
389.2989, 62488.32
391.2274, 62566.84
393.1559, 62717.99
395.0843, 62920.41
397.0128, 63143.03
398.9413, 63371.47
400.8697, 63592.24
402.7982, 63812.06
404.7267, 64042.29
406.6551, 64281.65
408.5836, 64503.38
410.5121, 64686.44
412.4405, 64801.73
414.3690, 64860.13
416.2975, 64943.61
418.2259, 65087.36
420.1544, 65272.34
422.0829, 65471.74
424.0113, 65703.34
425.9398, 65913.76
427.8683, 66077.77
429.7967, 66207.69
431.7252, 66355.54
433.6537, 66557.60
435.5821, 66776.33
437.5106, 66991.27
439.4391, 67173.40
441.3675, 67331.05
443.2960, 67474.38
445.2245, 67610.65
447.1529, 67733.49
449.0814, 67805.38
451.0099, 67879.46
452.9383, 67984.58
454.8668, 68078.19
456.7953, 68174.70
458.7237, 68302.67
460.6522, 68395.08
462.5807, 68522.61
464.5091, 68672.07
466.4376, 68838.61
468.3661, 69003.38
470.2945, 69163.79
472.2230, 69327.52
474.1515, 69528.16
476.0799, 69698.41
478.0084, 69806.05
479.9369, 69880.04
481.8653, 70001.41
483.7938, 70195.01
485.7223, 70371.74
487.6507, 70478.20
489.5792, 70557.66
491.5077, 70683.81
493.4361, 70863.29
495.3646, 71046.79
497.2931, 71214.56
499.2215, 71393.17
501.1500, 71548.99
503.0785, 71664.64
505.0069, 71731.47
506.9354, 71762.75
508.8639, 71790.46
510.7923, 71858.63
512.7208, 71981.18
514.6493, 72135.09
516.5778, 72300.52
518.5062, 72474.67
520.4347, 72643.02
522.3632, 72802.99
524.2916, 72950.95
526.2201, 73097.70
528.1486, 73259.23
530.0770, 73431.52
532.0055, 73606.16
533.9340, 73770.67
535.8624, 73937.63
537.7909, 74086.92
539.7194, 74250.66
541.6478, 74478.20
543.5763, 74809.21
545.5048, 75108.05
547.4332, 75317.90
549.3617, 75465.54
551.2902, 75615.48
553.2186, 75799.74
555.1471, 75962.55
557.0756, 76077.99
559.0040, 76141.24
560.9325, 76235.95
562.8610, 76406.04
564.7894, 76580.97
566.7179, 76716.55
568.6464, 76801.21
570.5748, 76928.50
572.5033, 77104.15
574.4318, 77313.26
576.3602, 77552.16
578.2887, 77816.23
580.2172, 78055.14
582.1456, 78249.13
584.0741, 78415.58
586.0026, 78555.73
587.9310, 78650.46
589.8595, 78731.56
591.7880, 78783.16
593.7164, 78833.15
595.6449, 78927.39
597.5734, 79111.30
599.5018, 79287.36
601.4303, 79420.70
603.3588, 79525.31
605.2872, 79648.92
607.2157, 79797.05
609.1442, 79942.63
611.0726, 80064.95
613.0011, 80163.02
614.9296, 80284.62
616.8580, 80459.07
618.7865, 80628.88
620.7150, 80752.40
622.6434, 80825.63
624.5719, 80914.88
626.5004, 81068.36
628.4288, 81233.73
630.3573, 81358.26
632.2858, 81402.15
634.2142, 81491.13
636.1427, 81636.45
638.0712, 81832.76
639.9996, 82070.66
641.9281, 82371.40
643.8566, 82609.46
645.7850, 82700.04
647.7135, 82702.23
649.6420, 82751.62
651.5704, 82922.24
653.4989, 83067.18
655.4274, 83130.61
657.3558, 83158.47
659.2843, 83261.63
661.2128, 83486.48
663.1412, 83736.88
665.0697, 83982.55
666.9982, 84230.79
668.9266, 84442.20
670.8551, 84559.87
672.7836, 84673.84
674.7120, 84862.71
676.6405, 85125.68
678.5690, 85335.89
680.4974, 85396.14
682.4259, 85445.54
684.3544, 85584.26
686.2828, 85883.13
688.2113, 86106.51
690.1398, 86190.92
692.0682, 86241.39
693.9967, 86347.83
695.9252, 86525.30
697.8536, 86694.57
699.7821, 86826.04
701.7106, 86935.84
703.6390, 87062.14
705.5675, 87216.97
707.4960, 87362.41
709.4244, 87477.72
711.3529, 87594.77
713.2814, 87744.41
715.2098, 87942.14
717.1383, 88153.80
719.0668, 88384.70
720.9952, 88601.93
722.9237, 88792.43
724.8522, 88950.93
726.7806, 89114.70
728.7091, 89281.27
730.6376, 89450.09
732.5660, 89637.09
734.4945, 89857.26
736.4230, 90090.80
738.3514, 90336.27
740.2799, 90534.34
742.2084, 90681.66
744.1368, 90763.18
746.0653, 90855.24
747.9938, 90999.14
749.9222, 91182.94
751.8507, 91354.30
753.7792, 91507.24
755.7076, 91641.98
757.6361, 91762.02
759.5646, 91905.98
761.4930, 92063.49
763.4215, 92229.48
765.3500, 92391.39
767.2784, 92555.62
769.2069, 92717.11
771.1354, 92882.72
773.0638, 93059.21
774.9923, 93232.24
776.9208, 93376.41
778.8492, 93526.37
780.7777, 93739.80
782.7062, 94048.82
784.6346, 94320.47
786.5631, 94466.93
788.4916, 94546.08
790.4200, 94648.43
792.3485, 94833.68
794.2770, 94996.88
796.2054, 95077.18
798.1339, 95077.73
800.0624, 95155.56
801.9908, 95352.42
803.9193, 95591.27
805.8478, 95802.45
807.7762, 96001.27
809.7047, 96207.13
811.6332, 96418.37
813.5616, 96612.39
815.4901, 96763.01
817.4186, 96888.64
819.3470, 97011.80
821.2755, 97130.05
823.2040, 97208.31
825.1324, 97294.56
827.0609, 97425.14
828.9894, 97524.16
830.9178, 97524.58
832.8463, 97566.87
834.7748, 97778.85
836.7032, 98075.37
838.6317, 98338.95
840.5602, 98567.84
842.4886, 98812.19
844.4171, 99001.16
846.3456, 99122.54
848.2740, 99276.33
850.2025, 99492.07
852.1310, 99681.14
854.0594, 99796.02
855.9879, 99887.44
857.9164, 100027.4
859.8448, 100247.0
861.7733, 100496.1
863.7018, 100677.6
865.6302, 100715.4
867.5587, 100757.5
869.4872, 100873.3
871.4156, 101065.8
873.3441, 101246.5
875.2726, 101392.2
877.2010, 101506.7
879.1295, 101594.0
881.0580, 101695.8
882.9865, 101883.6
884.9149, 102141.5
886.8434, 102374.0
888.7719, 102543.1
890.7003, 102674.7
892.6288, 102834.6
894.5573, 103089.1
896.4857, 103332.5
898.4142, 103508.1
900.3427, 103673.9
902.2711, 103932.4
904.1996, 104277.0
906.1281, 104643.6
908.0565, 105012.8
909.9850, 105316.0
911.9135, 105448.9
913.8419, 105493.0
915.7704, 105540.0
917.6989, 105617.2
919.6273, 105736.6
921.5558, 105887.9
923.4843, 106008.7
925.4127, 106116.9
927.3412, 106311.2
929.2697, 106578.3
931.1981, 106865.4
933.1266, 107089.1
935.0551, 107313.9
936.9835, 107605.9
938.9120, 107944.2
940.8405, 108291.0
942.7689, 108623.4
944.6974, 108909.4
946.6259, 109108.7
948.5543, 109290.6
950.4828, 109508.8
952.4113, 109731.1
954.3397, 109952.3
956.2682, 110218.5
958.1967, 110444.1
960.1251, 110723.6
962.0536, 111018.7
963.9821, 111300.7
965.9105, 111614.5
967.8390, 111986.4
969.7675, 112381.0
971.6959, 112759.9
973.6244, 113038.3
975.5529, 113127.7
977.4813, 113176.3
979.4098, 113307.2
981.3383, 113479.4
983.2667, 113545.5
985.1952, 113468.2
987.1237, 113522.3
989.0521, 113733.1
990.9806, 113958.8
992.9091, 114128.7
994.8375, 114288.6
996.7660, 114542.3
998.6945, 114859.3
1000.623, 115194.0
1002.551, 115473.6
1004.480, 115626.1
1006.408, 115794.9
1008.337, 116089.0
1010.265, 116438.5
1012.194, 116738.0
1014.122, 116977.1
1016.051, 117183.8
1017.979, 117371.9
1019.908, 117566.1
1021.836, 117727.0
1023.765, 117829.2
1025.693, 117918.0
1027.621, 118025.8
1029.550, 118173.3
1031.478, 118362.9
1033.407, 118572.3
1035.335, 118727.4
1037.264, 118804.1
1039.192, 118876.2
1041.121, 118963.0
1043.049, 119086.1
1044.978, 119304.2
1046.906, 119661.1
1048.835, 120000.6
1050.763, 120199.1
1052.692, 120298.7
1054.620, 120386.4
1056.548, 120485.7
1058.477, 120603.6
1060.405, 120694.2
1062.334, 120787.5
1064.262, 121012.8
1066.191, 121381.1
1068.119, 121674.8
1070.048, 121781.3
1071.976, 121849.9
1073.905, 122034.3
1075.833, 122366.2
1077.762, 122648.7
1079.690, 122813.4
1081.619, 122884.0
1083.547, 122969.0
1085.475, 123115.4
1087.404, 123245.7
1089.332, 123301.6
1091.261, 123360.5
1093.189, 123466.0
1095.118, 123671.8
1097.046, 123908.7
1098.975, 124136.0
1100.903, 124358.0
1102.832, 124605.9
1104.760, 124850.8
1106.689, 125017.3
1108.617, 125122.7
1110.546, 125280.8
1112.474, 125560.0
1114.402, 125836.7
1116.331, 126052.9
1118.259, 126256.3
1120.188, 126533.1
1122.116, 126902.8
1124.045, 127188.1
1125.973, 127289.0
1127.902, 127375.8
1129.830, 127570.9
1131.759, 127814.5
1133.687, 127966.3
1135.616, 127972.0
1137.544, 128011.3
1139.473, 128159.0
1141.401, 128343.5
1143.329, 128476.9
1145.258, 128521.0
1147.186, 128594.4
1149.115, 128713.7
1151.043, 128876.4
1152.972, 129035.2
1154.900, 129164.4
1156.829, 129347.5
1158.757, 129646.0
1160.686, 129918.8
1162.614, 130058.4
1164.543, 130132.5
1166.471, 130268.3
1168.400, 130486.6
1170.328, 130725.0
1172.256, 131002.0
1174.185, 131291.5
1176.113, 131528.9
1178.042, 131681.0
1179.970, 131879.2
1181.899, 132189.8
1183.827, 132446.2
1185.756, 132536.6
1187.684, 132523.6
1189.613, 132594.6
1191.541, 132777.1
1193.470, 132983.4
1195.398, 133235.5
1197.327, 133502.1
1199.255, 133728.6
1201.183, 133911.9
1203.112, 134134.3
1205.040, 134398.6
1206.969, 134671.7
1208.897, 134970.2
1210.826, 135255.0
1212.754, 135441.1
1214.683, 135406.3
1216.611, 135463.1
1218.540, 135732.5
1220.468, 136051.6
1222.397, 136259.8
1224.325, 136381.3
1226.254, 136645.7
1228.182, 137146.6
1230.110, 137634.6
1232.039, 137930.6
1233.967, 138133.0
1235.896, 138405.0
1237.824, 138749.4
1239.753, 139066.7
1241.681, 139401.7
1243.610, 139648.7
1245.538, 139735.3
1247.467, 139690.1
1249.395, 139688.7
1251.324, 139779.0
1253.252, 139888.7
1255.181, 139989.3
1257.109, 140125.3
1259.037, 140365.2
1260.966, 140702.0
1262.894, 140992.3
1264.823, 141194.5
1266.751, 141386.1
1268.680, 141578.6
1270.608, 141774.0
1272.537, 142007.8
1274.465, 142288.9
1276.394, 142569.2
1278.322, 142851.6
1280.251, 143149.4
1282.179, 143456.3
1284.108, 143726.2
1286.036, 143983.3
1287.964, 144205.2
1289.893, 144505.6
1291.821, 144924.6
1293.750, 145378.1
1295.678, 145811.1
1297.607, 146215.7
1299.535, 146567.7
1301.464, 146850.5
1303.392, 147104.4
1305.321, 147336.6
1307.249, 147554.6
1309.178, 147785.0
1311.106, 148038.3
1313.035, 148291.7
1314.963, 148530.3
1316.891, 148785.5
1318.820, 149086.1
1320.748, 149413.5
1322.677, 149711.8
1324.605, 149984.3
1326.534, 150262.4
1328.462, 150558.3
1330.391, 150821.0
1332.319, 151019.8
1334.248, 151136.0
1336.176, 151291.6
1338.105, 151530.8
1340.033, 151784.2
1341.962, 152071.4
1343.890, 152364.8
1345.818, 152572.6
1347.747, 152636.2
1349.675, 152783.3
1351.604, 153096.9
1353.532, 153425.2
1355.461, 153652.3
1357.389, 153829.7
1359.318, 154076.7
1361.246, 154392.8
1363.175, 154622.5
1365.103, 154713.1
1367.032, 154819.3
1368.960, 155014.9
1370.889, 155253.1
1372.817, 155521.9
1374.745, 155866.3
1376.674, 156195.7
1378.602, 156463.8
1380.531, 156671.6
1382.459, 156827.7
1384.388, 156944.0
1386.316, 157037.0
1388.245, 157030.2
1390.173, 157173.5
1392.102, 157657.5
1394.030, 158190.5
1395.959, 158470.2
1397.887, 158471.9
1399.816, 158541.6
1401.744, 158747.3
1403.672, 158988.7
1405.601, 159206.7
1407.529, 159446.6
1409.458, 159698.8
1411.386, 159935.4
1413.315, 160208.4
1415.243, 160461.0
1417.172, 160706.8
1419.100, 160925.5
1421.029, 161146.8
1422.957, 161407.0
1424.886, 161686.5
1426.814, 161941.7
1428.743, 162127.0
1430.671, 162345.7
1432.599, 162703.1
1434.528, 163084.6
1436.456, 163320.7
1438.385, 163379.6
1440.313, 163553.2
1442.242, 163907.5
1444.170, 164207.0
1446.099, 164407.9
1448.027, 164581.6
1449.956, 164765.0
1451.884, 164877.9
1453.813, 165050.2
1455.741, 165433.7
1457.670, 165820.9
1459.598, 166163.7
1461.526, 166443.3
1463.455, 166620.7
1465.383, 166712.0
1467.312, 166918.1
1469.240, 167272.3
1471.169, 167623.0
1473.097, 167900.7
1475.026, 168130.5
1476.954, 168393.0
1478.883, 168699.5
1480.811, 168861.8
1482.740, 168757.1
1484.668, 168765.3
1486.597, 169066.3
1488.525, 169513.7
1490.453, 170022.9
1492.382, 170589.8
1494.310, 171121.0
1496.239, 171581.9
1498.167, 172015.4
1500.096, 172347.5
1502.024, 172611.2
1503.953, 172836.9
1505.881, 173031.5
1507.810, 173209.7
1509.738, 173439.3
1511.667, 173582.2
1513.595, 173539.6
1515.524, 173531.0
1517.452, 173712.2
1519.380, 174047.3
1521.309, 174383.9
1523.237, 174713.0
1525.166, 175046.3
1527.094, 175261.0
1529.023, 175488.2
1530.951, 175874.3
1532.880, 176295.0
1534.808, 176479.0
1536.737, 176312.8
1538.665, 176345.9
1540.594, 176763.2
1542.522, 177215.9
1544.451, 177638.0
1546.379, 177981.8
1548.307, 178146.6
1550.236, 178119.0
1552.164, 178251.5
1554.093, 178627.6
1556.021, 179024.8
1557.950, 179368.1
1559.878, 179694.4
1561.807, 180079.5
1563.735, 180483.2
1565.664, 180735.9
1567.592, 180797.9
1569.521, 180863.1
1571.449, 180971.2
1573.378, 181114.2
1575.306, 181257.1
1577.234, 181419.4
1579.163, 181689.2
1581.091, 182087.7
1583.020, 182387.1
1584.948, 182527.9
1586.877, 182631.3
1588.805, 182698.9
1590.734, 182794.3
1592.662, 182974.8
1594.591, 183244.4
1596.519, 183595.5
1598.448, 184022.6
1600.376, 184472.5
1602.305, 184959.5
1604.233, 185387.0
1606.161, 185666.4
1608.090, 185975.1
1610.018, 186188.5
1611.947, 186316.3
1613.875, 186450.5
1615.804, 186406.3
1617.732, 186367.1
1619.661, 186427.2
1621.589, 186560.7
1623.518, 186733.1
1625.446, 186956.4
1627.375, 187260.7
1629.303, 187607.4
1631.232, 188082.6
1633.160, 188871.7
1635.089, 189528.5
1637.017, 189685.3
1638.945, 189553.9
1640.874, 189664.0
1642.802, 190078.7
1644.731, 190358.9
1646.659, 190414.8
1648.588, 190499.6
1650.516, 190680.1
1652.445, 190952.7
1654.373, 191357.8
1656.302, 191856.5
1658.230, 192187.4
1660.159, 192246.6
1662.087, 192369.9
1664.016, 192635.2
1665.944, 192913.3
1667.872, 193153.8
1669.801, 193387.1
1671.729, 193675.7
1673.658, 194039.0
1675.586, 194328.0
1677.515, 194506.3
1679.443, 194714.5
1681.372, 195010.6
1683.300, 195316.1
1685.229, 195568.5
1687.157, 195795.3
1689.086, 196046.0
1691.014, 196290.8
1692.943, 196601.4
1694.871, 197003.4
1696.799, 197393.5
1698.728, 197906.1
1700.656, 198263.9
1702.585, 198135.9
1704.513, 197728.2
1706.442, 197710.3
1708.370, 198238.1
1710.299, 198634.9
1712.227, 198731.5
1714.156, 198871.1
1716.084, 199170.3
1718.013, 199487.0
1719.941, 199683.3
1721.870, 199783.1
1723.798, 199929.7
1725.726, 200140.7
1727.655, 200355.9
1729.583, 200580.4
1731.512, 200812.6
1733.440, 201082.0
1735.369, 201346.4
1737.297, 201536.3
1739.226, 201685.2
1741.154, 201987.6
1743.083, 202516.4
1745.011, 202941.6
1746.940, 203120.5
1748.868, 203328.7
1750.797, 203647.1
1752.725, 203996.3
1754.653, 204319.5
1756.582, 204595.4
1758.510, 204759.3
1760.439, 204774.3
1762.367, 204855.8
1764.296, 205135.7
1766.224, 205354.4
1768.153, 205433.2
1770.081, 205463.3
1772.010, 205490.0
1773.938, 205541.7
1775.867, 205699.3
1777.795, 205970.6
1779.724, 206275.6
1781.652, 206619.8
1783.580, 206934.3
1785.509, 207094.4
1787.437, 207284.8
1789.366, 207666.0
1791.294, 208147.7
1793.223, 208542.9
1795.151, 208845.2
1797.080, 209101.8
1799.008, 209345.1
1800.937, 209489.3
1802.865, 209416.3
1804.794, 209383.5
1806.722, 209602.9
1808.651, 209954.7
1810.579, 210265.8
1812.507, 210535.3
1814.436, 210782.4
1816.364, 210983.1
1818.293, 211192.2
1820.221, 211421.6
1822.150, 211632.2
1824.078, 211795.0
1826.007, 211947.0
1827.935, 212167.8
1829.864, 212441.0
1831.792, 212626.1
1833.721, 212704.3
1835.649, 212886.1
1837.578, 213231.0
1839.506, 213620.7
1841.434, 214020.5
1843.363, 214410.1
1845.291, 214773.4
1847.220, 215095.5
1849.148, 215354.4
1851.077, 215537.3
1853.005, 215737.8
1854.934, 215999.4
1856.862, 216217.8
1858.791, 216370.5
1860.719, 216505.4
1862.648, 216637.8
1864.576, 216775.5
1866.505, 216931.2
1868.433, 217102.4
1870.361, 217261.7
1872.290, 217407.7
1874.218, 217551.1
1876.147, 217653.0
1878.075, 217827.7
1880.004, 218154.2
1881.932, 218517.8
1883.861, 218860.6
1885.789, 219176.0
1887.718, 219425.7
1889.646, 219673.6
1891.575, 219899.1
1893.503, 220055.6
1895.432, 220250.7
1897.360, 220376.5
1899.288, 220442.5
1901.217, 220479.2
1903.145, 220508.6
1905.074, 220531.0
1907.002, 220610.5
1908.931, 220875.5
1910.859, 221311.0
1912.788, 221660.6
1914.716, 221839.9
1916.645, 222026.4
1918.573, 222143.8
1920.502, 222376.1
1922.430, 222986.7
1924.359, 223580.0
1926.287, 223793.3
1928.215, 223755.7
1930.144, 223746.9
1932.072, 223785.6
1934.001, 223841.4
1935.929, 223918.0
1937.858, 224023.6
1939.786, 224093.0
1941.715, 224270.7
1943.643, 224691.0
1945.572, 225153.9
1947.500, 225483.5
1949.429, 225709.0
1951.357, 225911.9
1953.286, 226082.8
1955.214, 226220.1
1957.143, 226321.0
1959.071, 226385.0
1961.000, 226407.1
1962.928, 226427.4
1964.856, 226421.7
1966.785, 226497.2
1968.713, 226840.6
1970.642, 227281.3
1972.570, 227418.7
1974.499, 227318.9
1976.427, 227493.7
1978.356, 227998.6
1980.284, 228485.3
1982.213, 228906.7
1984.141, 229238.8
1986.070, 229312.4
1987.998, 229450.5
1989.927, 229966.3
1991.855, 230562.1
1993.783, 230821.8
1995.712, 230828.2
1997.640, 230937.7
1999.569, 231173.4
2001.497, 231471.6
2003.426, 232011.9
2005.354, 232342.5
2007.283, 232287.0
2009.211, 232181.8
2011.140, 232085.7
2013.068, 232048.7
2014.997, 232134.3
2016.925, 232308.7
2018.854, 232509.0
2020.782, 232746.4
2022.710, 233038.4
2024.639, 233412.5
2026.567, 233740.5
2028.496, 234009.3
2030.424, 234195.9
2032.353, 234203.5
2034.281, 234225.3
2036.210, 234393.3
2038.138, 234596.6
2040.067, 234680.9
2041.995, 234726.6
2043.924, 235004.4
2045.852, 235509.1
2047.781, 235673.8
2049.709, 235235.5
2051.637, 235148.6
2053.566, 235847.4
2055.494, 236338.0
2057.423, 236269.9
2059.351, 236135.1
2061.280, 236190.7
2063.208, 236360.7
2065.137, 236628.0
2067.065, 236948.5
2068.994, 237100.4
2070.922, 237429.4
2072.851, 237752.8
2074.779, 237949.9
2076.708, 238418.7
2078.636, 238586.5
2080.564, 238810.8
2082.493, 239320.5
2084.421, 239722.2
2086.350, 239857.5
2088.278, 239801.6
2090.207, 239520.2
2092.135, 239197.5
2094.064, 239207.0
2095.992, 239532.7
2097.921, 239769.4
2099.849, 239860.3
2101.778, 239944.2
2103.706, 239967.5
2105.635, 239993.9
2107.563, 240028.2
2109.491, 240065.0
2111.420, 240154.4
2113.348, 240245.3
2115.277, 240291.1
2117.205, 240373.8
2119.134, 240627.6
2121.062, 240984.8
2122.991, 241186.6
2124.919, 241229.6
2126.848, 241507.7
2128.776, 242086.6
2130.705, 242587.2
2132.633, 242984.6
2134.562, 243230.1
2136.490, 243222.7
2138.418, 243200.5
2140.347, 243334.5
2142.275, 243455.2
2144.204, 243329.6
2146.132, 243187.0
2148.061, 243464.3
2149.989, 243597.2
2151.918, 243872.3
2153.846, 244347.0
2155.775, 244620.1
2157.703, 245236.3
2159.632, 245684.6
2161.560, 245782.8
2163.489, 245861.5
2165.417, 245980.6
2167.345, 246106.0
2169.274, 246221.8
2171.202, 246352.4
2173.131, 246607.4
2175.059, 246857.6
2176.988, 246882.6
2178.916, 246779.6
2180.845, 246813.6
2182.773, 246989.9
2184.702, 247225.1
2186.630, 247515.8
2188.559, 247743.4
2190.487, 247829.1
2192.416, 248018.6
2194.344, 248440.2
2196.272, 248796.2
2198.201, 248982.1
2200.129, 249073.2
2202.058, 249079.5
2203.986, 249065.2
2205.915, 249116.3
2207.843, 249174.8
2209.772, 249067.3
2211.700, 249245.5
2213.629, 249007.1
2215.557, 249488.1
2217.486, 249784.0
2219.414, 249862.4
2221.343, 249985.1
2223.271, 250200.1
2225.199, 250404.0
2227.128, 250496.8
2229.056, 250672.3
2230.985, 251028.6
2232.913, 251420.1
2234.842, 251846.0
2236.770, 252194.3
2238.699, 252258.9
2240.627, 252272.5
2242.556, 252666.7
2244.484, 253304.4
2246.413, 253668.2
2248.341, 253780.6
2250.270, 253910.5
2252.198, 254051.0
2254.126, 254423.1
2256.055, 255128.4
2257.983, 255644.2
2259.912, 255776.8
2261.840, 255867.2
2263.769, 256028.0
2265.697, 256098.9
2267.626, 255926.0
2269.554, 255761.1
2271.483, 255859.6
2273.411, 255999.4
2275.340, 255960.7
2277.268, 255863.5
2279.197, 255856.2
2281.125, 255952.9
2283.053, 256206.2
2284.982, 256576.8
2286.910, 256770.6
2288.839, 256694.2
2290.767, 256825.8
2292.696, 257295.3
2294.624, 257674.5
2296.553, 257904.2
2298.481, 258130.5
2300.410, 258465.0
2302.338, 258683.1
2304.267, 258681.2
2306.195, 258646.4
2308.124, 258634.2
2310.052, 258704.4
2311.980, 258946.6
2313.909, 259254.5
2315.837, 259470.4
2317.766, 259778.4
2319.694, 259968.8
2321.623, 260354.2
2323.551, 260682.1
2325.480, 260938.3
2327.408, 261157.1
2329.337, 261337.2
2331.265, 261418.6
2333.194, 261369.5
2335.122, 261436.1
2337.051, 261744.9
2338.979, 261963.8
2340.907, 262020.8
2342.836, 262053.0
2344.764, 262103.5
2346.693, 262174.0
2348.621, 262120.0
2350.550, 262228.6
2352.478, 262778.8
2354.407, 263365.3
2356.335, 263575.4
2358.264, 263873.2
2360.192, 263799.6
2362.121, 263999.5
2364.049, 263932.0
2365.978, 263673.5
2367.906, 263293.0
2369.834, 262843.9
2371.763, 262906.4
2373.691, 263582.6
2375.620, 263957.9
2377.548, 263895.9
2379.477, 264072.3
2381.405, 264583.6
2383.334, 265005.8
2385.262, 265279.7
2387.191, 265420.1
2389.119, 265414.8
2391.048, 265381.3
2392.976, 265272.0
2394.905, 265320.1
2396.833, 265764.5
2398.761, 266213.3
2400.690, 266307.4
2402.618, 266388.8
2404.547, 266787.8
2406.475, 267234.0
2408.404, 267445.2
2410.332, 267509.5
2412.261, 267549.7
2414.189, 267588.8
2416.118, 267669.6
2418.046, 267799.3
2419.975, 267957.8
2421.903, 268142.1
2423.832, 268239.8
2425.760, 268444.2
2427.688, 268626.1
2429.617, 268762.5
2431.545, 269013.8
2433.474, 269073.3
2435.402, 269214.8
2437.331, 269657.7
2439.259, 269868.5
2441.188, 269658.0
2443.116, 269566.0
2445.045, 269735.8
2446.973, 269974.2
2448.902, 270222.1
2450.830, 270487.6
2452.759, 270726.6
2454.687, 270996.6
2456.615, 271321.5
2458.544, 271680.7
2460.472, 272169.6
2462.401, 272601.5
2464.329, 272796.2
2466.258, 272882.0
2468.186, 272918.0
2470.115, 273001.6
2472.043, 273289.8
2473.972, 273669.0
2475.900, 273921.1
2477.829, 274051.1
2479.757, 274127.9
2481.686, 274160.0
2483.614, 274279.3
2485.542, 274490.5
2487.471, 274552.2
2489.399, 274504.5
2491.328, 274591.1
2493.256, 274850.8
2495.185, 275072.1
2497.113, 275154.9
2499.042, 275409.0
2500.970, 275892.0
2502.899, 276258.3
2504.827, 276436.7
2506.756, 276569.5
2508.684, 276673.6
2510.613, 276764.3
2512.541, 276813.8
2514.469, 276976.2
2516.398, 276871.8
2518.326, 276818.0
2520.255, 276843.8
2522.183, 276997.1
2524.112, 277363.7
2526.040, 277707.1
2527.969, 277888.7
2529.897, 278047.3
2531.826, 278278.4
2533.754, 278514.6
2535.683, 278682.8
2537.611, 278892.8
2539.540, 279301.4
2541.468, 279718.8
2543.396, 279846.9
2545.325, 279969.4
2547.253, 280469.0
2549.182, 281014.4
2551.110, 281205.0
2553.039, 281191.4
2554.967, 281207.3
2556.896, 281227.3
2558.824, 281172.2
2560.753, 281123.6
2562.681, 281233.8
2564.610, 281490.6
2566.538, 281834.0
2568.467, 282230.7
2570.395, 282587.9
2572.323, 282890.4
2574.252, 283219.6
2576.180, 283547.6
2578.109, 283842.0
2580.037, 284102.4
2581.966, 284189.9
2583.894, 284150.5
2585.823, 284134.7
2587.751, 284164.2
2589.680, 284540.2
2591.608, 285346.9
2593.537, 285942.7
2595.465, 286273.4
2597.394, 286520.3
2599.322, 286646.6
2601.250, 286901.1
2603.179, 287328.2
2605.107, 287645.5
2607.036, 287798.1
2608.964, 287940.3
2610.893, 288090.9
2612.821, 288289.8
2614.750, 288573.3
2616.678, 288848.6
2618.607, 289116.2
2620.535, 289280.3
2622.464, 289244.3
2624.392, 289243.0
2626.321, 289265.5
2628.249, 289404.4
2630.177, 289790.0
2632.106, 289975.3
2634.034, 289787.4
2635.963, 289772.8
2637.891, 290196.9
2639.820, 290566.0
2641.748, 290682.5
2643.677, 290861.4
2645.605, 291175.8
2647.534, 291495.3
2649.462, 291779.1
2651.391, 292041.5
2653.319, 292266.3
2655.248, 292458.9
2657.176, 292603.2
2659.104, 292720.4
2661.033, 292873.2
2662.961, 292929.3
2664.890, 292815.9
2666.818, 292778.6
2668.747, 292943.4
2670.675, 293196.4
2672.604, 293597.6
2674.532, 293930.8
2676.461, 294006.5
2678.389, 294134.7
2680.318, 294409.0
2682.246, 294643.4
2684.175, 294682.8
2686.103, 294771.8
2688.031, 295094.9
2689.960, 295381.8
2691.888, 295609.1
2693.817, 295742.3
2695.745, 295745.2
2697.674, 295797.8
2699.602, 295976.7
2701.531, 296213.3
2703.459, 296434.1
2705.388, 296736.3
2707.316, 297233.0
2709.245, 297637.5
2711.173, 297773.4
2713.102, 297930.4
2715.030, 298264.2
2716.958, 298521.2
2718.887, 298501.6
2720.815, 298541.0
2722.744, 298839.1
2724.672, 299110.5
2726.601, 299195.3
2728.529, 299505.7
2730.458, 300448.0
2732.386, 301106.3
2734.315, 300876.6
2736.243, 300726.0
2738.172, 300967.7
2740.100, 301190.2
2742.029, 301290.1
2743.957, 301423.8
2745.885, 301718.0
2747.814, 301969.5
2749.742, 302028.4
2751.671, 302288.8
2753.599, 302957.1
2755.528, 303523.1
2757.456, 303817.5
2759.385, 304140.6
2761.313, 304524.4
2763.242, 304910.7
2765.170, 305281.4
2767.099, 305579.5
2769.027, 305812.3
2770.956, 305906.9
2772.884, 305835.9
2774.813, 305840.1
2776.741, 306122.1
2778.669, 306140.1
2780.598, 305675.9
2782.526, 305582.7
2784.455, 305968.2
2786.383, 306306.5
2788.312, 306511.0
2790.240, 306759.6
2792.169, 307058.0
2794.097, 307253.3
2796.026, 307409.6
2797.954, 307408.9
2799.883, 307597.7
2801.811, 307685.1
2803.740, 307679.0
2805.668, 307777.8
2807.596, 308007.7
2809.525, 308143.7
2811.453, 308190.8
2813.382, 308211.5
2815.310, 308215.1
2817.239, 308257.3
2819.167, 308363.0
2821.096, 308738.4
2823.024, 308830.7
2824.953, 309425.1
2826.881, 309349.9
2828.810, 309647.1
2830.738, 310118.5
2832.667, 310375.4
2834.595, 310449.4
2836.523, 310315.3
2838.452, 310157.1
2840.380, 310328.9
2842.309, 310655.1
2844.237, 310965.5
2846.166, 311222.3
2848.094, 311305.9
2850.023, 311365.2
2851.951, 311504.0
2853.880, 311722.4
2855.808, 312134.3
2857.737, 312476.8
2859.665, 312485.7
2861.594, 312517.3
2863.522, 312847.9
2865.450, 313185.8
2867.379, 313359.6
2869.307, 313589.5
2871.236, 313996.8
2873.164, 314400.6
2875.093, 314704.8
2877.021, 315047.3
2878.950, 315288.0
2880.878, 315435.2
2882.807, 315698.2
2884.735, 315657.1
2886.664, 315803.4
2888.592, 315975.0
2890.521, 316159.7
2892.449, 316431.3
2894.377, 316797.6
2896.306, 317085.5
2898.234, 317271.8
2900.163, 317367.7
2902.091, 317372.8
2904.020, 317603.2
2905.948, 318038.4
2907.877, 318555.1
2909.805, 319082.7
2911.734, 319233.5
2913.662, 319160.0
2915.591, 319318.1
2917.519, 319604.3
2919.448, 319814.1
2921.376, 320012.0
2923.304, 320349.4
2925.233, 320690.1
2927.161, 320973.6
2929.090, 321085.6
2931.018, 320817.2
2932.947, 320540.3
2934.875, 320514.3
2936.804, 320554.4
2938.732, 320522.5
2940.661, 320586.4
2942.589, 320864.5
2944.518, 321083.0
2946.446, 321113.5
2948.375, 321178.4
2950.303, 321369.8
2952.231, 321488.6
2954.160, 321473.1
2956.088, 321684.1
2958.017, 321882.2
2959.945, 322483.1
2961.874, 322413.5
2963.802, 322526.3
2965.731, 322784.6
2967.659, 322623.4
2969.588, 322192.7
2971.516, 322206.1
2973.445, 322533.8
2975.373, 322750.7
2977.302, 322935.1
2979.230, 323247.2
2981.158, 323572.8
2983.087, 323888.8
2985.015, 324029.3
2986.944, 323690.7
2988.872, 323371.7
2990.801, 323414.1
2992.729, 323585.5
2994.658, 323780.2
2996.586, 324051.3
2998.515, 324473.1
3000.443, 324757.2
3002.372, 324825.4
3004.300, 324755.0
3006.229, 324499.3
3008.157, 324363.8
3010.085, 324415.5
3012.014, 324339.7
3013.942, 324157.8
3015.871, 324235.2
3017.799, 324543.3
3019.728, 324836.4
3021.656, 325112.8
3023.585, 325365.6
3025.513, 325613.0
3027.442, 325867.5
3029.370, 326131.6
3031.299, 326363.1
3033.227, 326630.3
3035.156, 327080.0
3037.084, 327421.8
3039.012, 327417.1
3040.941, 327390.8
3042.869, 327580.8
3044.798, 327622.2
3046.726, 327385.7
3048.655, 327317.1
3050.583, 327567.8
3052.512, 327734.1
3054.440, 327777.7
3056.369, 327873.6
3058.297, 328028.9
3060.226, 328253.6
3062.154, 328515.5
3064.083, 328614.4
3066.011, 328647.5
3067.939, 328940.1
3069.868, 329213.4
3071.796, 329044.6
3073.725, 328793.0
3075.653, 328922.4
3077.582, 328961.9
3079.510, 328603.8
3081.439, 328331.1
3083.367, 328426.5
3085.296, 328536.9
3087.224, 328529.5
3089.153, 328638.1
3091.081, 328843.7
3093.010, 329384.5
3094.938, 329528.2
3096.866, 329630.3
3098.795, 330003.4
3100.723, 329736.3
3102.652, 329692.5
3104.580, 329918.5
3106.509, 330246.8
3108.437, 330511.0
3110.366, 330604.4
3112.294, 330364.1
3114.223, 330061.2
3116.151, 329883.3
3118.080, 329676.5
3120.008, 329310.7
3121.937, 329252.1
3123.865, 329667.4
3125.793, 330085.2
3127.722, 330445.3
3129.650, 330627.9
3131.579, 330907.4
3133.507, 330843.8
3135.436, 331136.3
3137.364, 331060.8
3139.293, 330854.0
3141.221, 330985.1
3143.150, 331235.3
3145.078, 331389.7
3147.007, 331551.8
3148.935, 331819.6
3150.864, 331980.3
3152.792, 331900.9
3154.720, 331836.4
3156.649, 331916.2
3158.577, 331810.1
3160.506, 331503.1
3162.434, 331291.6
3164.363, 331201.5
3166.291, 331198.4
3168.220, 331246.3
3170.148, 331157.4
3172.077, 331097.6
3174.005, 331472.8
3175.934, 331793.0
3177.862, 331527.3
3179.791, 331303.5
3181.719, 331402.4
3183.647, 331738.4
3185.576, 331839.2
3187.504, 332826.1
3189.433, 332629.3
3191.361, 333007.8
3193.290, 333831.8
3195.218, 333874.9
3197.147, 333334.1
3199.075, 332953.3
3201.004, 332689.5
3202.932, 332594.9
3204.861, 332490.5
3206.789, 332109.9
3208.718, 331856.5
3210.646, 331810.3
3212.574, 332068.9
3214.503, 332712.2
3216.431, 333097.9
3218.360, 332981.8
3220.288, 333101.0
3222.217, 333392.3
3224.145, 333255.8
3226.074, 332849.8
3228.002, 332481.5
3229.931, 332200.3
3231.859, 332046.4
3233.788, 332018.4
3235.716, 332210.6
3237.645, 332310.4
3239.573, 331992.0
3241.501, 332183.3
3243.430, 333221.7
3245.358, 333648.8
3247.287, 333306.1
3249.215, 333179.8
3251.144, 333205.3
3253.072, 333139.5
3255.001, 333081.8
3256.929, 333273.8
3258.858, 333487.6
3260.786, 333528.5
3262.715, 333544.8
3264.643, 333587.8
3266.572, 333632.0
3268.500, 333666.2
3270.428, 333704.7
3272.357, 333752.0
3274.285, 333660.1
3276.214, 333510.2
3278.142, 333784.9
3280.071, 334194.1
3281.999, 334244.4
3283.928, 334228.1
3285.856, 334503.1
3287.785, 334647.3
3289.713, 334495.5
3291.642, 334322.2
3293.570, 334195.7
3295.499, 334179.9
3297.427, 334118.6
3299.355, 334242.2
3301.284, 334148.4
3303.212, 334200.3
3305.141, 334266.8
3307.069, 334224.4
3308.998, 334089.7
3310.926, 333969.1
3312.855, 333626.3
3314.783, 332903.6
3316.712, 332587.5
3318.640, 332890.4
3320.569, 333149.5
3322.497, 333353.5
3324.426, 333739.6
3326.354, 334083.2
3328.282, 333870.5
3330.211, 333563.3
3332.139, 333695.1
3334.068, 333759.2
3335.996, 333571.2
3337.925, 333307.5
3339.853, 332994.2
3341.782, 332783.7
3343.710, 332706.7
3345.639, 332988.7
3347.567, 333434.3
3349.496, 333555.6
3351.424, 333500.8
3353.353, 333450.8
3355.281, 333243.0
3357.209, 332694.8
3359.138, 332231.8
3361.066, 331972.1
3362.995, 331715.4
3364.923, 331481.6
3366.852, 331480.0
3368.780, 331631.4
3370.709, 331707.3
3372.637, 331747.8
3374.566, 331708.5
3376.494, 331761.7
3378.423, 331997.0
3380.351, 332253.0
3382.280, 332542.9
3384.208, 332614.9
3386.136, 332496.3
3388.065, 332548.0
3389.993, 332681.1
3391.922, 332656.9
3393.850, 332620.3
3395.779, 332780.4
3397.707, 332870.1
3399.636, 332822.6
3401.564, 332613.8
3403.493, 332244.8
3405.421, 331901.0
3407.350, 331640.1
3409.278, 331971.8
3411.207, 332477.3
3413.135, 332403.7
3415.063, 332232.6
3416.992, 332388.0
3418.920, 332456.2
3420.849, 332260.9
3422.777, 332302.1
3424.706, 332661.8
3426.634, 332899.9
3428.563, 332994.9
3430.491, 332764.8
3432.420, 332570.6
3434.348, 333058.2
3436.277, 333438.8
3438.205, 333382.9
3440.134, 333092.5
3442.062, 332539.9
3443.990, 332260.8
3445.919, 332219.3
3447.847, 332036.1
3449.776, 331857.9
3451.704, 332039.5
3453.633, 332243.0
3455.561, 332314.2
3457.490, 332224.0
3459.418, 332140.4
3461.347, 331935.3
3463.275, 331651.3
3465.204, 331344.7
3467.132, 330930.6
3469.061, 330517.7
3470.989, 330261.4
3472.917, 330362.0
3474.846, 330526.4
3476.774, 330628.0
3478.703, 330784.8
3480.631, 330977.9
3482.560, 331049.7
3484.488, 331043.0
3486.417, 331257.1
3488.345, 331374.3
3490.274, 330927.2
3492.202, 330663.1
3494.131, 330911.1
3496.059, 331006.6
3497.988, 330752.3
3499.916, 330901.0
3501.844, 331258.1
3503.773, 331394.3
3505.701, 331432.0
3507.630, 331695.4
3509.558, 331619.4
3511.487, 331427.0
3513.415, 330433.4
3515.344, 330820.3
3517.272, 330742.1
3519.201, 330444.5
3521.129, 330780.7
3523.058, 331172.8
3524.986, 331056.7
3526.915, 330870.7
3528.843, 330649.6
3530.771, 330806.9
3532.700, 330574.5
3534.628, 330592.5
3536.557, 330442.6
3538.485, 330477.8
3540.414, 330351.5
3542.342, 330376.3
3544.271, 330134.6
3546.199, 329950.2
3548.128, 329844.8
3550.056, 329831.0
3551.985, 330059.0
3553.913, 330300.3
3555.842, 330129.3
3557.770, 329842.3
3559.698, 329479.9
3561.627, 329441.3
3563.555, 329814.9
3565.484, 329977.4
3567.412, 329948.8
3569.341, 330101.6
3571.269, 330227.5
3573.198, 330162.0
3575.126, 329885.4
3577.055, 329986.6
3578.983, 329833.8
3580.912, 329857.5
3582.840, 329889.3
3584.769, 329636.0
3586.697, 330055.8
3588.625, 330482.0
3590.554, 330167.1
3592.482, 330127.7
3594.411, 330595.3
3596.339, 330844.2
3598.268, 330836.2
3600.196, 330713.6
3602.125, 330476.2
3604.053, 330034.6
3605.982, 329744.2
3607.910, 329838.1
3609.839, 329818.6
3611.767, 329618.6
3613.696, 329331.0
3615.624, 329071.2
3617.552, 329160.8
3619.481, 329261.7
3621.409, 329122.9
3623.338, 328951.1
3625.266, 328774.5
3627.195, 328806.3
3629.123, 329017.8
3631.052, 329287.6
3632.980, 329554.8
3634.909, 329788.8
3636.837, 329894.5
3638.766, 329881.8
3640.694, 329501.5
3642.623, 328828.5
3644.551, 328479.7
3646.479, 328365.8
3648.408, 328361.9
3650.336, 328501.8
3652.265, 328824.3
3654.193, 329006.6
3656.122, 328986.8
3658.050, 328804.4
3659.979, 328586.8
3661.907, 328569.4
3663.836, 328619.2
3665.764, 328700.8
3667.693, 328732.7
3669.621, 328708.3
3671.550, 328455.2
3673.478, 328593.6
3675.406, 328374.5
3677.335, 328658.6
3679.263, 328732.6
3681.192, 328666.4
3683.120, 328446.3
3685.049, 328243.9
3686.977, 328088.8
3688.906, 328120.0
3690.834, 328113.5
3692.763, 327798.9
3694.691, 327604.3
3696.620, 327613.2
3698.548, 327662.1
3700.477, 327783.5
3702.405, 328354.0
3704.333, 328846.8
3706.262, 328730.6
3708.190, 328438.4
3710.119, 328003.1
3712.047, 328031.3
3713.976, 327770.8
3715.904, 327992.3
3717.833, 327556.5
3719.761, 327531.4
3721.690, 327463.1
3723.618, 327277.0
3725.547, 327007.1
3727.475, 326759.7
3729.404, 327103.0
3731.332, 327390.1
3733.260, 326976.4
3735.189, 326626.7
3737.117, 326485.7
3739.046, 326319.5
3740.974, 326200.2
3742.903, 326497.8
3744.831, 326706.3
3746.760, 326293.7
3748.688, 326085.5
3750.617, 326183.8
3752.545, 326046.2
3754.474, 325799.2
3756.402, 325693.8
3758.331, 325775.1
3760.259, 325812.6
3762.188, 326406.8
3764.116, 326233.1
3766.044, 326561.3
3767.973, 326949.0
3769.901, 326427.8
3771.830, 325983.5
3773.758, 326252.3
3775.687, 326412.3
3777.615, 326447.4
3779.544, 326204.8
3781.472, 325947.9
3783.401, 326091.8
3785.329, 326050.3
3787.258, 325434.8
3789.186, 324921.8
3791.115, 324563.5
3793.043, 324619.5
3794.971, 324798.3
3796.900, 324948.8
3798.828, 324934.7
3800.757, 324701.0
3802.685, 324435.6
3804.614, 324235.5
3806.542, 324275.2
3808.471, 324433.8
3810.399, 324666.8
3812.328, 324700.9
3814.256, 324494.7
3816.185, 324150.4
3818.113, 323860.6
3820.042, 323747.9
3821.970, 323559.2
3823.898, 323597.8
3825.827, 323416.6
3827.755, 323481.0
3829.684, 323511.9
3831.612, 323496.1
3833.541, 323499.8
3835.469, 323471.9
3837.398, 323397.0
3839.326, 323397.5
3841.255, 323249.3
3843.183, 323204.2
3845.112, 323029.2
3847.040, 322791.3
3848.969, 322725.9
3850.897, 322244.9
3852.825, 322231.7
3854.754, 322292.4
3856.682, 321976.5
3858.611, 322022.6
3860.539, 321946.5
3862.468, 321762.4
3864.396, 321860.9
3866.325, 321570.4
3868.253, 321483.1
3870.182, 321569.5
3872.110, 321738.2
3874.039, 322019.7
3875.967, 322611.4
3877.896, 322985.4
3879.824, 322526.8
3881.752, 322244.5
3883.681, 322312.9
3885.609, 322540.8
3887.538, 322807.7
3889.466, 322927.7
3891.395, 322913.8
3893.323, 322679.7
3895.252, 323024.5
3897.180, 322761.2
3899.109, 323212.0
3901.037, 322617.3
3902.966, 322651.9
3904.894, 322825.4
3906.823, 323082.2
3908.751, 323157.7
3910.679, 323229.2
3912.608, 323588.5
3914.536, 323815.9
3916.465, 323739.3
3918.393, 323862.1
3920.322, 324074.2
3922.250, 324194.1
3924.179, 324218.3
3926.107, 324226.7
3928.036, 324046.2
3929.964, 323715.4
3931.893, 323545.8
3933.821, 323448.5
3935.750, 323385.0
3937.678, 323409.9
3939.606, 323514.3
3941.535, 323782.9
3943.463, 324034.6
3945.392, 323990.0
3947.320, 323967.9
3949.249, 323997.7
3951.177, 323909.5
3953.106, 323711.8
3955.034, 323310.6
3956.963, 323044.8
3958.891, 323115.1
3960.820, 323359.9
3962.748, 323668.6
3964.677, 323775.3
3966.605, 323751.7
3968.533, 323587.7
3970.462, 323493.3
3972.390, 323456.2
3974.319, 323453.1
3976.247, 323445.8
3978.176, 323379.3
3980.104, 323245.6
3982.033, 323334.2
3983.961, 323263.2
3985.890, 323498.4
3987.818, 323650.4
3989.747, 323818.3
3991.675, 323984.8
3993.604, 324040.5
3995.532, 323980.9
3997.460, 323856.1
3999.389, 323842.0
4001.317, 323935.3
4003.246, 323942.6
4005.174, 323890.9
4007.103, 323523.1
4009.031, 323215.8
4010.960, 323116.6
4012.888, 323105.1
4014.817, 323223.7
4016.745, 323671.2
4018.674, 323912.4
4020.602, 323591.6
4022.531, 323464.4
4024.459, 323477.8
4026.387, 323601.5
4028.316, 323655.8
4030.244, 323689.3
4032.173, 323736.3
4034.101, 323699.5
4036.030, 323694.3
4037.958, 323575.1
4039.887, 323386.7
4041.815, 323360.3
4043.744, 323308.4
4045.672, 323304.2
4047.601, 323149.9
4049.529, 323374.7
4051.458, 323436.4
4053.386, 323439.1
4055.314, 323330.3
4057.243, 323123.1
4059.171, 323135.2
4061.100, 323212.4
4063.028, 323147.7
4064.957, 323297.3
4066.885, 323385.8
4068.814, 323699.1
4070.742, 323692.4
4072.671, 323984.2
4074.599, 324207.7
4076.528, 323932.9
4078.456, 323375.0
4080.385, 323091.4
4082.313, 323434.1
4084.241, 323410.6
4086.170, 323022.3
4088.098, 323060.4
4090.027, 323095.7
4091.955, 322955.1
4093.884, 322929.8
4095.812, 322942.8
4097.741, 322713.2
4099.669, 322443.1
4101.598, 322110.8
4103.526, 321859.3
4105.455, 322045.4
4107.383, 322146.1
4109.312, 322079.0
4111.240, 322472.1
4113.168, 322977.8
4115.097, 322928.2
4117.025, 322571.3
4118.954, 322252.0
4120.882, 322235.0
4122.811, 322397.6
4124.739, 322341.8
4126.668, 321959.8
4128.596, 321702.7
4130.525, 321797.8
4132.453, 321949.9
4134.382, 321891.2
4136.310, 321706.4
4138.239, 321714.1
4140.167, 321831.1
4142.096, 321888.7
4144.024, 322036.4
4145.953, 322084.5
4147.881, 321865.5
4149.810, 321730.8
4151.738, 321617.1
4153.667, 321556.6
4155.595, 321593.4
4157.523, 321747.5
4159.452, 321525.0
4161.380, 321655.7
4163.309, 321530.5
4165.237, 321698.2
4167.166, 321663.5
4169.094, 321652.3
4171.022, 321554.0
4172.951, 321630.2
4174.879, 321441.0
4176.808, 321377.7
4178.736, 320795.8
4180.665, 321154.5
4182.593, 320963.3
4184.522, 320885.6
4186.450, 321024.5
4188.379, 320828.3
4190.307, 320598.1
4192.236, 320825.7
4194.164, 320816.6
4196.093, 320505.8
4198.021, 320320.1
4199.950, 320108.6
4201.878, 319550.8
4203.807, 319163.2
4205.735, 318994.6
4207.664, 319053.2
4209.592, 319142.1
4211.521, 319143.5
4213.449, 318995.5
4215.377, 318730.9
4217.306, 318513.1
4219.234, 318386.2
4221.163, 318189.7
4223.091, 318013.4
4225.020, 317879.3
4226.948, 317623.3
4228.876, 317412.8
4230.805, 317141.3
4232.733, 317421.1
4234.662, 318005.2
4236.590, 317945.3
4238.519, 317812.7
4240.447, 317826.4
4242.376, 317975.2
4244.304, 318085.6
4246.233, 317705.6
4248.161, 317292.5
4250.090, 316959.2
4252.018, 316859.3
4253.947, 316807.9
4255.875, 316604.3
4257.804, 316211.1
4259.732, 315640.4
4261.661, 315548.4
4263.589, 315480.3
4265.518, 314815.5
4267.446, 314915.1
4269.375, 315713.1
4271.303, 315678.9
4273.231, 315449.6
4275.160, 315379.6
4277.088, 315421.4
4279.017, 315426.2
4280.945, 314777.7
4282.874, 314254.8
4284.802, 314187.5
4286.730, 313780.7
4288.659, 313301.8
4290.587, 313276.7
4292.516, 313311.7
4294.444, 313334.8
4296.373, 313180.2
4298.301, 312876.1
4300.230, 312765.8
4302.158, 312146.3
4304.087, 312353.4
4306.015, 312088.2
4307.944, 311933.1
4309.872, 312296.3
4311.801, 311865.2
4313.729, 311086.3
4315.658, 311284.2
4317.586, 311167.6
4319.515, 310403.9
4321.443, 310125.0
4323.372, 310064.6
4325.300, 309924.5
4327.229, 309666.0
4329.157, 309353.8
4331.085, 309712.7
4333.014, 309870.5
4334.942, 309286.8
4336.871, 308843.5
4338.799, 308537.3
4340.728, 308123.3
4342.656, 307940.6
4344.584, 308067.2
4346.513, 307706.8
4348.441, 307398.1
4350.370, 307351.0
4352.298, 307839.1
4354.227, 307081.2
4356.155, 307150.6
4358.084, 307100.3
4360.012, 306322.1
4361.941, 306029.8
4363.869, 306053.1
4365.798, 306034.6
4367.726, 305875.8
4369.655, 305535.3
4371.583, 305365.8
4373.512, 305248.8
4375.440, 305140.3
4377.369, 304946.2
4379.297, 304652.2
4381.226, 304468.4
4383.154, 304289.3
4385.083, 303955.3
4387.011, 303876.6
4388.939, 303596.6
4390.868, 303168.1
4392.796, 302989.0
4394.725, 303019.7
4396.653, 302729.5
4398.582, 302339.0
4400.510, 301930.0
4402.438, 301698.6
4404.367, 301563.8
4406.295, 301409.3
4408.224, 301248.9
4410.152, 301034.0
4412.081, 300451.9
4414.009, 299915.7
4415.938, 299671.3
4417.866, 299585.8
4419.795, 299526.6
4421.723, 299323.8
4423.652, 298933.9
4425.580, 298906.5
4427.509, 298506.9
4429.437, 298634.7
4431.366, 298305.3
4433.294, 298092.8
4435.223, 297932.2
4437.151, 297731.2
4439.080, 297321.5
4441.008, 296719.5
4442.937, 296737.9
4444.865, 297028.6
4446.793, 297446.1
4448.722, 296982.9
4450.650, 296152.4
4452.579, 296134.6
4454.507, 295787.0
4456.436, 295043.3
4458.364, 294970.7
4460.292, 294989.8
4462.221, 294776.2
4464.149, 294201.9
4466.078, 293668.0
4468.006, 293940.3
4469.935, 294133.5
4471.863, 294065.2
4473.792, 293691.9
4475.720, 293303.1
4477.649, 293088.2
4479.577, 292486.0
4481.506, 291951.8
4483.434, 292104.0
4485.363, 292294.1
4487.291, 292342.0
4489.220, 292004.6
4491.148, 291593.1
4493.077, 291253.4
4495.005, 291052.5
4496.934, 290834.0
4498.862, 290383.8
4500.791, 289936.4
4502.719, 289593.9
4504.647, 289754.3
4506.576, 289668.8
4508.504, 289161.7
4510.433, 288793.4
4512.361, 288621.4
4514.290, 288740.8
4516.218, 288550.9
4518.146, 288194.5
4520.075, 287827.7
4522.003, 287668.1
4523.932, 287646.3
4525.860, 287421.4
4527.789, 287118.6
4529.717, 286777.9
4531.646, 286747.8
4533.574, 286693.8
4535.503, 286298.8
4537.431, 285988.8
4539.360, 285723.0
4541.288, 285204.8
4543.217, 284915.7
4545.145, 284872.8
4547.074, 284928.5
4549.002, 284759.2
4550.931, 284168.5
4552.859, 283817.2
4554.788, 283588.0
4556.716, 283308.1
4558.645, 283334.9
4560.573, 283409.8
4562.501, 282728.4
4564.430, 282078.7
4566.358, 281658.2
4568.287, 281550.8
4570.215, 281668.8
4572.144, 281995.4
4574.072, 281697.2
4576.000, 281252.0
4577.929, 281288.3
4579.857, 280999.5
4581.786, 280474.1
4583.714, 280018.2
4585.643, 279692.2
4587.571, 279494.5
4589.500, 279349.5
4591.428, 279019.5
4593.357, 278430.0
4595.285, 278042.8
4597.214, 277777.5
4599.142, 277492.3
4601.071, 277406.1
4602.999, 277367.2
4604.928, 277108.8
4606.856, 276931.9
4608.785, 276811.1
4610.713, 276429.9
4612.642, 276031.8
4614.570, 275706.8
4616.499, 275574.9
4618.427, 275329.4
4620.355, 274668.2
4622.284, 274483.9
4624.212, 274342.3
4626.141, 273695.5
4628.069, 273542.6
4629.998, 273674.3
4631.926, 273453.3
4633.854, 273430.6
4635.783, 273543.8
4637.711, 273166.8
4639.640, 272669.3
4641.568, 272205.2
4643.497, 272225.3
4645.425, 272071.0
4647.354, 271370.9
4649.282, 271242.1
4651.211, 271351.5
4653.139, 271348.8
4655.068, 271063.3
4656.996, 270575.5
4658.925, 270049.6
4660.853, 269535.1
4662.782, 269126.5
4664.710, 269174.2
4666.639, 269030.9
4668.567, 268570.7
4670.496, 267990.9
4672.424, 267624.2
4674.353, 267678.0
4676.281, 267553.6
4678.209, 267248.1
4680.138, 266721.0
4682.066, 266535.5
4683.995, 266559.5
4685.923, 266750.9
4687.852, 266293.4
4689.780, 265556.8
4691.708, 265544.8
4693.637, 265039.8
4695.565, 264175.0
4697.494, 263975.1
4699.422, 263651.5
4701.351, 263147.2
4703.279, 263144.8
4705.208, 263110.6
4707.136, 262809.7
4709.065, 263135.5
4710.993, 263097.7
4712.922, 262151.8
4714.850, 262063.6
4716.779, 262226.7
4718.707, 262134.5
4720.636, 261644.6
4722.564, 261068.0
4724.493, 260776.0
4726.421, 260705.4
4728.350, 260611.3
4730.278, 259932.9
4732.207, 259680.6
4734.135, 259726.9
4736.063, 259321.9
4737.992, 258989.6
4739.920, 258744.7
4741.849, 257969.1
4743.777, 257440.9
4745.706, 257286.5
4747.634, 256929.2
4749.563, 256580.7
4751.491, 256320.1
4753.419, 256617.4
4755.348, 256591.0
4757.276, 255803.0
4759.205, 255515.3
4761.133, 255368.1
4763.062, 255088.9
4764.990, 254720.8
4766.919, 254294.7
4768.847, 253829.2
4770.776, 253219.8
4772.704, 252749.3
4774.633, 252830.3
4776.561, 252926.6
4778.490, 252886.2
4780.418, 252442.7
4782.347, 252390.0
4784.275, 252518.2
4786.204, 252183.5
4788.132, 251676.0
4790.061, 251179.4
4791.989, 251207.9
4793.917, 251085.8
4795.846, 250761.2
4797.774, 250517.9
4799.703, 250035.5
4801.631, 249395.7
4803.560, 249219.4
4805.488, 249105.7
4807.417, 248905.9
4809.345, 248629.8
4811.273, 248308.3
4813.202, 248005.5
4815.130, 247974.5
4817.059, 247864.5
4818.987, 247517.9
4820.916, 247118.0
4822.844, 247020.0
4824.773, 247284.5
4826.701, 246833.4
4828.630, 246316.5
4830.558, 246141.7
4832.487, 245438.3
4834.415, 244853.7
4836.344, 244708.6
4838.272, 244648.8
4840.201, 244450.5
4842.129, 243967.5
4844.058, 243466.7
4845.986, 243038.4
4847.915, 242720.7
4849.843, 242943.3
4851.771, 243107.5
4853.700, 242743.2
4855.628, 242288.8
4857.557, 241959.6
4859.485, 241923.4
4861.414, 241293.4
4863.342, 240637.5
4865.271, 240469.3
4867.199, 240470.3
4869.127, 240357.0
4871.056, 239891.0
4872.984, 239814.6
4874.913, 239775.5
4876.841, 239396.8
4878.770, 239350.3
4880.698, 239219.3
4882.627, 238620.2
4884.555, 237947.2
4886.484, 237346.3
4888.412, 236924.7
4890.341, 237024.0
4892.269, 237054.3
4894.198, 236422.3
4896.126, 236328.5
4898.055, 236383.3
4899.983, 236264.8
4901.912, 235631.0
4903.840, 235059.8
4905.769, 235096.1
4907.697, 235099.4
4909.625, 234879.2
4911.554, 234313.0
4913.482, 233659.0
4915.411, 233232.1
4917.339, 233303.9
4919.268, 233143.6
4921.196, 232906.5
4923.125, 232669.7
4925.053, 232295.8
4926.981, 231959.9
4928.910, 231775.5
4930.838, 231494.2
4932.767, 231015.3
4934.695, 230332.9
4936.624, 229669.4
4938.552, 229359.1
4940.481, 229460.2
4942.409, 229164.2
4944.338, 228705.3
4946.266, 228224.5
4948.195, 228335.2
4950.123, 228126.9
4952.052, 227487.1
4953.980, 227115.0
4955.909, 226968.0
4957.837, 226891.5
4959.766, 226152.7
4961.694, 225784.7
4963.623, 225779.8
4965.551, 225536.8
4967.479, 225209.1
4969.408, 224830.8
4971.336, 224294.1
4973.265, 224130.9
4975.193, 224158.1
4977.122, 223941.4
4979.050, 223560.3
4980.979, 223192.7
4982.907, 223155.6
4984.835, 222853.7
4986.764, 222435.5
4988.692, 222085.7
4990.621, 221884.5
4992.549, 221725.2
4994.478, 221501.6
4996.406, 221179.8
4998.335, 221006.5
5000.263, 221104.6
5002.192, 220449.5
5004.120, 219589.9
5006.049, 218873.2
5007.977, 219167.7
5009.906, 219097.5
5011.834, 218344.6
5013.763, 218666.5
5015.691, 218452.8
5017.620, 217682.9
5019.548, 217818.5
5021.477, 217571.5
5023.405, 216936.0
5025.333, 216380.1
5027.262, 216421.6
5029.190, 216562.8
5031.119, 215828.7
5033.047, 215364.3
5034.976, 215106.0
5036.904, 214965.0
5038.833, 214493.0
5040.761, 214175.6
5042.689, 214349.3
5044.618, 214074.3
5046.546, 213634.7
5048.475, 213197.2
5050.403, 212568.6
5052.332, 212057.8
5054.260, 211773.1
5056.189, 211760.5
5058.117, 211371.6
5060.046, 210721.2
5061.974, 210531.4
5063.903, 210300.9
5065.831, 210048.8
5067.760, 209999.6
5069.688, 209659.2
5071.617, 209192.3
5073.545, 208835.4
5075.474, 208371.9
5077.402, 208095.8
5079.331, 208297.0
5081.259, 207823.4
5083.188, 207423.5
5085.116, 207361.4
5087.044, 207518.3
5088.973, 207435.6
5090.901, 207104.5
5092.830, 207072.5
5094.758, 206494.2
5096.687, 205766.2
5098.615, 205857.9
5100.543, 205753.5
5102.472, 205498.6
5104.400, 205234.0
5106.329, 204958.5
5108.257, 204731.2
5110.186, 204579.1
5112.114, 204356.0
5114.043, 204145.4
5115.971, 203906.7
5117.900, 203140.5
5119.828, 202643.6
5121.757, 202503.4
5123.685, 202486.1
5125.614, 202648.1
5127.542, 202598.8
5129.471, 201847.9
5131.399, 201504.8
5133.328, 201428.0
5135.256, 201476.5
5137.185, 201030.2
5139.113, 200571.5
5141.042, 200264.9
5142.970, 199849.5
5144.898, 199848.1
5146.827, 200043.4
5148.755, 199764.5
5150.684, 199382.1
5152.612, 199053.7
5154.541, 198925.8
5156.469, 198477.4
5158.397, 198210.5
5160.326, 198300.4
5162.254, 197448.6
5164.183, 197061.6
5166.111, 197232.5
5168.040, 196411.0
5169.968, 195859.4
5171.897, 195736.8
5173.825, 196046.0
5175.754, 195360.1
5177.682, 194886.2
5179.611, 195579.1
5181.539, 195198.4
5183.468, 194758.0
5185.396, 194617.0
5187.325, 194342.7
5189.253, 193936.1
5191.182, 193483.0
5193.110, 193137.4
5195.039, 192780.4
5196.967, 192616.7
5198.896, 192908.9
5200.824, 192493.3
5202.752, 192211.8
5204.681, 192244.9
5206.609, 191615.2
5208.538, 191165.1
5210.466, 190877.5
5212.395, 190322.9
5214.323, 190327.0
5216.251, 190300.0
5218.180, 189679.2
5220.108, 189547.8
5222.037, 189210.6
5223.965, 188590.9
5225.894, 188509.3
5227.822, 188274.7
5229.751, 187978.3
5231.679, 188030.6
5233.608, 187717.5
5235.536, 187361.5
5237.465, 187178.8
5239.393, 186624.4
5241.322, 186346.3
5243.250, 186371.3
5245.179, 186203.8
5247.107, 185995.9
5249.036, 185704.0
5250.964, 185191.8
5252.893, 185015.5
5254.821, 184735.6
5256.750, 184234.3
5258.678, 184289.2
5260.606, 183811.4
5262.535, 183128.3
5264.463, 183344.2
5266.392, 183449.3
5268.320, 183267.8
5270.249, 182733.8
5272.177, 182452.3
5274.105, 182245.7
5276.034, 181984.1
5277.962, 181389.0
5279.891, 180938.3
5281.819, 180751.3
5283.748, 181003.7
5285.676, 180822.6
5287.605, 180400.7
5289.533, 179886.0
5291.462, 179541.0
5293.390, 179104.6
5295.319, 178667.1
5297.247, 178410.3
5299.176, 178002.0
5301.104, 177783.8
5303.033, 177877.2
5304.961, 177872.9
5306.890, 177695.5
5308.818, 177400.9
5310.747, 177096.2
5312.675, 176979.9
5314.604, 176692.0
5316.532, 176048.8
5318.460, 175287.4
5320.389, 175146.3
5322.317, 175291.7
5324.246, 174787.6
5326.174, 174153.2
5328.103, 173792.9
5330.031, 173816.2
5331.959, 173354.7
5333.888, 173000.7
5335.816, 172792.1
5337.745, 172434.6
5339.673, 172388.8
5341.602, 172242.2
5343.530, 171774.6
5345.459, 171694.1
5347.387, 171480.2
5349.316, 171095.6
5351.244, 170670.3
5353.173, 170264.4
5355.101, 169959.6
5357.030, 169784.5
5358.958, 169584.5
5360.887, 169305.0
5362.815, 169003.9
5364.744, 168779.6
5366.672, 168579.3
5368.601, 168401.5
5370.529, 168229.5
5372.458, 167974.1
5374.386, 167722.7
5376.314, 167406.4
5378.243, 166907.6
5380.171, 166371.7
5382.100, 165933.9
5384.028, 165620.1
5385.957, 165266.7
5387.885, 165407.7
5389.813, 165546.8
5391.742, 165144.4
5393.670, 164910.0
5395.599, 164675.8
5397.527, 164386.3
5399.456, 164056.6
5401.384, 163942.6
5403.313, 163741.5
5405.241, 163281.8
5407.170, 162931.4
5409.098, 162552.4
5411.027, 162148.5
5412.955, 161770.5
5414.884, 161385.1
5416.812, 161186.0
5418.741, 161185.9
5420.669, 161168.9
5422.598, 160623.1
5424.526, 159925.2
5426.455, 159485.1
5428.383, 159326.1
5430.312, 159004.0
5432.240, 158594.2
5434.168, 158570.5
5436.097, 158371.9
5438.025, 158007.7
5439.954, 157572.6
5441.882, 157611.3
5443.811, 157498.8
5445.739, 157274.8
5447.667, 157084.8
5449.596, 156243.7
5451.524, 155853.4
5453.453, 155936.1
5455.381, 155800.2
5457.310, 155154.2
5459.238, 154609.5
5461.167, 154476.0
5463.095, 154656.0
5465.024, 154384.0
5466.952, 153854.5
5468.881, 153409.0
5470.809, 153336.8
5472.738, 152980.1
5474.666, 152430.3
5476.595, 152265.2
5478.523, 151994.0
5480.452, 151904.7
5482.380, 151983.6
5484.309, 151604.0
5486.237, 151088.5
5488.166, 150726.0
5490.094, 150666.0
5492.022, 150527.6
5493.951, 150149.7
5495.879, 149778.9
5497.808, 149802.6
5499.736, 149265.4
##END=



