##NAMES=Miassite
##RRUFFID=R070075
##IDEAL CHEMISTRY=Rh_17_S_15_
##LOCALITY=Yukhtochka placer, Tributary of Aldan River, Yakutia, Russia
##OWNER=RRUFF
##SOURCE=Michael Scott
##DESCRIPTION=A mechanical mixture of dark gray metallic polished grains and pale yellow vanadinite embedded in epoxy
##STATUS=The identification of this mineral has been confirmed only by chemical analysis
##URL=https://www.rruff.net/odr/rruff_sample/R070075
##MEASURED CHEMISTRY=(Rh_11.58_Cu_1.47_Ru_1.76_Fe_1.35_Pt_0.35_Ir_0.25_Ni_0.19_Os_0.05_)S_15.00_
##FILETYPE=Raman Processed
##RAMAN WAVELENGTH=785

154.2456, 8185.609
156.1741, 7667.699
158.1026, 7078.771
160.0310, 6414.130
161.9595, 5779.042
163.8880, 5243.653
165.8164, 4786.107
167.7449, 4345.115
169.6734, 3915.631
171.6018, 3552.387
173.5303, 3259.725
175.4588, 3033.022
177.3872, 2909.774
179.3157, 2815.412
181.2442, 2688.910
183.1726, 2537.717
185.1011, 2398.809
187.0296, 2272.371
188.9580, 2157.796
190.8865, 2061.295
192.8150, 1966.585
194.7434, 1862.589
196.6719, 1763.801
198.6004, 1688.974
200.5288, 1628.598
202.4573, 1556.042
204.3858, 1466.512
206.3142, 1390.636
208.2427, 1340.260
210.1712, 1293.078
212.0996, 1243.986
214.0281, 1196.071
215.9566, 1152.994
217.8850, 1113.949
219.8135, 1073.022
221.7420, 1025.905
223.6704, 986.8869
225.5989, 965.1360
227.5274, 941.5110
229.4558, 903.1326
231.3843, 860.4510
233.3128, 827.9272
235.2412, 805.4980
237.1697, 784.7876
239.0982, 762.7177
241.0266, 748.0496
242.9551, 744.7943
244.8836, 741.9456
246.8120, 733.7375
248.7405, 726.3467
250.6690, 727.3507
252.5974, 732.3986
254.5259, 725.7141
256.4544, 705.3495
258.3828, 687.9559
260.3113, 673.2253
262.2398, 660.3113
264.1682, 655.8318
266.0967, 651.6237
268.0252, 634.3924
269.9536, 608.6758
271.8821, 592.5375
273.8106, 586.5455
275.7390, 579.5452
277.6675, 570.6268
279.5960, 562.2855
281.5244, 554.5945
283.4529, 544.5734
285.3814, 529.3749
287.3098, 517.1290
289.2383, 516.3069
291.1668, 522.0442
293.0952, 525.6869
295.0237, 527.8245
296.9522, 536.5818
298.8806, 564.1008
300.8091, 578.6698
302.7376, 562.5760
304.6660, 542.7562
306.5945, 542.5917
308.5230, 548.8201
310.4514, 542.2541
312.3799, 523.4753
314.3084, 506.7258
316.2368, 489.2104
318.1653, 479.6192
320.0938, 483.4072
322.0222, 487.1630
323.9507, 486.7513
325.8792, 482.9820
327.8076, 475.0754
329.7361, 465.7098
331.6646, 465.4737
333.5931, 478.1597
335.5215, 488.6062
337.4500, 493.0939
339.3785, 494.6930
341.3069, 498.3691
343.2354, 498.7299
345.1639, 489.0651
347.0923, 475.9616
349.0208, 466.2057
350.9493, 457.8749
352.8777, 447.7512
354.8062, 438.3944
356.7347, 428.8432
358.6631, 414.2846
360.5916, 403.5474
362.5201, 402.2501
364.4485, 405.2983
366.3770, 415.1486
368.3055, 427.0412
370.2339, 433.7546
372.1624, 437.0538
374.0909, 443.1230
376.0193, 450.1570
377.9478, 450.7593
379.8763, 443.5508
381.8047, 438.1100
383.7332, 429.6119
385.6617, 427.7132
387.5901, 450.1418
389.5186, 469.7555
391.4471, 451.3170
393.3755, 418.6000
395.3040, 417.4190
397.2325, 444.0618
399.1609, 444.3126
401.0894, 398.3876
403.0179, 371.5152
404.9464, 375.8393
406.8748, 381.4081
408.8033, 381.8619
410.7318, 385.9420
412.6602, 397.4900
414.5887, 407.5401
416.5172, 410.7294
418.4456, 410.1224
420.3741, 404.9077
422.3026, 388.1933
424.2310, 376.5161
426.1595, 376.7544
428.0880, 378.5173
430.0164, 379.1864
431.9449, 374.4695
433.8734, 361.3639
435.8018, 351.1738
437.7303, 349.0299
439.6588, 349.4347
441.5872, 347.8171
443.5157, 346.0038
445.4442, 347.4868
447.3726, 357.1043
449.3011, 368.9046
451.2296, 372.7444
453.1580, 371.3291
455.0865, 374.9300
457.0150, 377.6891
458.9434, 374.4993
460.8719, 370.7625
462.8004, 370.8727
464.7288, 368.3633
466.6573, 355.6629
468.5858, 341.4167
470.5142, 336.4460
472.4427, 336.3227
474.3712, 334.9910
476.2996, 340.7950
478.2281, 344.6678
480.1566, 335.7348
482.0850, 331.8104
484.0135, 341.4465
485.9420, 350.5613
487.8704, 352.8955
489.7989, 353.9002
491.7274, 353.4272
493.6558, 349.7437
495.5843, 349.3009
497.5128, 354.7880
499.4412, 354.8560
501.3697, 344.5760
503.2982, 338.8862
505.2266, 342.3783
507.1551, 345.7264
509.0836, 344.2502
511.0120, 340.0188
512.9405, 334.8437
514.8690, 332.6850
516.7974, 333.5724
518.7259, 333.3348
520.6544, 332.0591
522.5828, 335.4362
524.5113, 342.5970
526.4398, 344.9529
528.3682, 345.1578
530.2967, 349.7936
532.2252, 351.8424
534.1536, 346.0260
536.0821, 342.0968
538.0106, 343.8682
539.9390, 342.6810
541.8675, 335.4875
543.7960, 332.4517
545.7244, 341.1346
547.6529, 350.3878
549.5814, 345.9232
551.5098, 334.8063
553.4383, 338.2891
555.3668, 353.0745
557.2952, 357.1565
559.2237, 349.0761
561.1522, 341.4112
563.0806, 334.5983
565.0091, 331.7897
566.9376, 335.0140
568.8660, 338.6681
570.7945, 340.9476
572.7230, 341.3268
574.6514, 341.0872
576.5799, 342.5847
578.5084, 346.8039
580.4368, 347.6419
582.3653, 340.6478
584.2938, 332.0766
586.2222, 330.1064
588.1507, 332.7494
590.0792, 333.5211
592.0076, 331.1337
593.9361, 333.0476
595.8646, 342.7055
597.7930, 343.1558
599.7215, 330.6375
601.6500, 326.4047
603.5784, 336.7354
605.5069, 344.5027
607.4354, 345.0265
609.3638, 343.4616
611.2923, 338.9182
613.2208, 336.0681
615.1492, 337.8966
617.0777, 338.9837
619.0062, 333.7869
620.9346, 329.2674
622.8631, 337.7102
624.7916, 352.6087
626.7200, 354.8884
628.6485, 347.0069
630.5770, 343.1006
632.5054, 343.6919
634.4339, 346.7342
636.3624, 354.0471
638.2908, 356.2236
640.2193, 347.3408
642.1478, 342.0848
644.0762, 344.2529
646.0047, 346.7182
647.9332, 344.9751
649.8616, 346.0734
651.7901, 358.3665
653.7186, 369.2223
655.6470, 367.9764
657.5755, 363.8135
659.5040, 363.9551
661.4324, 364.3280
663.3609, 359.7857
665.2894, 353.1679
667.2178, 351.6169
669.1463, 354.1677
671.0748, 358.1968
673.0032, 365.0958
674.9317, 366.7361
676.8602, 361.3881
678.7886, 358.5080
680.7171, 359.2287
682.6456, 359.5594
684.5740, 358.6435
686.5025, 358.3300
688.4310, 358.9742
690.3594, 360.2790
692.2879, 363.5738
694.2164, 365.3915
696.1448, 363.1997
698.0733, 360.9700
700.0018, 359.3687
701.9303, 358.8655
703.8588, 363.1040
705.7872, 368.6913
707.7157, 370.0137
709.6442, 369.1046
711.5726, 366.6607
713.5011, 361.7762
715.4296, 360.4431
717.3580, 363.8951
719.2865, 369.0447
721.2150, 374.3214
723.1434, 372.7350
725.0719, 362.9751
727.0004, 357.6347
728.9288, 359.9880
730.8573, 362.8127
732.7858, 366.2118
734.7142, 365.0579
736.6427, 351.4987
738.5712, 345.6134
740.4996, 358.8375
742.4281, 370.0566
744.3566, 372.3186
746.2850, 373.9250
748.2135, 373.0682
750.1420, 371.5098
752.0704, 378.9441
753.9989, 385.3134
755.9274, 377.7551
757.8558, 367.6373
759.7843, 361.7932
761.7128, 360.4866
763.6412, 366.7598
765.5697, 373.9693
767.4982, 373.7028
769.4266, 370.4028
771.3551, 372.2911
773.2836, 377.2711
775.2120, 377.4505
777.1405, 372.7439
779.0690, 370.8602
780.9974, 372.7866
782.9259, 371.0146
784.8544, 366.6610
786.7828, 368.8728
788.7113, 376.9559
790.6398, 379.7222
792.5682, 375.6684
794.4967, 368.5468
796.4252, 357.2068
798.3536, 353.2761
800.2821, 362.0481
802.2106, 371.4875
804.1390, 379.9698
806.0675, 384.6434
807.9960, 379.4469
809.9244, 371.0725
811.8529, 367.8420
813.7814, 368.1931
815.7098, 363.7395
817.6383, 363.0413
819.5668, 373.4793
821.4952, 378.0302
823.4237, 371.3201
825.3522, 368.6660
827.2806, 371.5883
829.2091, 370.2042
831.1376, 368.7002
833.0660, 372.2005
834.9945, 374.9548
836.9230, 371.8627
838.8514, 369.8044
840.7799, 376.5158
842.7084, 385.0748
844.6368, 392.3646
846.5653, 391.2668
848.4938, 378.4036
850.4222, 369.4470
852.3507, 365.6164
854.2792, 359.8744
856.2076, 352.8387
858.1361, 350.5584
860.0646, 357.7026
861.9930, 368.1297
863.9215, 377.0601
865.8500, 384.5758
867.7784, 387.4085
869.7069, 381.0963
871.6354, 373.8448
873.5638, 377.0543
875.4923, 382.9516
877.4208, 384.6518
879.3492, 388.5901
881.2777, 388.2376
883.2062, 376.2525
885.1346, 370.1380
887.0631, 376.1953
888.9916, 380.2648
890.9200, 378.8124
892.8485, 381.9956
894.7770, 396.4422
896.7054, 406.9998
898.6339, 402.1968
900.5624, 395.4330
902.4908, 399.4676
904.4193, 406.3918
906.3478, 401.2619
908.2762, 389.6578
910.2047, 389.9300
912.1332, 400.6205
914.0616, 410.0606
915.9901, 409.3423
917.9186, 390.9426
919.8470, 371.7276
921.7755, 372.8933
923.7040, 385.7528
925.6324, 395.4875
927.5609, 398.6149
929.4894, 396.7825
931.4178, 394.4954
933.3463, 393.7676
935.2748, 395.9330
937.2032, 402.1918
939.1317, 407.3224
941.0602, 405.6390
942.9886, 400.9356
944.9171, 402.0042
946.8456, 405.6877
948.7740, 403.5882
950.7025, 398.2906
952.6310, 394.3369
954.5594, 394.9677
956.4879, 399.8590
958.4164, 404.5131
960.3448, 409.1795
962.2733, 412.0317
964.2018, 411.7058
966.1302, 411.1868
968.0587, 409.1487
969.9872, 406.3350
971.9156, 407.2256
973.8441, 408.6641
975.7726, 401.9418
977.7010, 392.8564
979.6295, 394.9754
981.5580, 405.4970
983.4865, 416.2498
985.4149, 422.1198
987.3434, 420.4780
989.2719, 414.4874
991.2003, 410.5803
993.1288, 413.7556
995.0573, 415.6944
996.9857, 411.9947
998.9142, 411.1893
1000.843, 413.1561
1002.771, 414.0051
1004.700, 412.5809
1006.628, 407.4231
1008.557, 401.4252
1010.485, 398.4439
1012.413, 402.3805
1014.342, 416.9933
1016.270, 428.6840
1018.199, 424.2589
1020.127, 416.4100
1022.056, 417.0688
1023.984, 423.3555
1025.913, 428.5426
1027.841, 428.5649
1029.770, 421.5294
1031.698, 417.7226
1033.627, 427.1464
1035.555, 433.6829
1037.484, 430.9737
1039.412, 432.8420
1041.340, 438.2776
1043.269, 436.4737
1045.197, 430.6284
1047.126, 427.9598
1049.054, 425.5244
1050.983, 423.0585
1052.911, 423.2159
1054.840, 429.7955
1056.768, 441.7457
1058.697, 443.9966
1060.625, 436.2577
1062.554, 437.2151
1064.482, 450.3005
1066.411, 456.6551
1068.339, 449.2507
1070.267, 439.2162
1072.196, 428.9606
1074.124, 425.5794
1076.053, 431.7721
1077.981, 440.7610
1079.910, 453.2768
1081.838, 460.1087
1083.767, 457.8239
1085.695, 461.4856
1087.624, 474.3742
1089.552, 473.7929
1091.481, 455.2838
1093.409, 443.5035
1095.338, 442.3914
1097.266, 444.9193
1099.194, 450.6050
1101.123, 455.1068
1103.051, 454.6191
1104.980, 444.3550
1106.908, 432.6618
1108.837, 434.1657
1110.765, 440.7323
1112.694, 447.1411
1114.622, 453.6250
1116.551, 450.3859
1118.479, 445.3788
1120.408, 455.7439
1122.336, 464.8773
1124.265, 451.8146
1126.193, 437.0001
1128.121, 434.3665
1130.050, 435.3125
1131.978, 439.7053
1133.907, 444.4617
1135.835, 443.1217
1137.764, 442.3768
1139.692, 448.7166
1141.621, 456.0784
1143.549, 465.3013
1145.478, 465.7285
1147.406, 448.4040
1149.335, 438.3212
1151.263, 442.7072
1153.192, 444.5346
1155.120, 437.1198
1157.048, 442.9756
1158.977, 468.4152
1160.905, 475.4336
1162.834, 463.7686
1164.762, 456.5083
1166.691, 451.3728
1168.619, 454.7162
1170.548, 465.5299
1172.476, 464.4637
1174.405, 456.8305
1176.333, 461.4738
1178.262, 470.6590
1180.190, 472.1071
1182.119, 469.9702
1184.047, 468.4695
1185.975, 465.0921
1187.904, 451.0370
1189.832, 444.5145
1191.761, 462.2916
1193.689, 477.6802
1195.618, 479.6912
1197.546, 476.2454
1199.475, 465.9938
1201.403, 467.1515
1203.332, 486.6346
1205.260, 494.4955
1207.189, 485.7569
1209.117, 482.3222
1211.046, 485.7579
1212.974, 484.9151
1214.902, 480.0290
1216.831, 476.1184
1218.759, 473.2288
1220.688, 471.3512
1222.616, 470.9806
1224.545, 475.5414
1226.473, 479.8461
1228.402, 472.8504
1230.330, 467.0481
1232.259, 478.4913
1234.187, 488.7978
1236.116, 485.1489
1238.044, 479.7746
1239.973, 471.9501
1241.901, 474.7645
1243.829, 498.5775
1245.758, 506.5366
1247.686, 489.8229
1249.615, 486.4869
1251.543, 498.9325
1253.472, 501.6605
1255.400, 496.2803
1257.329, 494.5606
1259.257, 495.7617
1261.186, 498.7598
1263.114, 502.2206
1265.043, 504.8985
1266.971, 507.2976
1268.900, 510.3398
1270.828, 513.0660
1272.756, 514.1426
1274.685, 514.5981
1276.613, 517.4590
1278.542, 516.9739
1280.470, 506.4724
1282.399, 499.8568
1284.327, 499.3303
1286.256, 504.0993
1288.184, 513.0714
1290.113, 518.4019
1292.041, 521.2730
1293.970, 519.3786
1295.898, 514.5270
1297.827, 510.8228
1299.755, 510.8850
1301.683, 520.2215
1303.612, 530.7980
1305.540, 535.7902
1307.469, 537.9821
1309.397, 543.0181
1311.326, 539.4169
1313.254, 519.3953
1315.183, 504.3559
1317.111, 495.4286
1319.040, 498.8041
1320.968, 514.2309
1322.897, 530.3921
1324.825, 544.9191
1326.754, 540.7499
1328.682, 528.3018
1330.610, 529.1346
1332.539, 535.0693
1334.467, 538.0742
1336.396, 537.8047
1338.324, 533.2820
1340.253, 531.3016
1342.181, 533.4736
1344.110, 537.6537
1346.038, 544.5666
1347.967, 553.8630
1349.895, 562.8430
1351.824, 551.9714
1353.752, 530.4977
1355.681, 527.8473
1357.609, 532.6076
1359.537, 521.8954
1361.466, 511.8788
1363.394, 524.6140
1365.323, 533.3324
1367.251, 521.4606
1369.180, 518.0015
1371.108, 531.8132
1373.037, 537.2032
1374.965, 530.9976
1376.894, 527.4413
1378.822, 527.2160
1380.751, 529.1716
1382.679, 531.4014
1384.608, 528.8184
1386.536, 524.6796
1388.464, 522.7437
1390.393, 520.5677
1392.321, 514.7028
1394.250, 513.4175
1396.178, 520.0864
1398.107, 524.5539
1400.035, 525.9627
1401.964, 520.1750
1403.892, 511.0749
1405.821, 522.5197
1407.749, 539.5417
1409.678, 534.1303
1411.606, 521.5182
1413.535, 510.7195
1415.463, 506.4078
1417.391, 514.9125
1419.320, 522.6801
1421.248, 530.2473
1423.177, 524.8318
1425.105, 505.5778
1427.034, 505.3616
1428.962, 517.3024
1430.891, 513.7470
1432.819, 507.0656
1434.748, 515.4844
1436.676, 523.2954
1438.605, 520.1337
1440.533, 513.7977
1442.462, 504.0569
1444.390, 498.8877
1446.319, 499.0164
1448.247, 505.3355
1450.176, 515.9065
1452.104, 518.1072
1454.032, 516.2476
1455.961, 517.1478
1457.889, 518.6581
1459.818, 521.4333
1461.746, 518.7153
1463.675, 505.2983
1465.603, 498.2743
1467.532, 501.9429
1469.460, 494.7506
1471.389, 480.1240
1473.317, 480.5755
1475.246, 490.2021
1477.174, 503.1974
1479.103, 513.9465
1481.031, 519.7560
1482.959, 519.4978
1484.888, 511.9167
1486.816, 502.0392
1488.745, 490.6197
1490.673, 488.2763
1492.602, 493.1139
1494.530, 496.7654
1496.459, 503.3951
1498.387, 524.9034
1500.316, 541.8849
1502.244, 544.0967
1504.173, 536.1758
1506.101, 517.0378
1508.030, 506.7800
1509.958, 507.1377
1511.886, 521.3049
1513.815, 537.2753
1515.743, 526.0616
1517.672, 508.9047
1519.600, 503.6929
1521.529, 502.2924
1523.457, 502.2891
1525.386, 505.6825
1527.314, 512.4786
1529.243, 504.1568
1531.171, 487.9074
1533.100, 488.8318
1535.028, 497.9750
1536.957, 509.7327
1538.885, 517.0516
1540.813, 516.2711
1542.742, 508.0602
1544.670, 489.6917
1546.599, 494.2101
1548.527, 513.8984
1550.456, 502.8592
1552.384, 481.4313
1554.313, 472.5159
1556.241, 473.2729
1558.170, 487.7858
1560.098, 499.8568
1562.027, 508.4102
1563.955, 504.0975
1565.884, 489.5550
1567.812, 485.6057
1569.740, 487.9648
1571.669, 496.5280
1573.597, 497.0815
1575.526, 473.6802
1577.454, 461.5762
1579.383, 473.8987
1581.311, 473.6963
1583.240, 464.5580
1585.168, 470.4601
1587.097, 481.6169
1589.025, 487.8401
1590.954, 487.8696
1592.882, 477.3736
1594.811, 474.6053
1596.739, 484.1629
1598.667, 492.3352
1600.596, 498.9878
1602.524, 505.6924
1604.453, 509.5741
1606.381, 506.0697
1608.310, 501.6703
1610.238, 498.5506
1612.167, 493.8246
1614.095, 487.3645
1616.024, 486.0314
1617.952, 488.3090
1619.881, 493.9307
1621.809, 496.2719
1623.738, 488.2599
1625.666, 481.2632
1627.594, 477.5798
1629.523, 476.8747
1631.451, 478.5231
1633.380, 480.5602
1635.308, 481.2271
1637.237, 474.3889
1639.165, 472.8852
1641.094, 485.5049
1643.022, 487.9131
1644.951, 478.3732
1646.879, 472.2436
1648.808, 470.8765
1650.736, 480.0013
1652.665, 487.0523
1654.593, 479.2406
1656.521, 474.3657
1658.450, 475.9009
1660.378, 473.5587
1662.307, 467.9536
1664.235, 460.0218
1666.164, 456.2955
1668.092, 470.5939
1670.021, 476.7959
1671.949, 461.4562
1673.878, 455.0846
1675.806, 456.1264
1677.735, 437.1104
1679.663, 419.4190
1681.592, 440.4948
1683.520, 455.0599
1685.448, 436.5620
1687.377, 415.3214
1689.305, 393.3795
1691.234, 417.2318
1693.162, 456.1501
1695.091, 461.1064
1697.019, 452.1074
1698.948, 428.7973
1700.876, 428.0192
1702.805, 455.7331
1704.733, 462.4760
1706.662, 456.0279
1708.590, 449.0100
1710.519, 443.1613
1712.447, 440.5805
1714.375, 433.3387
1716.304, 418.9731
1718.232, 429.4480
1720.161, 449.8925
1722.089, 442.5866
1724.018, 438.3185
1725.946, 457.9696
1727.875, 462.1351
1729.803, 443.2943
1731.732, 437.0381
1733.660, 437.9500
1735.589, 436.3268
1737.517, 431.4315
1739.446, 420.2673
1741.374, 419.5015
1743.302, 431.2141
1745.231, 446.7303
1747.159, 458.4830
1749.088, 451.1365
1751.016, 438.2193
1752.945, 423.1036
1754.873, 419.5811
1756.802, 427.0776
1758.730, 428.0081
1760.659, 425.1333
1762.587, 421.2026
1764.516, 418.2854
1766.444, 417.5453
1768.373, 412.9997
1770.301, 406.4392
1772.229, 410.1115
1774.158, 414.6316
1776.086, 406.9969
1778.015, 403.8911
1779.943, 409.1231
1781.872, 420.3490
1783.800, 430.2484
1785.729, 411.1695
1787.657, 397.6487
1789.586, 429.5186
1791.514, 438.1325
1793.443, 415.7942
1795.371, 396.2980
1797.300, 385.8026
1799.228, 398.6237
1801.156, 408.7064
1803.085, 399.7845
1805.013, 394.4257
1806.942, 392.9633
1808.870, 392.0862
1810.799, 391.4321
1812.727, 389.3079
1814.656, 390.9897
1816.584, 399.7924
1818.513, 399.9382
1820.441, 395.2942
1822.370, 397.4947
1824.298, 395.4790
1826.227, 379.1422
1828.155, 377.1380
1830.083, 390.2279
1832.012, 401.6853
1833.940, 409.0269
1835.869, 408.3620
1837.797, 405.3157
1839.726, 400.9944
1841.654, 406.9156
1843.583, 414.1932
1845.511, 392.3896
1847.440, 378.2026
1849.368, 392.1430
1851.297, 391.2277
1853.225, 374.9952
1855.154, 385.5265
1857.082, 396.5369
1859.010, 375.0352
1860.939, 363.6648
1862.867, 370.3659
1864.796, 386.1941
1866.724, 399.4988
1868.653, 389.9857
1870.581, 372.2990
1872.510, 349.8242
1874.438, 348.1312
1876.367, 359.5575
1878.295, 353.8348
1880.224, 350.4294
1882.152, 366.1818
1884.081, 374.3380
1886.009, 373.5296
1887.938, 359.9094
1889.866, 347.0742
1891.794, 356.1201
1893.723, 359.0575
1895.651, 352.0198
1897.580, 350.8490
1899.508, 353.2379
1901.437, 358.6402
1903.365, 360.1539
1905.294, 355.6952
1907.222, 353.7281
1909.151, 352.6759
1911.079, 353.4300
1913.008, 355.2157
1914.936, 359.8661
1916.865, 355.1285
1918.793, 342.6877
1920.721, 327.7101
1922.650, 325.6481
1924.578, 359.6068
1926.507, 360.6932
1928.435, 330.2932
1930.364, 327.7411
1932.292, 332.9791
1934.221, 321.3775
1936.149, 319.2863
1938.078, 333.5826
1940.006, 338.0325
1941.935, 334.7264
1943.863, 323.9245
1945.792, 318.3323
1947.720, 320.6763
1949.648, 334.0452
1951.577, 344.3282
1953.505, 328.9260
1955.434, 320.6046
1957.362, 326.0736
1959.291, 317.1909
1961.219, 304.8584
1963.148, 308.3067
1965.076, 307.4242
1967.005, 299.3086
1968.933, 314.0283
1970.862, 331.7778
1972.790, 317.6651
1974.719, 309.5894
1976.647, 316.7033
1978.575, 325.2846
1980.504, 330.6144
1982.432, 333.8946
1984.361, 329.4633
1986.289, 310.9568
1988.218, 298.1146
1990.146, 293.5233
1992.075, 296.5619
1994.003, 293.6790
1995.932, 283.8170
1997.860, 298.2272
1999.789, 314.5494
2001.717, 294.7023
2003.646, 290.3430
2005.574, 308.8936
2007.502, 316.8205
2009.431, 316.3428
2011.359, 302.5466
2013.288, 293.5307
2015.216, 296.7728
2017.145, 298.9059
2019.073, 296.4331
2021.002, 292.6189
2022.930, 292.5346
2024.859, 297.0675
2026.787, 292.3494
2028.716, 282.2090
2030.644, 271.6463
2032.573, 271.3860
2034.501, 278.1211
2036.429, 278.0111
2038.358, 279.2899
2040.286, 286.2350
2042.215, 291.1932
2044.143, 294.4578
2046.072, 281.3255
2048.000, 270.3415
2049.929, 275.4164
2051.857, 274.4004
2053.786, 272.0323
2055.714, 280.7553
2057.643, 279.6205
2059.571, 261.3762
2061.500, 263.1024
2063.428, 274.2858
2065.356, 260.4269
2067.285, 251.3739
2069.213, 257.4953
2071.142, 274.3849
2073.070, 283.9451
2074.999, 260.7975
2076.927, 244.7224
2078.856, 239.9676
2080.784, 256.1833
2082.713, 265.4175
2084.641, 241.0057
2086.570, 236.9725
2088.498, 247.5450
2090.427, 245.7481
2092.355, 243.1734
2094.283, 244.2715
2096.212, 238.7822
2098.140, 232.7900
2100.069, 243.1638
2101.997, 241.2325
2103.926, 227.3105
2105.854, 239.9708
2107.783, 254.0233
2109.711, 248.3473
2111.640, 253.6511
2113.568, 263.1094
2115.497, 257.0352
2117.425, 249.3178
2119.354, 236.8025
2121.282, 240.6428
2123.210, 252.6579
2125.139, 256.8076
2127.067, 248.0755
2128.996, 226.4782
2130.924, 230.9990
2132.853, 241.0472
2134.781, 241.1534
2136.710, 243.1276
2138.638, 246.3008
2140.567, 247.3504
2142.495, 246.7364
2144.424, 243.9211
2146.352, 231.3150
2148.281, 220.9754
2150.209, 231.4299
2152.137, 241.1440
2154.066, 246.1267
2155.994, 231.9370
2157.923, 219.1870
2159.851, 220.1385
2161.780, 225.3014
2163.708, 230.6735
2165.637, 226.9252
2167.565, 226.9676
2169.494, 232.8633
2171.422, 223.5793
2173.351, 211.0689
2175.279, 204.2122
2177.208, 205.3183
2179.136, 211.6975
2181.064, 218.7335
2182.993, 220.6735
2184.921, 215.6726
2186.850, 211.5982
2188.778, 211.8000
2190.707, 222.4139
2192.635, 218.2775
2194.564, 205.2060
2196.492, 208.4258
2198.421, 205.0931
2200.349, 190.0679
2202.278, 195.6004
2204.206, 206.0952
2206.135, 207.8287
2208.063, 203.9786
2209.991, 197.9136
2211.920, 190.3273
2213.848, 187.5404
2215.777, 194.2926
2217.705, 190.2639
2219.634, 182.4111
2221.562, 177.6916
2223.491, 192.0947
2225.419, 210.6244
2227.348, 201.3094
2229.276, 197.6917
2231.205, 205.3493
2233.133, 193.9586
2235.062, 184.8773
2236.990, 184.4037
2238.918, 189.0877
2240.847, 197.4073
2242.775, 195.7543
2244.704, 192.7386
2246.632, 192.1422
2248.561, 198.9419
2250.489, 201.6122
2252.418, 192.6011
2254.346, 190.2943
2256.275, 189.3392
2258.203, 182.4334
2260.132, 183.0531
2262.060, 192.9825
2263.989, 187.4898
2265.917, 181.8143
2267.845, 191.7373
2269.774, 183.0246
2271.702, 173.4592
2273.631, 177.7851
2275.559, 187.2124
2277.488, 193.4505
2279.416, 178.1606
2281.345, 169.4564
2283.273, 166.1629
2285.202, 178.4685
2287.130, 177.8821
2289.059, 152.3550
2290.987, 165.4470
2292.916, 181.9989
2294.844, 166.0540
2296.772, 151.4885
2298.701, 147.1620
2300.629, 165.1144
2302.558, 174.4815
2304.486, 168.5044
2306.415, 153.2696
2308.343, 152.3836
2310.272, 168.4304
2312.200, 160.7809
2314.129, 152.6762
2316.057, 161.9567
2317.986, 155.9068
2319.914, 148.7651
2321.843, 161.0206
2323.771, 170.8840
2325.699, 175.2305
2327.628, 173.9492
2329.556, 160.1088
2331.485, 145.8552
2333.413, 160.4782
2335.342, 170.4842
2337.270, 158.0280
2339.199, 151.6818
2341.127, 154.7722
2343.056, 162.4859
2344.984, 158.0247
2346.913, 146.7625
2348.841, 141.2942
2350.770, 141.4434
2352.698, 146.2879
2354.626, 141.3497
2356.555, 145.3523
2358.483, 157.6297
2360.412, 147.7680
2362.340, 137.0911
2364.269, 130.9785
2366.197, 128.4635
2368.126, 135.4245
2370.054, 141.7454
2371.983, 133.7366
2373.911, 130.9398
2375.840, 130.8766
2377.768, 133.0748
2379.697, 137.6936
2381.625, 133.3489
2383.553, 133.9816
2385.482, 131.9536
2387.410, 119.6719
2389.339, 118.3341
2391.267, 129.7202
2393.196, 112.9893
2395.124, 114.7195
2397.053, 138.2257
2398.981, 127.6458
2400.910, 115.9529
2402.838, 126.5894
2404.767, 124.6286
2406.695, 125.6925
2408.624, 133.3493
2410.552, 136.5696
2412.480, 129.3975
2414.409, 104.6874
2416.337, 113.2306
2418.266, 125.7436
2420.194, 118.8233
2422.123, 113.6467
2424.051, 113.9372
2425.980, 123.2575
2427.908, 124.1373
2429.837, 116.9847
2431.765, 113.9605
2433.694, 113.1910
2435.622, 109.6174
2437.551, 111.8083
2439.479, 111.6470
2441.407, 104.3367
2443.336, 108.1243
2445.264, 110.4414
2447.193, 102.9770
2449.121, 106.0044
2451.050, 109.5166
2452.978, 104.6578
2454.907, 106.4202
2456.835, 106.6627
2458.764, 100.9808
2460.692, 97.74284
2462.621, 103.0253
2464.549, 107.2590
2466.478, 108.6167
2468.406, 108.9696
2470.334, 106.3464
2472.263, 112.1404
2474.191, 112.2405
2476.120, 106.1334
2478.048, 92.56451
2479.977, 80.93237
2481.905, 97.19757
2483.834, 105.3828
2485.762, 103.7803
2487.691, 107.7310
2489.619, 105.5255
2491.548, 98.64509
2493.476, 89.20578
2495.405, 96.60728
2497.333, 111.3968
2499.261, 93.53248
2501.190, 91.94356
2503.118, 102.1448
2505.047, 91.72904
2506.975, 89.43704
2508.904, 95.79671
2510.832, 95.62158
2512.761, 96.51852
2514.689, 96.71938
2516.618, 87.26519
2518.546, 82.94125
2520.475, 83.26976
2522.403, 86.15215
2524.332, 91.28561
2526.260, 95.65293
2528.188, 99.77447
2530.117, 95.08125
2532.045, 83.14885
2533.974, 82.31219
2535.902, 86.24393
2537.831, 92.91142
2539.759, 100.3669
2541.688, 101.5416
2543.616, 95.99859
2545.545, 85.16362
2547.473, 84.09205
2549.402, 92.04335
2551.330, 91.84607
2553.259, 91.41327
2555.187, 91.19480
2557.115, 85.33759
2559.044, 77.92619
2560.972, 72.56406
2562.901, 74.15826
2564.829, 82.09458
2566.758, 90.29971
2568.686, 83.25920
2570.615, 69.92835
2572.543, 58.36910
2574.472, 62.38305
2576.400, 77.46022
2578.329, 91.00538
2580.257, 63.23887
2582.186, 65.64635
2584.114, 87.90466
2586.042, 91.45163
2587.971, 81.80231
2589.899, 70.83819
2591.828, 73.54779
2593.756, 80.99875
2595.685, 86.66174
2597.613, 82.15952
2599.542, 76.28821
2601.470, 72.08156
2603.399, 73.84152
2605.327, 73.42865
2607.256, 70.50669
2609.184, 73.29894
2611.113, 74.35242
2613.041, 70.89764
2614.969, 73.46686
2616.898, 74.21697
2618.826, 73.98859
2620.755, 68.72232
2622.683, 72.28069
2624.612, 69.98810
2626.540, 55.23544
2628.469, 57.96175
2630.397, 67.91200
2632.326, 77.42497
2634.254, 73.81870
2636.183, 68.00214
2638.111, 65.33238
2640.040, 58.42473
2641.968, 57.97614
2643.896, 59.69511
2645.825, 53.22969
2647.753, 47.91271
2649.682, 47.14614
2651.610, 64.27961
2653.539, 55.16035
2655.467, 44.06403
2657.396, 67.65263
2659.324, 62.95411
2661.253, 45.63349
2663.181, 65.53327
2665.110, 79.58092
2667.038, 63.44504
2668.967, 57.37611
2670.895, 44.68976
2672.823, 44.12658
2674.752, 57.04170
2676.680, 54.94489
2678.609, 58.57428
2680.537, 59.48538
2682.466, 66.24950
2684.394, 69.95966
2686.323, 64.04153
2688.251, 51.04986
2690.180, 58.52732
2692.108, 60.54187
2694.037, 57.96571
2695.965, 55.12030
2697.894, 54.90944
2699.822, 57.26675
2701.750, 52.83524
2703.679, 53.24340
2705.607, 55.90003
2707.536, 57.37151
2709.464, 57.39908
2711.393, 58.83022
2713.321, 54.62617
2715.250, 51.04683
2717.178, 47.04104
2719.107, 42.03262
2721.035, 50.68162
2722.964, 48.53559
2724.892, 40.56573
2726.821, 48.14415
2728.749, 39.85812
2730.677, 44.93967
2732.606, 48.39648
2734.534, 59.31485
2736.463, 63.50187
2738.391, 49.28025
2740.320, 35.01601
2742.248, 39.72323
2744.177, 57.96179
2746.105, 49.45285
2748.034, 36.96035
2749.962, 49.07445
2751.891, 40.67898
2753.819, 37.25089
2755.748, 44.41702
2757.676, 43.36908
2759.604, 28.35169
2761.533, 33.89094
2763.461, 48.80669
2765.390, 55.87240
2767.318, 47.53458
2769.247, 45.96662
2771.175, 51.38123
2773.104, 42.69501
2775.032, 39.68243
2776.961, 40.46029
2778.889, 45.53279
2780.818, 40.17036
2782.746, 40.73074
2784.675, 49.71542
2786.603, 44.01082
2788.531, 44.27896
2790.460, 48.34750
2792.388, 36.70064
2794.317, 43.13065
2796.245, 51.56797
2798.174, 59.17568
2800.102, 53.16309
2802.031, 30.80042
2803.959, 36.76027
2805.888, 48.60646
2807.816, 50.93633
2809.745, 47.73120
2811.673, 45.14107
2813.602, 34.87608
2815.530, 24.70483
2817.458, 31.18352
2819.387, 44.43963
2821.315, 42.89902
2823.244, 36.67134
2825.172, 37.16364
2827.101, 34.03189
2829.029, 38.39679
2830.958, 45.32150
2832.886, 39.48442
2834.815, 28.72039
2836.743, 33.46566
2838.672, 27.38549
2840.600, 27.25394
2842.529, 39.26095
2844.457, 46.18559
2846.385, 50.22314
2848.314, 37.79904
2850.242, 27.41604
2852.171, 28.14211
2854.099, 33.43658
2856.028, 40.24374
2857.956, 36.43511
2859.885, 33.26789
2861.813, 43.54428
2863.742, 50.82114
2865.670, 42.02341
2867.599, 36.88386
2869.527, 40.50116
2871.456, 52.44533
2873.384, 52.30283
2875.313, 35.90136
2877.241, 13.80094
2879.169, 18.91206
2881.098, 34.08316
2883.026, 43.10008
2884.955, 26.75656
2886.883, 19.61679
2888.812, 35.29054
2890.740, 39.23429
2892.669, 34.13785
2894.597, 26.94813
2896.526, 19.41526
2898.454, 27.59180
2900.383, 32.36133
2902.311, 32.52583
2904.240, 28.82089
2906.168, 29.68996
2908.096, 28.89896
2910.025, 23.51801
2911.953, 25.33505
2913.882, 19.75158
2915.810, 14.95471
2917.739, 29.01236
2919.667, 26.18034
2921.596, 20.40252
2923.524, 19.58760
2925.453, 35.07259
2927.381, 40.99562
2929.310, 32.27216
2931.238, 5.311521
2933.167, 10.42120
2935.095, 21.51913
2937.024, 23.04524
2938.952, 28.86677
2940.881, 33.90410
2942.809, 37.49051
2944.738, 35.36787
2946.666, 43.32570
2948.594, 41.49598
2950.523, 30.07930
2952.451, 37.97692
2954.380, 35.38911
2956.308, 29.08641
2958.237, 28.41718
2960.165, 20.42039
2962.094, 18.33262
2964.022, 23.80114
2965.951, 35.37948
2967.879, 36.33190
2969.808, 37.00795
2971.736, 40.46099
2973.665, 36.83482
2975.593, 21.73131
2977.521, 18.59506
2979.450, 48.47505
2981.378, 30.79093
2983.307, 17.26980
2985.235, 15.64364
2987.164, 11.53695
2989.092, 4.563070
2991.021, 6.185229
2992.949, 18.09765
2994.878, 19.80267
2996.806, 27.58366
2998.735, 25.43643
3000.663, 0.7048118
3002.592, 5.300556
3004.520, 11.10941
3006.448, 2.360324
3008.377, -32.92284
3010.305, 1.294033
3012.234, 28.28621
3014.162, 20.43156
3016.091, 2.135544
3018.019, 11.48364
3019.948, 24.61715
3021.876, 26.82201
3023.805, 14.43899
3025.733, 13.62520
3027.662, 15.49699
3029.590, 8.109569
3031.519, 18.02642
3033.447, 21.17205
3035.375, 18.15970
3037.304, 26.63263
3039.232, 28.76562
3041.161, 29.91437
3043.089, 29.16134
3045.018, 22.62020
3046.946, 13.78581
3048.875, 11.91733
3050.803, 24.28279
3052.732, 40.80275
3054.660, 41.64896
3056.589, 33.86165
3058.517, 22.88923
3060.446, 15.26734
3062.374, 24.43780
3064.302, 29.53963
3066.231, 28.43754
3068.159, 15.33132
3070.088, 0.9800317
3072.016, 5.723258
3073.945, 26.41800
3075.873, 16.08025
3077.802, 16.61085
3079.730, 24.79646
3081.659, 33.58134
3083.587, 15.65131
3085.516, 3.055635
3087.444, 15.01838
3089.373, 11.69225
3091.301, 9.445704
3093.229, 13.51206
3095.158, 26.01641
3097.086, 22.81347
3099.015, 17.71194
3100.943, 15.60430
3102.872, 16.62697
3104.800, 5.078305
3106.729, 12.86041
3108.657, 15.48624
3110.586, 7.710681
3112.514, 17.89894
3114.443, 7.682720
3116.371, 4.464687
3118.300, 8.289083
3120.228, 24.41464
3122.156, 29.77383
3124.085, 23.37092
3126.013, 9.587031
3127.942, 32.21967
3129.870, 31.33060
3131.799, 23.51163
3133.727, 26.49249
3135.656, 7.685104
3137.584, 12.50040
3139.513, 28.66645
3141.441, 19.75222
3143.370, 19.89908
3145.298, 28.30474
3147.227, 28.78955
3149.155, 25.40522
3151.083, 7.711129
3153.012, 5.705182
3154.940, 9.119234
3156.869, 1.594400
3158.797, 4.460799
3160.726, 9.424037
3162.654, 7.272115
3164.583, 9.669209
3166.511, 19.14422
3168.440, 21.50965
3170.368, 14.35403
3172.297, 15.74154
3174.225, 16.19977
3176.154, 14.99617
3178.082, 14.68946
3180.010, 12.00716
3181.939, 13.56650
3183.867, 27.80569
3185.796, 24.82524
3187.724, 7.167274
3189.653, 11.67160
3191.581, 21.81507
3193.510, 13.26425
3195.438, 1.970004
3197.367, 13.92936
3199.295, 18.35095
3201.224, 13.84545
3203.152, 7.807717
3205.081, 14.36993
3207.009, 8.033576
3208.938, 9.241638
3210.866, 21.18622
3212.794, 34.95840
3214.723, 30.37093
3216.651, 21.17477
3218.580, 11.78825
3220.508, 3.236036
3222.437, 3.796761
3224.365, -1.883470
3226.294, 16.87980
3228.222, 43.19443
3230.151, 6.670118
3232.079, 9.123915
3234.008, 19.44773
3235.936, 28.49207
3237.865, 23.79616
3239.793, 8.961850
3241.721, 5.488610
3243.650, 4.056379
3245.578, 5.676186
3247.507, -17.96646
3249.435, 13.28575
3251.364, 38.08857
3253.292, 25.95829
3255.221, 11.61221
3257.149, 13.84046
3259.078, 21.27251
3261.006, 19.25531
3262.935, 9.818911
3264.863, 13.75622
3266.792, 20.32015
3268.720, 24.36464
3270.648, 21.14029
3272.577, 28.99755
3274.505, 10.47177
3276.434, 0.2445455
3278.362, 6.697402
3280.291, 3.841947
3282.219, 12.27184
3284.148, 21.61492
3286.076, 18.16343
3288.005, 3.433412
3289.933, 8.387094
3291.862, 9.631755
3293.790, 7.108575
3295.719, 12.47854
3297.647, 9.682356
3299.575, 12.53261
3301.504, 7.986865
3303.432, 5.071560
3305.361, 11.69521
3307.289, 12.13858
3309.218, 16.62693
3311.146, 14.70907
3313.075, 4.294290
3315.003, 9.818278
3316.932, 0.7029186
3318.860, 3.690731
3320.789, 11.30483
3322.717, 6.505906
3324.646, 3.684366
3326.574, -15.48077
3328.502, -11.85086
3330.431, 7.276996
3332.359, 9.109736
3334.288, 33.31070
3336.216, 13.33043
3338.145, 6.601408
3340.073, 30.38105
3342.002, 23.75061
3343.930, 3.851617
3345.859, 1.079690
3347.787, 15.21692
3349.716, 25.93167
3351.644, 7.929520
3353.573, 14.96985
3355.501, 16.76962
3357.429, 9.107773
3359.358, 18.57154
3361.286, 23.69783
3363.215, 15.11624
3365.143, -0.4106621
3367.072, -4.479317
3369.000, 35.95034
3370.929, 45.97228
3372.857, 27.62853
3374.786, 9.368769
3376.714, 8.929389
3378.643, 26.52445
3380.571, 13.57595
3382.500, 15.61558
3384.428, 25.39826
3386.356, 13.50243
3388.285, 1.597865
3390.213, -1.394679
3392.142, 6.857319
3394.070, 18.64925
3395.999, 20.66831
3397.927, 4.856058
3399.856, 9.454373
3401.784, 9.348403
3403.713, 6.489461
3405.641, 26.25432
3407.570, -8.069294
3409.498, 3.148516
3411.427, 29.03514
3413.355, 33.70058
3415.283, 7.590224
3417.212, -3.511565
3419.140, -1.432678
3421.069, 5.048428
3422.997, 6.401451
3424.926, -6.765779
3426.854, 30.85082
3428.783, 25.46189
3430.711, 15.31515
3432.640, 19.24659
3434.568, -2.300440
3436.497, -0.6039429
3438.425, -0.1001303
3440.354, 11.34762
3442.282, 28.60387
3444.210, 19.90121
3446.139, 16.11281
3448.067, 4.096176
3449.996, -4.247056
3451.924, -1.546076
3453.853, 11.41501
3455.781, 8.356077
3457.710, 8.829922
3459.638, 11.30465
3461.567, 15.19411
3463.495, 23.24820
3465.424, 16.43711
3467.352, 16.47190
3469.281, 18.21949
3471.209, 20.93326
3473.137, 27.18403
3475.066, 27.99725
3476.994, -4.070726
3478.923, 15.07139
3480.851, 38.33020
3482.780, 10.98930
3484.708, 7.015728
3486.637, 25.62025
3488.565, 32.91314
3490.494, 22.20761
3492.422, 6.939031
3494.351, 9.806698
3496.279, -5.057304
3498.208, 13.66539
3500.136, 17.47770
3502.064, 5.947135
3503.993, 20.23741
3505.921, 24.73345
3507.850, 29.91162
3509.778, 14.46655
3511.707, 9.098005
3513.635, 32.62956
3515.564, 8.857312
3517.492, 13.55850
3519.421, 31.03648
3521.349, 30.32004
3523.278, 13.69385
3525.206, 15.16675
3527.135, 7.433209
3529.063, 5.194233
3530.991, 19.88528
3532.920, 25.12949
3534.848, -4.1712780E-02
3536.777, -10.54045
3538.705, 8.027246
3540.634, 18.80384
3542.562, 16.74488
3544.491, 6.741050
3546.419, -8.836984
3548.348, 11.92222
3550.276, -0.6381597
3552.205, -13.07088
3554.133, -11.65449
3556.062, -2.103556
3557.990, 9.965714
3559.918, 2.826423
3561.847, 19.89088
3563.775, 22.08442
3565.704, 14.21274
3567.632, 27.25856
3569.561, -0.6277533
3571.489, 3.149735
3573.418, 8.749166
3575.346, 2.853252
3577.275, -1.973795
3579.203, 14.45175
3581.132, 27.57273
3583.060, 14.07575
3584.989, 20.60471
3586.917, 22.97099
3588.845, 1.610425
3590.774, -13.55511
3592.702, -14.64849
3594.631, 16.07736
3596.559, 11.88330
3598.488, -2.064113
3600.416, 2.385319
3602.345, -17.26745
3604.273, 14.95292
3606.202, 24.95151
3608.130, 3.978375
3610.059, -9.781427
3611.987, 3.569393
3613.916, 11.22693
3615.844, -23.18881
3617.772, 6.462895
3619.701, 23.63392
3621.629, 17.76494
3623.558, 15.41710
3625.486, 22.74810
3627.415, -18.72879
3629.343, 17.19165
3631.272, 29.87579
3633.200, 13.77781
3635.129, 6.702287
3637.057, 14.93460
3638.986, -2.023962
3640.914, 23.23356
3642.843, 34.36686
3644.771, 28.54416
3646.699, 19.76455
3648.628, 10.10812
3650.556, 13.45430
3652.485, 21.30046
3654.413, 21.69110
3656.342, 7.572729
3658.270, -11.49796
3660.199, -17.15008
3662.127, -0.1143133
3664.056, 29.76511
3665.984, 41.50660
3667.913, 21.02375
3669.841, -2.657886
3671.770, -6.146187
3673.698, -7.180471
3675.626, 16.69591
3677.555, 2.449343
3679.483, -4.914130
3681.412, -0.7094522
3683.340, 10.73065
3685.269, 28.19326
3687.197, 14.49624
3689.126, 26.33974
3691.054, 11.74648
3692.983, -11.66771
3694.911, -8.991979
3696.840, 15.14604
3698.768, 3.639197
3700.697, -12.94764
3702.625, 0.9528934
3704.553, 30.79596
3706.482, 8.781354
3708.410, -21.49994
3710.339, 6.829535
3712.267, 16.96572
3714.196, 8.445970
3716.124, 15.59143
3718.053, 27.69664
3719.981, 21.54674
3721.910, 4.784102
3723.838, 4.454228
3725.767, 19.69093
3727.695, 17.79205
3729.624, -5.500094
3731.552, 9.689636
3733.480, 24.54077
3735.409, 12.65277
3737.337, 2.398036
3739.266, 18.34516
3741.194, 33.49104
3743.123, -11.89422
3745.051, -7.619001
3746.980, 21.31321
3748.908, 26.87917
3750.837, 14.05140
3752.765, 6.958798
3754.694, 1.562739
3756.622, 8.978930
3758.551, 20.17219
3760.479, 4.965218
3762.407, -3.076503
3764.336, 20.17633
3766.264, -30.51123
3768.193, 10.16441
3770.121, 20.16614
3772.050, -5.014585
3773.978, 2.133680
3775.907, 21.51809
3777.835, 8.027987
3779.764, -23.29445
3781.692, -3.032374
3783.621, 11.19741
3785.549, 21.11538
3787.478, 31.26204
3789.406, 24.22219
3791.334, 1.577006
3793.263, -7.422901
3795.191, 20.95351
3797.120, 21.11737
3799.048, 6.7847110E-02
3800.977, -9.669518
3802.905, -18.00013
3804.834, -2.919711
3806.762, 25.42426
3808.691, 19.89046
3810.619, 28.59374
3812.548, 2.757877
3814.476, 7.656013
3816.405, -1.630129
3818.333, 14.40174
3820.261, 11.19699
3822.190, -22.26341
3824.118, 6.689063
3826.047, 1.838544
3827.975, 9.516927
3829.904, 27.12898
3831.832, 31.63296
3833.761, -1.579983
3835.689, -16.10119
3837.618, 2.465370
3839.546, -9.141229
3841.475, 40.09914
3843.403, -9.871559
3845.332, 14.54091
3847.260, -0.3529180
3849.188, -11.33544
3851.117, 6.704872
3853.045, 23.84033
3854.974, 11.45773
3856.902, -19.72804
3858.831, 17.60002
3860.759, 16.43622
3862.688, 11.14037
3864.616, 27.50280
3866.545, 35.40218
3868.473, 26.81843
3870.402, 10.40053
3872.330, -17.22552
3874.259, -5.567252
3876.187, -5.425364
3878.115, 2.508842
3880.044, 33.82365
3881.972, 14.48443
3883.901, 6.951241
3885.829, 26.52747
3887.758, 15.51928
3889.686, 1.301854
3891.615, -11.09009
3893.543, -31.11531
3895.472, -14.25320
3897.400, 4.080317
3899.329, 17.33300
3901.257, 25.83959
3903.186, 28.44511
3905.114, 23.02013
3907.042, 4.575112
3908.971, -16.41478
3910.899, 16.27970
3912.828, -6.800947
3914.756, 6.160815
3916.685, 23.09481
3918.613, 10.51996
3920.542, 5.125693
3922.470, 18.89603
3924.399, 11.82584
3926.327, 36.91002
3928.256, -8.519317
3930.184, -15.90799
3932.113, -6.153050
3934.041, -3.331047
3935.969, 6.172499
3937.898, 35.80203
3939.826, 39.00483
3941.755, -1.973460
3943.683, 1.691534
3945.612, 12.12775
3947.540, 39.30676
3949.469, -6.225383
3951.397, 31.58498
3953.326, 31.31487
3955.254, 8.749703
3957.183, -8.790799
3959.111, -4.659167
3961.040, 23.74304
3962.968, 27.48359
3964.896, 6.282340
3966.825, -6.116236
3968.753, 9.613034
3970.682, 4.280880
3972.610, -4.010061
3974.539, -7.259399
3976.467, 4.687040
3978.396, 10.14080
3980.324, 3.441154
3982.253, 8.531912
3984.181, 6.787332
3986.110, -15.63083
3988.038, 3.541611
3989.967, 15.91304
3991.895, 16.58012
3993.823, 41.91121
3995.752, 33.00369
3997.680, 24.59464
3999.609, 5.468867
4001.537, -11.27797
4003.466, 28.67693
4005.394, 27.08496
4007.323, 25.44709
4009.251, 7.990145
4011.180, 10.95349
4013.108, 27.97649
4015.037, 34.67395
4016.965, 27.99290
4018.894, 5.336054
4020.822, -12.64307
4022.750, 17.01481
4024.679, 50.52748
4026.607, 3.425043
4028.536, -11.71229
4030.464, 9.860385
4032.393, -14.56741
4034.321, 0.5140812
4036.250, 15.30977
4038.178, 22.54126
4040.107, -3.270759
4042.035, -5.429689
4043.964, 15.40308
4045.892, -2.449471
4047.821, -23.45101
4049.749, 7.882585
4051.677, -5.144422
4053.606, 23.36131
4055.534, 40.87082
4057.463, -1.976437
4059.391, -21.71183
4061.320, 1.481614
4063.248, 16.13277
4065.177, -4.077455
4067.105, 9.494453
4069.034, 19.72622
4070.962, -0.1759755
4072.891, 0.7843562
4074.819, 25.27832
4076.748, 19.67321
4078.676, 20.60147
4080.604, 6.416614
4082.533, 22.79118
4084.461, 29.89244
4086.390, 4.289124
4088.318, -36.14472
4090.247, 7.547989
4092.175, 13.27829
4094.104, 13.74948
4096.032, 13.86247
4097.961, 17.81169
4099.889, 13.49613
4101.818, 1.398767
4103.746, 22.66342
4105.675, 15.13453
4107.603, 1.973586
4109.532, -33.61712
4111.460, -20.69324
4113.389, 2.340457
4115.317, 9.481354
4117.246, -3.497855
4119.174, -1.089635
4121.103, 5.219591
4123.031, 1.444261
4124.959, 16.11111
4126.888, 5.717671
4128.816, 11.00158
4130.745, 16.21539
4132.673, -11.21827
4134.602, 17.33497
4136.530, 13.48853
4138.458, -10.26612
4140.387, 2.658771
4142.315, 26.26912
4144.244, 9.301145
4146.172, 27.49500
4148.101, 21.08414
4150.029, -13.42611
4151.958, 28.37342
4153.886, 23.89695
4155.815, 23.07620
4157.743, 9.096420
4159.672, -7.713644
4161.600, 1.406291
4163.529, 19.86532
4165.457, 16.17163
4167.386, 3.684597
4169.314, 6.939798
4171.243, -11.02533
4173.171, -6.884006
4175.100, 18.96860
4177.028, -3.040591
4178.957, 0.4242188
4180.885, -14.52640
4182.813, 0.3766433
4184.742, 13.79485
4186.670, 8.203951
4188.599, 10.60882
4190.527, -10.49751
4192.456, 2.107953
4194.384, -3.198777
4196.313, 5.838366
4198.241, 20.45900
4200.169, 25.35839
4202.098, 19.50928
4204.026, 6.8611167E-02
4205.955, -4.984061
4207.883, 9.804614
4209.812, 2.859598
4211.740, -2.028941
4213.669, 30.00610
4215.597, 23.10577
4217.526, -0.6615719
4219.454, 40.09921
4221.383, 20.72467
4223.311, 23.25524
4225.240, -9.952969
4227.168, -5.413260
4229.097, 40.61354
4231.025, 22.82858
4232.954, 36.72744
4234.882, 6.748416
4236.811, 18.65025
4238.739, 13.53916
4240.667, 16.92618
4242.596, 29.65605
4244.524, 16.95903
4246.453, 13.30863
4248.381, 8.666240
4250.310, 14.97839
4252.238, 23.95382
4254.167, 23.53416
4256.095, 29.01653
4258.023, 14.62532
4259.952, -5.582314
4261.880, 13.15924
4263.809, 17.80431
4265.737, -0.5010276
4267.666, -5.244887
4269.594, -17.52396
4271.523, 32.58681
4273.451, 56.78423
4275.380, -29.52829
4277.308, 7.919202
4279.237, 29.43136
4281.165, 20.34599
4283.094, 16.03937
4285.022, 23.62923
4286.951, -28.42620
4288.879, 3.214890
4290.808, -1.895832
4292.736, 7.933824
4294.665, -0.8269221
4296.593, 21.94023
4298.521, 27.48445
4300.450, 18.25712
4302.378, 7.677874
4304.307, 25.32251
4306.235, 55.78824
4308.164, -6.045496
4310.092, 19.09159
4312.021, 13.33922
4313.949, 26.28217
4315.877, -8.353476
4317.806, 10.31769
4319.734, 13.56277
4321.663, 7.284857
4323.591, 18.04544
4325.520, 16.84762
4327.448, 14.07841
4329.377, 10.27445
4331.305, 2.657137
4333.234, -0.6437757
4335.162, 14.39490
4337.091, -5.120332
4339.019, 17.63998
4340.948, 29.66727
4342.876, 28.00005
4344.805, 28.71372
4346.733, 11.34389
4348.662, 9.380640
4350.590, 26.63476
4352.519, 9.194066
4354.447, 10.30978
4356.375, 34.62621
4358.304, 1.701838
4360.232, -2.666656
4362.161, 5.836029
4364.089, -11.61745
##END=



