##NAMES=Microcline
##RRUFFID=R120005
##IDEAL CHEMISTRY=K(AlSi_3_O_8_)
##LOCALITY=Mount Malosa, Zomba District, Malawi
##OWNER=RRUFF
##SOURCE=Marcus Origlieri
##DESCRIPTION=Tan colored euhedral crystals associated with black arfvedsonite
##STATUS=The identification of this mineral has been confirmed by single-crystal X-ray diffraction
##URL=https://www.rruff.net/odr/rruff_sample/R120005
##DIFFRACTION SAMPLE DESCRIPTION=Single crystal, powder profile is calculated
##CELL PARAMETERS=a: 8.596 b: 12.971 c: 7.224 alpha: 90.38 beta: 116.11 gamma: 88.12 volume: 722.8 crystal system: triclinic
##FILETYPE=Raman Processed
##RAMAN WAVELENGTH=532

101.9570, 155.7781
103.8855, 154.7919
105.8140, 154.4806
107.7424, 155.7331
109.6709, 157.2919
111.5994, 157.8925
113.5278, 157.3736
115.4563, 156.3924
117.3848, 154.9430
119.3132, 152.7368
121.2417, 151.3069
123.1702, 151.4337
125.0986, 152.2523
127.0271, 152.0654
128.9556, 149.7969
130.8840, 147.6328
132.8125, 146.5477
134.7410, 147.1657
136.6694, 148.1946
138.5979, 149.2371
140.5264, 150.5964
142.4548, 153.3673
144.3833, 155.3062
146.3118, 159.9239
148.2402, 169.8313
150.1687, 181.4375
152.0972, 203.4911
154.0257, 237.0308
155.9541, 280.3487
157.8826, 341.6295
159.8111, 418.8947
161.7395, 513.5233
163.6680, 624.2537
165.5965, 751.8918
167.5249, 895.3251
169.4534, 1053.506
171.3819, 1233.704
173.3103, 1414.984
175.2388, 1597.111
177.1673, 1714.198
179.0957, 1814.678
181.0242, 1918.577
182.9527, 2017.135
184.8811, 2108.324
186.8096, 2194.501
188.7381, 2271.578
190.6665, 2337.044
192.5950, 2394.013
194.5235, 2447.528
196.4519, 2500.373
198.3804, 2549.159
200.3089, 2592.131
202.2373, 2630.924
204.1658, 2662.385
206.0943, 2683.782
208.0227, 2695.632
209.9512, 2709.302
211.8797, 2723.562
213.8081, 2739.533
215.7366, 2757.526
217.6651, 2777.017
219.5935, 2798.922
221.5220, 2824.069
223.4505, 2852.453
225.3789, 2879.497
227.3074, 2903.621
229.2359, 2926.718
231.1643, 2950.224
233.0928, 2971.998
235.0213, 2995.918
236.9497, 3022.158
238.8782, 3050.712
240.8067, 3081.830
242.7351, 3115.773
244.6636, 3152.537
246.5921, 3192.396
248.5205, 3235.043
250.4490, 3282.013
252.3775, 3336.196
254.3059, 3397.037
256.2344, 3458.512
258.1629, 3524.549
260.0913, 3589.930
262.0198, 3648.965
263.9483, 3709.343
265.8767, 3754.956
267.8052, 3777.413
269.7337, 3777.332
271.6621, 3769.456
273.5906, 3741.911
275.5191, 3711.173
277.4475, 3698.219
279.3760, 3707.440
281.3045, 3720.709
283.2329, 3735.449
285.1614, 3755.175
287.0899, 3758.640
289.0183, 3751.646
290.9468, 3728.948
292.8753, 3685.096
294.8037, 3613.105
296.7322, 3537.952
298.6607, 3463.511
300.5891, 3388.751
302.5176, 3326.903
304.4461, 3277.745
306.3745, 3240.205
308.3030, 3211.656
310.2315, 3195.335
312.1599, 3181.924
314.0884, 3168.008
316.0169, 3154.259
317.9453, 3147.416
319.8738, 3151.046
321.8023, 3160.586
323.7307, 3172.396
325.6592, 3187.106
327.5877, 3203.897
329.5161, 3224.556
331.4446, 3247.437
333.3731, 3265.628
335.3015, 3277.116
337.2300, 3283.781
339.1585, 3286.941
341.0869, 3284.339
343.0154, 3280.754
344.9439, 3274.282
346.8723, 3267.642
348.8008, 3265.972
350.7293, 3272.521
352.6578, 3282.297
354.5862, 3292.907
356.5147, 3303.431
358.4432, 3317.490
360.3716, 3337.431
362.3001, 3360.066
364.2286, 3380.945
366.1570, 3398.784
368.0855, 3415.581
370.0140, 3432.393
371.9424, 3449.648
373.8709, 3464.059
375.7994, 3477.089
377.7278, 3486.333
379.6563, 3489.605
381.5848, 3480.390
383.5132, 3473.450
385.4417, 3470.198
387.3702, 3471.181
389.2986, 3476.965
391.2271, 3489.730
393.1556, 3505.883
395.0840, 3522.951
397.0125, 3539.977
398.9410, 3560.298
400.8694, 3586.164
402.7979, 3615.751
404.7264, 3644.500
406.6548, 3673.998
408.5833, 3699.899
410.5118, 3721.492
412.4402, 3739.511
414.3687, 3748.315
416.2972, 3741.955
418.2256, 3729.081
420.1541, 3718.968
422.0826, 3711.059
424.0110, 3708.464
425.9395, 3709.930
427.8680, 3716.348
429.7964, 3734.484
431.7249, 3766.096
433.6534, 3807.709
435.5818, 3856.858
437.5103, 3913.948
439.4388, 3974.913
441.3672, 4036.044
443.2957, 4099.412
445.2242, 4170.929
447.1526, 4252.980
449.0811, 4337.805
451.0096, 4429.798
452.9380, 4531.898
454.8665, 4607.181
456.7950, 4643.681
458.7234, 4662.024
460.6519, 4673.947
462.5804, 4671.498
464.5089, 4687.615
466.4373, 4734.563
468.3658, 4806.423
470.2943, 4890.936
472.2227, 5011.385
474.1512, 5121.650
476.0797, 5209.343
478.0081, 5275.860
479.9366, 5305.269
481.8651, 5278.310
483.7935, 5219.938
485.7220, 5148.640
487.6505, 5033.778
489.5789, 4941.751
491.5074, 4874.784
493.4359, 4836.031
495.3643, 4827.241
497.2928, 4847.132
499.2213, 4901.608
501.1497, 4990.732
503.0782, 5118.467
505.0067, 5278.838
506.9351, 5505.330
508.8636, 5746.336
510.7921, 5968.688
512.7205, 6200.075
514.6490, 6339.986
516.5775, 6370.843
518.5059, 6299.729
520.4344, 6157.794
522.3629, 5903.527
524.2913, 5628.835
526.2198, 5352.550
528.1483, 5073.380
530.0767, 4834.906
532.0052, 4645.992
533.9337, 4495.482
535.8621, 4381.037
537.7906, 4308.876
539.7191, 4254.257
541.6475, 4219.268
543.5760, 4198.743
545.5045, 4185.151
547.4329, 4182.886
549.3614, 4181.572
551.2899, 4178.356
553.2183, 4173.014
555.1468, 4168.677
557.0753, 4167.437
559.0037, 4166.301
560.9322, 4163.577
562.8607, 4158.595
564.7891, 4156.528
566.7176, 4157.208
568.6461, 4161.493
570.5745, 4171.222
572.5030, 4188.077
574.4315, 4205.067
576.3599, 4218.793
578.2884, 4230.245
580.2169, 4244.313
582.1453, 4264.260
584.0738, 4283.167
586.0023, 4298.337
587.9307, 4309.440
589.8592, 4318.559
591.7877, 4325.152
593.7161, 4329.620
595.6447, 4332.083
597.5731, 4330.710
599.5016, 4331.685
601.4301, 4336.609
603.3585, 4344.416
605.2870, 4353.584
607.2155, 4364.921
609.1439, 4376.564
611.0724, 4386.735
613.0009, 4396.076
614.9293, 4408.429
616.8578, 4427.233
618.7863, 4444.209
620.7147, 4453.932
622.6432, 4457.424
624.5717, 4465.179
626.5001, 4482.745
628.4286, 4502.085
630.3571, 4519.004
632.2855, 4533.549
634.2140, 4547.359
636.1425, 4556.553
638.0709, 4567.586
639.9994, 4588.079
641.9279, 4619.993
643.8563, 4650.970
645.7848, 4675.358
647.7133, 4695.544
649.6417, 4717.051
651.5702, 4748.239
653.4987, 4770.364
655.4271, 4776.954
657.3556, 4770.728
659.2841, 4762.099
661.2125, 4753.197
663.1410, 4741.222
665.0695, 4723.795
666.9979, 4699.578
668.9264, 4683.284
670.8549, 4678.181
672.7833, 4677.807
674.7118, 4677.754
676.6403, 4677.353
678.5687, 4680.869
680.4972, 4691.473
682.4257, 4704.494
684.3541, 4716.536
686.2826, 4725.151
688.2111, 4735.975
690.1395, 4749.638
692.0680, 4765.473
693.9965, 4782.594
695.9249, 4801.696
697.8534, 4820.070
699.7819, 4835.205
701.7103, 4848.845
703.6388, 4866.177
705.5673, 4890.069
707.4957, 4914.553
709.4242, 4940.130
711.3527, 4965.773
713.2811, 4987.724
715.2096, 5004.293
717.1381, 5018.655
719.0665, 5031.803
720.9950, 5043.471
722.9235, 5054.811
724.8519, 5062.606
726.7804, 5073.043
728.7089, 5089.800
730.6373, 5112.817
732.5658, 5140.001
734.4943, 5170.794
736.4227, 5206.938
738.3512, 5249.572
740.2797, 5301.062
742.2081, 5352.217
744.1366, 5406.647
746.0651, 5457.296
747.9935, 5501.250
749.9220, 5541.519
751.8505, 5560.956
753.7789, 5543.349
755.7074, 5509.343
757.6359, 5476.971
759.5643, 5448.512
761.4928, 5418.737
763.4213, 5381.334
765.3497, 5345.036
767.2782, 5323.038
769.2067, 5317.343
771.1351, 5317.129
773.0636, 5320.589
774.9921, 5327.375
776.9205, 5337.412
778.8490, 5351.417
780.7775, 5367.024
782.7059, 5384.018
784.6344, 5401.563
786.5629, 5418.550
788.4913, 5435.359
790.4198, 5450.491
792.3483, 5462.420
794.2767, 5473.036
796.2052, 5486.318
798.1337, 5500.511
800.0621, 5521.752
801.9906, 5552.786
803.9191, 5592.402
805.8475, 5635.593
807.7760, 5685.600
809.7045, 5732.078
811.6329, 5773.760
813.5614, 5808.593
815.4899, 5828.920
817.4183, 5832.568
819.3468, 5821.787
821.2753, 5791.040
823.2037, 5744.033
825.1322, 5703.802
827.0607, 5672.241
828.9891, 5645.393
830.9176, 5621.628
832.8461, 5602.130
834.7745, 5591.490
836.7030, 5595.050
838.6315, 5602.685
840.5599, 5611.454
842.4884, 5621.135
844.4169, 5632.128
846.3453, 5643.469
848.2738, 5654.771
850.2023, 5663.617
852.1307, 5670.903
854.0592, 5681.729
855.9877, 5701.651
857.9161, 5716.661
859.8446, 5719.934
861.7731, 5713.445
863.7015, 5711.476
865.6300, 5717.845
867.5585, 5724.678
869.4869, 5732.936
871.4154, 5740.497
873.3439, 5740.431
875.2723, 5728.155
877.2008, 5717.393
879.1293, 5714.096
881.0577, 5716.953
882.9862, 5719.731
884.9147, 5720.252
886.8431, 5723.534
888.7716, 5729.531
890.7001, 5738.915
892.6285, 5753.451
894.5570, 5775.183
896.4855, 5796.378
898.4139, 5812.821
900.3424, 5826.740
902.2709, 5843.099
904.1993, 5864.869
906.1278, 5884.073
908.0563, 5898.475
909.9847, 5909.070
911.9132, 5917.710
913.8417, 5923.740
915.7701, 5928.624
917.6986, 5935.190
919.6271, 5939.732
921.5555, 5937.063
923.4840, 5924.015
925.4125, 5916.501
927.3410, 5921.985
929.2695, 5933.435
931.1979, 5942.628
933.1264, 5945.798
935.0549, 5955.310
936.9833, 5974.390
938.9118, 5996.692
940.8403, 6015.412
942.7687, 6029.361
944.6972, 6045.557
946.6257, 6068.531
948.5541, 6091.023
950.4826, 6108.961
952.4111, 6121.873
954.3395, 6135.192
956.2680, 6148.993
958.1965, 6164.445
960.1249, 6183.179
962.0534, 6204.270
963.9819, 6222.215
965.9103, 6233.189
967.8388, 6243.518
969.7673, 6256.749
971.6957, 6271.854
973.6242, 6282.961
975.5527, 6286.403
977.4811, 6291.580
979.4096, 6302.128
981.3381, 6317.783
983.2665, 6335.781
985.1950, 6356.189
987.1235, 6380.169
989.0519, 6409.439
990.9804, 6441.414
992.9089, 6473.525
994.8373, 6506.443
996.7658, 6533.042
998.6943, 6552.144
1000.623, 6562.995
1002.551, 6563.649
1004.480, 6547.388
1006.408, 6536.804
1008.337, 6539.063
1010.265, 6542.547
1012.194, 6537.492
1014.122, 6525.173
1016.050, 6517.324
1017.979, 6514.149
1019.907, 6517.547
1021.836, 6530.542
1023.764, 6551.860
1025.693, 6566.416
1027.621, 6564.125
1029.550, 6565.470
1031.478, 6576.715
1033.407, 6594.881
1035.335, 6612.155
1037.264, 6629.810
1039.192, 6644.595
1041.120, 6652.758
1043.049, 6659.348
1044.977, 6670.941
1046.906, 6689.377
1048.834, 6702.978
1050.763, 6706.257
1052.691, 6706.512
1054.620, 6707.844
1056.548, 6710.351
1058.477, 6715.686
1060.405, 6725.423
1062.334, 6736.904
1064.262, 6748.860
1066.191, 6761.513
1068.119, 6776.119
1070.047, 6793.716
1071.976, 6809.823
1073.904, 6818.908
1075.833, 6825.711
1077.761, 6839.702
1079.690, 6865.531
1081.618, 6888.648
1083.547, 6905.023
1085.475, 6920.446
1087.404, 6939.777
1089.332, 6963.530
1091.261, 6991.374
1093.189, 7027.485
1095.118, 7063.199
1097.046, 7093.311
1098.975, 7118.585
1100.903, 7142.735
1102.832, 7167.206
1104.760, 7187.368
1106.688, 7199.419
1108.617, 7207.400
1110.545, 7219.010
1112.474, 7234.347
1114.402, 7255.424
1116.331, 7285.177
1118.259, 7319.423
1120.188, 7355.937
1122.116, 7395.314
1124.045, 7430.082
1125.973, 7457.897
1127.902, 7481.861
1129.830, 7505.271
1131.759, 7525.456
1133.687, 7533.263
1135.615, 7522.185
1137.544, 7510.116
1139.472, 7504.407
1141.401, 7500.208
1143.329, 7490.922
1145.258, 7476.322
1147.186, 7458.083
1149.115, 7429.543
1151.043, 7403.268
1152.972, 7389.774
1154.900, 7387.336
1156.829, 7378.662
1158.757, 7356.703
1160.686, 7338.493
1162.614, 7332.271
1164.542, 7334.732
1166.471, 7342.071
1168.399, 7356.996
1170.328, 7370.419
1172.256, 7379.389
1174.185, 7387.788
1176.113, 7397.929
1178.042, 7409.525
1179.970, 7421.662
1181.899, 7433.658
1183.827, 7445.340
1185.756, 7456.411
1187.684, 7466.869
1189.613, 7477.102
1191.541, 7487.361
1193.469, 7498.691
1195.398, 7512.055
1197.326, 7527.497
1199.255, 7544.708
1201.183, 7563.594
1203.112, 7584.458
1205.040, 7609.476
1206.969, 7631.833
1208.897, 7647.743
1210.826, 7658.420
1212.754, 7668.361
1214.683, 7678.704
1216.611, 7687.788
1218.540, 7695.372
1220.468, 7704.483
1222.396, 7718.310
1224.325, 7737.443
1226.253, 7759.229
1228.182, 7784.185
1230.110, 7809.437
1232.039, 7830.656
1233.967, 7849.911
1235.896, 7872.167
1237.824, 7897.867
1239.753, 7918.423
1241.681, 7929.014
1243.610, 7936.592
1245.538, 7946.583
1247.467, 7959.864
1249.395, 7969.264
1251.323, 7972.442
1253.252, 7978.065
1255.180, 7990.985
1257.109, 8006.623
1259.037, 8017.187
1260.966, 8021.148
1262.894, 8028.665
1264.823, 8039.673
1266.751, 8054.295
1268.680, 8074.719
1270.608, 8098.375
1272.537, 8119.930
1274.465, 8139.362
1276.394, 8156.786
1278.322, 8170.065
1280.250, 8184.029
1282.179, 8202.784
1284.107, 8227.270
1286.036, 8250.936
1287.964, 8272.525
1289.893, 8294.465
1291.821, 8314.969
1293.750, 8336.106
1295.678, 8361.919
1297.607, 8393.741
1299.535, 8423.413
1301.464, 8451.676
1303.392, 8475.950
1305.321, 8492.671
1307.249, 8504.465
1309.177, 8519.228
1311.106, 8538.771
1313.034, 8556.874
1314.963, 8570.482
1316.891, 8584.285
1318.820, 8602.229
1320.748, 8624.050
1322.677, 8644.683
1324.605, 8664.271
1326.534, 8681.640
1328.462, 8694.601
1330.391, 8705.363
1332.319, 8716.115
1334.248, 8726.155
1336.176, 8738.263
1338.104, 8754.256
1340.033, 8771.322
1341.961, 8791.143
1343.890, 8811.698
1345.818, 8828.097
1347.747, 8839.513
1349.675, 8851.222
1351.604, 8860.868
1353.532, 8871.706
1355.461, 8886.056
1357.389, 8901.438
1359.318, 8913.310
1361.246, 8921.386
1363.175, 8930.126
1365.103, 8942.157
1367.031, 8956.428
1368.960, 8971.811
1370.888, 8989.161
1372.817, 9012.140
1374.745, 9044.911
1376.674, 9071.618
1378.602, 9082.568
1380.531, 9089.318
1382.459, 9101.263
1384.388, 9118.474
1386.316, 9132.342
1388.245, 9141.899
1390.173, 9151.786
1392.102, 9163.113
1394.030, 9176.026
1395.958, 9190.511
1397.887, 9206.405
1399.815, 9222.799
1401.744, 9237.949
1403.672, 9254.603
1405.601, 9276.718
1407.529, 9298.908
1409.458, 9314.981
1411.386, 9325.991
1413.315, 9337.375
1415.243, 9348.601
1417.172, 9363.349
1419.100, 9386.385
1421.029, 9410.907
1422.957, 9426.378
1424.885, 9431.798
1426.814, 9446.741
1428.742, 9480.286
1430.671, 9511.590
1432.599, 9531.595
1434.528, 9547.981
1436.456, 9572.056
1438.385, 9607.588
1440.313, 9633.554
1442.242, 9638.949
1444.170, 9647.832
1446.099, 9666.077
1448.027, 9690.304
1449.956, 9718.282
1451.884, 9752.310
1453.813, 9777.722
1455.741, 9787.009
1457.669, 9798.737
1459.598, 9818.054
1461.526, 9842.721
1463.455, 9869.943
1465.383, 9899.721
1467.312, 9933.160
1469.240, 9970.616
1471.169, 10009.87
1473.097, 10059.05
1475.026, 10102.78
1476.954, 10121.85
1478.883, 10119.15
1480.811, 10116.76
1482.740, 10119.57
1484.668, 10118.81
1486.596, 10109.56
1488.525, 10099.70
1490.453, 10093.61
1492.382, 10091.88
1494.310, 10097.62
1496.239, 10108.95
1498.167, 10126.90
1500.096, 10156.08
1502.024, 10182.92
1503.953, 10197.03
1505.881, 10199.68
1507.810, 10204.34
1509.738, 10217.53
1511.667, 10224.04
1513.595, 10216.12
1515.523, 10212.11
1517.452, 10222.02
1519.380, 10244.34
1521.309, 10273.50
1523.237, 10314.21
1525.166, 10346.47
1527.094, 10363.40
1529.023, 10375.65
1530.951, 10385.29
1532.880, 10394.15
1534.808, 10406.21
1536.737, 10423.58
1538.665, 10440.90
1540.594, 10459.50
1542.522, 10478.28
1544.450, 10495.87
1546.379, 10514.30
1548.307, 10535.82
1550.236, 10560.08
1552.164, 10584.07
1554.093, 10607.90
1556.021, 10629.60
1557.950, 10647.25
1559.878, 10663.34
1561.807, 10680.88
1563.735, 10698.46
1565.664, 10709.87
1567.592, 10712.45
1569.521, 10720.26
1571.449, 10741.18
1573.377, 10762.54
1575.306, 10776.91
1577.234, 10787.75
1579.163, 10802.55
1581.091, 10822.07
1583.020, 10834.21
1584.948, 10831.31
1586.877, 10833.54
1588.805, 10851.93
1590.734, 10878.03
1592.662, 10903.81
1594.591, 10929.81
1596.519, 10959.68
1598.448, 10994.82
1600.376, 11026.44
1602.304, 11048.21
1604.233, 11067.62
1606.161, 11089.87
1608.090, 11111.73
1610.018, 11126.47
1611.947, 11133.30
1613.875, 11140.89
1615.804, 11154.88
1617.732, 11166.86
1619.661, 11173.13
1621.589, 11179.64
1623.518, 11192.62
1625.446, 11212.09
1627.375, 11231.58
1629.303, 11246.54
1631.231, 11269.19
1633.160, 11310.19
1635.088, 11346.15
1637.017, 11360.15
1638.945, 11360.34
1640.874, 11366.15
1642.802, 11378.70
1644.731, 11394.94
1646.659, 11423.29
1648.588, 11445.41
1650.516, 11454.69
1652.445, 11459.29
1654.373, 11462.83
1656.302, 11465.86
1658.230, 11476.46
1660.158, 11495.52
1662.087, 11516.00
1664.015, 11539.25
1665.944, 11560.17
1667.872, 11576.67
1669.801, 11590.13
1671.729, 11601.98
1673.658, 11612.42
1675.586, 11626.21
1677.515, 11647.07
1679.443, 11665.98
1681.372, 11678.15
1683.300, 11692.47
1685.229, 11713.75
1687.157, 11740.05
1689.085, 11768.57
1691.014, 11800.33
1692.942, 11822.42
1694.871, 11823.61
1696.799, 11829.67
1698.728, 11851.16
1700.656, 11874.65
1702.585, 11893.16
1704.513, 11907.52
1706.442, 11916.76
1708.370, 11918.85
1710.299, 11926.62
1712.227, 11941.22
1714.156, 11960.38
1716.084, 11989.64
1718.012, 12016.16
1719.941, 12024.10
1721.869, 12018.53
1723.798, 12027.26
1725.726, 12056.71
1727.655, 12080.10
1729.583, 12090.05
1731.512, 12101.97
1733.440, 12122.88
1735.369, 12146.05
1737.297, 12164.72
1739.226, 12180.41
1741.154, 12200.65
1743.083, 12226.89
1745.011, 12252.71
1746.939, 12275.80
1748.868, 12299.54
1750.797, 12324.64
1752.725, 12348.85
1754.653, 12369.08
1756.582, 12385.23
1758.510, 12401.79
1760.439, 12419.87
1762.367, 12433.22
1764.296, 12441.10
1766.224, 12446.94
1768.153, 12451.47
1770.081, 12457.86
1772.010, 12470.77
1773.938, 12488.61
1775.867, 12501.42
1777.795, 12507.25
1779.724, 12522.62
1781.652, 12552.98
1783.580, 12584.12
1785.509, 12611.30
1787.437, 12635.34
1789.366, 12655.33
1791.294, 12672.14
1793.223, 12688.51
1795.151, 12704.22
1797.080, 12720.97
1799.008, 12741.12
1800.937, 12757.94
1802.865, 12769.01
1804.794, 12778.79
1806.722, 12788.30
1808.651, 12800.16
1810.579, 12818.83
1812.507, 12843.44
1814.436, 12867.08
1816.364, 12888.16
1818.293, 12908.09
1820.221, 12926.12
1822.150, 12942.80
1824.078, 12960.07
1826.007, 12975.73
1827.935, 12986.59
1829.864, 12995.04
1831.792, 13008.09
1833.721, 13027.64
1835.649, 13046.60
1837.578, 13061.03
1839.506, 13079.07
1841.434, 13104.53
1843.363, 13131.29
1845.291, 13153.94
1847.220, 13173.46
1849.148, 13193.58
1851.077, 13214.47
1853.005, 13232.42
1854.934, 13244.78
1856.862, 13259.88
1858.791, 13283.54
1860.719, 13305.34
1862.648, 13319.80
1864.576, 13330.72
1866.505, 13341.33
1868.433, 13352.22
1870.361, 13367.08
1872.290, 13388.54
1874.218, 13407.83
1876.147, 13425.59
1878.075, 13441.38
1880.004, 13453.18
1881.932, 13466.13
1883.861, 13484.90
1885.789, 13505.87
1887.718, 13519.93
1889.646, 13525.92
1891.575, 13542.69
1893.503, 13573.88
1895.432, 13596.92
1897.360, 13604.82
1899.288, 13610.94
1901.217, 13623.34
1903.145, 13637.68
1905.074, 13655.06
1907.002, 13673.34
1908.931, 13680.88
1910.859, 13679.22
1912.788, 13695.74
1914.716, 13736.04
1916.645, 13768.92
1918.573, 13780.04
1920.502, 13788.84
1922.430, 13803.88
1924.359, 13820.26
1926.287, 13836.12
1928.215, 13851.26
1930.144, 13864.12
1932.072, 13875.90
1934.001, 13885.74
1935.929, 13891.34
1937.858, 13901.56
1939.786, 13919.46
1941.715, 13939.05
1943.643, 13959.67
1945.572, 13978.74
1947.500, 13989.43
1949.429, 13997.28
1951.357, 14019.78
1953.286, 14059.25
1955.214, 14082.58
1957.142, 14081.88
1959.071, 14083.12
1960.999, 14093.12
1962.928, 14101.08
1964.856, 14102.25
1966.785, 14104.44
1968.713, 14115.08
1970.642, 14130.77
1972.570, 14142.38
1974.499, 14151.57
1976.427, 14171.25
1978.356, 14202.13
1980.284, 14240.57
1982.213, 14293.82
1984.141, 14333.50
1986.069, 14335.17
1987.998, 14335.15
1989.926, 14358.39
1991.855, 14389.49
1993.783, 14408.11
1995.712, 14417.52
1997.640, 14433.63
1999.569, 14459.99
2001.497, 14479.46
2003.426, 14484.38
2005.354, 14495.71
2007.283, 14522.28
2009.211, 14545.50
2011.140, 14558.76
2013.068, 14564.74
2014.996, 14560.87
2016.925, 14553.92
2018.853, 14558.12
2020.782, 14573.88
2022.710, 14595.50
2024.639, 14626.01
2026.567, 14646.44
2028.496, 14647.71
2030.424, 14654.61
2032.353, 14679.09
2034.281, 14702.76
2036.210, 14710.73
2038.138, 14716.20
2040.067, 14733.97
2041.995, 14759.14
2043.923, 14780.95
2045.852, 14799.43
2047.780, 14812.48
2049.709, 14817.49
2051.637, 14823.35
2053.566, 14830.27
2055.494, 14838.12
2057.423, 14849.10
2059.351, 14859.88
2061.280, 14871.52
2063.208, 14882.55
2065.136, 14889.04
2067.065, 14895.21
2068.993, 14910.18
2070.922, 14933.78
2072.850, 14966.28
2074.779, 15008.27
2076.708, 15039.63
2078.636, 15050.26
2080.564, 15058.92
2082.493, 15072.16
2084.421, 15082.37
2086.350, 15085.90
2088.278, 15087.83
2090.207, 15095.82
2092.135, 15107.78
2094.064, 15115.56
2095.992, 15120.65
2097.921, 15134.81
2099.849, 15160.70
2101.778, 15181.88
2103.706, 15196.49
2105.635, 15204.26
2107.563, 15200.56
2109.491, 15196.05
2111.420, 15192.65
2113.348, 15194.78
2115.277, 15210.78
2117.205, 15232.75
2119.134, 15247.71
2121.062, 15260.29
2122.991, 15284.43
2124.919, 15318.33
2126.848, 15342.74
2128.776, 15351.21
2130.705, 15364.60
2132.633, 15388.73
2134.562, 15410.84
2136.490, 15430.34
2138.418, 15446.10
2140.347, 15460.24
2142.275, 15469.76
2144.204, 15468.13
2146.132, 15464.29
2148.061, 15471.10
2149.989, 15488.25
2151.918, 15515.03
2153.846, 15550.81
2155.775, 15576.68
2157.703, 15589.01
2159.632, 15599.53
2161.560, 15604.52
2163.489, 15616.32
2165.417, 15643.38
2167.345, 15668.81
2169.274, 15685.43
2171.202, 15698.62
2173.131, 15715.36
2175.059, 15731.22
2176.988, 15738.11
2178.916, 15740.35
2180.845, 15748.88
2182.773, 15764.12
2184.702, 15784.07
2186.630, 15809.03
2188.559, 15826.39
2190.487, 15829.95
2192.416, 15838.51
2194.344, 15857.15
2196.272, 15877.65
2198.201, 15900.51
2200.129, 15920.52
2202.058, 15935.73
2203.986, 15947.20
2205.915, 15956.02
2207.843, 15961.83
2209.772, 15960.62
2211.700, 15955.48
2213.629, 15963.90
2215.557, 15986.54
2217.486, 15999.63
2219.414, 16001.34
2221.343, 16008.87
2223.271, 16024.66
2225.199, 16045.60
2227.128, 16073.26
2229.056, 16098.85
2230.985, 16113.17
2232.913, 16129.99
2234.842, 16165.32
2236.770, 16198.29
2238.699, 16203.50
2240.627, 16199.75
2242.556, 16216.71
2244.484, 16249.50
2246.413, 16281.86
2248.341, 16313.05
2250.270, 16337.46
2252.198, 16353.67
2254.126, 16380.05
2256.055, 16422.77
2257.983, 16452.02
2259.912, 16451.00
2261.840, 16455.68
2263.769, 16482.98
2265.697, 16504.68
2267.626, 16508.99
2269.554, 16505.76
2271.483, 16499.83
2273.411, 16493.85
2275.340, 16490.29
2277.268, 16491.37
2279.197, 16501.01
2281.125, 16517.49
2283.053, 16534.83
2284.982, 16551.94
2286.910, 16563.02
2288.839, 16563.29
2290.767, 16576.25
2292.696, 16609.57
2294.624, 16637.12
2296.553, 16656.18
2298.481, 16673.05
2300.410, 16692.78
2302.338, 16705.88
2304.267, 16707.46
2306.195, 16707.66
2308.124, 16706.01
2310.052, 16713.52
2311.980, 16742.82
2313.909, 16782.08
2315.837, 16822.38
2317.766, 16858.73
2319.694, 16876.13
2321.623, 16879.73
2323.551, 16898.15
2325.480, 16930.84
2327.408, 16953.44
2329.337, 16965.14
2331.265, 16975.29
2333.194, 16984.54
2335.122, 16993.47
2337.051, 17005.31
2338.979, 17011.43
2340.907, 17008.53
2342.836, 17007.09
2344.764, 17009.68
2346.693, 17017.61
2348.621, 17025.73
2350.550, 17044.11
2352.478, 17082.70
2354.407, 17124.08
2356.335, 17154.77
2358.264, 17174.15
2360.192, 17183.04
2362.121, 17183.15
2364.049, 17177.22
2365.978, 17168.99
2367.906, 17163.57
2369.834, 17163.31
2371.763, 17168.45
2373.691, 17178.63
2375.620, 17192.15
2377.548, 17205.08
2379.477, 17227.38
2381.405, 17260.94
2383.334, 17286.45
2385.262, 17295.95
2387.191, 17309.67
2389.119, 17344.08
2391.048, 17371.62
2392.976, 17383.25
2394.905, 17391.63
2396.833, 17397.20
2398.761, 17406.68
2400.690, 17418.19
2402.618, 17438.03
2404.547, 17482.05
2406.475, 17525.06
2408.404, 17534.00
2410.332, 17527.93
2412.261, 17536.69
2414.189, 17557.25
2416.118, 17583.91
2418.046, 17615.15
2419.975, 17636.37
2421.903, 17648.41
2423.832, 17664.40
2425.760, 17684.28
2427.688, 17719.95
2429.617, 17773.80
2431.545, 17814.87
2433.474, 17834.35
2435.402, 17857.22
2437.331, 17895.49
2439.259, 17922.14
2441.188, 17927.67
2443.116, 17939.96
2445.045, 17967.91
2446.973, 17997.15
2448.902, 18018.37
2450.830, 18045.90
2452.759, 18091.59
2454.687, 18135.49
2456.615, 18161.08
2458.544, 18185.98
2460.472, 18228.97
2462.401, 18273.56
2464.329, 18306.32
2466.258, 18332.68
2468.186, 18355.26
2470.115, 18377.51
2472.043, 18406.90
2473.972, 18434.98
2475.900, 18440.33
2477.829, 18429.74
2479.757, 18433.93
2481.686, 18448.69
2483.614, 18446.47
2485.542, 18430.28
2487.471, 18418.34
2489.399, 18412.76
2491.328, 18404.48
2493.256, 18392.85
2495.185, 18395.56
2497.113, 18420.02
2499.042, 18433.42
2500.970, 18426.23
2502.899, 18423.99
2504.827, 18426.94
2506.756, 18431.51
2508.684, 18438.54
2510.613, 18443.49
2512.541, 18450.57
2514.469, 18448.71
2516.398, 18426.05
2518.326, 18412.26
2520.255, 18416.94
2522.183, 18431.09
2524.112, 18457.48
2526.040, 18480.92
2527.969, 18495.01
2529.897, 18502.23
2531.826, 18493.88
2533.754, 18493.38
2535.683, 18527.81
2537.611, 18564.61
2539.540, 18566.92
2541.468, 18570.66
2543.396, 18621.79
2545.325, 18677.61
2547.253, 18685.01
2549.182, 18675.78
2551.110, 18691.15
2553.039, 18714.75
2554.967, 18721.28
2556.896, 18719.86
2558.824, 18730.04
2560.753, 18747.54
2562.681, 18755.16
2564.610, 18761.07
2566.538, 18786.45
2568.467, 18824.68
2570.395, 18853.22
2572.323, 18872.13
2574.252, 18893.31
2576.180, 18914.64
2578.109, 18926.46
2580.037, 18930.39
2581.966, 18937.74
2583.894, 18950.73
2585.823, 18963.27
2587.751, 18975.92
2589.680, 19012.47
2591.608, 19080.64
2593.537, 19121.66
2595.465, 19129.05
2597.394, 19140.81
2599.322, 19156.61
2601.250, 19174.70
2603.179, 19194.20
2605.107, 19215.60
2607.036, 19239.83
2608.964, 19267.71
2610.893, 19311.80
2612.821, 19324.69
2614.750, 19293.16
2616.678, 19286.20
2618.607, 19321.46
2620.535, 19344.35
2622.464, 19334.48
2624.392, 19332.17
2626.321, 19349.15
2628.249, 19361.84
2630.177, 19368.66
2632.106, 19372.64
2634.034, 19374.28
2635.963, 19378.37
2637.891, 19387.51
2639.820, 19398.30
2641.748, 19408.24
2643.677, 19422.13
2645.605, 19437.96
2647.534, 19461.88
2649.462, 19498.49
2651.391, 19531.08
2653.319, 19551.00
2655.248, 19569.58
2657.176, 19592.52
2659.104, 19609.63
2661.033, 19618.53
2662.961, 19622.01
2664.890, 19621.38
2666.818, 19619.92
2668.747, 19618.50
2670.675, 19621.91
2672.604, 19632.63
2674.532, 19648.54
2676.461, 19669.56
2678.389, 19690.88
2680.318, 19703.59
2682.246, 19724.85
2684.175, 19769.60
2686.103, 19804.66
2688.031, 19815.81
2689.960, 19817.10
2691.888, 19802.68
2693.817, 19803.14
2695.745, 19840.49
2697.674, 19875.91
2699.602, 19894.43
2701.531, 19909.01
2703.459, 19915.32
2705.388, 19931.21
2707.316, 19973.81
2709.245, 20006.47
2711.173, 20006.56
2713.102, 20014.05
2715.030, 20049.73
2716.958, 20082.55
2718.887, 20096.05
2720.815, 20110.61
2722.744, 20143.56
2724.672, 20163.27
2726.601, 20148.05
2728.529, 20152.26
2730.458, 20210.10
2732.386, 20259.42
2734.315, 20267.87
2736.243, 20278.55
2738.172, 20305.75
2740.100, 20329.29
2742.029, 20346.16
2743.957, 20356.46
2745.885, 20358.12
2747.814, 20364.31
2749.742, 20382.05
2751.671, 20404.68
2753.599, 20432.06
2755.528, 20462.32
2757.456, 20492.96
2759.385, 20526.16
2761.313, 20562.44
2763.242, 20591.87
2765.170, 20605.40
2767.099, 20619.52
2769.027, 20638.15
2770.956, 20647.31
2772.884, 20644.39
2774.813, 20642.96
2776.741, 20650.13
2778.669, 20655.65
2780.598, 20663.54
2782.526, 20662.14
2784.455, 20646.72
2786.383, 20655.59
2788.312, 20694.65
2790.240, 20729.99
2792.169, 20754.63
2794.097, 20776.94
2796.026, 20798.46
2797.954, 20791.34
2799.883, 20755.20
2801.811, 20742.89
2803.740, 20759.68
2805.668, 20783.06
2807.596, 20813.81
2809.525, 20838.37
2811.453, 20856.87
2813.382, 20868.77
2815.310, 20876.66
2817.239, 20904.50
2819.167, 20945.83
2821.096, 20959.08
2823.024, 20952.48
2824.953, 20962.16
2826.881, 20983.83
2828.810, 21005.08
2830.738, 21028.14
2832.667, 21064.46
2834.595, 21103.99
2836.523, 21126.48
2838.452, 21140.41
2840.380, 21159.46
2842.309, 21181.22
2844.237, 21198.58
2846.166, 21219.60
2848.094, 21258.27
2850.023, 21298.32
2851.951, 21321.04
2853.880, 21338.61
2855.808, 21361.54
2857.737, 21382.29
2859.665, 21393.90
2861.594, 21406.71
2863.522, 21420.82
2865.450, 21449.66
2867.379, 21510.97
2869.307, 21562.57
2871.236, 21575.49
2873.164, 21589.55
2875.093, 21619.23
2877.021, 21646.07
2878.950, 21664.51
2880.878, 21687.57
2882.807, 21722.13
2884.735, 21751.56
2886.664, 21770.67
2888.592, 21790.01
2890.521, 21810.38
2892.449, 21826.81
2894.377, 21837.82
2896.306, 21853.97
2898.234, 21876.51
2900.163, 21899.89
2902.091, 21924.74
2904.020, 21942.68
2905.948, 21956.26
2907.877, 21974.87
2909.805, 21999.69
2911.734, 22035.91
2913.662, 22077.12
2915.591, 22101.34
2917.519, 22117.28
2919.448, 22149.55
2921.376, 22179.53
2923.304, 22177.74
2925.233, 22163.49
2927.161, 22154.73
2929.090, 22153.28
2931.018, 22164.93
2932.947, 22178.90
2934.875, 22189.92
2936.804, 22198.05
2938.732, 22198.50
2940.661, 22203.18
2942.589, 22221.10
2944.518, 22230.92
2946.446, 22219.32
2948.375, 22213.22
2950.303, 22218.55
2952.231, 22231.01
2954.160, 22251.58
2956.088, 22270.41
2958.017, 22285.41
2959.945, 22293.22
2961.874, 22290.65
2963.802, 22296.90
2965.731, 22311.81
2967.659, 22329.71
2969.588, 22349.65
2971.516, 22363.31
2973.445, 22371.24
2975.373, 22362.04
2977.302, 22352.38
2979.230, 22380.42
2981.158, 22419.41
2983.087, 22443.30
2985.015, 22455.34
2986.944, 22453.69
2988.872, 22452.88
2990.801, 22463.21
2992.729, 22479.79
2994.658, 22503.46
2996.586, 22526.90
2998.515, 22543.13
3000.443, 22563.79
3002.372, 22597.04
3004.300, 22603.96
3006.229, 22562.07
3008.157, 22541.90
3010.085, 22550.79
3012.014, 22561.09
3013.942, 22573.19
3015.871, 22595.56
3017.799, 22627.75
3019.728, 22672.51
3021.656, 22721.36
3023.585, 22739.60
3025.513, 22743.98
3027.442, 22755.19
3029.370, 22778.29
3031.299, 22830.43
3033.227, 22881.48
3035.156, 22901.42
3037.084, 22916.56
3039.012, 22945.22
3040.941, 22969.11
3042.869, 22983.26
3044.798, 22989.68
3046.726, 22984.64
3048.655, 22994.17
3050.583, 23032.87
3052.512, 23045.33
3054.440, 23020.06
3056.369, 23038.43
3058.297, 23096.54
3060.226, 23138.68
3062.154, 23163.54
3064.083, 23160.29
3066.011, 23147.14
3067.939, 23170.49
3069.868, 23210.40
3071.796, 23253.28
3073.725, 23284.91
3075.653, 23291.24
3077.582, 23286.41
3079.510, 23270.82
3081.439, 23269.81
3083.367, 23302.10
3085.296, 23340.13
3087.224, 23382.35
3089.153, 23409.07
3091.081, 23412.36
3093.010, 23449.84
3094.938, 23530.65
3096.866, 23551.46
3098.795, 23522.12
3100.723, 23534.79
3102.652, 23573.80
3104.580, 23604.82
3106.509, 23627.32
3108.437, 23634.84
3110.366, 23639.28
3112.294, 23652.08
3114.223, 23664.95
3116.151, 23676.75
3118.080, 23684.15
3120.008, 23682.88
3121.937, 23694.44
3123.865, 23727.29
3125.793, 23755.15
3127.722, 23768.50
3129.650, 23798.00
3131.579, 23840.32
3133.507, 23880.86
3135.436, 23913.91
3137.364, 23915.87
3139.293, 23909.36
3141.221, 23945.93
3143.150, 23989.68
3145.078, 23993.12
3147.007, 24006.08
3148.935, 24080.84
3150.864, 24133.80
3152.792, 24127.52
3154.720, 24126.03
3156.649, 24149.13
3158.577, 24168.72
3160.506, 24185.13
3162.434, 24200.09
3164.363, 24213.98
3166.291, 24211.78
3168.220, 24204.29
3170.148, 24224.40
3172.077, 24259.37
3174.005, 24295.86
3175.934, 24329.86
3177.862, 24357.63
3179.791, 24385.58
3181.719, 24414.27
3183.647, 24456.14
3185.576, 24521.08
3187.504, 24573.76
3189.433, 24598.24
3191.361, 24636.09
3193.290, 24681.66
3195.218, 24708.27
3197.147, 24715.75
3199.075, 24699.60
3201.004, 24680.07
3202.932, 24699.66
3204.861, 24729.48
3206.789, 24747.62
3208.718, 24764.46
3210.646, 24771.11
3212.574, 24797.67
3214.503, 24849.49
3216.431, 24905.76
3218.360, 24965.90
3220.288, 24996.73
3222.217, 25001.92
3224.145, 25010.51
3226.074, 25023.92
3228.002, 25041.66
3229.931, 25061.52
3231.859, 25078.06
3233.788, 25095.65
3235.716, 25109.85
3237.645, 25136.91
3239.573, 25187.97
3241.501, 25231.66
3243.430, 25258.06
3245.358, 25298.93
3247.287, 25358.40
3249.215, 25384.69
3251.144, 25391.65
3253.072, 25439.64
3255.001, 25501.34
3256.929, 25536.39
3258.858, 25555.69
3260.786, 25561.76
3262.715, 25569.28
3264.643, 25576.74
3266.572, 25604.71
3268.500, 25660.17
3270.428, 25708.19
3272.357, 25745.15
3274.285, 25765.61
3276.214, 25777.37
3278.142, 25825.22
3280.071, 25884.66
3281.999, 25912.29
3283.928, 25936.22
3285.856, 25993.71
3287.785, 26035.53
3289.713, 26036.81
3291.642, 26047.34
3293.570, 26089.60
3295.499, 26111.67
3297.427, 26114.79
3299.355, 26141.62
3301.284, 26183.02
3303.212, 26213.71
3305.141, 26236.82
3307.069, 26261.30
3308.998, 26277.69
3310.926, 26272.46
3312.855, 26279.18
3314.783, 26314.93
3316.712, 26337.16
3318.640, 26333.38
3320.569, 26364.93
3322.497, 26427.49
3324.426, 26490.05
3326.354, 26542.71
3328.282, 26562.51
3330.211, 26572.15
3332.139, 26592.85
3334.068, 26615.22
3335.996, 26642.45
3337.925, 26662.75
3339.853, 26674.14
3341.782, 26694.67
3343.710, 26725.65
3345.639, 26767.86
3347.567, 26815.25
3349.496, 26856.41
3351.424, 26888.71
3353.353, 26900.34
3355.281, 26917.68
3357.209, 26974.26
3359.138, 26999.48
3361.066, 26978.05
3362.995, 26966.02
3364.923, 26971.03
3366.852, 27022.19
3368.780, 27096.80
3370.709, 27131.72
3372.637, 27153.59
3374.566, 27187.65
3376.494, 27224.37
3378.423, 27257.28
3380.351, 27292.64
3382.280, 27329.89
3384.208, 27381.15
3386.136, 27443.06
3388.065, 27477.51
3389.993, 27497.56
3391.922, 27533.31
3393.851, 27578.14
3395.779, 27640.71
3397.708, 27685.51
3399.636, 27680.04
3401.564, 27696.07
3403.493, 27744.45
3405.421, 27793.07
3407.350, 27838.72
3409.278, 27872.93
3411.207, 27899.50
3413.135, 27923.26
3415.064, 27946.40
3416.992, 27966.26
3418.921, 27995.54
3420.849, 28037.03
3422.778, 28094.19
3424.706, 28169.57
3426.635, 28223.44
3428.563, 28260.21
3430.491, 28294.31
3432.420, 28324.20
3434.348, 28340.48
3436.277, 28366.91
3438.205, 28425.59
3440.134, 28471.80
3442.062, 28495.71
3443.991, 28521.77
3445.919, 28552.10
3447.848, 28594.58
3449.776, 28641.27
3451.705, 28677.36
3453.633, 28712.41
3455.562, 28764.02
3457.490, 28793.17
3459.418, 28785.30
3461.347, 28804.85
3463.275, 28855.91
3465.204, 28861.88
3467.132, 28845.82
3469.061, 28860.56
3470.989, 28889.76
3472.918, 28921.92
3474.846, 28961.05
3476.775, 29005.16
3478.703, 29053.35
3480.632, 29102.15
3482.560, 29145.60
3484.489, 29183.82
3486.417, 29222.82
3488.345, 29262.23
3490.274, 29310.82
3492.202, 29349.30
3494.131, 29361.86
3496.059, 29407.44
3497.988, 29495.63
3499.916, 29556.35
3501.845, 29594.94
3503.773, 29638.08
3505.702, 29673.51
3507.630, 29682.59
3509.559, 29696.29
3511.487, 29730.36
3513.416, 29771.40
3515.344, 29819.39
3517.272, 29858.12
3519.201, 29893.34
3521.129, 29940.10
3523.058, 29995.36
3524.986, 30067.10
3526.915, 30120.66
3528.843, 30118.77
3530.772, 30154.32
3532.700, 30226.60
3534.629, 30258.07
3536.557, 30269.84
3538.486, 30324.57
3540.414, 30380.28
3542.343, 30405.90
3544.271, 30426.69
3546.199, 30449.62
3548.128, 30479.21
3550.056, 30514.81
3551.985, 30544.25
3553.913, 30572.46
3555.842, 30608.06
3557.770, 30651.09
3559.699, 30714.61
3561.627, 30759.83
3563.556, 30779.28
3565.484, 30821.09
3567.413, 30880.37
3569.341, 30926.31
3571.270, 30967.21
3573.198, 31022.93
3575.126, 31060.99
3577.055, 31061.38
3578.983, 31087.14
3580.912, 31150.54
3582.840, 31192.41
3584.769, 31226.02
3586.697, 31284.66
3588.626, 31347.46
3590.554, 31391.70
3592.483, 31440.68
3594.411, 31496.26
3596.340, 31560.63
3598.268, 31627.67
3600.197, 31662.83
3602.125, 31686.16
3604.053, 31731.67
3605.982, 31764.61
3607.910, 31767.72
3609.839, 31788.99
3611.767, 31837.90
3613.696, 31886.40
3615.624, 31930.54
3617.553, 31956.61
3619.481, 31982.72
3621.410, 32024.40
3623.338, 32067.14
3625.267, 32109.32
3627.195, 32155.59
3629.124, 32206.30
3631.052, 32259.47
3632.980, 32317.18
3634.909, 32393.66
3636.837, 32444.02
3638.766, 32448.70
3640.694, 32478.06
3642.623, 32536.17
3644.551, 32580.96
3646.480, 32617.04
3648.408, 32635.90
3650.337, 32673.72
3652.265, 32748.82
3654.194, 32809.49
3656.122, 32846.35
3658.051, 32896.55
3659.979, 32942.63
3661.907, 32932.29
3663.836, 32948.05
3665.764, 33055.79
3667.693, 33141.80
3669.621, 33182.48
3671.550, 33212.30
3673.478, 33238.60
3675.407, 33275.63
3677.335, 33322.38
3679.264, 33385.71
3681.192, 33431.33
3683.121, 33449.10
3685.049, 33479.39
3686.978, 33520.96
3688.906, 33570.73
3690.834, 33616.14
3692.763, 33640.68
3694.691, 33672.78
3696.620, 33717.11
3698.548, 33774.90
3700.477, 33844.46
3702.405, 33933.90
3704.334, 34020.34
3706.262, 34083.39
3708.191, 34130.69
3710.119, 34161.68
3712.048, 34169.63
3713.976, 34167.08
3715.905, 34211.07
3717.833, 34262.53
3719.761, 34287.37
3721.690, 34328.27
3723.618, 34397.00
3725.547, 34433.11
3727.475, 34447.57
3729.404, 34491.27
3731.332, 34538.65
3733.261, 34565.11
3735.189, 34598.77
3737.118, 34645.93
3739.046, 34696.95
3740.975, 34744.61
3742.903, 34751.74
3744.832, 34764.76
3746.760, 34824.22
3748.688, 34877.07
3750.617, 34915.93
3752.545, 34943.84
3754.474, 34969.71
3756.402, 35006.05
3758.331, 35061.14
3760.259, 35146.96
3762.188, 35238.76
3764.116, 35328.58
3766.045, 35389.13
3767.973, 35430.46
3769.902, 35473.18
3771.830, 35508.70
3773.759, 35534.91
3775.687, 35562.85
3777.615, 35597.43
3779.544, 35637.23
3781.472, 35684.43
3783.401, 35738.39
3785.329, 35797.96
3787.258, 35871.69
3789.186, 35903.41
3791.115, 35908.42
3793.043, 35956.13
3794.972, 36004.69
3796.900, 36010.93
3798.829, 36040.32
3800.757, 36118.14
3802.686, 36161.93
3804.614, 36191.11
3806.542, 36245.39
3808.471, 36303.05
3810.399, 36350.75
3812.328, 36382.30
3814.256, 36397.57
3816.185, 36465.93
3818.113, 36539.11
3820.042, 36555.80
3821.970, 36559.84
3823.899, 36562.93
3825.827, 36612.98
3827.756, 36697.04
3829.684, 36763.14
3831.613, 36819.63
3833.541, 36869.11
3835.469, 36908.83
3837.398, 36939.16
3839.326, 36991.45
3841.255, 37049.20
3843.183, 37078.94
3845.112, 37103.80
3847.040, 37130.50
3848.969, 37170.42
3850.897, 37219.17
3852.826, 37245.11
3854.754, 37277.31
3856.683, 37345.89
3858.611, 37416.71
3860.540, 37484.62
3862.468, 37502.62
3864.396, 37506.57
3866.325, 37575.35
3868.253, 37638.12
3870.182, 37656.89
3872.110, 37698.69
3874.039, 37761.69
3875.967, 37808.58
3877.896, 37855.63
3879.824, 37913.79
3881.753, 37995.63
3883.681, 38108.18
3885.610, 38130.37
3887.538, 38126.30
3889.467, 38211.35
3891.395, 38287.00
3893.323, 38318.44
3895.252, 38336.07
3897.180, 38352.18
3899.109, 38408.56
3901.037, 38466.40
3902.966, 38487.86
3904.894, 38532.34
3906.823, 38603.93
3908.751, 38691.19
3910.680, 38765.43
3912.608, 38778.98
3914.537, 38805.71
3916.465, 38868.14
3918.394, 38928.29
3920.322, 38982.61
3922.250, 39025.56
3924.179, 39063.96
3926.107, 39099.63
3928.036, 39150.16
3929.964, 39206.00
3931.893, 39198.21
3933.821, 39189.71
3935.750, 39232.40
3937.678, 39275.94
3939.607, 39317.17
3941.535, 39393.77
3943.464, 39467.45
3945.392, 39477.10
3947.321, 39509.49
3949.249, 39578.52
3951.177, 39641.64
3953.106, 39689.69
3955.034, 39701.39
3956.963, 39717.23
3958.891, 39756.91
3960.820, 39807.04
3962.748, 39858.96
3964.677, 39873.81
3966.605, 39909.23
3968.534, 40003.23
3970.462, 40046.70
3972.391, 40044.02
3974.319, 40052.64
3976.248, 40077.46
3978.176, 40137.52
3980.104, 40167.66
3982.033, 40168.52
3983.961, 40235.04
3985.890, 40321.32
3987.818, 40387.13
3989.747, 40433.94
3991.675, 40465.20
3993.604, 40554.26
3995.532, 40657.37
3997.461, 40723.64
3999.389, 40763.43
4001.318, 40777.75
4003.246, 40796.74
4005.175, 40815.20
4007.103, 40815.04
4009.031, 40836.61
4010.960, 40897.80
4012.888, 40939.77
4014.817, 40967.34
4016.745, 40980.68
4018.674, 41013.79
4020.602, 41076.94
4022.531, 41155.27
4024.459, 41238.91
4026.388, 41304.04
4028.316, 41370.69
4030.245, 41462.11
4032.173, 41488.34
4034.102, 41473.16
4036.030, 41495.71
4037.958, 41518.61
4039.887, 41523.98
4041.815, 41535.31
4043.744, 41561.63
4045.672, 41625.64
4047.601, 41694.77
4049.529, 41753.93
4051.458, 41769.98
4053.386, 41757.51
4055.315, 41783.30
4057.243, 41833.15
4059.172, 41923.32
4061.100, 41991.17
4063.029, 42038.09
4064.957, 42052.63
4066.885, 42081.54
4068.814, 42147.43
4070.742, 42216.67
4072.671, 42279.66
4074.599, 42339.64
4076.528, 42368.30
4078.456, 42347.82
4080.385, 42378.07
4082.313, 42445.22
4084.242, 42463.35
4086.170, 42465.50
4088.099, 42447.77
4090.027, 42500.94
4091.956, 42597.08
4093.884, 42650.94
4095.813, 42687.04
4097.741, 42722.48
4099.669, 42725.64
4101.598, 42717.34
4103.526, 42744.75
4105.455, 42786.04
4107.383, 42828.86
4109.312, 42914.10
4111.240, 43018.36
4113.169, 43107.50
4115.097, 43150.02
4117.026, 43132.43
4118.954, 43139.07
4120.883, 43167.49
4122.811, 43221.13
4124.740, 43255.01
4126.668, 43241.71
4128.597, 43318.70
4130.525, 43431.14
4132.454, 43517.99
4134.382, 43563.37
4136.311, 43563.90
4138.239, 43615.27
4140.167, 43672.61
4142.096, 43678.00
4144.024, 43702.81
4145.953, 43750.67
4147.881, 43778.99
4149.810, 43793.96
4151.738, 43794.13
4153.667, 43824.06
4155.595, 43876.23
4157.523, 43887.34
4159.452, 43893.77
4161.380, 43917.61
4163.309, 43928.54
4165.237, 43941.13
4167.166, 44008.06
4169.094, 44091.39
4171.023, 44182.37
4172.951, 44203.75
4174.880, 44202.21
4176.808, 44285.64
4178.737, 44348.54
4180.665, 44362.14
4182.594, 44379.90
4184.522, 44395.85
4186.451, 44397.98
4188.379, 44402.18
4190.308, 44413.55
4192.236, 44466.44
4194.165, 44518.43
4196.093, 44535.11
4198.021, 44542.20
4199.950, 44548.61
4201.878, 44582.82
4203.807, 44607.79
4205.735, 44607.88
4207.664, 44619.14
4209.592, 44654.89
4211.521, 44737.71
4213.449, 44823.63
4215.377, 44895.61
4217.306, 44941.41
4219.234, 44965.49
4221.163, 44978.66
4223.091, 44975.98
4225.020, 44971.50
4226.948, 45023.26
4228.877, 45076.13
4230.805, 45085.35
4232.734, 45159.39
4234.662, 45273.77
4236.591, 45370.40
4238.519, 45434.20
4240.448, 45455.20
4242.376, 45435.13
##END=



