##NAMES=Microsommite
##RRUFFID=R100090
##IDEAL CHEMISTRY=[(Na,K)_6_(SO_4_)][Ca_2_Cl_2_][(Si_6_Al_6_O_24_)]
##LOCALITY=Monte Somma, Campania, Italy
##OWNER=RRUFF
##SOURCE=Marcus Origlieri
##DESCRIPTION=Aggregate of parallel striated colorless crystals
##STATUS=The identification of this mineral has been confirmed by single-crystal X-ray diffraction
##URL=https://www.rruff.net/odr/rruff_sample/R100090
##DIFFRACTION SAMPLE DESCRIPTION=Single crystal, powder profile is calculated
##CELL PARAMETERS=a: 12.76 b: 12.76 c: 5.3513 alpha: 90 beta: 90 gamma: 120 volume: 754.6 crystal system: hexagonal
##FILETYPE=Raman RAW
##RAMAN WAVELENGTH=532

157.7947, 781.5156
159.7231, 841.1370
161.6516, 900.0245
163.5801, 958.3365
165.5085, 986.8657
167.4370, 1023.021
169.3655, 1026.367
171.2939, 1027.803
173.2224, 1026.449
175.1509, 1023.053
177.0793, 1018.545
179.0078, 1010.761
180.9363, 1002.864
182.8647, 999.9156
184.7932, 1005.380
186.7217, 1008.935
188.6501, 1006.980
190.5786, 999.2110
192.5071, 991.6758
194.4355, 984.5441
196.3640, 977.0297
198.2925, 968.5061
200.2209, 959.0118
202.1494, 948.3196
204.0779, 936.6597
206.0063, 923.9152
207.9348, 909.7145
209.8633, 892.4152
211.7918, 874.3786
213.7202, 857.9384
215.6487, 844.4541
217.5772, 831.3121
219.5056, 817.2051
221.4341, 802.0919
223.3626, 788.4603
225.2910, 777.9749
227.2195, 768.7283
229.1480, 759.1796
231.0764, 747.8213
233.0049, 737.7537
234.9334, 729.5966
236.8618, 722.9066
238.7903, 716.7650
240.7188, 711.3240
242.6472, 706.6420
244.5757, 702.7360
246.5042, 699.5041
248.4326, 696.4912
250.3611, 693.9590
252.2896, 691.9361
254.2180, 689.4269
256.1465, 685.3112
258.0750, 681.3962
260.0034, 679.0881
261.9319, 678.6605
263.8604, 678.6302
265.7888, 678.0389
267.7173, 677.2256
269.6458, 678.1217
271.5742, 681.5734
273.5027, 686.0624
275.4312, 690.7380
277.3596, 695.4867
279.2881, 700.2779
281.2166, 706.0117
283.1450, 711.9578
285.0735, 716.6407
287.0020, 719.9843
288.9304, 721.8642
290.8589, 721.8448
292.7874, 718.9083
294.7158, 714.8323
296.6443, 710.1848
298.5728, 704.9738
300.5012, 699.1967
302.4297, 692.2547
304.3582, 686.3386
306.2866, 682.3080
308.2151, 680.3059
310.1436, 677.9953
312.0720, 674.3679
314.0005, 671.1309
315.9290, 669.4866
317.8574, 671.3625
319.7859, 672.8850
321.7144, 672.7393
323.6428, 671.6056
325.5713, 671.5833
327.4998, 673.8062
329.4282, 676.6699
331.3567, 679.3676
333.2852, 681.4949
335.2137, 683.2880
337.1421, 684.4785
339.0706, 685.2092
340.9991, 685.6830
342.9275, 685.3350
344.8560, 685.5709
346.7845, 687.3832
348.7129, 690.8875
350.6414, 693.7739
352.5699, 694.9945
354.4983, 695.6411
356.4268, 696.5309
358.3553, 698.1711
360.2837, 700.3884
362.2122, 703.3266
364.1407, 706.6692
366.0691, 709.8503
367.9976, 712.8437
369.9261, 716.1795
371.8545, 719.7191
373.7830, 723.0055
375.7115, 727.4832
377.6399, 734.1891
379.5684, 741.6154
381.4969, 748.3152
383.4253, 753.9219
385.3538, 759.3127
387.2823, 764.4677
389.2107, 769.1589
391.1392, 773.6915
393.0677, 778.3855
394.9961, 782.9499
396.9246, 787.1023
398.8531, 790.6780
400.7815, 795.8406
402.7100, 802.0075
404.6385, 810.7590
406.5669, 822.9882
408.4954, 838.8881
410.4239, 856.6073
412.3523, 875.8781
414.2808, 896.6444
416.2093, 917.7966
418.1377, 939.8580
420.0662, 960.8943
421.9947, 980.3682
423.9231, 997.5734
425.8516, 1013.134
427.7801, 1026.602
429.7085, 1039.146
431.6370, 1051.156
433.5655, 1063.039
435.4939, 1078.335
437.4224, 1097.313
439.3509, 1119.653
441.2793, 1146.410
443.2078, 1180.643
445.1363, 1216.433
447.0647, 1253.834
448.9932, 1291.783
450.9217, 1321.104
452.8501, 1339.618
454.7786, 1347.198
456.7071, 1343.879
458.6355, 1325.984
460.5640, 1300.101
462.4925, 1264.732
464.4209, 1225.436
466.3494, 1184.008
468.2779, 1139.406
470.2063, 1097.918
472.1348, 1061.602
474.0633, 1031.419
475.9917, 1004.259
477.9202, 979.5811
479.8487, 957.2643
481.7771, 938.3032
483.7056, 923.4492
485.6341, 909.1710
487.5625, 895.1578
489.4910, 882.1208
491.4195, 870.6441
493.3479, 860.2304
495.2764, 851.1227
497.2049, 843.2975
499.1333, 837.1618
501.0618, 832.5682
502.9903, 830.6730
504.9187, 829.4033
506.8472, 827.6313
508.7757, 824.4482
510.7041, 822.1913
512.6326, 821.8495
514.5610, 822.2299
516.4895, 821.7538
518.4180, 819.8722
520.3464, 818.3683
522.2749, 817.9459
524.2034, 818.4531
526.1318, 818.9954
528.0603, 819.4330
529.9888, 820.2208
531.9172, 821.8795
533.8457, 823.7073
535.7742, 824.8688
537.7026, 824.9208
539.6311, 825.1501
541.5596, 825.6599
543.4880, 826.6589
545.4165, 828.4174
547.3450, 831.5911
549.2734, 834.6927
551.2019, 836.9650
553.1304, 838.3060
555.0588, 839.4828
556.9873, 840.4861
558.9158, 841.5856
560.8442, 842.9596
562.7727, 844.3305
564.7012, 846.3025
566.6296, 849.3477
568.5581, 853.2800
570.4866, 856.9055
572.4150, 859.5322
574.3435, 861.9201
576.2720, 864.4074
578.2004, 867.3245
580.1289, 870.3174
582.0574, 873.0281
583.9859, 876.0443
585.9144, 879.7341
587.8428, 885.0709
589.7713, 890.2344
591.6998, 894.5473
593.6282, 898.7415
595.5567, 903.7355
597.4852, 909.4772
599.4136, 915.5248
601.3421, 921.6412
603.2706, 928.2571
605.1990, 935.6105
607.1275, 943.7332
609.0560, 952.4264
610.9844, 962.1353
612.9129, 972.6215
614.8414, 983.0984
616.7698, 995.0400
618.6983, 1004.166
620.6268, 1009.135
622.5552, 1010.202
624.4837, 1010.888
626.4122, 1012.331
628.3406, 1012.196
630.2691, 1008.947
632.1976, 1002.670
634.1260, 996.2045
636.0545, 989.2508
637.9830, 982.9449
639.9114, 977.1074
641.8399, 971.6892
643.7684, 968.6805
645.6968, 969.1791
647.6253, 971.8054
649.5538, 975.5257
651.4822, 980.4467
653.4107, 985.8734
655.3392, 992.7042
657.2676, 999.4883
659.1961, 1004.802
661.1246, 1008.872
663.0530, 1010.731
664.9815, 1009.235
666.9100, 1005.776
668.8384, 1002.140
670.7669, 998.0408
672.6954, 994.2779
674.6238, 990.8079
676.5523, 987.7698
678.4808, 985.1052
680.4092, 982.6639
682.3377, 980.7869
684.2662, 979.4720
686.1946, 978.7057
688.1231, 978.5811
690.0516, 980.2986
691.9800, 981.3131
693.9085, 980.1986
695.8370, 977.6904
697.7654, 976.0787
699.6939, 976.3334
701.6224, 976.5427
703.5508, 975.5449
705.4793, 973.1943
707.4078, 972.5728
709.3362, 974.8888
711.2647, 977.7491
713.1932, 980.2070
715.1216, 982.3221
717.0501, 983.9599
718.9786, 985.0350
720.9070, 985.7155
722.8355, 985.9118
724.7640, 985.5905
726.6924, 986.0583
728.6209, 987.4227
730.5494, 989.3610
732.4778, 991.8902
734.4063, 995.1591
736.3348, 998.5364
738.2632, 1002.008
740.1917, 1005.297
742.1202, 1008.309
744.0486, 1010.833
745.9771, 1013.123
747.9056, 1014.228
749.8340, 1015.951
751.7625, 1019.798
753.6910, 1026.436
755.6194, 1032.986
757.5479, 1037.943
759.4764, 1043.360
761.4048, 1051.461
763.3333, 1062.596
765.2618, 1075.201
767.1902, 1089.958
769.1187, 1105.192
771.0472, 1120.383
772.9756, 1137.275
774.9041, 1149.170
776.8326, 1154.803
778.7610, 1155.840
780.6895, 1152.764
782.6180, 1145.340
784.5464, 1135.961
786.4749, 1123.435
788.4034, 1109.673
790.3318, 1098.136
792.2603, 1089.282
794.1888, 1082.834
796.1172, 1079.315
798.0457, 1076.972
799.9742, 1074.492
801.9026, 1071.724
803.8311, 1069.098
805.7596, 1066.100
807.6880, 1064.468
809.6165, 1064.473
811.5450, 1066.416
813.4734, 1068.085
815.4019, 1069.392
817.3304, 1070.567
819.2589, 1071.974
821.1873, 1073.796
823.1158, 1075.804
825.0443, 1078.160
826.9727, 1080.226
828.9012, 1081.523
830.8297, 1083.018
832.7581, 1084.054
834.6866, 1084.765
836.6151, 1085.572
838.5435, 1085.705
840.4720, 1086.143
842.4005, 1087.817
844.3289, 1091.237
846.2574, 1094.108
848.1859, 1096.772
850.1143, 1100.164
852.0428, 1103.442
853.9713, 1105.336
855.8997, 1106.638
857.8282, 1108.897
859.7567, 1111.473
861.6851, 1113.102
863.6136, 1113.096
865.5421, 1113.028
867.4705, 1113.879
869.3990, 1115.508
871.3275, 1116.980
873.2559, 1118.391
875.1844, 1119.946
877.1129, 1120.995
879.0413, 1120.592
880.9698, 1120.273
882.8983, 1120.651
884.8267, 1122.065
886.7552, 1123.812
888.6837, 1125.813
890.6121, 1127.745
892.5406, 1128.736
894.4691, 1130.559
896.3975, 1134.764
898.3260, 1139.663
900.2545, 1143.211
902.1829, 1145.447
904.1114, 1148.108
906.0399, 1151.567
907.9683, 1155.167
909.8968, 1158.191
911.8253, 1160.282
913.7537, 1161.052
915.6822, 1160.168
917.6107, 1160.627
919.5391, 1163.028
921.4676, 1166.819
923.3961, 1171.019
925.3245, 1176.042
927.2530, 1180.607
929.1815, 1184.799
931.1099, 1188.921
933.0384, 1194.197
934.9669, 1201.819
936.8953, 1209.485
938.8238, 1216.734
940.7523, 1225.753
942.6807, 1237.089
944.6092, 1249.746
946.5377, 1261.961
948.4661, 1274.427
950.3946, 1290.102
952.3231, 1306.951
954.2515, 1322.116
956.1800, 1337.551
958.1085, 1359.212
960.0369, 1383.137
961.9654, 1409.356
963.8939, 1438.281
965.8223, 1471.955
967.7508, 1510.729
969.6793, 1560.090
971.6077, 1621.018
973.5362, 1694.585
975.4647, 1785.494
977.3931, 1903.652
979.3216, 2031.399
981.2501, 2162.609
983.1785, 2293.930
985.1070, 2396.457
987.0355, 2459.070
988.9639, 2488.990
990.8924, 2457.964
992.8209, 2361.830
994.7493, 2234.872
996.6778, 2097.771
998.6063, 1949.220
1000.535, 1820.410
1002.463, 1710.933
1004.392, 1623.389
1006.320, 1561.886
1008.249, 1524.202
1010.177, 1503.199
1012.106, 1495.488
1014.034, 1493.588
1015.962, 1494.134
1017.891, 1495.280
1019.819, 1494.116
1021.748, 1492.082
1023.676, 1487.688
1025.605, 1480.399
1027.533, 1470.797
1029.462, 1459.711
1031.390, 1447.850
1033.319, 1438.020
1035.247, 1430.301
1037.176, 1425.124
1039.104, 1422.896
1041.032, 1423.956
1042.961, 1428.218
1044.889, 1435.318
1046.818, 1444.588
1048.746, 1455.284
1050.675, 1466.705
1052.603, 1477.865
1054.532, 1487.710
1056.460, 1492.850
1058.389, 1493.255
1060.317, 1489.847
1062.246, 1483.115
1064.174, 1472.074
1066.103, 1459.170
1068.031, 1446.264
1069.959, 1434.056
1071.888, 1422.574
1073.816, 1410.829
1075.745, 1399.252
1077.673, 1388.764
1079.602, 1379.022
1081.530, 1370.201
1083.459, 1362.811
1085.387, 1357.963
1087.316, 1355.270
1089.244, 1353.801
1091.173, 1353.119
1093.101, 1353.047
1095.030, 1353.920
1096.958, 1356.850
1098.887, 1361.570
1100.815, 1365.725
1102.744, 1368.181
1104.672, 1369.098
1106.600, 1369.664
1108.529, 1371.168
1110.457, 1371.959
1112.386, 1371.371
1114.314, 1371.396
1116.243, 1373.491
1118.171, 1376.930
1120.100, 1379.250
1122.028, 1380.208
1123.957, 1382.259
1125.885, 1386.001
1127.814, 1389.712
1129.742, 1391.445
1131.671, 1391.395
1133.599, 1391.284
1135.527, 1390.920
1137.456, 1390.263
1139.384, 1389.998
1141.313, 1389.180
1143.241, 1386.242
1145.170, 1382.728
1147.098, 1380.533
1149.027, 1379.457
1150.955, 1378.110
1152.884, 1376.902
1154.812, 1376.073
1156.741, 1373.793
1158.669, 1369.651
1160.598, 1365.069
1162.526, 1360.647
1164.454, 1357.391
1166.383, 1353.950
1168.311, 1350.597
1170.240, 1349.016
1172.168, 1349.875
1174.097, 1350.246
1176.025, 1348.972
1177.954, 1347.229
1179.882, 1345.545
1181.811, 1343.972
1183.739, 1343.199
1185.668, 1344.022
1187.596, 1344.645
1189.525, 1342.433
1191.453, 1339.537
1193.381, 1339.365
1195.310, 1342.457
1197.238, 1344.817
1199.167, 1344.979
1201.095, 1344.974
1203.024, 1345.728
1204.952, 1347.281
1206.881, 1348.385
1208.809, 1348.038
1210.738, 1348.091
1212.666, 1350.808
1214.595, 1354.862
1216.523, 1356.560
1218.452, 1355.526
1220.380, 1353.967
1222.308, 1352.169
1224.237, 1351.804
1226.165, 1353.342
1228.094, 1355.415
1230.022, 1357.432
1231.951, 1359.866
1233.879, 1362.482
1235.808, 1364.572
1237.736, 1365.435
1239.665, 1365.603
1241.593, 1365.471
1243.522, 1365.249
1245.450, 1363.769
1247.379, 1363.525
1249.307, 1366.686
1251.235, 1371.118
1253.164, 1373.479
1255.092, 1373.693
1257.021, 1374.295
1258.949, 1375.800
1260.878, 1377.139
1262.806, 1378.553
1264.735, 1380.322
1266.663, 1381.119
1268.592, 1380.038
1270.520, 1379.003
1272.449, 1378.664
1274.377, 1379.085
1276.306, 1379.949
1278.234, 1381.089
1280.162, 1383.062
1282.091, 1386.654
1284.019, 1390.510
1285.948, 1393.056
1287.876, 1395.043
1289.805, 1400.665
1291.733, 1410.956
1293.662, 1416.808
1295.590, 1413.200
1297.519, 1408.756
1299.447, 1408.710
1301.376, 1411.094
1303.304, 1411.673
1305.233, 1409.713
1307.161, 1408.680
1309.089, 1410.070
1311.018, 1411.917
1312.946, 1413.832
1314.875, 1416.145
1316.803, 1418.123
1318.732, 1418.523
1320.660, 1419.691
1322.589, 1422.856
1324.517, 1426.632
1326.446, 1428.738
1328.374, 1428.605
1330.303, 1429.446
1332.231, 1432.436
1334.160, 1434.903
1336.088, 1435.584
1338.016, 1435.710
1339.945, 1436.703
1341.873, 1438.690
1343.802, 1441.112
1345.730, 1444.582
1347.659, 1447.535
1349.587, 1449.094
1351.516, 1449.617
1353.444, 1449.795
1355.373, 1449.010
1357.301, 1449.500
1359.230, 1452.553
1361.158, 1455.877
1363.087, 1458.019
1365.015, 1460.891
1366.943, 1463.735
1368.872, 1465.528
1370.800, 1468.810
1372.729, 1470.555
1374.657, 1471.838
1376.586, 1473.620
1378.514, 1475.804
1380.443, 1477.145
1382.371, 1477.014
1384.300, 1477.275
1386.228, 1479.003
1388.157, 1480.730
1390.085, 1480.641
1392.014, 1479.188
1393.942, 1479.391
1395.870, 1482.228
1397.799, 1484.962
1399.727, 1487.169
1401.656, 1488.708
1403.584, 1488.993
1405.513, 1487.945
1407.441, 1487.702
1409.370, 1489.433
1411.298, 1490.893
1413.227, 1489.994
1415.155, 1488.933
1417.084, 1490.964
1419.012, 1497.057
1420.941, 1501.529
1422.869, 1502.909
1424.797, 1504.236
1426.726, 1506.698
1428.654, 1509.324
1430.583, 1510.518
1432.511, 1509.743
1434.440, 1511.151
1436.368, 1517.786
1438.297, 1522.989
1440.225, 1523.530
1442.154, 1521.974
1444.082, 1521.633
1446.011, 1522.598
1447.939, 1523.683
1449.868, 1524.251
1451.796, 1525.695
1453.724, 1529.970
1455.653, 1534.441
1457.581, 1536.239
1459.510, 1535.904
1461.438, 1536.928
1463.367, 1540.635
1465.295, 1543.450
1467.224, 1543.359
1469.152, 1542.944
1471.081, 1544.038
1473.009, 1546.744
1474.938, 1549.845
1476.866, 1553.455
1478.795, 1556.390
1480.723, 1558.743
1482.651, 1560.221
1484.580, 1560.137
1486.508, 1558.737
1488.437, 1558.899
1490.365, 1561.684
1492.294, 1564.727
1494.222, 1567.622
1496.151, 1570.845
1498.079, 1574.937
1500.008, 1579.541
1501.936, 1582.532
1503.865, 1582.844
1505.793, 1583.720
1507.722, 1585.845
1509.650, 1588.279
1511.578, 1591.900
1513.507, 1595.707
1515.435, 1596.084
1517.364, 1591.961
1519.292, 1588.793
1521.221, 1587.997
1523.149, 1588.370
1525.078, 1589.420
1527.006, 1590.273
1528.935, 1590.339
1530.863, 1589.974
1532.792, 1590.435
1534.720, 1592.067
1536.649, 1593.478
1538.577, 1593.765
1540.505, 1594.273
1542.434, 1597.249
1544.362, 1602.071
1546.291, 1602.680
1548.219, 1596.533
1550.148, 1592.222
1552.076, 1592.955
1554.005, 1595.277
1555.933, 1597.269
1557.862, 1599.072
1559.790, 1601.050
1561.719, 1603.307
1563.647, 1605.411
1565.576, 1607.603
1567.504, 1609.359
1569.432, 1610.526
1571.361, 1611.425
1573.289, 1612.371
1575.218, 1613.247
1577.146, 1614.224
1579.075, 1614.942
1581.003, 1616.168
1582.932, 1618.057
1584.860, 1620.356
1586.789, 1622.874
1588.717, 1625.518
1590.646, 1627.909
1592.574, 1630.546
1594.503, 1632.335
1596.431, 1632.535
1598.359, 1632.336
1600.288, 1632.517
1602.216, 1633.189
1604.145, 1634.333
1606.073, 1636.634
1608.002, 1637.869
1609.930, 1636.700
1611.859, 1636.173
1613.787, 1637.151
1615.716, 1639.204
1617.644, 1642.282
1619.573, 1646.195
1621.501, 1648.773
1623.430, 1649.231
1625.358, 1649.999
1627.286, 1651.827
1629.215, 1653.677
1631.143, 1654.651
1633.072, 1655.344
1635.000, 1657.144
1636.929, 1660.179
1638.857, 1663.154
1640.786, 1665.527
1642.714, 1668.443
1644.643, 1672.635
1646.571, 1677.126
1648.500, 1681.511
1650.428, 1685.334
1652.357, 1686.441
1654.285, 1683.578
1656.214, 1682.733
1658.142, 1688.096
1660.070, 1692.085
1661.999, 1689.189
1663.927, 1684.292
1665.856, 1684.695
1667.784, 1689.945
1669.713, 1694.256
1671.641, 1696.536
1673.570, 1700.037
1675.498, 1707.203
1677.427, 1714.262
1679.355, 1718.662
1681.284, 1721.282
1683.212, 1723.511
1685.141, 1725.188
1687.069, 1728.109
1688.997, 1733.049
1690.926, 1737.667
1692.854, 1740.454
1694.783, 1743.211
1696.711, 1747.856
1698.640, 1753.608
1700.568, 1758.286
1702.497, 1761.873
1704.425, 1764.833
1706.354, 1767.984
1708.282, 1769.180
1710.211, 1765.683
1712.139, 1761.547
1714.068, 1761.405
1715.996, 1763.925
1717.924, 1763.913
1719.853, 1760.722
1721.781, 1759.309
1723.710, 1760.934
1725.638, 1763.591
1727.567, 1766.943
1729.495, 1769.996
1731.424, 1771.743
1733.352, 1772.033
1735.281, 1770.763
1737.209, 1767.578
1739.138, 1764.589
1741.066, 1762.441
1742.995, 1760.742
1744.923, 1759.750
1746.851, 1759.328
1748.780, 1759.001
1750.708, 1759.079
1752.637, 1760.756
1754.565, 1764.152
1756.494, 1768.006
1758.422, 1773.062
1760.351, 1776.779
1762.279, 1777.653
1764.208, 1777.068
1766.136, 1776.152
1768.065, 1775.023
1769.993, 1773.999
1771.922, 1773.123
1773.850, 1772.722
1775.778, 1772.223
1777.707, 1773.225
1779.635, 1777.333
1781.564, 1782.083
1783.492, 1785.817
1785.421, 1788.334
1787.349, 1788.778
1789.278, 1786.441
1791.206, 1785.220
1793.135, 1785.946
1795.063, 1786.820
1796.992, 1788.358
1798.920, 1789.163
1800.849, 1787.306
1802.777, 1784.380
1804.705, 1783.915
1806.634, 1786.300
1808.562, 1788.818
1810.491, 1791.264
1812.419, 1794.114
1814.348, 1797.967
1816.276, 1801.299
1818.205, 1802.629
1820.133, 1803.126
1822.062, 1804.979
1823.990, 1808.032
1825.919, 1808.541
1827.847, 1803.729
1829.776, 1802.439
1831.704, 1808.576
1833.632, 1814.042
1835.561, 1815.697
1837.489, 1816.412
1839.418, 1819.242
1841.346, 1819.599
1843.275, 1820.167
1845.203, 1821.706
1847.132, 1820.800
1849.060, 1822.873
1850.989, 1824.405
1852.917, 1824.462
1854.846, 1823.768
1856.774, 1821.755
1858.703, 1819.816
1860.631, 1820.520
1862.559, 1823.506
1864.488, 1825.155
1866.416, 1824.902
1868.345, 1826.080
1870.273, 1831.111
1872.202, 1834.483
1874.130, 1832.184
1876.059, 1829.217
1877.987, 1829.620
1879.916, 1832.188
1881.844, 1834.432
1883.773, 1836.259
1885.701, 1838.914
1887.630, 1842.860
1889.558, 1845.670
1891.486, 1845.218
1893.415, 1845.376
1895.343, 1849.434
1897.272, 1854.004
1899.200, 1855.344
1901.129, 1854.410
1903.057, 1854.326
1904.986, 1855.513
1906.914, 1856.319
1908.843, 1855.317
1910.771, 1856.091
1912.700, 1860.123
1914.628, 1864.497
1916.557, 1866.229
1918.485, 1868.199
1920.413, 1875.235
1922.342, 1885.969
1924.270, 1893.128
1926.199, 1896.536
1928.127, 1897.128
1930.056, 1892.243
1931.984, 1889.527
1933.913, 1891.220
1935.841, 1894.297
1937.770, 1898.118
1939.698, 1901.803
1941.627, 1903.807
1943.555, 1907.555
1945.484, 1907.579
1947.412, 1912.819
1949.340, 1916.240
1951.269, 1916.937
1953.197, 1917.689
1955.126, 1919.109
1957.054, 1921.271
1958.983, 1924.466
1960.911, 1928.301
1962.840, 1932.231
1964.768, 1936.397
1966.697, 1941.726
1968.625, 1948.193
1970.554, 1951.982
1972.482, 1950.870
1974.411, 1951.295
1976.339, 1956.145
1978.267, 1960.273
1980.196, 1962.182
1982.124, 1962.511
1984.053, 1961.032
1985.981, 1958.901
1987.910, 1958.306
1989.838, 1959.234
1991.767, 1961.287
1993.695, 1964.733
1995.624, 1967.964
1997.552, 1970.896
1999.481, 1973.163
2001.409, 1974.801
2003.338, 1975.657
2005.266, 1974.898
2007.194, 1974.017
2009.123, 1975.850
2011.051, 1978.989
2012.980, 1978.171
2014.908, 1973.192
2016.837, 1968.934
2018.765, 1966.167
2020.694, 1963.432
2022.622, 1960.065
2024.551, 1957.516
2026.479, 1955.632
2028.408, 1955.760
2030.336, 1960.983
2032.265, 1967.771
2034.193, 1969.587
2036.121, 1966.619
2038.050, 1962.924
2039.978, 1957.701
2041.907, 1953.674
2043.835, 1951.554
2045.764, 1949.757
2047.692, 1948.779
2049.621, 1947.695
2051.549, 1944.670
2053.478, 1942.982
2055.406, 1946.362
2057.334, 1952.263
2059.263, 1955.936
2061.191, 1957.446
2063.120, 1957.921
2065.049, 1957.096
2066.977, 1958.063
2068.906, 1963.091
2070.834, 1965.225
2072.762, 1960.955
2074.691, 1956.154
2076.619, 1953.034
2078.548, 1950.904
2080.476, 1948.761
2082.405, 1949.360
2084.333, 1948.936
2086.262, 1952.865
2088.190, 1956.779
2090.119, 1960.816
2092.047, 1964.265
2093.976, 1966.890
2095.904, 1969.100
2097.833, 1970.309
2099.761, 1971.588
2101.689, 1973.830
2103.618, 1975.215
2105.546, 1973.502
2107.475, 1971.193
2109.403, 1971.804
2111.332, 1974.466
2113.260, 1976.751
2115.189, 1978.842
2117.117, 1979.534
2119.046, 1977.771
2120.974, 1977.443
2122.903, 1979.811
2124.831, 1981.421
2126.760, 1979.809
2128.688, 1979.480
2130.616, 1984.976
2132.545, 1990.017
2134.473, 1987.859
2136.402, 1983.115
2138.330, 1983.337
2140.259, 1987.289
2142.187, 1990.684
2144.116, 1993.276
2146.044, 1994.369
2147.973, 1993.821
2149.901, 1992.141
2151.830, 1988.664
2153.758, 1986.337
2155.687, 1986.981
2157.615, 1988.076
2159.543, 1987.910
2161.472, 1987.951
2163.400, 1989.531
2165.329, 1991.441
2167.257, 1991.421
2169.186, 1993.200
2171.114, 1991.126
2173.043, 1994.946
2174.971, 1996.663
2176.900, 1996.357
2178.828, 1994.754
2180.757, 1990.652
2182.685, 1989.878
2184.614, 1995.935
2186.542, 2002.096
2188.470, 2005.638
2190.399, 2007.582
2192.327, 2008.182
2194.256, 2007.949
2196.184, 2006.254
2198.113, 2004.929
2200.041, 2009.828
2201.970, 2020.286
2203.898, 2024.399
2205.827, 2021.649
2207.755, 2018.605
2209.684, 2015.311
2211.612, 2013.328
2213.541, 2013.333
2215.469, 2013.865
2217.397, 2014.137
2219.326, 2015.579
2221.254, 2019.597
2223.183, 2024.156
2225.111, 2026.834
2227.040, 2029.778
2228.968, 2038.125
2230.897, 2047.949
2232.825, 2047.547
2234.754, 2038.311
2236.682, 2036.656
2238.611, 2042.833
2240.539, 2048.234
2242.468, 2052.706
2244.396, 2052.750
2246.324, 2045.708
2248.253, 2039.697
2250.181, 2036.550
2252.110, 2035.544
2254.038, 2038.447
2255.967, 2041.253
2257.895, 2041.283
2259.824, 2040.436
2261.752, 2039.993
2263.681, 2040.109
2265.609, 2041.012
2267.538, 2042.598
2269.466, 2044.984
2271.395, 2047.956
2273.323, 2050.353
2275.251, 2052.081
2277.180, 2054.265
2279.108, 2057.179
2281.037, 2060.188
2282.965, 2063.689
2284.894, 2066.530
2286.822, 2067.915
2288.751, 2069.457
2290.679, 2071.907
2292.608, 2074.235
2294.536, 2075.649
2296.465, 2076.905
2298.393, 2078.440
2300.322, 2080.353
2302.250, 2083.663
2304.178, 2087.143
2306.107, 2087.217
2308.035, 2084.664
2309.964, 2084.192
2311.892, 2085.713
2313.821, 2091.085
2315.749, 2102.898
2317.678, 2107.382
2319.606, 2100.828
2321.535, 2097.519
2323.463, 2100.961
2325.392, 2104.930
2327.320, 2109.052
2329.249, 2111.177
2331.177, 2107.514
2333.105, 2105.558
2335.034, 2110.906
2336.962, 2118.298
2338.891, 2124.401
2340.819, 2128.544
2342.748, 2129.059
2344.676, 2127.253
2346.605, 2125.533
2348.533, 2124.237
2350.462, 2124.854
2352.390, 2127.316
2354.319, 2129.297
2356.247, 2130.582
2358.176, 2134.480
2360.104, 2142.813
2362.032, 2149.205
2363.961, 2152.248
2365.889, 2155.588
2367.818, 2159.365
2369.746, 2163.954
2371.675, 2170.453
2373.603, 2176.360
2375.532, 2179.438
2377.460, 2183.787
2379.389, 2192.203
2381.317, 2201.847
2383.246, 2210.413
2385.174, 2218.661
2387.103, 2228.470
2389.031, 2237.501
2390.959, 2242.610
2392.888, 2244.294
2394.816, 2243.156
2396.745, 2240.101
2398.673, 2238.018
2400.602, 2236.841
2402.530, 2232.537
2404.459, 2231.123
2406.387, 2228.845
2408.316, 2224.721
2410.244, 2224.853
2412.173, 2217.991
2414.101, 2215.575
2416.030, 2220.358
2417.958, 2224.977
2419.886, 2228.297
2421.815, 2230.521
2423.743, 2230.586
2425.672, 2231.407
2427.600, 2233.785
2429.529, 2237.747
2431.457, 2245.055
2433.386, 2252.096
2435.314, 2255.322
2437.243, 2258.121
2439.171, 2263.151
2441.100, 2269.233
2443.028, 2275.529
2444.957, 2281.123
2446.885, 2285.533
2448.813, 2287.910
2450.742, 2285.823
2452.670, 2280.493
2454.599, 2276.760
2456.527, 2274.908
2458.456, 2272.360
2460.384, 2269.492
2462.313, 2267.259
2464.241, 2265.598
2466.170, 2266.089
2468.098, 2268.833
2470.027, 2271.469
2471.955, 2272.864
2473.884, 2274.439
2475.812, 2276.305
2477.740, 2277.337
2479.669, 2277.637
2481.597, 2277.228
2483.526, 2276.030
2485.454, 2275.560
2487.383, 2271.720
2489.311, 2268.234
2491.240, 2264.819
2493.168, 2264.070
2495.097, 2269.028
2497.025, 2274.262
2498.954, 2274.010
2500.882, 2274.820
2502.811, 2283.313
2504.739, 2292.187
2506.667, 2294.639
2508.596, 2293.987
2510.524, 2294.053
2512.453, 2294.236
2514.381, 2294.010
2516.310, 2293.337
2518.238, 2290.102
2520.167, 2286.916
2522.095, 2290.352
2524.024, 2298.616
2525.952, 2306.612
2527.881, 2314.008
2529.809, 2320.986
2531.738, 2324.775
2533.666, 2330.099
2535.594, 2329.520
2537.523, 2328.835
2539.451, 2328.300
2541.380, 2326.913
2543.308, 2324.554
2545.237, 2323.481
2547.165, 2323.010
2549.094, 2326.810
2551.022, 2337.492
2552.951, 2344.630
2554.879, 2347.304
2556.808, 2348.012
2558.736, 2346.244
2560.665, 2346.410
2562.593, 2350.541
2564.521, 2354.082
2566.450, 2357.042
2568.378, 2357.401
2570.307, 2351.599
2572.235, 2348.477
2574.164, 2351.704
2576.092, 2353.626
2578.021, 2349.128
2579.949, 2347.746
2581.878, 2357.332
2583.806, 2365.343
2585.735, 2365.571
2587.663, 2364.216
2589.592, 2362.531
2591.520, 2362.312
2593.448, 2365.907
2595.377, 2368.844
2597.305, 2366.859
2599.234, 2364.780
2601.162, 2366.597
2603.091, 2368.930
2605.019, 2368.635
2606.948, 2368.573
2608.876, 2372.813
2610.805, 2377.163
2612.733, 2376.199
2614.662, 2375.566
2616.590, 2382.324
2618.519, 2391.094
2620.447, 2394.698
2622.375, 2396.755
2624.304, 2403.043
2626.232, 2404.217
2628.161, 2410.551
2630.089, 2409.402
2632.018, 2412.379
2633.946, 2417.095
2635.875, 2420.195
2637.803, 2421.797
2639.732, 2421.778
2641.660, 2420.432
2643.589, 2416.528
2645.517, 2412.719
2647.446, 2416.205
2649.374, 2422.922
2651.302, 2423.200
2653.231, 2419.255
2655.159, 2416.659
2657.088, 2415.065
2659.016, 2413.214
2660.945, 2411.586
2662.873, 2411.856
2664.802, 2413.640
2666.730, 2415.960
2668.659, 2418.757
2670.587, 2421.719
2672.516, 2424.621
2674.444, 2426.547
2676.373, 2427.391
2678.301, 2426.835
2680.229, 2425.147
2682.158, 2423.154
2684.086, 2421.526
2686.015, 2424.442
2687.943, 2430.940
2689.872, 2434.695
2691.800, 2436.174
2693.729, 2436.995
2695.657, 2437.153
2697.586, 2436.483
2699.514, 2435.282
2701.443, 2435.401
2703.371, 2435.171
2705.300, 2434.028
2707.228, 2435.529
2709.156, 2436.369
2711.085, 2436.481
2713.013, 2439.242
2714.942, 2439.555
2716.870, 2440.443
2718.799, 2441.975
2720.727, 2446.011
2722.656, 2451.406
2724.584, 2452.064
2726.513, 2449.828
2728.441, 2453.447
2730.370, 2452.750
2732.298, 2452.041
2734.227, 2453.854
2736.155, 2450.836
2738.083, 2450.440
2740.012, 2451.161
2741.940, 2452.964
2743.869, 2456.431
2745.797, 2458.523
2747.726, 2461.819
2749.654, 2465.136
2751.583, 2468.474
2753.511, 2472.659
2755.440, 2476.086
2757.368, 2478.390
2759.297, 2478.320
2761.225, 2476.757
2763.154, 2476.633
2765.082, 2476.256
2767.010, 2469.409
2768.939, 2472.213
2770.867, 2465.126
2772.796, 2473.176
2774.724, 2474.830
2776.653, 2474.331
2778.581, 2479.776
2780.510, 2480.233
2782.438, 2486.329
2784.367, 2484.171
2786.295, 2484.058
2788.224, 2485.451
2790.152, 2489.426
2792.081, 2492.878
2794.009, 2490.769
2795.938, 2488.356
2797.866, 2490.334
2799.794, 2493.853
2801.723, 2497.051
2803.651, 2499.445
2805.580, 2500.680
2807.508, 2500.830
2809.437, 2499.661
2811.365, 2498.518
2813.294, 2498.109
2815.222, 2499.086
2817.151, 2504.441
2819.079, 2507.587
2821.008, 2502.554
2822.936, 2499.945
2824.865, 2506.135
2826.793, 2512.373
2828.721, 2513.604
2830.650, 2516.274
2832.578, 2524.315
2834.507, 2529.005
2836.435, 2526.948
2838.364, 2525.152
2840.292, 2527.063
2842.221, 2527.634
2844.149, 2525.146
2846.078, 2524.665
2848.006, 2527.039
2849.935, 2530.243
2851.863, 2534.082
2853.792, 2537.616
2855.720, 2540.628
2857.648, 2542.930
2859.577, 2544.299
2861.505, 2546.571
2863.434, 2549.860
2865.362, 2556.319
2867.291, 2566.254
2869.219, 2571.833
2871.148, 2572.943
2873.076, 2573.033
2875.005, 2572.268
2876.933, 2571.064
2878.862, 2569.969
2880.790, 2570.705
2882.719, 2573.006
2884.647, 2575.994
2886.575, 2579.325
2888.504, 2582.003
2890.432, 2584.719
2892.361, 2589.864
2894.289, 2594.977
2896.218, 2596.199
2898.146, 2595.971
2900.075, 2595.972
2902.003, 2596.918
2903.932, 2599.296
2905.860, 2602.451
2907.789, 2607.160
2909.717, 2610.207
2911.646, 2608.625
2913.574, 2607.668
2915.502, 2610.528
2917.431, 2614.174
2919.359, 2617.609
2921.288, 2622.280
2923.216, 2629.972
2925.145, 2633.556
2927.073, 2628.989
2929.002, 2627.941
2930.930, 2635.903
2932.859, 2640.254
2934.787, 2640.460
2936.716, 2639.009
2938.644, 2636.090
2940.573, 2639.314
2942.501, 2649.448
2944.429, 2654.426
2946.358, 2654.715
2948.286, 2658.565
2950.215, 2664.051
2952.143, 2662.228
2954.072, 2666.432
2956.000, 2661.764
2957.929, 2670.526
2959.857, 2676.546
2961.786, 2679.639
2963.714, 2676.991
2965.643, 2674.607
2967.571, 2680.043
2969.500, 2686.196
2971.428, 2686.960
2973.356, 2688.071
2975.285, 2694.329
2977.213, 2698.954
2979.142, 2697.330
2981.070, 2697.236
2982.999, 2701.412
2984.927, 2703.974
2986.856, 2702.877
2988.784, 2703.016
2990.713, 2704.862
2992.641, 2709.276
2994.570, 2712.459
2996.498, 2721.067
2998.427, 2722.699
3000.355, 2726.938
3002.283, 2733.065
3004.212, 2733.180
3006.140, 2729.965
3008.069, 2735.273
3009.997, 2733.323
3011.926, 2740.987
3013.854, 2736.551
3015.783, 2741.798
3017.711, 2749.653
3019.640, 2753.689
3021.568, 2757.139
3023.497, 2761.762
3025.425, 2766.550
3027.354, 2771.924
3029.282, 2775.251
3031.210, 2775.069
3033.139, 2775.755
3035.067, 2780.050
3036.996, 2782.817
3038.924, 2783.421
3040.853, 2785.599
3042.781, 2789.507
3044.710, 2794.008
3046.638, 2798.730
3048.567, 2799.888
3050.495, 2798.867
3052.424, 2802.162
3054.352, 2808.674
3056.281, 2817.674
3058.209, 2826.246
3060.137, 2828.657
3062.066, 2829.570
3063.994, 2832.015
3065.923, 2835.340
3067.851, 2840.303
3069.780, 2843.892
3071.708, 2844.093
3073.637, 2845.833
3075.565, 2852.030
3077.494, 2855.139
3079.422, 2850.313
3081.351, 2851.044
3083.279, 2857.542
3085.208, 2862.884
3087.136, 2866.669
3089.064, 2869.419
3090.993, 2871.539
3092.921, 2875.400
3094.850, 2878.946
3096.778, 2875.449
3098.707, 2871.460
3100.635, 2875.133
3102.564, 2880.801
3104.492, 2883.887
3106.421, 2887.396
3108.349, 2892.762
3110.278, 2898.873
3112.206, 2906.641
3114.135, 2912.225
3116.063, 2914.677
3117.991, 2916.643
3119.920, 2917.911
3121.848, 2924.468
3123.777, 2925.738
3125.705, 2937.522
3127.634, 2933.026
3129.562, 2936.612
3131.491, 2943.084
3133.419, 2940.788
3135.348, 2938.488
3137.276, 2947.947
3139.205, 2957.582
3141.133, 2959.635
3143.062, 2960.540
3144.990, 2963.008
3146.918, 2964.401
3148.847, 2963.315
3150.775, 2964.978
3152.704, 2970.300
3154.632, 2978.242
3156.561, 2988.322
3158.489, 2994.839
3160.418, 2998.338
3162.346, 3001.408
3164.275, 3004.091
3166.203, 3005.412
3168.132, 3007.914
3170.060, 3016.968
3171.989, 3024.284
3173.917, 3023.344
3175.845, 3021.857
3177.774, 3021.876
3179.702, 3023.679
3181.631, 3027.003
3183.559, 3033.173
3185.488, 3042.043
3187.416, 3049.133
3189.345, 3054.274
3191.273, 3060.389
3193.202, 3066.202
3195.130, 3067.544
3197.059, 3072.851
3198.987, 3073.250
3200.916, 3078.377
3202.844, 3080.432
3204.772, 3079.959
3206.701, 3075.762
3208.629, 3074.414
3210.558, 3078.241
3212.486, 3083.621
3214.415, 3090.056
3216.343, 3098.418
3218.272, 3107.863
3220.200, 3113.028
3222.129, 3116.451
3224.057, 3127.342
3225.986, 3139.040
3227.914, 3144.581
3229.843, 3146.443
3231.771, 3143.926
3233.699, 3143.323
3235.628, 3147.716
3237.556, 3151.293
3239.485, 3151.850
3241.413, 3155.089
3243.342, 3161.267
3245.270, 3164.003
3247.199, 3165.261
3249.127, 3176.044
3251.056, 3178.957
3252.984, 3191.708
3254.913, 3192.388
3256.841, 3203.614
3258.770, 3213.153
3260.698, 3213.607
3262.626, 3212.206
3264.555, 3208.982
3266.483, 3211.929
3268.412, 3224.017
3270.340, 3230.522
3272.269, 3232.016
3274.197, 3230.494
3276.126, 3229.853
3278.054, 3240.804
3279.983, 3254.077
3281.911, 3259.437
3283.840, 3264.153
3285.768, 3271.986
3287.697, 3280.069
3289.625, 3287.516
3291.553, 3293.974
3293.482, 3299.052
3295.410, 3302.110
3297.339, 3303.431
3299.267, 3304.883
3301.196, 3306.806
3303.124, 3309.476
3305.053, 3313.236
3306.981, 3319.597
3308.910, 3325.086
3310.838, 3327.880
3312.767, 3330.489
3314.695, 3333.000
3316.624, 3338.207
3318.552, 3341.812
3320.480, 3346.071
3322.409, 3351.278
3324.337, 3354.919
3326.266, 3359.666
3328.194, 3364.020
3330.123, 3367.729
3332.051, 3370.306
3333.980, 3372.436
3335.908, 3373.835
3337.837, 3377.410
3339.765, 3384.958
3341.694, 3387.769
3343.622, 3386.460
3345.551, 3384.416
3347.479, 3383.413
3349.407, 3386.358
3351.336, 3392.259
3353.264, 3401.753
3355.193, 3410.183
3357.121, 3414.512
3359.050, 3417.664
3360.978, 3419.438
3362.907, 3421.809
3364.835, 3425.305
3366.764, 3434.443
3368.692, 3445.927
3370.621, 3450.362
3372.549, 3452.415
3374.478, 3455.351
3376.406, 3459.533
3378.334, 3465.895
3380.263, 3470.031
3382.191, 3469.693
3384.120, 3473.268
3386.048, 3480.918
3387.977, 3489.526
3389.905, 3497.371
3391.834, 3500.919
3393.762, 3501.909
3395.691, 3499.378
3397.619, 3500.265
3399.548, 3511.817
3401.476, 3518.359
3403.405, 3516.940
3405.333, 3516.438
3407.261, 3518.155
3409.190, 3530.760
3411.118, 3546.996
3413.047, 3549.501
3414.975, 3550.360
3416.904, 3562.984
3418.832, 3570.103
3420.761, 3563.320
3422.689, 3563.393
3424.618, 3574.680
3426.546, 3582.460
3428.475, 3586.491
3430.403, 3583.500
3432.332, 3580.689
3434.260, 3589.408
3436.188, 3600.224
3438.117, 3609.806
3440.045, 3614.177
3441.974, 3609.340
3443.902, 3608.400
3445.831, 3611.781
3447.759, 3617.705
3449.688, 3625.333
3451.616, 3634.337
3453.545, 3641.598
3455.473, 3643.170
3457.402, 3644.463
3459.330, 3648.115
3461.259, 3651.922
3463.187, 3655.988
3465.115, 3659.937
3467.044, 3663.800
3468.972, 3666.673
3470.901, 3669.865
3472.829, 3675.066
3474.758, 3680.038
3476.686, 3682.194
3478.615, 3687.177
3480.543, 3689.473
3482.472, 3691.991
3484.400, 3695.257
3486.329, 3698.767
3488.257, 3701.999
3490.186, 3706.616
3492.114, 3710.722
3494.042, 3714.384
3495.971, 3716.455
3497.899, 3723.712
3499.828, 3721.167
3501.756, 3736.862
3503.685, 3746.581
3505.613, 3751.671
3507.542, 3753.196
3509.470, 3754.710
3511.399, 3759.650
3513.327, 3763.926
3515.256, 3767.207
3517.184, 3767.231
3519.113, 3775.290
3521.041, 3774.872
3522.969, 3788.964
3524.898, 3795.809
3526.826, 3801.375
3528.755, 3809.922
3530.683, 3816.872
3532.612, 3820.734
3534.540, 3827.231
3536.469, 3827.122
3538.397, 3833.142
3540.326, 3826.098
3542.254, 3822.199
3544.183, 3822.071
3546.111, 3828.058
3548.040, 3834.782
3549.968, 3841.086
3551.896, 3850.659
3553.825, 3861.952
3555.753, 3863.940
3557.682, 3871.559
3559.610, 3872.030
3561.539, 3879.216
3563.467, 3879.552
3565.396, 3881.086
3567.324, 3885.270
3569.253, 3892.284
3571.181, 3900.839
3573.110, 3907.331
3575.038, 3911.481
3576.967, 3910.373
3578.895, 3912.230
3580.823, 3921.217
3582.752, 3927.851
3584.680, 3931.158
3586.609, 3938.962
3588.537, 3943.339
3590.466, 3951.118
3592.394, 3953.364
3594.323, 3958.543
3596.251, 3963.316
3598.180, 3966.715
3600.108, 3968.928
3602.037, 3970.741
3603.965, 3976.112
3605.894, 3983.354
3607.822, 3990.404
3609.750, 3998.300
3611.679, 4009.866
3613.607, 4014.821
3615.536, 4022.820
3617.464, 4020.943
3619.393, 4033.363
3621.321, 4033.988
3623.250, 4034.261
3625.178, 4042.850
3627.107, 4050.313
3629.035, 4053.707
3630.964, 4058.172
3632.892, 4063.593
3634.821, 4067.915
3636.749, 4073.677
3638.677, 4086.397
3640.606, 4096.447
3642.534, 4098.207
3644.463, 4097.788
3646.391, 4096.362
3648.320, 4107.133
3650.248, 4121.562
3652.177, 4124.539
3654.105, 4123.660
3656.034, 4119.200
3657.962, 4122.811
3659.891, 4125.492
3661.819, 4139.085
3663.748, 4138.226
3665.676, 4148.178
3667.604, 4159.162
3669.533, 4164.938
3671.461, 4167.359
3673.390, 4166.715
3675.318, 4170.134
3677.247, 4177.059
3679.175, 4185.593
3681.104, 4191.767
3683.032, 4189.004
3684.961, 4188.682
3686.889, 4193.201
3688.818, 4206.013
3690.746, 4206.702
3692.675, 4222.631
3694.603, 4217.845
3696.531, 4225.804
3698.460, 4234.562
3700.388, 4239.673
3702.317, 4245.756
3704.245, 4252.501
3706.174, 4258.150
3708.102, 4261.609
3710.031, 4259.807
3711.959, 4259.191
3713.888, 4263.329
3715.816, 4267.417
3717.745, 4271.267
3719.673, 4272.459
3721.602, 4273.229
3723.530, 4276.115
3725.458, 4280.558
3727.387, 4284.875
3729.315, 4296.488
3731.244, 4299.714
3733.172, 4314.729
3735.101, 4311.863
3737.029, 4321.532
3738.958, 4329.333
3740.886, 4328.056
3742.815, 4329.462
3744.743, 4333.936
3746.672, 4332.387
3748.600, 4333.924
3750.529, 4353.823
3752.457, 4371.584
3754.385, 4378.206
3756.314, 4378.712
3758.242, 4374.997
3760.171, 4378.925
3762.099, 4385.691
3764.028, 4390.942
3765.956, 4395.548
3767.885, 4400.145
3769.813, 4403.404
3771.742, 4405.469
3773.670, 4406.024
3775.599, 4408.513
3777.527, 4417.271
3779.456, 4425.888
3781.384, 4433.206
3783.313, 4438.076
3785.241, 4440.801
3787.169, 4441.354
3789.098, 4441.776
3791.026, 4441.517
3792.955, 4447.677
3794.883, 4462.538
3796.812, 4467.828
3798.740, 4467.853
3800.669, 4469.887
3802.597, 4473.455
3804.526, 4478.342
3806.454, 4482.740
3808.383, 4486.459
3810.311, 4500.295
3812.240, 4514.408
3814.168, 4511.998
3816.096, 4511.416
3818.025, 4518.851
3819.953, 4529.242
3821.882, 4540.489
3823.810, 4544.289
3825.739, 4545.037
3827.667, 4545.484
3829.596, 4548.462
3831.524, 4555.961
3833.453, 4552.671
3835.381, 4561.418
3837.310, 4558.061
3839.238, 4573.707
3841.167, 4588.959
3843.095, 4594.658
3845.023, 4590.024
3846.952, 4588.083
3848.880, 4589.907
3850.809, 4591.337
3852.737, 4606.891
3854.666, 4603.299
3856.594, 4610.385
3858.523, 4624.460
3860.451, 4628.864
3862.380, 4630.088
3864.308, 4630.231
3866.237, 4633.600
3868.165, 4640.385
3870.094, 4646.635
3872.022, 4653.978
3873.950, 4668.475
3875.879, 4680.889
3877.807, 4686.190
3879.736, 4690.180
3881.664, 4694.716
3883.593, 4707.998
3885.521, 4719.216
3887.450, 4720.841
3889.378, 4721.438
3891.307, 4723.279
3893.235, 4720.977
3895.164, 4721.177
3897.092, 4739.657
3899.021, 4755.306
3900.949, 4759.009
3902.877, 4768.384
3904.806, 4780.498
3906.734, 4786.647
3908.663, 4792.040
3910.591, 4801.430
3912.520, 4807.389
3914.448, 4808.917
3916.377, 4813.717
3918.305, 4820.202
3920.234, 4824.436
3922.162, 4830.243
3924.091, 4838.604
3926.019, 4848.647
3927.948, 4858.877
3929.876, 4860.035
3931.804, 4861.701
3933.733, 4873.857
3935.661, 4883.783
3937.590, 4891.656
3939.518, 4899.852
3941.447, 4905.876
3943.375, 4910.689
3945.304, 4914.183
3947.232, 4915.619
3949.161, 4928.063
3951.089, 4930.348
3953.018, 4942.893
3954.946, 4941.128
3956.875, 4943.699
3958.803, 4947.131
3960.731, 4952.522
3962.660, 4963.859
3964.588, 4974.235
3966.517, 4979.298
3968.445, 4986.602
3970.374, 4997.152
3972.302, 5005.959
3974.231, 5012.521
3976.159, 5018.182
3978.088, 5020.687
3980.016, 5021.725
3981.945, 5029.438
3983.873, 5037.841
3985.802, 5043.211
3987.730, 5052.092
3989.658, 5059.375
3991.587, 5063.588
3993.515, 5069.961
3995.444, 5079.456
3997.372, 5088.555
3999.301, 5093.979
4001.229, 5102.671
4003.158, 5112.744
4005.086, 5117.911
4007.015, 5124.560
4008.943, 5133.103
4010.872, 5136.525
4012.800, 5136.751
4014.729, 5137.545
4016.657, 5146.640
4018.585, 5161.414
4020.514, 5170.463
4022.442, 5174.993
4024.371, 5178.500
4026.299, 5189.512
4028.228, 5201.336
4030.156, 5209.339
4032.085, 5217.730
4034.013, 5223.503
4035.942, 5229.341
4037.870, 5239.002
4039.799, 5243.690
4041.727, 5245.187
4043.656, 5254.626
4045.584, 5262.489
4047.512, 5260.337
4049.441, 5263.148
4051.369, 5273.176
4053.298, 5280.269
4055.226, 5285.522
4057.155, 5296.850
4059.083, 5303.313
4061.012, 5307.088
4062.940, 5317.604
4064.869, 5324.099
4066.797, 5323.432
4068.726, 5327.889
4070.654, 5333.618
4072.583, 5344.052
4074.511, 5354.538
4076.439, 5354.916
4078.368, 5355.971
4080.296, 5363.057
4082.225, 5365.319
4084.153, 5366.682
4086.082, 5371.401
4088.010, 5379.739
4089.939, 5389.382
4091.867, 5394.628
4093.796, 5401.031
4095.724, 5409.034
4097.653, 5413.782
4099.581, 5417.781
4101.510, 5416.600
4103.438, 5418.076
4105.367, 5431.033
4107.295, 5441.624
4109.224, 5448.313
4111.152, 5445.461
4113.081, 5447.099
4115.009, 5463.245
4116.938, 5475.143
4118.866, 5481.415
4120.794, 5487.243
4122.723, 5492.124
4124.651, 5496.481
4126.580, 5495.303
4128.508, 5504.444
4130.437, 5503.260
4132.365, 5517.876
4134.293, 5526.847
4136.222, 5530.232
4138.150, 5531.453
4140.079, 5549.609
4142.007, 5564.787
4143.936, 5561.399
4145.864, 5562.248
4147.793, 5567.763
4149.721, 5568.397
4151.650, 5569.568
4153.578, 5577.265
4155.507, 5583.195
4157.435, 5586.635
4159.364, 5596.724
4161.292, 5607.280
4163.221, 5612.705
4165.149, 5618.334
4167.078, 5623.736
4169.006, 5628.852
4170.935, 5634.626
4172.863, 5638.203
4174.792, 5645.112
4176.720, 5648.393
4178.648, 5651.725
4180.577, 5658.064
4182.505, 5671.280
4184.434, 5682.571
4186.362, 5688.457
4188.291, 5693.633
4190.219, 5681.061
4192.147, 5695.451
4194.076, 5699.061
4196.004, 5696.468
4197.933, 5709.686
4199.861, 5723.717
4201.790, 5727.314
4203.718, 5728.643
4205.647, 5731.850
4207.575, 5742.360
4209.504, 5751.127
4211.432, 5757.036
4213.361, 5754.487
4215.289, 5749.786
4217.218, 5757.242
4219.146, 5762.880
4221.075, 5762.280
4223.003, 5773.899
4224.932, 5787.507
4226.860, 5788.317
4228.789, 5789.282
4230.717, 5790.850
4232.646, 5789.225
4234.574, 5789.489
4236.502, 5796.056
4238.431, 5801.425
4240.359, 5805.383
4242.288, 5811.753
4244.216, 5816.023
4246.145, 5820.884
4248.073, 5825.758
4250.001, 5829.137
4251.930, 5830.968
4253.858, 5835.717
4255.787, 5836.727
4257.715, 5839.359
4259.644, 5842.245
4261.572, 5840.292
4263.501, 5838.807
4265.429, 5840.109
4267.358, 5843.269
4269.286, 5847.265
4271.215, 5849.580
4273.143, 5853.344
4275.072, 5858.823
4277.000, 5866.359
4278.929, 5874.510
4280.857, 5883.694
4282.786, 5887.172
4284.714, 5884.887
4286.643, 5878.768
4288.571, 5872.979
4290.500, 5868.359
4292.428, 5880.541
4294.356, 5878.489
4296.285, 5893.127
4298.213, 5887.284
4300.142, 5892.181
4302.070, 5894.498
4303.999, 5896.474
4305.927, 5904.147
4307.855, 5910.950
4309.784, 5915.428
4311.712, 5914.825
4313.641, 5911.541
4315.569, 5916.938
4317.498, 5909.187
4319.426, 5922.686
4321.355, 5927.681
4323.283, 5928.107
4325.212, 5924.643
4327.140, 5931.811
4329.069, 5943.173
4330.997, 5945.817
4332.926, 5951.062
4334.854, 5960.671
4336.783, 5954.119
4338.711, 5944.213
4340.640, 5942.585
4342.568, 5944.416
4344.497, 5948.485
4346.425, 5952.884
4348.354, 5955.823
4350.282, 5956.418
4352.210, 5952.515
4354.139, 5952.201
4356.067, 5974.478
4357.996, 5988.805
4359.924, 5988.801
4361.853, 5985.089
4363.781, 5982.891
4365.709, 5989.330
4367.638, 5987.278
4369.566, 5982.142
4371.495, 5996.072
4373.423, 6004.759
4375.352, 5999.084
4377.280, 5997.440
4379.209, 5998.421
4381.137, 6001.953
4383.066, 6000.639
4384.994, 5996.024
4386.923, 6002.003
4388.851, 6005.138
4390.780, 5999.076
4392.708, 6000.878
4394.637, 6003.890
4396.565, 6002.299
4398.494, 6004.986
4400.422, 6003.427
4402.351, 6005.935
4404.279, 6004.528
4406.208, 6001.023
4408.136, 6010.490
4410.064, 6005.472
4411.993, 6009.500
4413.921, 6001.192
4415.850, 6003.362
4417.778, 5997.077
4419.707, 5993.446
4421.635, 6002.782
4423.563, 6012.146
4425.492, 6018.524
4427.420, 6015.901
4429.349, 6011.625
4431.277, 6008.028
4433.206, 6004.716
4435.134, 6000.961
4437.063, 5994.350
4438.991, 6000.538
4440.920, 6013.064
4442.848, 6016.021
4444.777, 6013.439
4446.705, 6007.733
4448.634, 6014.795
4450.562, 6020.963
4452.491, 6013.478
4454.419, 6009.702
4456.348, 6010.888
4458.276, 6017.759
4460.205, 6025.769
4462.133, 6033.162
4464.062, 6035.135
4465.990, 6037.228
4467.918, 6039.396
4469.847, 6038.763
4471.775, 6039.006
4473.704, 6036.095
4475.632, 6032.925
4477.561, 6029.574
4479.489, 6030.065
4481.417, 6030.851
4483.346, 6029.639
4485.274, 6037.058
4487.203, 6043.470
4489.131, 6030.252
4491.060, 6026.868
4492.988, 6034.977
4494.917, 6043.585
4496.845, 6047.716
4498.774, 6044.060
4500.702, 6044.342
4502.631, 6046.976
4504.559, 6051.696
4506.488, 6052.039
4508.416, 6049.121
4510.345, 6046.482
4512.273, 6043.029
4514.202, 6038.734
4516.130, 6033.693
4518.059, 6035.296
4519.987, 6052.350
4521.916, 6059.780
4523.844, 6060.621
4525.772, 6062.818
4527.701, 6054.622
4529.629, 6040.144
4531.558, 6052.436
4533.486, 6056.506
4535.415, 6040.717
4537.343, 6046.542
4539.271, 6056.203
4541.200, 6051.996
4543.128, 6056.704
4545.057, 6064.625
4546.985, 6057.799
4548.914, 6059.866
4550.842, 6072.466
4552.771, 6071.903
4554.699, 6066.020
4556.628, 6057.672
4558.556, 6063.473
4560.485, 6069.719
4562.413, 6062.806
4564.342, 6056.084
4566.270, 6052.005
4568.199, 6052.863
4570.127, 6055.518
4572.056, 6058.286
4573.984, 6053.392
4575.913, 6048.353
4577.841, 6046.333
4579.770, 6045.441
4581.698, 6047.718
4583.626, 6047.921
4585.555, 6048.933
4587.483, 6051.952
4589.412, 6051.964
4591.340, 6054.342
4593.269, 6057.556
4595.197, 6053.860
4597.125, 6052.952
4599.054, 6058.058
4600.982, 6066.084
4602.911, 6075.164
4604.839, 6075.623
4606.768, 6082.305
4608.696, 6073.891
4610.625, 6071.644
4612.553, 6063.084
4614.482, 6064.878
4616.410, 6061.385
4618.339, 6069.263
4620.267, 6072.135
4622.196, 6075.101
4624.124, 6065.948
4626.053, 6068.557
4627.981, 6066.469
4629.910, 6061.728
4631.838, 6060.604
4633.767, 6050.708
4635.695, 6038.225
4637.624, 6032.971
4639.552, 6026.872
4641.480, 6021.508
4643.409, 6020.065
4645.337, 6017.290
4647.266, 6017.749
4649.194, 6014.286
4651.123, 6011.635
4653.051, 6006.743
4654.979, 6011.655
4656.908, 6015.320
4658.836, 6008.205
4660.765, 6007.267
4662.693, 6008.814
4664.622, 6007.208
4666.550, 6005.095
4668.479, 6004.787
4670.407, 6013.514
4672.336, 6012.149
4674.264, 6002.266
4676.193, 6016.642
4678.121, 6016.028
4680.050, 5992.930
4681.978, 5989.524
4683.907, 5986.358
4685.835, 5972.864
4687.764, 5967.502
4689.692, 5967.753
4691.621, 5971.198
4693.549, 5977.851
4695.478, 5983.608
4697.406, 5983.362
4699.334, 5976.381
4701.263, 5969.489
4703.191, 5982.250
4705.120, 5983.489
4707.048, 5972.046
4708.977, 5954.000
4710.905, 5946.687
4712.833, 5950.794
4714.762, 5951.109
4716.690, 5948.075
4718.619, 5941.833
4720.547, 5946.416
4722.476, 5945.655
4724.404, 5942.459
4726.333, 5933.284
4728.261, 5938.052
4730.190, 5929.457
4732.118, 5928.201
4734.047, 5929.844
4735.975, 5928.521
4737.904, 5927.886
4739.832, 5925.055
4741.761, 5912.132
4743.689, 5904.477
4745.618, 5903.549
4747.546, 5908.766
4749.475, 5912.587
4751.403, 5914.500
4753.332, 5922.351
4755.260, 5924.416
4757.188, 5919.777
4759.117, 5911.189
4761.045, 5906.357
4762.974, 5907.222
4764.902, 5903.200
4766.831, 5899.589
4768.759, 5898.798
4770.688, 5898.545
4772.616, 5899.161
4774.544, 5901.793
4776.473, 5901.605
4778.401, 5904.249
4780.330, 5902.486
4782.258, 5900.859
4784.187, 5903.162
4786.115, 5898.182
4788.044, 5897.805
4789.972, 5893.150
4791.901, 5894.683
4793.829, 5892.565
4795.758, 5899.803
4797.686, 5891.368
4799.615, 5889.722
4801.543, 5890.489
4803.472, 5881.969
4805.400, 5878.325
4807.329, 5875.880
4809.257, 5869.880
4811.186, 5871.044
4813.114, 5861.497
4815.042, 5868.481
4816.971, 5865.382
4818.899, 5855.255
4820.828, 5854.155
4822.756, 5854.600
4824.685, 5853.378
4826.613, 5841.229
4828.542, 5833.825
4830.470, 5833.936
4832.398, 5829.215
4834.327, 5838.346
4836.255, 5829.404
4838.184, 5832.411
4840.112, 5833.235
4842.041, 5828.109
4843.969, 5823.833
4845.898, 5821.507
4847.826, 5821.558
4849.755, 5825.429
4851.683, 5826.860
4853.612, 5824.054
4855.540, 5822.307
4857.469, 5821.990
4859.397, 5821.858
4861.326, 5812.757
4863.254, 5803.790
4865.183, 5798.974
4867.111, 5801.852
4869.040, 5801.276
4870.968, 5794.083
4872.896, 5790.216
4874.825, 5791.220
4876.753, 5796.587
4878.682, 5788.474
4880.610, 5783.338
4882.539, 5786.930
4884.467, 5774.898
4886.396, 5763.806
4888.324, 5760.825
4890.252, 5775.103
4892.181, 5780.313
4894.109, 5766.299
4896.038, 5761.598
4897.966, 5754.931
4899.895, 5744.174
4901.823, 5744.014
4903.752, 5741.003
4905.680, 5731.354
4907.609, 5735.141
4909.537, 5744.010
4911.466, 5751.708
4913.394, 5739.833
4915.323, 5731.018
4917.251, 5732.023
4919.180, 5733.389
4921.108, 5725.067
4923.037, 5709.389
4924.965, 5706.188
4926.894, 5707.882
4928.822, 5710.696
4930.750, 5707.645
4932.679, 5704.469
4934.607, 5703.355
4936.536, 5708.608
4938.464, 5710.072
4940.393, 5706.247
4942.321, 5699.927
4944.250, 5690.274
4946.178, 5681.174
4948.106, 5683.886
4950.035, 5682.175
4951.963, 5677.389
4953.892, 5677.169
4955.820, 5675.119
4957.749, 5672.501
4959.677, 5674.791
4961.606, 5664.209
4963.534, 5652.726
4965.463, 5663.811
4967.391, 5660.353
4969.320, 5650.300
4971.248, 5644.301
4973.177, 5640.368
4975.105, 5637.384
4977.034, 5634.258
4978.962, 5647.593
4980.891, 5652.219
4982.819, 5629.555
4984.748, 5604.489
4986.676, 5596.370
4988.604, 5612.172
4990.533, 5602.370
4992.461, 5593.530
4994.390, 5597.907
4996.318, 5589.822
4998.247, 5588.242
5000.175, 5594.826
5002.104, 5586.742
5004.032, 5580.945
5005.960, 5580.029
5007.889, 5579.934
5009.817, 5572.531
5011.746, 5560.634
5013.674, 5552.087
5015.603, 5554.080
5017.531, 5560.761
5019.460, 5561.924
5021.388, 5560.384
5023.317, 5552.173
5025.245, 5551.836
5027.174, 5538.299
5029.102, 5545.787
5031.031, 5524.732
5032.959, 5522.482
5034.888, 5525.019
5036.816, 5523.151
5038.745, 5522.372
5040.673, 5520.292
5042.602, 5516.252
5044.530, 5511.045
5046.458, 5505.162
5048.387, 5499.011
5050.315, 5492.331
5052.244, 5489.671
5054.172, 5487.940
5056.101, 5475.028
5058.029, 5480.830
5059.958, 5491.576
5061.886, 5484.498
5063.814, 5490.741
5065.743, 5486.832
5067.671, 5487.440
5069.600, 5479.397
5071.528, 5466.817
5073.457, 5465.834
5075.385, 5458.227
5077.314, 5450.273
5079.242, 5444.631
5081.171, 5436.953
5083.099, 5426.941
5085.028, 5420.142
5086.956, 5435.132
5088.885, 5441.681
5090.813, 5439.774
5092.742, 5436.708
5094.670, 5428.396
5096.599, 5420.044
5098.527, 5416.831
5100.456, 5412.972
5102.384, 5407.751
5104.313, 5401.291
5106.241, 5405.648
5108.169, 5402.337
5110.098, 5389.811
5112.026, 5392.037
5113.955, 5398.583
5115.883, 5403.045
5117.812, 5394.099
5119.740, 5395.219
5121.668, 5400.096
5123.597, 5398.277
5125.525, 5402.607
5127.454, 5404.767
5129.382, 5398.677
5131.311, 5385.150
5133.239, 5378.357
5135.168, 5371.078
5137.096, 5367.210
5139.025, 5360.078
5140.953, 5360.161
5142.882, 5359.377
5144.810, 5356.728
5146.739, 5353.691
5148.667, 5352.651
5150.596, 5348.327
5152.524, 5344.820
5154.453, 5344.437
5156.381, 5334.635
5158.310, 5327.569
5160.238, 5325.322
5162.167, 5317.109
5164.095, 5319.253
5166.023, 5326.253
5167.952, 5324.571
5169.880, 5325.818
5171.809, 5322.891
5173.737, 5320.709
5175.666, 5313.186
5177.594, 5303.739
5179.522, 5298.676
5181.451, 5291.016
5183.379, 5287.044
5185.308, 5277.511
5187.236, 5274.858
5189.165, 5267.124
5191.093, 5267.843
5193.022, 5265.404
5194.950, 5262.247
5196.879, 5263.381
5198.807, 5257.071
5200.736, 5253.108
5202.664, 5245.591
5204.593, 5247.546
5206.521, 5240.789
5208.450, 5241.508
5210.378, 5242.743
5212.307, 5232.937
5214.235, 5234.265
5216.164, 5234.326
5218.092, 5228.259
5220.021, 5224.757
5221.949, 5214.718
5223.877, 5201.782
5225.806, 5196.995
5227.734, 5197.081
5229.663, 5197.569
5231.591, 5194.543
5233.520, 5195.457
5235.448, 5192.250
5237.376, 5189.534
5239.305, 5186.648
5241.233, 5180.593
5243.162, 5178.139
5245.090, 5173.061
5247.019, 5166.019
5248.947, 5163.645
5250.876, 5158.454
5252.804, 5153.558
5254.733, 5146.633
5256.661, 5141.294
5258.590, 5154.136
5260.518, 5152.512
5262.447, 5143.186
5264.375, 5137.898
5266.304, 5136.415
5268.232, 5130.506
5270.161, 5120.113
5272.089, 5123.273
5274.018, 5128.916
5275.946, 5129.568
5277.875, 5116.019
5279.803, 5098.587
5281.731, 5089.425
5283.660, 5094.591
5285.588, 5085.375
5287.517, 5079.373
5289.445, 5076.625
5291.374, 5064.877
5293.302, 5058.888
5295.230, 5059.594
5297.159, 5067.811
5299.087, 5062.544
5301.016, 5054.468
5302.944, 5048.302
5304.873, 5047.178
5306.801, 5041.956
5308.730, 5034.263
5310.658, 5026.878
5312.587, 5020.513
5314.515, 5014.759
5316.444, 5008.030
5318.372, 5004.911
5320.301, 5001.826
5322.229, 4997.673
5324.158, 4992.888
5326.086, 4992.431
5328.015, 4988.638
5329.943, 4987.920
5331.872, 4984.497
5333.800, 4974.815
5335.729, 4972.984
5337.657, 4971.706
5339.585, 4977.813
5341.514, 4966.789
5343.442, 4971.663
5345.371, 4956.434
5347.299, 4930.009
5349.228, 4909.781
5351.156, 4916.327
5353.084, 4910.915
5355.013, 4903.881
5356.941, 4899.966
5358.870, 4893.077
5360.798, 4892.604
5362.727, 4880.749
5364.655, 4882.953
5366.584, 4877.909
5368.512, 4877.167
5370.441, 4880.199
5372.369, 4869.715
5374.298, 4867.922
5376.226, 4867.075
5378.155, 4859.177
5380.083, 4847.377
5382.012, 4838.714
5383.940, 4834.292
5385.869, 4835.604
5387.797, 4821.737
5389.726, 4814.838
5391.654, 4826.541
5393.583, 4809.680
5395.511, 4806.412
5397.439, 4810.762
5399.368, 4800.422
5401.296, 4808.496
5403.225, 4804.946
5405.153, 4782.277
5407.082, 4771.203
5409.010, 4774.945
5410.938, 4780.310
5412.867, 4773.151
5414.795, 4774.460
5416.724, 4769.101
5418.652, 4759.152
5420.581, 4762.013
5422.509, 4749.121
5424.438, 4736.156
5426.366, 4734.835
5428.295, 4725.724
5430.223, 4716.997
5432.152, 4719.820
5434.080, 4702.239
5436.009, 4704.097
5437.937, 4703.102
5439.866, 4693.890
5441.794, 4686.222
5443.723, 4689.556
5445.651, 4689.490
5447.580, 4675.924
5449.508, 4661.713
5451.437, 4655.555
5453.365, 4656.889
5455.293, 4662.877
5457.222, 4663.343
5459.150, 4653.741
5461.079, 4639.468
5463.007, 4642.786
5464.936, 4624.026
5466.864, 4614.969
5468.792, 4635.514
5470.721, 4623.506
5472.649, 4606.977
5474.578, 4595.247
5476.506, 4592.718
5478.435, 4585.851
5480.363, 4580.799
5482.292, 4579.105
5484.220, 4578.664
5486.149, 4573.613
5488.077, 4573.454
5490.006, 4568.760
5491.934, 4562.738
5493.863, 4556.663
5495.791, 4553.492
5497.720, 4540.372
5499.648, 4533.503
5501.577, 4526.521
5503.505, 4522.542
5505.434, 4529.077
5507.362, 4521.458
5509.291, 4519.461
5511.219, 4525.475
5513.147, 4521.753
5515.076, 4512.568
5517.004, 4503.082
5518.933, 4496.725
5520.861, 4500.368
5522.790, 4496.445
5524.718, 4485.325
5526.646, 4471.159
5528.575, 4470.605
5530.503, 4470.025
5532.432, 4463.508
5534.360, 4447.819
5536.289, 4450.109
5538.217, 4449.075
5540.146, 4442.024
5542.074, 4443.930
5544.003, 4426.981
5545.931, 4417.747
5547.860, 4420.248
5549.788, 4404.150
5551.717, 4401.160
5553.645, 4400.958
5555.574, 4396.158
5557.502, 4396.280
5559.431, 4392.563
5561.359, 4386.828
5563.288, 4381.404
5565.216, 4373.305
5567.145, 4376.333
5569.073, 4379.204
5571.001, 4366.934
5572.930, 4355.993
5574.858, 4345.006
5576.787, 4336.941
5578.715, 4335.709
5580.644, 4336.489
5582.572, 4336.218
5584.500, 4332.945
5586.429, 4325.369
5588.357, 4310.183
5590.286, 4304.436
5592.214, 4308.863
5594.143, 4312.324
5596.071, 4299.769
5598.000, 4288.137
5599.928, 4280.471
5601.857, 4272.249
5603.785, 4262.841
5605.714, 4263.688
5607.642, 4257.183
5609.571, 4260.283
5611.499, 4242.985
5613.428, 4231.836
5615.356, 4237.479
5617.285, 4229.397
5619.213, 4226.477
5621.142, 4226.044
5623.070, 4224.371
5624.999, 4219.864
5626.927, 4213.754
5628.855, 4202.556
5630.784, 4195.034
5632.712, 4183.255
5634.641, 4178.099
5636.569, 4171.520
5638.498, 4169.373
5640.426, 4163.818
5642.354, 4163.030
5644.283, 4163.964
5646.211, 4162.086
5648.140, 4150.434
5650.068, 4150.385
5651.997, 4148.869
5653.925, 4137.205
5655.854, 4139.162
5657.782, 4132.822
5659.711, 4127.083
5661.639, 4126.609
5663.568, 4119.715
5665.496, 4115.075
5667.425, 4106.314
5669.353, 4102.767
5671.282, 4088.416
5673.210, 4079.958
5675.139, 4081.070
5677.067, 4089.488
5678.996, 4091.886
5680.924, 4068.111
5682.853, 4051.401
5684.781, 4055.315
5686.709, 4055.711
5688.638, 4049.097
5690.566, 4036.778
5692.495, 4022.878
5694.423, 4014.867
5696.352, 4017.305
5698.280, 4021.125
5700.208, 4020.134
5702.137, 4011.025
5704.065, 4001.542
5705.994, 4003.941
5707.922, 3991.093
5709.851, 3996.480
5711.779, 3976.305
5713.708, 3967.796
5715.636, 3967.320
5717.565, 3959.191
5719.493, 3963.957
5721.422, 3963.438
5723.350, 3957.890
5725.279, 3953.809
5727.207, 3949.081
5729.136, 3946.669
5731.064, 3940.269
5732.993, 3926.566
5734.921, 3929.226
5736.850, 3919.076
5738.778, 3912.707
5740.707, 3920.951
5742.635, 3921.209
5744.563, 3906.037
5746.492, 3890.246
5748.420, 3882.271
5750.349, 3883.102
5752.277, 3875.524
5754.206, 3870.624
5756.134, 3870.063
5758.063, 3866.719
5759.991, 3860.827
5761.919, 3856.859
5763.848, 3850.630
5765.776, 3836.631
5767.705, 3837.321
5769.633, 3823.975
5771.562, 3810.331
5773.490, 3811.091
5775.419, 3806.025
5777.347, 3807.012
5779.276, 3805.648
5781.204, 3797.558
5783.133, 3787.409
5785.061, 3793.533
5786.990, 3787.782
5788.918, 3771.782
5790.847, 3776.545
5792.775, 3763.755
5794.704, 3762.980
5796.632, 3764.495
5798.561, 3748.009
5800.489, 3735.200
5802.417, 3730.290
5804.346, 3732.660
5806.274, 3738.203
5808.203, 3735.753
5810.131, 3728.330
5812.060, 3720.593
5813.988, 3714.883
5815.917, 3711.584
5817.845, 3701.795
5819.773, 3698.120
5821.702, 3699.464
5823.630, 3699.373
5825.559, 3686.957
5827.487, 3678.979
5829.416, 3682.530
5831.344, 3690.791
5833.273, 3659.857
5835.201, 3662.579
5837.130, 3657.373
5839.058, 3641.801
5840.987, 3644.625
5842.915, 3638.449
5844.844, 3637.271
5846.772, 3639.774
5848.701, 3639.577
5850.629, 3628.817
5852.558, 3618.015
5854.486, 3610.406
5856.415, 3605.882
5858.343, 3602.032
5860.271, 3590.930
5862.200, 3593.529
5864.128, 3598.353
5866.057, 3590.292
5867.985, 3582.336
5869.914, 3578.011
5871.842, 3574.051
5873.771, 3569.185
5875.699, 3565.731
5877.627, 3559.787
5879.556, 3559.599
5881.484, 3560.542
5883.413, 3555.538
5885.341, 3552.528
5887.270, 3542.788
5889.198, 3540.750
5891.127, 3531.339
5893.055, 3522.724
5894.984, 3519.886
5896.912, 3517.950
5898.841, 3514.973
5900.769, 3510.384
5902.698, 3503.797
5904.626, 3494.365
5906.555, 3493.274
5908.483, 3492.990
5910.412, 3473.063
5912.340, 3467.399
5914.269, 3472.186
5916.197, 3474.504
5918.125, 3468.026
5920.054, 3462.475
5921.982, 3444.493
5923.911, 3439.440
5925.839, 3443.119
5927.768, 3437.837
5929.696, 3438.183
5931.625, 3441.692
5933.553, 3436.771
5935.481, 3422.853
5937.410, 3415.729
5939.338, 3398.747
5941.267, 3392.522
5943.195, 3390.274
5945.124, 3383.111
5947.052, 3386.059
5948.981, 3390.644
5950.909, 3385.985
5952.838, 3384.717
5954.766, 3378.362
5956.695, 3373.029
5958.623, 3363.634
5960.552, 3353.297
5962.480, 3350.182
5964.409, 3343.085
5966.337, 3353.386
5968.266, 3356.703
5970.194, 3349.469
5972.123, 3336.085
5974.051, 3323.508
5975.979, 3328.380
5977.908, 3338.191
5979.836, 3348.781
5981.765, 3359.064
5983.693, 3364.025
5985.622, 3345.960
5987.550, 3320.706
5989.479, 3300.309
5991.407, 3288.646
5993.335, 3274.517
5995.264, 3265.416
5997.192, 3257.891
5999.121, 3249.365
6001.049, 3239.839
6002.978, 3233.921
6004.906, 3242.579
6006.835, 3243.648
6008.763, 3233.736
6010.692, 3234.659
6012.620, 3232.681
6014.549, 3222.117
6016.477, 3215.916
6018.406, 3216.454
6020.334, 3204.725
6022.263, 3199.563
6024.191, 3192.050
6026.120, 3186.144
6028.048, 3184.439
6029.977, 3180.079
6031.905, 3175.779
6033.833, 3168.102
6035.762, 3166.910
6037.690, 3161.479
6039.619, 3155.976
6041.547, 3155.422
6043.476, 3154.688
6045.404, 3147.414
6047.333, 3133.622
6049.261, 3126.868
6051.189, 3123.518
6053.118, 3122.264
6055.046, 3117.589
6056.975, 3107.829
6058.903, 3102.305
6060.832, 3096.389
6062.760, 3091.667
6064.689, 3092.974
6066.617, 3098.555
6068.546, 3090.351
6070.474, 3087.924
6072.403, 3078.259
6074.331, 3068.910
6076.260, 3064.750
6078.188, 3053.732
6080.117, 3051.503
6082.045, 3046.894
6083.974, 3036.882
6085.902, 3026.541
6087.831, 3027.861
6089.759, 3034.402
6091.688, 3025.256
6093.616, 3014.729
6095.544, 3018.248
6097.473, 3011.560
6099.401, 3015.718
6101.330, 3004.320
6103.258, 2994.540
6105.187, 2980.983
6107.115, 2976.909
6109.043, 2981.508
6110.972, 2980.047
6112.900, 2979.405
6114.829, 2976.510
6116.757, 2964.652
6118.686, 2959.114
6120.614, 2952.552
6122.543, 2952.443
6124.471, 2950.165
6126.400, 2941.213
6128.328, 2939.862
6130.257, 2937.681
6132.185, 2929.691
6134.114, 2922.459
6136.042, 2914.304
6137.971, 2920.333
6139.899, 2923.292
6141.828, 2916.970
6143.756, 2910.535
6145.685, 2909.845
6147.613, 2914.780
6149.542, 2916.627
6151.470, 2904.057
6153.398, 2897.182
6155.327, 2895.753
6157.255, 2891.630
6159.184, 2888.060
6161.112, 2883.486
6163.041, 2870.781
6164.969, 2862.607
6166.897, 2863.809
6168.826, 2864.062
6170.754, 2868.569
6172.683, 2872.116
6174.611, 2867.968
6176.540, 2861.624
6178.468, 2861.955
6180.397, 2862.141
6182.325, 2852.266
6184.254, 2847.165
6186.182, 2842.246
6188.111, 2832.559
6190.039, 2822.744
6191.968, 2818.184
6193.896, 2824.912
6195.825, 2819.090
6197.753, 2809.493
6199.682, 2816.982
6201.610, 2805.806
6203.539, 2808.266
6205.467, 2805.290
6207.396, 2795.399
6209.324, 2787.817
6211.252, 2796.475
6213.181, 2786.879
6215.109, 2784.997
6217.038, 2775.558
6218.966, 2764.786
6220.895, 2764.539
6222.823, 2762.417
6224.751, 2760.404
6226.680, 2756.797
6228.608, 2756.407
6230.537, 2754.934
6232.465, 2744.063
6234.394, 2750.158
6236.322, 2741.934
6238.251, 2740.534
6240.179, 2741.141
6242.108, 2736.366
6244.036, 2730.937
6245.965, 2730.134
6247.893, 2732.154
6249.822, 2724.630
6251.750, 2714.758
6253.679, 2713.256
6255.607, 2717.818
6257.536, 2717.156
6259.464, 2737.708
6261.393, 2751.187
6263.321, 2741.619
6265.250, 2717.935
6267.178, 2708.359
6269.106, 2700.053
6271.035, 2694.516
6272.963, 2687.074
6274.892, 2683.245
6276.820, 2678.679
6278.749, 2674.794
6280.677, 2677.984
6282.605, 2670.755
6284.534, 2671.065
6286.462, 2679.170
6288.391, 2677.186
6290.319, 2670.527
6292.248, 2665.830
6294.176, 2661.421
6296.105, 2658.626
6298.033, 2656.644
6299.962, 2652.851
6301.890, 2652.743
6303.819, 2648.518
6305.747, 2643.344
6307.676, 2635.357
6309.604, 2632.428
6311.533, 2644.761
6313.461, 2631.683
6315.390, 2632.013
6317.318, 2636.138
6319.247, 2630.627
6321.175, 2617.879
6323.104, 2609.601
6325.032, 2612.019
6326.960, 2607.386
6328.889, 2605.644
6330.817, 2602.575
6332.746, 2598.952
6334.674, 2598.166
6336.603, 2594.696
6338.531, 2595.174
6340.459, 2598.004
6342.388, 2596.500
6344.316, 2595.236
6346.245, 2596.813
6348.173, 2591.002
6350.102, 2606.357
6352.030, 2605.031
6353.959, 2595.584
6355.887, 2590.021
6357.816, 2585.117
6359.744, 2567.593
6361.673, 2567.923
6363.601, 2561.984
6365.530, 2560.091
6367.458, 2563.669
6369.387, 2566.904
6371.315, 2564.668
6373.244, 2561.095
6375.172, 2558.699
6377.101, 2544.667
6379.029, 2546.292
6380.958, 2538.341
6382.886, 2525.565
6384.814, 2521.181
6386.743, 2517.858
6388.671, 2516.526
6390.600, 2511.463
6392.528, 2508.266
6394.457, 2508.596
6396.385, 2508.159
6398.313, 2511.582
6400.242, 2500.488
6402.170, 2493.595
6404.099, 2494.546
6406.027, 2489.433
6407.956, 2474.148
6409.884, 2468.676
6411.813, 2454.810
6413.741, 2445.375
6415.670, 2437.092
6417.598, 2434.723
6419.527, 2434.363
6421.455, 2427.864
6423.384, 2421.488
6425.312, 2414.809
6427.241, 2418.513
6429.169, 2417.323
6431.098, 2407.302
6433.026, 2400.521
6434.955, 2395.195
6436.883, 2392.791
6438.812, 2381.203
6440.740, 2375.974
6442.668, 2366.855
6444.597, 2358.961
6446.525, 2353.624
6448.454, 2339.511
6450.382, 2330.713
6452.311, 2320.385
6454.239, 2319.102
6456.167, 2316.925
6458.096, 2309.039
6460.024, 2300.635
6461.953, 2300.654
6463.881, 2300.481
6465.810, 2281.722
6467.738, 2270.740
6469.667, 2268.153
6471.595, 2259.950
6473.524, 2246.525
6475.452, 2247.708
6477.381, 2242.474
6479.309, 2251.451
6481.238, 2239.364
6483.166, 2235.055
6485.095, 2235.038
6487.023, 2225.109
6488.952, 2215.334
6490.880, 2210.000
6492.809, 2197.904
6494.737, 2197.229
6496.666, 2190.547
6498.594, 2183.538
6500.522, 2179.976
6502.451, 2175.750
6504.379, 2169.938
6506.308, 2169.691
6508.236, 2167.792
6510.165, 2163.447
6512.093, 2161.642
6514.021, 2159.668
6515.950, 2153.917
6517.878, 2155.465
6519.807, 2145.875
6521.735, 2148.866
6523.664, 2146.215
6525.592, 2133.049
6527.521, 2124.229
6529.449, 2126.431
6531.378, 2124.166
6533.306, 2115.533
6535.235, 2120.845
6537.163, 2118.758
6539.092, 2114.289
6541.020, 2111.062
6542.949, 2108.284
6544.877, 2106.565
6546.806, 2110.015
6548.734, 2099.682
6550.663, 2103.460
6552.591, 2094.241
6554.520, 2085.198
6556.448, 2084.920
6558.376, 2084.927
6560.305, 2074.540
6562.233, 2068.072
6564.162, 2064.877
6566.090, 2066.383
6568.019, 2063.184
6569.947, 2055.677
6571.875, 2048.766
6573.804, 2044.522
6575.732, 2040.674
6577.661, 2034.114
6579.589, 2027.887
6581.518, 2026.026
6583.446, 2017.132
6585.375, 2007.813
6587.303, 2004.473
6589.232, 2005.158
6591.160, 2005.130
6593.089, 2003.420
6595.017, 1995.103
6596.946, 1998.068
6598.874, 1988.660
6600.803, 1986.605
6602.731, 1989.310
6604.660, 1983.460
6606.588, 1980.627
6608.517, 1963.544
6610.445, 1956.508
6612.374, 1953.773
6614.302, 1961.729
6616.230, 1968.009
6618.159, 1962.110
6620.087, 1951.385
6622.016, 1951.215
6623.944, 1951.132
6625.873, 1952.574
6627.801, 1944.867
6629.729, 1937.338
##END=



