##NAMES=Mimetite-M
##RRUFFID=R070146
##IDEAL CHEMISTRY=Pb_5_(AsO_4_)_3_Cl
##LOCALITY=Treue Freundschaft Mine, Johanngeorgenstadt, Erzgebirge, Saxony, Germany
##OWNER=RRUFF
##SOURCE=Michael Scott
##DESCRIPTION=Yellowish green crystals coated with white feathery hydroxylapatite.
##STATUS=The identification of this mineral has been confirmed by single-crystal X-ray diffraction
##URL=https://www.rruff.net/odr/rruff_sample/R070146
##DIFFRACTION SAMPLE DESCRIPTION=Single crystal, powder profile is calculated
##CELL PARAMETERS=a: 10.194 b: 20.39 c: 7.428 alpha: 90 beta: 90 gamma: 119.93 volume: 1338 crystal system: monoclinic
##FILETYPE=Raman RAW
##RAMAN WAVELENGTH=780

81.60596, 0.0000000E+00
83.53443, 4798.835
85.46290, 5297.981
87.39137, 5956.538
89.31983, 6731.558
91.24830, 7620.600
93.17677, 8521.652
95.10523, 8672.244
97.03370, 8875.063
98.96217, 8998.232
100.8906, 9115.944
102.8191, 9090.004
104.7476, 8862.108
106.6760, 8489.944
108.6045, 8054.751
110.5330, 7545.899
112.4614, 7048.253
114.3899, 6537.804
116.3184, 6066.250
118.2468, 5632.373
120.1753, 5245.986
122.1038, 4941.262
124.0322, 4710.113
125.9607, 4521.746
127.8892, 4379.146
129.8176, 4264.934
131.7461, 4171.005
133.6746, 4101.468
135.6030, 4067.091
137.5315, 4065.757
139.4600, 4079.478
141.3884, 4114.532
143.3169, 4152.460
145.2454, 4189.464
147.1738, 4225.351
149.1023, 4260.476
151.0308, 4294.665
152.9592, 4323.343
154.8877, 4348.404
156.8162, 4362.749
158.7446, 4357.895
160.6731, 4346.728
162.6016, 4338.563
164.5300, 4334.756
166.4585, 4346.534
168.3870, 4391.277
170.3154, 4422.716
172.2439, 4426.986
174.1724, 4421.343
176.1008, 4420.334
178.0293, 4419.503
179.9578, 4406.966
181.8862, 4381.460
183.8147, 4344.245
185.7432, 4287.011
187.6716, 4228.499
189.6001, 4181.285
191.5286, 4138.247
193.4570, 4088.788
195.3855, 4031.996
197.3140, 3970.781
199.2424, 3893.510
201.1709, 3826.993
203.0994, 3781.260
205.0278, 3749.887
206.9563, 3728.647
208.8848, 3718.315
210.8132, 3705.712
212.7417, 3686.607
214.6702, 3672.300
216.5986, 3663.723
218.5271, 3661.285
220.4556, 3659.430
222.3840, 3663.325
224.3125, 3692.520
226.2410, 3761.694
228.1694, 3823.476
230.0979, 3877.520
232.0264, 3924.555
233.9548, 3957.569
235.8833, 3988.308
237.8118, 4030.222
239.7402, 4083.742
241.6687, 4140.253
243.5972, 4205.832
245.5256, 4257.881
247.4541, 4277.832
249.3826, 4297.033
251.3110, 4341.612
253.2395, 4399.495
255.1680, 4432.641
257.0964, 4436.729
259.0249, 4451.593
260.9534, 4486.751
262.8818, 4519.557
264.8103, 4532.896
266.7388, 4545.793
268.6672, 4580.264
270.5957, 4633.376
272.5242, 4675.365
274.4526, 4704.152
276.3811, 4732.897
278.3096, 4755.499
280.2380, 4793.394
282.1665, 4861.146
284.0950, 4944.786
286.0234, 5027.888
287.9519, 5109.779
289.8804, 5182.669
291.8088, 5239.146
293.7373, 5313.157
295.6658, 5413.997
297.5942, 5534.465
299.5227, 5675.446
301.4512, 5833.830
303.3796, 6009.844
305.3081, 6201.402
307.2366, 6384.612
309.1650, 6567.844
311.0935, 6713.442
313.0220, 6810.592
314.9504, 6875.558
316.8789, 6915.245
318.8074, 6927.589
320.7358, 6910.663
322.6643, 6865.018
324.5928, 6811.270
326.5212, 6730.886
328.4497, 6681.257
330.3782, 6684.375
332.3066, 6708.554
334.2351, 6733.421
336.1636, 6766.978
338.0920, 6830.874
340.0205, 6926.634
341.9490, 6979.754
343.8774, 6957.461
345.8059, 6927.797
347.7344, 6889.413
349.6628, 6854.386
351.5913, 6835.246
353.5198, 6821.226
355.4482, 6794.635
357.3767, 6754.746
359.3052, 6732.023
361.2336, 6732.112
363.1621, 6744.496
365.0906, 6769.840
367.0190, 6806.870
368.9475, 6860.921
370.8760, 6921.982
372.8044, 6980.657
374.7329, 7036.687
376.6614, 7082.030
378.5898, 7110.471
380.5183, 7138.001
382.4468, 7165.241
384.3752, 7192.266
386.3037, 7220.504
388.2322, 7245.462
390.1606, 7261.840
392.0891, 7272.906
394.0176, 7290.387
395.9460, 7316.101
397.8745, 7347.106
399.8030, 7387.437
401.7314, 7420.738
403.6599, 7440.539
405.5884, 7454.573
407.5168, 7465.502
409.4453, 7472.940
411.3738, 7479.162
413.3022, 7484.070
415.2307, 7480.181
417.1592, 7467.785
419.0876, 7448.482
421.0161, 7418.640
422.9446, 7390.234
424.8730, 7386.903
426.8015, 7370.340
428.7300, 7295.646
430.6584, 7239.625
432.5869, 7155.328
434.5154, 7037.875
436.4438, 6936.665
438.3723, 6774.884
440.3008, 6611.536
442.2292, 6466.542
444.1577, 6322.416
446.0862, 6171.570
448.0146, 6016.713
449.9431, 5860.690
451.8716, 5705.812
453.8000, 5552.486
455.7285, 5399.724
457.6570, 5256.531
459.5854, 5124.546
461.5139, 5002.966
463.4424, 4892.884
465.3708, 4790.074
467.2993, 4693.275
469.2278, 4601.997
471.1563, 4515.606
473.0847, 4433.538
475.0132, 4357.197
476.9417, 4287.348
478.8701, 4223.399
480.7986, 4164.945
482.7271, 4112.679
484.6555, 4063.737
486.5840, 4024.400
488.5125, 4008.481
490.4409, 3994.281
492.3694, 3950.689
494.2979, 3894.944
496.2263, 3866.008
498.1548, 3866.022
500.0833, 3855.920
502.0117, 3820.422
503.9402, 3797.900
505.8687, 3805.099
507.7971, 3808.708
509.7256, 3789.587
511.6541, 3767.684
513.5825, 3758.187
515.5110, 3757.578
517.4395, 3763.410
519.3679, 3775.249
521.2964, 3783.133
523.2249, 3782.390
525.1533, 3789.081
527.0818, 3803.592
529.0103, 3823.302
530.9387, 3855.247
532.8672, 3883.245
534.7957, 3891.618
536.7241, 3897.125
538.6526, 3916.802
540.5811, 3946.721
542.5095, 3974.845
544.4380, 4000.447
546.3665, 4013.269
548.2949, 4008.210
550.2234, 4017.047
552.1519, 4050.749
554.0803, 4078.999
556.0088, 4083.336
557.9373, 4089.318
559.8657, 4117.975
561.7942, 4150.417
563.7227, 4165.085
565.6511, 4166.057
567.5796, 4163.625
569.5081, 4156.726
571.4365, 4153.553
573.3650, 4157.104
575.2935, 4144.899
577.2219, 4105.012
579.1504, 4071.480
581.0789, 4068.672
583.0073, 4058.387
584.9358, 4020.875
586.8643, 3970.608
588.7927, 3914.099
590.7212, 3858.781
592.6497, 3823.738
594.5781, 3804.917
596.5066, 3784.385
598.4351, 3762.608
600.3635, 3719.079
602.2920, 3640.281
604.2205, 3573.376
606.1489, 3539.043
608.0774, 3507.635
610.0059, 3470.797
611.9343, 3433.620
613.8628, 3399.439
615.7913, 3366.930
617.7197, 3336.790
619.6482, 3305.997
621.5767, 3265.975
623.5051, 3217.622
625.4336, 3170.708
627.3621, 3126.023
629.2905, 3083.213
631.2190, 3036.165
633.1475, 3002.128
635.0759, 2990.438
637.0044, 2982.574
638.9329, 2978.584
640.8613, 2968.438
642.7898, 2938.153
644.7183, 2902.616
646.6467, 2881.542
648.5752, 2869.440
650.5037, 2852.322
652.4321, 2830.502
654.3606, 2814.642
656.2891, 2805.184
658.2175, 2802.551
660.1460, 2817.100
662.0745, 2819.683
664.0029, 2799.705
665.9314, 2783.665
667.8599, 2772.223
669.7883, 2772.508
671.7168, 2800.852
673.6453, 2830.394
675.5737, 2838.683
677.5022, 2835.916
679.4307, 2832.167
681.3591, 2828.248
683.2876, 2830.828
685.2161, 2830.378
687.1445, 2830.747
689.0730, 2836.297
691.0015, 2834.897
692.9299, 2840.198
694.8584, 2846.649
696.7869, 2854.474
698.7153, 2861.238
700.6438, 2865.189
702.5723, 2869.601
704.5007, 2878.178
706.4292, 2884.761
708.3577, 2886.875
710.2861, 2885.019
712.2146, 2875.175
714.1431, 2864.308
716.0715, 2868.469
718.0000, 2884.112
719.9285, 2893.239
721.8569, 2895.052
723.7854, 2884.569
725.7139, 2860.410
727.6423, 2851.217
729.5708, 2862.017
731.4993, 2881.298
733.4277, 2908.539
735.3562, 2938.061
737.2847, 2965.924
739.2131, 3000.791
741.1416, 3051.672
743.0701, 3101.347
744.9985, 3135.859
746.9270, 3167.737
748.8555, 3203.923
750.7839, 3248.415
752.7124, 3308.443
754.6409, 3383.453
756.5693, 3470.326
758.4978, 3570.128
760.4263, 3690.005
762.3547, 3827.785
764.2832, 3951.365
766.2117, 4056.760
768.1401, 4160.738
770.0686, 4255.375
771.9971, 4375.901
773.9255, 4511.165
775.8540, 4700.736
777.7825, 4937.987
779.7109, 5248.971
781.6394, 5694.176
783.5679, 6147.556
785.4963, 6554.991
787.4248, 6929.575
789.3533, 7264.870
791.2817, 7594.859
793.2102, 7929.192
795.1387, 8289.852
797.0671, 8702.853
798.9956, 9176.459
800.9241, 9759.461
802.8525, 10424.13
804.7810, 11045.15
806.7095, 11621.25
808.6379, 12040.18
810.5664, 12331.05
812.4949, 12293.94
814.4233, 11880.90
816.3518, 11239.88
818.2803, 10325.94
820.2087, 9293.498
822.1372, 8083.617
824.0657, 6941.472
825.9941, 5891.582
827.9226, 4993.238
829.8511, 4276.820
831.7795, 3701.641
833.7080, 3272.920
835.6365, 2942.272
837.5649, 2709.893
839.4934, 2534.066
841.4219, 2402.123
843.3503, 2300.671
845.2788, 2226.592
847.2073, 2165.886
849.1357, 2098.635
851.0642, 2034.084
852.9927, 1994.852
854.9211, 1938.669
856.8496, 1921.850
858.7781, 1863.552
860.7065, 1835.106
862.6350, 1830.173
864.5635, 1812.722
866.4919, 1783.922
868.4204, 1756.236
870.3489, 1731.087
872.2773, 1711.505
874.2058, 1697.528
876.1343, 1684.942
878.0627, 1674.069
879.9912, 1661.637
881.9197, 1647.384
883.8481, 1627.850
885.7766, 1599.995
887.7051, 1574.122
889.6335, 1548.691
891.5620, 1532.463
893.4905, 1536.123
895.4189, 1532.605
897.3474, 1510.557
899.2759, 1488.708
901.2043, 1474.225
903.1328, 1460.142
905.0613, 1441.367
906.9897, 1425.295
908.9182, 1414.802
910.8467, 1408.885
912.7751, 1408.176
914.7036, 1411.718
916.6321, 1421.955
918.5605, 1431.510
920.4890, 1438.202
922.4175, 1437.428
924.3459, 1421.673
926.2744, 1396.510
928.2029, 1361.551
930.1313, 1324.906
932.0598, 1304.103
933.9883, 1270.682
935.9167, 1258.099
937.8452, 1221.307
939.7737, 1198.606
941.7021, 1187.293
943.6306, 1185.988
945.5591, 1192.049
947.4875, 1192.481
949.4160, 1189.092
951.3445, 1187.509
953.2729, 1186.465
955.2014, 1186.326
957.1299, 1188.220
959.0583, 1194.632
960.9868, 1205.135
962.9153, 1204.615
964.8438, 1214.856
966.7722, 1222.271
968.7007, 1224.359
970.6292, 1235.002
972.5576, 1228.278
974.4861, 1223.228
976.4146, 1221.440
978.3430, 1231.925
980.2715, 1254.287
982.2000, 1264.121
984.1284, 1260.443
986.0569, 1261.774
987.9854, 1268.854
989.9138, 1276.935
991.8423, 1286.096
993.7708, 1297.469
995.6992, 1311.725
997.6277, 1321.842
999.5562, 1326.118
1001.485, 1328.515
1003.413, 1328.570
1005.342, 1338.854
1007.270, 1363.774
1009.198, 1380.782
1011.127, 1384.524
1013.055, 1392.370
1014.984, 1407.854
1016.912, 1422.193
1018.841, 1435.032
1020.769, 1445.365
1022.698, 1451.279
1024.626, 1457.249
1026.555, 1462.165
1028.483, 1474.419
1030.412, 1500.314
1032.340, 1518.364
1034.269, 1521.629
1036.197, 1529.947
1038.125, 1543.557
1040.054, 1562.850
1041.982, 1579.361
1043.911, 1599.577
1045.839, 1627.394
1047.768, 1644.519
1049.696, 1682.237
1051.625, 1711.550
1053.553, 1722.434
1055.482, 1746.121
1057.410, 1795.117
1059.339, 1830.679
1061.267, 1844.055
1063.196, 1854.238
1065.124, 1861.103
1067.052, 1880.259
1068.981, 1913.922
1070.909, 1948.225
1072.838, 1982.671
1074.766, 2020.196
1076.695, 2059.906
1078.623, 2099.523
1080.552, 2141.320
1082.480, 2178.906
1084.409, 2211.369
1086.337, 2243.430
1088.266, 2274.981
1090.194, 2309.531
1092.123, 2345.391
1094.051, 2390.332
1095.979, 2446.994
1097.908, 2499.694
1099.836, 2545.521
1101.765, 2597.952
1103.693, 2658.904
1105.622, 2716.097
1107.550, 2770.137
1109.479, 2826.069
1111.407, 2884.544
1113.336, 2953.702
1115.264, 3031.793
1117.193, 3118.475
1119.121, 3209.066
1121.050, 3282.203
1122.978, 3348.646
1124.906, 3436.476
1126.835, 3539.158
1128.763, 3640.668
1130.692, 3739.757
1132.620, 3837.709
1134.549, 3939.499
1136.477, 4051.249
1138.406, 4169.290
1140.334, 4286.631
1142.263, 4410.106
1144.191, 4550.298
1146.120, 4697.771
1148.048, 4839.641
1149.977, 4989.352
1151.905, 5165.359
1153.833, 5350.484
1155.762, 5514.436
1157.690, 5700.475
1159.619, 5955.873
1161.547, 6213.191
1163.476, 6427.313
1165.404, 6649.299
1167.333, 6894.159
1169.261, 7169.346
1171.190, 7488.226
1173.118, 7806.815
1175.047, 8105.040
1176.975, 8432.234
1178.904, 8793.256
1180.832, 9182.859
1182.760, 9610.465
1184.689, 10047.28
1186.617, 10483.24
1188.546, 10942.57
1190.474, 11423.66
1192.403, 11955.34
1194.331, 12513.80
1196.260, 13108.93
1198.188, 13741.70
1200.117, 14398.09
1202.045, 15082.73
1203.974, 15799.78
1205.902, 16544.62
1207.831, 17318.78
1209.759, 18133.90
1211.688, 18969.85
1213.616, 19823.12
1215.544, 20707.54
1217.473, 21622.19
1219.401, 22551.54
1221.330, 23494.65
1223.258, 24468.96
1225.187, 25446.14
1227.115, 26410.50
1229.044, 27354.30
1230.972, 28265.99
1232.901, 29168.54
1234.829, 30100.19
1236.758, 30959.76
1238.686, 31712.09
1240.615, 32428.70
1242.543, 33124.29
1244.471, 33772.67
1246.400, 34365.96
1248.328, 34939.85
1250.257, 35501.10
1252.185, 35985.68
1254.114, 36391.84
1256.042, 36753.66
1257.971, 37082.55
1259.899, 37404.69
1261.828, 37710.54
1263.756, 37972.99
1265.685, 38202.05
1267.613, 38427.86
1269.542, 38655.96
1271.470, 38884.44
1273.398, 39096.88
1275.327, 39272.58
1277.255, 39456.41
1279.184, 39706.64
1281.112, 39929.16
1283.041, 40056.90
1284.969, 40168.98
1286.898, 40302.18
1288.826, 40415.88
1290.755, 40497.37
1292.683, 40572.99
1294.612, 40631.29
1296.540, 40709.80
1298.469, 40811.71
1300.397, 40926.38
1302.325, 40995.42
1304.254, 41122.20
1306.182, 41155.56
1308.111, 41218.85
1310.039, 41309.10
1311.968, 41434.06
1313.896, 41598.81
1315.825, 41787.52
1317.753, 41991.07
1319.682, 42244.97
1321.610, 42482.71
1323.539, 42635.24
1325.467, 42838.66
1327.396, 43146.24
1329.324, 43488.22
1331.252, 43851.82
1333.181, 44201.78
1335.109, 44538.26
1337.038, 44919.37
1338.966, 45345.80
1340.895, 45787.30
1342.823, 46273.68
1344.752, 46769.17
1346.680, 47344.62
1348.609, 47935.27
1350.537, 48566.30
1352.466, 49299.91
1354.394, 50055.82
1356.323, 50731.39
1358.251, 51486.18
1360.179, 52432.90
1362.108, 53370.24
1364.036, 54230.85
1365.965, 55178.84
1367.893, 56244.99
1369.822, 57326.42
1371.750, 58420.15
1373.679, 59622.23
1375.607, 60924.05
1377.536, 62282.72
1379.464, 63757.14
1381.393, 65442.45
1383.321, 67248.22
1385.250, 69069.31
1387.178, 71006.34
1389.106, 73146.01
1391.035, 75403.57
1392.963, 77772.25
1394.892, 80191.57
1396.820, 82665.99
1398.749, 85126.81
1400.677, 87582.66
1402.606, 90045.72
1404.534, 92495.43
1406.463, 94845.16
1408.391, 97074.04
1410.320, 99133.09
1412.248, 100986.9
1414.177, 102601.9
1416.105, 104031.6
1418.033, 105317.2
1419.962, 106351.5
1421.890, 107077.8
1423.819, 107602.3
1425.747, 107951.1
1427.676, 108215.3
1429.604, 108384.4
1431.533, 108564.0
1433.461, 108723.0
1435.390, 108738.0
1437.318, 108744.0
1439.247, 108977.7
1441.175, 109234.2
1443.104, 109316.3
1445.032, 109346.0
1446.960, 109434.3
1448.889, 109325.2
1450.817, 108963.8
1452.746, 108484.8
1454.674, 107682.6
1456.603, 106652.2
1458.531, 105438.5
1460.460, 103865.3
1462.388, 102108.8
1464.317, 100097.0
1466.245, 97862.39
1468.174, 95397.68
1470.102, 92886.15
1472.031, 90369.59
1473.959, 87853.25
1475.887, 85317.60
1477.816, 82875.02
1479.744, 80531.93
1481.673, 78242.69
1483.601, 76191.55
1485.530, 74138.84
1487.458, 72409.20
1489.387, 70695.66
1491.315, 69124.76
1493.244, 67784.68
1495.172, 66613.18
1497.101, 65614.86
1499.029, 64742.87
1500.958, 63989.49
1502.886, 63311.84
1504.814, 62719.77
1506.743, 62235.56
1508.671, 61842.91
1510.600, 61581.96
1512.528, 61388.80
1514.457, 61155.21
1516.385, 61029.96
1518.314, 61105.89
1520.242, 61225.15
1522.171, 61355.35
1524.099, 61520.95
1526.028, 61740.21
1527.956, 62158.40
1529.885, 62696.82
1531.813, 63181.73
1533.741, 63680.96
1535.670, 64265.52
1537.598, 64922.13
1539.527, 65641.54
1541.455, 66439.30
1543.384, 67311.00
1545.312, 68199.57
1547.241, 69161.23
1549.169, 70129.77
1551.098, 71235.95
1553.026, 72370.48
1554.955, 73561.84
1556.883, 74863.12
1558.812, 76208.09
1560.740, 77562.74
1562.668, 79001.32
1564.597, 80521.82
1566.525, 82064.74
1568.454, 83625.48
1570.382, 85177.97
1572.311, 86735.07
1574.239, 88319.52
1576.168, 89897.64
1578.096, 91470.33
1580.025, 92932.23
1581.953, 94286.41
1583.882, 95530.38
1585.810, 96639.23
1587.739, 97641.24
1589.667, 98525.82
1591.595, 99290.63
1593.524, 99841.24
1595.452, 100056.3
1597.381, 100147.1
1599.309, 100234.0
1601.238, 100018.8
1603.166, 99459.66
1605.095, 98858.04
1607.023, 98149.11
1608.952, 97133.87
1610.880, 95928.72
1612.809, 94579.75
1614.737, 93158.91
1616.666, 91759.78
1618.594, 90307.95
1620.522, 88735.64
1622.451, 87072.41
1624.379, 85377.44
1626.308, 83822.43
1628.236, 82343.20
1630.165, 80861.24
1632.093, 79399.13
1634.022, 77951.39
1635.950, 76595.68
1637.879, 75340.77
1639.807, 74114.30
1641.736, 72922.89
1643.664, 71831.81
1645.593, 70810.06
1647.521, 69743.54
1649.449, 68711.12
1651.378, 67813.41
1653.306, 66968.02
1655.235, 66122.24
1657.163, 65335.66
1659.092, 64621.81
1661.020, 63954.37
1662.949, 63309.42
1664.877, 62681.11
1666.806, 62080.58
1668.734, 61503.43
1670.663, 60973.15
1672.591, 60436.02
1674.520, 60003.91
1676.448, 59565.36
1678.376, 59234.45
1680.305, 58836.13
1682.233, 58543.04
1684.162, 58292.93
1686.090, 58043.23
1688.019, 57783.12
1689.947, 57578.55
1691.876, 57339.32
1693.804, 57186.17
1695.733, 57008.53
1697.661, 56841.64
1699.590, 56744.79
1701.518, 56673.75
1703.447, 56601.40
1705.375, 56475.00
1707.303, 56385.01
1709.232, 56241.80
1711.160, 56151.07
1713.089, 56006.84
1715.017, 55868.57
1716.946, 55768.83
1718.874, 55668.43
1720.803, 55545.79
1722.731, 55437.81
1724.660, 55300.25
1726.588, 55194.89
1728.517, 55009.87
1730.445, 54822.00
1732.374, 54656.66
1734.302, 54501.34
1736.230, 54288.13
1738.159, 54051.11
1740.087, 53815.13
1742.016, 53528.06
1743.944, 53283.97
1745.873, 52923.25
1747.801, 52730.35
1749.730, 52456.71
1751.658, 52122.70
1753.587, 51762.99
1755.515, 51397.31
1757.444, 51084.16
1759.372, 50724.93
1761.301, 50305.32
1763.229, 49900.73
1765.157, 49466.07
1767.086, 48995.98
1769.014, 48505.67
1770.943, 47979.91
1772.871, 47464.30
1774.800, 46959.55
1776.728, 46418.04
1778.657, 45821.72
1780.585, 45209.37
1782.514, 44573.89
1784.442, 43904.93
1786.371, 43101.52
1788.299, 42477.70
1790.228, 41746.48
1792.156, 40928.28
1794.084, 40227.21
1796.013, 39551.76
1797.941, 38802.71
1799.870, 38061.25
1801.798, 37351.25
1803.727, 36662.13
1805.655, 35990.15
1807.584, 35340.38
1809.512, 34739.59
1811.441, 34141.64
1813.369, 33536.52
1815.298, 32977.55
1817.226, 32480.61
1819.155, 32010.60
1821.083, 31542.60
1823.011, 31123.12
1824.940, 30773.47
1826.868, 30408.60
1828.797, 30076.22
1830.725, 29672.46
1832.654, 29456.22
1834.582, 29145.51
1836.511, 28846.51
1838.439, 28681.26
1840.368, 28507.82
1842.296, 28314.01
1844.225, 28206.53
1846.153, 28157.11
1848.082, 28056.35
1850.010, 27983.28
1851.938, 28075.41
1853.867, 28198.09
1855.795, 28275.11
1857.724, 28314.87
1859.652, 28401.78
1861.581, 28601.45
1863.509, 28853.45
1865.438, 29119.25
1867.366, 29417.98
1869.295, 29738.38
1871.223, 30066.29
1873.152, 30430.44
1875.080, 30798.40
1877.009, 31205.35
1878.937, 31642.34
1880.865, 32067.86
1882.794, 32484.24
1884.722, 32950.18
1886.651, 33402.95
1888.579, 33807.03
1890.508, 34178.78
1892.436, 34548.22
1894.365, 34786.86
1896.293, 34907.23
1898.222, 34961.71
1900.150, 34890.39
1902.079, 34701.96
1904.007, 34425.45
1905.936, 34011.30
1907.864, 33427.46
1909.792, 32744.65
1911.721, 31993.72
1913.649, 31131.15
1915.578, 30174.03
1917.506, 29124.73
1919.435, 27970.02
1921.363, 26862.58
1923.292, 25760.05
1925.220, 24595.49
1927.149, 23477.48
1929.077, 22373.98
1931.006, 21296.50
1932.934, 20290.08
1934.863, 19279.76
1936.791, 18334.08
1938.719, 17477.58
1940.648, 16635.22
1942.576, 15856.91
1944.505, 15166.68
1946.433, 14464.31
1948.362, 13812.93
1950.290, 13256.90
1952.219, 12723.86
1954.147, 12204.20
1956.076, 11707.96
1958.004, 11246.22
1959.933, 10827.12
1961.861, 10407.99
1963.790, 10026.65
1965.718, 9686.320
1967.646, 9347.630
1969.575, 9041.788
1971.503, 8771.305
1973.432, 8495.733
1975.360, 8223.010
1977.289, 7968.441
1979.217, 7735.152
1981.146, 7515.204
1983.074, 7320.272
1985.003, 7141.046
1986.931, 6936.109
1988.860, 6748.111
1990.788, 6599.833
1992.717, 6461.971
1994.645, 6312.788
1996.573, 6172.174
1998.502, 6046.450
2000.430, 5919.918
2002.359, 5787.635
2004.287, 5655.477
2006.216, 5536.627
2008.144, 5421.651
2010.073, 5303.660
2012.001, 5190.688
2013.930, 5098.832
2015.858, 5012.247
2017.787, 4917.424
2019.715, 4826.440
2021.644, 4736.492
2023.572, 4653.625
2025.500, 4580.468
2027.429, 4494.437
2029.357, 4404.292
2031.286, 4330.148
2033.214, 4269.153
2035.143, 4167.137
2037.071, 4061.150
2039.000, 4005.700
2040.928, 3931.954
2042.857, 3856.748
2044.785, 3783.275
2046.714, 3699.792
2048.642, 3632.168
2050.571, 3582.696
2052.499, 3519.806
2054.427, 3433.757
2056.356, 3353.961
2058.284, 3291.017
2060.213, 3233.948
2062.141, 3175.353
2064.070, 3124.204
2065.998, 3073.646
2067.927, 3006.480
2069.855, 2939.210
2071.784, 2882.984
2073.712, 2846.123
2075.641, 2810.064
2077.569, 2747.517
2079.498, 2699.008
2081.426, 2665.981
2083.354, 2628.652
2085.283, 2594.473
2087.211, 2544.821
2089.140, 2507.259
2091.068, 2464.906
2092.997, 2418.706
2094.925, 2388.252
2096.854, 2338.102
2098.782, 2315.306
2100.711, 2296.451
2102.639, 2254.462
2104.568, 2212.188
2106.496, 2176.034
2108.425, 2150.658
2110.353, 2120.372
2112.281, 2087.891
2114.210, 2050.757
2116.138, 2016.444
2118.067, 1996.881
2119.995, 1971.270
2121.924, 1942.656
2123.852, 1922.566
2125.781, 1904.155
2127.709, 1880.891
2129.638, 1859.015
2131.566, 1834.615
2133.495, 1809.619
2135.423, 1785.966
2137.352, 1756.343
2139.280, 1737.344
2141.208, 1719.619
2143.137, 1688.421
2145.065, 1668.584
2146.994, 1649.462
2148.922, 1621.815
2150.851, 1605.065
2152.779, 1598.417
2154.708, 1589.824
2156.636, 1566.199
2158.565, 1532.945
2160.493, 1511.357
2162.422, 1489.342
2164.350, 1462.992
2166.279, 1447.130
2168.207, 1440.131
2170.135, 1434.593
2172.064, 1427.444
2173.992, 1411.826
2175.921, 1389.252
2177.849, 1364.312
2179.778, 1345.782
2181.706, 1340.074
2183.635, 1329.966
2185.563, 1310.589
2187.492, 1293.539
2189.420, 1281.005
2191.349, 1265.119
2193.277, 1253.480
2195.206, 1236.366
2197.134, 1216.521
2199.063, 1205.146
2200.991, 1190.210
2202.919, 1175.807
2204.848, 1165.973
2206.776, 1149.953
2208.705, 1131.611
2210.633, 1124.794
2212.562, 1124.843
2214.490, 1119.773
2216.419, 1104.194
2218.347, 1084.762
2220.276, 1071.788
2222.204, 1069.892
2224.133, 1064.610
2226.061, 1060.635
2227.990, 1050.875
2229.918, 1036.801
2231.846, 1027.937
2233.775, 1021.843
2235.703, 1021.790
2237.632, 1016.211
2239.560, 1001.337
2241.489, 996.3474
2243.417, 983.9451
2245.346, 978.4302
2247.274, 991.3275
2249.203, 991.1704
2251.131, 981.6219
2253.060, 971.2591
2254.988, 962.6229
2256.917, 955.9006
2258.845, 948.5569
2260.773, 946.3137
2262.702, 944.3651
2264.630, 941.8210
2266.559, 938.3197
2268.487, 929.3956
2270.416, 909.8278
2272.344, 893.4874
2274.273, 900.6403
2276.201, 898.1293
2278.130, 887.3141
2280.058, 882.5703
2281.987, 881.6150
2283.915, 879.8240
2285.844, 872.5967
2287.772, 866.1043
2289.700, 855.8179
2291.629, 850.0650
2293.557, 847.6619
2295.486, 830.0192
2297.414, 819.1946
2299.343, 828.5864
2301.271, 817.2184
2303.200, 802.1056
2305.128, 800.6249
2307.057, 796.7159
2308.985, 796.5958
2310.914, 798.5660
2312.842, 793.6952
2314.771, 782.0170
2316.699, 769.0138
2318.627, 765.9474
2320.556, 764.3807
2322.484, 764.1268
2324.413, 767.0426
2326.341, 755.8751
2328.270, 748.6882
2330.198, 750.0810
2332.127, 748.1898
2334.055, 755.1600
2335.984, 756.9348
2337.912, 739.3635
2339.841, 724.8510
2341.769, 724.0206
2343.698, 726.0687
2345.626, 728.6668
2347.554, 721.1212
2349.483, 708.3766
2351.411, 705.0228
2353.340, 715.3549
2355.268, 722.3045
2357.197, 709.6711
2359.125, 702.9737
2361.054, 702.6466
2362.982, 699.7931
2364.911, 697.2401
2366.839, 692.8774
2368.768, 694.4546
2370.696, 689.8152
2372.625, 688.1440
2374.553, 676.0809
2376.481, 681.7671
2378.410, 670.3476
2380.338, 663.0314
2382.267, 660.2033
2384.195, 657.3547
2386.124, 656.0497
2388.052, 659.9385
2389.981, 656.7546
2391.909, 660.0534
2393.838, 660.5507
2395.766, 652.2968
2397.695, 648.1326
2399.623, 654.3532
2401.552, 646.2266
2403.480, 633.5504
2405.408, 642.1422
2407.337, 642.5931
2409.265, 637.1595
2411.194, 639.0646
2413.122, 634.4051
2415.051, 625.8234
2416.979, 622.9097
2418.908, 621.8696
2420.836, 620.8118
2422.765, 620.8836
2424.693, 617.0172
2426.622, 615.0522
2428.550, 611.8893
2430.479, 607.8650
2432.407, 603.5900
2434.335, 598.6699
2436.264, 592.4161
2438.192, 591.5673
2440.121, 586.4365
2442.049, 581.6636
2443.978, 578.3912
2445.906, 571.4545
2447.835, 569.4430
2449.763, 564.3697
2451.692, 559.2238
2453.620, 551.4320
2455.549, 546.0598
2457.477, 537.0457
2459.406, 531.8613
2461.334, 532.5642
2463.262, 523.5345
2465.191, 528.1683
2467.119, 513.3642
2469.048, 502.4012
2470.976, 501.0813
2472.905, 497.3111
2474.833, 494.0724
2476.762, 496.2064
2478.690, 491.2405
2480.619, 488.8838
2482.547, 486.0413
2484.476, 480.1031
2486.404, 477.3195
2488.333, 470.3173
2490.261, 464.0475
2492.189, 457.1114
2494.118, 449.8774
2496.046, 448.5029
2497.975, 441.9942
2499.903, 446.8362
2501.832, 436.2147
2503.760, 431.2776
2505.689, 434.5822
2507.617, 438.7144
2509.546, 440.1804
2511.474, 433.2595
2513.403, 424.8857
2515.331, 425.6056
2517.260, 419.5127
2519.188, 412.4497
2521.116, 414.3730
2523.045, 405.4554
2524.973, 399.7227
2526.902, 408.3617
2528.830, 410.4727
2530.759, 409.4232
2532.687, 398.2852
2534.616, 393.0540
2536.544, 395.3160
2538.473, 384.8030
2540.401, 380.5667
2542.330, 390.5201
2544.258, 381.3888
2546.187, 371.3355
2548.115, 373.5728
2550.043, 373.2098
2551.972, 370.3450
2553.900, 371.6345
2555.829, 365.1140
2557.757, 357.9231
2559.686, 353.7963
2561.614, 352.4123
2563.543, 350.9358
2565.471, 353.6433
2567.400, 352.7243
2569.328, 354.7563
2571.257, 355.7402
2573.185, 349.1409
2575.114, 343.9070
2577.042, 341.2527
2578.970, 338.9226
2580.899, 339.4184
2582.827, 335.4359
2584.756, 332.0315
2586.684, 328.8350
2588.613, 322.4079
2590.541, 322.9524
2592.470, 326.6664
2594.398, 321.8937
2596.327, 320.3448
2598.255, 320.2360
2600.184, 317.2115
2602.112, 316.8089
2604.041, 314.0009
2605.969, 313.0019
2607.897, 311.4407
2609.826, 305.7893
2611.754, 297.1427
2613.683, 292.0726
2615.611, 293.3056
2617.540, 290.0995
2619.468, 300.0973
2621.397, 288.5311
2623.325, 289.2516
2625.254, 282.7480
2627.182, 277.4853
2629.111, 282.3894
2631.039, 279.3571
2632.968, 275.6389
2634.896, 269.4206
2636.824, 265.4432
2638.753, 265.6357
2640.681, 263.6179
2642.610, 260.0092
2644.538, 270.6428
2646.467, 253.8026
2648.395, 244.9243
2650.324, 243.1438
2652.252, 248.7809
2654.181, 250.2834
2656.109, 248.1317
2658.038, 246.2113
2659.966, 243.6689
2661.895, 239.4911
2663.823, 234.0132
2665.751, 233.3908
2667.680, 233.7770
2669.608, 232.1143
2671.537, 225.9469
2673.465, 218.0904
2675.394, 213.0095
2677.322, 213.5909
2679.251, 211.7077
2681.179, 204.2777
2683.108, 201.3197
2685.036, 195.3266
2686.965, 184.4759
2688.893, 189.1181
2690.822, 188.5710
2692.750, 181.0184
2694.678, 184.5653
2696.607, 184.1044
2698.535, 178.9889
2700.464, 186.6668
2702.392, 183.1771
2704.321, 171.8160
2706.249, 162.9041
2708.178, 160.3869
2710.106, 161.3436
2712.035, 160.4107
2713.963, 153.3736
2715.892, 148.5516
2717.820, 154.3027
2719.749, 156.1373
2721.677, 154.7334
2723.605, 153.5766
2725.534, 151.9612
2727.462, 153.2598
2729.391, 156.0710
2731.319, 153.2758
2733.248, 157.2953
2735.176, 148.9217
2737.105, 147.2768
2739.033, 143.4202
2740.962, 141.0331
2742.890, 138.9388
2744.819, 137.9573
2746.747, 135.1041
2748.676, 136.3726
2750.604, 135.3675
2752.532, 131.9938
2754.461, 124.1200
2756.389, 123.8760
2758.318, 122.4612
2760.246, 121.7975
2762.175, 123.5120
2764.103, 128.2220
2766.032, 128.2241
2767.960, 125.6053
2769.889, 122.3712
2771.817, 118.6723
2773.746, 111.0224
2775.674, 115.0731
2777.603, 111.1641
2779.531, 118.4945
2781.459, 110.2085
2783.388, 108.4046
2785.316, 107.5739
2787.245, 106.1477
2789.173, 111.3508
2791.102, 107.9262
2793.030, 113.4004
2794.959, 113.5707
2796.887, 107.4501
2798.816, 103.9276
2800.744, 108.1163
2802.673, 105.3060
2804.601, 111.4006
2806.530, 109.0509
2808.458, 108.2302
2810.386, 113.6880
2812.315, 107.1154
2814.243, 100.3153
2816.172, 99.15334
2818.100, 93.85561
2820.029, 94.99432
2821.957, 100.0262
2823.886, 105.9378
2825.814, 105.1283
2827.743, 102.3090
2829.671, 106.3328
2831.600, 100.3082
2833.528, 91.99974
2835.457, 90.11358
2837.385, 93.57398
2839.313, 97.67357
2841.242, 100.6738
2843.170, 92.88088
2845.099, 98.42238
2847.027, 94.21351
2848.956, 97.71220
2850.884, 90.17406
2852.813, 87.04795
2854.741, 86.67639
2856.670, 88.46810
2858.598, 89.46548
2860.527, 88.01704
2862.455, 82.13586
2864.384, 78.15349
2866.312, 79.24677
2868.240, 79.46581
2870.169, 89.79025
2872.097, 83.81631
2874.026, 93.69717
2875.954, 91.77659
2877.883, 91.89363
2879.811, 95.03396
2881.740, 92.81374
2883.668, 84.35431
2885.597, 92.60638
2887.525, 87.16171
2889.454, 89.29012
2891.382, 91.08100
2893.311, 86.66595
2895.239, 78.42293
2897.167, 75.80043
2899.096, 78.78874
2901.024, 80.04671
2902.953, 82.39723
2904.881, 84.41872
2906.810, 81.82406
2908.738, 85.94763
2910.667, 78.56762
2912.595, 88.83144
2914.524, 88.75764
2916.452, 85.13740
2918.381, 81.23579
2920.309, 83.96010
2922.238, 83.44818
2924.166, 80.83466
2926.094, 80.90679
2928.023, 89.86634
2929.951, 92.35435
2931.880, 87.71644
2933.808, 84.29701
2935.737, 80.43121
2937.665, 82.39496
2939.594, 93.90627
2941.522, 91.05247
2943.451, 88.57613
2945.379, 87.88020
2947.308, 85.70654
2949.236, 86.02643
2951.165, 84.09904
2953.093, 80.29660
2955.021, 88.77203
2956.950, 94.74986
2958.878, 94.10567
2960.807, 98.84384
2962.735, 94.21571
2964.664, 101.1065
2966.592, 95.17428
2968.521, 94.98015
2970.449, 95.19843
2972.378, 93.95874
2974.306, 93.33738
2976.235, 94.20332
2978.163, 92.61588
2980.092, 96.49025
2982.020, 90.81715
2983.948, 90.10479
2985.877, 89.45615
2987.805, 82.38166
2989.734, 92.02988
2991.662, 102.7685
2993.591, 107.9449
2995.519, 106.3435
2997.448, 104.0851
2999.376, 106.1572
3001.305, 114.1150
3003.233, 101.6040
3005.162, 100.1546
3007.090, 112.0229
3009.019, 113.0454
3010.947, 111.0887
3012.875, 114.3410
3014.804, 124.2151
3016.732, 118.1383
3018.661, 121.1835
3020.589, 126.7642
3022.518, 115.7985
3024.446, 119.6082
3026.375, 125.2656
3028.303, 129.4981
3030.232, 146.2293
3032.160, 137.0124
3034.089, 129.2758
3036.017, 148.0757
3037.946, 145.4587
3039.874, 137.5893
3041.802, 133.8117
3043.731, 139.8541
3045.659, 144.8601
3047.588, 150.0799
3049.516, 153.9928
3051.445, 158.9037
3053.373, 160.3257
3055.302, 166.5284
3057.230, 165.6799
3059.159, 166.2727
3061.087, 170.2584
3063.016, 178.7661
3064.944, 176.5652
3066.873, 181.0028
3068.801, 176.1718
3070.729, 182.8912
3072.658, 183.2035
3074.586, 197.4058
3076.515, 209.7972
3078.443, 210.7722
3080.372, 209.5290
3082.300, 216.4328
3084.229, 222.8718
3086.157, 223.8151
3088.086, 228.0133
3090.014, 237.2081
3091.943, 243.5592
3093.871, 245.9330
3095.800, 253.3332
3097.728, 259.7496
3099.656, 268.4119
3101.585, 272.6823
3103.513, 280.6000
3105.442, 289.5789
3107.370, 292.3325
3109.299, 299.0140
3111.227, 318.5049
3113.156, 334.3225
3115.084, 341.8139
3117.013, 335.1581
3118.941, 328.7383
3120.870, 333.7379
3122.798, 354.0173
3124.727, 367.5360
3126.655, 380.9630
3128.583, 388.4919
3130.512, 391.5231
3132.440, 402.4756
3134.369, 423.0146
3136.297, 451.7336
3138.226, 465.7180
3140.154, 480.7214
3142.083, 486.1127
3144.011, 492.4458
3145.940, 521.2042
3147.868, 542.8618
3149.797, 554.9816
3151.725, 562.3874
3153.654, 582.6290
3155.582, 598.3414
3157.510, 622.9611
3159.439, 637.0334
3161.367, 675.8365
3163.296, 675.3591
3165.224, 687.2409
3167.153, 721.1245
3169.081, 749.4825
3171.010, 774.9609
3172.938, 807.5426
3174.867, 844.3234
3176.795, 864.5555
3178.724, 901.7676
3180.652, 931.7026
3182.581, 944.4832
3184.509, 977.8453
3186.438, 999.6613
3188.366, 1018.540
3190.294, 1049.232
3192.223, 1082.650
3194.151, 1111.795
3196.080, 1136.097
3198.008, 1154.260
3199.937, 1179.081
3201.865, 1223.839
3203.794, 1268.079
3205.722, 1296.161
3207.651, 1298.929
3209.579, 1319.765
3211.508, 1341.005
3213.436, 1359.209
3215.365, 1374.499
3217.293, 1386.973
3219.221, 1401.684
3221.150, 1417.940
3223.078, 1436.767
3225.007, 1430.918
3226.935, 1435.877
3228.864, 1450.963
3230.792, 1442.431
3232.721, 1476.006
3234.649, 1472.948
3236.578, 1448.047
3238.506, 1516.193
3240.435, 1529.231
3242.363, 1521.266
3244.292, 1522.695
3246.220, 1544.936
3248.148, 1553.529
3250.077, 1569.051
3252.005, 1595.203
3253.934, 1595.473
3255.862, 1621.145
3257.791, 1649.264
3259.719, 1672.332
3261.648, 1687.710
3263.576, 1676.824
3265.505, 1682.702
3267.433, 1694.578
3269.362, 1698.976
3271.290, 1714.022
3273.219, 1753.485
3275.147, 1756.244
3277.075, 1798.949
3279.004, 1849.966
3280.932, 1818.136
3282.861, 1810.781
3284.789, 1844.722
3286.718, 1890.060
3288.646, 1902.741
3290.575, 1924.446
3292.503, 1955.040
3294.432, 1989.687
3296.360, 2022.297
3298.289, 2050.678
3300.217, 2079.091
3302.146, 2103.288
3304.074, 2113.515
3306.002, 2155.765
3307.931, 2172.027
3309.859, 2214.094
3311.788, 2285.529
3313.716, 2305.674
3315.645, 2342.910
3317.573, 2399.709
3319.502, 2435.076
3321.430, 2454.616
3323.359, 2495.525
3325.287, 2556.824
3327.216, 2624.099
3329.144, 2664.718
3331.073, 2661.656
3333.001, 2680.496
3334.929, 2748.987
3336.858, 2855.808
3338.786, 2932.893
3340.715, 2997.508
3342.643, 3058.581
3344.572, 3121.951
3346.500, 3204.943
3348.429, 3278.341
3350.357, 3374.678
3352.286, 3476.076
3354.214, 3527.054
3356.143, 3630.482
3358.071, 3721.525
3360.000, 3777.680
3361.928, 3874.366
3363.856, 3917.372
3365.785, 4025.421
3367.713, 4101.817
3369.642, 4156.295
3371.570, 4233.708
3373.499, 4227.067
3375.427, 4254.904
3377.356, 4314.938
3379.284, 4366.696
3381.213, 4362.736
3383.141, 4356.691
3385.070, 4330.465
3386.998, 4289.687
3388.927, 4232.967
3390.855, 4148.888
3392.783, 4080.618
3394.712, 4031.372
3396.640, 3942.249
3398.569, 3869.747
3400.497, 3813.340
3402.426, 3761.658
3404.354, 3714.413
3406.283, 3673.485
3408.211, 3644.237
3410.140, 3616.015
3412.068, 3605.877
3413.997, 3585.226
3415.925, 3583.265
3417.854, 3536.507
3419.782, 3530.424
3421.710, 3531.592
3423.639, 3505.436
3425.567, 3461.053
3427.496, 3448.827
3429.424, 3434.984
3431.353, 3429.399
3433.281, 3406.442
3435.210, 3372.302
3437.138, 3355.734
3439.067, 3338.535
3440.995, 3297.438
3442.924, 3238.493
3444.852, 3206.322
3446.781, 3168.514
3448.709, 3144.554
3450.637, 3128.442
3452.566, 3091.693
3454.494, 3060.193
3456.423, 3025.510
3458.351, 2984.057
3460.280, 2937.206
3462.208, 2900.132
3464.137, 2835.636
3466.065, 2801.761
3467.994, 2735.440
3469.922, 2631.083
3471.851, 2594.061
3473.779, 2495.154
3475.708, 2398.678
3477.636, 2331.491
3479.564, 2287.100
3481.493, 2236.479
3483.421, 2145.702
3485.350, 2076.523
3487.278, 2040.974
3489.207, 2018.552
3491.135, 1965.817
3493.064, 1897.259
3494.992, 1858.381
3496.921, 1815.448
3498.849, 1763.034
3500.778, 1733.592
3502.706, 1700.305
3504.635, 1680.991
3506.563, 1638.321
3508.491, 1638.125
3510.420, 1585.854
3512.348, 1584.359
3514.277, 1558.591
3516.205, 1514.991
3518.134, 1478.844
3520.062, 1467.274
3521.991, 1468.028
3523.919, 1438.929
3525.848, 1418.536
3527.776, 1345.513
3529.705, 1348.142
3531.633, 1310.771
3533.562, 1252.726
3535.490, 1231.521
3537.418, 1190.256
3539.347, 1193.465
3541.275, 1138.079
3543.204, 1124.521
3545.132, 1127.047
3547.061, 1115.567
3548.989, 1080.031
3550.918, 1052.843
3552.846, 1029.361
3554.775, 1002.967
3556.703, 1008.959
3558.632, 963.8672
3560.560, 963.2160
3562.489, 956.5654
3564.417, 920.8866
3566.345, 890.5385
3568.274, 877.5495
3570.202, 859.1849
3572.131, 846.8357
3574.059, 835.7499
3575.988, 827.9420
3577.916, 816.6680
3579.845, 802.8042
3581.773, 793.7245
3583.702, 787.5005
3585.630, 793.6582
3587.559, 774.4464
3589.487, 764.3751
3591.416, 750.1345
3593.344, 729.2920
3595.272, 720.3093
3597.201, 702.8095
3599.129, 676.2088
3601.058, 657.7793
3602.986, 657.6119
3604.915, 638.6726
3606.843, 649.3165
3608.772, 623.9754
3610.700, 610.1655
3612.629, 611.7618
3614.557, 597.5840
3616.486, 609.7544
3618.414, 613.2143
3620.343, 599.1118
3622.271, 579.7890
3624.199, 573.7051
3626.128, 574.5295
3628.056, 565.9955
3629.985, 551.0384
3631.913, 544.7090
3633.842, 539.3631
3635.770, 559.0885
3637.699, 530.7472
3639.627, 528.0225
3641.556, 518.4750
3643.484, 493.2580
3645.413, 497.0227
3647.341, 512.9128
3649.270, 517.2429
3651.198, 507.6642
3653.126, 508.4255
3655.055, 517.5122
3656.983, 491.0860
3658.912, 496.0394
3660.840, 465.9887
3662.769, 450.4927
3664.697, 461.9078
3666.626, 476.3964
3668.554, 462.3774
3670.483, 438.8880
3672.411, 418.8093
3674.340, 421.3054
3676.268, 411.1978
3678.197, 377.9341
3680.125, 418.6460
3682.053, 356.3895
3683.982, 355.9967
3685.910, 351.6569
3687.839, 329.5471
3689.767, 310.1766
3691.696, 282.5380
3693.624, 286.3995
3695.553, 277.8123
3697.481, 266.7464
3699.410, 262.8085
3701.338, 255.3167
3703.267, 221.3714
3705.195, 214.9865
3707.124, 198.1812
3709.052, 201.4758
3710.980, 202.1179
3712.909, 192.7505
3714.837, 198.1776
3716.766, 163.8738
3718.694, 149.6355
3720.623, 137.6341
3722.551, 143.1882
3724.480, 152.4433
3726.408, 137.8120
3728.337, 136.0378
3730.265, 135.1281
3732.194, 131.9135
3734.122, 133.1463
3736.051, 125.8821
3737.979, 123.3673
3739.907, 124.0121
3741.836, 115.0924
3743.764, 104.2908
3745.693, 101.8335
3747.621, 94.81690
3749.550, 83.08339
3751.478, 82.01281
3753.407, 77.30456
3755.335, 70.32742
3757.264, 74.28465
3759.192, 74.52780
3761.121, 72.88443
3763.049, 77.37994
3764.978, 68.81025
3766.906, 78.07890
3768.834, 86.97395
3770.763, 79.83749
3772.691, 64.21352
3774.620, 59.95025
3776.548, 56.22793
3778.477, 54.67896
3780.405, 56.65548
3782.334, 53.10014
3784.262, 57.60244
3786.191, 61.72663
3788.119, 54.66082
3790.048, 42.23377
3791.976, 60.32076
3793.905, 58.06549
3795.833, 66.26957
3797.761, 51.26441
3799.690, 40.11367
3801.618, 46.42801
3803.547, 45.68682
3805.475, 41.85888
3807.404, 52.43851
3809.332, 38.69271
3811.261, 39.74441
3813.189, 39.77124
3815.118, 35.16186
3817.046, 40.27026
3818.975, 38.38324
3820.903, 28.24776
3822.832, 35.33543
3824.760, 39.71350
3826.688, 30.99474
3828.617, 24.34236
3830.545, 33.36836
3832.474, 31.69377
3834.402, 31.56519
3836.331, 33.78239
3838.259, 27.09772
3840.188, 28.33996
3842.116, 38.01102
3844.045, 40.78303
3845.973, 27.75361
3847.902, 13.41434
3849.830, 32.73230
3851.759, 32.89993
3853.687, 37.01374
3855.615, 37.32963
3857.544, 35.65186
3859.472, 53.31993
3861.401, 38.70855
3863.329, 35.75434
3865.258, 16.91083
3867.186, 11.55149
3869.115, 10.16330
3871.043, 13.27491
3872.972, 23.11165
3874.900, 22.00729
3876.829, 32.07430
3878.757, 28.37778
3880.686, 28.76465
3882.614, 28.77969
3884.542, 31.19835
3886.471, 33.50721
3888.399, 30.77491
3890.328, 27.91913
3892.256, 34.92411
3894.185, 28.53935
3896.113, 17.40219
3898.042, 11.73184
3899.970, 23.40027
3901.899, 32.60102
3903.827, 21.01981
3905.756, 17.61751
3907.684, 12.92702
3909.613, 8.904160
3911.541, 8.352422
3913.469, 7.840198
3915.398, 9.732503
3917.326, 15.16878
3919.255, 20.19090
3921.183, 33.63164
3923.112, 28.13656
3925.040, 13.17158
3926.969, 32.86675
3928.897, 24.75254
3930.826, 24.04430
3932.754, 24.65798
3934.683, 18.95935
3936.611, 27.57233
3938.540, 6.205395
3940.468, 2.989262
3942.396, 0.8279874
3944.325, 15.05009
3946.253, 15.25704
3948.182, 21.26391
3950.110, 19.25762
3952.039, 2.555683
3953.967, 16.55189
3955.896, 31.15609
3957.824, 26.64922
3959.753, 4.708097
3961.681, 3.356198
3963.610, 9.530849
3965.538, 17.41777
3967.467, 18.50661
3969.395, 10.76703
3971.323, 1.750271
3973.252, 8.819369
3975.180, 20.68213
3977.109, 23.10739
3979.037, 23.32018
3980.966, 20.98897
3982.894, 15.11867
3984.823, 14.60449
3986.751, 6.681408
3988.680, 17.27704
3990.608, 25.99095
3992.537, 15.49898
3994.465, 12.20191
3996.394, 23.11473
3998.322, 26.85208
4000.250, 22.97685
4002.179, 23.45344
4004.107, 18.15686
4006.036, 23.34073
4007.964, 25.66827
4009.893, 19.50167
4011.821, 25.90801
4013.750, 25.40512
4015.678, 7.439077
4017.607, 22.71843
4019.535, 20.13004
4021.464, 12.78054
4023.392, 16.97218
4025.321, 12.82493
4027.249, 9.411332
4029.177, 19.43844
4031.106, 14.33193
4033.034, 22.21947
4034.963, 6.633114
4036.891, 16.07994
4038.820, 10.50978
4040.748, 15.99222
4042.677, 27.28564
4044.605, 14.21588
4046.534, 11.21484
4048.462, 13.74997
4050.391, 26.38562
4052.319, 11.33984
4054.248, 19.92687
4056.176, 13.78285
4058.104, 28.99789
4060.033, 28.23629
4061.961, 26.43364
4063.890, 21.43299
4065.818, 21.15381
4067.747, 23.48508
4069.675, 10.40415
4071.604, 32.30105
4073.532, 16.08489
4075.461, 19.38832
4077.389, 11.42714
4079.318, 29.54927
4081.246, 11.04750
4083.175, 13.11803
4085.103, 25.14886
4087.031, 19.49647
4088.960, 9.141248
4090.888, 1.991024
4092.817, 20.01853
4094.745, 12.05377
4096.674, 23.13254
4098.603, 8.305172
4100.531, 23.05726
4102.459, 17.20075
4104.388, 0.2250397
4106.316, 7.502795
4108.245, 11.30733
4110.173, 5.070268
4112.102, 19.19226
4114.030, 6.799542
4115.958, 13.58307
4117.887, 19.94179
4119.815, 23.53182
4121.744, 31.06804
4123.672, 35.31564
4125.601, 34.46932
4127.529, 20.31024
4129.458, 30.63264
4131.386, 30.65300
4133.315, 28.42004
4135.243, 4.110066
4137.172, -1.947260
4139.100, 23.51152
4141.029, 5.839084
4142.957, 29.13173
4144.886, 16.81982
4146.814, 9.929477
4148.743, 18.34024
4150.671, 7.677906
4152.600, 17.67389
4154.528, 42.63984
4156.457, 33.96668
4158.385, 17.13707
4160.313, 34.05703
4162.242, 7.573042
4164.170, 27.55544
4166.099, 36.80370
4168.027, 35.07405
4169.956, 23.58272
4171.884, 24.76182
4173.813, 22.64408
4175.741, 21.87363
4177.669, 25.71460
4179.598, 20.87637
4181.526, 6.580422
4183.455, 6.199574
4185.383, 3.504179
4187.312, 28.99550
4189.240, 12.33606
4191.169, 7.491164
4193.097, 27.04954
4195.026, 15.95786
4196.954, 8.652272
4198.883, 21.33018
4200.811, 16.83817
4202.740, 30.36969
4204.668, 11.45193
4206.597, 6.393603
4208.525, 18.53980
4210.454, 27.17130
4212.382, 17.30975
4214.311, 0.6487084
4216.239, 24.35944
4218.167, 22.82143
4220.096, 16.61588
4222.024, 21.54927
4223.953, 13.44963
4225.881, 7.857947
4227.810, 29.63002
4229.738, 17.21272
4231.667, 13.57769
4233.595, 20.22641
4235.523, 3.715930
4237.452, 6.012019
4239.380, 10.10109
4241.309, 23.02463
4243.237, 31.13736
4245.166, 18.15828
4247.094, 18.93878
4249.023, 15.86281
4250.951, 37.91976
4252.880, 29.31928
4254.808, 26.65778
4256.737, 15.32599
4258.665, 6.302343
4260.594, 22.37128
4262.522, 28.18950
4264.451, 18.19605
4266.379, 24.37910
4268.308, 18.30024
4270.236, 11.88308
4272.165, 18.69313
4274.093, 11.33349
4276.021, 7.899484
4277.950, 23.94246
4279.878, 20.61128
4281.807, 5.521423
4283.735, 17.99743
4285.664, 26.86376
4287.592, 28.04055
4289.521, 13.88129
4291.449, 15.10078
4293.377, 13.75457
4295.306, 16.45997
4297.234, 12.70758
4299.163, 15.22312
4301.091, 11.10021
4303.020, 4.616167
4304.948, 19.30882
4306.877, 20.72778
4308.805, 10.52581
4310.734, 11.59246
4312.662, 26.74065
4314.591, 25.35672
4316.519, 18.99747
4318.448, 14.74859
4320.376, 23.57701
4322.305, 29.43028
4324.233, 18.18585
4326.162, 19.89432
4328.090, 21.52653
4330.019, 8.451456
4331.947, 30.73352
4333.875, 29.06303
4335.804, 16.05476
4337.732, 17.94274
4339.661, 15.45040
4341.589, 12.30389
4343.518, 20.43920
4345.446, 14.93504
4347.375, 30.02142
4349.303, 13.31919
4351.231, 20.81247
4353.160, 18.18755
4355.088, 12.80184
4357.017, 29.19695
4358.945, 9.315700
4360.874, 20.14861
4362.802, 30.20314
4364.731, 22.54175
4366.659, 17.35663
4368.588, 17.13201
4370.516, 12.91460
4372.445, 25.62013
4374.373, 31.95216
4376.302, 18.19095
4378.230, 16.13150
##END=



