##NAMES=Mitridatite
##RRUFFID=R060367
##IDEAL CHEMISTRY=Ca_2_Fe^3+^_3_O_2_(PO_4_)_3_·3H_2_O
##LOCALITY=Palermo #1 mine, North Groton, Grafton County, New Hampshire, USA
##OWNER=RRUFF
##SOURCE=Michael Scott
##DESCRIPTION=Olive-green crust
##STATUS=The identification of this mineral is not yet confirmed
##URL=https://www.rruff.net/odr/rruff_sample/R060367
##FILETYPE=Raman Processed
##RAMAN WAVELENGTH=532

95.17188, 173.2865
97.10034, 183.0632
99.02881, 191.0696
100.9573, 201.1380
102.8857, 210.4482
104.8142, 218.7711
106.7427, 227.2468
108.6711, 234.5742
110.5996, 240.3005
112.5281, 245.9974
114.4565, 250.9424
116.3850, 255.4488
118.3135, 259.6786
120.2419, 263.6341
122.1704, 267.2338
124.0989, 271.1417
126.0273, 274.8768
127.9558, 278.2743
129.8843, 283.0115
131.8127, 289.3053
133.7412, 296.4896
135.6697, 303.8237
137.5981, 310.7920
139.5266, 318.1743
141.4551, 326.2760
143.3835, 335.1498
145.3120, 343.8717
147.2405, 352.0978
149.1689, 360.0946
151.0974, 368.3436
153.0259, 377.4579
154.9543, 386.3593
156.8828, 394.3675
158.8113, 401.3662
160.7397, 408.6128
162.6682, 416.5916
164.5967, 425.0078
166.5251, 432.9623
168.4536, 439.8365
170.3821, 446.5443
172.3105, 453.5951
174.2390, 461.3875
176.1675, 468.3611
178.0959, 474.2926
180.0244, 479.0842
181.9529, 483.2662
183.8813, 487.1956
185.8098, 490.3676
187.7383, 492.5446
189.6667, 494.4743
191.5952, 494.8517
193.5237, 492.7115
195.4521, 488.6714
197.3806, 485.2668
199.3091, 483.0658
201.2375, 481.5772
203.1660, 480.4938
205.0945, 479.5385
207.0229, 479.2439
208.9514, 479.7399
210.8799, 480.9073
212.8083, 482.8604
214.7368, 486.2619
216.6653, 490.0291
218.5938, 492.8961
220.5222, 494.7580
222.4507, 495.8646
224.3792, 496.2321
226.3076, 495.5929
228.2361, 495.0662
230.1646, 494.6955
232.0930, 494.5192
234.0215, 494.5958
235.9500, 495.2413
237.8784, 495.9388
239.8069, 496.4993
241.7354, 496.8541
243.6638, 497.5726
245.5923, 498.3716
247.5208, 499.6166
249.4492, 501.6540
251.3777, 505.0899
253.3062, 508.6137
255.2346, 511.8176
257.1631, 514.6264
259.0916, 517.5444
261.0200, 520.6567
262.9485, 523.9522
264.8770, 527.4518
266.8054, 532.4774
268.7339, 536.5753
270.6624, 538.8502
272.5908, 539.4716
274.5193, 539.5059
276.4478, 538.9359
278.3762, 537.9559
280.3047, 536.7234
282.2332, 535.4202
284.1616, 533.7282
286.0901, 531.1497
288.0186, 527.7241
289.9470, 524.9994
291.8755, 523.4016
293.8040, 522.3964
295.7324, 521.3430
297.6609, 519.8650
299.5894, 518.8307
301.5178, 518.8954
303.4463, 520.2017
305.3748, 520.2892
307.3032, 517.9547
309.2317, 515.1235
311.1602, 513.8767
313.0886, 514.9197
315.0171, 515.6983
316.9456, 515.3447
318.8740, 513.8587
320.8025, 512.7899
322.7310, 512.3746
324.6594, 512.2206
326.5879, 512.0488
328.5164, 511.8370
330.4448, 511.5898
332.3733, 511.1393
334.3018, 510.5307
336.2302, 510.2321
338.1587, 510.2920
340.0872, 510.5437
342.0156, 510.9555
343.9441, 511.6744
345.8726, 512.0775
347.8010, 511.7788
349.7295, 511.1376
351.6580, 511.0827
353.5864, 511.8536
355.5149, 512.9216
357.4434, 514.0350
359.3718, 515.1501
361.3003, 516.5953
363.2288, 518.6479
365.1572, 520.9921
367.0857, 523.0768
369.0142, 524.3963
370.9426, 526.4478
372.8711, 529.7526
374.7996, 534.4790
376.7280, 538.9747
378.6565, 543.0404
380.5850, 546.8468
382.5134, 550.4719
384.4419, 553.7672
386.3704, 557.1800
388.2988, 561.0696
390.2273, 565.3398
392.1558, 569.2128
394.0842, 572.5869
396.0127, 575.9621
397.9412, 579.5950
399.8696, 583.5045
401.7981, 587.7501
403.7266, 592.3152
405.6550, 597.0843
407.5835, 601.8832
409.5120, 606.7472
411.4404, 611.1227
413.3689, 614.8982
415.2974, 618.0875
417.2258, 619.9283
419.1543, 620.0390
421.0828, 619.2648
423.0112, 618.3824
424.9397, 617.6900
426.8682, 616.4645
428.7966, 614.4756
430.7251, 611.9659
432.6536, 609.5090
434.5820, 607.1916
436.5105, 604.8876
438.4390, 602.2485
440.3674, 599.2032
442.2959, 596.9216
444.2244, 596.4494
446.1528, 596.4003
448.0813, 595.2327
450.0098, 592.1608
451.9382, 588.9236
453.8667, 585.7728
455.7952, 582.6661
457.7236, 579.4821
459.6521, 575.9769
461.5806, 572.6512
463.5090, 569.8712
465.4375, 567.9545
467.3660, 565.8373
469.2944, 563.1674
471.2229, 560.4595
473.1514, 558.2903
475.0798, 556.9901
477.0083, 555.9333
478.9368, 554.8035
480.8652, 553.6906
482.7937, 553.2925
484.7222, 553.8059
486.6506, 554.7772
488.5791, 555.9135
490.5076, 557.2473
492.4360, 558.3975
494.3645, 559.3720
496.2930, 560.0220
498.2214, 560.1036
500.1499, 559.3155
502.0784, 558.6394
504.0068, 558.5525
505.9353, 559.0575
507.8638, 559.3619
509.7922, 559.6744
511.7207, 559.8092
513.6492, 559.4988
515.5776, 558.7446
517.5061, 558.4326
519.4346, 559.0902
521.3630, 560.1373
523.2915, 560.9805
525.2200, 561.1257
527.1484, 561.5806
529.0769, 562.3498
531.0054, 563.4986
532.9338, 565.2220
534.8623, 568.0685
536.7908, 570.8761
538.7192, 573.1371
540.6477, 574.6667
542.5762, 576.3693
544.5046, 578.4598
546.4331, 580.6533
548.3616, 582.9100
550.2900, 585.5466
552.2185, 587.3910
554.1470, 588.0012
556.0754, 587.7833
558.0039, 587.6312
559.9324, 587.3973
561.8608, 587.2701
563.7893, 587.0533
565.7178, 586.7793
567.6462, 587.1029
569.5747, 588.5206
571.5032, 590.1254
573.4316, 591.5422
575.3601, 592.7528
577.2886, 593.8445
579.2170, 594.6256
581.1455, 595.4597
583.0740, 596.7077
585.0024, 598.7310
586.9309, 600.5718
588.8594, 602.2515
590.7878, 603.6708
592.7163, 604.5861
594.6448, 604.8922
596.5732, 605.0078
598.5017, 605.1549
600.4302, 605.3370
602.3586, 605.2332
604.2871, 604.0801
606.2156, 603.2755
608.1440, 603.5968
610.0725, 605.0633
612.0010, 606.8442
613.9294, 609.2187
615.8579, 611.4766
617.7864, 612.9557
619.7148, 612.9105
621.6433, 613.2318
623.5718, 614.5936
625.5002, 616.2932
627.4287, 617.0817
629.3572, 616.6952
631.2856, 616.2938
633.2141, 616.4528
635.1426, 617.0990
637.0710, 617.5408
638.9995, 617.5076
640.9280, 617.5399
642.8564, 617.8990
644.7849, 618.4662
646.7134, 618.5992
648.6418, 617.8552
650.5703, 616.8453
652.4988, 615.8968
654.4272, 614.9883
656.3557, 614.3463
658.2842, 614.5583
660.2126, 614.8961
662.1411, 614.5664
664.0696, 613.4805
665.9980, 612.7400
667.9265, 612.3491
669.8550, 612.5228
671.7834, 613.6487
673.7119, 616.7610
675.6404, 619.4042
677.5688, 621.1315
679.4973, 621.9704
681.4258, 622.3233
683.3542, 621.8616
685.2827, 621.4515
687.2112, 621.5967
689.1396, 622.3217
691.0681, 622.8009
692.9966, 622.9969
694.9250, 623.1963
696.8535, 623.4421
698.7820, 623.7430
700.7104, 624.2884
702.6389, 625.1120
704.5674, 626.0081
706.4958, 626.8343
708.4243, 627.5023
710.3528, 628.1483
712.2813, 629.1820
714.2097, 629.9926
716.1382, 629.9794
718.0667, 629.1674
719.9951, 628.5257
721.9236, 628.1671
723.8521, 628.3027
725.7805, 629.1945
727.7090, 631.7089
729.6375, 633.6983
731.5659, 634.2887
733.4944, 634.4266
735.4229, 635.5729
737.3513, 637.9522
739.2798, 640.2385
741.2083, 642.1782
743.1367, 643.6826
745.0652, 644.5508
746.9937, 643.7155
748.9221, 643.5508
750.8506, 645.1217
752.7791, 647.7393
754.7075, 649.3272
756.6360, 649.4714
758.5645, 649.4299
760.4929, 649.4466
762.4214, 649.5758
764.3499, 650.2725
766.2783, 651.9809
768.2068, 653.6985
770.1353, 655.1539
772.0637, 656.3142
773.9922, 657.3380
775.9207, 658.4434
777.8491, 659.0596
779.7776, 658.7068
781.7061, 657.4153
783.6345, 656.9285
785.5630, 658.3220
787.4915, 659.6633
789.4199, 659.9478
791.3484, 659.2724
793.2769, 659.4525
795.2053, 661.0173
797.1338, 662.8396
799.0623, 664.2347
800.9907, 665.0992
802.9192, 666.1175
804.8477, 667.5324
806.7761, 668.8282
808.7046, 669.8441
810.6331, 670.6217
812.5615, 671.0785
814.4900, 670.9533
816.4185, 670.9524
818.3469, 671.4366
820.2754, 672.4156
822.2039, 673.6951
824.1323, 675.5720
826.0608, 677.3331
827.9893, 678.3055
829.9177, 678.1203
831.8462, 678.8539
833.7747, 681.9589
835.7031, 684.6315
837.6316, 684.9584
839.5601, 682.9827
841.4885, 681.6799
843.4170, 682.0963
845.3455, 682.8986
847.2739, 683.4752
849.2024, 683.7887
851.1309, 684.5434
853.0593, 686.4702
854.9878, 688.2295
856.9163, 688.6945
858.8447, 687.9920
860.7732, 687.9747
862.7017, 689.5073
864.6301, 691.1174
866.5586, 691.9842
868.4871, 691.9236
870.4155, 692.5042
872.3440, 694.4053
874.2725, 696.3219
876.2009, 697.2941
878.1294, 697.5750
880.0579, 698.7023
881.9863, 701.2165
883.9148, 704.1328
885.8433, 707.0629
887.7717, 709.9913
889.7002, 712.8372
891.6287, 715.0577
893.5571, 717.8313
895.4856, 722.2086
897.4141, 727.8267
899.3425, 732.2725
901.2710, 734.2526
903.1995, 737.1867
905.1279, 742.7043
907.0564, 750.3665
908.9849, 758.1576
910.9133, 765.4543
912.8418, 773.2254
914.7703, 781.9469
916.6987, 791.1038
918.6272, 799.3373
920.5557, 806.2630
922.4841, 813.0909
924.4126, 821.2534
926.3411, 829.5644
928.2695, 835.6842
930.1980, 838.4827
932.1265, 841.9495
934.0549, 846.4689
935.9834, 852.2542
937.9119, 860.4256
939.8403, 875.3141
941.7688, 882.9439
943.6973, 877.8897
945.6257, 866.3723
947.5542, 853.8123
949.4827, 839.6688
951.4111, 828.2443
953.3396, 821.6702
955.2681, 817.4489
957.1965, 814.2597
959.1250, 812.5634
961.0535, 810.4653
962.9819, 807.3983
964.9104, 804.2262
966.8389, 801.3079
968.7673, 798.5923
970.6958, 796.2656
972.6243, 794.4608
974.5527, 793.0237
976.4812, 792.1328
978.4097, 791.8189
980.3381, 791.1990
982.2666, 789.7625
984.1951, 788.8297
986.1235, 789.0777
988.0520, 790.1087
989.9805, 790.4122
991.9089, 789.0103
993.8374, 788.6490
995.7659, 790.7597
997.6943, 793.9948
999.6228, 796.5746
1001.551, 798.1993
1003.480, 799.8262
1005.408, 801.8147
1007.337, 803.8555
1009.265, 805.6627
1011.194, 807.1928
1013.122, 808.9034
1015.051, 811.0733
1016.979, 813.2914
1018.907, 815.2032
1020.836, 816.8494
1022.764, 818.6453
1024.693, 820.3015
1026.621, 822.5829
1028.550, 826.5332
1030.478, 831.7551
1032.407, 834.9818
1034.335, 834.8820
1036.264, 834.3350
1038.192, 833.7627
1040.121, 833.0323
1042.049, 831.6996
1043.978, 829.2525
1045.906, 827.4772
1047.834, 827.3914
1049.763, 827.7446
1051.691, 827.5403
1053.620, 826.8284
1055.548, 825.6271
1057.477, 823.3386
1059.405, 821.3071
1061.334, 820.2348
1063.262, 820.1822
1065.191, 820.6964
1067.119, 822.6326
1069.048, 823.9891
1070.976, 822.9691
1072.905, 820.8604
1074.833, 821.1395
1076.761, 824.8887
1078.690, 828.3117
1080.618, 829.6121
1082.547, 830.2919
1084.475, 832.1619
1086.404, 835.9545
1088.332, 839.0781
1090.261, 842.0147
1092.189, 843.7950
1094.118, 843.4019
1096.046, 840.6623
1097.975, 838.3502
1099.903, 836.4437
1101.832, 835.0099
1103.760, 834.1230
1105.688, 833.6798
1107.617, 833.4413
1109.545, 833.0611
1111.474, 833.4698
1113.402, 835.5609
1115.331, 838.0138
1117.259, 839.3762
1119.188, 839.0762
1121.116, 839.0159
1123.045, 839.3750
1124.973, 840.0117
1126.902, 840.9633
1128.830, 842.3223
1130.759, 844.0073
1132.687, 846.3618
1134.615, 848.5530
1136.544, 849.7012
1138.472, 850.4835
1140.401, 852.1608
1142.329, 855.0558
1144.258, 857.3511
1146.186, 858.2780
1148.115, 858.7314
1150.043, 859.2824
1151.972, 859.9545
1153.900, 861.2103
1155.829, 863.7258
1157.757, 866.3669
1159.686, 868.8342
1161.614, 871.1918
1163.542, 873.4221
1165.471, 875.2431
1167.399, 877.5602
1169.328, 880.7662
1171.256, 884.3113
1173.185, 887.9198
1175.113, 891.6660
1177.042, 894.4321
1178.970, 895.4423
1180.899, 896.2157
1182.827, 897.3330
1184.756, 898.7451
1186.684, 900.0809
1188.613, 901.9059
1190.541, 902.8461
1192.469, 902.0957
1194.398, 900.7109
1196.326, 899.7494
1198.255, 899.1725
1200.183, 898.6314
1202.112, 897.9568
1204.040, 897.5709
1205.969, 897.7949
1207.897, 898.5903
1209.826, 899.7272
1211.754, 901.6035
1213.683, 903.2077
1215.611, 903.5327
1217.540, 904.0594
1219.468, 906.4877
1221.396, 911.3712
1223.325, 914.4703
1225.253, 913.7505
1227.182, 913.2722
1229.110, 914.9455
1231.039, 917.8619
1232.967, 919.9671
1234.896, 921.2549
1236.824, 922.3486
1238.753, 923.4885
1240.681, 924.7542
1242.610, 925.8882
1244.538, 926.9965
1246.467, 929.6188
1248.395, 935.4980
1250.323, 940.2180
1252.252, 941.2310
1254.180, 940.5814
1256.109, 941.7213
1258.037, 945.7189
1259.966, 948.9515
1261.894, 951.6048
1263.823, 953.4491
1265.751, 954.2014
1267.680, 954.1758
1269.608, 954.3583
1271.537, 954.7076
1273.465, 955.6960
1275.394, 958.0334
1277.322, 960.6135
1279.250, 962.1158
1281.179, 962.4948
1283.107, 963.8287
1285.036, 966.9041
1286.964, 969.8419
1288.893, 972.2291
1290.821, 974.0062
1292.750, 975.0580
1294.678, 975.2115
1296.607, 975.2930
1298.535, 974.8804
1300.464, 975.0425
1302.392, 976.6373
1304.321, 979.3854
1306.249, 981.7889
1308.177, 983.5497
1310.106, 985.5880
1312.034, 988.5745
1313.963, 991.5392
1315.891, 993.4709
1317.820, 994.5638
1319.748, 996.0724
1321.677, 998.3135
1323.605, 1000.484
1325.534, 1002.080
1327.462, 1003.503
1329.391, 1005.211
1331.319, 1007.208
1333.248, 1009.328
1335.176, 1011.890
1337.104, 1014.281
1339.033, 1016.265
1340.961, 1017.972
1342.890, 1019.629
1344.818, 1021.064
1346.747, 1022.568
1348.675, 1024.312
1350.604, 1025.765
1352.532, 1026.769
1354.461, 1027.225
1356.389, 1026.849
1358.318, 1025.563
1360.246, 1024.261
1362.175, 1023.120
1364.103, 1022.414
1366.031, 1022.449
1367.960, 1023.173
1369.888, 1024.152
1371.817, 1025.040
1373.745, 1026.952
1375.674, 1031.121
1377.602, 1035.435
1379.531, 1038.002
1381.459, 1038.721
1383.388, 1039.846
1385.316, 1042.032
1387.245, 1043.490
1389.173, 1043.665
1391.102, 1043.175
1393.030, 1042.600
1394.958, 1042.028
1396.887, 1041.579
1398.815, 1041.327
1400.744, 1041.344
1402.672, 1041.729
1404.601, 1042.402
1406.529, 1043.294
1408.458, 1044.418
1410.386, 1045.617
1412.315, 1047.014
1414.243, 1048.272
1416.172, 1048.786
1418.100, 1049.335
1420.029, 1050.937
1421.957, 1053.522
1423.885, 1056.098
1425.814, 1058.558
1427.742, 1060.781
1429.671, 1062.796
1431.599, 1064.428
1433.528, 1065.262
1435.456, 1065.248
1437.385, 1065.750
1439.313, 1067.450
1441.242, 1068.901
1443.170, 1069.392
1445.099, 1069.517
1447.027, 1070.094
1448.956, 1071.316
1450.884, 1072.036
1452.813, 1071.768
1454.741, 1071.703
1456.669, 1072.235
1458.598, 1073.198
1460.526, 1074.477
1462.455, 1076.204
1464.383, 1077.659
1466.312, 1078.592
1468.240, 1079.494
1470.169, 1080.254
1472.097, 1081.049
1474.026, 1082.196
1475.954, 1083.696
1477.883, 1084.908
1479.811, 1085.718
1481.740, 1086.781
1483.668, 1088.376
1485.596, 1090.413
1487.525, 1092.570
1489.453, 1094.889
1491.382, 1098.205
1493.310, 1102.915
1495.239, 1106.695
1497.167, 1108.233
1499.096, 1108.790
1501.024, 1109.425
1502.953, 1110.033
1504.881, 1109.921
1506.810, 1108.975
1508.738, 1108.682
1510.667, 1110.008
1512.595, 1111.772
1514.523, 1113.570
1516.452, 1115.208
1518.380, 1115.853
1520.309, 1114.660
1522.237, 1114.847
1524.166, 1117.973
1526.094, 1121.199
1528.023, 1123.800
1529.951, 1125.910
1531.880, 1127.588
1533.808, 1128.597
1535.737, 1130.262
1537.665, 1132.853
1539.594, 1135.548
1541.522, 1137.751
1543.450, 1139.898
1545.379, 1142.670
1547.307, 1146.068
1549.236, 1148.669
1551.164, 1150.367
1553.093, 1151.739
1555.021, 1152.641
1556.950, 1153.716
1558.878, 1155.655
1560.807, 1158.312
1562.735, 1160.628
1564.664, 1162.210
1566.592, 1164.379
1568.521, 1167.561
1570.449, 1170.744
1572.377, 1173.559
1574.306, 1175.835
1576.234, 1177.194
1578.163, 1177.580
1580.091, 1177.948
1582.020, 1178.795
1583.948, 1179.237
1585.877, 1179.134
1587.805, 1178.688
1589.734, 1177.079
1591.662, 1175.097
1593.591, 1177.367
1595.519, 1186.106
1597.448, 1192.053
1599.376, 1190.781
1601.304, 1188.103
1603.233, 1187.379
1605.161, 1187.700
1607.090, 1187.370
1609.018, 1186.252
1610.947, 1185.881
1612.875, 1187.181
1614.804, 1187.956
1616.732, 1187.432
1618.661, 1185.898
1620.589, 1182.898
1622.518, 1178.943
1624.446, 1177.230
1626.375, 1178.776
1628.303, 1179.458
1630.231, 1177.565
1632.160, 1175.332
1634.088, 1173.962
1636.017, 1173.123
1637.945, 1172.139
1639.874, 1171.018
1641.802, 1170.451
1643.731, 1170.850
1645.659, 1171.328
1647.588, 1171.869
1649.516, 1172.139
1651.445, 1171.478
1653.373, 1170.202
1655.302, 1170.014
1657.230, 1171.182
1659.158, 1172.053
1661.087, 1171.760
1663.015, 1171.651
1664.944, 1172.332
1666.872, 1173.278
1668.801, 1174.033
1670.729, 1174.633
1672.658, 1174.847
1674.586, 1175.151
1676.515, 1174.613
1678.443, 1172.291
1680.372, 1170.492
1682.300, 1170.340
1684.229, 1171.498
1686.157, 1173.234
1688.085, 1175.341
1690.014, 1178.071
1691.942, 1181.662
1693.871, 1184.561
1695.799, 1185.862
1697.728, 1186.526
1699.656, 1187.537
1701.585, 1188.493
1703.513, 1187.896
1705.442, 1185.578
1707.370, 1184.140
1709.299, 1184.562
1711.227, 1185.008
1713.156, 1184.564
1715.084, 1184.454
1717.012, 1185.983
1718.941, 1188.571
1720.869, 1189.750
1722.798, 1188.914
1724.726, 1189.501
1726.655, 1192.997
1728.583, 1196.036
1730.512, 1197.185
1732.440, 1197.708
1734.369, 1198.745
1736.297, 1200.059
1738.226, 1200.237
1740.154, 1198.705
1742.083, 1199.043
1744.011, 1203.510
1745.939, 1206.727
1747.868, 1205.811
1749.796, 1204.047
1751.725, 1204.125
1753.653, 1205.730
1755.582, 1207.294
1757.510, 1208.767
1759.439, 1210.474
1761.367, 1212.385
1763.296, 1214.121
1765.224, 1215.062
1767.153, 1215.709
1769.081, 1216.814
1771.010, 1217.929
1772.938, 1217.719
1774.866, 1216.266
1776.795, 1215.133
1778.723, 1214.754
1780.652, 1214.707
1782.580, 1214.848
1784.509, 1215.265
1786.437, 1215.846
1788.366, 1216.585
1790.294, 1217.631
1792.223, 1218.935
1794.151, 1220.343
1796.080, 1222.071
1798.008, 1223.468
1799.937, 1223.844
1801.865, 1224.558
1803.793, 1226.756
1805.722, 1229.539
1807.650, 1231.871
1809.579, 1233.598
1811.507, 1233.793
1813.436, 1231.637
1815.364, 1230.760
1817.293, 1233.019
1819.221, 1235.358
1821.150, 1236.544
1823.078, 1237.215
1825.007, 1237.876
1826.935, 1238.645
1828.864, 1239.792
1830.792, 1241.314
1832.720, 1243.224
1834.649, 1246.004
1836.577, 1248.236
1838.506, 1248.890
1840.434, 1249.300
1842.363, 1250.539
1844.291, 1252.091
1846.220, 1252.832
1848.148, 1252.612
1850.077, 1253.085
1852.005, 1255.256
1853.934, 1256.885
1855.862, 1257.995
1857.791, 1258.755
1859.719, 1258.755
1861.647, 1258.889
1863.576, 1260.072
1865.504, 1262.092
1867.433, 1264.271
1869.361, 1266.479
1871.290, 1268.360
1873.218, 1269.733
1875.147, 1270.864
1877.075, 1272.155
1879.004, 1273.177
1880.932, 1273.534
1882.861, 1273.815
1884.789, 1275.094
1886.718, 1277.287
1888.646, 1278.475
1890.574, 1278.085
1892.503, 1278.649
1894.431, 1281.276
1896.360, 1283.324
1898.288, 1283.105
1900.217, 1282.664
1902.145, 1283.796
1904.074, 1285.584
1906.002, 1286.277
1907.931, 1285.929
1909.859, 1285.713
1911.788, 1285.681
1913.716, 1285.657
1915.645, 1285.539
1917.573, 1285.725
1919.501, 1287.132
1921.430, 1288.590
1923.358, 1288.928
1925.287, 1288.778
1927.215, 1289.533
1929.144, 1291.279
1931.072, 1292.348
1933.001, 1291.440
1934.929, 1291.965
1936.858, 1294.899
1938.786, 1297.871
1940.715, 1300.102
1942.643, 1301.765
1944.572, 1303.300
1946.500, 1304.309
1948.428, 1303.542
1950.357, 1300.884
1952.285, 1300.059
1954.214, 1302.113
1956.142, 1303.751
1958.071, 1304.487
1959.999, 1305.153
1961.928, 1306.067
1963.856, 1306.823
1965.785, 1306.608
1967.713, 1306.117
1969.642, 1306.662
1971.570, 1308.046
1973.499, 1309.495
1975.427, 1311.069
1977.355, 1312.477
1979.284, 1313.948
1981.212, 1314.986
1983.141, 1314.501
1985.069, 1314.778
1986.998, 1318.022
1988.926, 1322.128
1990.855, 1324.100
1992.783, 1324.555
1994.712, 1326.329
1996.640, 1329.642
1998.569, 1332.206
2000.497, 1332.938
2002.426, 1334.063
2004.354, 1336.688
2006.282, 1338.173
2008.211, 1337.089
2010.139, 1335.248
2012.068, 1334.303
2013.996, 1333.878
2015.925, 1332.918
2017.853, 1331.644
2019.782, 1331.530
2021.710, 1332.891
2023.639, 1333.468
2025.567, 1332.265
2027.496, 1332.089
2029.424, 1334.811
2031.353, 1337.216
2033.281, 1336.806
2035.209, 1335.742
2037.138, 1335.880
2039.066, 1336.943
2040.995, 1338.691
2042.923, 1341.151
2044.852, 1342.915
2046.780, 1343.877
2048.709, 1344.943
2050.637, 1345.940
2052.566, 1347.683
2054.494, 1351.383
2056.423, 1354.411
2058.351, 1354.273
2060.280, 1353.310
2062.208, 1354.202
2064.136, 1356.153
2066.065, 1357.268
2067.993, 1357.646
2069.922, 1357.473
2071.850, 1356.726
2073.779, 1356.757
2075.707, 1358.109
2077.636, 1359.502
2079.564, 1360.017
2081.493, 1361.079
2083.421, 1364.349
2085.350, 1367.508
2087.278, 1368.154
2089.207, 1367.123
2091.135, 1365.869
2093.063, 1364.408
2094.992, 1363.546
2096.920, 1363.432
2098.849, 1363.754
2100.777, 1365.681
2102.706, 1366.428
2104.634, 1363.769
2106.563, 1363.061
2108.491, 1367.995
2110.420, 1373.384
2112.348, 1374.959
2114.277, 1375.261
2116.205, 1377.677
2118.134, 1381.142
2120.062, 1383.295
2121.990, 1383.977
2123.919, 1383.413
2125.847, 1381.576
2127.776, 1379.235
2129.704, 1376.290
2131.633, 1373.888
2133.561, 1372.216
2135.490, 1371.733
2137.418, 1373.747
2139.347, 1375.921
2141.275, 1375.857
2143.204, 1374.754
2145.132, 1374.438
2147.061, 1374.716
2148.989, 1375.329
2150.917, 1376.244
2152.846, 1376.302
2154.774, 1375.256
2156.703, 1375.170
2158.631, 1376.953
2160.560, 1378.527
2162.488, 1378.955
2164.417, 1379.271
2166.345, 1379.975
2168.274, 1380.449
2170.202, 1380.143
2172.131, 1379.373
2174.059, 1378.494
2175.988, 1377.672
2177.916, 1377.553
2179.844, 1378.193
2181.773, 1377.736
2183.701, 1375.896
2185.630, 1375.676
2187.558, 1378.186
2189.487, 1379.506
2191.415, 1377.629
2193.344, 1376.271
2195.272, 1377.088
2197.201, 1378.443
2199.129, 1379.645
2201.058, 1380.568
2202.986, 1380.928
2204.915, 1381.016
2206.843, 1381.565
2208.771, 1382.465
2210.700, 1382.574
2212.628, 1381.931
2214.557, 1382.390
2216.485, 1384.135
2218.414, 1386.277
2220.342, 1389.015
2222.271, 1390.592
2224.199, 1389.513
2226.128, 1388.693
2228.056, 1389.993
2229.985, 1391.064
2231.913, 1390.284
2233.842, 1389.260
2235.770, 1389.282
2237.698, 1390.421
2239.627, 1393.446
2241.555, 1397.462
2243.484, 1397.886
2245.412, 1394.939
2247.341, 1395.756
2249.269, 1400.818
2251.198, 1404.050
2253.126, 1404.760
2255.055, 1403.996
2256.983, 1401.465
2258.912, 1399.187
2260.840, 1397.971
2262.769, 1397.253
2264.697, 1396.321
2266.625, 1396.353
2268.554, 1398.579
2270.482, 1401.619
2272.411, 1404.142
2274.339, 1406.203
2276.268, 1407.924
2278.196, 1409.316
2280.125, 1410.240
2282.053, 1410.736
2283.982, 1412.535
2285.910, 1416.079
2287.839, 1417.964
2289.767, 1417.145
2291.696, 1416.109
2293.624, 1415.093
2295.552, 1414.072
2297.481, 1413.309
2299.409, 1412.857
2301.338, 1412.675
2303.266, 1413.233
2305.195, 1415.789
2307.123, 1417.918
2309.052, 1415.927
2310.980, 1413.178
2312.909, 1415.680
2314.837, 1420.403
2316.766, 1419.415
2318.694, 1413.984
2320.623, 1412.287
2322.551, 1414.842
2324.479, 1416.238
2326.408, 1416.160
2328.336, 1417.938
2330.265, 1422.173
2332.193, 1425.466
2334.122, 1426.533
2336.050, 1427.240
2337.979, 1428.102
2339.907, 1428.462
2341.836, 1428.383
2343.764, 1427.761
2345.693, 1426.171
2347.621, 1424.766
2349.550, 1424.580
2351.478, 1424.865
2353.406, 1424.847
2355.335, 1424.740
2357.263, 1425.166
2359.192, 1425.756
2361.120, 1425.302
2363.049, 1424.229
2364.977, 1424.652
2366.906, 1426.730
2368.834, 1428.271
2370.763, 1428.608
2372.691, 1431.097
2374.620, 1436.406
2376.548, 1439.642
2378.477, 1439.591
2380.405, 1438.895
2382.333, 1437.703
2384.262, 1437.209
2386.190, 1438.957
2388.119, 1440.243
2390.047, 1439.906
2391.976, 1439.289
2393.904, 1438.576
2395.833, 1438.379
2397.761, 1439.452
2399.690, 1440.887
2401.618, 1442.185
2403.547, 1443.002
2405.475, 1441.913
2407.404, 1440.501
2409.332, 1443.026
2411.260, 1448.047
2413.189, 1449.366
2415.117, 1447.235
2417.046, 1447.082
2418.974, 1448.913
2420.903, 1450.340
2422.831, 1451.247
2424.760, 1452.411
2426.688, 1454.093
2428.617, 1454.803
2430.545, 1453.875
2432.474, 1453.335
2434.402, 1454.352
2436.331, 1454.719
2438.259, 1452.673
2440.188, 1452.607
2442.116, 1456.781
2444.044, 1460.855
2445.973, 1463.025
2447.901, 1463.957
2449.830, 1462.566
2451.758, 1461.502
2453.687, 1463.843
2455.615, 1466.411
2457.544, 1466.557
2459.472, 1465.415
2461.401, 1463.463
2463.329, 1461.873
2465.258, 1462.766
2467.186, 1465.048
2469.115, 1466.031
2471.043, 1466.391
2472.971, 1469.060
2474.900, 1473.394
2476.828, 1475.697
2478.757, 1475.897
2480.685, 1477.065
2482.614, 1479.219
2484.542, 1480.441
2486.471, 1480.679
2488.399, 1479.818
2490.328, 1477.573
2492.256, 1476.330
2494.185, 1477.385
2496.113, 1477.447
2498.042, 1475.300
2499.970, 1474.939
2501.898, 1477.791
2503.827, 1480.130
2505.755, 1481.307
2507.684, 1481.546
2509.612, 1479.108
2511.541, 1478.562
2513.469, 1482.708
2515.398, 1486.969
2517.326, 1489.132
2519.255, 1490.842
2521.183, 1493.790
2523.112, 1495.184
2525.040, 1492.549
2526.969, 1489.125
2528.897, 1487.165
2530.825, 1486.246
2532.754, 1486.496
2534.682, 1487.386
2536.611, 1488.224
2538.539, 1489.233
2540.468, 1490.280
2542.396, 1491.546
2544.325, 1493.762
2546.253, 1496.015
2548.182, 1497.236
2550.110, 1497.388
2552.039, 1495.960
2553.967, 1493.805
2555.896, 1493.097
2557.824, 1493.951
2559.752, 1496.689
2561.681, 1500.662
2563.609, 1502.306
2565.538, 1501.718
2567.466, 1503.326
2569.395, 1507.063
2571.323, 1507.320
2573.252, 1503.570
2575.180, 1501.689
2577.109, 1501.985
2579.037, 1501.633
2580.966, 1500.600
2582.894, 1500.889
2584.823, 1503.240
2586.751, 1504.366
2588.679, 1502.440
2590.608, 1503.194
2592.536, 1507.361
2594.465, 1510.608
2596.393, 1512.203
2598.322, 1512.993
2600.250, 1512.890
2602.179, 1512.039
2604.107, 1510.347
2606.036, 1508.333
2607.964, 1505.871
2609.893, 1504.641
2611.821, 1505.611
2613.750, 1506.931
2615.678, 1508.245
2617.606, 1509.678
2619.535, 1510.516
2621.463, 1511.937
2623.392, 1514.993
2625.320, 1516.416
2627.249, 1514.276
2629.177, 1512.555
2631.106, 1512.705
2633.034, 1513.572
2634.963, 1516.141
2636.891, 1517.740
2638.820, 1516.666
2640.748, 1515.704
2642.677, 1515.115
2644.605, 1515.752
2646.533, 1518.750
2648.462, 1521.094
2650.390, 1520.493
2652.319, 1520.035
2654.247, 1521.473
2656.176, 1523.232
2658.104, 1525.110
2660.033, 1526.333
2661.961, 1525.963
2663.890, 1525.565
2665.818, 1526.283
2667.747, 1526.632
2669.675, 1525.620
2671.604, 1524.202
2673.532, 1522.680
2675.460, 1521.497
2677.389, 1521.128
2679.317, 1521.073
2681.246, 1521.335
2683.174, 1521.487
2685.103, 1521.569
2687.031, 1520.982
2688.960, 1517.845
2690.888, 1515.844
2692.817, 1518.865
2694.745, 1522.044
2696.674, 1521.941
2698.602, 1522.033
2700.531, 1525.339
2702.459, 1528.726
2704.387, 1529.253
2706.316, 1529.675
2708.244, 1531.203
2710.173, 1533.093
2712.101, 1534.851
2714.030, 1536.360
2715.958, 1538.653
2717.887, 1539.505
2719.815, 1536.596
2721.744, 1533.948
2723.672, 1534.703
2725.601, 1535.954
2727.529, 1536.208
2729.458, 1536.266
2731.386, 1536.304
2733.314, 1536.304
2735.243, 1535.603
2737.171, 1535.522
2739.100, 1536.832
2741.028, 1538.797
2742.957, 1541.603
2744.885, 1544.314
2746.814, 1546.531
2748.742, 1548.431
2750.671, 1549.074
2752.599, 1550.774
2754.528, 1554.871
2756.456, 1558.768
2758.385, 1561.713
2760.313, 1563.290
2762.241, 1563.016
2764.170, 1561.713
2766.098, 1559.046
2768.027, 1556.578
2769.955, 1554.792
2771.884, 1553.654
2773.812, 1554.909
2775.741, 1554.442
2777.669, 1548.903
2779.598, 1546.676
2781.526, 1550.596
2783.455, 1554.220
2785.383, 1555.700
2787.312, 1556.768
2789.240, 1556.735
2791.168, 1557.229
2793.097, 1558.535
2795.025, 1558.985
2796.954, 1558.549
2798.882, 1556.855
2800.811, 1553.827
2802.739, 1551.078
2804.668, 1548.835
2806.596, 1547.878
2808.525, 1548.566
2810.453, 1548.557
2812.382, 1547.474
2814.310, 1548.607
2816.239, 1552.851
2818.167, 1555.334
2820.095, 1555.650
2822.024, 1556.507
2823.952, 1557.726
2825.881, 1557.742
2827.809, 1556.555
2829.738, 1556.719
2831.666, 1558.158
2833.595, 1559.264
2835.523, 1560.065
2837.452, 1559.849
2839.380, 1558.988
2841.309, 1557.842
2843.237, 1557.182
2845.166, 1560.186
2847.094, 1564.766
2849.022, 1565.339
2850.951, 1564.092
2852.879, 1564.698
2854.808, 1566.473
2856.736, 1569.244
2858.665, 1571.747
2860.593, 1571.934
2862.522, 1571.534
2864.450, 1573.119
2866.379, 1574.198
2868.307, 1571.576
2870.236, 1569.227
2872.164, 1570.916
2874.093, 1572.834
2876.021, 1572.424
2877.949, 1571.865
2879.878, 1571.705
2881.806, 1572.392
2883.735, 1575.062
2885.663, 1577.224
2887.592, 1578.437
2889.520, 1578.849
2891.449, 1577.889
2893.377, 1578.088
2895.306, 1580.547
2897.234, 1582.925
2899.163, 1584.887
2901.091, 1586.458
2903.020, 1587.483
2904.948, 1589.287
2906.876, 1592.576
2908.805, 1593.318
2910.733, 1591.190
2912.662, 1590.857
2914.590, 1592.207
2916.519, 1593.107
2918.447, 1593.723
2920.376, 1595.964
2922.304, 1598.980
2924.233, 1599.605
2926.161, 1598.582
2928.090, 1597.581
2930.018, 1596.840
2931.947, 1597.016
2933.875, 1597.677
2935.803, 1599.040
2937.732, 1599.836
2939.660, 1598.173
2941.589, 1596.331
2943.517, 1595.698
2945.446, 1595.767
2947.374, 1596.350
2949.303, 1597.490
2951.231, 1600.166
2953.160, 1601.316
2955.088, 1598.412
2957.017, 1596.434
2958.945, 1597.273
2960.874, 1597.102
2962.802, 1595.497
2964.730, 1592.359
2966.659, 1587.217
2968.587, 1584.014
2970.516, 1583.414
2972.444, 1582.844
2974.373, 1582.422
2976.301, 1582.771
2978.230, 1583.591
2980.158, 1582.896
2982.087, 1581.370
2984.015, 1581.967
2985.944, 1583.287
2987.872, 1582.109
2989.801, 1580.369
2991.729, 1580.717
2993.657, 1581.524
2995.586, 1581.553
2997.514, 1580.688
2999.443, 1577.700
3001.371, 1575.778
3003.300, 1577.766
3005.228, 1579.293
3007.157, 1579.135
3009.085, 1577.823
3011.014, 1574.674
3012.942, 1573.466
3014.871, 1576.442
3016.799, 1577.614
3018.728, 1576.663
3020.656, 1575.164
3022.584, 1573.305
3024.513, 1575.043
3026.441, 1579.459
3028.370, 1580.446
3030.298, 1578.736
3032.227, 1575.982
3034.155, 1573.195
3036.084, 1572.291
3038.012, 1572.176
3039.941, 1572.179
3041.869, 1571.297
3043.798, 1567.938
3045.726, 1564.729
3047.655, 1562.857
3049.583, 1562.099
3051.511, 1562.873
3053.440, 1564.245
3055.368, 1566.989
3057.297, 1566.745
3059.225, 1560.285
3061.154, 1558.514
3063.082, 1561.989
3065.011, 1562.268
3066.939, 1559.553
3068.868, 1559.549
3070.796, 1561.175
3072.725, 1559.990
3074.653, 1557.191
3076.582, 1554.665
3078.510, 1552.983
3080.438, 1553.099
3082.367, 1554.141
3084.295, 1555.965
3086.224, 1557.383
3088.152, 1557.535
3090.081, 1557.364
3092.009, 1556.750
3093.938, 1556.483
3095.866, 1556.544
3097.795, 1557.180
3099.723, 1558.417
3101.652, 1559.588
3103.580, 1560.622
3105.509, 1561.283
3107.437, 1561.536
3109.365, 1561.130
3111.294, 1560.430
3113.222, 1560.176
3115.151, 1560.053
3117.079, 1558.096
3119.008, 1557.935
3120.936, 1564.065
3122.865, 1569.625
3124.793, 1570.429
3126.722, 1570.099
3128.650, 1569.180
3130.579, 1567.392
3132.507, 1564.075
3134.436, 1562.421
3136.364, 1562.891
3138.292, 1562.710
3140.221, 1561.940
3142.149, 1559.875
3144.078, 1557.486
3146.006, 1557.355
3147.935, 1558.012
3149.863, 1556.282
3151.792, 1555.150
3153.720, 1557.246
3155.649, 1559.964
3157.577, 1562.022
3159.506, 1563.286
3161.434, 1563.691
3163.363, 1563.026
3165.291, 1561.225
3167.219, 1559.184
3169.148, 1557.241
3171.076, 1557.045
3173.005, 1558.415
3174.933, 1558.862
3176.862, 1559.135
3178.790, 1561.669
3180.719, 1563.733
3182.647, 1560.627
3184.576, 1557.830
3186.504, 1560.240
3188.433, 1562.323
3190.361, 1562.506
3192.290, 1562.079
3194.218, 1561.855
3196.146, 1560.651
3198.075, 1558.539
3200.003, 1559.332
3201.932, 1562.543
3203.860, 1563.783
3205.789, 1563.398
3207.717, 1561.499
3209.646, 1559.698
3211.574, 1560.354
3213.503, 1561.288
3215.431, 1561.570
3217.360, 1560.829
3219.288, 1558.742
3221.217, 1556.737
3223.145, 1554.775
3225.073, 1554.442
3227.002, 1555.701
3228.930, 1554.247
3230.859, 1550.431
3232.787, 1545.884
3234.716, 1541.953
3236.644, 1542.160
3238.573, 1543.608
3240.501, 1543.769
3242.430, 1543.885
3244.358, 1544.801
3246.287, 1545.235
3248.215, 1544.103
3250.144, 1545.468
3252.072, 1551.020
3254.000, 1552.769
3255.929, 1551.091
3257.857, 1550.149
3259.786, 1549.167
3261.714, 1545.928
3263.643, 1542.051
3265.571, 1539.440
3267.500, 1537.511
3269.428, 1535.807
3271.357, 1535.508
3273.285, 1537.985
3275.214, 1537.312
3277.142, 1531.816
3279.071, 1531.641
3280.999, 1536.521
3282.927, 1537.956
3284.856, 1536.968
3286.784, 1536.200
3288.713, 1534.820
3290.641, 1530.152
3292.570, 1527.332
3294.498, 1529.863
3296.427, 1532.699
3298.355, 1534.187
3300.284, 1534.817
3302.212, 1534.378
3304.141, 1533.721
3306.069, 1532.968
3307.998, 1533.648
3309.926, 1534.241
3311.854, 1530.778
3313.783, 1526.641
3315.711, 1524.018
3317.640, 1523.200
3319.568, 1524.889
3321.497, 1526.086
3323.425, 1525.459
3325.354, 1527.816
3327.282, 1533.304
3329.211, 1532.981
3331.139, 1529.201
3333.068, 1529.146
3334.996, 1530.315
3336.925, 1529.601
3338.853, 1528.436
3340.781, 1528.334
3342.710, 1527.163
3344.638, 1524.011
3346.567, 1522.701
3348.495, 1523.708
3350.424, 1525.838
3352.352, 1528.540
3354.281, 1530.362
3356.209, 1531.304
3358.138, 1531.369
3360.066, 1530.963
3361.995, 1531.027
3363.923, 1529.849
3365.852, 1526.541
3367.780, 1525.322
3369.708, 1527.456
3371.637, 1528.696
3373.565, 1528.881
3375.494, 1526.235
3377.422, 1523.357
3379.351, 1525.160
3381.279, 1527.432
3383.208, 1527.345
3385.136, 1527.100
3387.065, 1528.113
3388.993, 1527.024
3390.922, 1523.716
3392.850, 1523.957
3394.779, 1526.894
3396.707, 1529.643
3398.635, 1530.703
3400.564, 1526.582
3402.492, 1523.036
3404.421, 1525.658
3406.349, 1526.017
3408.278, 1521.480
3410.206, 1520.962
3412.135, 1525.361
3414.063, 1524.695
3415.992, 1521.164
3417.920, 1520.356
3419.849, 1520.670
3421.777, 1520.406
3423.706, 1520.957
3425.634, 1523.195
3427.563, 1525.522
3429.491, 1527.554
3431.419, 1528.219
3433.348, 1527.499
3435.276, 1527.017
3437.205, 1526.217
3439.133, 1523.962
3441.062, 1521.718
3442.990, 1520.736
3444.919, 1520.150
3446.847, 1519.692
3448.776, 1519.786
3450.704, 1520.457
3452.633, 1524.382
3454.561, 1529.134
3456.490, 1526.822
3458.418, 1522.780
3460.346, 1521.988
3462.275, 1521.254
3464.203, 1519.387
3466.132, 1518.048
3468.060, 1517.825
3469.989, 1517.240
3471.917, 1516.353
3473.846, 1514.986
3475.774, 1513.431
3477.703, 1511.022
3479.631, 1510.250
3481.560, 1512.845
3483.488, 1514.713
3485.417, 1515.247
3487.345, 1513.642
3489.273, 1510.465
3491.202, 1507.031
3493.130, 1504.685
3495.059, 1506.311
3496.987, 1508.297
3498.916, 1508.719
3500.844, 1508.268
3502.773, 1506.691
3504.701, 1506.689
3506.630, 1507.941
3508.558, 1507.911
3510.487, 1506.801
3512.415, 1503.969
3514.344, 1502.004
3516.272, 1502.605
3518.200, 1504.526
3520.129, 1507.652
3522.057, 1508.164
3523.986, 1506.526
3525.914, 1507.857
3527.843, 1510.665
3529.771, 1513.763
3531.700, 1516.072
3533.628, 1516.707
3535.557, 1517.137
3537.485, 1517.551
3539.414, 1517.070
3541.342, 1515.484
3543.271, 1510.675
3545.199, 1506.125
3547.127, 1506.858
3549.056, 1507.963
3550.984, 1507.607
3552.913, 1507.318
3554.841, 1507.165
3556.770, 1508.282
3558.698, 1509.916
3560.627, 1510.484
3562.555, 1510.299
3564.484, 1509.016
3566.412, 1508.828
3568.341, 1511.130
3570.269, 1511.991
3572.198, 1511.285
3574.126, 1514.073
3576.054, 1517.739
3577.983, 1517.091
3579.911, 1515.594
3581.840, 1515.136
3583.768, 1515.322
3585.697, 1517.602
3587.625, 1515.217
3589.554, 1509.955
3591.482, 1507.250
3593.411, 1506.953
3595.339, 1510.089
3597.268, 1512.774
3599.196, 1512.725
3601.125, 1512.834
3603.053, 1513.134
3604.981, 1511.792
3606.910, 1509.685
3608.838, 1508.467
3610.767, 1507.980
3612.695, 1508.591
3614.624, 1508.583
3616.552, 1507.110
3618.481, 1508.791
3620.409, 1512.335
3622.338, 1511.400
3624.266, 1509.531
3626.195, 1510.801
3628.123, 1512.405
3630.052, 1513.832
3631.980, 1514.000
3633.908, 1513.009
3635.837, 1511.569
3637.765, 1510.151
3639.694, 1509.816
3641.622, 1509.167
3643.551, 1506.861
3645.479, 1505.832
3647.408, 1506.488
3649.336, 1506.120
3651.265, 1505.316
3653.193, 1505.750
3655.122, 1506.162
3657.050, 1505.236
3658.979, 1504.265
3660.907, 1503.277
3662.835, 1504.138
3664.764, 1506.279
3666.692, 1507.137
3668.621, 1507.621
3670.549, 1508.538
3672.478, 1509.260
3674.406, 1509.620
3676.335, 1508.705
3678.263, 1506.832
3680.192, 1506.165
3682.120, 1506.381
3684.049, 1507.382
3685.977, 1508.523
3687.906, 1510.000
3689.834, 1508.982
3691.762, 1505.875
3693.691, 1505.843
3695.619, 1507.009
3697.548, 1507.417
3699.476, 1507.124
3701.405, 1505.519
3703.333, 1505.337
3705.262, 1506.320
3707.190, 1505.309
3709.119, 1503.979
3711.047, 1505.264
3712.976, 1506.730
3714.904, 1507.302
3716.833, 1508.418
3718.761, 1510.100
3720.689, 1510.695
3722.618, 1510.939
3724.546, 1512.633
3726.475, 1512.964
3728.403, 1508.787
3730.332, 1508.140
3732.260, 1510.668
3734.189, 1510.321
3736.117, 1508.588
3738.046, 1506.838
3739.974, 1506.072
3741.903, 1508.146
3743.831, 1506.237
3745.760, 1501.448
3747.688, 1503.159
3749.616, 1506.937
3751.545, 1507.146
3753.473, 1507.131
3755.402, 1508.853
3757.330, 1508.136
3759.259, 1505.538
3761.187, 1503.532
3763.116, 1502.498
3765.044, 1502.763
3766.973, 1504.420
3768.901, 1508.472
3770.830, 1510.617
3772.758, 1511.327
3774.687, 1512.650
3776.615, 1513.206
3778.543, 1511.486
3780.472, 1509.782
3782.400, 1508.706
3784.329, 1508.185
3786.257, 1508.046
3788.186, 1507.650
3790.114, 1507.601
3792.043, 1508.773
3793.971, 1507.655
3795.900, 1503.545
3797.828, 1501.940
3799.757, 1501.842
3801.685, 1502.026
3803.614, 1502.457
3805.542, 1503.350
3807.470, 1502.547
3809.399, 1500.256
3811.327, 1499.677
3813.256, 1499.369
3815.184, 1498.338
3817.113, 1495.951
3819.041, 1492.021
3820.970, 1490.261
3822.898, 1490.211
3824.827, 1490.435
3826.755, 1490.642
3828.684, 1490.689
3830.612, 1490.617
3832.541, 1490.449
3834.469, 1490.116
3836.397, 1489.740
3838.326, 1489.557
3840.254, 1488.900
3842.183, 1487.070
3844.111, 1485.764
3846.040, 1484.992
3847.968, 1483.965
3849.897, 1484.129
3851.825, 1487.636
3853.754, 1490.075
3855.682, 1490.823
3857.611, 1486.335
3859.539, 1480.243
3861.468, 1480.343
3863.396, 1479.512
3865.324, 1473.404
3867.253, 1470.861
3869.181, 1471.981
3871.110, 1475.847
3873.038, 1479.412
3874.967, 1479.980
3876.895, 1478.768
3878.824, 1475.578
3880.752, 1476.066
3882.681, 1477.933
3884.609, 1476.439
3886.538, 1476.286
3888.466, 1479.645
3890.395, 1481.438
3892.323, 1481.557
3894.251, 1482.076
3896.180, 1481.544
3898.108, 1476.845
3900.037, 1475.958
3901.965, 1479.612
3903.894, 1480.741
3905.822, 1480.376
3907.751, 1479.552
3909.679, 1479.776
3911.608, 1481.984
3913.536, 1481.668
3915.465, 1479.758
3917.393, 1479.471
3919.322, 1479.624
3921.250, 1479.612
3923.178, 1479.715
3925.107, 1479.939
3927.035, 1479.842
3928.964, 1479.504
3930.892, 1478.495
3932.821, 1478.854
3934.749, 1481.321
3936.678, 1481.868
3938.606, 1481.367
3940.535, 1481.744
3942.463, 1480.601
3944.392, 1477.115
3946.320, 1475.418
3948.249, 1475.190
3950.177, 1474.005
3952.105, 1474.232
3954.034, 1477.805
3955.962, 1480.730
3957.891, 1482.198
3959.819, 1480.745
3961.748, 1478.574
3963.676, 1477.653
3965.605, 1477.925
3967.533, 1479.313
3969.462, 1475.544
3971.390, 1471.701
3973.319, 1474.804
3975.247, 1477.083
3977.176, 1475.453
3979.104, 1480.709
3981.032, 1486.626
3982.961, 1481.262
3984.889, 1476.115
3986.818, 1475.176
3988.746, 1474.376
3990.675, 1473.408
3992.603, 1471.727
3994.532, 1470.346
3996.460, 1469.903
3998.389, 1468.576
4000.317, 1466.824
4002.246, 1467.416
4004.174, 1468.367
4006.103, 1468.224
4008.031, 1468.473
4009.959, 1468.852
4011.888, 1467.792
4013.816, 1466.197
4015.745, 1464.741
4017.673, 1463.403
4019.602, 1462.336
4021.530, 1462.000
4023.459, 1461.978
4025.387, 1461.611
4027.316, 1461.837
4029.244, 1462.624
4031.173, 1464.353
4033.101, 1464.603
4035.030, 1458.955
4036.958, 1456.520
4038.886, 1458.597
4040.815, 1457.556
4042.743, 1456.150
4044.672, 1458.864
4046.600, 1459.433
4048.529, 1456.056
4050.457, 1458.563
4052.386, 1462.350
4054.314, 1459.692
4056.243, 1458.341
4058.171, 1460.730
4060.100, 1459.935
4062.028, 1458.205
4063.957, 1458.955
4065.885, 1459.647
4067.813, 1459.662
4069.742, 1460.330
4071.670, 1460.841
4073.599, 1459.494
4075.527, 1458.431
4077.456, 1458.149
4079.384, 1459.244
4081.313, 1460.162
4083.241, 1457.922
4085.170, 1455.991
4087.098, 1455.313
4089.027, 1455.696
4090.955, 1456.826
4092.884, 1458.684
4094.812, 1459.544
4096.740, 1458.854
4098.669, 1457.035
4100.598, 1454.970
4102.526, 1453.781
4104.454, 1453.213
4106.383, 1453.311
4108.312, 1453.751
4110.240, 1453.601
4112.168, 1450.757
4114.097, 1450.280
4116.025, 1452.970
4117.954, 1454.740
4119.882, 1454.371
4121.811, 1448.410
4123.739, 1445.927
4125.667, 1448.223
4127.596, 1453.042
4129.524, 1456.729
4131.453, 1455.258
4133.381, 1452.711
4135.310, 1449.992
4137.238, 1450.063
4139.167, 1451.109
4141.095, 1452.257
4143.023, 1452.836
4144.952, 1453.106
4146.881, 1454.066
4148.809, 1454.678
4150.737, 1454.276
4152.666, 1453.530
4154.595, 1452.795
4156.523, 1453.293
4158.451, 1453.606
4160.380, 1453.156
4162.309, 1453.746
4164.237, 1454.055
4166.165, 1450.318
4168.094, 1447.562
4170.022, 1447.433
4171.951, 1448.766
4173.879, 1450.912
4175.808, 1453.655
4177.736, 1454.524
4179.665, 1452.884
4181.593, 1451.277
4183.521, 1449.323
4185.450, 1445.636
4187.378, 1446.163
4189.307, 1450.235
4191.235, 1450.115
4193.164, 1448.527
4195.092, 1446.141
4197.021, 1447.402
4198.949, 1450.421
4200.878, 1450.190
4202.806, 1448.563
4204.734, 1446.267
4206.663, 1444.485
4208.592, 1442.379
4210.520, 1437.438
4212.448, 1435.072
4214.377, 1436.239
4216.306, 1439.822
4218.234, 1442.216
4220.162, 1438.927
4222.091, 1438.487
4224.020, 1440.997
4225.948, 1440.757
4227.876, 1440.910
4229.805, 1443.633
4231.733, 1444.893
4233.662, 1444.857
4235.590, 1443.350
4237.519, 1443.978
##END=



