##NAMES=Monetite
##RRUFFID=R070259
##IDEAL CHEMISTRY=Ca(PO_3_OH)
##LOCALITY=Paoha Island, Mono Lake, Mono County, California, USA
##OWNER=RRUFF
##SOURCE=Michael Scott
##DESCRIPTION=Fine-grained tan crust on white newberyite
##STATUS=The identification of this mineral is not yet confirmed
##URL=https://www.rruff.net/odr/rruff_sample/R070259
##FILETYPE=Raman RAW
##RAMAN WAVELENGTH=532

170.0649, 3643.494
171.9934, 3735.222
173.9218, 3826.048
175.8503, 3917.647
177.7788, 4003.687
179.7072, 4081.092
181.6357, 4146.088
183.5642, 4212.989
185.4926, 4286.411
187.4211, 4360.701
189.3496, 4428.152
191.2780, 4484.714
193.2065, 4538.368
195.1350, 4589.764
197.0634, 4639.225
198.9919, 4690.441
200.9204, 4749.509
202.8488, 4809.679
204.7773, 4858.804
206.7058, 4891.438
208.6342, 4920.375
210.5627, 4948.925
212.4912, 4975.844
214.4196, 5005.336
216.3481, 5040.694
218.2766, 5079.597
220.2050, 5115.030
222.1335, 5145.753
224.0620, 5173.634
225.9904, 5200.357
227.9189, 5226.799
229.8474, 5250.273
231.7758, 5266.490
233.7043, 5280.896
235.6328, 5301.205
237.5612, 5329.868
239.4897, 5362.312
241.4182, 5399.242
243.3466, 5443.885
245.2751, 5476.261
247.2036, 5482.294
249.1320, 5480.930
251.0605, 5492.622
252.9890, 5533.845
254.9174, 5570.643
256.8459, 5592.261
258.7744, 5600.429
260.7029, 5612.473
262.6313, 5630.116
264.5598, 5652.491
266.4883, 5679.877
268.4167, 5718.835
270.3452, 5753.497
272.2737, 5781.292
274.2021, 5803.916
276.1306, 5821.681
278.0591, 5822.517
279.9875, 5825.197
281.9160, 5848.264
283.8445, 5905.980
285.7729, 5947.538
287.7014, 5947.920
289.6299, 5920.927
291.5583, 5910.187
293.4868, 5927.589
295.4153, 5951.414
297.3437, 5973.783
299.2722, 5995.334
301.2007, 6013.339
303.1291, 6020.859
305.0576, 6025.155
306.9861, 6040.945
308.9145, 6083.554
310.8430, 6120.955
312.7715, 6139.668
314.6999, 6140.618
316.6284, 6146.406
318.5569, 6161.051
320.4853, 6181.655
322.4138, 6206.242
324.3423, 6238.352
326.2707, 6265.181
328.1992, 6280.820
330.1277, 6286.127
332.0561, 6293.656
333.9846, 6304.675
335.9131, 6316.958
337.8415, 6327.432
339.7700, 6335.111
341.6985, 6348.528
343.6269, 6372.816
345.5554, 6402.788
347.4839, 6430.084
349.4123, 6458.340
351.3408, 6481.732
353.2693, 6493.055
355.1977, 6491.622
357.1262, 6498.160
359.0547, 6518.869
360.9831, 6546.833
362.9116, 6576.908
364.8401, 6613.101
366.7685, 6642.055
368.6970, 6653.071
370.6255, 6650.082
372.5539, 6661.019
374.4824, 6702.017
376.4109, 6741.569
378.3393, 6762.200
380.2678, 6766.429
382.1963, 6769.886
384.1247, 6770.240
386.0532, 6769.382
387.9817, 6777.058
389.9101, 6800.618
391.8386, 6823.099
393.7671, 6842.481
395.6955, 6865.247
397.6240, 6886.931
399.5525, 6899.624
401.4809, 6908.604
403.4094, 6927.802
405.3379, 6962.311
407.2663, 6992.783
409.1948, 7006.082
411.1233, 7014.525
413.0517, 7033.747
414.9802, 7076.059
416.9087, 7114.684
418.8371, 7146.162
420.7656, 7172.394
422.6941, 7193.635
424.6225, 7204.044
426.5510, 7206.680
428.4795, 7213.010
430.4079, 7227.299
432.3364, 7248.326
434.2649, 7271.529
436.1933, 7290.236
438.1218, 7303.632
440.0503, 7307.354
441.9787, 7318.780
443.9072, 7338.402
445.8357, 7362.717
447.7641, 7386.685
449.6926, 7427.673
451.6211, 7469.462
453.5495, 7485.661
455.4780, 7458.772
457.4065, 7440.859
459.3349, 7446.513
461.2634, 7471.891
463.1919, 7503.861
465.1203, 7544.988
467.0488, 7572.781
468.9773, 7584.447
470.9057, 7582.764
472.8342, 7593.110
474.7627, 7622.150
476.6911, 7656.026
478.6196, 7682.014
480.5481, 7698.675
482.4765, 7710.805
484.4050, 7726.699
486.3335, 7739.089
488.2619, 7742.693
490.1904, 7728.475
492.1189, 7730.005
494.0473, 7758.825
495.9758, 7802.018
497.9043, 7835.867
499.8327, 7851.120
501.7612, 7857.187
503.6897, 7864.051
505.6181, 7876.732
507.5466, 7897.820
509.4751, 7924.989
511.4035, 7945.058
513.3320, 7954.112
515.2604, 7947.270
517.1889, 7956.887
519.1174, 7984.898
521.0458, 8014.731
522.9743, 8033.473
524.9028, 8046.769
526.8312, 8069.746
528.7597, 8098.227
530.6882, 8123.462
532.6166, 8129.268
534.5451, 8116.568
536.4736, 8120.318
538.4020, 8139.996
540.3305, 8163.751
542.2590, 8181.265
544.1874, 8218.560
546.1159, 8253.372
548.0444, 8270.146
549.9728, 8255.491
551.9013, 8261.897
553.8298, 8296.808
555.7582, 8332.713
557.6867, 8346.988
559.6152, 8330.692
561.5436, 8334.681
563.4721, 8382.804
565.4006, 8453.100
567.3290, 8495.653
569.2575, 8500.198
571.1860, 8509.026
573.1144, 8530.729
575.0429, 8554.475
576.9714, 8560.518
578.8998, 8560.302
580.8283, 8572.105
582.7568, 8601.261
584.6852, 8633.959
586.6137, 8661.319
588.5422, 8694.467
590.4706, 8724.890
592.3991, 8745.021
594.3276, 8736.804
596.2560, 8724.782
598.1845, 8719.514
600.1130, 8729.279
602.0414, 8759.229
603.9699, 8796.877
605.8984, 8826.242
607.8268, 8839.722
609.7553, 8845.082
611.6838, 8851.193
613.6122, 8874.638
615.5407, 8899.215
617.4692, 8915.602
619.3976, 8924.647
621.3261, 8946.556
623.2546, 8988.988
625.1830, 9021.419
627.1115, 9034.862
629.0400, 9043.452
630.9684, 9059.883
632.8969, 9069.197
634.8254, 9075.947
636.7538, 9082.085
638.6823, 9099.021
640.6108, 9123.858
642.5392, 9151.392
644.4677, 9178.974
646.3962, 9210.646
648.3246, 9249.881
650.2531, 9276.010
652.1816, 9278.121
654.1100, 9276.327
656.0385, 9283.019
657.9670, 9300.432
659.8954, 9318.775
661.8239, 9338.200
663.7524, 9357.832
665.6808, 9375.481
667.6093, 9389.336
669.5378, 9406.764
671.4662, 9432.660
673.3947, 9461.010
675.3232, 9487.294
677.2516, 9513.866
679.1801, 9539.004
681.1086, 9564.946
683.0370, 9588.529
684.9655, 9603.791
686.8940, 9605.232
688.8224, 9607.940
690.7509, 9619.203
692.6794, 9634.272
694.6078, 9644.770
696.5363, 9652.326
698.4648, 9666.667
700.3932, 9690.451
702.3217, 9717.656
704.2502, 9750.145
706.1786, 9796.567
708.1071, 9838.356
710.0356, 9864.907
711.9641, 9876.777
713.8925, 9893.910
715.8210, 9920.609
717.7495, 9940.404
719.6779, 9941.999
721.6064, 9930.987
723.5349, 9929.202
725.4633, 9939.917
727.3918, 9965.458
729.3203, 10006.64
731.2487, 10057.02
733.1772, 10093.32
735.1057, 10107.71
737.0341, 10115.87
738.9626, 10121.64
740.8911, 10125.99
742.8195, 10137.65
744.7480, 10162.70
746.6765, 10192.16
748.6049, 10220.76
750.5334, 10249.68
752.4619, 10276.25
754.3903, 10296.08
756.3188, 10312.60
758.2473, 10328.43
760.1757, 10345.82
762.1042, 10365.61
764.0327, 10385.91
765.9611, 10408.42
767.8896, 10438.23
769.8181, 10477.37
771.7465, 10506.18
773.6750, 10518.78
775.6035, 10526.11
777.5319, 10528.94
779.4604, 10527.41
781.3889, 10540.97
783.3173, 10586.62
785.2458, 10635.74
787.1743, 10676.17
789.1027, 10708.24
791.0312, 10733.70
792.9597, 10745.83
794.8881, 10757.14
796.8166, 10776.41
798.7451, 10801.82
800.6735, 10823.54
802.6020, 10841.95
804.5305, 10857.83
806.4589, 10867.23
808.3874, 10868.70
810.3159, 10869.16
812.2443, 10858.64
814.1728, 10854.45
816.1013, 10874.66
818.0297, 10921.31
819.9582, 10964.21
821.8867, 11005.28
823.8151, 11031.71
825.7436, 11029.29
827.6721, 10987.69
829.6005, 10981.68
831.5290, 11037.22
833.4575, 11105.87
835.3859, 11155.21
837.3144, 11187.53
839.2429, 11211.70
841.1713, 11220.85
843.0998, 11225.93
845.0283, 11239.06
846.9567, 11266.25
848.8852, 11291.01
850.8137, 11309.64
852.7421, 11330.17
854.6706, 11353.76
856.5991, 11367.71
858.5275, 11385.25
860.4560, 11413.07
862.3845, 11442.31
864.3129, 11464.03
866.2414, 11493.81
868.1699, 11529.30
870.0983, 11566.12
872.0268, 11588.06
873.9553, 11600.38
875.8837, 11633.24
877.8122, 11664.31
879.7407, 11683.46
881.6691, 11683.53
883.5976, 11674.17
885.5261, 11687.98
887.4545, 11725.50
889.3830, 11788.18
891.3115, 11830.04
893.2399, 11848.02
895.1684, 11872.15
897.0969, 11889.83
899.0253, 11889.72
900.9538, 11882.70
902.8823, 11889.38
904.8107, 11912.27
906.7392, 11932.49
908.6677, 11937.16
910.5961, 11940.10
912.5246, 11949.34
914.4531, 11995.09
916.3815, 12060.00
918.3100, 12117.89
920.2385, 12147.11
922.1669, 12145.84
924.0954, 12157.90
926.0239, 12182.71
927.9523, 12213.34
929.8808, 12248.63
931.8093, 12303.12
933.7377, 12353.24
935.6662, 12381.05
937.5947, 12398.89
939.5231, 12418.84
941.4516, 12437.94
943.3801, 12457.25
945.3085, 12505.25
947.2370, 12573.97
949.1655, 12629.36
951.0939, 12652.16
953.0224, 12656.18
954.9509, 12664.17
956.8793, 12696.77
958.8078, 12746.48
960.7363, 12802.15
962.6647, 12844.37
964.5932, 12864.44
966.5217, 12881.83
968.4501, 12901.36
970.3786, 12914.88
972.3071, 12912.69
974.2355, 12903.64
976.1640, 12895.43
978.0925, 12900.94
980.0209, 12922.84
981.9494, 12941.40
983.8779, 12936.71
985.8063, 12932.38
987.7348, 12955.80
989.6633, 12983.05
991.5917, 13000.42
993.5202, 13011.59
995.4487, 13043.49
997.3771, 13070.42
999.3056, 13077.59
1001.234, 13074.05
1003.163, 13081.12
1005.091, 13117.03
1007.019, 13166.01
1008.948, 13204.60
1010.876, 13242.40
1012.805, 13279.65
1014.733, 13303.48
1016.662, 13300.46
1018.590, 13312.59
1020.519, 13342.32
1022.447, 13378.99
1024.376, 13418.82
1026.304, 13467.97
1028.233, 13504.12
1030.161, 13500.46
1032.090, 13478.83
1034.018, 13468.55
1035.947, 13490.36
1037.875, 13530.58
1039.803, 13564.74
1041.732, 13595.46
1043.660, 13621.24
1045.589, 13642.25
1047.517, 13663.92
1049.446, 13684.06
1051.374, 13690.65
1053.303, 13696.33
1055.231, 13720.20
1057.160, 13774.00
1059.088, 13829.64
1061.017, 13868.14
1062.945, 13885.13
1064.874, 13893.44
1066.802, 13899.91
1068.730, 13918.84
1070.659, 13960.33
1072.587, 14006.66
1074.516, 14028.48
1076.444, 14023.98
1078.373, 14028.76
1080.301, 14071.18
1082.230, 14113.65
1084.158, 14137.18
1086.087, 14146.55
1088.015, 14162.25
1089.944, 14190.72
1091.872, 14218.51
1093.801, 14231.75
1095.729, 14237.52
1097.657, 14260.56
1099.586, 14309.89
1101.514, 14355.54
1103.443, 14363.96
1105.371, 14359.43
1107.300, 14385.34
1109.228, 14447.71
1111.157, 14499.53
1113.085, 14525.82
1115.014, 14546.28
1116.942, 14563.81
1118.871, 14573.46
1120.799, 14585.80
1122.728, 14605.27
1124.656, 14648.15
1126.584, 14728.83
1128.513, 14777.98
1130.441, 14792.05
1132.370, 14775.06
1134.298, 14768.50
1136.227, 14768.34
1138.155, 14784.55
1140.084, 14815.81
1142.012, 14852.98
1143.941, 14894.33
1145.869, 14969.64
1147.798, 15033.08
1149.726, 15040.32
1151.655, 15000.53
1153.583, 14995.63
1155.511, 15044.25
1157.440, 15088.17
1159.368, 15095.01
1161.297, 15095.45
1163.225, 15123.49
1165.154, 15181.18
1167.082, 15226.74
1169.011, 15241.14
1170.939, 15255.14
1172.868, 15292.63
1174.796, 15345.01
1176.725, 15379.97
1178.653, 15371.91
1180.582, 15383.29
1182.510, 15441.77
1184.438, 15512.39
1186.367, 15552.12
1188.295, 15548.14
1190.224, 15564.01
1192.152, 15626.07
1194.081, 15686.19
1196.009, 15705.51
1197.938, 15697.93
1199.866, 15709.25
1201.795, 15747.10
1203.723, 15784.64
1205.652, 15815.62
1207.580, 15845.06
1209.509, 15867.44
1211.437, 15877.85
1213.365, 15901.12
1215.294, 15966.39
1217.222, 16017.48
1219.151, 16016.19
1221.079, 15976.11
1223.008, 15967.17
1224.936, 16000.71
1226.865, 16043.67
1228.793, 16102.47
1230.722, 16160.68
1232.650, 16200.88
1234.579, 16224.17
1236.507, 16242.88
1238.436, 16252.69
1240.364, 16266.42
1242.292, 16288.79
1244.221, 16320.33
1246.149, 16362.42
1248.078, 16423.92
1250.006, 16472.59
1251.935, 16486.71
1253.863, 16497.12
1255.792, 16538.63
1257.720, 16633.26
1259.649, 16688.69
1261.577, 16662.11
1263.506, 16641.39
1265.434, 16663.46
1267.363, 16714.60
1269.291, 16756.24
1271.219, 16788.86
1273.148, 16822.34
1275.076, 16862.41
1277.005, 16891.32
1278.933, 16886.01
1280.862, 16870.60
1282.790, 16896.52
1284.719, 16984.22
1286.647, 17054.67
1288.576, 17072.19
1290.504, 17084.05
1292.433, 17114.27
1294.361, 17160.46
1296.290, 17209.32
1298.218, 17264.40
1300.146, 17301.70
1302.075, 17305.79
1304.003, 17299.59
1305.932, 17309.21
1307.860, 17330.78
1309.789, 17372.40
1311.717, 17461.53
1313.646, 17548.53
1315.574, 17589.46
1317.503, 17585.33
1319.431, 17596.21
1321.360, 17637.79
1323.288, 17674.71
1325.217, 17683.96
1327.145, 17688.01
1329.073, 17711.52
1331.002, 17750.95
1332.930, 17799.34
1334.859, 17866.96
1336.787, 17931.31
1338.716, 17987.78
1340.644, 18031.98
1342.573, 18047.46
1344.501, 18015.24
1346.430, 18019.35
1348.358, 18100.02
1350.287, 18181.06
1352.215, 18220.88
1354.144, 18228.67
1356.072, 18243.06
1358.000, 18288.61
1359.929, 18320.54
1361.857, 18317.34
1363.786, 18305.81
1365.714, 18308.66
1367.643, 18328.44
1369.571, 18366.47
1371.500, 18436.71
1373.428, 18493.49
1375.357, 18520.30
1377.285, 18543.54
1379.214, 18589.17
1381.142, 18635.01
1383.071, 18668.17
1384.999, 18698.16
1386.927, 18726.67
1388.856, 18751.09
1390.784, 18779.92
1392.713, 18823.44
1394.641, 18862.25
1396.570, 18872.43
1398.498, 18865.61
1400.427, 18878.78
1402.355, 18927.70
1404.284, 18993.32
1406.212, 19041.86
1408.141, 19040.22
1410.069, 19060.72
1411.998, 19158.50
1413.926, 19250.94
1415.854, 19291.28
1417.783, 19295.40
1419.711, 19314.40
1421.640, 19350.85
1423.568, 19384.16
1425.497, 19421.53
1427.425, 19466.26
1429.354, 19510.54
1431.282, 19544.94
1433.211, 19571.99
1435.139, 19611.27
1437.068, 19651.39
1438.996, 19671.44
1440.925, 19701.75
1442.853, 19781.03
1444.781, 19881.63
1446.710, 19917.89
1448.638, 19868.43
1450.567, 19843.26
1452.495, 19868.13
1454.424, 19907.09
1456.352, 19953.77
1458.281, 20010.61
1460.209, 20072.87
1462.138, 20145.85
1464.066, 20203.50
1465.995, 20205.18
1467.923, 20207.93
1469.852, 20256.80
1471.780, 20336.54
1473.708, 20395.70
1475.637, 20444.37
1477.565, 20477.46
1479.494, 20449.01
1481.422, 20420.22
1483.351, 20430.64
1485.279, 20469.86
1487.208, 20501.92
1489.136, 20522.06
1491.065, 20566.02
1492.993, 20629.42
1494.922, 20684.77
1496.850, 20748.93
1498.779, 20822.74
1500.707, 20876.51
1502.635, 20884.50
1504.564, 20895.99
1506.492, 20919.62
1508.421, 20954.70
1510.349, 21003.91
1512.278, 21058.35
1514.206, 21097.75
1516.135, 21113.71
1518.063, 21132.89
1519.992, 21162.78
1521.920, 21202.18
1523.849, 21239.79
1525.777, 21278.98
1527.706, 21336.45
1529.634, 21415.57
1531.563, 21474.46
1533.491, 21500.17
1535.419, 21524.12
1537.348, 21551.57
1539.276, 21580.09
1541.205, 21612.01
1543.133, 21649.71
1545.062, 21687.66
1546.990, 21724.80
1548.919, 21751.00
1550.847, 21747.30
1552.776, 21760.23
1554.704, 21838.61
1556.633, 21955.06
1558.561, 22015.74
1560.490, 22000.06
1562.418, 22000.68
1564.346, 22048.82
1566.275, 22110.54
1568.203, 22177.46
1570.132, 22238.82
1572.060, 22260.95
1573.989, 22236.56
1575.917, 22250.03
1577.846, 22347.89
1579.774, 22431.07
1581.703, 22432.06
1583.631, 22411.40
1585.560, 22442.18
1587.488, 22520.48
1589.417, 22573.13
1591.345, 22579.65
1593.273, 22595.01
1595.202, 22648.03
1597.130, 22705.70
1599.059, 22733.41
1600.987, 22742.97
1602.916, 22796.99
1604.844, 22913.79
1606.773, 23011.43
1608.701, 23074.82
1610.630, 23114.94
1612.558, 23119.66
1614.487, 23112.02
1616.415, 23138.14
1618.344, 23203.76
1620.272, 23245.64
1622.200, 23226.09
1624.129, 23239.49
1626.057, 23347.20
1627.986, 23469.12
1629.914, 23532.50
1631.843, 23543.43
1633.771, 23564.42
1635.700, 23595.65
1637.628, 23635.45
1639.557, 23695.48
1641.485, 23751.23
1643.414, 23800.44
1645.342, 23837.06
1647.271, 23846.18
1649.199, 23819.19
1651.127, 23830.23
1653.056, 23907.36
1654.984, 23982.19
1656.913, 24023.92
1658.841, 24070.66
1660.770, 24173.98
1662.698, 24313.46
1664.627, 24367.80
1666.555, 24293.32
1668.484, 24270.65
1670.412, 24366.13
1672.341, 24460.99
1674.269, 24510.44
1676.198, 24539.43
1678.126, 24579.24
1680.054, 24630.38
1681.983, 24676.18
1683.911, 24713.00
1685.840, 24752.01
1687.768, 24796.75
1689.697, 24842.64
1691.625, 24888.92
1693.554, 24934.16
1695.482, 24972.94
1697.411, 25003.20
1699.339, 25044.15
1701.268, 25113.49
1703.196, 25163.80
1705.125, 25150.61
1707.053, 25145.81
1708.981, 25209.56
1710.910, 25323.47
1712.838, 25425.81
1714.767, 25520.43
1716.695, 25580.46
1718.624, 25568.34
1720.552, 25577.57
1722.481, 25677.34
1724.409, 25778.20
1726.338, 25775.10
1728.266, 25697.52
1730.195, 25715.85
1732.123, 25859.89
1734.052, 25964.32
1735.980, 25974.34
1737.908, 25986.77
1739.837, 26059.16
1741.765, 26138.32
1743.694, 26160.53
1745.622, 26140.06
1747.551, 26153.21
1749.479, 26207.37
1751.408, 26273.27
1753.336, 26362.09
1755.265, 26435.38
1757.193, 26459.35
1759.122, 26470.84
1761.050, 26505.04
1762.979, 26559.46
1764.907, 26623.29
1766.835, 26697.08
1768.764, 26774.56
1770.692, 26857.63
1772.621, 26938.52
1774.549, 27026.57
1776.478, 27100.74
1778.406, 27127.38
1780.335, 27121.23
1782.263, 27142.19
1784.192, 27195.76
1786.120, 27258.91
1788.049, 27348.00
1789.977, 27413.12
1791.906, 27410.48
1793.834, 27392.80
1795.762, 27406.53
1797.691, 27448.80
1799.619, 27510.34
1801.548, 27596.85
1803.476, 27671.06
1805.405, 27728.92
1807.333, 27773.88
1809.262, 27789.14
1811.190, 27808.32
1813.119, 27869.55
1815.047, 27955.17
1816.976, 28011.80
1818.904, 28030.27
1820.833, 28059.76
1822.761, 28092.36
1824.689, 28147.52
1826.618, 28273.24
1828.546, 28374.08
1830.475, 28357.68
1832.403, 28290.96
1834.332, 28299.52
1836.260, 28389.70
1838.189, 28472.17
1840.117, 28541.64
1842.046, 28612.72
1843.974, 28697.94
1845.903, 28771.02
1847.831, 28804.42
1849.760, 28833.12
1851.688, 28907.26
1853.616, 29017.02
1855.545, 29081.80
1857.473, 29089.43
1859.402, 29115.89
1861.330, 29181.60
1863.259, 29244.35
1865.187, 29271.00
1867.116, 29309.99
1869.044, 29428.20
1870.973, 29566.79
1872.901, 29595.47
1874.830, 29522.04
1876.758, 29489.57
1878.687, 29512.36
1880.615, 29567.63
1882.543, 29683.78
1884.472, 29781.12
1886.400, 29795.28
1888.329, 29789.94
1890.257, 29836.29
1892.186, 29920.38
1894.114, 29986.87
1896.043, 30031.26
1897.971, 30087.61
1899.900, 30180.99
1901.828, 30249.96
1903.757, 30252.00
1905.685, 30260.46
1907.614, 30339.26
1909.542, 30438.43
1911.470, 30474.43
1913.399, 30453.14
1915.327, 30465.26
1917.256, 30513.32
1919.184, 30589.16
1921.113, 30733.05
1923.041, 30846.95
1924.970, 30880.71
1926.898, 30907.76
1928.827, 31004.84
1930.755, 31112.58
1932.684, 31102.92
1934.612, 30990.74
1936.541, 30952.09
1938.469, 31005.29
1940.397, 31071.78
1942.326, 31145.29
1944.254, 31215.64
1946.183, 31254.09
1948.111, 31314.38
1950.040, 31491.05
1951.968, 31687.83
1953.897, 31707.35
1955.825, 31575.36
1957.754, 31545.68
1959.682, 31658.52
1961.611, 31752.55
1963.539, 31803.48
1965.468, 31841.05
1967.396, 31859.95
1969.324, 31882.30
1971.253, 31920.03
1973.181, 31972.75
1975.110, 32052.26
1977.038, 32154.67
1978.967, 32199.62
1980.895, 32147.76
1982.824, 32179.70
1984.752, 32372.17
1986.681, 32526.34
1988.609, 32585.82
1990.538, 32601.41
1992.466, 32569.35
1994.395, 32530.85
1996.323, 32533.77
1998.251, 32569.97
2000.180, 32614.64
2002.108, 32667.02
2004.037, 32730.87
2005.965, 32811.46
2007.894, 32889.27
2009.822, 32956.38
2011.751, 33024.11
2013.679, 33101.27
2015.608, 33177.21
2017.536, 33245.21
2019.465, 33303.79
2021.393, 33344.80
2023.322, 33367.50
2025.250, 33410.98
2027.178, 33501.78
2029.107, 33540.90
2031.035, 33461.30
2032.964, 33433.60
2034.892, 33550.79
2036.821, 33669.78
2038.749, 33704.29
2040.678, 33712.89
2042.606, 33764.73
2044.535, 33842.05
2046.463, 33890.73
2048.392, 33911.25
2050.320, 33958.49
2052.249, 34051.89
2054.177, 34115.29
2056.105, 34085.56
2058.034, 34094.59
2059.962, 34228.58
2061.891, 34361.98
2063.819, 34389.72
2065.748, 34382.89
2067.676, 34449.63
2069.605, 34569.96
2071.533, 34643.95
2073.462, 34665.21
2075.390, 34690.27
2077.319, 34721.09
2079.247, 34752.63
2081.176, 34769.80
2083.104, 34816.25
2085.032, 34937.95
2086.961, 35057.30
2088.889, 35130.77
2090.818, 35167.87
2092.746, 35155.34
2094.675, 35118.67
2096.603, 35151.70
2098.532, 35263.90
2100.460, 35329.26
2102.389, 35320.05
2104.317, 35318.77
2106.246, 35304.93
2108.174, 35332.67
2110.103, 35465.41
2112.031, 35578.38
2113.959, 35575.62
2115.888, 35553.39
2117.816, 35621.04
2119.745, 35732.30
2121.673, 35784.75
2123.602, 35787.29
2125.530, 35790.97
2127.459, 35794.41
2129.387, 35846.82
2131.316, 35989.31
2133.244, 36093.93
2135.173, 36123.24
2137.101, 36125.43
2139.030, 36076.30
2140.958, 36051.94
2142.886, 36127.38
2144.815, 36242.34
2146.743, 36318.36
2148.672, 36366.75
2150.600, 36423.79
2152.529, 36489.54
2154.457, 36574.32
2156.386, 36686.03
2158.314, 36749.14
2160.243, 36729.23
2162.171, 36728.62
2164.100, 36787.89
2166.028, 36855.40
2167.957, 36922.69
2169.885, 36977.51
2171.813, 37007.23
2173.742, 37021.68
2175.670, 37028.94
2177.599, 37032.55
2179.527, 37037.05
2181.456, 37042.85
2183.384, 37099.18
2185.313, 37215.28
2187.241, 37309.54
2189.170, 37366.86
2191.098, 37423.67
2193.027, 37499.80
2194.955, 37556.91
2196.884, 37557.18
2198.812, 37561.44
2200.740, 37620.44
2202.669, 37689.69
2204.597, 37706.20
2206.526, 37705.96
2208.454, 37782.96
2210.383, 37920.68
2212.311, 37967.06
2214.240, 37917.60
2216.168, 37915.90
2218.097, 37975.74
2220.025, 38057.23
2221.954, 38175.63
2223.882, 38256.92
2225.811, 38268.40
2227.739, 38253.82
2229.667, 38189.42
2231.596, 38152.27
2233.524, 38206.63
2235.453, 38307.12
2237.381, 38430.89
2239.310, 38548.25
2241.238, 38565.13
2243.167, 38509.30
2245.095, 38572.59
2247.024, 38752.49
2248.952, 38822.13
2250.881, 38740.36
2252.809, 38707.55
2254.738, 38778.43
2256.666, 38844.61
2258.594, 38872.11
2260.523, 38907.82
2262.451, 38978.82
2264.380, 39047.25
2266.308, 39096.84
2268.237, 39129.10
2270.165, 39133.40
2272.094, 39129.44
2274.022, 39141.65
2275.951, 39170.81
2277.879, 39223.33
2279.808, 39296.64
2281.736, 39371.37
2283.665, 39453.40
2285.593, 39499.64
2287.521, 39469.46
2289.450, 39478.54
2291.378, 39547.15
2293.307, 39620.06
2295.235, 39705.21
2297.164, 39763.64
2299.092, 39751.96
2301.021, 39752.10
2302.949, 39823.90
2304.878, 39914.70
2306.806, 39996.02
2308.735, 40057.48
2310.663, 40074.73
2312.592, 40064.88
2314.520, 40067.95
2316.448, 40083.31
2318.377, 40108.03
2320.305, 40142.30
2322.234, 40166.05
2324.162, 40173.47
2326.091, 40235.89
2328.019, 40387.10
2329.948, 40487.46
2331.876, 40474.12
2333.805, 40471.25
2335.733, 40520.15
2337.662, 40567.63
2339.590, 40585.97
2341.519, 40608.26
2343.447, 40669.96
2345.375, 40725.28
2347.304, 40709.97
2349.232, 40689.85
2351.161, 40772.15
2353.089, 40888.49
2355.018, 40884.82
2356.946, 40804.75
2358.875, 40841.12
2360.803, 40991.30
2362.732, 41046.93
2364.660, 40984.75
2366.589, 40988.25
2368.517, 41078.36
2370.446, 41129.64
2372.374, 41115.54
2374.302, 41108.32
2376.231, 41112.10
2378.159, 41149.79
2380.088, 41273.63
2382.016, 41365.46
2383.945, 41346.04
2385.873, 41331.82
2387.802, 41394.96
2389.730, 41474.51
2391.659, 41540.93
2393.587, 41587.05
2395.516, 41584.57
2397.444, 41573.50
2399.373, 41614.62
2401.301, 41690.74
2403.229, 41764.45
2405.158, 41836.22
2407.086, 41913.29
2409.015, 41995.86
2410.943, 42043.20
2412.872, 42054.68
2414.800, 42046.48
2416.729, 42016.18
2418.657, 42002.98
2420.586, 42013.10
2422.514, 42035.91
2424.443, 42093.49
2426.371, 42123.35
2428.300, 42085.38
2430.228, 42069.29
2432.156, 42102.27
2434.085, 42146.43
2436.013, 42187.25
2437.942, 42236.33
2439.870, 42292.08
2441.799, 42367.99
2443.727, 42532.73
2445.656, 42660.77
2447.584, 42576.26
2449.513, 42430.65
2451.441, 42413.04
2453.370, 42478.09
2455.298, 42577.73
2457.227, 42681.88
2459.155, 42701.20
2461.083, 42662.88
2463.012, 42683.55
2464.940, 42758.23
2466.869, 42815.96
2468.797, 42857.55
2470.726, 42861.72
2472.654, 42819.48
2474.583, 42849.27
2476.511, 42971.50
2478.440, 43042.51
2480.368, 43032.12
2482.297, 43015.36
2484.225, 42981.43
2486.154, 42982.73
2488.082, 43046.57
2490.010, 43110.75
2491.939, 43164.68
2493.867, 43219.71
2495.796, 43277.36
2497.724, 43339.97
2499.653, 43439.50
2501.581, 43501.07
2503.510, 43443.69
2505.438, 43389.74
2507.367, 43440.95
2509.295, 43501.34
2511.224, 43498.43
2513.152, 43465.34
2515.081, 43391.05
2517.009, 43342.68
2518.938, 43412.11
2520.866, 43545.13
2522.794, 43698.43
2524.723, 43831.90
2526.651, 43828.20
2528.580, 43748.49
2530.508, 43777.10
2532.437, 43877.70
2534.365, 43934.18
2536.294, 43953.46
2538.222, 43980.43
2540.151, 44014.95
2542.079, 44047.53
2544.008, 44078.27
2545.936, 44107.30
2547.865, 44134.71
2549.793, 44157.01
2551.721, 44173.69
2553.650, 44187.81
2555.578, 44190.57
2557.507, 44240.99
2559.435, 44416.97
2561.364, 44476.33
2563.292, 44359.06
2565.221, 44315.65
2567.149, 44395.30
2569.078, 44460.21
2571.006, 44481.11
2572.935, 44490.74
2574.863, 44481.28
2576.792, 44488.17
2578.720, 44522.18
2580.648, 44567.94
2582.577, 44633.23
2584.505, 44687.48
2586.434, 44720.34
2588.362, 44740.96
2590.291, 44731.89
2592.219, 44743.05
2594.148, 44819.11
2596.076, 44888.00
2598.005, 44912.56
2599.933, 44923.53
2601.862, 44927.25
2603.790, 44935.03
2605.719, 44953.88
2607.647, 44979.41
2609.575, 45031.21
2611.504, 45061.21
2613.432, 44981.25
2615.361, 44919.57
2617.289, 45009.04
2619.218, 45142.35
2621.146, 45264.83
2623.075, 45345.80
2625.003, 45327.14
2626.932, 45276.58
2628.860, 45265.46
2630.789, 45275.64
2632.717, 45273.95
2634.646, 45288.35
2636.574, 45391.32
2638.502, 45501.66
2640.431, 45480.05
2642.359, 45406.51
2644.288, 45404.02
2646.216, 45450.55
2648.145, 45516.92
2650.073, 45595.54
2652.002, 45698.88
2653.930, 45787.29
2655.859, 45749.59
2657.787, 45656.68
2659.716, 45679.80
2661.644, 45776.04
2663.573, 45849.46
2665.501, 45896.80
2667.429, 45885.15
2669.358, 45849.57
2671.286, 45894.81
2673.215, 45987.84
2675.143, 46020.25
2677.072, 46012.45
2679.000, 46034.96
2680.929, 46081.75
2682.857, 46136.42
2684.786, 46197.24
2686.714, 46273.18
2688.643, 46348.56
2690.571, 46345.08
2692.500, 46285.20
2694.428, 46261.08
2696.356, 46275.64
2698.285, 46380.50
2700.213, 46528.10
2702.142, 46514.43
2704.070, 46382.55
2705.999, 46321.94
2707.927, 46323.04
2709.856, 46344.98
2711.784, 46382.16
2713.713, 46415.67
2715.641, 46445.38
2717.570, 46471.24
2719.498, 46494.32
2721.427, 46515.56
2723.355, 46538.63
2725.283, 46591.27
2727.212, 46658.61
2729.140, 46673.38
2731.069, 46662.23
2732.997, 46737.84
2734.926, 46866.04
2736.854, 46917.23
2738.783, 46906.68
2740.711, 46851.10
2742.640, 46796.61
2744.568, 46909.35
2746.497, 47111.34
2748.425, 47175.45
2750.354, 47142.50
2752.282, 47116.68
2754.210, 47097.80
2756.139, 47076.48
2758.067, 47067.50
2759.996, 47104.97
2761.924, 47177.10
2763.853, 47278.77
2765.781, 47382.73
2767.710, 47430.71
2769.638, 47441.32
2771.567, 47428.11
2773.495, 47416.30
2775.424, 47478.61
2777.352, 47543.98
2779.281, 47454.82
2781.209, 47332.49
2783.137, 47367.01
2785.066, 47458.96
2786.994, 47506.48
2788.923, 47529.82
2790.851, 47539.36
2792.780, 47553.11
2794.708, 47601.23
2796.637, 47652.14
2798.565, 47668.82
2800.494, 47685.38
2802.422, 47731.39
2804.351, 47791.56
2806.279, 47880.63
2808.208, 47942.27
2810.136, 47910.76
2812.064, 47881.92
2813.993, 47937.14
2815.921, 47988.37
2817.850, 47954.79
2819.778, 47945.70
2821.707, 48064.23
2823.635, 48128.24
2825.564, 47979.06
2827.492, 47888.71
2829.421, 48056.37
2831.349, 48157.73
2833.278, 48018.92
2835.206, 47953.96
2837.135, 48086.99
2839.063, 48180.46
2840.991, 48100.96
2842.920, 48086.45
2844.848, 48221.90
2846.777, 48321.36
2848.705, 48361.15
2850.634, 48381.34
2852.562, 48385.85
2854.491, 48381.60
2856.419, 48356.38
2858.348, 48362.19
2860.276, 48405.45
2862.205, 48413.49
2864.133, 48377.07
2866.062, 48437.82
2867.990, 48621.58
2869.918, 48660.30
2871.847, 48555.44
2873.775, 48511.31
2875.704, 48523.61
2877.632, 48559.32
2879.561, 48609.06
2881.489, 48612.49
2883.418, 48600.18
2885.346, 48727.95
2887.275, 48914.08
2889.203, 48958.78
2891.132, 48918.94
2893.060, 48868.58
2894.989, 48823.03
2896.917, 48794.76
2898.845, 48798.49
2900.774, 48881.71
2902.702, 48965.60
2904.631, 48959.38
2906.559, 48943.27
2908.488, 48997.77
2910.416, 49042.65
2912.345, 49023.70
2914.273, 48998.57
2916.202, 48987.69
2918.130, 48993.53
2920.059, 49029.87
2921.987, 49061.93
2923.916, 49084.65
2925.844, 49093.82
2927.772, 49084.46
2929.701, 49067.70
2931.629, 49014.97
2933.558, 49052.26
2935.486, 49206.65
2937.415, 49285.87
2939.343, 49257.19
2941.272, 49261.71
2943.200, 49307.68
2945.129, 49361.42
2947.057, 49417.46
2948.986, 49416.99
2950.914, 49370.39
2952.843, 49300.05
2954.771, 49250.63
2956.699, 49434.72
2958.628, 49702.27
2960.556, 49721.32
2962.485, 49638.98
2964.413, 49623.27
2966.342, 49644.56
2968.270, 49715.52
2970.199, 49748.46
2972.127, 49607.25
2974.056, 49514.79
2975.984, 49677.56
2977.913, 49816.88
2979.841, 49783.49
2981.770, 49747.20
2983.698, 49750.87
2985.626, 49760.85
2987.555, 49786.71
2989.483, 49767.14
2991.412, 49659.75
2993.340, 49710.45
2995.269, 49957.76
2997.197, 50054.62
2999.126, 49961.93
3001.054, 49924.12
3002.983, 49934.68
3004.911, 49888.49
3006.840, 49821.67
3008.768, 49875.94
3010.697, 49993.86
3012.625, 50055.16
3014.553, 50079.34
3016.482, 50077.98
3018.410, 50076.84
3020.339, 50112.95
3022.267, 50143.85
3024.196, 50103.95
3026.124, 50101.47
3028.053, 50216.02
3029.981, 50312.87
3031.910, 50329.83
3033.838, 50334.94
3035.767, 50350.23
3037.695, 50318.48
3039.624, 50219.64
3041.552, 50166.95
3043.480, 50180.36
3045.409, 50196.70
3047.337, 50219.04
3049.266, 50358.45
3051.194, 50576.77
3053.123, 50731.13
3055.051, 50804.87
3056.980, 50702.62
3058.908, 50541.92
3060.837, 50488.55
3062.765, 50491.53
3064.694, 50525.39
3066.622, 50565.41
3068.551, 50600.44
3070.479, 50625.73
3072.407, 50625.69
3074.336, 50645.24
3076.264, 50723.49
3078.193, 50772.03
3080.121, 50775.93
3082.050, 50790.74
3083.978, 50826.18
3085.907, 50818.74
3087.835, 50766.69
3089.764, 50752.76
3091.692, 50768.69
3093.621, 50778.80
3095.549, 50792.96
3097.478, 50855.30
3099.406, 50913.30
3101.334, 50851.06
3103.263, 50806.72
3105.191, 50943.63
3107.120, 51052.04
3109.048, 50962.74
3110.977, 50909.88
3112.905, 50970.34
3114.834, 51026.42
3116.762, 51046.60
3118.691, 51060.12
3120.619, 51062.84
3122.548, 51138.13
3124.476, 51272.93
3126.405, 51279.81
3128.333, 51193.22
3130.261, 51145.55
3132.190, 51134.18
3134.118, 51194.59
3136.047, 51239.25
3137.975, 51111.54
3139.904, 51013.60
3141.832, 51122.47
3143.761, 51233.48
3145.689, 51250.71
3147.618, 51281.86
3149.546, 51393.05
3151.475, 51388.83
3153.403, 51237.96
3155.332, 51228.04
3157.260, 51381.57
3159.188, 51437.99
3161.117, 51412.96
3163.045, 51351.11
3164.974, 51296.50
3166.902, 51348.21
3168.831, 51425.45
3170.759, 51439.68
3172.688, 51436.81
3174.616, 51422.62
3176.545, 51438.02
3178.473, 51538.11
3180.402, 51587.11
3182.330, 51554.54
3184.259, 51553.30
3186.187, 51604.41
3188.115, 51638.23
3190.044, 51653.89
3191.972, 51633.33
3193.901, 51599.30
3195.829, 51606.48
3197.758, 51633.37
3199.686, 51654.49
3201.615, 51675.88
3203.543, 51716.01
3205.472, 51733.95
3207.400, 51672.66
3209.329, 51670.69
3211.257, 51770.22
3213.186, 51808.87
3215.114, 51750.70
3217.042, 51717.93
3218.971, 51710.94
3220.899, 51745.08
3222.828, 51785.28
3224.756, 51734.20
3226.685, 51661.90
3228.613, 51642.16
3230.542, 51667.64
3232.470, 51780.43
3234.399, 51854.04
3236.327, 51796.44
3238.256, 51780.64
3240.184, 51832.05
3242.113, 51881.81
3244.041, 51924.50
3245.969, 51884.30
3247.898, 51792.63
3249.826, 51821.70
3251.755, 51884.55
3253.683, 51819.19
3255.612, 51742.95
3257.540, 51762.02
3259.469, 51809.20
3261.397, 51869.82
3263.326, 51921.60
3265.254, 51966.07
3267.183, 51977.92
3269.111, 51954.40
3271.040, 51887.58
3272.968, 51804.20
3274.896, 51913.70
3276.825, 52098.30
3278.753, 52170.84
3280.682, 52158.89
3282.610, 52031.11
3284.539, 51917.50
3286.467, 51844.48
3288.396, 51876.29
3290.324, 52155.06
3292.253, 52235.77
3294.181, 52108.64
3296.110, 52054.28
3298.038, 52072.61
3299.967, 52138.34
3301.895, 52188.98
3303.823, 52050.12
3305.752, 51922.14
3307.680, 51999.02
3309.609, 52086.71
3311.537, 52106.10
3313.466, 52142.05
3315.394, 52230.79
3317.323, 52231.14
3319.251, 52139.73
3321.180, 52135.52
3323.108, 52167.72
3325.037, 52060.50
3326.965, 51936.32
3328.894, 51984.16
3330.822, 52043.05
3332.750, 51989.12
3334.679, 51987.49
3336.607, 52117.99
3338.536, 52168.85
3340.464, 52118.42
3342.393, 52028.05
3344.321, 51921.64
3346.250, 51897.90
3348.178, 51945.17
3350.107, 52090.17
3352.035, 52217.28
3353.964, 52206.63
3355.892, 52198.38
3357.821, 52251.00
3359.749, 52250.85
3361.677, 52163.50
3363.606, 52120.46
3365.534, 52119.64
3367.463, 52143.43
3369.391, 52183.38
3371.320, 52269.30
3373.248, 52301.38
3375.177, 52136.38
3377.105, 52019.14
3379.034, 52059.04
3380.962, 52142.63
3382.891, 52266.64
3384.819, 52276.12
3386.748, 52187.36
3388.676, 52124.23
3390.604, 52095.16
3392.533, 52136.37
3394.461, 52175.49
3396.390, 52139.20
3398.318, 52106.46
3400.247, 52089.03
3402.175, 52129.64
3404.104, 52252.72
3406.032, 52237.56
3407.961, 52130.71
3409.889, 52129.17
3411.818, 52160.88
3413.746, 52085.52
3415.675, 52044.93
3417.603, 52183.45
3419.531, 52253.07
3421.460, 52174.59
3423.388, 52138.43
3425.317, 52157.22
3427.245, 52176.97
3429.174, 52185.29
3431.102, 52125.77
3433.031, 52067.01
3434.959, 52090.21
3436.888, 52108.94
3438.816, 52083.95
3440.745, 52068.95
3442.673, 52080.70
3444.602, 52030.93
3446.530, 51943.70
3448.458, 52018.86
3450.387, 52129.82
3452.315, 52063.95
3454.244, 52003.25
3456.172, 52079.96
3458.101, 52113.44
3460.029, 52004.86
3461.958, 51949.87
3463.886, 51945.27
3465.815, 51957.74
3467.743, 51972.62
3469.672, 51942.61
3471.600, 51929.15
3473.529, 51992.69
3475.457, 52062.77
3477.385, 52144.22
3479.314, 52115.03
3481.242, 51972.98
3483.171, 51961.45
3485.099, 52024.41
3487.028, 51965.70
3488.956, 51896.23
3490.885, 51936.64
3492.813, 51970.32
3494.742, 51957.39
3496.670, 51925.41
3498.599, 51874.09
3500.527, 51861.19
3502.456, 51876.53
3504.384, 51899.36
3506.313, 51907.14
3508.241, 51857.21
3510.169, 51815.27
3512.098, 51801.48
3514.026, 51816.61
3515.955, 51868.74
3517.883, 51871.59
3519.812, 51838.05
3521.740, 51786.81
3523.669, 51754.95
3525.597, 51811.36
3527.526, 51845.86
3529.454, 51793.03
3531.383, 51768.46
3533.311, 51779.88
3535.240, 51823.28
3537.168, 51862.71
3539.096, 51759.02
3541.025, 51669.13
3542.953, 51770.57
3544.882, 51831.02
3546.810, 51741.04
3548.739, 51669.66
3550.667, 51629.76
3552.596, 51683.38
3554.524, 51754.85
3556.453, 51617.00
3558.381, 51502.12
3560.310, 51638.57
3562.238, 51705.77
3564.167, 51633.62
3566.095, 51543.17
3568.023, 51458.93
3569.952, 51511.51
3571.880, 51595.52
3573.809, 51540.73
3575.737, 51497.49
3577.666, 51577.89
3579.594, 51592.45
3581.523, 51505.68
3583.451, 51478.94
3585.380, 51505.41
3587.308, 51594.23
3589.237, 51645.86
3591.165, 51507.98
3593.094, 51410.50
3595.022, 51429.13
3596.950, 51442.56
3598.879, 51436.73
3600.807, 51347.40
3602.736, 51250.91
3604.664, 51273.98
3606.593, 51346.84
3608.521, 51481.26
3610.450, 51471.26
3612.378, 51226.66
3614.307, 51058.40
3616.235, 50975.80
3618.164, 51045.28
3620.092, 51140.29
3622.021, 51113.41
3623.949, 51120.02
3625.877, 51232.12
3627.806, 51267.73
3629.734, 51228.35
3631.663, 51192.58
3633.591, 51155.77
3635.520, 51096.25
3637.448, 51059.46
3639.377, 51087.30
3641.305, 51048.70
3643.234, 50925.69
3645.162, 50977.11
3647.091, 51104.95
3649.019, 51102.61
3650.948, 51057.51
3652.876, 51015.00
3654.804, 50981.43
3656.733, 50956.28
3658.661, 50964.72
3660.590, 50983.89
3662.518, 50931.53
3664.447, 50872.02
3666.375, 50860.30
3668.304, 50862.70
3670.232, 50886.00
3672.161, 50844.88
3674.089, 50768.52
3676.018, 50785.24
3677.946, 50846.46
3679.875, 50934.21
3681.803, 50966.16
3683.731, 50875.60
3685.660, 50804.01
3687.588, 50754.01
3689.517, 50736.72
3691.445, 50716.91
3693.374, 50621.98
3695.302, 50554.63
3697.231, 50545.09
3699.159, 50649.89
3701.088, 50827.72
3703.016, 50704.86
3704.945, 50485.29
3706.873, 50472.03
3708.802, 50476.73
3710.730, 50404.22
3712.658, 50391.50
3714.587, 50438.64
3716.515, 50496.24
3718.444, 50541.57
3720.372, 50530.64
3722.301, 50514.68
3724.229, 50525.15
3726.158, 50493.93
3728.086, 50426.02
3730.015, 50412.34
3731.943, 50407.50
3733.872, 50319.26
3735.800, 50263.74
3737.729, 50303.86
3739.657, 50337.77
3741.585, 50356.20
3743.514, 50333.46
3745.442, 50291.21
3747.371, 50257.09
3749.299, 50207.40
3751.228, 50114.58
3753.156, 50095.18
3755.085, 50129.83
3757.013, 50074.09
3758.942, 50002.83
3760.870, 50000.89
3762.799, 50016.34
3764.727, 50051.09
3766.656, 50007.29
3768.584, 49916.67
3770.512, 49904.95
3772.441, 49922.89
3774.369, 49939.03
3776.298, 49943.72
3778.226, 49934.33
3780.155, 49896.66
3782.083, 49852.59
3784.012, 49880.86
3785.940, 49885.35
3787.869, 49792.06
3789.797, 49694.65
3791.726, 49606.41
3793.654, 49697.48
3795.583, 49815.20
3797.511, 49658.67
3799.439, 49541.12
3801.368, 49609.67
3803.296, 49649.33
3805.225, 49637.54
3807.153, 49546.43
3809.082, 49495.70
3811.010, 49721.02
3812.939, 49785.80
3814.867, 49565.84
3816.796, 49465.76
3818.724, 49472.20
3820.653, 49469.61
3822.581, 49485.72
3824.510, 49592.81
3826.438, 49579.32
3828.366, 49429.34
3830.295, 49403.07
3832.223, 49444.86
3834.152, 49464.99
3836.080, 49464.44
3838.009, 49451.78
3839.937, 49367.30
3841.866, 49233.16
3843.794, 49189.09
3845.723, 49175.85
3847.651, 49134.74
3849.580, 49074.73
3851.508, 49045.44
3853.437, 49018.98
3855.365, 48970.19
3857.293, 48799.06
3859.222, 48680.20
3861.150, 48739.21
3863.079, 48694.07
3865.007, 48547.34
3866.936, 48472.15
3868.864, 48427.80
3870.793, 48366.29
3872.721, 48338.43
3874.650, 48373.38
3876.578, 48320.71
3878.507, 48214.52
3880.435, 48113.60
3882.364, 48023.18
3884.292, 47939.10
3886.220, 47918.33
3888.149, 47945.86
3890.077, 47901.38
3892.006, 47827.46
3893.934, 47739.85
3895.863, 47700.92
3897.791, 47717.17
3899.720, 47603.06
3901.648, 47437.90
3903.577, 47333.48
3905.505, 47302.49
3907.434, 47389.66
3909.362, 47405.26
3911.291, 47327.27
3913.219, 47116.22
3915.147, 46951.79
3917.076, 46993.78
3919.004, 46936.98
3920.933, 46778.29
3922.861, 46795.15
3924.790, 46846.99
3926.718, 46757.47
3928.647, 46686.42
3930.575, 46665.18
3932.504, 46608.74
3934.432, 46521.79
3936.361, 46347.61
3938.289, 46225.84
3940.218, 46182.85
3942.146, 46135.29
3944.074, 46067.55
3946.003, 46002.75
3947.931, 45971.18
3949.860, 45863.46
3951.788, 45786.05
3953.717, 45800.20
3955.645, 45726.86
3957.574, 45649.60
3959.502, 45739.87
3961.431, 45699.41
3963.359, 45489.92
3965.288, 45386.20
3967.216, 45413.39
3969.145, 45530.82
3971.073, 45503.15
3973.001, 45325.87
3974.930, 45318.33
3976.858, 45328.24
3978.787, 45157.70
3980.715, 45040.12
3982.644, 45034.54
3984.572, 44977.60
3986.501, 44926.65
3988.429, 44841.64
3990.358, 44719.20
3992.286, 44606.59
3994.215, 44542.46
3996.143, 44522.34
3998.072, 44422.74
4000.000, 44345.55
4001.928, 44424.42
4003.857, 44390.40
4005.785, 44275.72
4007.714, 44282.18
4009.642, 44272.53
4011.571, 44118.21
4013.499, 43974.05
4015.428, 43980.98
4017.356, 43971.06
4019.285, 43890.19
4021.213, 43896.60
4023.142, 43917.30
4025.070, 43821.66
4026.999, 43725.19
4028.927, 43696.63
4030.855, 43611.66
4032.784, 43518.31
4034.712, 43507.80
4036.641, 43502.46
4038.569, 43419.01
4040.498, 43345.12
4042.426, 43275.65
4044.355, 43167.12
4046.283, 43158.88
4048.212, 43145.41
4050.140, 43072.49
4052.069, 43031.43
4053.997, 42948.64
4055.926, 42879.81
4057.854, 42921.00
4059.782, 42937.18
4061.711, 42853.98
4063.639, 42773.31
4065.568, 42724.68
4067.496, 42661.34
4069.425, 42581.51
4071.353, 42497.84
4073.282, 42429.93
4075.210, 42456.94
4077.139, 42459.15
4079.067, 42375.68
4080.996, 42315.88
4082.924, 42204.13
4084.853, 42046.04
4086.781, 41956.81
4088.709, 41970.55
4090.638, 41979.00
4092.566, 41961.48
4094.495, 41891.93
4096.423, 41813.86
4098.352, 41787.92
4100.280, 41754.09
4102.208, 41706.82
4104.137, 41598.00
4106.065, 41486.96
4107.994, 41467.02
4109.922, 41455.77
4111.851, 41431.47
4113.779, 41363.66
4115.708, 41300.38
4117.636, 41308.83
4119.565, 41269.36
4121.493, 41167.54
4123.422, 41083.19
4125.350, 41023.40
4127.279, 41018.32
4129.207, 40989.69
4131.136, 40915.28
4133.064, 40849.79
4134.993, 40784.22
4136.921, 40682.47
4138.850, 40625.79
4140.778, 40615.75
4142.707, 40615.80
4144.635, 40606.29
4146.563, 40557.31
4148.492, 40475.81
4150.420, 40367.49
4152.349, 40245.19
4154.277, 40187.96
4156.206, 40341.75
4158.134, 40365.55
4160.063, 40233.02
4161.991, 40124.16
4163.919, 40024.96
4165.848, 39973.68
4167.776, 39950.92
4169.705, 39959.86
4171.633, 39925.93
4173.562, 39843.98
4175.490, 39768.64
4177.419, 39660.66
4179.347, 39494.70
4181.276, 39520.96
4183.204, 39588.97
4185.133, 39506.91
4187.061, 39419.47
4188.990, 39347.93
4190.918, 39390.12
4192.847, 39447.14
4194.775, 39381.87
4196.704, 39288.98
4198.632, 39159.59
4200.561, 39184.41
4202.489, 39240.72
4204.417, 39113.91
4206.346, 38999.49
4208.274, 38935.76
4210.203, 38951.05
4212.131, 38970.63
4214.060, 38900.64
4215.988, 38798.11
4217.917, 38686.30
4219.845, 38656.79
4221.773, 38632.69
4223.702, 38524.16
4225.630, 38481.94
4227.559, 38510.61
4229.487, 38522.88
4231.416, 38504.93
4233.344, 38404.98
4235.273, 38348.52
4237.201, 38342.61
4239.130, 38413.62
4241.058, 38425.22
4242.987, 38226.47
4244.915, 38191.78
4246.844, 38251.62
4248.772, 38250.18
4250.701, 38203.25
4252.629, 38057.83
4254.558, 38167.02
4256.486, 38355.59
4258.415, 38262.99
4260.343, 38100.83
4262.271, 37916.90
4264.200, 37845.30
4266.128, 37850.86
4268.057, 37919.87
4269.985, 37950.71
4271.914, 37921.38
4273.842, 37846.31
4275.771, 37791.37
4277.699, 37847.36
4279.627, 37876.87
4281.556, 37873.58
4283.484, 37912.69
4285.413, 37946.56
4287.341, 37940.90
4289.270, 37897.18
4291.198, 37856.66
4293.127, 38009.60
4295.055, 38088.28
4296.984, 37934.27
4298.912, 37849.49
4300.841, 37807.91
4302.769, 37750.93
4304.698, 37733.74
4306.626, 37773.41
4308.555, 37830.49
4310.483, 37846.18
4312.412, 37707.52
4314.340, 37696.16
4316.269, 37811.76
4318.197, 37752.75
4320.125, 37685.69
4322.054, 37721.88
4323.982, 37640.45
4325.911, 37519.22
4327.839, 37638.88
4329.768, 37738.99
4331.696, 37737.78
4333.625, 37648.61
4335.553, 37557.46
4337.481, 37576.56
4339.410, 37608.72
4341.338, 37627.45
4343.267, 37553.80
4345.195, 37464.25
4347.124, 37390.64
4349.052, 37474.84
4350.981, 37625.67
4352.909, 37557.34
4354.838, 37469.84
4356.766, 37432.23
4358.695, 37422.80
4360.623, 37426.29
4362.552, 37424.52
4364.480, 37434.42
4366.409, 37451.57
4368.337, 37428.84
4370.266, 37389.00
4372.194, 37334.73
4374.123, 37326.46
4376.051, 37330.63
4377.979, 37243.32
4379.908, 37182.41
4381.836, 37185.58
4383.765, 37218.21
4385.693, 37243.47
4387.622, 37216.67
4389.550, 37202.05
4391.479, 37198.55
4393.407, 37164.30
4395.335, 37115.88
4397.264, 37054.45
4399.192, 37120.84
4401.121, 37213.89
4403.049, 37170.41
4404.978, 37149.73
4406.906, 37160.85
4408.835, 37065.08
4410.763, 36989.96
4412.692, 37017.50
4414.620, 37075.23
4416.549, 37111.01
4418.477, 37013.36
4420.406, 36935.47
4422.334, 36915.36
4424.263, 36917.15
4426.191, 36946.57
4428.120, 37044.07
4430.048, 36995.47
4431.977, 36884.11
4433.905, 36988.91
4435.833, 37032.31
4437.762, 36943.36
4439.690, 36993.54
4441.619, 37008.47
4443.547, 36811.34
4445.476, 36738.66
4447.404, 36775.66
4449.333, 36818.36
4451.261, 36822.74
4453.189, 36779.46
4455.118, 36809.52
4457.046, 36841.33
4458.975, 36800.65
4460.903, 36744.32
4462.832, 36693.25
4464.760, 36725.55
4466.689, 36695.83
4468.617, 36555.79
4470.546, 36530.25
4472.474, 36558.91
4474.403, 36609.51
4476.331, 36609.65
4478.260, 36579.06
4480.188, 36574.95
4482.117, 36570.99
4484.045, 36563.16
4485.974, 36596.74
4487.902, 36618.04
4489.831, 36556.83
4491.759, 36610.88
4493.688, 36674.95
4495.616, 36467.25
4497.544, 36334.24
4499.473, 36334.46
4501.401, 36355.73
4503.330, 36417.73
4505.258, 36542.87
4507.187, 36442.13
4509.115, 36293.75
4511.043, 36391.32
4512.972, 36428.66
4514.900, 36384.46
4516.829, 36367.88
4518.757, 36328.10
4520.686, 36232.67
4522.614, 36207.46
4524.543, 36203.50
4526.471, 36168.92
4528.400, 36186.86
4530.328, 36229.84
4532.257, 36209.82
4534.185, 36192.86
4536.114, 36193.12
4538.042, 36193.21
4539.971, 36203.85
4541.899, 36250.42
4543.828, 36214.24
4545.756, 36132.46
4547.685, 36053.37
4549.613, 35947.94
4551.542, 35858.22
4553.470, 36029.87
4555.398, 36124.74
4557.327, 36052.21
4559.255, 35985.67
4561.184, 35965.91
4563.112, 36055.29
4565.041, 36006.16
4566.969, 35896.46
4568.897, 35885.32
4570.826, 35857.57
4572.754, 35799.46
4574.683, 35693.23
4576.611, 35679.14
4578.540, 35792.97
4580.468, 35805.71
4582.397, 35773.70
4584.325, 35746.02
4586.254, 35685.31
4588.182, 35647.27
4590.111, 35781.16
4592.039, 35815.17
4593.968, 35747.95
4595.896, 35760.25
4597.825, 35768.68
4599.753, 35745.27
4601.682, 35650.21
4603.610, 35579.39
4605.539, 35641.04
4607.467, 35513.69
4609.396, 35367.55
4611.324, 35515.61
4613.252, 35494.74
4615.181, 35351.02
4617.109, 35420.27
4619.038, 35459.36
4620.966, 35416.96
4622.895, 35344.48
4624.823, 35313.06
4626.751, 35387.29
4628.680, 35354.03
4630.608, 35298.36
4632.537, 35306.79
4634.465, 35263.12
4636.394, 35208.89
4638.322, 35244.71
4640.251, 35284.55
4642.179, 35295.94
4644.108, 35183.55
4646.036, 35133.63
4647.965, 35203.75
4649.893, 35189.59
4651.822, 35115.80
4653.750, 34990.57
4655.679, 35072.08
4657.607, 35174.14
4659.536, 35077.69
4661.464, 35006.19
4663.393, 34971.84
4665.321, 34973.86
4667.250, 35011.34
4669.178, 35049.79
4671.106, 34943.03
4673.035, 34862.16
4674.963, 34851.18
4676.892, 34901.73
4678.820, 34918.20
4680.749, 34846.91
4682.677, 34803.40
4684.605, 34761.10
4686.534, 34690.97
4688.462, 34791.73
4690.391, 34911.95
4692.319, 34821.80
4694.248, 34797.90
4696.176, 34800.92
4698.105, 34664.82
4700.033, 34622.41
4701.962, 34664.33
4703.890, 34604.93
4705.819, 34547.21
4707.747, 34514.27
4709.676, 34396.45
4711.604, 34347.69
4713.533, 34436.43
4715.461, 34454.55
4717.390, 34472.53
4719.318, 34546.70
4721.247, 34456.75
4723.175, 34360.45
4725.104, 34475.96
4727.032, 34452.49
4728.960, 34360.50
4730.889, 34316.10
4732.817, 34375.22
4734.746, 34457.45
4736.674, 34360.61
4738.603, 34284.55
4740.531, 34245.81
4742.459, 34150.29
4744.388, 34042.45
4746.316, 33945.63
4748.245, 33909.79
4750.173, 33947.85
4752.102, 34065.33
4754.030, 33994.00
4755.959, 33890.74
4757.887, 33835.01
4759.816, 33958.82
4761.744, 34081.69
4763.673, 34056.97
4765.601, 34002.38
4767.530, 33925.47
4769.458, 33817.80
4771.387, 33824.27
4773.315, 33860.16
4775.244, 33808.03
4777.172, 33684.99
4779.101, 33586.45
4781.029, 33725.12
4782.958, 33736.57
4784.886, 33649.47
4786.814, 33677.18
4788.743, 33579.09
4790.671, 33395.06
4792.600, 33435.27
4794.528, 33486.15
4796.457, 33492.34
4798.385, 33380.39
4800.313, 33355.52
4802.242, 33447.95
4804.170, 33365.43
4806.099, 33309.87
4808.027, 33337.83
4809.956, 33234.22
4811.884, 33172.85
4813.813, 33233.61
4815.741, 33190.68
4817.670, 33138.89
4819.598, 33127.95
4821.527, 33163.95
4823.455, 33155.73
4825.384, 33027.62
4827.312, 33050.70
4829.241, 33105.24
4831.169, 33103.17
4833.098, 33069.20
4835.026, 33018.14
4836.955, 32966.07
4838.883, 32845.24
4840.812, 32757.43
4842.740, 32805.45
4844.668, 32885.03
4846.597, 32904.30
4848.525, 32723.16
4850.454, 32708.37
4852.382, 32729.90
4854.311, 32605.05
4856.239, 32544.81
4858.167, 32515.59
4860.096, 32422.16
4862.024, 32448.95
4863.953, 32503.07
4865.881, 32435.02
4867.810, 32352.04
4869.738, 32288.56
4871.667, 32258.09
4873.595, 32369.55
4875.524, 32468.61
4877.452, 32251.88
4879.381, 32236.21
4881.309, 32321.60
4883.238, 32215.08
4885.166, 32213.91
4887.095, 32234.21
4889.023, 32030.47
4890.952, 32053.62
4892.880, 32166.57
4894.809, 32039.18
4896.737, 31950.84
4898.666, 31913.25
4900.594, 31892.69
4902.522, 31940.47
4904.451, 31952.04
4906.379, 31701.04
4908.308, 31708.11
4910.236, 31835.33
4912.165, 31794.72
4914.093, 31712.50
4916.021, 31640.37
4917.950, 31637.43
4919.878, 31643.73
4921.807, 31638.14
4923.735, 31611.36
4925.664, 31485.75
4927.592, 31398.32
4929.521, 31571.05
4931.449, 31487.44
4933.378, 31325.44
4935.306, 31345.69
4937.235, 31353.30
4939.163, 31313.71
4941.092, 31178.08
4943.020, 31176.27
4944.949, 31152.08
4946.877, 30944.08
4948.806, 31060.06
4950.734, 31203.91
4952.663, 31060.50
4954.591, 31082.48
4956.520, 31117.32
4958.448, 31062.48
4960.376, 30953.73
4962.305, 30873.03
4964.233, 30867.89
4966.162, 30759.42
4968.090, 30708.55
4970.019, 30796.25
4971.947, 30725.69
4973.875, 30667.50
4975.804, 30677.54
4977.732, 30638.21
4979.661, 30592.46
4981.589, 30557.06
4983.518, 30520.58
4985.446, 30531.93
4987.375, 30568.42
4989.303, 30474.63
4991.232, 30379.37
4993.160, 30310.04
4995.089, 30244.30
4997.017, 30260.95
4998.946, 30311.64
5000.874, 30258.20
5002.803, 30177.38
5004.731, 30110.81
5006.660, 30112.91
5008.588, 30119.03
5010.517, 30101.46
5012.445, 30017.51
5014.374, 30041.73
5016.302, 30073.81
5018.230, 30009.33
5020.159, 29955.64
5022.087, 29904.01
5024.016, 29835.50
5025.944, 29849.77
5027.873, 29840.08
5029.801, 29766.35
5031.729, 29787.06
5033.658, 29719.52
5035.586, 29531.46
5037.515, 29477.93
5039.443, 29519.14
5041.372, 29587.66
5043.300, 29460.66
5045.229, 29383.74
5047.157, 29363.52
5049.086, 29294.29
5051.014, 29307.24
5052.943, 29350.66
5054.871, 29332.57
5056.800, 29266.22
5058.728, 29204.88
5060.657, 29199.73
5062.585, 29122.53
5064.514, 29064.52
5066.442, 29103.66
5068.371, 28924.52
5070.299, 28807.63
5072.228, 28862.75
5074.156, 28939.59
5076.084, 28881.67
5078.013, 28728.87
5079.941, 28820.43
5081.870, 28786.13
5083.798, 28655.89
5085.727, 28671.80
5087.655, 28652.99
5089.583, 28601.97
5091.512, 28550.92
5093.440, 28471.63
5095.369, 28408.80
5097.297, 28403.51
5099.226, 28440.63
5101.154, 28385.32
5103.083, 28197.59
5105.011, 28185.81
5106.940, 28235.02
5108.868, 28277.35
5110.797, 28194.61
5112.725, 28124.84
5114.654, 28077.32
5116.582, 28029.61
5118.511, 27865.70
5120.439, 27732.04
5122.368, 27810.45
5124.296, 27841.38
5126.225, 27797.44
5128.153, 27667.73
5130.082, 27731.43
5132.010, 27773.90
5133.938, 27711.00
5135.867, 27507.88
5137.795, 27475.03
5139.724, 27577.18
5141.652, 27599.24
5143.581, 27573.37
5145.509, 27483.64
5147.438, 27239.38
5149.366, 27328.66
5151.294, 27431.87
5153.223, 27338.73
5155.151, 27380.62
5157.080, 27410.84
5159.008, 27371.88
5160.937, 27275.34
5162.865, 27244.20
5164.794, 27272.15
5166.722, 27313.29
5168.651, 27198.04
5170.579, 27063.60
5172.508, 27068.85
5174.436, 27132.36
5176.365, 27098.63
5178.293, 26894.78
5180.222, 26849.64
5182.150, 26837.68
5184.079, 26826.45
5186.007, 26858.01
5187.936, 26787.07
5189.864, 26673.74
5191.792, 26625.97
5193.721, 26598.91
5195.649, 26593.96
5197.578, 26614.91
5199.506, 26651.64
5201.435, 26592.93
5203.363, 26455.67
5205.292, 26460.38
5207.220, 26389.40
5209.148, 26294.95
5211.077, 26330.50
5213.005, 26314.42
5214.934, 26256.66
5216.862, 26171.79
5218.791, 26105.76
5220.719, 26024.36
5222.648, 25949.15
5224.576, 26028.64
5226.505, 26033.54
5228.433, 25999.19
5230.362, 26064.43
5232.290, 25966.66
5234.219, 25879.80
5236.147, 25913.95
5238.076, 25903.34
5240.004, 25847.21
5241.933, 25768.23
5243.861, 25727.35
5245.790, 25701.24
5247.718, 25639.01
5249.646, 25444.26
5251.575, 25485.58
5253.503, 25504.41
5255.432, 25394.88
5257.360, 25412.36
5259.289, 25477.53
5261.217, 25493.08
5263.146, 25236.91
5265.074, 25209.71
5267.002, 25253.73
5268.931, 25203.56
5270.859, 25154.46
5272.788, 25200.71
5274.716, 25297.63
5276.645, 25134.51
5278.573, 25069.76
5280.502, 25053.11
5282.430, 24950.85
5284.359, 24851.19
5286.287, 24838.56
5288.216, 24931.80
5290.144, 24959.79
5292.073, 24892.01
5294.001, 24780.23
5295.930, 24721.11
5297.858, 24639.52
5299.787, 24605.48
5301.715, 24668.29
5303.644, 24732.42
5305.572, 24633.21
5307.500, 24452.10
5309.429, 24503.27
5311.357, 24566.29
5313.286, 24508.76
5315.214, 24272.95
5317.143, 24383.90
5319.071, 24415.70
5321.000, 24287.70
5322.928, 24230.69
5324.856, 24240.36
5326.785, 24228.87
5328.713, 24116.38
5330.642, 24014.54
5332.570, 23924.67
5334.499, 23861.10
5336.427, 23913.24
5338.356, 23785.47
5340.284, 23667.96
5342.213, 23816.69
5344.141, 23862.27
5346.070, 23790.79
5347.998, 23651.09
5349.927, 23612.79
5351.855, 23656.67
5353.784, 23661.55
5355.712, 23520.45
5357.641, 23497.29
5359.569, 23487.80
5361.498, 23461.73
5363.426, 23487.10
5365.354, 23460.00
5367.283, 23405.65
5369.211, 23357.65
5371.140, 23163.65
5373.068, 23132.01
5374.997, 23233.03
5376.925, 23135.47
5378.854, 23032.09
5380.782, 22950.35
5382.710, 22894.36
5384.639, 22957.34
5386.567, 22925.00
5388.496, 22830.19
5390.424, 22874.27
5392.353, 22794.87
5394.281, 22710.75
5396.210, 22689.13
5398.138, 22544.77
5400.067, 22541.27
5401.995, 22606.49
5403.924, 22560.18
5405.852, 22401.56
5407.781, 22327.79
5409.709, 22383.23
5411.638, 22362.02
5413.566, 22365.83
5415.495, 22322.06
5417.423, 22155.97
5419.352, 22086.99
5421.280, 22115.50
5423.208, 22162.66
5425.137, 22011.71
5427.065, 22019.08
5428.994, 22076.82
5430.922, 22092.90
5432.851, 21996.10
5434.779, 21923.64
5436.708, 21883.21
5438.636, 21844.53
5440.564, 21789.67
5442.493, 21709.18
5444.421, 21624.96
5446.350, 21616.49
5448.278, 21650.54
5450.207, 21642.32
5452.135, 21536.18
5454.064, 21507.45
5455.992, 21470.33
5457.921, 21412.25
5459.849, 21345.66
5461.778, 21345.42
5463.706, 21344.75
5465.635, 21302.65
5467.563, 21153.85
5469.492, 21182.66
5471.420, 21191.83
5473.349, 21017.44
5475.277, 21051.94
5477.206, 21020.82
5479.134, 20952.51
5481.063, 20984.08
5482.991, 20895.72
5484.919, 20857.12
5486.848, 20879.64
5488.776, 20799.80
5490.705, 20770.07
5492.633, 20752.03
5494.562, 20711.96
5496.490, 20676.16
5498.418, 20582.90
5500.347, 20485.91
5502.275, 20455.75
5504.204, 20457.82
5506.132, 20377.61
5508.061, 20273.77
5509.989, 20308.86
5511.918, 20273.76
5513.846, 20234.25
5515.775, 20210.87
5517.703, 20140.08
5519.632, 20047.76
5521.560, 20014.36
5523.489, 20077.11
5525.417, 20079.60
5527.346, 20048.58
5529.274, 19953.38
5531.203, 19761.04
5533.131, 19863.56
5535.060, 19877.90
5536.988, 19804.34
5538.917, 19803.63
5540.845, 19745.36
5542.773, 19687.27
5544.702, 19650.82
5546.630, 19629.07
5548.559, 19566.46
5550.487, 19513.75
5552.416, 19489.85
5554.344, 19443.93
5556.272, 19448.37
5558.201, 19362.98
5560.129, 19135.50
5562.058, 19239.66
5563.986, 19278.30
5565.915, 19200.65
5567.843, 19050.82
5569.772, 19017.63
5571.700, 19040.68
5573.629, 19056.62
5575.557, 19012.77
5577.486, 18929.36
5579.414, 18838.39
5581.343, 18812.00
5583.271, 19005.11
5585.200, 18882.22
5587.128, 18778.64
5589.057, 18755.56
5590.985, 18645.05
5592.914, 18715.68
5594.842, 18725.86
5596.771, 18607.95
5598.699, 18509.99
5600.627, 18444.17
5602.556, 18424.18
5604.484, 18440.75
5606.413, 18426.42
5608.341, 18469.06
5610.270, 18420.08
5612.198, 18241.80
5614.126, 18255.33
5616.055, 18293.03
5617.983, 18234.58
5619.912, 18064.78
5621.840, 18109.45
5623.769, 18120.48
5625.697, 18032.46
5627.626, 17871.36
5629.554, 17914.06
5631.483, 17874.07
5633.411, 17833.22
5635.340, 17880.70
5637.268, 17833.95
5639.197, 17722.39
5641.125, 17618.67
5643.054, 17578.52
5644.982, 17643.66
5646.911, 17627.61
5648.839, 17570.88
5650.768, 17543.21
5652.696, 17505.95
5654.625, 17471.89
5656.553, 17432.61
5658.481, 17383.55
5660.410, 17375.43
5662.338, 17345.70
5664.267, 17306.27
5666.195, 17273.16
5668.124, 17178.69
5670.052, 17144.04
5671.980, 17138.37
5673.909, 17113.87
5675.837, 17026.65
5677.766, 16973.32
5679.694, 16964.68
5681.623, 16981.22
5683.551, 16894.75
5685.480, 16820.63
5687.408, 16774.96
5689.337, 16746.34
5691.265, 16683.45
5693.194, 16699.11
5695.122, 16684.63
5697.051, 16593.85
5698.979, 16602.83
5700.908, 16583.48
5702.836, 16524.64
5704.765, 16447.03
5706.693, 16422.05
5708.622, 16391.67
5710.550, 16306.72
5712.479, 16207.75
5714.407, 16315.21
5716.335, 16295.15
5718.264, 16243.61
5720.192, 16214.36
5722.121, 16214.24
5724.049, 16086.66
5725.978, 16065.95
5727.906, 16115.77
5729.834, 16047.44
5731.763, 16124.36
5733.691, 16034.74
5735.620, 15915.50
5737.548, 16011.84
5739.477, 15827.96
5741.405, 15781.73
5743.334, 15809.52
5745.262, 15763.79
5747.191, 15710.19
5749.119, 15722.96
5751.048, 15656.22
5752.976, 15462.44
5754.905, 15526.01
5756.833, 15585.11
5758.762, 15549.17
5760.690, 15446.33
5762.619, 15449.40
5764.547, 15361.97
5766.476, 15301.20
5768.404, 15298.57
5770.333, 15313.31
5772.261, 15260.63
5774.189, 15226.99
5776.118, 15212.90
5778.046, 15187.96
5779.975, 15182.80
5781.903, 15059.85
5783.832, 14963.81
5785.760, 14998.00
5787.688, 14990.23
5789.617, 14905.27
5791.545, 14860.83
5793.474, 14882.41
5795.402, 14845.66
5797.331, 14752.25
5799.259, 14684.39
5801.188, 14652.00
5803.116, 14610.79
5805.045, 14702.76
5806.973, 14600.49
5808.902, 14474.04
5810.830, 14544.73
5812.759, 14479.09
5814.687, 14441.26
5816.616, 14394.96
5818.544, 14338.07
5820.473, 14385.38
5822.401, 14340.63
5824.330, 14318.69
5826.258, 14303.98
5828.187, 14204.53
5830.115, 14220.56
5832.043, 14217.79
5833.972, 14149.83
5835.900, 14040.81
5837.829, 14098.66
5839.757, 14058.55
5841.686, 13986.31
5843.614, 13925.25
5845.542, 13833.99
5847.471, 13836.61
5849.399, 13860.85
5851.328, 13873.73
5853.256, 13868.70
5855.185, 13862.81
5857.113, 13669.26
5859.042, 13582.86
5860.970, 13696.14
5862.899, 13608.58
5864.827, 13628.48
5866.756, 13614.99
5868.684, 13532.65
5870.613, 13420.93
5872.541, 13448.84
5874.470, 13482.34
5876.398, 13425.92
5878.327, 13283.89
5880.255, 13229.08
5882.184, 13287.38
5884.112, 13319.14
5886.041, 13286.42
5887.969, 13216.19
5889.897, 13150.09
5891.826, 13107.49
5893.754, 13105.03
5895.683, 13126.63
5897.611, 13097.34
5899.540, 13053.80
5901.468, 13014.54
5903.396, 12955.62
5905.325, 12853.15
5907.253, 12837.62
5909.182, 12779.42
5911.110, 12802.09
5913.039, 12900.82
5914.967, 12799.12
5916.896, 12787.49
5918.824, 12670.81
5920.753, 12590.23
5922.681, 12713.78
5924.610, 12748.51
5926.538, 12622.25
5928.467, 12519.04
5930.395, 12491.98
5932.324, 12476.33
5934.252, 12398.47
5936.181, 12353.85
5938.109, 12327.06
5940.038, 12303.64
5941.966, 12354.62
5943.895, 12349.23
5945.823, 12285.88
5947.751, 12198.14
5949.680, 12126.84
5951.608, 12136.96
5953.537, 12123.75
5955.465, 12055.56
5957.394, 11995.63
5959.322, 12061.25
5961.250, 12041.00
5963.179, 11965.58
5965.107, 11897.50
5967.036, 11866.83
5968.964, 11850.80
5970.893, 11794.33
5972.821, 11747.85
5974.750, 11734.99
5976.678, 11767.08
5978.607, 11882.13
5980.535, 11721.63
5982.464, 11564.57
5984.392, 11548.62
5986.321, 11643.32
5988.249, 11538.34
5990.178, 11497.87
5992.106, 11508.38
5994.035, 11487.66
5995.963, 11365.47
5997.892, 11294.42
5999.820, 11343.62
6001.749, 11374.97
6003.677, 11311.30
6005.605, 11195.73
6007.534, 11193.11
6009.462, 11236.83
6011.391, 11252.94
6013.319, 11205.65
6015.248, 11104.19
6017.176, 11053.16
6019.104, 11042.79
6021.033, 11056.81
6022.961, 11052.71
6024.890, 10894.07
6026.818, 10924.58
6028.747, 10930.69
6030.675, 10897.22
6032.604, 10882.59
6034.532, 10900.03
6036.461, 10911.38
6038.389, 10782.54
6040.318, 10668.98
6042.246, 10709.58
6044.175, 10652.78
6046.103, 10619.38
6048.032, 10601.30
6049.960, 10602.26
6051.889, 10615.44
6053.817, 10542.07
6055.746, 10474.27
6057.674, 10490.84
6059.603, 10504.02
6061.531, 10429.45
6063.459, 10403.70
6065.388, 10366.20
6067.316, 10320.74
6069.245, 10298.57
6071.173, 10306.11
6073.102, 10244.62
6075.030, 10189.19
6076.958, 10178.19
6078.887, 10173.32
6080.815, 10134.24
6082.744, 10054.48
6084.672, 10111.92
6086.601, 10068.72
6088.529, 10008.29
6090.458, 10014.88
6092.386, 9925.453
6094.315, 9979.050
6096.243, 9949.218
6098.172, 9912.040
6100.100, 9942.450
6102.029, 9985.582
6103.957, 9839.254
6105.886, 9765.158
6107.814, 9784.150
6109.743, 9809.951
6111.671, 9732.004
6113.600, 9684.982
6115.528, 9635.276
6117.457, 9598.080
6119.385, 9585.278
6121.313, 9587.997
6123.242, 9520.578
6125.170, 9500.470
6127.099, 9494.146
6129.027, 9459.146
6130.956, 9382.838
6132.884, 9290.584
6134.813, 9338.104
6136.741, 9324.410
6138.669, 9285.639
6140.598, 9287.874
6142.526, 9288.807
6144.455, 9162.983
6146.383, 9143.983
6148.312, 9142.606
6150.240, 9121.869
6152.169, 9144.074
6154.097, 9003.583
6156.026, 8946.422
6157.954, 8949.183
6159.883, 8985.517
6161.811, 9034.570
6163.740, 9005.887
6165.668, 8945.068
6167.597, 8895.566
6169.525, 8888.311
6171.454, 8906.973
6173.382, 8883.267
6175.311, 8840.082
6177.239, 8786.326
6179.167, 8731.492
6181.096, 8718.197
6183.024, 8756.149
6184.953, 8612.061
6186.881, 8577.935
6188.810, 8638.358
6190.738, 8633.500
6192.667, 8511.347
6194.595, 8442.878
6196.523, 8545.037
6198.452, 8493.977
6200.380, 8455.972
6202.309, 8491.541
6204.237, 8506.511
6206.166, 8358.615
6208.094, 8294.337
6210.023, 8290.090
6211.951, 8329.823
6213.880, 8356.289
6215.808, 8239.370
6217.737, 8206.856
6219.665, 8270.976
6221.594, 8205.920
6223.522, 8105.549
6225.451, 8136.138
6227.379, 8078.750
6229.308, 8107.927
6231.236, 8101.366
6233.165, 8009.717
6235.093, 7930.461
6237.021, 8009.287
6238.950, 7985.892
6240.878, 7981.156
6242.807, 7930.015
6244.735, 7892.405
6246.664, 7881.631
6248.592, 7789.625
6250.521, 7795.632
6252.449, 7777.795
6254.377, 7703.863
6256.306, 7698.672
6258.234, 7782.652
6260.163, 7687.971
6262.091, 7622.196
6264.020, 7571.324
6265.948, 7545.193
6267.877, 7558.835
6269.805, 7591.227
6271.734, 7542.577
6273.662, 7555.841
6275.591, 7565.375
6277.519, 7526.104
6279.448, 7469.501
6281.376, 7448.754
6283.305, 7442.114
6285.233, 7337.375
6287.162, 7307.721
6289.090, 7261.346
6291.019, 7222.232
6292.947, 7302.444
6294.875, 7263.509
6296.804, 7301.180
6298.732, 7247.597
6300.661, 7187.688
6302.589, 7181.809
6304.518, 7190.861
6306.446, 7079.083
6308.375, 7053.688
6310.303, 7082.386
6312.231, 7120.051
6314.160, 7099.099
6316.088, 6988.484
6318.017, 6922.404
6319.945, 6985.735
6321.874, 7000.881
6323.802, 6921.619
6325.731, 6862.882
6327.659, 6902.106
6329.588, 6827.618
6331.516, 6854.856
6333.445, 6842.634
6335.373, 6831.377
6337.302, 6816.769
6339.230, 6761.125
6341.159, 6686.749
6343.087, 6760.583
6345.016, 6759.556
6346.944, 6691.954
6348.873, 6636.659
6350.801, 6631.585
6352.729, 6649.224
6354.658, 6710.983
6356.586, 6657.292
6358.515, 6597.096
6360.443, 6532.197
6362.372, 6487.510
6364.300, 6529.316
6366.229, 6481.471
6368.157, 6469.675
6370.085, 6415.708
6372.014, 6388.174
6373.942, 6402.143
6375.871, 6403.527
6377.799, 6352.967
6379.728, 6288.298
6381.656, 6245.437
6383.585, 6242.856
6385.513, 6257.060
6387.442, 6254.588
6389.370, 6220.955
6391.299, 6213.392
6393.227, 6234.954
6395.156, 6189.244
6397.084, 6144.895
6399.013, 6112.492
6400.941, 6063.543
6402.870, 6126.436
6404.798, 6022.589
6406.727, 6033.693
6408.655, 6037.132
6410.583, 5986.752
6412.512, 5932.433
6414.440, 5928.922
6416.369, 5969.406
6418.297, 5982.897
6420.226, 5986.266
6422.154, 5950.777
6424.083, 5910.812
6426.011, 5892.268
6427.939, 5846.366
6429.868, 5910.729
6431.796, 5873.538
6433.725, 5821.374
6435.653, 5767.351
6437.582, 5734.754
6439.510, 5739.559
6441.439, 5669.012
6443.367, 5721.608
6445.296, 5702.796
6447.224, 5666.106
6449.153, 5662.315
6451.081, 5658.873
6453.010, 5617.198
6454.938, 5616.869
6456.867, 5548.245
6458.795, 5509.757
6460.724, 5506.001
6462.652, 5531.276
6464.581, 5550.563
6466.509, 5517.035
6468.438, 5456.957
6470.366, 5403.371
6472.294, 5406.137
6474.223, 5443.569
6476.151, 5448.820
6478.080, 5394.371
6480.008, 5317.915
6481.937, 5330.546
6483.865, 5314.157
6485.793, 5321.613
6487.722, 5338.975
6489.650, 5335.618
6491.579, 5313.263
6493.507, 5289.398
6495.436, 5256.473
6497.364, 5255.165
6499.293, 5219.311
6501.221, 5233.792
6503.150, 5229.281
6505.078, 5158.151
6507.007, 5079.612
6508.935, 5135.263
6510.864, 5073.252
6512.792, 5086.521
6514.721, 5087.583
6516.649, 5073.176
6518.578, 5051.717
6520.506, 5022.250
6522.435, 4993.935
6524.363, 4998.587
6526.292, 4956.289
6528.220, 4948.202
6530.148, 4962.683
6532.077, 4968.061
6534.005, 4944.691
6535.934, 4896.717
6537.862, 4858.664
6539.791, 4932.012
6541.719, 4863.260
6543.647, 4834.832
6545.576, 4871.081
6547.504, 4810.032
6549.433, 4717.364
6551.361, 4798.706
6553.290, 4725.405
6555.218, 4669.820
6557.147, 4650.220
6559.075, 4647.003
6561.004, 4593.234
6562.932, 4516.976
6564.861, 4466.977
6566.789, 4428.768
6568.718, 4377.869
6570.646, 4370.866
6572.575, 4321.227
6574.503, 4278.333
6576.432, 4215.731
##END=



