##NAMES=Monteregianite-(Y)
##RRUFFID=R130052
##IDEAL CHEMISTRY=KNa_2_YSi_8_O_19_·5H_2_O
##LOCALITY=Mont Saint-Hilaire, Rouville RCM, Monteregie, Quebec, Canada
##OWNER=RRUFF
##SOURCE=Don Doell
##DESCRIPTION=Single bladed pale pink crystal, cell parameters are significantly different than those reported
##STATUS=The identification of this mineral has been confirmed only by single crystal X-ray diffraction
##URL=https://www.rruff.net/odr/rruff_sample/R130052
##DIFFRACTION SAMPLE DESCRIPTION=Single crystal, powder profile is calculated
##CELL PARAMETERS=a: 9.581 b: 23.817 c: 9.58 alpha: 90 beta: 93.697 gamma: 90 volume: 2181.6 crystal system: monoclinic
##FILETYPE=Raman Processed
##RAMAN WAVELENGTH=532

198.1804, 2860.223
200.1089, 2953.379
202.0373, 3047.253
203.9658, 3148.933
205.8943, 3245.247
207.8227, 3332.488
209.7512, 3413.787
211.6797, 3480.385
213.6081, 3526.391
215.5366, 3557.677
217.4651, 3584.179
219.3935, 3604.415
221.3220, 3621.435
223.2505, 3635.992
225.1789, 3648.358
227.1074, 3658.806
229.0359, 3667.970
230.9643, 3675.778
232.8928, 3680.008
234.8213, 3678.863
236.7497, 3675.657
238.6782, 3671.208
240.6067, 3664.297
242.5351, 3658.331
244.4636, 3654.727
246.3921, 3652.223
248.3205, 3645.274
250.2490, 3631.629
252.1775, 3614.657
254.1059, 3596.328
256.0344, 3576.471
257.9629, 3555.857
259.8913, 3535.118
261.8198, 3514.321
263.7483, 3493.064
265.6767, 3471.496
267.6052, 3450.112
269.5337, 3429.131
271.4621, 3408.114
273.3906, 3388.606
275.3191, 3370.591
277.2475, 3354.097
279.1760, 3339.034
281.1045, 3325.695
283.0329, 3313.086
284.9614, 3300.638
286.8899, 3288.090
288.8183, 3275.293
290.7468, 3262.475
292.6753, 3249.157
294.6037, 3234.542
296.5322, 3217.733
298.4607, 3200.271
300.3891, 3182.260
302.3176, 3163.395
304.2461, 3146.222
306.1745, 3133.258
308.1030, 3122.571
310.0315, 3110.040
311.9599, 3092.521
313.8884, 3076.303
315.8169, 3064.560
317.7453, 3057.272
319.6738, 3050.152
321.6023, 3041.741
323.5307, 3032.732
325.4592, 3024.237
327.3877, 3015.900
329.3161, 3007.469
331.2446, 2998.727
333.1731, 2989.610
335.1015, 2979.644
337.0300, 2968.802
338.9585, 2957.531
340.8869, 2946.343
342.8154, 2935.888
344.7439, 2925.928
346.6723, 2916.390
348.6008, 2907.476
350.5292, 2900.808
352.4577, 2897.223
354.3862, 2895.166
356.3146, 2893.414
358.2431, 2891.227
360.1716, 2889.999
362.1000, 2890.361
364.0285, 2891.635
365.9570, 2891.612
367.8854, 2887.872
369.8139, 2884.228
371.7424, 2883.296
373.6708, 2885.294
375.5993, 2885.303
377.5278, 2881.763
379.4562, 2875.876
381.3847, 2869.394
383.3132, 2862.714
385.2416, 2856.043
387.1701, 2849.860
389.0986, 2844.390
391.0270, 2839.507
392.9555, 2834.366
394.8840, 2830.411
396.8124, 2829.300
398.7409, 2831.586
400.6694, 2834.648
402.5978, 2837.603
404.5263, 2840.406
406.4548, 2843.806
408.3832, 2847.944
410.3117, 2852.432
412.2402, 2857.338
414.1686, 2862.845
416.0971, 2868.036
418.0256, 2872.065
419.9540, 2875.829
421.8825, 2880.750
423.8110, 2887.257
425.7394, 2894.431
427.6679, 2903.189
429.5964, 2913.159
431.5248, 2920.632
433.4533, 2922.775
435.3818, 2924.112
437.3102, 2927.705
439.2387, 2935.425
441.1672, 2943.892
443.0956, 2953.180
445.0241, 2963.162
446.9526, 2973.491
448.8810, 2983.812
450.8095, 2994.273
452.7380, 3004.765
454.6664, 3015.008
456.5949, 3025.070
458.5234, 3035.521
460.4518, 3045.355
462.3803, 3053.972
464.3088, 3061.220
466.2372, 3067.982
468.1657, 3074.667
470.0942, 3081.347
472.0226, 3087.850
473.9511, 3093.641
475.8796, 3100.275
477.8080, 3108.730
479.7365, 3119.416
481.6650, 3129.924
483.5934, 3140.146
485.5219, 3150.179
487.4504, 3160.063
489.3788, 3169.661
491.3073, 3179.190
493.2358, 3188.603
495.1642, 3197.644
497.0927, 3205.892
499.0212, 3212.698
500.9496, 3218.794
502.8781, 3224.653
504.8066, 3230.323
506.7350, 3234.305
508.6635, 3235.375
510.5920, 3235.239
512.5204, 3235.248
514.4489, 3237.057
516.3774, 3237.176
518.3058, 3233.827
520.2343, 3228.631
522.1628, 3225.448
524.0912, 3226.212
526.0197, 3226.862
527.9482, 3226.292
529.8766, 3224.666
531.8051, 3221.730
533.7336, 3215.702
535.6620, 3209.881
537.5905, 3206.738
539.5190, 3206.648
541.4474, 3206.325
543.3759, 3204.372
545.3044, 3201.335
547.2328, 3198.497
549.1613, 3196.424
551.0898, 3193.432
553.0182, 3188.680
554.9467, 3182.712
556.8752, 3176.898
558.8036, 3173.253
560.7321, 3168.929
562.6606, 3161.990
564.5891, 3151.193
566.5175, 3143.979
568.4460, 3143.355
570.3745, 3145.256
572.3029, 3145.812
574.2314, 3143.513
576.1599, 3142.295
578.0883, 3143.015
580.0168, 3144.673
581.9453, 3145.206
583.8737, 3145.297
585.8022, 3142.889
587.7307, 3135.886
589.6591, 3125.042
591.5876, 3116.736
593.5161, 3113.487
595.4445, 3111.738
597.3729, 3110.210
599.3014, 3109.150
601.2299, 3108.499
603.1583, 3107.562
605.0868, 3107.564
607.0153, 3109.527
608.9437, 3114.329
610.8722, 3119.641
612.8007, 3127.297
614.7291, 3134.981
616.6576, 3138.077
618.5861, 3135.398
620.5145, 3130.804
622.4430, 3125.518
624.3715, 3119.374
626.2999, 3111.313
628.2284, 3099.007
630.1569, 3086.062
632.0853, 3073.229
634.0138, 3060.207
635.9423, 3047.092
637.8707, 3034.848
639.7992, 3021.422
641.7277, 3005.551
643.6561, 2986.237
645.5846, 2967.682
647.5131, 2950.310
649.4415, 2934.582
651.3700, 2921.109
653.2985, 2910.255
655.2269, 2901.515
657.1554, 2894.731
659.0839, 2889.994
661.0123, 2887.802
662.9408, 2890.090
664.8693, 2892.179
666.7977, 2892.088
668.7262, 2890.532
670.6547, 2890.530
672.5831, 2892.666
674.5116, 2895.268
676.4401, 2897.801
678.3685, 2900.268
680.2970, 2902.151
682.2255, 2903.158
684.1539, 2903.823
686.0824, 2904.458
688.0109, 2905.037
689.9393, 2905.027
691.8678, 2903.869
693.7963, 2902.509
695.7247, 2901.662
697.6532, 2902.077
699.5817, 2902.189
701.5101, 2902.059
703.4386, 2901.997
705.3671, 2902.082
707.2955, 2902.064
709.2240, 2903.306
711.1525, 2906.602
713.0809, 2911.107
715.0094, 2915.751
716.9379, 2920.835
718.8663, 2925.585
720.7948, 2929.280
722.7233, 2932.596
724.6517, 2936.904
726.5802, 2942.441
728.5087, 2948.318
730.4371, 2954.366
732.3656, 2960.430
734.2941, 2965.968
736.2225, 2970.732
738.1510, 2975.198
740.0795, 2979.619
742.0079, 2984.079
743.9364, 2988.363
745.8649, 2991.673
747.7933, 2996.457
749.7218, 3004.419
751.6503, 3016.069
753.5787, 3025.657
755.5072, 3030.368
757.4357, 3035.496
759.3641, 3043.759
761.2926, 3054.657
763.2211, 3065.214
765.1495, 3075.332
767.0780, 3084.282
769.0065, 3091.581
770.9349, 3096.759
772.8634, 3102.782
774.7919, 3110.295
776.7203, 3118.899
778.6488, 3129.082
780.5773, 3141.156
782.5057, 3152.591
784.4342, 3161.510
786.3627, 3170.291
788.2911, 3180.414
790.2196, 3191.962
792.1481, 3202.735
794.0765, 3213.760
796.0050, 3222.771
797.9335, 3226.493
799.8619, 3224.348
801.7904, 3224.682
803.7189, 3231.418
805.6473, 3240.835
807.5758, 3249.762
809.5043, 3257.776
811.4327, 3266.892
813.3612, 3278.094
815.2897, 3289.481
817.2181, 3298.702
819.1466, 3305.003
821.0751, 3311.593
823.0035, 3318.548
824.9320, 3326.553
826.8605, 3336.470
828.7889, 3349.246
830.7174, 3362.674
832.6459, 3376.550
834.5743, 3391.175
836.5028, 3406.750
838.4313, 3423.212
840.3597, 3439.833
842.2882, 3455.369
844.2167, 3470.859
846.1451, 3487.524
848.0736, 3505.734
850.0021, 3522.408
851.9305, 3536.832
853.8590, 3549.876
855.7875, 3562.135
857.7159, 3573.020
859.6444, 3585.847
861.5729, 3602.790
863.5013, 3621.167
865.4298, 3638.573
867.3583, 3654.910
869.2867, 3671.756
871.2152, 3688.391
873.1437, 3706.353
875.0721, 3727.023
877.0006, 3751.920
878.9291, 3775.988
880.8575, 3798.577
882.7860, 3820.726
884.7145, 3843.110
886.6429, 3865.611
888.5714, 3888.642
890.4999, 3912.096
892.4283, 3935.861
894.3568, 3959.793
896.2853, 3983.781
898.2137, 4007.487
900.1422, 4031.753
902.0707, 4054.719
903.9991, 4074.917
905.9276, 4092.652
907.8561, 4110.042
909.7845, 4127.575
911.7130, 4145.198
913.6415, 4163.503
915.5699, 4182.683
917.4984, 4200.131
919.4269, 4213.986
921.3553, 4227.650
923.2838, 4242.382
925.2123, 4257.613
927.1407, 4271.302
929.0692, 4283.070
930.9976, 4293.376
932.9261, 4302.725
934.8546, 4311.034
936.7830, 4317.339
938.7115, 4321.323
940.6400, 4324.675
942.5684, 4328.093
944.4969, 4331.648
946.4254, 4335.124
948.3538, 4338.457
950.2823, 4342.033
952.2108, 4345.810
954.1392, 4349.717
956.0677, 4353.817
957.9962, 4358.207
959.9246, 4361.456
961.8531, 4361.890
963.7816, 4361.438
965.7100, 4361.870
967.6385, 4363.217
969.5670, 4364.772
971.4954, 4367.749
973.4239, 4369.640
975.3524, 4368.114
977.2808, 4363.375
979.2093, 4357.471
981.1378, 4351.580
983.0662, 4344.067
984.9947, 4334.270
986.9232, 4322.493
988.8516, 4311.118
990.7801, 4301.257
992.7086, 4291.414
994.6370, 4280.562
996.5655, 4268.900
998.4940, 4258.160
1000.422, 4247.801
1002.351, 4237.201
1004.279, 4225.808
1006.208, 4213.063
1008.136, 4198.607
1010.065, 4182.337
1011.993, 4164.859
1013.922, 4147.802
1015.850, 4130.288
1017.779, 4111.255
1019.707, 4090.265
1021.636, 4071.109
1023.564, 4055.323
1025.493, 4040.809
1027.421, 4025.992
1029.349, 4010.642
1031.278, 3994.266
1033.206, 3974.468
1035.135, 3955.258
1037.063, 3938.692
1038.992, 3924.261
1040.920, 3908.719
1042.849, 3891.517
1044.777, 3873.795
1046.706, 3855.766
1048.634, 3837.610
1050.563, 3819.579
1052.491, 3802.097
1054.420, 3783.934
1056.348, 3763.234
1058.276, 3742.818
1060.205, 3725.614
1062.133, 3712.349
1064.062, 3698.790
1065.990, 3684.224
1067.919, 3669.636
1069.847, 3655.256
1071.776, 3640.937
1073.704, 3627.776
1075.633, 3616.978
1077.561, 3604.945
1079.490, 3588.766
1081.418, 3570.031
1083.347, 3553.398
1085.275, 3539.584
1087.203, 3526.196
1089.132, 3513.342
1091.060, 3500.972
1092.989, 3488.871
1094.917, 3477.146
1096.846, 3467.293
1098.774, 3459.630
1100.703, 3453.369
1102.631, 3447.813
1104.560, 3442.486
1106.488, 3437.163
1108.417, 3432.891
1110.345, 3425.803
1112.273, 3413.490
1114.202, 3397.466
1116.130, 3380.500
1118.059, 3362.832
1119.987, 3345.932
1121.916, 3332.571
1123.844, 3319.727
1125.773, 3303.993
1127.701, 3283.030
1129.630, 3266.952
1131.558, 3257.073
1133.487, 3249.756
1135.415, 3243.188
1137.344, 3237.294
1139.272, 3232.704
1141.200, 3230.024
1143.129, 3226.527
1145.057, 3220.231
1146.986, 3212.534
1148.914, 3205.421
1150.843, 3199.095
1152.771, 3192.134
1154.700, 3183.869
1156.628, 3175.430
1158.557, 3167.752
1160.485, 3161.080
1162.414, 3153.790
1164.342, 3144.772
1166.271, 3137.194
1168.199, 3133.729
1170.127, 3132.101
1172.056, 3127.322
1173.984, 3118.458
1175.913, 3111.665
1177.841, 3109.909
1179.770, 3109.431
1181.698, 3106.978
1183.627, 3102.510
1185.555, 3100.061
1187.484, 3101.526
1189.412, 3102.323
1191.341, 3100.704
1193.269, 3097.176
1195.198, 3093.122
1197.126, 3088.281
1199.054, 3083.377
1200.983, 3079.054
1202.911, 3074.585
1204.840, 3068.875
1206.768, 3062.356
1208.697, 3058.151
1210.625, 3057.492
1212.554, 3057.504
1214.482, 3057.441
1216.411, 3056.923
1218.339, 3055.237
1220.268, 3052.035
1222.196, 3048.502
1224.125, 3043.522
1226.053, 3039.607
1227.981, 3039.100
1229.910, 3042.126
1231.838, 3043.541
1233.767, 3042.536
1235.695, 3041.392
1237.624, 3040.004
1239.552, 3038.843
1241.481, 3038.293
1243.409, 3038.020
1245.338, 3039.707
1247.266, 3045.638
1249.195, 3051.115
1251.123, 3052.625
1253.052, 3051.719
1254.980, 3053.444
1256.908, 3059.759
1258.837, 3064.649
1260.765, 3064.733
1262.694, 3064.057
1264.622, 3066.769
1266.551, 3073.927
1268.479, 3077.487
1270.408, 3075.243
1272.336, 3072.701
1274.265, 3071.709
1276.193, 3071.979
1278.122, 3072.704
1280.050, 3073.909
1281.979, 3076.259
1283.907, 3079.602
1285.835, 3084.015
1287.764, 3089.967
1289.692, 3096.539
1291.621, 3101.468
1293.549, 3104.060
1295.478, 3105.574
1297.406, 3106.172
1299.335, 3106.050
1301.263, 3105.541
1303.192, 3104.938
1305.120, 3103.424
1307.049, 3100.477
1308.977, 3097.708
1310.906, 3095.690
1312.834, 3094.232
1314.762, 3092.944
1316.691, 3091.756
1318.619, 3091.009
1320.548, 3091.397
1322.476, 3091.287
1324.405, 3089.582
1326.333, 3086.663
1328.262, 3083.637
1330.190, 3080.458
1332.119, 3077.443
1334.047, 3074.753
1335.976, 3072.488
1337.904, 3070.610
1339.833, 3069.217
1341.761, 3068.757
1343.689, 3069.704
1345.618, 3070.042
1347.546, 3069.243
1349.475, 3067.390
1351.403, 3064.187
1353.332, 3059.477
1355.260, 3056.388
1357.189, 3056.673
1359.117, 3056.981
1361.046, 3056.824
1362.974, 3056.237
1364.903, 3054.853
1366.831, 3052.039
1368.760, 3049.160
1370.688, 3045.853
1372.616, 3041.934
1374.545, 3037.938
1376.473, 3033.159
1378.402, 3026.433
1380.330, 3018.020
1382.259, 3011.131
1384.187, 3007.728
1386.116, 3004.897
1388.044, 3000.379
1389.973, 2995.607
1391.901, 2993.762
1393.830, 2995.420
1395.758, 2995.747
1397.687, 2992.292
1399.615, 2988.597
1401.543, 2986.305
1403.472, 2984.896
1405.400, 2983.022
1407.329, 2981.501
1409.257, 2978.278
1411.186, 2971.087
1413.114, 2965.010
1415.043, 2963.609
1416.971, 2965.536
1418.900, 2965.927
1420.828, 2963.478
1422.757, 2962.333
1424.685, 2963.538
1426.614, 2965.172
1428.542, 2966.282
1430.470, 2967.014
1432.399, 2967.813
1434.327, 2968.801
1436.256, 2970.059
1438.184, 2971.262
1440.113, 2973.286
1442.041, 2977.099
1443.970, 2981.615
1445.898, 2984.460
1447.827, 2984.918
1449.755, 2984.754
1451.684, 2983.936
1453.612, 2982.891
1455.541, 2982.867
1457.469, 2983.193
1459.397, 2980.995
1461.326, 2975.329
1463.254, 2972.160
1465.183, 2974.738
1467.111, 2977.677
1469.040, 2977.570
1470.968, 2976.078
1472.897, 2977.501
1474.825, 2983.085
1476.754, 2988.478
1478.682, 2994.261
1480.611, 2999.098
1482.539, 3001.341
1484.468, 3002.680
1486.396, 3006.414
1488.324, 3013.209
1490.253, 3019.104
1492.181, 3022.429
1494.110, 3025.777
1496.038, 3031.022
1497.967, 3035.871
1499.895, 3036.783
1501.824, 3034.010
1503.752, 3031.768
1505.681, 3030.993
1507.609, 3031.160
1509.538, 3033.550
1511.466, 3036.693
1513.395, 3038.519
1515.323, 3039.476
1517.251, 3042.221
1519.180, 3046.516
1521.108, 3052.454
1523.037, 3061.280
1524.965, 3069.347
1526.894, 3073.864
1528.822, 3074.967
1530.751, 3074.099
1532.679, 3070.834
1534.608, 3068.602
1536.536, 3070.194
1538.465, 3072.700
1540.393, 3074.901
1542.322, 3077.771
1544.250, 3082.745
1546.178, 3089.760
1548.107, 3098.542
1550.035, 3108.067
1551.964, 3118.430
1553.892, 3129.937
1555.821, 3140.773
1557.749, 3148.849
1559.678, 3153.916
1561.606, 3157.669
1563.535, 3160.074
1565.463, 3162.484
1567.392, 3165.381
1569.320, 3168.832
1571.249, 3172.903
1573.177, 3177.343
1575.105, 3181.142
1577.034, 3183.344
1578.962, 3185.745
1580.891, 3188.739
1582.819, 3192.042
1584.748, 3196.115
1586.676, 3201.017
1588.605, 3206.491
1590.533, 3213.119
1592.462, 3220.035
1594.390, 3225.867
1596.319, 3233.302
1598.247, 3242.462
1600.176, 3252.950
1602.104, 3264.648
1604.032, 3277.082
1605.961, 3288.656
1607.889, 3299.429
1609.818, 3308.842
1611.746, 3316.834
1613.675, 3324.051
1615.603, 3331.621
1617.532, 3339.040
1619.460, 3344.215
1621.389, 3346.904
1623.317, 3352.023
1625.246, 3360.734
1627.174, 3370.632
1629.103, 3380.749
1631.031, 3391.269
1632.959, 3402.821
1634.888, 3414.844
1636.816, 3424.955
1638.745, 3432.284
1640.673, 3440.851
1642.602, 3453.422
1644.530, 3465.673
1646.459, 3474.474
1648.387, 3482.337
1650.316, 3493.169
1652.244, 3506.829
1654.173, 3519.616
1656.101, 3529.806
1658.030, 3541.378
1659.958, 3556.745
1661.886, 3572.238
1663.815, 3584.995
1665.743, 3595.969
1667.672, 3607.228
1669.600, 3619.200
1671.529, 3631.979
1673.457, 3646.126
1675.386, 3661.093
1677.314, 3676.707
1679.243, 3692.922
1681.171, 3709.316
1683.100, 3725.711
1685.028, 3742.656
1686.957, 3760.082
1688.885, 3776.307
1690.813, 3790.399
1692.742, 3803.882
1694.670, 3817.766
1696.599, 3831.553
1698.527, 3845.416
1700.456, 3859.085
1702.384, 3869.275
1704.313, 3874.702
1706.241, 3881.311
1708.170, 3891.656
1710.098, 3902.634
1712.027, 3912.964
1713.955, 3923.061
1715.884, 3933.403
1717.812, 3944.021
1719.740, 3953.975
1721.669, 3962.083
1723.597, 3971.974
1725.526, 3985.756
1727.454, 3999.197
1729.383, 4009.481
1731.311, 4017.271
1733.240, 4023.598
1735.168, 4028.702
1737.097, 4034.105
1739.025, 4040.926
1740.954, 4046.742
1742.882, 4051.530
1744.811, 4054.911
1746.739, 4054.940
1748.667, 4054.261
1750.596, 4057.140
1752.524, 4063.331
1754.453, 4069.854
1756.381, 4076.898
1758.310, 4083.056
1760.238, 4086.535
1762.167, 4090.539
1764.095, 4097.725
1766.024, 4105.557
1767.952, 4109.905
1769.880, 4110.767
1771.809, 4111.660
1773.737, 4113.103
1775.666, 4113.250
1777.594, 4111.641
1779.523, 4109.452
1781.451, 4108.011
1783.380, 4106.606
1785.308, 4103.564
1787.237, 4099.283
1789.165, 4096.809
1791.094, 4096.899
1793.022, 4096.074
1794.951, 4093.316
1796.879, 4090.013
1798.807, 4086.243
1800.736, 4082.730
1802.664, 4080.341
1804.593, 4079.031
1806.521, 4078.093
1808.450, 4077.240
1810.378, 4076.972
1812.307, 4077.490
1814.235, 4077.517
1816.164, 4076.044
1818.092, 4074.091
1820.021, 4073.598
1821.949, 4073.105
1823.878, 4068.231
1825.806, 4057.907
1827.734, 4051.232
1829.663, 4052.102
1831.591, 4051.645
1833.520, 4048.217
1835.448, 4044.288
1837.377, 4039.742
1839.305, 4035.860
1841.234, 4034.863
1843.162, 4036.289
1845.091, 4036.620
1847.019, 4035.755
1848.948, 4033.432
1850.876, 4028.628
1852.805, 4024.233
1854.733, 4022.453
1856.661, 4020.733
1858.590, 4016.504
1860.518, 4010.924
1862.447, 4006.803
1864.375, 4004.047
1866.304, 4002.665
1868.232, 4003.198
1870.161, 4002.983
1872.089, 4001.158
1874.018, 3998.598
1875.946, 3995.102
1877.875, 3991.667
1879.803, 3989.826
1881.732, 3988.919
1883.660, 3986.159
1885.589, 3981.123
1887.517, 3977.342
1889.445, 3975.842
1891.374, 3974.214
1893.302, 3972.228
1895.231, 3969.385
1897.159, 3965.081
1899.088, 3960.205
1901.016, 3955.880
1902.945, 3952.197
1904.873, 3949.156
1906.802, 3946.878
1908.730, 3944.793
1910.659, 3942.118
1912.587, 3940.376
1914.516, 3942.259
1916.444, 3942.790
1918.372, 3936.696
1920.301, 3927.787
1922.229, 3922.585
1924.158, 3921.081
1926.086, 3922.030
1928.015, 3927.475
1929.943, 3930.567
1931.872, 3929.293
1933.800, 3927.492
1935.729, 3926.475
1937.657, 3924.804
1939.586, 3921.788
1941.514, 3917.892
1943.443, 3913.416
1945.371, 3908.699
1947.299, 3905.312
1949.228, 3903.255
1951.156, 3902.792
1953.085, 3904.745
1955.013, 3906.071
1956.942, 3905.180
1958.870, 3903.967
1960.799, 3903.340
1962.727, 3903.627
1964.656, 3905.342
1966.584, 3908.237
1968.513, 3911.192
1970.441, 3913.832
1972.370, 3916.633
1974.298, 3919.850
1976.226, 3921.888
1978.155, 3922.295
1980.083, 3921.742
1982.012, 3920.617
1983.940, 3919.292
1985.869, 3917.749
1987.797, 3916.468
1989.726, 3916.836
1991.654, 3919.034
1993.583, 3920.932
1995.511, 3922.413
1997.440, 3922.795
1999.368, 3920.088
2001.297, 3918.625
2003.225, 3921.728
2005.153, 3924.889
2007.082, 3925.156
2009.010, 3923.603
2010.939, 3921.383
2012.867, 3918.995
2014.796, 3918.105
2016.724, 3918.737
2018.653, 3920.816
2020.581, 3923.915
2022.510, 3928.715
2024.438, 3937.679
2026.367, 3944.791
2028.295, 3944.826
2030.224, 3943.346
2032.152, 3946.444
2034.080, 3952.222
2036.009, 3956.310
2037.937, 3958.801
2039.866, 3959.835
2041.794, 3957.831
2043.723, 3957.735
2045.651, 3961.500
2047.580, 3964.307
2049.508, 3963.191
2051.437, 3963.313
2053.365, 3968.514
2055.294, 3975.010
2057.222, 3978.892
2059.151, 3980.936
2061.079, 3983.372
2063.008, 3986.208
2064.936, 3988.459
2066.865, 3990.067
2068.793, 3992.803
2070.721, 3997.195
2072.650, 4002.487
2074.578, 4009.496
2076.507, 4015.550
2078.435, 4017.137
2080.364, 4018.201
2082.292, 4023.696
2084.220, 4031.061
2086.149, 4034.962
2088.077, 4035.675
2090.006, 4035.941
2091.934, 4036.070
2093.863, 4036.458
2095.791, 4037.408
2097.720, 4038.355
2099.648, 4037.897
2101.577, 4038.706
2103.505, 4042.908
2105.434, 4047.346
2107.362, 4050.057
2109.291, 4052.061
2111.219, 4054.643
2113.147, 4058.078
2115.076, 4062.039
2117.004, 4066.385
2118.933, 4072.205
2120.861, 4079.183
2122.790, 4085.298
2124.718, 4088.646
2126.647, 4091.430
2128.575, 4096.528
2130.504, 4098.198
2132.432, 4092.559
2134.361, 4085.127
2136.289, 4080.168
2138.218, 4078.441
2140.146, 4082.589
2142.074, 4090.824
2144.003, 4092.167
2145.931, 4085.884
2147.860, 4086.287
2149.788, 4096.022
2151.717, 4103.947
2153.645, 4106.512
2155.574, 4109.387
2157.502, 4115.866
2159.431, 4121.703
2161.359, 4124.012
2163.288, 4125.850
2165.216, 4130.379
2167.145, 4136.045
2169.073, 4138.929
2171.001, 4139.957
2172.930, 4146.780
2174.858, 4159.244
2176.787, 4165.602
2178.715, 4163.814
2180.644, 4163.427
2182.572, 4167.114
2184.501, 4169.220
2186.429, 4167.724
2188.358, 4165.638
2190.286, 4164.031
2192.215, 4163.235
2194.143, 4163.092
2196.072, 4164.268
2198.000, 4168.378
2199.928, 4173.954
2201.857, 4176.940
2203.785, 4177.438
2205.714, 4180.000
2207.642, 4184.945
2209.571, 4189.426
2211.499, 4193.206
2213.428, 4197.639
2215.356, 4202.598
2217.285, 4209.183
2219.213, 4219.565
2221.142, 4228.502
2223.070, 4232.131
2224.999, 4234.461
2226.927, 4238.060
2228.855, 4242.509
2230.784, 4247.885
2232.712, 4253.872
2234.641, 4259.947
2236.569, 4266.053
2238.498, 4268.747
2240.426, 4267.838
2242.355, 4271.693
2244.283, 4281.743
2246.212, 4289.735
2248.140, 4293.561
2250.069, 4297.030
2251.997, 4300.501
2253.926, 4305.179
2255.854, 4313.494
2257.782, 4320.918
2259.711, 4323.268
2261.639, 4324.654
2263.568, 4329.487
2265.496, 4335.180
2267.425, 4336.950
2269.353, 4336.662
2271.282, 4340.481
2273.210, 4348.037
2275.139, 4354.652
2277.067, 4360.376
2278.996, 4365.603
2280.924, 4369.857
2282.853, 4374.588
2284.781, 4379.404
2286.709, 4384.430
2288.638, 4388.690
2290.566, 4393.910
2292.495, 4400.817
2294.423, 4408.896
2296.352, 4419.818
2298.280, 4430.390
2300.209, 4437.784
2302.137, 4443.911
2304.066, 4450.699
2305.994, 4457.802
2307.923, 4464.206
2309.851, 4469.941
2311.780, 4476.744
2313.708, 4484.602
2315.636, 4489.550
2317.565, 4490.884
2319.493, 4493.373
2321.422, 4497.733
2323.350, 4503.117
2325.279, 4510.408
2327.207, 4517.384
2329.136, 4524.148
2331.064, 4529.643
2332.993, 4529.214
2334.921, 4532.487
2336.850, 4547.191
2338.778, 4563.450
2340.707, 4573.751
2342.635, 4581.160
2344.563, 4589.045
2346.492, 4596.958
2348.420, 4603.705
2350.349, 4610.290
2352.277, 4619.172
2354.206, 4629.991
2356.134, 4639.323
2358.063, 4646.430
2359.991, 4656.157
2361.920, 4668.982
2363.848, 4680.954
2365.777, 4692.981
2367.705, 4701.266
2369.634, 4704.436
2371.562, 4708.247
2373.490, 4715.149
2375.419, 4721.646
2377.347, 4726.598
2379.276, 4730.678
2381.204, 4733.196
2383.133, 4735.747
2385.061, 4737.617
2386.990, 4741.814
2388.918, 4753.569
2390.847, 4767.273
2392.775, 4774.923
2394.704, 4780.062
2396.632, 4790.612
2398.561, 4802.958
2400.489, 4805.989
2402.417, 4801.897
2404.346, 4806.080
2406.274, 4819.187
2408.203, 4828.250
2410.131, 4832.190
2412.060, 4840.149
2413.988, 4853.067
2415.917, 4866.974
2417.845, 4881.450
2419.774, 4894.851
2421.702, 4905.939
2423.631, 4916.476
2425.559, 4925.813
2427.488, 4936.389
2429.416, 4951.604
2431.344, 4964.901
2433.273, 4971.814
2435.201, 4978.607
2437.130, 4989.294
2439.058, 4999.652
2440.987, 5008.250
2442.915, 5013.813
2444.844, 5012.852
2446.772, 5011.100
2448.701, 5016.820
2450.629, 5026.695
2452.558, 5033.818
2454.486, 5040.362
2456.415, 5051.770
2458.343, 5066.992
2460.271, 5082.043
2462.200, 5096.575
2464.128, 5112.513
2466.057, 5129.227
2467.985, 5140.392
2469.914, 5144.276
2471.842, 5152.678
2473.771, 5169.994
2475.699, 5180.599
2477.628, 5182.053
2479.556, 5188.279
2481.485, 5201.759
2483.413, 5215.693
2485.342, 5228.548
2487.270, 5240.507
2489.198, 5251.383
2491.127, 5261.259
2493.055, 5270.083
2494.984, 5279.059
2496.912, 5287.847
2498.841, 5298.817
2500.769, 5315.311
2502.698, 5330.072
2504.626, 5335.651
2506.555, 5340.986
2508.483, 5354.708
2510.412, 5367.682
2512.340, 5371.307
2514.269, 5372.106
2516.197, 5375.196
2518.125, 5381.533
2520.054, 5394.247
2521.982, 5408.890
2523.911, 5418.398
2525.839, 5424.835
2527.768, 5431.998
2529.696, 5439.708
2531.625, 5448.929
2533.553, 5459.278
2535.482, 5466.863
2537.410, 5473.019
2539.339, 5482.414
2541.267, 5494.636
2543.196, 5506.964
2545.124, 5518.625
2547.052, 5530.147
2548.981, 5540.839
2550.909, 5549.529
2552.838, 5556.282
2554.766, 5559.907
2556.695, 5560.779
2558.623, 5561.095
2560.552, 5561.769
2562.480, 5561.812
2564.409, 5560.260
2566.337, 5562.666
2568.266, 5571.896
2570.194, 5580.411
2572.123, 5586.795
2574.051, 5595.083
2575.979, 5606.188
2577.908, 5617.210
2579.836, 5626.787
2581.765, 5637.079
2583.693, 5650.039
2585.622, 5660.929
2587.550, 5665.906
2589.479, 5672.573
2591.407, 5684.473
2593.336, 5693.922
2595.264, 5696.688
2597.193, 5699.054
2599.121, 5704.667
2601.050, 5709.595
2602.978, 5712.108
2604.906, 5714.510
2606.835, 5718.743
2608.763, 5723.064
2610.692, 5726.837
2612.620, 5730.428
2614.549, 5731.878
2616.477, 5735.374
2618.406, 5744.984
2620.334, 5755.490
2622.263, 5763.997
2624.191, 5771.092
2626.120, 5776.342
2628.048, 5782.129
2629.977, 5791.521
2631.905, 5800.811
2633.833, 5803.635
2635.762, 5806.781
2637.690, 5819.866
2639.619, 5832.904
2641.547, 5833.607
2643.476, 5831.038
2645.404, 5835.740
2647.333, 5842.971
2649.261, 5847.006
2651.190, 5851.546
2653.118, 5862.214
2655.047, 5874.375
2656.975, 5879.871
2658.904, 5883.399
2660.832, 5893.110
2662.760, 5903.529
2664.689, 5907.807
2666.617, 5908.328
2668.546, 5907.540
2670.474, 5906.956
2672.403, 5909.673
2674.331, 5913.923
2676.260, 5916.647
2678.188, 5918.806
2680.117, 5920.890
2682.045, 5923.885
2683.974, 5929.515
2685.902, 5936.701
2687.831, 5943.847
2689.759, 5950.667
2691.688, 5957.794
2693.616, 5963.637
2695.544, 5964.631
2697.473, 5964.034
2699.401, 5968.524
2701.330, 5975.571
2703.258, 5979.677
2705.187, 5983.021
2707.115, 5990.660
2709.044, 5999.073
2710.972, 6000.415
2712.901, 5999.618
2714.829, 6004.894
2716.758, 6014.818
2718.686, 6029.449
2720.615, 6045.347
2722.543, 6055.968
2724.471, 6063.932
2726.400, 6071.539
2728.328, 6079.937
2730.257, 6092.533
2732.185, 6105.501
2734.114, 6112.195
2736.042, 6116.299
2737.971, 6125.349
2739.899, 6134.385
2741.828, 6135.482
2743.756, 6134.130
2745.685, 6136.599
2747.613, 6141.635
2749.542, 6148.556
2751.470, 6155.317
2753.398, 6160.170
2755.327, 6163.192
2757.255, 6164.553
2759.184, 6165.075
2761.112, 6164.358
2763.041, 6165.513
2764.969, 6171.627
2766.898, 6181.666
2768.826, 6198.167
2770.755, 6213.297
2772.683, 6215.834
2774.612, 6218.388
2776.540, 6232.401
2778.469, 6248.155
2780.397, 6261.054
2782.325, 6269.110
2784.254, 6267.397
2786.182, 6265.544
2788.111, 6271.867
2790.039, 6278.143
2791.968, 6279.680
2793.896, 6281.720
2795.825, 6288.022
2797.753, 6294.218
2799.682, 6296.898
2801.610, 6300.874
2803.539, 6306.372
2805.467, 6315.067
2807.396, 6328.006
2809.324, 6340.707
2811.252, 6352.987
2813.181, 6360.664
2815.109, 6358.787
2817.038, 6359.319
2818.966, 6367.195
2820.895, 6372.359
2822.823, 6372.597
2824.752, 6374.586
2826.680, 6380.773
2828.609, 6387.161
2830.537, 6391.482
2832.466, 6400.330
2834.394, 6414.978
2836.323, 6423.696
2838.251, 6423.495
2840.179, 6429.787
2842.108, 6446.623
2844.036, 6458.836
2845.965, 6466.296
2847.893, 6473.962
2849.822, 6481.982
2851.750, 6492.436
2853.679, 6504.547
2855.607, 6507.306
2857.536, 6501.925
2859.464, 6504.013
2861.393, 6512.494
2863.321, 6523.452
2865.250, 6535.934
2867.178, 6544.956
2869.106, 6552.719
2871.035, 6564.802
2872.963, 6578.166
2874.892, 6585.901
2876.820, 6591.061
2878.749, 6597.623
2880.677, 6605.132
2882.606, 6614.823
2884.534, 6624.200
2886.463, 6629.534
2888.391, 6635.292
2890.320, 6645.486
2892.248, 6656.229
2894.177, 6665.482
2896.105, 6673.278
2898.033, 6679.033
2899.962, 6684.530
2901.890, 6690.032
2903.819, 6696.579
2905.747, 6705.424
2907.676, 6713.351
2909.604, 6718.741
2911.533, 6724.839
2913.461, 6732.674
2915.390, 6739.940
2917.318, 6747.258
2919.247, 6751.428
2921.175, 6750.698
2923.104, 6756.179
2925.032, 6768.354
2926.960, 6775.102
2928.889, 6775.208
2930.817, 6780.259
2932.746, 6789.761
2934.674, 6792.840
2936.603, 6791.726
2938.531, 6795.479
2940.460, 6803.076
2942.388, 6812.593
2944.317, 6822.317
2946.245, 6827.179
2948.174, 6831.216
2950.102, 6840.463
2952.031, 6851.714
2953.959, 6862.144
2955.887, 6872.224
2957.816, 6882.956
2959.744, 6891.861
2961.673, 6896.521
2963.601, 6900.675
2965.530, 6907.091
2967.458, 6912.058
2969.387, 6914.729
2971.315, 6916.349
2973.244, 6917.148
2975.172, 6918.734
2977.101, 6920.522
2979.029, 6926.650
2980.958, 6937.750
2982.886, 6949.204
2984.814, 6960.266
2986.743, 6966.026
2988.671, 6966.327
2990.600, 6968.645
2992.528, 6972.681
2994.457, 6975.760
2996.385, 6979.103
2998.314, 6986.072
3000.242, 6994.437
3002.171, 6999.484
3004.099, 7004.299
3006.028, 7012.306
3007.956, 7021.876
3009.885, 7032.476
3011.813, 7042.282
3013.741, 7047.664
3015.670, 7055.336
3017.598, 7068.387
3019.527, 7081.458
3021.455, 7093.959
3023.384, 7102.463
3025.312, 7103.944
3027.241, 7106.100
3029.169, 7109.667
3031.098, 7112.096
3033.026, 7113.747
3034.955, 7118.808
3036.883, 7127.351
3038.812, 7133.997
3040.740, 7140.014
3042.668, 7151.183
3044.597, 7163.708
3046.525, 7169.133
3048.454, 7172.460
3050.382, 7180.616
3052.311, 7190.077
3054.239, 7197.012
3056.168, 7205.737
3058.096, 7220.844
3060.025, 7235.518
3061.953, 7249.173
3063.882, 7257.072
3065.810, 7254.552
3067.739, 7257.323
3069.667, 7272.464
3071.595, 7279.916
3073.524, 7279.236
3075.452, 7284.547
3077.381, 7295.886
3079.309, 7303.080
3081.238, 7306.862
3083.166, 7310.595
3085.095, 7314.594
3087.023, 7320.889
3088.952, 7327.149
3090.880, 7332.545
3092.809, 7335.514
3094.737, 7334.415
3096.666, 7333.193
3098.594, 7331.864
3100.522, 7334.610
3102.451, 7344.403
3104.379, 7353.719
3106.308, 7360.801
3108.236, 7368.537
3110.165, 7377.190
3112.093, 7384.236
3114.022, 7389.817
3115.950, 7392.939
3117.879, 7394.858
3119.807, 7398.595
3121.736, 7404.313
3123.664, 7412.398
3125.593, 7422.118
3127.521, 7431.762
3129.449, 7442.788
3131.378, 7457.124
3133.306, 7470.453
3135.235, 7479.674
3137.163, 7488.657
3139.092, 7497.671
3141.020, 7507.415
3142.949, 7519.656
3144.877, 7525.915
3146.806, 7526.575
3148.734, 7533.295
3150.663, 7543.821
3152.591, 7544.869
3154.520, 7541.092
3156.448, 7539.953
3158.376, 7542.846
3160.305, 7553.188
3162.233, 7565.034
3164.162, 7572.675
3166.090, 7580.978
3168.019, 7589.810
3169.947, 7601.060
3171.876, 7616.112
3173.804, 7629.098
3175.733, 7639.664
3177.661, 7646.878
3179.590, 7651.093
3181.518, 7650.877
3183.447, 7648.631
3185.375, 7648.897
3187.303, 7652.789
3189.232, 7661.799
3191.160, 7673.755
3193.089, 7688.076
3195.017, 7701.556
3196.946, 7713.757
3198.874, 7722.414
3200.803, 7724.839
3202.731, 7730.263
3204.660, 7740.129
3206.588, 7748.765
3208.517, 7755.874
3210.445, 7762.183
3212.374, 7768.580
3214.302, 7782.525
3216.230, 7795.943
3218.159, 7795.076
3220.087, 7790.814
3222.016, 7789.641
3223.944, 7793.003
3225.873, 7803.812
3227.801, 7812.305
3229.730, 7814.689
3231.658, 7819.084
3233.587, 7826.766
3235.515, 7833.358
3237.444, 7840.125
3239.372, 7853.002
3241.301, 7870.314
3243.229, 7888.468
3245.157, 7906.405
3247.086, 7921.932
3249.014, 7936.607
3250.943, 7953.775
3252.871, 7964.714
3254.800, 7966.563
3256.728, 7968.399
3258.657, 7975.176
3260.585, 7974.754
3262.514, 7968.567
3264.442, 7970.806
3266.371, 7979.764
3268.299, 7988.705
3270.228, 7999.138
3272.156, 8015.052
3274.084, 8029.490
3276.013, 8037.665
3277.941, 8043.785
3279.870, 8050.523
3281.798, 8055.312
3283.727, 8058.328
3285.655, 8064.391
3287.584, 8073.954
3289.512, 8077.706
3291.441, 8079.784
3293.369, 8095.687
3295.298, 8113.458
3297.226, 8118.470
3299.155, 8118.054
3301.083, 8113.708
3303.011, 8112.415
3304.940, 8118.912
3306.868, 8125.284
3308.797, 8131.409
3310.725, 8137.072
3312.654, 8143.158
3314.582, 8155.783
3316.511, 8169.419
3318.439, 8167.849
3320.368, 8163.818
3322.296, 8167.528
3324.225, 8175.545
3326.153, 8188.888
3328.082, 8200.153
3330.010, 8207.729
3331.938, 8216.916
3333.867, 8228.425
3335.795, 8231.103
3337.724, 8229.945
3339.652, 8243.212
3341.581, 8259.241
3343.509, 8262.842
3345.438, 8262.269
3347.366, 8263.634
3349.295, 8261.908
3351.223, 8253.824
3353.152, 8253.556
3355.080, 8262.507
3357.009, 8265.685
3358.937, 8265.317
3360.865, 8274.952
3362.794, 8288.313
3364.722, 8294.782
3366.651, 8302.112
3368.579, 8317.720
3370.508, 8331.215
3372.436, 8339.115
3374.365, 8347.030
3376.293, 8356.828
3378.222, 8355.808
3380.150, 8349.248
3382.079, 8362.446
3384.007, 8380.494
3385.936, 8379.134
3387.864, 8374.176
3389.792, 8371.419
3391.721, 8376.725
3393.649, 8396.975
3395.578, 8414.427
3397.506, 8428.367
3399.435, 8436.482
3401.363, 8441.424
3403.292, 8451.273
3405.220, 8463.990
3407.148, 8478.947
3409.077, 8490.757
3411.005, 8493.097
3412.934, 8495.954
3414.862, 8501.491
3416.791, 8501.601
3418.719, 8496.304
3420.648, 8498.556
3422.576, 8505.853
3424.505, 8512.364
3426.433, 8518.612
3428.362, 8524.518
3430.290, 8530.219
3432.219, 8532.306
3434.147, 8543.003
3436.075, 8565.446
3438.004, 8581.260
3439.932, 8589.536
3441.861, 8588.196
3443.789, 8583.499
3445.718, 8585.902
3447.646, 8589.863
3449.575, 8590.949
3451.503, 8598.311
3453.432, 8615.679
3455.360, 8630.131
3457.289, 8640.398
3459.217, 8647.935
3461.146, 8655.149
3463.074, 8673.270
3465.002, 8688.172
3466.931, 8684.792
3468.859, 8682.531
3470.788, 8687.285
3472.716, 8693.668
3474.645, 8700.530
3476.573, 8703.063
3478.502, 8703.396
3480.430, 8712.515
3482.359, 8722.065
3484.287, 8723.106
3486.216, 8724.458
3488.144, 8729.629
3490.073, 8736.504
3492.001, 8743.798
3493.929, 8752.373
3495.858, 8760.407
3497.786, 8766.690
3499.715, 8768.262
3501.643, 8756.976
3503.572, 8749.738
3505.500, 8758.703
3507.429, 8763.051
3509.357, 8759.521
3511.286, 8763.184
3513.214, 8772.663
3515.143, 8783.761
3517.071, 8793.469
3519.000, 8796.116
3520.928, 8800.048
3522.856, 8812.354
3524.785, 8820.990
3526.713, 8825.302
3528.642, 8827.599
3530.570, 8829.476
3532.499, 8837.096
3534.427, 8844.963
3536.356, 8844.419
3538.284, 8846.807
3540.213, 8859.397
3542.141, 8867.163
3544.070, 8868.922
3545.998, 8865.569
3547.927, 8860.186
3549.855, 8859.718
3551.783, 8862.011
3553.712, 8864.896
3555.640, 8868.896
3557.569, 8873.777
3559.497, 8875.017
3561.426, 8872.097
3563.354, 8874.768
3565.283, 8878.394
3567.211, 8873.548
3569.140, 8867.348
3571.068, 8865.228
3572.997, 8863.457
3574.925, 8861.152
3576.854, 8862.137
3578.782, 8866.178
3580.710, 8870.732
3582.639, 8874.202
3584.567, 8870.978
3586.496, 8871.150
3588.424, 8880.605
3590.353, 8884.755
3592.281, 8879.964
3594.210, 8882.272
3596.138, 8887.895
3598.067, 8886.345
3599.995, 8884.040
3601.924, 8886.078
3603.852, 8889.726
3605.781, 8895.167
3607.709, 8900.182
3609.637, 8904.473
3611.566, 8904.413
3613.494, 8903.144
3615.423, 8904.063
3617.351, 8907.079
3619.280, 8912.276
3621.208, 8918.616
3623.137, 8925.960
3625.065, 8927.563
3626.994, 8926.309
3628.922, 8928.420
3630.851, 8932.064
3632.779, 8934.546
3634.708, 8941.447
3636.636, 8956.637
3638.564, 8957.880
3640.493, 8948.645
3642.421, 8950.187
3644.350, 8951.446
3646.278, 8937.101
3648.207, 8926.048
3650.135, 8928.780
3652.064, 8930.170
3653.992, 8930.056
3655.921, 8931.858
3657.849, 8932.757
3659.778, 8926.955
3661.706, 8920.941
3663.635, 8917.031
3665.563, 8916.310
3667.491, 8918.568
3669.420, 8928.509
3671.348, 8939.559
3673.277, 8935.962
3675.205, 8932.462
3677.134, 8941.271
3679.062, 8947.326
3680.991, 8949.663
3682.919, 8940.272
3684.848, 8927.299
3686.776, 8931.260
3688.705, 8941.927
3690.633, 8955.359
3692.562, 8962.749
3694.490, 8961.833
3696.418, 8960.460
3698.347, 8958.408
3700.275, 8952.235
3702.204, 8949.146
3704.132, 8959.064
3706.061, 8963.657
3707.989, 8958.889
3709.918, 8949.419
3711.846, 8938.239
3713.775, 8934.559
3715.703, 8933.215
3717.632, 8928.249
3719.560, 8928.896
3721.489, 8939.831
3723.417, 8942.515
3725.345, 8939.001
3727.274, 8935.272
3729.202, 8936.519
3731.131, 8950.058
3733.059, 8958.501
3734.988, 8954.770
3736.916, 8957.679
3738.845, 8964.476
3740.773, 8967.776
3742.702, 8967.192
3744.630, 8961.419
3746.559, 8959.374
3748.487, 8964.753
3750.416, 8966.207
3752.344, 8966.629
3754.272, 8974.671
3756.201, 8983.610
3758.129, 8989.310
3760.058, 8991.833
3761.986, 8991.582
3763.915, 8988.634
3765.843, 8984.169
3767.772, 8980.294
3769.700, 8974.831
3771.629, 8964.813
3773.557, 8959.979
3775.486, 8961.675
3777.414, 8964.604
3779.343, 8966.342
3781.271, 8960.870
3783.199, 8957.453
3785.128, 8960.146
3787.056, 8965.033
3788.985, 8971.267
3790.913, 8975.850
3792.842, 8979.896
3794.770, 8984.489
3796.699, 8988.390
3798.627, 8991.212
3800.556, 8991.152
3802.484, 8988.437
3804.413, 8981.979
3806.341, 8975.224
3808.270, 8971.016
3810.198, 8968.490
3812.126, 8967.459
3814.055, 8965.157
3815.983, 8965.126
3817.912, 8980.241
3819.840, 8994.487
3821.769, 8999.435
3823.697, 8997.806
3825.626, 8991.011
3827.554, 8998.176
3829.483, 9008.562
3831.411, 9008.175
3833.340, 9004.681
3835.268, 9000.113
3837.197, 8997.543
3839.125, 8996.128
3841.053, 8988.620
3842.982, 8982.984
3844.910, 8985.963
3846.839, 8991.184
3848.767, 8996.972
3850.696, 9002.548
3852.624, 9006.905
3854.553, 9008.919
3856.481, 9010.281
3858.410, 9012.433
3860.338, 9017.568
3862.267, 9024.171
3864.195, 9019.911
3866.124, 9013.817
3868.052, 9013.382
3869.980, 9008.744
3871.909, 8994.746
3873.837, 8992.971
3875.766, 8997.698
3877.694, 9001.738
3879.623, 9003.668
3881.551, 9003.100
3883.480, 9010.560
3885.408, 9023.318
3887.337, 9016.388
3889.265, 9006.089
3891.194, 9005.563
3893.122, 9005.561
3895.051, 9004.177
3896.979, 8999.972
3898.907, 8994.326
3900.836, 8988.265
3902.764, 8986.137
3904.693, 8989.976
3906.621, 8997.741
3908.550, 9006.312
3910.478, 9005.113
3912.407, 9000.987
3914.335, 8997.749
3916.264, 8995.846
3918.192, 8995.292
3920.121, 8993.554
3922.049, 8990.000
3923.978, 8981.441
3925.906, 8975.967
3927.834, 8975.762
3929.763, 8980.120
3931.691, 8986.174
3933.620, 8989.776
3935.548, 8989.824
3937.477, 8985.106
3939.405, 8982.921
3941.334, 8983.371
3943.262, 8987.407
3945.191, 8990.338
3947.119, 8988.365
3949.048, 8985.816
3950.976, 8984.032
3952.905, 8988.665
3954.833, 8995.256
3956.761, 8998.999
3958.690, 9001.166
3960.618, 9001.717
3962.547, 9002.458
3964.475, 9002.114
3966.404, 8994.771
3968.332, 8994.583
3970.261, 9013.640
3972.189, 9014.645
3974.118, 9004.293
3976.046, 9000.179
3977.975, 8997.068
3979.903, 8991.574
3981.832, 8990.238
3983.760, 8992.719
3985.688, 8998.551
3987.617, 9000.032
3989.545, 8990.283
3991.474, 8976.830
3993.402, 8962.959
3995.331, 8979.560
3997.259, 8998.339
3999.188, 8988.236
4001.116, 8981.697
4003.045, 8982.922
4004.973, 8980.237
4006.902, 8974.585
4008.830, 8963.278
4010.759, 8962.002
4012.687, 8975.229
4014.615, 8971.710
4016.544, 8961.423
4018.472, 8962.140
4020.401, 8961.348
4022.329, 8953.558
4024.258, 8957.462
4026.186, 8967.950
4028.115, 8976.073
4030.043, 8981.938
4031.972, 8985.613
4033.900, 8983.484
4035.829, 8977.216
4037.757, 8971.074
4039.686, 8962.193
4041.614, 8946.559
4043.542, 8947.292
4045.471, 8957.753
4047.399, 8956.949
4049.328, 8953.047
4051.256, 8950.982
4053.185, 8945.002
4055.113, 8938.012
4057.042, 8938.682
4058.970, 8939.517
4060.899, 8935.388
4062.827, 8937.694
4064.756, 8942.455
4066.684, 8931.475
4068.613, 8918.098
4070.541, 8908.558
4072.469, 8909.738
4074.398, 8917.111
4076.326, 8910.858
4078.255, 8898.118
4080.183, 8876.136
4082.112, 8870.480
4084.040, 8878.300
4085.969, 8888.437
4087.897, 8893.331
4089.826, 8885.967
4091.754, 8885.017
4093.683, 8888.476
4095.611, 8886.444
4097.540, 8885.566
4099.468, 8892.056
4101.396, 8881.078
4103.325, 8859.835
4105.253, 8855.081
4107.182, 8850.402
4109.110, 8834.966
4111.039, 8831.722
4112.967, 8836.728
4114.896, 8841.588
4116.824, 8840.923
4118.752, 8830.105
4120.681, 8823.359
4122.609, 8820.428
4124.538, 8823.498
4126.466, 8817.579
4128.395, 8795.726
4130.323, 8798.960
4132.252, 8812.545
4134.180, 8807.734
4136.109, 8802.545
4138.037, 8801.966
4139.966, 8798.529
4141.894, 8795.766
4143.823, 8799.411
4145.751, 8802.374
4147.680, 8802.556
4149.608, 8801.594
4151.537, 8800.411
4153.465, 8801.051
4155.394, 8798.915
4157.322, 8793.206
4159.250, 8780.540
4161.179, 8766.932
4163.107, 8758.184
4165.036, 8749.421
4166.964, 8741.618
4168.893, 8741.864
4170.821, 8741.590
4172.750, 8733.566
4174.678, 8731.406
4176.606, 8733.521
4178.535, 8732.560
4180.463, 8732.425
4182.392, 8734.403
4184.320, 8732.083
4186.249, 8727.790
4188.177, 8728.829
4190.106, 8726.103
4192.034, 8717.986
4193.963, 8710.609
4195.891, 8702.813
4197.820, 8692.224
4199.748, 8683.643
4201.677, 8678.021
4203.605, 8673.743
4205.534, 8671.174
4207.462, 8670.893
4209.391, 8665.825
4211.319, 8657.494
4213.248, 8660.177
4215.176, 8663.153
4217.104, 8662.046
4219.033, 8655.793
4220.961, 8648.130
4222.890, 8651.939
4224.818, 8643.860
4226.747, 8613.538
4228.675, 8613.055
4230.604, 8622.071
4232.532, 8612.716
4234.460, 8612.675
4236.389, 8624.089
4238.317, 8633.369
4240.246, 8636.677
4242.174, 8626.366
4244.103, 8610.674
##END=



