##NAMES=Montmorillonite
##RRUFFID=R110052
##IDEAL CHEMISTRY=(Na,Ca)_0.3_(Al,Mg)_2_Si_4_O_10_(OH)_2_·nH_2_O
##LOCALITY=Santa Rita, New Mexico, USA
##OWNER=RRUFF
##SOURCE=Ward's Natural Science Establishment, Inc.
##DESCRIPTION=Unconsolidated grains
##STATUS=The identification of this mineral has been confirmed only by X-ray diffraction
##URL=https://www.rruff.net/odr/rruff_sample/R110052
##DIFFRACTION SAMPLE DESCRIPTION=Powder
##FILETYPE=Raman Processed
##RAMAN WAVELENGTH=780

133.3157, 2852.573
135.2441, 2856.487
137.1726, 2861.137
139.1011, 2864.606
141.0295, 2867.054
142.9580, 2870.153
144.8865, 2874.573
146.8149, 2877.245
148.7434, 2877.114
150.6719, 2874.890
152.6003, 2869.028
154.5288, 2861.054
156.4573, 2857.338
158.3857, 2858.389
160.3142, 2860.106
162.2427, 2860.188
164.1711, 2862.151
166.0996, 2869.372
168.0281, 2879.471
169.9565, 2887.103
171.8850, 2892.337
173.8135, 2895.687
175.7419, 2895.855
177.6704, 2895.651
179.5989, 2893.218
181.5273, 2892.298
183.4558, 2899.004
185.3843, 2912.594
187.3127, 2927.738
189.2412, 2944.882
191.1697, 2961.787
193.0981, 2979.746
195.0266, 2995.931
196.9551, 3010.048
198.8835, 3020.352
200.8120, 3018.763
202.7405, 3002.222
204.6689, 2978.421
206.5974, 2942.823
208.5259, 2906.978
210.4543, 2875.623
212.3828, 2849.446
214.3113, 2830.241
216.2397, 2819.302
218.1682, 2809.282
220.0967, 2798.484
222.0251, 2789.649
223.9536, 2784.897
225.8821, 2781.755
227.8105, 2777.811
229.7390, 2773.149
231.6675, 2768.733
233.5959, 2764.652
235.5244, 2760.714
237.4529, 2757.467
239.3813, 2753.706
241.3098, 2748.535
243.2383, 2742.331
245.1667, 2735.532
247.0952, 2726.987
249.0237, 2721.563
250.9521, 2721.945
252.8806, 2721.319
254.8091, 2716.028
256.7375, 2710.049
258.6660, 2707.374
260.5945, 2707.606
262.5229, 2705.524
264.4514, 2699.925
266.3799, 2694.815
268.3083, 2689.675
270.2368, 2686.395
272.1653, 2687.181
274.0938, 2689.764
276.0222, 2690.518
277.9507, 2693.342
279.8792, 2691.349
281.8076, 2698.850
283.7361, 2704.742
285.6646, 2707.658
287.5930, 2707.397
289.5215, 2703.382
291.4500, 2696.201
293.3784, 2687.111
295.3069, 2675.896
297.2354, 2663.217
299.1638, 2647.585
301.0923, 2634.258
303.0208, 2626.364
304.9492, 2620.579
306.8777, 2615.204
308.8062, 2610.244
310.7346, 2605.405
312.6631, 2600.557
314.5916, 2597.197
316.5200, 2596.192
318.4485, 2594.989
320.3770, 2591.717
322.3054, 2588.676
324.2339, 2589.114
326.1624, 2591.265
328.0908, 2588.698
330.0193, 2581.375
331.9477, 2575.331
333.8762, 2572.658
335.8047, 2569.712
337.7331, 2565.149
339.6616, 2560.213
341.5901, 2555.896
343.5185, 2551.972
345.4470, 2547.626
347.3755, 2542.763
349.3039, 2538.916
351.2324, 2536.755
353.1609, 2534.816
355.0893, 2533.073
357.0178, 2531.176
358.9463, 2528.906
360.8747, 2526.375
362.8032, 2523.781
364.7317, 2521.159
366.6601, 2518.415
368.5886, 2515.071
370.5171, 2512.465
372.4455, 2512.075
374.3740, 2510.878
376.3025, 2506.018
378.2309, 2499.718
380.1594, 2494.956
382.0879, 2491.644
384.0163, 2488.866
385.9448, 2486.577
387.8733, 2484.979
389.8017, 2484.712
391.7302, 2484.474
393.6587, 2483.457
395.5871, 2482.553
397.5156, 2482.479
399.4441, 2483.126
401.3725, 2484.259
403.3010, 2486.183
405.2295, 2487.405
407.1579, 2487.635
409.0864, 2487.458
411.0149, 2486.732
412.9433, 2485.842
414.8718, 2484.680
416.8003, 2483.741
418.7287, 2484.271
420.6572, 2486.476
422.5857, 2487.063
424.5141, 2486.002
426.4426, 2483.741
428.3711, 2479.827
430.2995, 2475.781
432.2280, 2473.938
434.1565, 2470.757
436.0849, 2462.149
438.0134, 2450.071
439.9419, 2440.589
441.8703, 2434.266
443.7988, 2427.087
445.7273, 2418.678
447.6557, 2410.458
449.5842, 2402.296
451.5127, 2395.005
453.4411, 2389.235
455.3696, 2384.083
457.2981, 2379.870
459.2265, 2375.515
461.1550, 2365.346
463.0835, 2349.012
465.0119, 2336.906
466.9404, 2331.286
468.8689, 2324.594
470.7973, 2313.814
472.7258, 2302.591
474.6543, 2291.855
476.5827, 2282.147
478.5112, 2274.437
480.4397, 2268.255
482.3681, 2262.040
484.2966, 2255.792
486.2251, 2248.632
488.1535, 2239.440
490.0820, 2232.916
492.0105, 2233.449
493.9389, 2232.661
495.8674, 2226.328
497.7959, 2218.499
499.7243, 2212.598
501.6528, 2208.141
503.5813, 2204.343
505.5097, 2201.155
507.4382, 2197.524
509.3667, 2193.379
511.2951, 2189.270
513.2236, 2185.420
515.1521, 2181.460
517.0806, 2176.828
519.0090, 2172.363
520.9375, 2168.873
522.8660, 2165.545
524.7944, 2161.488
526.7229, 2156.700
528.6514, 2150.950
530.5798, 2144.187
532.5083, 2137.878
534.4368, 2132.399
536.3652, 2127.445
538.2937, 2122.791
540.2222, 2119.081
542.1506, 2117.805
544.0791, 2116.327
546.0076, 2111.815
547.9360, 2105.733
549.8645, 2099.948
551.7930, 2094.488
553.7214, 2090.250
555.6499, 2087.726
557.5784, 2085.014
559.5068, 2081.936
561.4353, 2079.011
563.3638, 2076.542
565.2922, 2073.964
567.2207, 2070.948
569.1492, 2067.731
571.0776, 2065.110
573.0061, 2062.046
574.9345, 2056.114
576.8630, 2047.638
578.7914, 2040.730
580.7199, 2035.646
582.6484, 2031.613
584.5768, 2028.952
586.5053, 2026.726
588.4338, 2025.351
590.3622, 2023.332
592.2907, 2019.870
594.2192, 2015.620
596.1476, 2009.617
598.0761, 2004.085
600.0046, 2003.272
601.9330, 2005.545
603.8615, 2004.266
605.7900, 1999.191
607.7184, 1994.018
609.6469, 1988.568
611.5754, 1984.586
613.5038, 1983.257
615.4323, 1980.614
617.3608, 1974.105
619.2892, 1967.742
621.2177, 1963.080
623.1462, 1959.451
625.0746, 1957.183
627.0031, 1955.092
628.9316, 1950.558
630.8600, 1944.485
632.7885, 1941.453
634.7170, 1941.060
636.6454, 1936.971
638.5739, 1928.002
640.5024, 1921.577
642.4308, 1920.672
644.3593, 1918.545
646.2878, 1912.209
648.2162, 1905.957
650.1447, 1901.335
652.0732, 1897.364
654.0016, 1893.751
655.9301, 1890.003
657.8586, 1884.920
659.7870, 1879.359
661.7155, 1875.270
663.6440, 1872.549
665.5724, 1870.687
667.5009, 1869.725
669.4294, 1868.839
671.3578, 1868.149
673.2863, 1866.992
675.2148, 1864.500
677.1432, 1862.741
679.0717, 1862.090
681.0002, 1862.338
682.9286, 1863.214
684.8571, 1865.083
686.7856, 1867.978
688.7141, 1872.314
690.6425, 1877.701
692.5710, 1885.135
694.4995, 1897.285
696.4279, 1913.973
698.3564, 1932.561
700.2849, 1953.612
702.2133, 1974.155
704.1418, 1999.831
706.0703, 2014.452
707.9987, 2017.974
709.9272, 2010.292
711.8557, 1987.561
713.7841, 1959.735
715.7126, 1927.821
717.6411, 1895.922
719.5695, 1864.271
721.4980, 1836.386
723.4265, 1816.061
725.3549, 1800.969
727.2834, 1788.234
729.2119, 1777.604
731.1403, 1768.205
733.0688, 1760.039
734.9973, 1753.562
736.9257, 1749.115
738.8542, 1743.891
740.7827, 1737.677
742.7111, 1731.397
744.6396, 1724.811
746.5681, 1719.377
748.4965, 1716.049
750.4250, 1712.358
752.3535, 1707.210
754.2819, 1701.860
756.2104, 1696.477
758.1389, 1691.804
760.0673, 1688.729
761.9958, 1686.385
763.9243, 1684.043
765.8527, 1681.698
767.7812, 1678.861
769.7097, 1676.013
771.6381, 1674.734
773.5666, 1674.725
775.4951, 1675.082
777.4235, 1675.601
779.3520, 1674.628
781.2805, 1671.994
783.2089, 1669.818
785.1374, 1668.724
787.0659, 1666.273
788.9943, 1661.337
790.9228, 1657.057
792.8513, 1654.877
794.7797, 1652.385
796.7082, 1649.013
798.6367, 1645.248
800.5651, 1641.163
802.4936, 1636.919
804.4221, 1632.533
806.3505, 1628.155
808.2790, 1623.834
810.2075, 1619.701
812.1359, 1615.864
814.0644, 1612.359
815.9929, 1609.313
817.9213, 1606.565
819.8498, 1603.784
821.7783, 1600.936
823.7067, 1597.750
825.6352, 1594.266
827.5637, 1592.310
829.4921, 1592.213
831.4206, 1590.919
833.3491, 1587.600
835.2775, 1585.490
837.2060, 1582.616
839.1345, 1578.570
841.0629, 1577.221
842.9914, 1570.922
844.9199, 1569.439
846.8483, 1567.326
848.7768, 1562.711
850.7053, 1558.176
852.6337, 1554.445
854.5622, 1551.131
856.4907, 1548.301
858.4191, 1545.276
860.3476, 1541.302
862.2761, 1537.336
864.2045, 1534.621
866.1330, 1531.699
868.0615, 1526.925
869.9899, 1521.557
871.9184, 1517.113
873.8469, 1513.229
875.7753, 1508.995
877.7038, 1504.972
879.6323, 1502.485
881.5607, 1501.277
883.4892, 1500.816
885.4177, 1500.824
887.3461, 1499.644
889.2746, 1497.311
891.2031, 1495.104
893.1315, 1492.970
895.0600, 1490.703
896.9885, 1488.279
898.9169, 1484.418
900.8454, 1482.334
902.7739, 1480.654
904.7023, 1477.385
906.6308, 1477.409
908.5593, 1475.798
910.4877, 1472.440
912.4162, 1466.567
914.3447, 1462.720
916.2731, 1462.839
918.2016, 1462.408
920.1301, 1460.343
922.0585, 1457.910
923.9870, 1455.197
925.9155, 1452.227
927.8439, 1448.193
929.7724, 1444.772
931.7009, 1442.440
933.6293, 1440.532
935.5578, 1439.714
937.4863, 1437.883
939.4147, 1433.517
941.3432, 1428.850
943.2717, 1425.090
945.2001, 1421.730
947.1286, 1418.788
949.0571, 1415.897
950.9855, 1412.831
952.9140, 1409.719
954.8425, 1406.094
956.7709, 1403.008
958.6994, 1402.240
960.6279, 1401.422
962.5563, 1397.536
964.4848, 1392.944
966.4133, 1390.178
968.3417, 1387.995
970.2702, 1384.832
972.1987, 1381.632
974.1271, 1380.039
976.0556, 1378.928
977.9841, 1376.676
979.9125, 1373.851
981.8410, 1370.751
983.7695, 1368.150
985.6979, 1368.336
987.6264, 1369.495
989.5549, 1367.700
991.4833, 1364.018
993.4118, 1360.597
995.3403, 1357.458
997.2687, 1354.739
999.1972, 1352.407
1001.126, 1350.463
1003.054, 1348.819
1004.983, 1347.557
1006.911, 1346.250
1008.840, 1342.935
1010.768, 1338.413
1012.696, 1335.266
1014.625, 1333.276
1016.553, 1332.148
1018.482, 1331.429
1020.410, 1329.126
1022.339, 1325.917
1024.267, 1325.237
1026.196, 1326.049
1028.124, 1324.252
1030.053, 1320.472
1031.981, 1316.200
1033.910, 1312.005
1035.838, 1310.370
1037.767, 1310.395
1039.695, 1308.619
1041.624, 1305.541
1043.552, 1303.140
1045.480, 1300.994
1047.409, 1297.457
1049.337, 1293.258
1051.266, 1290.786
1053.194, 1289.600
1055.123, 1288.889
1057.051, 1288.119
1058.980, 1285.228
1060.908, 1281.297
1062.837, 1279.167
1064.765, 1278.177
1066.694, 1276.788
1068.622, 1275.070
1070.550, 1272.891
1072.479, 1270.754
1074.407, 1270.003
1076.336, 1269.952
1078.264, 1269.378
1080.193, 1268.355
1082.121, 1266.976
1084.050, 1265.329
1085.978, 1263.443
1087.907, 1261.508
1089.835, 1259.026
1091.764, 1257.386
1093.692, 1259.782
1095.620, 1263.277
1097.549, 1264.131
1099.477, 1263.563
1101.406, 1262.469
1103.334, 1261.318
1105.263, 1261.242
1107.191, 1260.651
1109.120, 1257.319
1111.048, 1253.525
1112.977, 1251.467
1114.905, 1249.506
1116.834, 1246.165
1118.762, 1242.776
1120.691, 1240.015
1122.619, 1237.829
1124.547, 1236.686
1126.476, 1235.216
1128.404, 1232.262
1130.333, 1229.394
1132.261, 1227.618
1134.190, 1225.521
1136.118, 1222.264
1138.047, 1219.162
1139.975, 1216.268
1141.904, 1214.943
1143.832, 1216.378
1145.761, 1217.345
1147.689, 1216.774
1149.618, 1216.303
1151.546, 1216.428
1153.474, 1215.986
1155.403, 1214.629
1157.331, 1213.590
1159.260, 1213.230
1161.188, 1212.186
1163.117, 1210.260
1165.045, 1208.379
1166.974, 1206.589
1168.902, 1206.554
1170.831, 1208.201
1172.759, 1209.538
1174.688, 1210.264
1176.616, 1209.048
1178.545, 1206.404
1180.473, 1205.042
1182.401, 1204.790
1184.330, 1204.714
1186.258, 1204.824
1188.187, 1205.360
1190.115, 1205.826
1192.044, 1205.278
1193.972, 1203.887
1195.901, 1201.010
1197.829, 1198.245
1199.758, 1197.789
1201.686, 1197.838
1203.615, 1196.836
1205.543, 1195.595
1207.472, 1194.931
1209.400, 1194.049
1211.328, 1192.445
1213.257, 1190.805
1215.185, 1189.575
1217.114, 1188.141
1219.042, 1186.139
1220.971, 1184.160
1222.899, 1182.318
1224.828, 1180.355
1226.756, 1178.138
1228.685, 1176.031
1230.613, 1174.400
1232.542, 1172.223
1234.470, 1170.345
1236.399, 1168.629
1238.327, 1167.022
1240.255, 1166.005
1242.184, 1161.260
1244.112, 1158.375
1246.041, 1157.265
1247.969, 1158.303
1249.898, 1160.394
1251.826, 1161.365
1253.755, 1161.859
1255.683, 1162.728
1257.612, 1163.519
1259.540, 1163.625
1261.469, 1163.519
1263.397, 1163.244
1265.326, 1163.184
1267.254, 1163.572
1269.182, 1164.212
1271.111, 1165.409
1273.039, 1166.169
1274.968, 1166.310
1276.896, 1165.928
1278.825, 1166.611
1280.753, 1165.115
1282.682, 1166.881
1284.610, 1167.318
1286.539, 1166.526
1288.467, 1167.282
1290.396, 1168.897
1292.324, 1167.849
1294.253, 1165.833
1296.181, 1166.561
1298.109, 1168.633
1300.038, 1170.793
1301.966, 1172.337
1303.895, 1171.651
1305.823, 1171.348
1307.752, 1173.533
1309.680, 1175.869
1311.609, 1176.868
1313.537, 1178.652
1315.466, 1182.068
1317.394, 1185.755
1319.323, 1190.353
1321.251, 1192.969
1323.180, 1195.567
1325.108, 1198.436
1327.036, 1199.294
1328.965, 1202.190
1330.893, 1203.916
1332.822, 1204.219
1334.750, 1204.749
1336.679, 1210.195
1338.607, 1215.791
1340.536, 1215.706
1342.464, 1214.515
1344.393, 1215.205
1346.321, 1215.081
1348.250, 1212.492
1350.178, 1210.531
1352.107, 1210.517
1354.035, 1209.402
1355.964, 1206.553
1357.892, 1204.521
1359.820, 1203.517
1361.749, 1201.594
1363.677, 1198.818
1365.606, 1195.328
1367.534, 1191.673
1369.463, 1189.517
1371.391, 1187.599
1373.320, 1184.391
1375.248, 1180.532
1377.177, 1175.726
1379.105, 1171.668
1381.034, 1169.718
1382.962, 1166.684
1384.891, 1161.531
1386.819, 1157.038
1388.747, 1153.602
1390.676, 1151.397
1392.604, 1150.287
1394.533, 1149.356
1396.461, 1147.924
1398.390, 1143.576
1400.318, 1137.880
1402.247, 1132.113
1404.175, 1127.543
1406.104, 1125.661
1408.032, 1124.724
1409.961, 1124.337
1411.889, 1123.659
1413.818, 1122.925
1415.746, 1120.743
1417.674, 1119.971
1419.603, 1115.003
1421.531, 1116.006
1423.460, 1113.033
1425.388, 1108.123
1427.317, 1108.410
1429.245, 1110.002
1431.174, 1107.658
1433.102, 1104.570
1435.031, 1103.067
1436.959, 1101.358
1438.888, 1097.946
1440.816, 1096.214
1442.745, 1097.729
1444.673, 1097.702
1446.601, 1095.903
1448.530, 1092.043
1450.458, 1087.163
1452.387, 1087.317
1454.315, 1084.487
1456.244, 1086.202
1458.172, 1082.548
1460.101, 1081.454
1462.029, 1080.815
1463.958, 1079.996
1465.886, 1078.991
1467.815, 1077.831
1469.743, 1076.265
1471.672, 1074.277
1473.600, 1073.007
1475.528, 1072.078
1477.457, 1069.780
1479.385, 1067.101
1481.314, 1065.159
1483.242, 1064.221
1485.171, 1065.309
1487.099, 1066.028
1489.028, 1065.970
1490.956, 1063.978
1492.885, 1059.698
1494.813, 1057.830
1496.742, 1058.228
1498.670, 1057.527
1500.599, 1055.787
1502.527, 1052.998
1504.455, 1049.881
1506.384, 1046.568
1508.312, 1044.320
1510.241, 1045.293
1512.169, 1044.463
1514.098, 1040.255
1516.026, 1036.674
1517.955, 1033.908
1519.883, 1033.927
1521.812, 1035.234
1523.740, 1033.489
1525.669, 1030.348
1527.597, 1027.753
1529.526, 1024.674
1531.454, 1019.794
1533.382, 1015.909
1535.311, 1013.703
1537.239, 1013.140
1539.168, 1014.356
1541.096, 1012.195
1543.025, 1007.693
1544.953, 1003.449
1546.882, 1000.148
1548.810, 999.3847
1550.739, 998.3256
1552.667, 995.3959
1554.596, 992.5204
1556.524, 989.9804
1558.453, 988.5197
1560.381, 987.9744
1562.309, 986.1491
1564.238, 983.6451
1566.166, 982.1020
1568.095, 980.5277
1570.023, 977.6619
1571.952, 975.2490
1573.880, 974.0254
1575.809, 972.8006
1577.737, 971.4143
1579.666, 970.1285
1581.594, 968.7902
1583.523, 966.1700
1585.451, 963.4747
1587.380, 962.5320
1589.308, 962.0798
1591.236, 961.6539
1593.165, 960.7206
1595.093, 959.0939
1597.022, 957.3073
1598.950, 955.3965
1600.879, 953.2678
1602.807, 951.1747
1604.736, 949.4993
1606.664, 948.2643
1608.593, 948.6253
1610.521, 947.1868
1612.450, 941.6487
1614.378, 938.9381
1616.307, 939.2552
1618.235, 939.3206
1620.163, 938.7655
1622.092, 936.8013
1624.020, 934.2570
1625.949, 931.3472
1627.877, 928.9418
1629.806, 927.6677
1631.734, 926.0550
1633.663, 923.9780
1635.591, 922.5117
1637.520, 920.9926
1639.448, 917.2946
1641.377, 913.1162
1643.305, 909.2849
1645.234, 906.9918
1647.162, 903.7513
1649.090, 901.1030
1651.019, 899.1453
1652.947, 895.9445
1654.876, 894.3409
1656.804, 891.6324
1658.733, 888.5632
1660.661, 885.5153
1662.590, 882.8180
1664.518, 880.0779
1666.447, 877.2720
1668.375, 874.9990
1670.304, 872.1762
1672.232, 869.7185
1674.161, 867.9228
1676.089, 866.0618
1678.017, 863.7043
1679.946, 860.8766
1681.874, 858.4305
1683.803, 854.8279
1685.731, 852.4753
1687.660, 848.9725
1689.588, 845.1592
1691.517, 841.4006
1693.445, 839.0256
1695.374, 836.3345
1697.302, 833.8446
1699.231, 832.5476
1701.159, 829.9083
1703.088, 828.5283
1705.016, 827.4481
1706.944, 825.2738
1708.873, 822.8867
1710.801, 820.6126
1712.730, 816.8292
1714.658, 815.1173
1716.587, 811.4504
1718.515, 808.5463
1720.444, 806.0784
1722.372, 803.7917
1724.301, 801.5894
1726.229, 799.5209
1728.158, 797.1683
1730.086, 794.4603
1732.015, 790.7024
1733.943, 787.1600
1735.871, 786.2844
1737.800, 785.4255
1739.728, 783.4413
1741.657, 780.6903
1743.585, 777.2035
1745.514, 774.7012
1747.442, 772.6952
1749.371, 769.8986
1751.299, 767.2664
1753.228, 765.2514
1755.156, 763.8270
1757.085, 762.9909
1759.013, 763.1260
1760.942, 762.9196
1762.870, 757.4257
1764.798, 751.5648
1766.727, 749.2143
1768.655, 747.3408
1770.584, 745.3549
1772.512, 743.8559
1774.441, 742.4238
1776.369, 739.3154
1778.298, 735.9199
1780.226, 733.4493
1782.155, 731.1472
1784.083, 728.8261
1786.012, 727.4959
1787.940, 724.8210
1789.869, 723.6016
1791.797, 720.2339
1793.725, 717.5559
1795.654, 715.5162
1797.582, 714.2666
1799.511, 711.3065
1801.439, 707.2028
1803.368, 703.4455
1805.296, 700.6520
1807.225, 700.3331
1809.153, 698.9931
1811.082, 695.9129
1813.010, 692.1243
1814.939, 688.1213
1816.867, 685.2703
1818.796, 682.8846
1820.724, 680.5477
1822.652, 678.4703
1824.581, 676.7270
1826.509, 674.6517
1828.438, 672.3439
1830.366, 670.1356
1832.295, 667.5079
1834.223, 663.9218
1836.152, 660.9528
1838.080, 658.7858
1840.009, 656.4955
1841.937, 653.9702
1843.866, 650.8068
1845.794, 647.8576
1847.723, 645.4378
1849.651, 643.3309
1851.579, 641.4232
1853.508, 639.1074
1855.436, 636.8725
1857.365, 635.3014
1859.293, 633.8683
1861.222, 632.4854
1863.150, 629.7966
1865.079, 626.4905
1867.007, 624.3303
1868.936, 622.7593
1870.864, 620.2192
1872.793, 619.7776
1874.721, 616.6017
1876.650, 615.1030
1878.578, 614.1036
1880.506, 611.9623
1882.435, 609.5245
1884.363, 607.0140
1886.292, 604.9631
1888.220, 603.0267
1890.149, 599.3110
1892.077, 596.0900
1894.006, 595.7541
1895.934, 595.2955
1897.863, 594.3123
1899.791, 590.5168
1901.720, 586.2831
1903.648, 585.4767
1905.577, 584.7471
1907.505, 582.5251
1909.433, 580.8040
1911.362, 579.1699
1913.290, 574.5117
1915.219, 570.7786
1917.147, 571.6002
1919.076, 570.7222
1921.004, 567.1823
1922.933, 564.2947
1924.861, 561.9000
1926.790, 559.6826
1928.718, 558.1514
1930.647, 557.6136
1932.575, 555.6909
1934.504, 552.7495
1936.432, 549.3582
1938.360, 546.8338
1940.289, 546.0273
1942.217, 544.5576
1944.146, 542.2905
1946.074, 540.3597
1948.003, 538.3679
1949.931, 536.0555
1951.860, 533.0731
1953.788, 531.2230
1955.717, 527.9806
1957.645, 527.0041
1959.574, 524.0474
1961.502, 522.0275
1963.431, 521.7795
1965.359, 519.4098
1967.287, 516.1201
1969.216, 515.3911
1971.144, 514.1087
1973.073, 510.3093
1975.001, 507.5512
1976.930, 505.9008
1978.858, 505.5204
1980.787, 504.7652
1982.715, 502.0126
1984.644, 500.2127
1986.572, 499.2250
1988.501, 495.3560
1990.429, 491.6194
1992.358, 491.2235
1994.286, 489.9416
1996.214, 487.2167
1998.143, 485.9707
2000.071, 484.8241
2002.000, 482.2298
2003.928, 479.5932
2005.857, 477.2150
2007.785, 475.6745
2009.714, 474.5249
2011.642, 473.2678
2013.571, 471.9763
2015.499, 470.7376
2017.428, 466.8417
2019.356, 462.4022
2021.285, 461.8735
2023.213, 460.9976
2025.141, 458.5496
2027.070, 457.2182
2028.998, 456.4897
2030.927, 455.5832
2032.855, 453.3620
2034.784, 449.3196
2036.712, 448.9918
2038.641, 446.2190
2040.569, 445.8563
2042.498, 442.6205
2044.426, 442.4372
2046.355, 440.9718
2048.283, 438.8896
2050.212, 439.0948
2052.140, 437.3510
2054.068, 431.5784
2055.997, 428.8541
2057.925, 428.2478
2059.854, 427.7651
2061.782, 426.2114
2063.711, 424.5970
2065.639, 421.1330
2067.568, 420.5112
2069.496, 418.5392
2071.425, 416.8059
2073.353, 416.0807
2075.281, 414.7499
2077.210, 413.0329
2079.138, 411.3528
2081.067, 409.5273
2082.995, 407.4442
2084.924, 406.1014
2086.852, 405.0127
2088.781, 403.5292
2090.709, 401.6169
2092.638, 399.1900
2094.566, 397.5997
2096.495, 396.5126
2098.423, 395.8892
2100.352, 394.0949
2102.280, 390.9141
2104.208, 390.2374
2106.137, 389.3184
2108.065, 384.6787
2109.994, 382.9719
2111.922, 384.5576
2113.851, 384.3972
2115.779, 382.9403
2117.708, 380.1539
2119.636, 378.4510
2121.565, 377.6755
2123.493, 376.1304
2125.422, 374.7051
2127.350, 373.9706
2129.279, 372.3102
2131.207, 370.1089
2133.135, 368.2316
2135.064, 367.1090
2136.992, 367.0113
2138.921, 364.0392
2140.849, 360.3540
2142.778, 359.1506
2144.706, 358.8022
2146.635, 358.8293
2148.563, 355.9081
2150.492, 352.6210
2152.420, 351.5585
2154.349, 350.2451
2156.277, 348.7817
2158.206, 350.2990
2160.134, 351.0939
2162.063, 348.7914
2163.991, 346.3936
2165.919, 344.1424
2167.848, 342.0345
2169.776, 340.5315
2171.705, 339.8453
2173.633, 340.1263
2175.562, 340.0382
2177.490, 337.6776
2179.419, 336.2163
2181.347, 335.8153
2183.276, 332.5465
2185.204, 329.8367
2187.133, 329.8649
2189.061, 328.5215
2190.990, 326.3769
2192.918, 326.0114
2194.846, 325.5782
2196.775, 324.5237
2198.703, 322.2542
2200.632, 319.6081
2202.560, 317.2863
2204.489, 315.6640
2206.417, 314.7674
2208.346, 314.7613
2210.274, 314.6085
2212.203, 313.7367
2214.131, 312.6308
2216.060, 311.2074
2217.988, 309.1407
2219.917, 307.1045
2221.845, 305.2840
2223.773, 304.2035
2225.702, 303.7839
2227.630, 301.8800
2229.559, 300.8327
2231.487, 298.8804
2233.416, 297.4992
2235.344, 296.0827
2237.273, 293.5148
2239.201, 294.7794
2241.130, 295.8431
2243.058, 292.3719
2244.987, 290.5233
2246.915, 290.2925
2248.844, 288.7638
2250.772, 287.4696
2252.700, 287.0317
2254.629, 286.3021
2256.557, 284.8610
2258.486, 281.8860
2260.414, 280.3222
2262.343, 280.1454
2264.271, 279.5711
2266.200, 278.5299
2268.128, 276.9902
2270.057, 275.6396
2271.985, 274.3356
2273.914, 272.8739
2275.842, 271.3515
2277.771, 269.9211
2279.699, 269.0195
2281.627, 268.4017
2283.556, 267.9619
2285.484, 265.9705
2287.413, 264.1075
2289.341, 264.6422
2291.270, 264.6796
2293.198, 264.1233
2295.127, 263.7934
2297.055, 262.3924
2298.984, 259.5551
2300.912, 257.7371
2302.841, 256.4701
2304.769, 255.3943
2306.698, 254.6776
2308.626, 254.0603
2310.554, 253.0064
2312.483, 251.9075
2314.411, 250.8141
2316.340, 249.3974
2318.268, 246.7754
2320.197, 246.5617
2322.125, 245.4704
2324.054, 244.3071
2325.982, 244.4651
2327.911, 243.8016
2329.839, 242.3242
2331.768, 241.7137
2333.696, 240.0254
2335.625, 238.9690
2337.553, 238.0044
2339.481, 236.6885
2341.410, 235.9754
2343.338, 235.2311
2345.267, 234.1684
2347.195, 231.4775
2349.124, 230.0077
2351.052, 229.8053
2352.981, 228.7501
2354.909, 227.9074
2356.838, 227.6377
2358.766, 225.6483
2360.695, 223.8776
2362.623, 224.6705
2364.552, 224.6091
2366.480, 223.7246
2368.408, 222.3016
2370.337, 220.7203
2372.265, 219.2603
2374.194, 218.9955
2376.122, 219.0338
2378.051, 219.1668
2379.979, 216.2680
2381.908, 213.5348
2383.836, 213.5915
2385.765, 214.2975
2387.693, 214.6423
2389.622, 213.3069
2391.550, 211.9592
2393.479, 210.7051
2395.407, 208.7491
2397.335, 207.0886
2399.264, 206.0308
2401.192, 205.9318
2403.121, 205.6443
2405.049, 204.6122
2406.978, 204.3734
2408.906, 203.9612
2410.835, 202.3233
2412.763, 201.7120
2414.692, 201.5818
2416.620, 200.9522
2418.549, 198.8304
2420.477, 195.9460
2422.406, 195.0037
2424.334, 194.9707
2426.262, 195.2233
2428.191, 193.7268
2430.119, 192.3063
2432.048, 191.8227
2433.976, 190.2104
2435.905, 188.3287
2437.833, 186.6143
2439.762, 186.9281
2441.690, 187.7154
2443.619, 186.8082
2445.547, 185.6186
2447.476, 184.4420
2449.404, 183.5358
2451.333, 182.9218
2453.261, 182.3220
2455.189, 180.1129
2457.118, 178.5065
2459.046, 178.1275
2460.975, 178.5792
2462.903, 178.4163
2464.832, 176.8744
2466.760, 176.2861
2468.689, 175.4684
2470.617, 173.6227
2472.546, 172.8255
2474.474, 172.1479
2476.403, 170.4754
2478.331, 169.7936
2480.260, 169.4964
2482.188, 168.2763
2484.116, 167.8151
2486.045, 167.7474
2487.973, 166.7354
2489.902, 165.7874
2491.830, 164.9663
2493.759, 163.7717
2495.687, 162.7942
2497.616, 162.1265
2499.544, 161.5651
2501.473, 160.8750
2503.401, 160.0061
2505.330, 159.2153
2507.258, 158.5503
2509.187, 158.0278
2511.115, 156.9219
2513.043, 155.9914
2514.972, 155.1640
2516.900, 154.6438
2518.829, 153.1907
2520.757, 152.6119
2522.686, 151.3757
2524.614, 150.6050
2526.543, 151.6086
2528.471, 151.2743
2530.400, 150.4465
2532.328, 150.3910
2534.257, 149.9650
2536.185, 149.2475
2538.114, 148.4827
2540.042, 147.8401
2541.970, 147.2332
2543.899, 146.4457
2545.827, 145.5699
2547.756, 144.7504
2549.684, 144.2386
2551.613, 143.5358
2553.541, 143.0477
2555.470, 142.6586
2557.398, 141.7290
2559.327, 141.7586
2561.255, 140.2572
2563.184, 139.2034
2565.112, 138.8002
2567.041, 138.5636
2568.969, 137.7349
2570.897, 136.3959
2572.826, 135.2562
2574.754, 134.3173
2576.683, 133.5904
2578.611, 132.6654
2580.540, 131.9907
2582.468, 131.2384
2584.397, 130.6947
2586.325, 130.2767
2588.254, 129.7472
2590.182, 128.8084
2592.111, 128.0972
2594.039, 127.7147
2595.968, 127.2622
2597.896, 126.2628
2599.824, 124.9167
2601.753, 125.7254
2603.681, 125.7015
2605.610, 124.2873
2607.538, 122.8498
2609.467, 121.8635
2611.395, 121.3512
2613.324, 120.7803
2615.252, 120.2529
2617.181, 119.7464
2619.109, 118.8282
2621.038, 118.8878
2622.966, 119.6414
2624.895, 118.8284
2626.823, 118.1051
2628.751, 117.4400
2630.680, 116.6487
2632.608, 114.4891
2634.537, 115.1433
2636.465, 113.4505
2638.394, 112.5996
2640.322, 112.5851
2642.251, 112.0439
2644.179, 111.9590
2646.108, 111.9136
2648.036, 110.7613
2649.965, 109.5172
2651.893, 108.6916
2653.822, 107.9539
2655.750, 108.2121
2657.678, 106.6580
2659.607, 106.0719
2661.535, 104.9981
2663.464, 103.8854
2665.392, 103.3303
2667.321, 102.8942
2669.249, 102.5686
2671.178, 102.3817
2673.106, 102.0389
2675.035, 101.2872
2676.963, 101.1755
2678.892, 100.1174
2680.820, 100.2696
2682.749, 99.84293
2684.677, 98.66158
2686.605, 97.85619
2688.534, 97.75225
2690.462, 97.85650
2692.391, 97.25277
2694.319, 95.93232
2696.248, 94.61379
2698.176, 94.14553
2700.105, 94.36430
2702.033, 94.56221
2703.962, 94.09961
2705.890, 92.95353
2707.819, 90.85734
2709.747, 90.47072
2711.676, 90.83237
2713.604, 90.21319
2715.532, 89.99845
2717.461, 89.62612
2719.389, 88.38258
2721.318, 87.60981
2723.246, 86.87868
2725.175, 85.84680
2727.103, 86.55603
2729.032, 87.04942
2730.960, 86.45484
2732.889, 85.16480
2734.817, 84.39983
2736.746, 84.24744
2738.674, 83.41151
2740.603, 83.06787
2742.531, 82.90262
2744.459, 81.56185
2746.388, 80.54967
2748.316, 80.03599
2750.245, 80.14737
2752.173, 79.33328
2754.102, 78.75715
2756.030, 79.35945
2757.959, 78.48088
2759.887, 77.29655
2761.816, 76.45473
2763.744, 76.32150
2765.673, 76.43655
2767.601, 76.47511
2769.530, 75.84656
2771.458, 74.98766
2773.386, 74.22901
2775.315, 74.00769
2777.243, 74.16017
2779.172, 73.96001
2781.100, 72.62893
2783.029, 71.68032
2784.957, 71.41347
2786.886, 70.65415
2788.814, 70.62686
2790.743, 69.92427
2792.671, 70.21997
2794.600, 69.86988
2796.528, 69.83031
2798.457, 69.62583
2800.385, 69.25023
2802.313, 69.14097
2804.242, 68.08909
2806.170, 68.27502
2808.099, 66.86418
2810.027, 65.39876
2811.956, 64.66361
2813.884, 64.91432
2815.813, 65.66261
2817.741, 66.09102
2819.670, 64.19902
2821.598, 63.53335
2823.527, 63.51861
2825.455, 62.76971
2827.384, 62.41079
2829.312, 62.34349
2831.240, 62.47201
2833.169, 62.19603
2835.097, 61.61387
2837.026, 60.88710
2838.954, 60.36156
2840.883, 60.22722
2842.811, 60.14938
2844.740, 59.74807
2846.668, 58.52476
2848.597, 57.66900
2850.525, 57.84814
2852.454, 57.29592
2854.382, 57.12882
2856.311, 57.21452
2858.239, 56.02321
2860.167, 55.46666
2862.096, 55.35676
2864.024, 55.22938
2865.953, 55.25258
2867.881, 55.21167
2869.810, 54.93543
2871.738, 54.51502
2873.667, 53.47661
2875.595, 53.42815
2877.524, 52.57453
2879.452, 52.15086
2881.381, 51.70906
2883.309, 50.81971
2885.238, 50.93505
2887.166, 51.25592
2889.094, 51.31694
2891.023, 50.43619
2892.951, 49.75043
2894.880, 49.30230
2896.808, 49.02728
2898.737, 47.72594
2900.665, 47.25874
2902.594, 48.21700
2904.522, 48.52481
2906.451, 47.50428
2908.379, 46.37090
2910.308, 47.08056
2912.236, 46.80444
2914.165, 46.27541
2916.093, 46.03307
2918.021, 45.72271
2919.950, 45.44365
2921.878, 45.15188
2923.807, 44.75819
2925.735, 43.82286
2927.664, 43.39449
2929.592, 43.84684
2931.521, 42.58726
2933.449, 42.43296
2935.378, 42.89891
2937.306, 41.08277
2939.235, 40.44003
2941.163, 40.62761
2943.092, 41.14672
2945.020, 40.77520
2946.948, 40.86363
2948.877, 41.08484
2950.805, 40.01555
2952.734, 39.47857
2954.662, 39.24449
2956.591, 39.04705
2958.519, 38.71712
2960.448, 38.56276
2962.376, 38.19838
2964.305, 37.87827
2966.233, 37.48003
2968.162, 37.11082
2970.090, 36.70172
2972.019, 36.62255
2973.947, 36.31083
2975.875, 36.55243
2977.804, 36.52575
2979.732, 36.54582
2981.661, 35.96614
2983.589, 36.23318
2985.518, 34.71713
2987.446, 33.94226
2989.375, 33.72987
2991.303, 34.14425
2993.232, 33.57527
2995.160, 33.29863
2997.089, 33.24797
2999.017, 31.87464
3000.946, 33.23145
3002.874, 36.10424
3004.802, 38.91915
3006.731, 34.64761
3008.659, 32.25995
3010.588, 31.76041
3012.516, 30.88118
3014.445, 29.92721
3016.373, 29.56690
3018.302, 29.89105
3020.230, 29.30618
3022.159, 29.85057
3024.087, 29.05701
3026.016, 29.08188
3027.944, 29.13378
3029.873, 29.10681
3031.801, 29.25347
3033.729, 29.90312
3035.658, 29.64603
3037.586, 28.29878
3039.515, 26.82968
3041.443, 28.33180
3043.372, 28.55957
3045.300, 27.98529
3047.229, 27.22396
3049.157, 26.28606
3051.086, 25.99145
3053.014, 26.08902
3054.943, 26.10335
3056.871, 26.95825
3058.800, 26.11361
3060.728, 24.38846
3062.656, 24.86984
3064.585, 24.49467
3066.513, 24.55280
3068.442, 25.31332
3070.370, 24.91667
3072.299, 25.19208
3074.227, 25.18115
3076.156, 24.22739
3078.084, 24.81882
3080.013, 24.65585
3081.941, 23.71048
3083.870, 22.57900
3085.798, 23.57349
3087.727, 24.13235
3089.655, 23.73588
3091.583, 24.05312
3093.512, 23.32601
3095.440, 23.47506
3097.369, 22.84015
3099.297, 22.18585
3101.226, 22.18359
3103.154, 22.13644
3105.083, 21.78724
3107.011, 21.55252
3108.940, 21.40295
3110.868, 21.29992
3112.797, 21.28477
3114.725, 22.16892
3116.654, 21.30738
3118.582, 20.48632
3120.510, 21.49604
3122.439, 20.77445
3124.367, 20.46154
3126.296, 20.67833
3128.224, 21.06935
3130.153, 21.29444
3132.081, 20.45483
3134.010, 19.69795
3135.938, 20.57317
3137.867, 20.79758
3139.795, 20.18514
3141.724, 19.41786
3143.652, 19.48030
3145.581, 19.95121
3147.509, 19.60646
3149.438, 18.95301
3151.366, 19.63922
3153.294, 19.19130
3155.223, 18.63684
3157.151, 18.43693
3159.080, 18.80927
3161.008, 18.28638
3162.937, 18.54920
3164.865, 18.40068
3166.794, 18.17520
3168.722, 18.20082
3170.651, 18.36304
3172.579, 18.32396
3174.508, 18.36401
3176.436, 18.32538
3178.365, 18.21081
3180.293, 17.94006
3182.221, 17.32910
3184.150, 17.68613
3186.078, 17.43665
3188.007, 16.94678
3189.935, 18.16179
3191.864, 17.56754
3193.792, 17.30491
3195.721, 17.60267
3197.649, 17.29877
3199.578, 17.44948
3201.506, 16.98836
3203.435, 16.16788
3205.363, 15.93112
3207.292, 16.18044
3209.220, 16.19186
3211.148, 16.12364
3213.077, 16.44285
3215.005, 17.48115
3216.934, 17.51486
3218.862, 16.67799
3220.791, 15.55827
3222.719, 15.48128
3224.648, 15.87780
3226.576, 16.02993
3228.505, 15.57280
3230.433, 16.47439
3232.362, 16.10726
3234.290, 15.06804
3236.219, 14.42758
3238.147, 14.62049
3240.075, 15.95015
3242.004, 15.21327
3243.932, 15.39832
3245.861, 15.79013
3247.789, 15.72634
3249.718, 15.60963
3251.646, 15.71478
3253.575, 15.77795
3255.503, 15.85258
3257.432, 15.82924
3259.360, 16.38601
3261.289, 15.60692
3263.217, 16.38597
3265.146, 16.05674
3267.074, 15.52143
3269.002, 16.04568
3270.931, 16.05404
3272.859, 15.91187
3274.788, 15.77891
3276.716, 15.86452
3278.645, 16.72937
3280.573, 16.99111
3282.502, 16.88303
3284.430, 16.73757
3286.359, 16.79839
3288.287, 15.35720
3290.216, 19.00587
3292.144, 21.70358
3294.073, 16.79352
3296.001, 21.50489
3297.929, 19.83615
3299.858, 16.64459
3301.786, 16.60833
3303.715, 16.92672
3305.643, 17.15524
3307.572, 16.99383
3309.500, 16.75619
3311.429, 16.66042
3313.357, 16.89631
3315.286, 16.15640
3317.214, 15.49313
3319.143, 15.17859
3321.071, 15.71844
3323.000, 16.35057
3324.928, 16.41792
3326.856, 16.13399
3328.785, 16.71331
3330.713, 16.25010
3332.642, 15.70797
3334.570, 15.42951
3336.499, 15.39450
3338.427, 15.86961
3340.356, 16.40081
3342.284, 15.91031
3344.213, 15.88360
3346.141, 15.56225
3348.070, 14.84468
3349.998, 14.69248
3351.927, 13.92994
3353.855, 13.61583
3355.783, 14.03274
3357.712, 14.16040
3359.640, 13.57486
3361.569, 12.73879
3363.497, 13.25248
3365.426, 13.17554
3367.354, 13.66902
3369.283, 13.95758
3371.211, 13.19507
3373.140, 13.56710
3375.068, 13.23621
3376.997, 12.90980
3378.925, 12.72963
3380.854, 12.13656
3382.782, 11.90124
3384.710, 11.96734
3386.639, 13.41192
3388.567, 12.09897
3390.496, 12.65449
3392.424, 12.41894
3394.353, 11.82539
3396.281, 11.81568
3398.210, 12.72297
3400.138, 11.06201
3402.067, 11.98861
3403.995, 12.21657
3405.924, 11.11455
3407.852, 11.13854
3409.781, 11.59935
3411.709, 12.30240
3413.637, 12.45215
3415.566, 11.81754
3417.494, 11.19932
3419.423, 11.66703
3421.351, 11.18854
3423.280, 10.58675
3425.208, 10.95768
3427.137, 11.60943
3429.065, 11.79500
3430.994, 10.93191
3432.922, 10.08706
3434.851, 10.39008
3436.779, 10.10578
3438.708, 10.38152
3440.636, 10.50067
3442.564, 10.44851
3444.493, 10.60104
3446.421, 9.409217
3448.350, 9.999893
3450.278, 9.950396
3452.207, 9.151020
3454.135, 9.932576
3456.064, 9.764579
##END=



