##NAMES=Mooreite
##RRUFFID=R060089
##IDEAL CHEMISTRY=Mg_15_(SO_4_)_2_(OH)_26_·8H_2_O
##LOCALITY=Sterling Hill, New Jersey, USA
##OWNER=RRUFF
##SOURCE=University of Arizona Mineral Museum
##DESCRIPTION=Tan fragment showing well-developed cleavage
##STATUS=The identification of this mineral has been confirmed by X-ray diffraction and chemical analysis
##URL=https://www.rruff.net/odr/rruff_sample/R060089
##MEASURED CHEMISTRY=Mg_9.00_Zn_4.00_(Mn^2+^_1.85_Mg_0.15_)(S_1.00_O_4_)_2_(OH)_26_·8H_2_O
##DIFFRACTION SAMPLE DESCRIPTION=Powder
##CELL PARAMETERS=a: 11.1727 b: 20.371 c: 8.2329 alpha: 90 beta: 92.81 gamma: 90 volume: 1871.6 crystal system: monoclinic
##FILETYPE=Raman Processed
##RAMAN WAVELENGTH=532

127.2009, 253.5549
129.1294, 260.5914
131.0579, 269.6004
132.9863, 285.5269
134.9148, 303.4583
136.8433, 312.5262
138.7717, 307.7144
140.7002, 298.0084
142.6287, 286.9132
144.5571, 271.8877
146.4856, 260.1808
148.4141, 253.5470
150.3425, 251.2496
152.2710, 251.1612
154.1995, 253.7587
156.1279, 257.7143
158.0564, 261.9192
159.9849, 267.1495
161.9133, 271.1452
163.8418, 273.2347
165.7703, 272.6812
167.6987, 272.3973
169.6272, 273.0649
171.5557, 273.7356
173.4841, 273.3240
175.4126, 270.6491
177.3411, 267.8768
179.2695, 265.6304
181.1980, 263.9159
183.1265, 262.5455
185.0549, 260.9987
186.9834, 259.7120
188.9119, 260.0747
190.8403, 263.3828
192.7688, 267.2076
194.6973, 270.2907
196.6257, 272.3650
198.5542, 275.4008
200.4827, 280.1424
202.4111, 286.2572
204.3396, 292.3444
206.2681, 298.7509
208.1965, 304.8511
210.1250, 310.2544
212.0535, 314.6346
213.9819, 319.1732
215.9104, 324.5448
217.8389, 330.4279
219.7673, 335.2012
221.6958, 338.6174
223.6243, 341.1288
225.5527, 343.2066
227.4812, 346.3597
229.4097, 346.9461
231.3381, 343.5072
233.2666, 336.8499
235.1951, 330.1742
237.1235, 322.8543
239.0520, 316.1368
240.9805, 310.8585
242.9089, 307.5995
244.8374, 304.8549
246.7659, 302.2388
248.6943, 299.8851
250.6228, 298.6727
252.5513, 299.9838
254.4797, 301.6803
256.4082, 302.2552
258.3367, 301.4935
260.2651, 300.6480
262.1936, 300.1381
264.1221, 299.9218
266.0505, 299.3722
267.9790, 298.5277
269.9075, 297.3354
271.8359, 295.6451
273.7644, 293.3420
275.6929, 290.9690
277.6213, 288.0210
279.5498, 284.7581
281.4783, 283.3788
283.4067, 285.6130
285.3352, 288.2191
287.2637, 289.5291
289.1921, 289.2802
291.1206, 288.6095
293.0491, 287.5902
294.9775, 286.3347
296.9060, 285.2740
298.8345, 284.5738
300.7629, 283.8936
302.6914, 282.8867
304.6199, 280.7455
306.5483, 280.0020
308.4768, 281.2672
310.4053, 284.0134
312.3337, 286.8393
314.2622, 289.7121
316.1907, 292.6877
318.1191, 295.6888
320.0476, 298.4627
321.9761, 302.0103
323.9045, 306.8047
325.8330, 312.2875
327.7615, 317.7183
329.6899, 323.6068
331.6184, 328.7119
333.5469, 332.6067
335.4753, 335.0283
337.4038, 336.9985
339.3322, 338.4549
341.2607, 339.4436
343.1892, 340.0074
345.1176, 339.3937
347.0461, 339.3384
348.9746, 339.6930
350.9030, 340.7495
352.8315, 343.7988
354.7600, 351.3607
356.6884, 359.1685
358.6169, 364.5049
360.5454, 365.6795
362.4738, 366.0511
364.4023, 364.7583
366.3308, 362.6445
368.2592, 361.6059
370.1877, 361.0689
372.1162, 362.5233
374.0446, 366.8423
375.9731, 375.6320
377.9016, 384.1767
379.8300, 394.6986
381.7585, 404.1002
383.6870, 408.7703
385.6154, 405.4885
387.5439, 400.8258
389.4724, 395.9695
391.4008, 390.9135
393.3293, 386.6465
395.2578, 383.7697
397.1862, 381.3383
399.1147, 378.4724
401.0432, 373.5460
402.9716, 370.7142
404.9001, 370.1512
406.8286, 372.2620
408.7570, 376.9489
410.6855, 385.0648
412.6140, 395.1345
414.5424, 406.3935
416.4709, 419.1538
418.3994, 432.6324
420.3279, 447.2082
422.2563, 462.3101
424.1848, 477.0636
426.1133, 490.3261
428.0417, 505.2883
429.9702, 523.1870
431.8987, 544.1205
433.8271, 565.0370
435.7556, 591.7673
437.6841, 613.9328
439.6125, 626.0905
441.5410, 627.1898
443.4695, 621.6693
445.3979, 605.8782
447.3264, 584.9300
449.2549, 570.8230
451.1833, 564.3395
453.1118, 562.6677
455.0403, 567.3362
456.9687, 579.0046
458.8972, 584.4789
460.8257, 583.0782
462.7541, 576.2138
464.6826, 562.9951
466.6111, 542.2383
468.5395, 521.9740
470.4680, 503.1178
472.3965, 485.9462
474.3249, 471.9329
476.2534, 462.0034
478.1819, 453.9882
480.1103, 447.5271
482.0388, 442.5336
483.9673, 439.0175
485.8957, 438.6190
487.8242, 438.9048
489.7527, 438.2690
491.6811, 435.9776
493.6096, 433.8941
495.5381, 431.1882
497.4665, 428.9760
499.3950, 428.9381
501.3235, 431.4843
503.2519, 435.9385
505.1804, 443.2292
507.1089, 453.9683
509.0373, 460.7773
510.9658, 462.6853
512.8943, 461.2272
514.8228, 457.3990
516.7512, 450.5845
518.6797, 443.6972
520.6082, 435.2614
522.5366, 427.4716
524.4651, 424.9594
526.3936, 428.9262
528.3220, 435.2076
530.2505, 443.1731
532.1790, 452.5234
534.1074, 461.4718
536.0359, 472.4119
537.9644, 480.7913
539.8928, 483.8564
541.8213, 481.4252
543.7498, 475.7476
545.6782, 464.9206
547.6067, 451.9176
549.5352, 439.5630
551.4636, 427.4648
553.3921, 416.8158
555.3206, 407.6729
557.2490, 400.2512
559.1775, 394.4600
561.1060, 390.7368
563.0344, 388.1300
564.9629, 386.2464
566.8914, 385.1560
568.8198, 384.2762
570.7483, 383.8014
572.6768, 383.3485
574.6052, 382.4344
576.5337, 380.9210
578.4622, 380.2458
580.3906, 381.0493
582.3190, 382.7896
584.2475, 384.9015
586.1760, 387.8002
588.1044, 390.6437
590.0329, 392.7461
591.9614, 394.7366
593.8898, 398.0081
595.8183, 403.1247
597.7468, 408.9384
599.6752, 414.9538
601.6037, 421.1180
603.5322, 427.9605
605.4606, 436.6286
607.3891, 445.0096
609.3176, 452.4958
611.2460, 459.4292
613.1745, 463.1905
615.1030, 461.8668
617.0314, 458.0011
618.9599, 454.0692
620.8884, 450.5207
622.8168, 446.0436
624.7453, 439.1401
626.6738, 431.4590
628.6022, 425.7549
630.5307, 423.4743
632.4592, 421.4966
634.3876, 418.5083
636.3161, 414.8574
638.2446, 413.2515
640.1730, 416.1426
642.1015, 418.2912
644.0300, 416.3560
645.9584, 410.3975
647.8869, 406.7055
649.8154, 407.8748
651.7438, 409.9294
653.6723, 410.5047
655.6008, 409.3074
657.5292, 407.7737
659.4577, 405.2172
661.3862, 402.8745
663.3146, 401.9027
665.2431, 402.9753
667.1716, 404.0421
669.1000, 404.7644
671.0285, 405.3112
672.9570, 406.0414
674.8854, 407.1942
676.8139, 408.0255
678.7424, 407.9119
680.6708, 407.2492
682.5993, 407.1114
684.5278, 407.8975
686.4562, 408.8387
688.3847, 409.9013
690.3132, 411.0546
692.2416, 411.8999
694.1701, 411.8795
696.0986, 412.2998
698.0270, 414.1930
699.9555, 417.7082
701.8840, 419.9345
703.8124, 419.3510
705.7409, 418.5334
707.6694, 419.0737
709.5978, 421.0942
711.5263, 422.8246
713.4548, 423.8377
715.3832, 424.6094
717.3117, 425.6197
719.2402, 427.2417
721.1686, 428.1162
723.0971, 427.1390
725.0256, 425.9880
726.9540, 427.0265
728.8825, 430.9614
730.8110, 434.0916
732.7394, 434.9785
734.6679, 434.6977
736.5964, 434.5664
738.5248, 434.6532
740.4533, 434.6837
742.3818, 434.4632
744.3102, 434.1842
746.2387, 434.2645
748.1672, 434.7606
750.0956, 435.5511
752.0241, 436.8697
753.9526, 438.5144
755.8810, 439.9336
757.8095, 440.5348
759.7380, 441.5863
761.6664, 443.6109
763.5949, 446.3421
765.5234, 448.6096
767.4518, 450.3241
769.3803, 451.6501
771.3088, 452.2872
773.2372, 452.4489
775.1657, 453.3013
777.0942, 456.1313
779.0226, 458.4586
780.9511, 459.1913
782.8796, 458.4362
784.8080, 458.4340
786.7365, 459.9365
788.6650, 461.2462
790.5934, 461.3990
792.5219, 460.5439
794.4504, 460.0634
796.3788, 459.9839
798.3073, 460.4438
800.2358, 461.9240
802.1642, 464.5166
804.0927, 466.0482
806.0212, 465.8471
807.9496, 465.2467
809.8781, 464.5479
811.8066, 463.7556
813.7350, 463.9247
815.6635, 466.7160
817.5920, 469.1157
819.5204, 469.3400
821.4489, 467.0018
823.3774, 466.4716
825.3058, 470.1244
827.2343, 473.4620
829.1628, 473.6911
831.0912, 471.0881
833.0197, 469.2148
834.9482, 468.4817
836.8766, 468.5695
838.8051, 469.6921
840.7336, 472.0516
842.6620, 473.6014
844.5905, 473.6987
846.5190, 473.6198
848.4474, 474.2299
850.3759, 475.4155
852.3044, 476.0597
854.2328, 475.7443
856.1613, 475.1633
858.0898, 474.3338
860.0182, 473.1402
861.9467, 473.0014
863.8752, 474.8997
865.8036, 476.7559
867.7321, 477.2403
869.6606, 476.7036
871.5891, 476.9938
873.5175, 479.0352
875.4460, 481.0476
877.3745, 482.2535
879.3029, 482.6728
881.2314, 483.1712
883.1599, 483.9389
885.0883, 484.5643
887.0168, 484.7875
888.9453, 484.6746
890.8737, 484.5157
892.8022, 483.7250
894.7307, 483.8427
896.6591, 485.9779
898.5876, 489.6691
900.5161, 492.4660
902.4445, 494.6841
904.3730, 495.6739
906.3015, 494.1583
908.2299, 491.2770
910.1584, 490.5872
912.0869, 493.2452
914.0153, 495.4852
915.9438, 495.1357
917.8723, 493.6405
919.8007, 493.7480
921.7292, 496.6532
923.6577, 499.0660
925.5861, 499.9617
927.5146, 500.2440
929.4431, 501.2944
931.3715, 502.9142
933.3000, 505.8159
935.2285, 511.6953
937.1569, 518.1264
939.0854, 522.4925
941.0139, 524.1672
942.9423, 526.3981
944.8708, 530.0010
946.7993, 534.0439
948.7277, 537.5428
950.6562, 539.5917
952.5847, 543.7395
954.5131, 549.6638
956.4416, 557.9684
958.3701, 568.1574
960.2985, 580.3683
962.2270, 598.6914
964.1555, 619.9381
966.0839, 652.9955
968.0124, 691.7781
969.9409, 736.0672
971.8693, 833.1986
973.7978, 965.2377
975.7263, 1165.137
977.6547, 1528.186
979.5832, 1975.261
981.5117, 2253.671
983.4401, 2355.746
985.3686, 2303.549
987.2971, 2003.392
989.2255, 1578.882
991.1540, 1238.537
993.0825, 997.8532
995.0109, 818.3786
996.9394, 712.7910
998.8679, 652.7880
1000.796, 609.7900
1002.725, 586.3961
1004.653, 568.4285
1006.582, 555.9547
1008.510, 547.2361
1010.439, 541.2399
1012.367, 537.8987
1014.296, 535.9262
1016.224, 536.0045
1018.153, 536.5939
1020.081, 537.3485
1022.009, 538.2617
1023.938, 538.4650
1025.866, 536.7350
1027.795, 535.8156
1029.723, 537.2753
1031.652, 540.0076
1033.580, 541.3314
1035.509, 540.5699
1037.437, 540.1176
1039.366, 541.1085
1041.294, 542.6420
1043.223, 543.6259
1045.151, 543.5997
1047.080, 544.2936
1049.008, 546.4664
1050.937, 548.9514
1052.865, 550.7748
1054.793, 551.8687
1056.722, 553.3939
1058.650, 554.9459
1060.579, 557.3893
1062.507, 561.3577
1064.436, 566.4916
1066.364, 571.8114
1068.293, 577.0093
1070.221, 582.6902
1072.150, 589.3000
1074.078, 596.3889
1076.006, 603.0858
1077.935, 608.7535
1079.863, 615.0938
1081.792, 623.4657
1083.720, 631.7184
1085.649, 637.8342
1087.577, 641.9420
1089.506, 644.7477
1091.434, 644.8116
1093.363, 645.6022
1095.291, 649.5334
1097.220, 656.2441
1099.148, 661.0652
1101.077, 664.2269
1103.005, 664.9966
1104.933, 662.3217
1106.862, 657.3051
1108.790, 651.9358
1110.719, 646.0532
1112.647, 640.0433
1114.576, 633.3046
1116.504, 626.9261
1118.433, 622.0571
1120.361, 618.6258
1122.290, 614.6454
1124.218, 608.4933
1126.147, 603.6475
1128.075, 602.4481
1130.004, 603.9872
1131.932, 603.8578
1133.860, 600.9818
1135.789, 597.7921
1137.717, 593.8546
1139.646, 590.0890
1141.574, 587.8807
1143.503, 587.3605
1145.431, 586.9563
1147.360, 586.2155
1149.288, 585.8273
1151.217, 586.4418
1153.145, 587.8146
1155.074, 588.6227
1157.002, 588.4474
1158.931, 588.0518
1160.859, 587.2585
1162.787, 586.4152
1164.716, 586.1325
1166.644, 586.4744
1168.573, 587.2653
1170.501, 589.6741
1172.430, 591.6111
1174.358, 591.0363
1176.287, 588.4182
1178.215, 587.1569
1180.144, 588.2056
1182.072, 589.5067
1184.001, 590.2781
1185.929, 590.7980
1187.858, 591.4254
1189.786, 592.0233
1191.714, 593.0518
1193.643, 594.5921
1195.571, 596.3806
1197.500, 598.2941
1199.428, 600.2802
1201.357, 601.8928
1203.285, 603.2762
1205.214, 604.0627
1207.142, 603.9686
1209.071, 603.3390
1210.999, 602.7112
1212.928, 602.1147
1214.856, 601.9055
1216.785, 602.5627
1218.713, 603.3600
1220.641, 603.7229
1222.570, 603.7039
1224.498, 604.0295
1226.427, 604.3047
1228.355, 605.4634
1230.284, 609.0671
1232.212, 613.0052
1234.141, 613.9185
1236.069, 609.3873
1237.998, 607.7912
1239.926, 612.0151
1241.855, 616.4021
1243.783, 617.3622
1245.712, 615.9701
1247.640, 616.4866
1249.568, 619.9561
1251.497, 622.5994
1253.425, 622.4242
1255.354, 621.4014
1257.282, 621.2963
1259.211, 622.1436
1261.139, 622.9781
1263.068, 623.7556
1264.996, 624.5077
1266.925, 625.1459
1268.853, 625.8469
1270.782, 626.9713
1272.710, 628.7858
1274.639, 630.6664
1276.567, 632.5331
1278.495, 634.4549
1280.424, 636.6420
1282.352, 638.8973
1284.281, 640.2355
1286.209, 639.9806
1288.138, 640.1180
1290.066, 641.8373
1291.995, 643.9332
1293.923, 645.4632
1295.852, 646.5119
1297.780, 646.7872
1299.709, 645.4033
1301.637, 644.7291
1303.566, 645.9293
1305.494, 648.3313
1307.422, 650.5564
1309.351, 652.5357
1311.279, 654.2034
1313.208, 655.3649
1315.136, 656.2009
1317.065, 656.6094
1318.993, 656.6955
1320.922, 657.0975
1322.850, 657.7151
1324.779, 659.0339
1326.707, 662.2952
1328.636, 665.5420
1330.564, 666.6542
1332.493, 666.0429
1334.421, 666.1904
1336.349, 667.2811
1338.278, 668.9241
1340.206, 671.5186
1342.135, 674.1819
1344.063, 676.0491
1345.992, 677.1351
1347.920, 677.8838
1349.849, 678.4263
1351.777, 678.7964
1353.706, 679.0524
1355.634, 679.2286
1357.563, 679.2798
1359.491, 678.8937
1361.420, 678.9788
1363.348, 679.0722
1365.276, 679.8699
1367.205, 682.1649
1369.133, 685.2433
1371.062, 687.1877
1372.990, 687.6871
1374.919, 688.2886
1376.847, 689.7343
1378.776, 691.0111
1380.704, 691.3370
1382.633, 691.1827
1384.561, 691.6705
1386.490, 693.0352
1388.418, 694.5191
1390.347, 695.9910
1392.275, 697.4213
1394.203, 698.6693
1396.132, 699.7430
1398.060, 701.0046
1399.989, 702.5313
1401.917, 703.9020
1403.846, 704.7416
1405.774, 705.5960
1407.703, 707.2668
1409.631, 709.6662
1411.560, 710.5678
1413.488, 708.6840
1415.417, 707.3180
1417.345, 706.4919
1419.274, 706.7376
1421.202, 708.9486
1423.130, 713.0372
1425.059, 716.5132
1426.987, 719.2460
1428.916, 721.4089
1430.844, 722.3336
1432.773, 723.0031
1434.701, 724.6920
1436.630, 726.9883
1438.558, 727.6695
1440.487, 725.9485
1442.415, 724.6649
1444.344, 724.9975
1446.272, 726.1627
1448.201, 727.8043
1450.129, 729.8458
1452.057, 731.3915
1453.986, 731.9247
1455.914, 732.8753
1457.843, 734.5402
1459.771, 736.5944
1461.700, 739.0999
1463.628, 741.9274
1465.557, 743.6541
1467.485, 743.7775
1469.414, 743.6721
1471.342, 743.1110
1473.271, 742.9000
1475.199, 744.2071
1477.128, 746.6978
1479.056, 747.6253
1480.984, 744.8761
1482.913, 743.9316
1484.841, 746.9918
1486.770, 750.0194
1488.698, 749.4355
1490.627, 746.6143
1492.555, 747.1866
1494.484, 752.4227
1496.412, 756.2326
1498.341, 755.7029
1500.269, 755.6163
1502.198, 760.0701
1504.126, 766.2698
1506.055, 768.0372
1507.983, 764.8604
1509.911, 762.2208
1511.840, 760.8600
1513.768, 760.4900
1515.697, 761.1547
1517.625, 762.6898
1519.554, 765.3494
1521.482, 769.1582
1523.411, 771.3270
1525.339, 770.4401
1527.268, 769.8782
1529.196, 771.2597
1531.125, 773.3484
1533.053, 775.1599
1534.982, 776.6603
1536.910, 777.3412
1538.839, 776.3538
1540.767, 776.2364
1542.695, 778.5123
1544.624, 781.0135
1546.552, 781.8508
1548.481, 781.4512
1550.409, 782.6794
1552.338, 786.9323
1554.266, 789.7193
1556.195, 790.1072
1558.123, 789.6059
1560.052, 788.3034
1561.980, 786.7887
1563.909, 786.3656
1565.837, 787.2182
1567.766, 788.6536
1569.694, 791.6132
1571.622, 793.9030
1573.551, 794.3696
1575.479, 794.1733
1577.408, 794.6099
1579.336, 795.7012
1581.265, 797.1263
1583.193, 799.0410
1585.122, 801.0265
1587.050, 803.2014
1588.979, 805.2238
1590.907, 806.9586
1592.836, 808.3152
1594.764, 808.8369
1596.693, 808.0850
1598.621, 808.1063
1600.549, 809.7229
1602.478, 811.4041
1604.406, 812.7814
1606.335, 813.7527
1608.263, 813.9135
1610.192, 813.3348
1612.120, 813.4588
1614.049, 814.4020
1615.977, 816.0726
1617.906, 819.3068
1619.834, 822.5240
1621.763, 824.5941
1623.691, 825.6798
1625.620, 826.0499
1627.548, 825.4820
1629.476, 825.5003
1631.405, 826.4835
1633.333, 827.8799
1635.262, 829.7831
1637.190, 831.7361
1639.119, 832.9700
1641.047, 833.6454
1642.976, 835.3282
1644.904, 838.7875
1646.833, 841.1029
1648.761, 840.6808
1650.690, 839.6506
1652.618, 838.9543
1654.547, 838.7625
1656.475, 839.8388
1658.403, 842.3099
1660.332, 843.6796
1662.260, 843.0043
1664.189, 842.6608
1666.117, 843.7971
1668.046, 845.5643
1669.974, 847.2775
1671.903, 848.9858
1673.831, 851.0222
1675.760, 853.5304
1677.688, 855.1138
1679.617, 854.6160
1681.545, 854.3871
1683.474, 856.0912
1685.402, 858.3084
1687.330, 859.3141
1689.259, 859.3473
1691.187, 860.1411
1693.116, 862.4257
1695.044, 863.2878
1696.973, 860.3000
1698.901, 857.9734
1700.830, 859.7919
1702.758, 863.2299
1704.687, 863.6747
1706.615, 861.3806
1708.544, 862.8113
1710.472, 870.4114
1712.401, 876.2087
1714.329, 877.0030
1716.257, 876.3212
1718.186, 875.6799
1720.114, 875.2739
1722.043, 875.6214
1723.971, 876.7249
1725.900, 877.6272
1727.828, 878.0588
1729.757, 878.8132
1731.685, 880.3107
1733.614, 882.0313
1735.542, 884.0116
1737.471, 885.8156
1739.399, 886.3675
1741.328, 885.6467
1743.256, 885.3709
1745.184, 885.8781
1747.113, 886.6036
1749.041, 887.8720
1750.970, 888.8385
1752.898, 888.1146
1754.827, 886.9753
1756.755, 888.0823
1758.684, 891.3928
1760.612, 894.4355
1762.541, 897.3496
1764.469, 898.6416
1766.398, 896.3978
1768.326, 894.0318
1770.255, 894.0804
1772.183, 895.4819
1774.111, 896.5996
1776.040, 897.4731
1777.968, 898.1556
1779.897, 898.4681
1781.825, 899.2309
1783.754, 901.2051
1785.682, 903.0130
1787.611, 903.0803
1789.539, 902.8397
1791.468, 905.1781
1793.396, 909.5494
1795.325, 910.8220
1797.253, 907.3832
1799.182, 905.4100
1801.110, 907.5216
1803.038, 909.7770
1804.967, 910.1864
1806.895, 910.0242
1808.824, 910.6037
1810.752, 911.9637
1812.681, 914.4063
1814.609, 918.8572
1816.538, 920.7828
1818.466, 916.6967
1820.395, 913.9296
1822.323, 915.7274
1824.252, 918.7805
1826.180, 920.4901
1828.109, 921.1519
1830.037, 921.7247
1831.965, 922.3785
1833.894, 922.3370
1835.822, 920.2650
1837.751, 919.6815
1839.679, 921.8600
1841.608, 924.8746
1843.536, 928.1403
1845.465, 931.1085
1847.393, 932.5938
1849.322, 932.5130
1851.250, 933.4463
1853.179, 936.4547
1855.107, 938.2947
1857.036, 938.5784
1858.964, 938.2851
1860.892, 937.4780
1862.821, 936.6983
1864.749, 936.1112
1866.678, 935.9799
1868.606, 937.3451
1870.535, 940.4537
1872.463, 942.4743
1874.392, 942.2934
1876.320, 942.7050
1878.249, 945.1275
1880.177, 947.1318
1882.106, 947.3925
1884.034, 946.8558
1885.963, 946.4411
1887.891, 946.3693
1889.819, 947.6622
1891.748, 950.7885
1893.676, 952.0668
1895.605, 950.0597
1897.533, 948.0487
1899.462, 946.2138
1901.390, 945.5730
1903.319, 948.1051
1905.247, 951.4752
1907.176, 951.7648
1909.104, 949.5380
1911.033, 948.7059
1912.961, 949.9354
1914.890, 950.8705
1916.818, 950.3853
1918.746, 950.8408
1920.675, 954.0536
1922.603, 957.2303
1924.532, 957.6199
1926.460, 956.6562
1928.389, 957.5500
1930.317, 960.3703
1932.246, 961.4372
1934.174, 959.3790
1936.103, 958.3383
1938.031, 958.9824
1939.960, 960.0222
1941.888, 960.9350
1943.817, 962.2285
1945.745, 964.6683
1947.673, 967.3132
1949.602, 968.1102
1951.530, 966.9468
1953.459, 967.2080
1955.387, 969.2360
1957.316, 971.3517
1959.244, 974.1046
1961.173, 975.7089
1963.101, 975.0626
1965.030, 973.9990
1966.958, 973.4939
1968.887, 973.5206
1970.815, 974.2850
1972.744, 975.5123
1974.672, 975.6034
1976.600, 974.0965
1978.529, 974.7191
1980.457, 978.9901
1982.386, 982.9754
1984.314, 986.4464
1986.243, 988.3280
1988.171, 986.9887
1990.100, 984.7170
1992.028, 983.8515
1993.957, 984.3425
1995.885, 986.0858
1997.814, 989.3942
1999.742, 992.0328
2001.671, 993.4329
2003.599, 994.8710
2005.527, 996.5483
2007.456, 997.8470
2009.384, 998.3984
2011.313, 998.5666
2013.241, 998.7296
2015.170, 998.7249
2017.098, 998.0178
2019.027, 996.8686
2020.955, 996.7245
2022.884, 997.8216
2024.812, 999.1258
2026.741, 1000.692
2028.669, 1002.112
2030.598, 1003.324
2032.526, 1004.183
2034.454, 1004.086
2036.383, 1003.878
2038.311, 1004.565
2040.240, 1005.643
2042.168, 1005.671
2044.097, 1004.561
2046.025, 1005.178
2047.954, 1009.716
2049.882, 1011.717
2051.811, 1009.527
2053.739, 1007.484
2055.668, 1005.670
2057.596, 1005.219
2059.525, 1007.662
2061.453, 1010.926
2063.381, 1012.858
2065.310, 1013.811
2067.238, 1015.170
2069.167, 1016.738
2071.095, 1015.765
2073.024, 1011.322
2074.952, 1010.182
2076.881, 1015.759
2078.809, 1019.276
2080.738, 1015.229
2082.666, 1011.855
2084.594, 1014.256
2086.523, 1018.428
2088.451, 1020.816
2090.380, 1021.784
2092.308, 1022.153
2094.237, 1021.891
2096.165, 1020.538
2098.094, 1016.825
2100.022, 1016.250
2101.951, 1021.712
2103.879, 1024.625
2105.808, 1020.947
2107.736, 1018.300
2109.665, 1020.955
2111.593, 1024.282
2113.521, 1024.462
2115.450, 1023.630
2117.378, 1025.083
2119.307, 1027.936
2121.235, 1028.952
2123.164, 1028.048
2125.092, 1028.596
2127.021, 1032.007
2128.949, 1033.559
2130.878, 1030.922
2132.806, 1029.214
2134.735, 1029.634
2136.663, 1030.975
2138.592, 1032.912
2140.520, 1035.071
2142.448, 1037.804
2144.377, 1040.148
2146.305, 1039.765
2148.234, 1037.389
2150.162, 1036.419
2152.091, 1037.030
2154.019, 1038.603
2155.948, 1041.482
2157.876, 1043.915
2159.805, 1045.871
2161.733, 1046.774
2163.662, 1045.122
2165.590, 1043.946
2167.519, 1044.938
2169.447, 1046.806
2171.375, 1048.886
2173.304, 1050.719
2175.232, 1051.395
2177.161, 1051.108
2179.089, 1050.528
2181.018, 1049.642
2182.946, 1051.386
2184.875, 1056.596
2186.803, 1059.855
2188.732, 1059.623
2190.660, 1059.226
2192.589, 1059.900
2194.517, 1060.235
2196.446, 1059.130
2198.374, 1058.189
2200.302, 1059.225
2202.231, 1060.680
2204.159, 1060.074
2206.088, 1058.496
2208.016, 1058.691
2209.945, 1060.561
2211.873, 1063.148
2213.802, 1066.517
2215.730, 1068.391
2217.659, 1068.100
2219.587, 1068.548
2221.516, 1070.966
2223.444, 1072.626
2225.373, 1071.513
2227.301, 1071.216
2229.229, 1074.908
2231.158, 1078.373
2233.086, 1077.608
2235.015, 1075.313
2236.943, 1074.066
2238.872, 1074.067
2240.800, 1076.960
2242.729, 1082.065
2244.657, 1083.917
2246.586, 1082.494
2248.514, 1079.726
2250.443, 1075.497
2252.371, 1073.323
2254.300, 1074.826
2256.228, 1076.432
2258.156, 1076.612
2260.085, 1077.687
2262.013, 1081.201
2263.942, 1084.500
2265.870, 1085.366
2267.799, 1085.522
2269.727, 1086.675
2271.656, 1088.112
2273.584, 1089.089
2275.513, 1089.510
2277.441, 1088.579
2279.370, 1086.726
2281.298, 1086.161
2283.227, 1087.051
2285.155, 1088.726
2287.083, 1091.413
2289.012, 1093.882
2290.940, 1096.545
2292.869, 1097.932
2294.797, 1096.539
2296.726, 1095.679
2298.654, 1097.163
2300.583, 1098.482
2302.511, 1097.646
2304.440, 1097.118
2306.368, 1099.405
2308.297, 1102.591
2310.225, 1104.061
2312.154, 1104.734
2314.082, 1107.043
2316.010, 1110.459
2317.939, 1111.733
2319.867, 1110.615
2321.796, 1111.523
2323.724, 1114.902
2325.653, 1118.360
2327.581, 1122.180
2329.510, 1124.208
2331.438, 1123.639
2333.367, 1122.303
2335.295, 1119.818
2337.224, 1117.947
2339.152, 1116.849
2341.081, 1117.100
2343.009, 1119.444
2344.938, 1122.901
2346.866, 1130.375
2348.794, 1135.461
2350.723, 1125.568
2352.651, 1111.495
2354.580, 1115.980
2356.508, 1130.693
2358.437, 1131.634
2360.365, 1120.879
2362.294, 1115.984
2364.222, 1117.644
2366.151, 1118.620
2368.079, 1118.843
2370.008, 1117.933
2371.936, 1114.680
2373.865, 1114.075
2375.793, 1118.165
2377.721, 1121.225
2379.650, 1121.770
2381.578, 1121.577
2383.507, 1120.713
2385.435, 1120.109
2387.364, 1120.975
2389.292, 1121.258
2391.221, 1117.891
2393.149, 1115.197
2395.078, 1118.242
2397.006, 1123.401
2398.935, 1126.515
2400.863, 1127.934
2402.792, 1127.120
2404.720, 1125.349
2406.648, 1127.759
2408.577, 1133.165
2410.505, 1132.532
2412.434, 1125.455
2414.362, 1123.908
2416.291, 1130.264
2418.219, 1132.144
2420.148, 1128.253
2422.076, 1126.377
2424.005, 1127.641
2425.933, 1129.208
2427.862, 1130.521
2429.790, 1131.168
2431.719, 1130.068
2433.647, 1129.328
2435.575, 1129.289
2437.504, 1130.293
2439.432, 1134.475
2441.361, 1137.638
2443.289, 1136.596
2445.218, 1135.008
2447.146, 1134.713
2449.075, 1135.741
2451.003, 1139.549
2452.932, 1143.330
2454.860, 1142.346
2456.789, 1139.209
2458.717, 1139.157
2460.646, 1141.184
2462.574, 1141.961
2464.502, 1142.034
2466.431, 1144.276
2468.359, 1148.140
2470.288, 1149.932
2472.216, 1149.411
2474.145, 1147.939
2476.073, 1145.095
2478.002, 1143.553
2479.930, 1143.714
2481.859, 1144.248
2483.787, 1145.041
2485.716, 1147.312
2487.644, 1152.149
2489.573, 1155.205
2491.501, 1154.635
2493.429, 1153.850
2495.358, 1153.020
2497.286, 1152.977
2499.215, 1154.704
2501.143, 1156.041
2503.072, 1155.468
2505.000, 1155.587
2506.929, 1157.812
2508.857, 1160.776
2510.786, 1165.336
2512.714, 1168.205
2514.643, 1164.767
2516.571, 1160.780
2518.500, 1161.954
2520.428, 1165.250
2522.356, 1168.417
2524.285, 1170.611
2526.213, 1169.609
2528.142, 1167.532
2530.070, 1167.602
2531.999, 1169.246
2533.927, 1172.084
2535.856, 1175.290
2537.784, 1175.926
2539.713, 1174.460
2541.641, 1172.018
2543.570, 1169.400
2545.498, 1171.906
2547.427, 1178.907
2549.355, 1182.909
2551.283, 1183.488
2553.212, 1183.066
2555.140, 1181.262
2557.069, 1180.193
2558.997, 1179.837
2560.926, 1180.678
2562.854, 1182.918
2564.783, 1184.450
2566.711, 1184.808
2568.640, 1185.218
2570.568, 1185.479
2572.497, 1186.650
2574.425, 1190.299
2576.354, 1191.148
2578.282, 1187.321
2580.210, 1185.188
2582.139, 1186.567
2584.067, 1188.590
2585.996, 1191.839
2587.924, 1193.165
2589.853, 1189.089
2591.781, 1187.247
2593.710, 1191.626
2595.638, 1194.903
2597.567, 1194.061
2599.495, 1193.348
2601.424, 1194.222
2603.352, 1196.453
2605.281, 1201.562
2607.209, 1205.675
2609.137, 1206.040
2611.066, 1205.611
2612.994, 1205.306
2614.923, 1205.357
2616.851, 1206.367
2618.780, 1207.213
2620.708, 1206.858
2622.637, 1206.634
2624.565, 1207.336
2626.494, 1209.119
2628.422, 1213.205
2630.351, 1217.176
2632.279, 1218.451
2634.208, 1218.917
2636.136, 1220.983
2638.064, 1222.205
2639.993, 1218.373
2641.921, 1213.863
2643.850, 1214.750
2645.778, 1217.456
2647.707, 1217.713
2649.635, 1217.260
2651.564, 1218.306
2653.492, 1219.764
2655.421, 1219.414
2657.349, 1218.754
2659.278, 1220.353
2661.206, 1223.007
2663.135, 1225.141
2665.063, 1226.838
2666.991, 1227.981
2668.920, 1229.156
2670.848, 1231.661
2672.777, 1234.695
2674.705, 1236.748
2676.634, 1237.830
2678.562, 1236.783
2680.491, 1235.381
2682.419, 1238.343
2684.348, 1243.083
2686.276, 1244.820
2688.205, 1244.326
2690.133, 1242.107
2692.062, 1239.785
2693.990, 1242.180
2695.918, 1246.964
2697.847, 1248.315
2699.775, 1247.839
2701.704, 1249.211
2703.632, 1251.515
2705.561, 1252.532
2707.489, 1252.774
2709.418, 1254.128
2711.346, 1255.829
2713.275, 1255.267
2715.203, 1254.198
2717.132, 1257.929
2719.060, 1263.669
2720.989, 1263.325
2722.917, 1259.610
2724.845, 1258.423
2726.774, 1259.699
2728.702, 1265.040
2730.631, 1271.587
2732.559, 1272.661
2734.488, 1270.651
2736.416, 1270.536
2738.345, 1271.883
2740.273, 1274.707
2742.202, 1277.671
2744.130, 1277.712
2746.059, 1276.542
2747.987, 1277.280
2749.916, 1279.088
2751.844, 1280.456
2753.772, 1281.690
2755.701, 1283.697
2757.629, 1285.808
2759.558, 1287.828
2761.486, 1288.875
2763.415, 1285.465
2765.343, 1282.123
2767.272, 1287.978
2769.200, 1295.527
2771.129, 1292.813
2773.057, 1288.376
2774.986, 1293.867
2776.914, 1301.686
2778.843, 1303.379
2780.771, 1302.102
2782.699, 1300.036
2784.628, 1298.291
2786.556, 1297.682
2788.485, 1298.193
2790.413, 1299.600
2792.342, 1302.253
2794.270, 1308.550
2796.199, 1313.390
2798.127, 1311.455
2800.056, 1309.435
2801.984, 1313.635
2803.913, 1317.183
2805.841, 1313.815
2807.770, 1311.278
2809.698, 1314.756
2811.626, 1318.504
2813.555, 1319.314
2815.483, 1320.064
2817.412, 1322.171
2819.340, 1324.089
2821.269, 1324.367
2823.197, 1325.979
2825.126, 1331.694
2827.054, 1334.757
2828.983, 1330.198
2830.911, 1327.784
2832.840, 1330.844
2834.768, 1334.929
2836.697, 1339.682
2838.625, 1344.198
2840.553, 1348.536
2842.482, 1351.310
2844.410, 1351.207
2846.339, 1351.604
2848.267, 1352.553
2850.196, 1355.012
2852.124, 1359.237
2854.053, 1363.993
2855.981, 1369.364
2857.910, 1373.131
2859.838, 1374.735
2861.767, 1376.106
2863.695, 1377.162
2865.624, 1378.607
2867.552, 1380.646
2869.480, 1385.023
2871.409, 1391.461
2873.337, 1394.482
2875.266, 1394.830
2877.194, 1395.881
2879.123, 1397.724
2881.051, 1401.103
2882.980, 1404.943
2884.908, 1406.108
2886.837, 1406.261
2888.765, 1409.323
2890.694, 1413.613
2892.622, 1416.929
2894.551, 1419.764
2896.479, 1422.367
2898.407, 1425.073
2900.336, 1428.646
2902.264, 1431.704
2904.193, 1431.822
2906.121, 1432.979
2908.050, 1440.717
2909.978, 1446.541
2911.907, 1443.793
2913.835, 1441.304
2915.764, 1441.841
2917.692, 1444.219
2919.621, 1448.578
2921.549, 1453.286
2923.478, 1458.115
2925.406, 1462.553
2927.334, 1467.000
2929.263, 1468.494
2931.191, 1464.780
2933.120, 1465.534
2935.048, 1474.078
2936.977, 1477.115
2938.905, 1474.283
2940.834, 1474.821
2942.762, 1479.074
2944.691, 1479.922
2946.619, 1477.802
2948.548, 1477.701
2950.476, 1479.596
2952.405, 1484.141
2954.333, 1489.693
2956.261, 1492.083
2958.190, 1492.597
2960.118, 1493.097
2962.047, 1493.827
2963.975, 1495.670
2965.904, 1497.501
2967.832, 1498.072
2969.761, 1498.785
2971.689, 1501.402
2973.618, 1503.797
2975.546, 1504.427
2977.475, 1505.292
2979.403, 1507.024
2981.332, 1509.243
2983.260, 1512.054
2985.188, 1514.789
2987.117, 1517.520
2989.045, 1520.247
2990.974, 1523.529
2992.902, 1525.189
2994.831, 1524.144
2996.759, 1527.730
2998.688, 1535.633
3000.616, 1539.803
3002.545, 1540.148
3004.473, 1541.941
3006.402, 1544.668
3008.330, 1547.036
3010.259, 1548.497
3012.187, 1546.332
3014.115, 1544.145
3016.044, 1547.629
3017.972, 1553.521
3019.901, 1559.210
3021.829, 1563.867
3023.758, 1565.579
3025.686, 1567.604
3027.615, 1571.567
3029.543, 1576.792
3031.472, 1584.553
3033.400, 1590.201
3035.329, 1591.838
3037.257, 1593.811
3039.186, 1596.105
3041.114, 1600.918
3043.042, 1608.294
3044.971, 1613.751
3046.899, 1616.688
3048.828, 1617.215
3050.756, 1615.827
3052.685, 1615.280
3054.613, 1616.143
3056.542, 1620.866
3058.470, 1626.672
3060.399, 1627.269
3062.327, 1627.675
3064.256, 1634.776
3066.184, 1642.553
3068.113, 1646.247
3070.041, 1649.441
3071.969, 1653.988
3073.898, 1658.721
3075.826, 1663.934
3077.755, 1668.129
3079.683, 1670.371
3081.612, 1674.414
3083.540, 1681.400
3085.469, 1686.197
3087.397, 1688.648
3089.326, 1692.842
3091.254, 1698.270
3093.183, 1700.891
3095.111, 1701.931
3097.040, 1705.795
3098.968, 1710.868
3100.896, 1715.405
3102.825, 1719.143
3104.753, 1720.548
3106.682, 1722.784
3108.610, 1727.805
3110.539, 1733.498
3112.467, 1740.544
3114.396, 1744.267
3116.324, 1742.357
3118.253, 1741.360
3120.181, 1741.828
3122.110, 1747.757
3124.038, 1760.893
3125.967, 1764.820
3127.895, 1761.237
3129.823, 1761.228
3131.752, 1764.001
3133.680, 1767.781
3135.609, 1771.819
3137.537, 1775.537
3139.466, 1778.151
3141.394, 1777.944
3143.323, 1778.250
3145.251, 1783.192
3147.180, 1785.270
3149.108, 1780.063
3151.037, 1779.863
3152.965, 1791.083
3154.894, 1795.457
3156.822, 1790.434
3158.750, 1792.887
3160.679, 1801.695
3162.607, 1804.167
3164.536, 1802.371
3166.464, 1803.774
3168.393, 1806.480
3170.321, 1808.023
3172.250, 1808.552
3174.178, 1806.816
3176.107, 1806.343
3178.035, 1809.387
3179.964, 1813.526
3181.892, 1819.666
3183.821, 1821.739
3185.749, 1815.880
3187.677, 1816.769
3189.606, 1824.703
3191.534, 1827.826
3193.463, 1827.026
3195.391, 1833.877
3197.320, 1842.628
3199.248, 1835.944
3201.177, 1826.312
3203.105, 1827.969
3205.034, 1833.022
3206.962, 1838.803
3208.891, 1841.049
3210.819, 1834.740
3212.748, 1833.423
3214.676, 1842.790
3216.604, 1848.859
3218.533, 1850.856
3220.461, 1852.262
3222.390, 1853.664
3224.318, 1859.669
3226.247, 1867.236
3228.175, 1868.872
3230.104, 1866.974
3232.032, 1861.904
3233.961, 1857.526
3235.889, 1855.839
3237.818, 1857.093
3239.746, 1863.707
3241.675, 1867.579
3243.603, 1866.676
3245.531, 1865.389
3247.460, 1864.102
3249.388, 1867.419
3251.317, 1873.669
3253.245, 1874.982
3255.174, 1874.221
3257.102, 1876.728
3259.031, 1879.630
3260.959, 1880.523
3262.888, 1880.575
3264.816, 1880.433
3266.745, 1879.828
3268.673, 1879.019
3270.602, 1877.492
3272.530, 1875.233
3274.458, 1874.934
3276.387, 1876.612
3278.315, 1879.842
3280.244, 1883.542
3282.172, 1886.275
3284.101, 1886.779
3286.029, 1880.835
3287.958, 1877.184
3289.886, 1884.349
3291.815, 1888.152
3293.743, 1884.756
3295.672, 1882.501
3297.600, 1882.895
3299.529, 1883.561
3301.457, 1884.185
3303.385, 1881.313
3305.314, 1878.260
3307.242, 1883.225
3309.171, 1889.294
3311.099, 1888.901
3313.028, 1888.746
3314.956, 1894.368
3316.885, 1895.978
3318.813, 1890.417
3320.742, 1890.171
3322.670, 1896.793
3324.599, 1900.462
3326.527, 1901.444
3328.456, 1899.659
3330.384, 1898.017
3332.313, 1901.468
3334.241, 1905.742
3336.169, 1907.592
3338.098, 1909.004
3340.026, 1910.418
3341.955, 1912.214
3343.883, 1914.886
3345.812, 1915.235
3347.740, 1913.355
3349.669, 1909.105
3351.597, 1905.294
3353.526, 1910.679
3355.454, 1917.008
3357.383, 1916.808
3359.311, 1914.533
3361.240, 1910.029
3363.168, 1909.346
3365.096, 1914.215
3367.025, 1916.949
3368.953, 1916.985
3370.882, 1913.934
3372.810, 1909.815
3374.739, 1910.966
3376.667, 1912.322
3378.596, 1905.098
3380.524, 1900.364
3382.453, 1904.793
3384.381, 1909.029
3386.310, 1911.566
3388.238, 1910.364
3390.167, 1905.903
3392.095, 1903.823
3394.023, 1903.646
3395.952, 1904.661
3397.880, 1904.792
3399.809, 1900.497
3401.737, 1896.834
3403.666, 1896.139
3405.594, 1898.166
3407.523, 1903.619
3409.451, 1905.738
3411.380, 1904.254
3413.308, 1906.885
3415.237, 1912.408
3417.165, 1918.093
3419.094, 1924.881
3421.022, 1936.251
3422.950, 1944.881
3424.879, 1945.441
3426.807, 1951.435
3428.736, 1966.097
3430.664, 1979.863
3432.593, 1992.943
3434.521, 2008.062
3436.450, 2023.918
3438.378, 2035.933
3440.307, 2050.985
3442.235, 2076.852
3444.164, 2101.316
3446.092, 2121.059
3448.021, 2139.579
3449.949, 2157.328
3451.877, 2176.179
3453.806, 2195.760
3455.734, 2214.398
3457.663, 2232.658
3459.591, 2250.880
3461.520, 2269.185
3463.448, 2288.166
3465.377, 2305.017
3467.305, 2318.275
3469.234, 2334.709
3471.162, 2352.757
3473.091, 2361.511
3475.019, 2366.396
3476.948, 2374.809
3478.876, 2384.257
3480.804, 2396.848
3482.733, 2400.999
3484.661, 2389.378
3486.590, 2382.114
3488.518, 2378.550
3490.447, 2369.570
3492.375, 2356.075
3494.304, 2340.515
3496.232, 2320.935
3498.161, 2293.499
3500.089, 2266.932
3502.018, 2243.788
3503.946, 2222.627
3505.875, 2203.437
3507.803, 2185.083
3509.731, 2167.133
3511.660, 2146.772
3513.588, 2128.800
3515.517, 2119.010
3517.445, 2109.831
3519.374, 2099.006
3521.302, 2089.466
3523.231, 2081.921
3525.159, 2072.191
3527.088, 2063.009
3529.016, 2059.807
3530.945, 2061.496
3532.873, 2068.541
3534.802, 2078.108
3536.730, 2089.455
3538.658, 2103.031
3540.587, 2118.657
3542.515, 2138.396
3544.444, 2159.574
3546.372, 2175.744
3548.301, 2191.011
3550.229, 2208.374
3552.158, 2226.590
3554.086, 2247.433
3556.015, 2263.538
3557.943, 2275.401
3559.872, 2289.198
3561.800, 2301.853
3563.729, 2304.893
3565.657, 2305.864
3567.585, 2312.840
3569.514, 2312.527
3571.442, 2302.608
3573.371, 2285.223
3575.299, 2259.538
3577.228, 2219.961
3579.156, 2172.566
3581.085, 2122.528
3583.013, 2076.224
3584.942, 2040.325
3586.870, 2001.379
3588.799, 1957.671
3590.727, 1924.737
3592.656, 1900.611
3594.584, 1876.545
3596.512, 1856.478
3598.441, 1846.055
3600.369, 1837.752
3602.298, 1829.126
3604.226, 1821.804
3606.155, 1816.159
3608.083, 1816.573
3610.012, 1821.761
3611.940, 1825.691
3613.869, 1837.614
3615.797, 1858.454
3617.726, 1902.417
3619.654, 1973.031
3621.583, 2082.123
3623.511, 2216.582
3625.439, 2349.606
3627.368, 2424.635
3629.296, 2351.531
3631.225, 2237.195
3633.153, 2100.944
3635.082, 2003.866
3637.010, 1949.182
3638.939, 1918.438
3640.867, 1903.600
3642.796, 1897.787
3644.724, 1889.339
3646.653, 1871.875
3648.581, 1852.028
3650.510, 1830.710
3652.438, 1809.153
3654.366, 1789.384
3656.295, 1775.301
3658.223, 1767.031
3660.152, 1765.154
3662.080, 1767.504
3664.009, 1775.546
3665.937, 1781.719
3667.866, 1786.759
3669.794, 1792.749
3671.723, 1801.628
3673.651, 1814.773
3675.580, 1834.182
3677.508, 1863.272
3679.437, 1895.763
3681.365, 1928.429
3683.293, 1937.308
3685.222, 1925.494
3687.150, 1887.241
3689.079, 1845.057
3691.007, 1805.336
3692.936, 1775.946
3694.864, 1757.109
3696.793, 1747.158
3698.721, 1744.937
3700.650, 1750.984
3702.578, 1761.108
3704.507, 1767.425
3706.435, 1794.484
3708.364, 1844.652
3710.292, 1894.507
3712.220, 1927.542
3714.149, 1902.818
3716.077, 1852.358
3718.006, 1784.123
3719.934, 1732.777
3721.863, 1703.370
3723.791, 1685.734
3725.720, 1676.505
3727.648, 1669.977
3729.577, 1665.564
3731.505, 1662.670
3733.434, 1661.713
3735.362, 1662.771
3737.291, 1662.372
3739.219, 1661.094
3741.147, 1659.870
3743.076, 1660.265
3745.004, 1663.952
3746.933, 1667.547
3748.861, 1670.575
3750.790, 1670.528
3752.718, 1669.240
3754.647, 1671.952
3756.575, 1674.429
3758.504, 1672.850
3760.432, 1674.848
3762.361, 1681.904
3764.289, 1678.615
3766.218, 1671.045
3768.146, 1672.768
3770.074, 1675.978
3772.003, 1676.730
3773.931, 1676.469
3775.860, 1675.524
3777.788, 1678.594
3779.717, 1682.725
3781.645, 1681.864
3783.574, 1681.287
3785.502, 1683.809
3787.431, 1685.189
3789.359, 1685.177
3791.288, 1686.075
3793.216, 1686.637
3795.145, 1684.740
3797.073, 1682.495
3799.001, 1679.887
3800.930, 1681.693
3802.858, 1686.997
3804.787, 1690.002
3806.715, 1691.779
3808.644, 1692.081
3810.572, 1694.309
3812.501, 1700.383
3814.429, 1701.267
3816.358, 1699.091
3818.286, 1700.051
3820.215, 1702.972
3822.143, 1708.753
3824.072, 1710.069
3826.000, 1704.842
3827.928, 1702.786
3829.857, 1703.331
3831.785, 1707.932
3833.714, 1708.828
3835.642, 1701.077
3837.571, 1701.515
3839.499, 1710.157
3841.428, 1707.825
3843.356, 1702.167
3845.285, 1699.651
3847.213, 1701.389
3849.142, 1707.762
3851.070, 1712.137
3852.999, 1714.556
3854.927, 1715.152
3856.855, 1716.829
3858.784, 1724.219
3860.712, 1726.740
3862.641, 1723.733
3864.569, 1721.185
3866.498, 1722.227
3868.426, 1732.394
3870.355, 1740.691
3872.283, 1742.871
3874.212, 1744.699
3876.140, 1745.571
3878.069, 1741.879
3879.997, 1739.848
3881.926, 1744.227
3883.854, 1750.065
3885.782, 1757.007
3887.711, 1754.461
3889.639, 1750.333
3891.568, 1758.167
3893.496, 1766.175
3895.425, 1772.107
3897.353, 1772.786
3899.282, 1770.100
3901.210, 1772.356
3903.139, 1775.734
3905.067, 1778.470
3906.996, 1779.704
3908.924, 1778.253
3910.853, 1779.054
3912.781, 1782.191
3914.709, 1788.369
3916.638, 1795.830
3918.566, 1802.677
3920.495, 1805.628
3922.423, 1805.638
3924.352, 1803.211
3926.280, 1803.019
3928.209, 1805.636
3930.137, 1809.520
3932.066, 1814.819
3933.994, 1816.633
3935.923, 1820.440
3937.851, 1828.876
3939.780, 1829.840
3941.708, 1824.160
3943.636, 1822.707
3945.565, 1826.834
3947.493, 1833.543
3949.422, 1837.103
3951.350, 1839.515
3953.279, 1842.671
3955.207, 1845.656
3957.136, 1847.802
3959.064, 1849.742
3960.993, 1852.556
3962.921, 1849.729
3964.850, 1845.341
3966.778, 1852.450
3968.707, 1858.772
3970.635, 1858.606
3972.563, 1861.254
3974.492, 1864.582
3976.420, 1865.164
3978.349, 1865.951
3980.277, 1870.753
3982.206, 1876.095
3984.134, 1876.473
3986.063, 1876.487
3987.991, 1876.994
3989.920, 1876.263
3991.848, 1879.690
3993.777, 1882.777
3995.705, 1881.876
3997.634, 1884.978
3999.562, 1888.446
4001.490, 1890.151
4003.419, 1893.612
4005.347, 1898.226
4007.276, 1902.931
4009.204, 1900.475
4011.133, 1900.779
4013.061, 1908.923
4014.990, 1910.766
4016.918, 1911.757
4018.847, 1912.286
4020.775, 1911.714
4022.704, 1918.730
4024.632, 1922.740
4026.561, 1923.641
4028.489, 1931.145
4030.417, 1937.225
4032.346, 1938.700
4034.274, 1942.186
4036.203, 1946.925
4038.131, 1943.892
4040.060, 1942.620
4041.988, 1948.572
4043.917, 1952.465
4045.845, 1955.356
4047.774, 1958.909
4049.702, 1963.339
4051.631, 1967.419
4053.559, 1968.354
4055.488, 1971.529
4057.416, 1978.656
4059.344, 1982.320
4061.273, 1982.245
4063.201, 1985.364
4065.130, 1989.635
4067.058, 1990.742
4068.987, 1989.273
4070.915, 1980.727
4072.844, 1977.672
4074.772, 1983.803
4076.701, 1991.258
4078.629, 1996.408
4080.558, 1996.531
4082.486, 1995.086
4084.415, 1994.698
4086.343, 2005.364
4088.271, 2017.437
4090.200, 2021.804
4092.128, 2023.161
4094.057, 2021.241
4095.985, 2021.500
4097.914, 2023.500
4099.842, 2024.543
4101.771, 2027.777
4103.699, 2035.788
4105.627, 2036.309
4107.556, 2033.092
4109.484, 2036.478
4111.413, 2041.644
4113.341, 2046.739
4115.270, 2048.303
4117.198, 2048.173
4119.127, 2045.525
4121.055, 2045.731
4122.984, 2053.276
4124.912, 2053.232
4126.841, 2049.960
4128.769, 2053.853
4130.698, 2060.985
4132.626, 2069.778
4134.555, 2070.889
4136.483, 2069.202
4138.412, 2075.093
4140.340, 2078.929
4142.269, 2077.875
4144.197, 2077.860
4146.125, 2079.977
4148.054, 2087.124
4149.982, 2093.310
4151.911, 2096.492
4153.839, 2098.937
4155.768, 2100.938
4157.696, 2103.106
4159.625, 2104.074
4161.553, 2103.192
4163.481, 2104.160
4165.410, 2106.644
4167.338, 2110.046
4169.267, 2114.978
4171.195, 2121.431
4173.124, 2122.748
4175.052, 2122.473
4176.981, 2126.017
4178.909, 2129.136
4180.838, 2130.975
4182.766, 2128.547
4184.695, 2126.893
4186.623, 2133.616
4188.552, 2138.886
4190.480, 2141.239
4192.409, 2145.255
4194.337, 2148.366
4196.266, 2147.386
4198.194, 2148.540
4200.123, 2151.882
4202.051, 2152.163
4203.979, 2153.586
4205.908, 2162.551
4207.836, 2164.033
4209.765, 2158.088
4211.693, 2154.915
4213.622, 2157.090
4215.550, 2169.291
4217.479, 2173.390
4219.407, 2170.237
4221.335, 2172.799
4223.264, 2177.810
4225.192, 2184.294
4227.121, 2186.827
4229.049, 2187.167
4230.978, 2189.952
4232.906, 2192.628
4234.835, 2194.467
4236.763, 2196.706
4238.692, 2199.125
4240.620, 2200.630
4242.549, 2200.926
4244.477, 2199.536
4246.406, 2198.377
4248.334, 2198.362
4250.263, 2200.908
4252.191, 2205.058
4254.120, 2210.495
4256.048, 2208.880
4257.977, 2207.143
4259.905, 2211.907
4261.833, 2215.307
4263.762, 2216.963
4265.690, 2220.366
4267.619, 2222.743
4269.547, 2222.115
4271.476, 2220.509
4273.404, 2219.721
4275.333, 2227.493
4277.261, 2230.377
4279.189, 2221.977
4281.118, 2225.723
4283.046, 2234.301
4284.975, 2237.502
4286.903, 2237.563
4288.832, 2234.809
4290.760, 2242.062
4292.689, 2247.661
4294.617, 2239.547
4296.546, 2236.970
4298.474, 2240.478
4300.403, 2244.050
4302.331, 2245.287
4304.260, 2241.555
4306.188, 2245.134
4308.117, 2251.675
4310.045, 2252.481
4311.974, 2251.402
4313.902, 2249.554
4315.831, 2252.166
4317.759, 2255.126
4319.688, 2253.633
4321.616, 2253.333
4323.544, 2254.404
4325.473, 2254.048
4327.401, 2255.240
4329.330, 2260.281
4331.258, 2261.262
4333.187, 2260.279
4335.115, 2260.689
4337.043, 2264.958
4338.972, 2273.038
4340.900, 2274.164
4342.829, 2271.297
4344.757, 2265.640
4346.686, 2265.063
4348.614, 2268.988
4350.543, 2272.031
4352.471, 2276.784
4354.400, 2284.716
4356.328, 2282.587
4358.257, 2277.220
4360.185, 2280.568
4362.114, 2282.757
4364.042, 2282.648
4365.971, 2287.079
4367.899, 2289.967
4369.828, 2285.500
4371.756, 2283.123
4373.685, 2284.029
4375.613, 2291.744
4377.542, 2296.626
4379.470, 2295.555
4381.398, 2292.292
4383.327, 2290.695
4385.255, 2296.005
4387.184, 2300.014
4389.112, 2302.669
4391.041, 2308.664
4392.969, 2311.451
4394.897, 2307.267
4396.826, 2307.328
4398.754, 2308.876
4400.683, 2307.859
4402.611, 2307.827
4404.540, 2309.629
4406.468, 2319.246
4408.397, 2324.221
4410.325, 2318.439
4412.254, 2315.282
4414.182, 2314.447
4416.111, 2315.099
4418.039, 2314.297
4419.968, 2312.683
4421.896, 2316.776
4423.825, 2320.774
4425.753, 2321.370
4427.682, 2323.541
4429.610, 2324.929
4431.539, 2317.963
4433.467, 2320.807
4435.396, 2333.963
4437.324, 2336.373
4439.252, 2335.897
4441.181, 2335.811
4443.109, 2342.512
4445.038, 2350.324
4446.966, 2349.932
4448.895, 2347.306
4450.823, 2344.410
4452.751, 2348.555
4454.680, 2353.949
4456.608, 2358.169
4458.537, 2356.164
4460.465, 2353.541
4462.394, 2357.430
4464.322, 2366.217
4466.251, 2374.555
4468.179, 2359.891
4470.108, 2348.792
4472.036, 2354.016
4473.965, 2352.716
4475.893, 2349.358
4477.822, 2348.751
4479.750, 2350.968
4481.679, 2354.247
4483.607, 2351.041
4485.536, 2351.379
4487.464, 2358.211
4489.393, 2358.163
4491.321, 2356.628
4493.250, 2357.646
4495.178, 2357.857
4497.106, 2359.612
4499.035, 2372.105
4500.963, 2374.520
4502.892, 2365.507
4504.820, 2368.124
4506.749, 2369.776
4508.677, 2360.231
4510.605, 2359.542
4512.534, 2362.671
4514.462, 2363.130
4516.391, 2364.367
4518.319, 2366.021
4520.248, 2363.399
4522.176, 2366.600
4524.105, 2377.275
4526.033, 2373.802
4527.962, 2367.336
4529.890, 2366.614
4531.819, 2362.820
4533.747, 2360.156
4535.676, 2368.896
4537.604, 2375.074
4539.533, 2376.621
4541.461, 2373.585
4543.390, 2372.893
4545.318, 2377.400
4547.247, 2379.828
4549.175, 2381.119
4551.104, 2381.920
4553.032, 2385.850
4554.960, 2390.358
4556.889, 2389.780
4558.817, 2387.334
4560.746, 2384.520
4562.674, 2387.141
4564.603, 2390.693
4566.531, 2393.442
4568.459, 2392.120
4570.388, 2391.839
4572.316, 2397.618
4574.245, 2400.201
4576.173, 2399.423
4578.102, 2394.577
4580.030, 2392.721
4581.959, 2395.174
4583.887, 2404.445
4585.816, 2408.720
4587.744, 2402.595
4589.673, 2400.708
4591.601, 2402.489
4593.530, 2408.566
4595.458, 2408.948
4597.387, 2407.818
4599.315, 2412.517
4601.244, 2414.911
4603.172, 2414.794
4605.101, 2413.765
4607.029, 2413.617
4608.958, 2414.909
4610.886, 2420.416
4612.814, 2426.811
4614.743, 2432.959
4616.671, 2420.287
4618.600, 2408.434
4620.528, 2416.691
4622.457, 2417.206
4624.385, 2413.636
4626.313, 2415.907
4628.242, 2420.611
4630.170, 2425.079
4632.099, 2417.819
4634.027, 2417.577
4635.956, 2427.025
4637.884, 2420.763
4639.813, 2414.551
4641.741, 2416.290
4643.670, 2415.127
4645.598, 2414.247
4647.527, 2416.839
4649.455, 2422.636
4651.384, 2428.789
4653.312, 2431.629
4655.241, 2430.375
4657.169, 2426.869
4659.098, 2424.553
4661.026, 2427.547
4662.955, 2434.631
4664.883, 2431.594
4666.812, 2425.530
4668.740, 2418.898
4670.668, 2423.124
4672.597, 2425.131
4674.525, 2416.870
4676.454, 2420.161
4678.382, 2426.994
4680.311, 2427.066
4682.239, 2430.946
4684.167, 2434.082
4686.096, 2425.997
4688.024, 2423.328
4689.953, 2425.116
4691.881, 2421.155
4693.810, 2421.058
4695.738, 2425.059
4697.667, 2421.615
4699.595, 2423.614
4701.524, 2435.319
4703.452, 2426.937
4705.381, 2420.130
4707.309, 2424.941
4709.238, 2429.062
4711.166, 2429.126
4713.095, 2419.639
4715.023, 2420.595
4716.952, 2425.467
4718.880, 2427.099
4720.809, 2424.396
4722.737, 2421.123
4724.666, 2424.478
4726.594, 2426.230
4728.522, 2425.408
4730.451, 2421.515
4732.379, 2417.594
4734.308, 2415.014
4736.236, 2418.924
4738.165, 2418.588
4740.093, 2413.724
4742.021, 2421.466
4743.950, 2424.735
4745.878, 2416.620
4747.807, 2424.503
4749.735, 2430.483
4751.664, 2426.353
4753.592, 2421.896
4755.521, 2421.763
4757.449, 2432.529
4759.378, 2426.507
4761.306, 2419.084
4763.235, 2424.841
4765.163, 2428.037
4767.092, 2429.599
4769.020, 2433.136
4770.949, 2431.779
4772.877, 2428.487
4774.806, 2427.438
4776.734, 2432.124
4778.663, 2437.392
4780.591, 2431.959
4782.520, 2423.992
4784.448, 2418.345
4786.376, 2428.256
4788.305, 2428.999
4790.233, 2421.767
4792.162, 2428.151
4794.090, 2430.532
4796.019, 2427.247
4797.947, 2429.642
4799.875, 2433.465
4801.804, 2436.900
4803.732, 2436.532
4805.661, 2435.087
4807.589, 2433.647
4809.518, 2429.731
4811.446, 2429.722
4813.375, 2436.175
4815.303, 2438.874
4817.232, 2441.444
4819.160, 2444.708
4821.089, 2436.551
4823.017, 2431.229
4824.946, 2437.457
4826.874, 2445.763
4828.803, 2446.873
4830.731, 2436.262
4832.660, 2435.215
4834.588, 2437.222
4836.517, 2438.218
4838.445, 2430.216
4840.374, 2425.089
4842.302, 2430.989
4844.230, 2432.770
4846.159, 2431.244
4848.087, 2426.097
4850.016, 2426.441
4851.944, 2428.248
4853.873, 2428.531
4855.801, 2422.301
4857.729, 2418.028
4859.658, 2425.652
4861.586, 2431.650
4863.515, 2433.168
4865.443, 2427.251
4867.372, 2424.361
4869.300, 2427.007
4871.229, 2440.964
4873.157, 2441.264
4875.086, 2436.406
4877.014, 2434.487
4878.943, 2426.784
4880.871, 2421.982
4882.800, 2431.098
4884.728, 2434.313
4886.657, 2434.939
4888.585, 2437.003
4890.514, 2431.744
4892.442, 2425.237
4894.371, 2423.390
4896.299, 2424.696
4898.228, 2424.461
4900.156, 2417.904
4902.084, 2427.574
4904.013, 2435.725
4905.941, 2425.924
4907.870, 2419.892
4909.798, 2419.263
4911.727, 2425.126
4913.655, 2424.573
4915.583, 2421.758
4917.512, 2419.939
4919.440, 2418.535
4921.369, 2416.936
4923.297, 2414.454
4925.226, 2416.288
4927.154, 2419.963
4929.083, 2423.974
4931.011, 2427.759
4932.940, 2430.483
4934.868, 2431.651
4936.797, 2434.209
4938.725, 2431.793
4940.654, 2423.227
4942.582, 2420.398
4944.511, 2421.249
4946.439, 2424.190
4948.368, 2420.601
4950.296, 2412.668
4952.225, 2404.340
4954.153, 2415.972
4956.082, 2422.919
4958.010, 2420.493
4959.938, 2418.096
4961.867, 2417.644
4963.795, 2418.308
4965.724, 2416.076
4967.652, 2409.486
4969.581, 2402.703
4971.509, 2408.310
4973.438, 2410.785
4975.366, 2408.454
4977.294, 2400.602
4979.223, 2403.860
4981.151, 2412.235
4983.080, 2416.086
4985.008, 2409.927
4986.937, 2401.103
4988.865, 2396.663
4990.794, 2402.987
4992.722, 2407.212
4994.651, 2397.524
4996.579, 2399.652
4998.508, 2404.017
5000.436, 2403.792
5002.365, 2399.701
5004.293, 2397.184
5006.222, 2397.935
5008.150, 2391.917
5010.079, 2392.588
5012.007, 2403.133
5013.936, 2408.204
5015.864, 2401.800
5017.792, 2388.952
5019.721, 2396.915
5021.649, 2394.104
5023.578, 2383.991
5025.506, 2392.117
5027.435, 2391.790
5029.363, 2388.302
5031.292, 2396.590
5033.220, 2402.945
5035.148, 2404.677
5037.077, 2399.618
5039.005, 2393.875
5040.934, 2390.439
5042.862, 2391.405
5044.791, 2390.219
5046.719, 2389.264
5048.648, 2389.094
5050.576, 2376.558
5052.505, 2372.009
5054.433, 2379.519
5056.362, 2375.181
5058.290, 2373.675
5060.219, 2377.161
5062.147, 2385.619
5064.076, 2380.795
5066.004, 2369.229
5067.933, 2364.827
5069.861, 2370.912
5071.790, 2377.262
5073.718, 2373.028
5075.646, 2363.948
5077.575, 2358.664
5079.503, 2363.013
5081.432, 2364.963
5083.360, 2366.940
5085.289, 2369.382
5087.217, 2363.200
5089.146, 2367.404
5091.074, 2378.823
5093.002, 2369.548
5094.931, 2366.132
5096.859, 2368.130
5098.788, 2366.749
5100.716, 2363.910
5102.645, 2362.388
5104.573, 2365.020
5106.502, 2364.036
5108.430, 2361.353
5110.359, 2358.423
5112.287, 2362.609
5114.216, 2365.585
5116.144, 2364.908
5118.073, 2361.729
5120.001, 2362.618
5121.930, 2366.072
5123.858, 2367.176
5125.787, 2359.394
5127.715, 2350.018
5129.644, 2348.259
5131.572, 2347.222
5133.500, 2349.338
5135.429, 2356.206
5137.357, 2349.476
5139.286, 2346.780
5141.214, 2353.228
5143.143, 2360.278
5145.071, 2357.893
5147.000, 2349.934
5148.928, 2348.376
5150.856, 2350.204
5152.785, 2350.543
5154.713, 2341.829
5156.642, 2344.669
5158.570, 2348.387
5160.499, 2346.864
5162.427, 2341.108
5164.356, 2338.011
5166.284, 2337.218
5168.213, 2327.525
5170.141, 2324.127
5172.070, 2326.509
5173.998, 2330.202
5175.927, 2334.460
5177.855, 2335.703
5179.784, 2331.329
5181.712, 2320.287
5183.641, 2312.393
5185.569, 2311.407
5187.498, 2317.502
5189.426, 2318.973
5191.354, 2315.480
5193.283, 2309.224
5195.211, 2311.306
5197.140, 2316.711
5199.068, 2320.912
5200.997, 2313.122
5202.925, 2309.026
5204.854, 2312.985
5206.782, 2311.514
5208.710, 2308.906
5210.639, 2306.941
5212.567, 2307.870
5214.496, 2306.050
5216.424, 2302.105
5218.353, 2296.818
5220.281, 2286.979
5222.210, 2286.017
5224.138, 2293.889
5226.067, 2285.497
5227.995, 2287.552
5229.924, 2295.765
5231.852, 2296.470
5233.781, 2289.901
5235.709, 2286.626
5237.638, 2293.028
5239.566, 2288.520
5241.495, 2283.027
5243.423, 2280.273
5245.352, 2281.695
5247.280, 2282.166
5249.208, 2280.684
5251.137, 2275.917
5253.065, 2278.712
5254.994, 2278.676
5256.922, 2272.923
5258.851, 2280.260
5260.779, 2274.494
5262.708, 2261.007
5264.636, 2261.526
5266.564, 2264.669
5268.493, 2265.998
5270.421, 2263.011
5272.350, 2260.796
5274.278, 2258.245
5276.207, 2256.441
5278.135, 2260.669
5280.064, 2263.675
5281.992, 2262.068
5283.921, 2250.679
5285.849, 2249.808
5287.778, 2249.566
5289.706, 2247.302
5291.635, 2253.910
5293.563, 2253.361
5295.492, 2247.616
5297.420, 2243.635
5299.349, 2232.980
5301.277, 2228.402
5303.206, 2235.562
5305.134, 2243.735
5307.063, 2240.088
5308.991, 2229.642
5310.919, 2225.366
5312.848, 2220.457
5314.776, 2220.031
5316.705, 2226.703
5318.633, 2213.984
5320.562, 2214.109
5322.490, 2222.423
5324.418, 2211.598
5326.347, 2219.541
5328.275, 2225.680
5330.204, 2215.542
5332.132, 2212.577
5334.061, 2212.907
5335.989, 2213.673
5337.918, 2211.419
5339.846, 2212.311
5341.775, 2211.339
5343.703, 2205.373
5345.632, 2202.759
5347.560, 2195.072
5349.489, 2185.330
5351.417, 2184.654
5353.346, 2182.227
5355.274, 2182.541
5357.203, 2188.374
5359.131, 2190.593
5361.060, 2188.328
5362.988, 2184.035
5364.917, 2182.397
5366.845, 2175.304
5368.773, 2170.406
5370.702, 2171.203
5372.630, 2165.555
5374.559, 2164.641
5376.487, 2165.287
5378.416, 2159.140
5380.344, 2159.595
5382.272, 2156.093
5384.201, 2147.966
5386.129, 2158.208
5388.058, 2157.663
5389.986, 2151.658
5391.915, 2151.017
5393.843, 2148.499
5395.772, 2140.827
5397.700, 2132.515
5399.629, 2141.602
5401.557, 2140.668
5403.486, 2133.446
5405.414, 2126.213
5407.343, 2122.478
5409.271, 2121.499
5411.200, 2120.775
5413.128, 2116.287
5415.057, 2107.673
5416.985, 2106.452
5418.914, 2113.942
5420.842, 2103.360
5422.771, 2093.373
5424.699, 2092.596
5426.627, 2105.752
5428.556, 2099.290
5430.484, 2097.280
5432.413, 2101.883
5434.341, 2092.169
5436.270, 2087.581
5438.198, 2085.257
5440.126, 2082.198
5442.055, 2081.507
5443.983, 2081.939
5445.912, 2080.204
5447.840, 2072.431
5449.769, 2077.983
5451.697, 2080.447
5453.626, 2074.856
5455.554, 2066.933
5457.483, 2058.233
5459.411, 2053.862
5461.340, 2056.261
5463.268, 2055.765
5465.197, 2053.854
5467.125, 2050.683
5469.054, 2045.850
5470.982, 2048.985
5472.911, 2047.248
5474.839, 2040.039
5476.768, 2038.979
5478.696, 2037.569
5480.625, 2038.627
5482.553, 2042.209
5484.481, 2035.167
5486.410, 2028.996
5488.338, 2026.254
5490.267, 2027.234
5492.195, 2033.348
5494.124, 2031.470
5496.052, 2023.168
5497.980, 2018.642
5499.909, 2010.907
5501.837, 2008.562
5503.766, 2012.002
5505.694, 2008.298
5507.623, 2008.290
5509.551, 2006.885
5511.480, 2000.302
5513.408, 1992.892
5515.337, 1989.642
5517.265, 1988.632
5519.194, 1987.016
5521.122, 1985.062
5523.051, 1982.784
5524.979, 1982.871
5526.908, 1990.890
5528.836, 1991.078
5530.765, 1989.026
5532.693, 1988.447
5534.622, 1992.663
5536.550, 1986.071
5538.479, 1977.448
5540.407, 1973.406
5542.335, 1975.994
5544.264, 1976.865
5546.192, 1975.566
5548.121, 1972.761
5550.049, 1970.299
5551.978, 1969.383
5553.906, 1964.284
5555.834, 1949.680
5557.763, 1950.777
5559.691, 1951.760
5561.620, 1949.940
5563.548, 1948.766
5565.477, 1941.420
5567.405, 1942.866
5569.334, 1949.814
5571.262, 1938.647
5573.191, 1941.480
5575.119, 1943.671
5577.048, 1938.332
5578.976, 1926.210
5580.905, 1923.790
5582.833, 1921.792
5584.762, 1916.618
5586.690, 1921.772
5588.619, 1919.562
5590.547, 1916.512
5592.476, 1916.443
5594.404, 1899.297
5596.333, 1897.897
5598.261, 1898.965
5600.189, 1888.972
5602.118, 1898.339
5604.046, 1896.091
5605.975, 1889.026
5607.903, 1889.024
5609.832, 1887.160
5611.760, 1880.884
5613.688, 1874.970
5615.617, 1874.009
5617.545, 1862.768
5619.474, 1862.442
5621.402, 1868.167
5623.331, 1867.284
5625.259, 1866.528
5627.188, 1868.921
5629.116, 1869.419
5631.045, 1859.901
5632.973, 1858.024
5634.902, 1856.547
5636.830, 1851.601
5638.759, 1841.511
5640.687, 1841.705
5642.616, 1840.796
5644.544, 1837.214
5646.473, 1834.318
5648.401, 1833.762
5650.330, 1829.310
5652.258, 1823.784
5654.187, 1825.745
5656.115, 1824.559
5658.043, 1814.790
5659.972, 1804.213
5661.900, 1806.663
5663.829, 1800.717
5665.757, 1798.591
5667.686, 1799.391
5669.614, 1796.822
5671.542, 1803.466
5673.471, 1799.679
5675.399, 1792.126
5677.328, 1796.278
5679.256, 1791.011
5681.185, 1787.363
5683.113, 1785.408
5685.042, 1780.802
5686.970, 1779.352
5688.899, 1774.399
5690.827, 1771.153
5692.756, 1776.291
5694.684, 1766.654
5696.613, 1765.651
5698.541, 1770.651
5700.470, 1772.861
5702.398, 1761.159
5704.327, 1755.320
5706.255, 1755.746
5708.184, 1757.765
5710.112, 1746.522
5712.041, 1740.869
5713.969, 1738.809
5715.897, 1737.045
5717.826, 1736.264
5719.754, 1741.589
5721.683, 1738.729
5723.611, 1725.963
5725.540, 1725.397
5727.468, 1725.813
5729.396, 1723.010
5731.325, 1719.023
5733.253, 1721.304
5735.182, 1724.593
5737.110, 1723.069
5739.039, 1716.228
5740.967, 1706.403
5742.896, 1706.086
5744.824, 1710.384
5746.753, 1711.917
5748.681, 1704.551
5750.610, 1700.011
5752.538, 1696.715
5754.467, 1692.211
5756.395, 1685.154
5758.324, 1680.897
5760.252, 1682.203
5762.181, 1682.795
5764.109, 1678.984
5766.038, 1673.756
5767.966, 1670.982
5769.895, 1666.791
5771.823, 1663.778
5773.751, 1672.658
5775.680, 1672.578
5777.608, 1662.531
5779.537, 1650.520
5781.465, 1646.560
5783.394, 1644.266
5785.322, 1643.051
5787.250, 1642.527
5789.179, 1642.348
5791.107, 1640.913
5793.036, 1635.438
5794.964, 1633.555
5796.893, 1636.679
5798.821, 1630.044
5800.750, 1623.917
5802.678, 1618.774
5804.607, 1615.224
5806.535, 1614.769
5808.464, 1615.752
5810.392, 1615.820
5812.321, 1613.688
5814.249, 1608.943
5816.178, 1600.988
5818.106, 1601.896
5820.035, 1600.334
5821.963, 1590.718
5823.892, 1586.222
5825.820, 1583.087
5827.749, 1579.789
5829.677, 1576.201
5831.605, 1572.845
5833.534, 1575.430
5835.462, 1569.839
5837.391, 1564.701
5839.319, 1570.144
5841.248, 1560.624
5843.176, 1560.486
5845.104, 1560.428
5847.033, 1555.661
5848.961, 1553.289
5850.890, 1554.316
5852.818, 1551.063
5854.747, 1546.416
5856.675, 1546.434
5858.604, 1540.257
5860.532, 1538.515
5862.461, 1537.086
5864.389, 1534.631
5866.318, 1541.560
5868.246, 1538.498
5870.175, 1534.383
5872.103, 1530.352
5874.032, 1522.297
5875.960, 1519.953
5877.889, 1518.975
5879.817, 1513.580
5881.746, 1504.832
5883.674, 1515.336
5885.603, 1509.056
5887.531, 1505.473
5889.459, 1505.021
5891.388, 1493.152
5893.316, 1491.223
5895.245, 1486.093
5897.173, 1485.211
5899.102, 1491.015
5901.030, 1485.438
5902.958, 1483.621
5904.887, 1481.056
5906.815, 1479.205
5908.744, 1481.884
5910.672, 1470.670
5912.601, 1464.399
5914.529, 1465.032
5916.458, 1467.935
5918.386, 1464.794
5920.315, 1460.060
5922.243, 1457.672
5924.172, 1457.057
5926.100, 1455.725
5928.029, 1448.797
5929.957, 1440.159
5931.886, 1438.124
5933.814, 1440.203
5935.743, 1436.158
5937.671, 1440.866
5939.600, 1431.872
5941.528, 1423.651
5943.457, 1426.231
5945.385, 1425.888
5947.313, 1416.793
5949.242, 1410.006
5951.170, 1405.782
5953.099, 1400.244
5955.027, 1399.921
5956.956, 1404.742
5958.884, 1399.689
5960.813, 1388.282
5962.741, 1391.567
5964.669, 1393.859
5966.598, 1393.124
5968.526, 1386.974
5970.455, 1378.349
5972.383, 1380.478
5974.312, 1379.922
5976.240, 1378.139
5978.169, 1376.127
5980.097, 1374.757
5982.026, 1377.575
5983.954, 1378.904
5985.883, 1376.302
5987.811, 1372.201
5989.740, 1369.659
5991.668, 1360.369
5993.597, 1357.857
5995.525, 1354.634
5997.454, 1351.821
5999.382, 1356.767
6001.311, 1337.848
6003.239, 1334.236
6005.167, 1336.974
6007.096, 1334.163
6009.024, 1323.531
6010.953, 1330.474
6012.881, 1328.284
6014.810, 1326.490
6016.738, 1329.793
6018.667, 1321.661
6020.595, 1312.943
6022.523, 1312.131
6024.452, 1312.519
6026.380, 1308.129
6028.309, 1301.662
6030.237, 1301.086
6032.166, 1297.779
6034.094, 1295.669
6036.023, 1296.840
6037.951, 1286.326
6039.880, 1285.673
6041.808, 1286.182
6043.737, 1283.478
6045.665, 1280.063
6047.594, 1293.759
6049.522, 1286.564
6051.451, 1270.677
6053.379, 1268.132
6055.308, 1283.615
6057.236, 1263.426
6059.165, 1254.202
6061.093, 1249.522
6063.021, 1247.085
6064.950, 1248.014
6066.878, 1253.326
6068.807, 1247.696
6070.735, 1240.442
6072.664, 1237.023
6074.592, 1236.552
6076.521, 1226.649
6078.449, 1226.451
6080.377, 1223.589
6082.306, 1219.336
6084.234, 1217.776
6086.163, 1214.917
6088.091, 1212.371
6090.020, 1208.999
6091.948, 1204.494
6093.877, 1200.698
6095.805, 1205.153
6097.734, 1200.508
6099.662, 1198.839
6101.591, 1196.107
6103.519, 1190.217
6105.448, 1189.166
6107.376, 1185.195
6109.305, 1178.534
6111.233, 1176.510
6113.162, 1177.894
6115.090, 1172.401
6117.019, 1165.706
6118.947, 1170.935
6120.875, 1170.941
6122.804, 1161.825
6124.732, 1152.224
6126.661, 1155.701
6128.589, 1156.278
6130.518, 1155.546
6132.446, 1152.463
6134.375, 1145.522
6136.303, 1138.469
6138.231, 1132.342
6140.160, 1132.673
6142.088, 1134.489
6144.017, 1132.592
6145.945, 1126.858
6147.874, 1121.714
6149.802, 1115.779
6151.731, 1113.654
6153.659, 1113.906
6155.588, 1109.402
6157.516, 1112.667
6159.445, 1108.438
6161.373, 1105.910
6163.302, 1102.273
6165.230, 1092.227
6167.159, 1094.351
6169.087, 1085.844
6171.016, 1089.240
6172.944, 1095.294
6174.873, 1093.387
6176.801, 1088.480
6178.729, 1084.963
6180.658, 1082.713
6182.586, 1076.679
6184.515, 1071.255
6186.443, 1073.132
6188.372, 1065.699
6190.300, 1066.003
6192.229, 1063.161
6194.157, 1058.926
6196.085, 1058.113
6198.014, 1059.801
6199.942, 1056.029
6201.871, 1053.018
6203.799, 1052.312
6205.728, 1051.149
6207.656, 1047.326
6209.585, 1050.809
6211.513, 1042.959
6213.442, 1035.280
6215.370, 1034.928
6217.299, 1037.542
6219.227, 1029.595
6221.156, 1028.097
6223.084, 1021.342
6225.013, 1021.144
6226.941, 1023.196
6228.870, 1016.954
6230.798, 1010.055
6232.727, 1006.188
6234.655, 1007.926
6236.583, 1007.571
6238.512, 1003.902
6240.440, 1002.735
6242.369, 994.8861
6244.297, 997.4014
6246.226, 993.7322
6248.154, 987.8401
6250.083, 985.3864
6252.011, 978.6731
6253.939, 977.8663
6255.868, 979.7247
6257.796, 976.6849
6259.725, 973.0393
6261.653, 974.9863
6263.582, 977.4502
6265.510, 975.7083
6267.439, 968.0033
6269.367, 964.5891
6271.296, 965.9402
6273.224, 965.0895
6275.153, 958.8549
6277.081, 949.5483
6279.010, 951.5209
6280.938, 947.6988
6282.867, 939.6650
6284.795, 945.1960
6286.724, 940.2843
6288.652, 937.0957
6290.581, 936.8555
6292.509, 934.5601
6294.438, 930.4860
6296.366, 929.4338
6298.294, 925.3495
6300.223, 922.3298
6302.151, 918.6858
6304.080, 915.2468
6306.008, 912.1282
6307.937, 909.2781
6309.865, 917.1097
6311.793, 907.3102
6313.722, 905.5211
6315.650, 903.6493
6317.579, 897.5490
6319.507, 897.5547
6321.436, 890.4968
6323.364, 887.3138
6325.293, 884.2706
6327.221, 883.1966
6329.150, 882.3900
6331.078, 877.1298
6333.007, 879.0283
6334.935, 877.8810
6336.864, 875.3976
6338.792, 874.8508
6340.721, 873.9063
6342.649, 868.7048
6344.578, 867.1312
6346.506, 867.6972
6348.435, 863.6180
6350.363, 858.7610
6352.292, 855.7244
6354.220, 854.2607
6356.148, 854.3594
6358.077, 851.0972
6360.005, 853.1735
6361.934, 847.9154
6363.862, 844.2012
6365.791, 847.5438
6367.719, 841.9064
6369.647, 840.7959
6371.576, 830.4955
6373.504, 831.1046
6375.433, 831.7189
6377.361, 825.6090
6379.290, 823.1570
6381.218, 828.9254
6383.147, 823.9973
6385.075, 815.0273
6387.004, 817.8026
6388.932, 819.5248
6390.861, 806.6843
6392.789, 812.2464
6394.718, 807.1664
6396.646, 804.7408
6398.575, 806.5570
6400.503, 805.3263
6402.432, 799.6123
6404.360, 796.3656
6406.289, 793.7357
6408.217, 796.0833
6410.146, 793.9629
6412.074, 788.3559
6414.002, 786.9964
6415.931, 789.8137
6417.859, 780.4633
6419.788, 783.5995
6421.716, 776.2546
6423.645, 773.5190
6425.573, 775.5483
6427.501, 773.3936
6429.430, 763.3015
6431.358, 767.7473
6433.287, 770.6113
6435.215, 764.2411
6437.144, 762.6596
6439.072, 764.0352
6441.001, 760.6713
6442.929, 752.9030
6444.858, 754.6028
6446.786, 752.3691
6448.715, 753.4635
6450.643, 753.4108
6452.572, 749.5114
6454.500, 743.4034
6456.429, 737.9991
6458.357, 738.3060
6460.286, 738.5594
6462.214, 738.0980
6464.143, 735.7948
6466.071, 736.5563
6468.000, 741.1456
6469.928, 733.1599
6471.856, 726.4610
6473.785, 724.1075
6475.713, 725.4708
6477.642, 724.3173
6479.570, 719.5038
6481.499, 714.6904
6483.427, 712.6557
6485.355, 715.2235
6487.284, 714.5717
6489.212, 710.4393
6491.141, 707.7560
6493.069, 704.9854
6494.998, 698.4963
6496.926, 691.7997
6498.855, 696.1887
6500.783, 698.9040
6502.712, 696.5974
6504.640, 694.5515
6506.569, 691.8584
6508.497, 686.4160
6510.426, 681.7025
6512.354, 678.5916
6514.283, 689.9115
6516.211, 685.7458
6518.140, 678.9493
6520.068, 678.5763
6521.997, 679.1030
6523.925, 673.9595
6525.854, 675.0701
6527.782, 673.2762
6529.710, 671.6630
6531.639, 665.9579
6533.567, 664.6024
6535.496, 665.1133
6537.424, 660.7045
6539.353, 666.5742
6541.281, 661.3016
6543.209, 655.2236
6545.138, 651.2028
6547.066, 649.2111
6548.995, 649.8073
6550.923, 648.9659
6552.852, 641.9523
6554.780, 642.2630
6556.709, 641.7359
6558.637, 637.0892
6560.566, 637.0165
6562.494, 635.3945
6564.423, 630.6483
6566.351, 629.5799
6568.280, 638.8458
6570.208, 629.3510
6572.137, 624.4632
6574.065, 621.4664
6575.994, 625.1036
6577.922, 625.5781
6579.851, 621.7920
6581.779, 620.2706
6583.708, 611.6229
6585.636, 619.0917
6587.564, 622.5139
6589.493, 614.1555
6591.421, 607.8736
6593.350, 610.1530
6595.278, 612.9416
6597.207, 608.2185
6599.135, 608.7661
6601.063, 597.9446
6602.992, 593.9349
6604.920, 593.9040
6606.849, 596.9941
6608.777, 596.7424
6610.706, 592.0536
6612.634, 589.5801
6614.563, 590.6171
6616.491, 583.1995
6618.420, 585.2979
6620.348, 590.3408
6622.277, 589.3825
6624.205, 584.1293
6626.134, 581.3195
6628.062, 583.1469
6629.991, 584.3600
##END=



