##NAMES=Mottramite
##RRUFFID=R050521
##IDEAL CHEMISTRY=PbCu(VO_4_)(OH)
##LOCALITY=Tsumeb mine, Tsumeb, Otavi District, Oshikoto, Namibia
##OWNER=RRUFF
##SOURCE=University of Arizona Mineral Museum
##DESCRIPTION=Green tubular sprays
##STATUS=The identification of this mineral has been confirmed by X-ray diffraction and chemical analysis
##URL=https://www.rruff.net/odr/rruff_sample/R050521
##MEASURED CHEMISTRY=Pb_1.00_Cu_1.00_((V_0.97_As_0.03_)O_4_)(OH)
##DIFFRACTION SAMPLE DESCRIPTION=Powder
##CELL PARAMETERS=a: 7.6912 b: 6.0455 c: 9.2274 alpha: 90 beta: 90 gamma: 90 volume: 429.05 crystal system: orthorhombic
##FILETYPE=Raman RAW
##RAMAN WAVELENGTH=780

83.25658, 192.0390
85.18504, 203.9013
87.11351, 214.5573
89.04198, 223.0754
90.97044, 232.2257
92.89891, 241.1456
94.82738, 236.3991
96.75584, 229.6639
98.68431, 225.8353
100.6128, 221.9037
102.5412, 218.1675
104.4697, 213.7528
106.3982, 208.5777
108.3266, 202.6034
110.2551, 195.5391
112.1836, 187.3853
114.1120, 178.2935
116.0405, 167.2346
117.9690, 156.2651
119.8974, 145.4172
121.8259, 135.0107
123.7544, 125.1356
125.6828, 115.7534
127.6113, 108.2035
129.5398, 103.3455
131.4682, 99.38827
133.3967, 96.12078
135.3252, 93.38259
137.2536, 91.17988
139.1821, 89.40016
141.1106, 87.43464
143.0390, 85.03762
144.9675, 82.69123
146.8960, 80.23327
148.8244, 78.04862
150.7529, 76.57533
152.6814, 75.65406
154.6098, 74.74338
156.5383, 73.72192
158.4668, 72.87005
160.3952, 72.32938
162.3237, 71.85067
164.2522, 71.31396
166.1806, 70.71196
168.1091, 70.00314
170.0376, 69.12458
171.9660, 68.26673
173.8945, 67.35550
175.8230, 66.55116
177.7514, 65.94396
179.6799, 65.48662
181.6084, 65.18241
183.5368, 65.14597
185.4653, 64.80354
187.3938, 63.94115
189.3223, 63.16034
191.2507, 62.80182
193.1792, 62.50499
195.1077, 61.91731
197.0361, 61.04708
198.9646, 60.29360
200.8931, 59.66533
202.8215, 59.08442
204.7500, 58.64984
206.6785, 58.12368
208.6069, 57.14722
210.5354, 55.96925
212.4639, 55.48589
214.3923, 55.81316
216.3208, 56.15185
218.2493, 56.37627
220.1777, 56.70013
222.1062, 57.16735
224.0347, 57.80226
225.9631, 58.63871
227.8916, 59.67789
229.8201, 60.91805
231.7485, 62.41002
233.6770, 63.96714
235.6055, 65.38610
237.5339, 66.98385
239.4624, 68.77504
241.3909, 70.94642
243.3193, 74.08806
245.2478, 78.17855
247.1763, 82.39011
249.1047, 86.50404
251.0332, 90.89883
252.9617, 95.99915
254.8901, 101.1904
256.8186, 105.7850
258.7471, 109.8782
260.6755, 113.9937
262.6040, 118.2763
264.5325, 122.0742
266.4609, 124.3201
268.3894, 127.1313
270.3179, 131.8747
272.2463, 137.5411
274.1748, 142.3885
276.1033, 146.5764
278.0317, 151.7953
279.9602, 159.3744
281.8887, 165.7821
283.8171, 169.6945
285.7456, 173.1120
287.6741, 177.6108
289.6025, 182.3398
291.5310, 185.9600
293.4595, 188.4149
295.3879, 190.1387
297.3164, 190.2845
299.2449, 191.0298
301.1733, 192.7362
303.1018, 195.1277
305.0303, 198.3226
306.9587, 202.0238
308.8872, 205.4907
310.8157, 208.5305
312.7441, 211.6729
314.6726, 215.6431
316.6011, 218.7280
318.5295, 220.8726
320.4580, 221.5836
322.3865, 220.5585
324.3149, 217.9781
326.2434, 214.2962
328.1719, 209.3767
330.1003, 203.6610
332.0288, 196.9669
333.9573, 189.8949
335.8857, 182.4188
337.8142, 174.8342
339.7427, 167.3099
341.6711, 159.8632
343.5996, 152.4351
345.5281, 144.9754
347.4565, 137.7825
349.3850, 130.6847
351.3135, 124.3289
353.2419, 119.3060
355.1704, 114.6751
357.0989, 109.8172
359.0273, 104.9611
360.9558, 100.5472
362.8843, 96.58768
364.8127, 93.09506
366.7412, 90.08111
368.6697, 87.51168
370.5981, 85.69227
372.5266, 83.92770
374.4551, 81.71600
376.3835, 79.45647
378.3120, 77.71308
380.2405, 76.47210
382.1689, 75.43434
384.0974, 74.60062
386.0259, 73.89628
387.9543, 73.30479
389.8828, 72.86187
391.8113, 72.79808
393.7397, 72.69020
395.6682, 72.31735
397.5967, 71.55637
399.5251, 70.09068
401.4536, 67.92431
403.3821, 65.60645
405.3105, 63.22902
407.2390, 60.65352
409.1675, 57.73319
411.0959, 54.75454
413.0244, 51.67111
414.9529, 48.74538
416.8813, 46.33185
418.8098, 44.36333
420.7383, 42.65557
422.6667, 41.21517
424.5952, 39.97266
426.5237, 39.05315
428.4521, 38.14014
430.3806, 37.07728
432.3091, 36.05832
434.2375, 35.34806
436.1660, 34.73024
438.0945, 33.79171
440.0229, 32.52742
441.9514, 31.54227
443.8799, 30.89472
445.8083, 30.47817
447.7368, 30.56335
449.6653, 30.50686
451.5938, 29.98862
453.5222, 29.33207
455.4507, 28.69682
457.3792, 28.14021
459.3076, 27.82435
461.2361, 27.77961
463.1646, 27.74566
465.0930, 27.80020
467.0215, 27.63460
468.9500, 27.01106
470.8784, 26.53325
472.8069, 26.62020
474.7354, 26.79306
476.6638, 26.72384
478.5923, 26.46990
480.5208, 26.13577
482.4492, 25.72095
484.3777, 25.30365
486.3062, 24.83770
488.2346, 24.64044
490.1631, 24.89861
492.0916, 25.10441
494.0200, 25.03418
495.9485, 24.85949
497.8770, 24.60243
499.8054, 24.33985
501.7339, 24.19556
503.6624, 24.15342
505.5908, 24.12210
507.5193, 24.09983
509.4478, 24.08523
511.3762, 24.10056
513.3047, 24.07043
515.2332, 23.93005
517.1616, 23.77792
519.0901, 23.64203
521.0186, 23.53890
522.9470, 23.43817
524.8755, 23.37259
526.8040, 23.55172
528.7324, 23.92207
530.6609, 23.96627
532.5894, 23.55945
534.5178, 23.26646
536.4463, 23.30942
538.3748, 23.30426
540.3032, 23.07055
542.2317, 22.87980
544.1602, 22.95962
546.0886, 23.11089
548.0171, 23.09732
549.9456, 22.96985
551.8740, 22.77397
553.8025, 22.51315
555.7310, 22.46197
557.6594, 22.77830
559.5879, 22.96292
561.5164, 22.91181
563.4448, 22.82318
565.3733, 22.69993
567.3018, 22.60612
569.2302, 22.58543
571.1587, 22.61249
573.0872, 22.66278
575.0156, 22.73120
576.9441, 22.83810
578.8726, 23.00231
580.8010, 23.02783
582.7295, 22.74070
584.6580, 22.67135
586.5864, 22.99384
588.5149, 23.20134
590.4434, 23.05105
592.3718, 22.95983
594.3003, 23.27458
596.2288, 23.60082
598.1572, 23.59549
600.0857, 23.41129
602.0142, 23.25490
603.9426, 23.14666
605.8711, 23.28529
607.7996, 23.73259
609.7280, 24.12059
611.6565, 24.46719
613.5850, 24.64772
615.5134, 24.55154
617.4419, 24.50639
619.3704, 24.69566
621.2988, 24.88766
623.2273, 24.90256
625.1558, 24.91608
627.0842, 25.07906
629.0127, 25.37912
630.9412, 25.79632
632.8696, 26.32103
634.7981, 26.95846
636.7266, 27.70328
638.6550, 28.16858
640.5835, 28.23409
642.5120, 28.60467
644.4404, 29.61156
646.3689, 30.51541
648.2974, 30.89635
650.2258, 31.39429
652.1543, 32.45037
654.0828, 33.54115
656.0112, 34.15158
657.9397, 34.59233
659.8682, 35.37341
661.7966, 36.33170
663.7251, 37.06274
665.6536, 37.58451
667.5820, 38.02631
669.5105, 38.39342
671.4390, 38.70927
673.3674, 38.90171
675.2959, 39.24284
677.2244, 40.14043
679.1528, 40.61195
681.0813, 40.11039
683.0098, 39.55515
684.9382, 39.48460
686.8667, 39.45187
688.7952, 39.05152
690.7236, 38.50010
692.6521, 38.06557
694.5806, 37.68459
696.5090, 37.19680
698.4375, 36.61474
700.3660, 36.08065
702.2944, 35.57412
704.2229, 35.23830
706.1514, 35.29101
708.0798, 35.07692
710.0083, 34.44854
711.9368, 33.84044
713.8652, 33.26323
715.7937, 32.83796
717.7222, 32.64451
719.6506, 32.56195
721.5791, 32.55954
723.5076, 32.59480
725.4360, 32.59060
727.3645, 32.63904
729.2930, 32.83174
731.2214, 33.18651
733.1499, 33.81889
735.0784, 34.69413
737.0068, 35.42111
738.9353, 35.96864
740.8638, 36.77330
742.7922, 37.86796
744.7207, 38.90922
746.6492, 39.75006
748.5776, 41.08587
750.5061, 43.18538
752.4346, 45.45807
754.3630, 47.64655
756.2915, 50.08816
758.2200, 52.76770
760.1484, 55.93609
762.0769, 59.89569
764.0054, 64.20218
765.9338, 68.57457
767.8623, 72.98812
769.7908, 77.23653
771.7192, 81.57429
773.6477, 86.52946
775.5762, 92.06813
777.5046, 97.75523
779.4331, 103.7914
781.3616, 111.2849
783.2900, 120.2824
785.2185, 130.9840
787.1470, 143.4340
789.0754, 157.5843
791.0039, 173.6712
792.9324, 190.7337
794.8608, 210.6098
796.7893, 228.0676
798.7178, 242.3269
800.6462, 253.9974
802.5747, 262.4872
804.5032, 269.5152
806.4316, 274.7694
808.3601, 280.3026
810.2886, 288.4413
812.2170, 296.4405
814.1455, 303.5753
816.0740, 307.5898
818.0024, 305.8915
819.9309, 299.5587
821.8594, 290.4251
823.7878, 277.9774
825.7163, 260.0077
827.6448, 237.3425
829.5732, 214.9358
831.5017, 192.6975
833.4302, 170.6165
835.3586, 148.2070
837.2871, 129.1592
839.2156, 113.9116
841.1440, 100.8272
843.0725, 90.04131
845.0010, 81.01527
846.9294, 73.94408
848.8579, 67.97116
850.7864, 62.98599
852.7148, 59.02698
854.6433, 56.40726
856.5718, 54.01411
858.5002, 51.43640
860.4287, 49.04003
862.3572, 47.01750
864.2856, 45.17074
866.2141, 43.41451
868.1426, 41.78167
870.0710, 40.30182
871.9995, 38.88628
873.9280, 37.44611
875.8564, 36.12957
877.7849, 35.07208
879.7134, 34.15541
881.6418, 33.26217
883.5703, 32.45563
885.4988, 31.85051
887.4272, 31.34596
889.3557, 30.78319
891.2842, 30.17022
893.2126, 29.43370
895.1411, 28.65175
897.0696, 28.10833
898.9980, 27.76285
900.9265, 27.47445
902.8550, 27.20935
904.7834, 26.71829
906.7119, 26.01858
908.6404, 25.47260
910.5688, 25.08718
912.4973, 24.84240
914.4258, 24.79070
916.3542, 24.60778
918.2827, 24.19606
920.2112, 23.90807
922.1396, 23.86712
924.0681, 23.69833
925.9966, 23.29553
927.9250, 22.92436
929.8535, 22.56981
931.7820, 22.29403
933.7104, 22.01649
935.6389, 21.97773
937.5674, 22.56383
939.4958, 22.79258
941.4243, 22.17370
943.3528, 21.63018
945.2813, 21.47117
947.2097, 21.41231
949.1382, 21.35809
951.0667, 21.33360
952.9951, 21.36268
954.9236, 21.39904
956.8521, 21.52117
958.7805, 21.47732
960.7090, 20.97648
962.6375, 20.52570
964.5659, 20.45883
966.4944, 20.47374
968.4229, 20.39744
970.3513, 20.31244
972.2798, 20.27213
974.2083, 20.27054
976.1367, 20.33916
978.0652, 20.35250
979.9937, 20.17966
981.9221, 20.01871
983.8506, 20.04145
985.7791, 20.10238
987.7075, 20.07708
989.6360, 19.93917
991.5645, 19.64412
993.4929, 19.43561
995.4214, 19.53980
997.3499, 19.72969
999.2783, 19.86908
1001.207, 19.90833
1003.135, 19.69970
1005.064, 19.43816
1006.992, 19.30033
1008.921, 19.23634
1010.849, 19.33663
1012.778, 19.50927
1014.706, 19.46408
1016.635, 19.32276
1018.563, 19.41686
1020.491, 19.54055
1022.420, 19.40021
1024.348, 19.17817
1026.277, 18.95777
1028.205, 18.72810
1030.134, 18.59451
1032.062, 18.55579
1033.991, 18.63278
1035.919, 18.70945
1037.848, 18.50053
1039.776, 18.21516
1041.705, 18.25822
1043.633, 18.43726
1045.562, 18.44586
1047.490, 18.39703
1049.418, 18.44287
1051.347, 18.53676
1053.275, 18.62128
1055.204, 18.64145
1057.132, 18.55269
1059.061, 18.45505
1060.989, 18.45364
1062.918, 18.50802
1064.846, 18.60777
1066.775, 18.63024
1068.703, 18.38445
1070.632, 18.08966
1072.560, 18.00076
1074.489, 17.96783
1076.417, 17.76649
1078.345, 17.60303
1080.274, 17.70179
1082.202, 17.90121
1084.131, 18.16476
1086.059, 18.29444
1087.988, 18.07330
1089.916, 17.83191
1091.845, 17.78226
1093.773, 17.80947
1095.702, 17.86831
1097.630, 17.89160
1099.559, 17.83045
1101.487, 17.73044
1103.416, 17.60794
1105.344, 17.54343
1107.272, 17.58017
1109.201, 17.58230
1111.129, 17.50790
1113.058, 17.41016
1114.986, 17.28580
1116.915, 17.23868
1118.843, 17.27992
1120.772, 17.31021
1122.700, 17.38422
1124.629, 17.34076
1126.557, 17.02054
1128.486, 16.93341
1130.414, 17.26409
1132.343, 17.46169
1134.271, 17.44703
1136.199, 17.40237
1138.128, 17.30845
1140.056, 17.26820
1141.985, 17.32433
1143.913, 17.35145
1145.842, 17.30922
1147.770, 17.31387
1149.699, 17.41800
1151.627, 17.36583
1153.556, 17.09485
1155.484, 17.03812
1157.413, 17.23739
1159.341, 17.31602
1161.270, 17.25698
1163.198, 17.26167
1165.126, 17.33569
1167.055, 17.41226
1168.983, 17.46512
1170.912, 17.41259
1172.840, 17.29232
1174.769, 17.22376
1176.697, 17.19104
1178.626, 17.10701
1180.554, 16.99730
1182.483, 16.95093
1184.411, 16.94657
1186.340, 16.91307
1188.268, 16.90918
1190.197, 17.00879
1192.125, 17.05597
1194.053, 16.96432
1195.982, 16.90214
1197.910, 16.99086
1199.839, 17.05096
1201.767, 16.89216
1203.696, 16.76972
1205.624, 16.83425
1207.553, 16.89476
1209.481, 16.94316
1211.410, 16.91231
1213.338, 16.69582
1215.267, 16.62298
1217.195, 16.81190
1219.124, 16.94664
1221.052, 16.95344
1222.980, 16.87805
1224.909, 16.79131
1226.837, 16.66682
1228.766, 16.42025
1230.694, 16.33751
1232.623, 16.49171
1234.551, 16.61309
1236.480, 16.64344
1238.408, 16.64214
1240.337, 16.67463
1242.265, 16.79844
1244.194, 16.83989
1246.122, 16.62149
1248.051, 16.44105
1249.979, 16.54488
1251.907, 16.64111
1253.836, 16.55957
1255.764, 16.51073
1257.693, 16.57685
1259.621, 16.55180
1261.550, 16.30842
1263.478, 16.23870
1265.407, 16.53008
1267.335, 16.69343
1269.264, 16.62106
1271.192, 16.60485
1273.121, 16.64540
1275.049, 16.67163
1276.978, 16.73632
1278.906, 16.85870
1280.834, 16.94837
1282.763, 16.94430
1284.691, 16.88976
1286.620, 16.74900
1288.548, 16.60728
1290.477, 16.54258
1292.405, 16.52320
1294.334, 16.57321
1296.262, 16.69599
1298.191, 16.98565
1300.119, 17.12571
1302.048, 16.87421
1303.976, 16.78133
1305.905, 17.06219
1307.833, 17.15788
1309.761, 16.94786
1311.690, 16.86941
1313.618, 16.94490
1315.547, 16.93872
1317.475, 16.89958
1319.404, 17.08125
1321.332, 17.32196
1323.261, 17.20225
1325.189, 17.01724
1327.118, 17.13169
1329.046, 17.23125
1330.975, 17.02619
1332.903, 16.85954
1334.832, 17.02077
1336.760, 17.18166
1338.688, 17.19717
1340.617, 17.16438
1342.545, 17.07804
1344.474, 16.97563
1346.402, 16.85650
1348.331, 16.88937
1350.259, 17.05836
1352.188, 17.06427
1354.116, 16.96685
1356.045, 16.97758
1357.973, 17.03980
1359.902, 16.98766
1361.830, 16.89889
1363.759, 17.08742
1365.687, 17.30353
1367.615, 17.10873
1369.544, 16.86213
1371.472, 16.86994
1373.401, 17.01073
1375.329, 17.31152
1377.258, 17.36799
1379.186, 16.99473
1381.115, 16.89646
1383.043, 17.06839
1384.972, 16.99887
1386.900, 16.84729
1388.829, 16.89907
1390.757, 17.00944
1392.686, 17.01563
1394.614, 17.02865
1396.542, 17.20482
1398.471, 17.33338
1400.399, 17.24495
1402.328, 17.14727
1404.256, 17.17460
1406.185, 17.19698
1408.113, 17.12408
1410.042, 17.02151
1411.970, 16.88631
1413.899, 16.85777
1415.827, 17.02682
1417.756, 17.18512
1419.684, 17.23244
1421.613, 17.15508
1423.541, 17.08678
1425.469, 17.13078
1427.398, 17.20132
1429.326, 17.29822
1431.255, 17.28605
1433.183, 17.06147
1435.112, 17.01888
1437.040, 17.23305
1438.969, 17.30140
1440.897, 17.18678
1442.826, 17.17118
1444.754, 17.25422
1446.683, 17.21888
1448.611, 17.10803
1450.540, 16.94355
1452.468, 16.81902
1454.396, 16.87073
1456.325, 17.00148
1458.253, 17.25856
1460.182, 17.38308
1462.110, 17.17855
1464.039, 16.90797
1465.967, 16.73600
1467.896, 16.88391
1469.824, 17.12943
1471.753, 17.10766
1473.681, 17.02955
1475.610, 17.10396
1477.538, 17.10166
1479.467, 16.80888
1481.395, 16.60447
1483.323, 16.68483
1485.252, 16.83102
1487.180, 16.98066
1489.109, 17.00585
1491.037, 16.98218
1492.966, 17.00803
1494.894, 16.96388
1496.823, 16.94755
1498.751, 17.04197
1500.680, 17.04294
1502.608, 17.02940
1504.537, 17.16180
1506.465, 17.16152
1508.394, 16.99533
1510.322, 16.97324
1512.250, 17.02629
1514.179, 16.96679
1516.107, 16.82515
1518.036, 16.77537
1519.964, 16.90018
1521.893, 16.99314
1523.821, 16.97001
1525.750, 17.01995
1527.678, 17.04831
1529.607, 16.97518
1531.535, 16.99377
1533.464, 17.05301
1535.392, 17.10976
1537.321, 17.09077
1539.249, 16.85456
1541.177, 16.71840
1543.106, 16.96036
1545.034, 17.15665
1546.963, 17.08337
1548.891, 16.97905
1550.820, 16.78683
1552.748, 16.65917
1554.677, 16.71846
1556.605, 16.70864
1558.534, 16.56930
1560.462, 16.55292
1562.391, 16.69098
1564.319, 16.79234
1566.248, 16.84918
1568.176, 16.89244
1570.104, 16.92657
1572.033, 16.89564
1573.961, 16.85088
1575.890, 16.84202
1577.818, 16.72360
1579.747, 16.65185
1581.675, 16.76291
1583.604, 16.68084
1585.532, 16.47692
1587.461, 16.57002
1589.389, 16.83604
1591.318, 16.95160
1593.246, 16.91398
1595.175, 16.76504
1597.103, 16.60797
1599.031, 16.48689
1600.960, 16.40121
1602.888, 16.42533
1604.817, 16.45615
1606.745, 16.52012
1608.674, 16.52972
1610.602, 16.39465
1612.531, 16.28803
1614.459, 16.19858
1616.388, 16.31084
1618.316, 16.46156
1620.245, 16.30176
1622.173, 16.15757
1624.102, 16.05920
1626.030, 16.03176
1627.958, 16.12276
1629.887, 16.21000
1631.815, 16.22803
1633.744, 16.16561
1635.672, 16.16569
1637.601, 16.16927
1639.529, 16.05438
1641.458, 15.93990
1643.386, 15.99354
1645.315, 16.11337
1647.243, 16.10585
1649.172, 16.00274
1651.100, 15.99552
1653.029, 16.00864
1654.957, 16.00488
1656.885, 16.02870
1658.814, 16.00292
1660.742, 15.91461
1662.671, 15.92800
1664.599, 15.92474
1666.528, 15.78979
1668.456, 15.76905
1670.385, 15.89801
1672.313, 16.02909
1674.242, 16.10521
1676.170, 16.21980
1678.099, 16.04205
1680.027, 15.61977
1681.956, 15.59565
1683.884, 15.79448
1685.813, 15.83517
1687.741, 15.84924
1689.669, 15.89663
1691.598, 15.87387
1693.526, 15.76459
1695.455, 15.68455
1697.383, 15.81673
1699.312, 15.92529
1701.240, 15.82980
1703.169, 15.59094
1705.097, 15.46809
1707.026, 15.57988
1708.954, 15.76198
1710.883, 15.87594
1712.811, 15.68819
1714.740, 15.43805
1716.668, 15.53441
1718.596, 15.72786
1720.525, 15.64795
1722.453, 15.48581
1724.382, 15.46202
1726.310, 15.55671
1728.239, 15.71405
1730.167, 15.65644
1732.096, 15.48290
1734.024, 15.55662
1735.953, 15.65255
1737.881, 15.55668
1739.810, 15.37944
1741.738, 15.16676
1743.667, 15.16387
1745.595, 15.30297
1747.523, 15.24495
1749.452, 15.19470
1751.380, 15.28274
1753.309, 15.23141
1755.237, 15.07098
1757.166, 15.03965
1759.094, 15.14999
1761.023, 15.20385
1762.951, 15.13540
1764.880, 15.10664
1766.808, 15.05074
1768.737, 14.90304
1770.665, 14.88367
1772.594, 14.94510
1774.522, 14.98303
1776.450, 15.03268
1778.379, 15.20935
1780.307, 15.23150
1782.236, 14.97112
1784.164, 14.82815
1786.093, 14.81796
1788.021, 14.88818
1789.950, 14.98094
1791.878, 14.90151
1793.807, 14.72539
1795.735, 14.60515
1797.664, 14.64428
1799.592, 14.74895
1801.521, 14.76617
1803.449, 14.70667
1805.377, 14.69467
1807.306, 14.81295
1809.234, 14.76551
1811.163, 14.61156
1813.091, 14.54760
1815.020, 14.62159
1816.948, 14.82352
1818.877, 14.76759
1820.805, 14.51702
1822.734, 14.51119
1824.662, 14.53069
1826.591, 14.45494
1828.519, 14.55400
1830.448, 14.66863
1832.376, 14.46138
1834.304, 14.43446
1836.233, 14.53397
1838.161, 14.30949
1840.090, 14.16484
1842.018, 14.24714
1843.947, 14.29800
1845.875, 14.39069
1847.804, 14.37976
1849.732, 14.14286
1851.661, 13.96779
1853.589, 13.95338
1855.518, 13.90654
1857.446, 14.00309
1859.375, 14.20739
1861.303, 14.10024
1863.231, 13.84315
1865.160, 13.84107
1867.088, 13.92739
1869.017, 13.95070
1870.945, 13.87336
1872.874, 13.83534
1874.802, 13.89240
1876.731, 13.71691
1878.659, 13.56235
1880.588, 13.70138
1882.516, 13.82081
1884.445, 13.89380
1886.373, 13.88261
1888.302, 13.65593
1890.230, 13.53486
1892.158, 13.37898
1894.087, 13.31522
1896.015, 13.48986
1897.944, 13.60313
1899.872, 13.59615
1901.801, 13.44344
1903.729, 13.51464
1905.658, 13.72509
1907.586, 13.65679
1909.515, 13.37757
1911.443, 13.20149
1913.372, 13.24461
1915.300, 13.36136
1917.229, 13.15506
1919.157, 12.96875
1921.085, 13.47432
1923.014, 13.84864
1924.942, 13.56916
1926.871, 13.33410
1928.799, 13.28286
1930.728, 13.12396
1932.656, 13.11152
1934.585, 13.32067
1936.513, 13.29504
1938.442, 13.12008
1940.370, 13.10319
1942.299, 13.04518
1944.227, 13.08453
1946.156, 13.14981
1948.084, 13.09734
1950.012, 13.01266
1951.941, 13.01424
1953.869, 13.14804
1955.798, 13.07909
1957.726, 12.93230
1959.655, 12.85496
1961.583, 12.84128
1963.512, 12.82202
1965.440, 12.73422
1967.369, 12.71169
1969.297, 12.62077
1971.226, 12.44024
1973.154, 12.30072
1975.083, 12.36743
1977.011, 12.46045
1978.939, 12.54949
1980.868, 12.59900
1982.796, 12.51968
1984.725, 12.42035
1986.653, 12.14699
1988.582, 12.04587
1990.510, 12.32236
1992.439, 12.42231
1994.367, 12.37484
1996.296, 12.36030
1998.224, 12.32941
2000.153, 12.35680
2002.081, 12.38378
2004.010, 12.35269
2005.938, 12.35871
2007.866, 12.25075
2009.795, 12.09691
2011.723, 12.07841
2013.652, 11.96072
2015.580, 11.81366
2017.509, 11.96349
2019.437, 12.08356
2021.366, 12.00709
2023.294, 11.96129
2025.223, 11.83191
2027.151, 11.70012
2029.080, 11.72748
2031.008, 11.87234
2032.937, 11.95769
2034.865, 11.92274
2036.793, 11.76339
2038.722, 11.66520
2040.650, 11.73766
2042.579, 11.70601
2044.507, 11.52565
2046.436, 11.47618
2048.364, 11.80907
2050.293, 11.89999
2052.221, 11.62574
2054.150, 11.58342
2056.078, 11.49955
2058.007, 11.48429
2059.935, 11.63262
2061.864, 11.61028
2063.792, 11.41097
2065.720, 11.35128
2067.649, 11.34103
2069.577, 11.29293
2071.506, 11.31734
2073.434, 11.41159
2075.363, 11.48089
2077.291, 11.50124
2079.220, 11.45788
2081.148, 11.31175
2083.077, 11.16449
2085.005, 11.15835
2086.934, 11.30165
2088.862, 11.35370
2090.791, 11.32765
2092.719, 11.21534
2094.647, 10.99347
2096.576, 11.03915
2098.504, 11.05734
2100.433, 10.91912
2102.361, 10.94931
2104.290, 10.93858
2106.218, 10.89715
2108.147, 10.90240
2110.075, 10.93785
2112.004, 10.83379
2113.932, 10.73239
2115.861, 10.70064
2117.789, 10.84429
2119.718, 10.99948
2121.646, 10.85026
2123.574, 10.62754
2125.503, 10.67143
2127.431, 10.67393
2129.360, 10.62734
2131.288, 10.82225
2133.217, 10.87719
2135.145, 10.74066
2137.074, 10.66428
2139.002, 10.55419
2140.931, 10.48526
2142.859, 10.45734
2144.788, 10.41435
2146.716, 10.23795
2148.645, 10.18633
2150.573, 10.25582
2152.501, 10.30154
2154.430, 10.45045
2156.358, 10.42153
2158.287, 10.34333
2160.215, 10.46623
2162.144, 10.42312
2164.072, 10.33475
2166.001, 10.28683
2167.929, 10.21982
2169.858, 10.23720
2171.786, 10.42559
2173.715, 10.38826
2175.643, 10.08356
2177.572, 9.998453
2179.500, 10.13960
2181.428, 10.16561
2183.357, 9.931316
2185.285, 9.843778
2187.214, 9.949495
2189.142, 10.11760
2191.071, 10.17104
2192.999, 10.12773
2194.928, 10.06880
2196.856, 9.968366
2198.785, 9.866470
2200.713, 9.783123
2202.642, 9.830830
2204.570, 9.876200
2206.499, 9.809079
2208.427, 9.861054
2210.355, 9.930392
2212.284, 9.780197
2214.212, 9.749421
2216.141, 9.777001
2218.069, 9.664455
2219.998, 9.612370
2221.926, 9.607608
2223.855, 9.586548
2225.783, 9.534015
2227.712, 9.482145
2229.640, 9.456030
2231.569, 9.502488
2233.497, 9.491714
2235.426, 9.390296
2237.354, 9.415847
2239.282, 9.461987
2241.211, 9.398730
2243.139, 9.309467
2245.068, 9.367497
2246.996, 9.423606
2248.925, 9.426520
2250.853, 9.478968
2252.782, 9.345490
2254.710, 9.242636
2256.639, 9.195347
2258.567, 9.148926
2260.496, 9.102209
2262.424, 9.080769
2264.353, 9.154150
2266.281, 9.257415
2268.209, 9.154011
2270.138, 9.049755
2272.066, 9.230967
2273.995, 9.206151
2275.923, 8.978516
2277.852, 8.976117
2279.780, 9.007136
2281.709, 8.856492
2283.637, 8.768863
2285.566, 8.804826
2287.494, 8.900709
2289.423, 9.007903
2291.351, 8.855346
2293.280, 8.688433
2295.208, 8.694834
2297.136, 8.745955
2299.065, 8.701394
2300.993, 8.729177
2302.922, 8.776879
2304.850, 8.548034
2306.779, 8.419482
2308.707, 8.533051
2310.636, 8.601438
2312.564, 8.604018
2314.493, 8.576994
2316.421, 8.641830
2318.350, 8.489986
2320.278, 8.367053
2322.207, 8.542403
2324.135, 8.571688
2326.063, 8.438466
2327.992, 8.485341
2329.920, 8.402278
2331.849, 8.221698
2333.777, 8.285700
2335.706, 8.251935
2337.634, 8.098540
2339.563, 8.266162
2341.491, 8.263017
2343.420, 8.019082
2345.348, 7.923357
2347.277, 8.009664
2349.205, 8.205867
2351.134, 8.212514
2353.062, 8.114408
2354.990, 8.004648
2356.919, 8.054655
2358.847, 8.072156
2360.776, 8.006042
2362.704, 7.964256
2364.633, 8.130055
2366.561, 8.110179
2368.490, 8.004202
2370.418, 8.075558
2372.347, 7.966650
2374.275, 7.764944
2376.204, 7.815365
2378.132, 7.893532
2380.061, 7.980178
2381.989, 8.023624
2383.917, 7.898339
2385.846, 7.911729
2387.774, 7.985153
2389.703, 7.801301
2391.631, 7.578270
2393.560, 7.513675
2395.488, 7.466233
2397.417, 7.590982
2399.345, 7.655588
2401.274, 7.645758
2403.202, 7.618381
2405.131, 7.628009
2407.059, 7.650613
2408.988, 7.715459
2410.916, 7.676970
2412.844, 7.479136
2414.773, 7.456136
2416.701, 7.454104
2418.630, 7.489607
2420.558, 7.523355
2422.487, 7.471992
2424.415, 7.495357
2426.344, 7.491950
2428.272, 7.353929
2430.201, 7.238122
2432.129, 7.278057
2434.058, 7.224263
2435.986, 7.080465
2437.915, 7.067025
2439.843, 7.299983
2441.771, 7.112228
2443.700, 6.943896
2445.628, 7.129671
2447.557, 7.067620
2449.485, 6.977380
2451.414, 7.097260
2453.342, 7.024798
2455.271, 6.951773
2457.199, 6.913350
2459.128, 6.718997
2461.056, 6.656556
2462.985, 6.710161
2464.913, 6.654673
2466.842, 6.726624
2468.770, 6.954990
2470.698, 7.008304
2472.627, 6.817367
2474.555, 6.728496
2476.484, 6.761678
2478.412, 6.708813
2480.341, 6.667467
2482.269, 6.770628
2484.198, 6.623824
2486.126, 6.516925
2488.055, 6.510275
2489.983, 6.492403
2491.912, 6.391167
2493.840, 6.387122
2495.769, 6.423326
2497.697, 6.455689
2499.625, 6.591515
2501.554, 6.490838
2503.482, 6.288882
2505.411, 6.023143
2507.339, 6.207461
2509.268, 6.307521
2511.196, 6.211176
2513.125, 6.362226
2515.053, 6.407014
2516.982, 6.210530
2518.910, 6.103789
2520.839, 6.053420
2522.767, 6.051353
2524.696, 6.237243
2526.624, 6.301847
2528.552, 6.035035
2530.481, 5.915790
2532.409, 5.996137
2534.338, 6.215369
2536.266, 6.155766
2538.195, 5.964706
2540.123, 5.980796
2542.052, 5.989092
2543.980, 5.957248
2545.909, 6.111165
2547.837, 6.013878
2549.766, 5.824682
2551.694, 5.965106
2553.623, 6.010999
2555.551, 6.047432
2557.479, 6.003023
2559.408, 6.023932
2561.336, 6.062700
2563.265, 5.889367
2565.193, 5.875246
2567.122, 5.920659
2569.050, 5.733380
2570.979, 5.643188
2572.907, 5.610382
2574.836, 5.561214
2576.764, 5.676627
2578.693, 5.913584
2580.621, 5.788773
2582.550, 5.696657
2584.478, 5.728784
2586.406, 5.571242
2588.335, 5.532730
2590.263, 5.603005
2592.192, 5.393563
2594.120, 5.315291
2596.049, 5.402256
2597.977, 5.595494
2599.906, 5.621449
2601.834, 5.369792
2603.763, 5.408906
2605.691, 5.415204
2607.620, 5.331137
2609.548, 5.216427
2611.477, 5.171093
2613.405, 5.186450
2615.333, 5.091916
2617.262, 5.156395
2619.190, 5.283363
2621.119, 5.233294
2623.047, 5.165541
2624.976, 5.077524
2626.904, 4.907495
2628.833, 4.987041
2630.761, 5.239079
2632.690, 5.151805
2634.618, 5.032232
2636.547, 5.009306
2638.475, 4.951163
2640.404, 4.908950
2642.332, 4.952996
2644.260, 4.986372
2646.189, 4.923994
2648.117, 4.753629
2650.046, 4.764694
2651.974, 4.881434
2653.903, 4.965010
2655.831, 4.710443
2657.760, 4.686010
2659.688, 4.848731
2661.617, 4.730664
2663.545, 4.655383
2665.474, 4.626029
2667.402, 4.650779
2669.331, 4.672234
2671.259, 4.632923
2673.188, 4.710766
2675.116, 4.562089
2677.044, 4.401336
2678.973, 4.634493
2680.901, 4.759174
2682.830, 4.695218
2684.758, 4.483887
2686.687, 4.543132
2688.615, 4.605422
2690.544, 4.475499
2692.472, 4.429220
2694.401, 4.413343
2696.329, 4.305514
2698.258, 4.290298
2700.186, 4.349061
2702.115, 4.349638
2704.043, 4.510787
2705.971, 4.506908
2707.900, 4.299099
2709.828, 4.281237
2711.757, 4.243078
2713.685, 4.226973
2715.614, 4.229377
2717.542, 4.263107
2719.471, 4.261239
2721.399, 4.187994
2723.328, 4.177808
2725.256, 4.136370
2727.185, 4.156101
2729.113, 4.083436
2731.042, 3.968457
2732.970, 4.122325
2734.898, 3.998966
2736.827, 3.879136
2738.755, 4.083147
2740.684, 3.989646
2742.612, 3.871965
2744.541, 3.793652
2746.469, 3.867063
2748.398, 3.799647
2750.326, 3.567107
2752.255, 3.688566
2754.183, 3.918114
2756.112, 4.119576
2758.040, 3.901798
2759.969, 3.773389
2761.897, 3.809001
2763.825, 3.880325
2765.754, 3.863940
2767.682, 3.769871
2769.611, 3.734581
2771.539, 3.768241
2773.468, 3.715522
2775.396, 3.544892
2777.325, 3.531903
2779.253, 3.637200
2781.182, 3.724554
2783.110, 3.870294
2785.039, 3.835806
2786.967, 3.612762
2788.896, 3.588039
2790.824, 3.664860
2792.752, 3.663304
2794.681, 3.498444
2796.609, 3.554847
2798.538, 3.674883
2800.466, 3.727018
2802.395, 3.466485
2804.323, 3.365025
2806.252, 3.569109
2808.180, 3.422264
2810.109, 3.340201
2812.037, 3.378222
2813.966, 3.111206
2815.894, 3.096075
2817.823, 3.202704
2819.751, 3.096859
2821.679, 3.289660
2823.608, 3.432312
2825.536, 3.253430
2827.465, 3.220348
2829.393, 3.201811
2831.322, 3.150303
2833.250, 3.016634
2835.179, 3.049538
2837.107, 3.156213
2839.036, 3.037005
2840.964, 3.217979
2842.893, 3.323433
2844.821, 2.957836
2846.750, 2.981577
2848.678, 3.007067
2850.606, 2.896074
2852.535, 2.911548
2854.463, 2.844965
2856.392, 2.722297
2858.320, 2.769022
2860.249, 2.771948
2862.177, 2.848214
2864.106, 3.128023
2866.034, 2.918094
2867.963, 2.753143
2869.891, 2.810902
2871.820, 2.809195
2873.748, 2.860817
2875.677, 2.901986
2877.605, 2.834907
2879.533, 2.867694
2881.462, 2.953452
2883.390, 3.014927
2885.319, 2.742285
2887.247, 2.685505
2889.176, 2.846728
2891.104, 2.886628
2893.033, 2.752880
2894.961, 2.579222
2896.890, 2.561453
2898.818, 2.760971
2900.747, 2.772034
2902.675, 2.462552
2904.604, 2.537217
2906.532, 2.558855
2908.460, 2.540275
2910.389, 2.687816
2912.317, 2.693437
2914.246, 2.599043
2916.174, 2.459913
2918.103, 2.536894
2920.031, 2.601380
2921.960, 2.587099
2923.888, 2.621906
2925.817, 2.636544
2927.745, 2.564709
2929.674, 2.376095
2931.602, 2.467287
2933.531, 2.538085
2935.459, 2.531649
2937.387, 2.560399
2939.316, 2.571076
2941.244, 2.568011
2943.173, 2.522479
2945.101, 2.459793
2947.030, 2.415713
2948.958, 2.362557
2950.887, 2.296911
2952.815, 2.348939
2954.744, 2.397514
2956.672, 2.343909
2958.601, 2.338841
2960.529, 2.221588
2962.458, 2.070590
2964.386, 2.295244
2966.314, 2.300498
2968.243, 2.251762
2970.171, 2.444863
2972.100, 2.437341
2974.028, 2.307201
2975.957, 2.136802
2977.885, 2.250471
2979.814, 2.214452
2981.742, 2.116605
2983.671, 2.160957
2985.599, 2.135438
2987.528, 2.137512
2989.456, 2.144874
2991.385, 2.188361
2993.313, 2.137177
2995.241, 2.068738
2997.170, 2.037463
2999.098, 2.121540
3001.027, 1.987788
3002.955, 1.793797
3004.884, 2.007699
3006.812, 2.160404
3008.741, 2.098978
3010.669, 1.843905
3012.598, 1.833198
3014.526, 1.910397
3016.455, 2.060575
3018.383, 2.239662
3020.312, 1.886979
3022.240, 1.671095
3024.168, 1.749191
3026.097, 2.117111
3028.025, 1.948513
3029.954, 1.811091
3031.882, 2.022957
3033.811, 1.865385
3035.739, 1.746797
3037.668, 1.785323
3039.596, 1.968817
3041.525, 1.917570
3043.453, 1.918858
3045.382, 2.013818
3047.310, 1.969643
3049.239, 1.640002
3051.167, 1.564448
3053.095, 1.988881
3055.024, 2.013284
3056.952, 1.926947
3058.881, 1.830312
3060.809, 1.884634
3062.738, 1.646287
3064.666, 1.718246
3066.595, 1.991010
3068.523, 1.823592
3070.452, 1.791039
3072.380, 1.731884
3074.309, 1.717596
3076.237, 1.812838
3078.166, 1.844032
3080.094, 1.782751
3082.022, 1.560323
3083.951, 1.721250
3085.879, 1.662158
3087.808, 1.444727
3089.736, 1.434953
3091.665, 1.497605
3093.593, 1.640590
3095.522, 1.775639
3097.450, 1.618683
3099.379, 1.600979
3101.307, 1.566017
3103.236, 1.511379
3105.164, 1.630177
3107.093, 1.653942
3109.021, 1.676581
3110.949, 1.767101
3112.878, 1.573682
3114.806, 1.588575
3116.735, 1.679581
3118.663, 1.685823
3120.592, 1.485628
3122.520, 1.395451
3124.449, 1.411022
3126.377, 1.318680
3128.306, 1.575055
3130.234, 1.706810
3132.163, 1.582506
3134.091, 1.202480
3136.020, 1.277352
3137.948, 1.412828
3139.876, 1.460430
3141.805, 1.315786
3143.733, 1.419626
3145.662, 1.604145
3147.590, 1.604561
3149.519, 1.237318
3151.447, 1.099126
3153.376, 1.191439
3155.304, 1.415415
3157.233, 1.764957
3159.161, 1.695814
3161.090, 1.489931
3163.018, 1.304372
3164.947, 1.196977
3166.875, 1.193881
3168.803, 1.204810
3170.732, 1.198121
3172.660, 1.321663
3174.589, 1.417625
3176.517, 1.343745
3178.446, 1.063672
3180.374, 1.065083
3182.303, 1.235178
3184.231, 1.358343
3186.160, 1.315551
3188.088, 1.216835
3190.017, 1.175794
3191.945, 1.127898
3193.874, 1.020572
3195.802, 1.317866
3197.730, 1.410957
3199.659, 1.299291
3201.587, 1.070801
3203.516, 0.9166741
3205.444, 0.8191149
3207.373, 0.7996300
3209.301, 1.003368
3211.230, 1.180722
3213.158, 1.232315
3215.087, 1.200851
3217.015, 1.041172
3218.944, 0.8652948
3220.872, 0.9866520
3222.801, 1.114106
3224.729, 0.9997149
3226.657, 0.9466369
3228.586, 0.9125758
3230.514, 0.9039206
3232.443, 0.9287634
3234.371, 0.8449107
3236.300, 0.7621897
3238.228, 0.8237631
3240.157, 0.9634997
3242.085, 1.079142
3244.014, 0.8857216
3245.942, 0.8575458
3247.871, 0.9855994
3249.799, 0.8779029
3251.728, 0.8427212
3253.656, 0.9458506
3255.584, 1.092053
3257.513, 1.005005
3259.441, 0.7280729
3261.370, 0.6560667
3263.298, 0.7293609
3265.227, 0.8439337
3267.155, 0.7183930
3269.084, 0.6916218
3271.012, 0.7960804
3272.941, 1.041712
3274.869, 0.9269548
3276.798, 0.9196414
3278.726, 0.7622014
3280.655, 0.4462451
3282.583, 0.4362655
3284.511, 0.6030967
3286.440, 0.7271156
3288.368, 0.7291671
3290.297, 0.5849764
3292.225, 0.7169685
3294.154, 0.7949173
3296.082, 0.8294170
3298.011, 0.9757476
3299.939, 0.4930263
3301.868, 0.6046965
3303.796, 0.9403687
3305.725, 1.043900
3307.653, 0.8676860
3309.582, 0.6245715
3311.510, 0.7074378
3313.438, 0.9415619
3315.367, 0.7846604
3317.295, 0.7139508
3319.224, 0.8234775
3321.152, 0.9303580
3323.081, 0.7674770
3325.009, 0.7430822
3326.938, 0.7583122
3328.866, 0.6516551
3330.795, 0.4888885
3332.723, 0.4074327
3334.652, 0.7329224
3336.580, 0.7217063
3338.509, 0.4353495
3340.437, 0.4820236
3342.365, 0.7177931
3344.294, 0.6500226
3346.222, 0.6090296
3348.151, 0.7286053
3350.079, 0.3865428
3352.008, 0.2941388
3353.936, 0.4729020
3355.865, 0.7167624
3357.793, 0.6446866
3359.722, 0.6120151
3361.650, 0.5602916
3363.579, 0.5095820
3365.507, 0.4726916
3367.436, 0.2124849
3369.364, 0.2351535
3371.292, 0.2045754
3373.221, 0.1722081
3375.149, 0.4227679
3377.078, 0.7204804
3379.006, 0.6379496
3380.935, 0.4430370
3382.863, 0.3534276
3384.792, 0.1932249
3386.720, 0.2828340
3388.649, 0.5230019
3390.577, 0.6260991
3392.506, 0.3389036
3394.434, 0.3311817
3396.363, 0.4540573
3398.291, 0.4909269
3400.219, 0.3784092
3402.148, 0.3311903
3404.076, 0.3441018
3406.005, 0.5658973
3407.933, 0.7401413
3409.862, 0.6455312
3411.790, 0.2910733
3413.719, 0.3675289
3415.647, 0.5035726
3417.576, 0.5265386
3419.504, 0.4977352
3421.433, 0.4868039
3423.361, 0.3052002
3425.290, 0.3127996
3427.218, 0.5649212
3429.146, 0.6572527
3431.075, 0.5202320
3433.003, 0.5374562
3434.932, 0.5585474
3436.860, 0.4390366
3438.789, 0.4549961
3440.717, 0.2905438
3442.646, 0.1386688
3444.574, 0.2903571
3446.503, 0.7992144
3448.431, 0.4202190
3450.360, 0.4089582
3452.288, 0.4853029
3454.217, 0.4735227
3456.145, 0.4073674
3458.073, 0.4476932
3460.002, 0.3248817
3461.930, 0.3876104
3463.859, 0.4726506
3465.787, 6.7848697E-02
3467.716, 0.2695967
3469.644, 0.3243382
3471.573, 0.3305246
3473.501, 0.3390763
3475.430, 0.2223135
3477.358, 4.5991879E-02
3479.287, 0.1962130
3481.215, 0.3423775
3483.144, 0.2851767
3485.072, 0.1155804
3487.000, 0.3501664
3488.929, 0.2969552
3490.857, 0.2128002
3492.786, 0.2159733
3494.714, 4.6365108E-02
3496.643, 0.2446038
3498.571, 5.2000500E-02
3500.500, -0.2002406
3502.428, -0.1022923
3504.357, 0.5949497
3506.285, 0.2579937
3508.214, 0.3910554
3510.142, 0.4480700
3512.071, 0.2395783
3513.999, 0.3770013
3515.927, 0.3608637
3517.856, 0.3810035
3519.784, 0.3870191
3521.713, 0.3493636
3523.641, 0.3086402
3525.570, 0.5362839
3527.498, 0.3226226
3529.427, 0.3114241
3531.355, 0.4502624
3533.284, 0.2930287
3535.212, 0.2926300
3537.141, 0.1482734
3539.069, 0.2313699
3540.998, 0.3673643
3542.926, 0.3108975
3544.854, 0.4388179
3546.783, 0.1699407
3548.711, 4.3507561E-02
3550.640, 8.7364882E-02
3552.568, 0.1912679
3554.497, 0.4168321
3556.425, 0.1925899
3558.354, 0.2003095
3560.282, 0.2556174
3562.211, 0.2439871
3564.139, 0.3294058
3566.068, -2.1663390E-03
3567.996, 0.2608831
3569.925, 0.3975525
3571.853, 0.1913863
3573.781, -6.6892512E-02
3575.710, 0.1594271
3577.638, 0.4208149
3579.567, 0.4233178
3581.495, 0.4117109
3583.424, 0.4847783
3585.352, 0.3225637
3587.281, 0.2438358
3589.209, 0.1389274
3591.138, 1.5587720E-02
3593.066, 0.2031803
3594.995, 0.8331649
3596.923, 0.3561910
3598.852, 0.3115721
3600.780, 0.2313452
3602.708, 0.1955232
3604.637, 0.3094846
3606.565, 0.3064637
3608.494, 0.4027759
3610.422, 0.3941054
3612.351, 0.4133874
3614.279, 0.4626173
3616.208, 0.4272272
3618.136, 7.3339909E-02
3620.065, 0.4914400
3621.993, 0.6094969
3623.922, 0.4936887
3625.850, 0.4120317
3627.779, 0.3890720
3629.707, 0.1857414
3631.635, 0.2306018
3633.564, 0.3804923
3635.492, 0.3883431
3637.421, 0.1442746
3639.349, -0.2400165
3641.278, -9.7676001E-02
3643.206, 0.1446727
3645.135, 0.2174865
3647.063, 0.1569741
3648.992, 8.0583058E-02
3650.920, -8.4458150E-02
3652.849, 0.1488024
3654.777, 0.3098640
3656.706, -0.3578342
3658.634, 0.2980473
3660.563, 0.6626541
3662.491, 0.7516469
3664.419, -0.2604867
3666.348, 0.1492513
3668.276, -1.0829558E-02
3670.205, -0.1942821
3672.133, 0.4155836
3674.062, -0.4363985
3675.990, 0.1608865
3677.919, 0.1796476
3679.847, 0.4631872
3681.776, 0.1733793
3683.704, 6.0662337E-02
3685.633, 0.5214683
3687.561, 0.6647127
3689.490, 0.3089038
3691.418, 0.1014480
3693.346, 0.2525691
3695.275, 0.2700335
3697.203, -1.5762459E-02
3699.132, 0.2166823
3701.060, 0.1201960
3702.989, -3.6749810E-03
3704.917, 6.9599979E-02
3706.846, 0.2316739
3708.774, 0.2893495
3710.703, 0.1557979
3712.631, -0.1186190
3714.560, 0.1703035
3716.488, 0.5239484
3718.417, 0.4166669
3720.345, 0.4992713
3722.273, 0.2692536
3724.202, 0.2294717
3726.130, 0.1108148
3728.059, 3.3071521E-03
3729.987, -7.7020950E-03
3731.916, -5.1939659E-02
3733.844, 0.2940484
3735.773, 9.3244448E-02
3737.701, 4.7989469E-02
3739.630, 8.6146086E-02
3741.558, -8.9804102E-03
3743.487, -0.1365752
3745.415, 0.2860419
3747.344, 3.5954010E-02
3749.272, 4.1042801E-02
3751.200, 3.4361400E-02
3753.129, 3.7552532E-02
3755.057, 3.4242529E-02
3756.986, -0.1963680
3758.914, 0.1881536
3760.843, 0.2858753
3762.771, -1.1581660E-02
3764.700, -6.2365741E-02
3766.628, 0.1567805
3768.557, 0.1782142
3770.485, -0.2620620
3772.414, 0.1777812
3774.342, 0.1854440
3776.271, 0.1042280
3778.199, 0.1180348
3780.127, 2.0523930E-02
3782.056, -0.2991182
3783.984, 0.1196833
3785.913, 0.1435302
3787.841, -0.1052640
3789.770, -0.2639726
3791.698, -8.2360528E-02
3793.627, 7.3347159E-02
3795.555, -0.3723113
3797.484, -5.0418429E-02
3799.412, -7.6632857E-02
3801.341, 1.7016049E-02
3803.269, -0.2405746
3805.198, -0.3219090
3807.126, -0.1203336
3809.054, -0.2881188
3810.983, -0.2632586
3812.911, 0.2643626
3814.840, 0.1528475
3816.768, -7.5878933E-02
3818.697, -4.3468840E-02
3820.625, 2.8994570E-02
3822.554, -0.1195085
3824.482, 0.3080468
3826.411, 4.5102421E-02
3828.339, -0.2585925
3830.268, -0.1245090
3832.196, 0.1243768
3834.125, 0.1657820
3836.053, 4.1065160E-02
3837.981, -2.7974680E-02
3839.910, -7.9555772E-02
3841.838, 1.1373400E-02
3843.767, -5.7134811E-02
3845.695, 0.1979528
3847.624, 0.3347951
3849.552, -1.9065861E-02
3851.481, -0.3633676
3853.409, 0.1332365
3855.338, 0.4106651
3857.266, 0.4806990
3859.195, -0.2778389
3861.123, 3.3551943E-02
3863.052, -8.3837323E-02
3864.980, -0.2188067
3866.908, 0.2431716
3868.837, -0.3948525
3870.765, 5.7659283E-02
3872.694, 7.4847251E-02
3874.622, 0.2912735
3876.551, 7.6271497E-02
3878.479, -5.4746354E-03
3880.408, 0.3443417
3882.336, 0.4551993
3884.265, 0.1905333
3886.193, 0.4196236
3888.122, -0.2334713
3890.050, -0.1124357
3891.979, 0.3425994
3893.907, 9.9627465E-02
3895.835, 0.3366063
3897.764, 0.3907911
3899.692, -0.3857337
3901.621, 0.2824302
3903.549, 0.3258149
3905.478, -0.2723168
3907.406, 0.3463485
3909.335, -0.1633433
3911.263, -0.2702794
3913.192, -7.4119240E-02
3915.120, -0.1939267
3917.049, 0.1844262
3918.977, 8.2865827E-02
3920.906, -6.1574493E-02
3922.834, -1.8890448E-02
3924.762, -0.5064539
3926.691, -0.2675284
3928.619, -0.4269809
3930.548, 7.3758774E-02
3932.476, -4.4703942E-02
3934.405, -0.2712067
3936.333, -0.2784444
3938.262, -0.2449817
3940.190, -0.3145538
3942.119, -0.3646022
3944.047, -0.1941589
3945.976, -4.4550210E-02
3947.904, -0.2295893
3949.833, -0.2467390
3951.761, -0.1678777
3953.689, -0.1492561
3955.618, -5.4667540E-02
3957.546, -8.0799777E-03
3959.475, -0.1448188
3961.403, 2.8699080E-03
3963.332, -3.8514819E-02
3965.260, -0.1604160
3967.189, 4.4277129E-03
3969.117, 4.0658139E-02
3971.046, 6.2713407E-02
3972.974, -0.1614954
3974.903, -0.3481356
3976.831, -0.1758323
3978.760, 1.7572750E-03
3980.688, -4.4167481E-02
3982.616, 0.1013565
3984.545, 9.0775259E-02
3986.473, -0.1559284
3988.402, 9.4474433E-03
3990.330, 0.2229020
3992.259, 0.1770436
3994.187, 9.8994441E-02
3996.116, 0.2596609
3998.044, 0.3900822
3999.973, 6.9284983E-02
4001.901, 0.1746316
4003.830, 0.3052544
4005.758, 0.1654258
4007.687, -9.1144539E-02
4009.615, -0.1052900
4011.543, 7.7748463E-02
4013.472, 0.2370150
4015.400, 0.3447174
4017.329, 0.1490010
4019.257, 0.1000772
4021.186, -6.8041352E-03
4023.114, 0.1587946
4025.043, 0.3730075
4026.971, 0.1988778
4028.900, 0.1753554
4030.828, 0.2703640
4032.757, 3.7356489E-03
4034.685, 0.1281089
4036.614, 0.3442647
4038.542, -1.1866100E-04
4040.470, 0.1740246
4042.399, 6.8386637E-02
4044.327, -9.7727170E-04
4046.256, 0.1646685
4048.184, 0.1641341
4050.113, 0.1058929
4052.041, 0.3331151
4053.970, 0.3167690
4055.898, 0.4531147
4057.827, 1.5426440E-02
4059.755, 0.1039252
4061.684, 0.2866774
4063.612, 0.3936114
4065.541, 0.3172384
4067.469, 0.1976970
4069.397, 8.5708253E-02
4071.326, 4.4355351E-02
4073.254, 0.1427488
4075.183, -0.1700595
4077.111, 0.1499537
4079.040, -5.0898109E-02
4080.968, -5.7374202E-03
4082.897, 0.1337549
4084.825, 0.1394392
4086.754, 0.1616779
4088.682, 0.2532098
4090.611, 0.3228356
4092.539, 0.2017957
4094.468, -0.1226906
4096.396, 0.1122455
4098.324, 0.2239358
4100.253, 3.4361649E-02
4102.181, 2.7987380E-02
4104.110, 7.8461178E-02
4106.038, 8.8569298E-02
4107.967, -9.6735083E-02
4109.895, -2.0009721E-02
4111.824, 2.9307431E-02
4113.752, -0.2226705
4115.681, -0.1585264
4117.609, 2.5503671E-02
4119.538, -0.2952320
4121.466, 0.1193366
4123.395, 8.8820226E-02
4125.323, 0.2221950
4127.251, 0.2570978
4129.180, 0.1199701
4131.108, 4.5127249E-03
4133.037, 0.2307730
4134.965, 0.2515483
4136.894, -8.1551626E-02
4138.822, 2.8425030E-02
4140.750, 0.1552786
4142.679, -0.1163708
4144.607, -7.6348148E-02
4146.536, 0.2632752
4148.464, -0.2202220
4150.393, -4.7461700E-02
4152.321, 0.1923116
4154.250, 9.8534428E-02
4156.178, 0.1610890
4158.107, 0.2380385
4160.035, 4.8033722E-02
4161.964, -6.8800771E-03
4163.892, 0.1701039
4165.821, -0.1187341
4167.749, 7.6395787E-02
4169.678, 0.1030871
4171.606, -0.1335511
4173.535, 0.2492522
4175.463, -0.2538355
4177.392, 9.1686882E-02
4179.320, 6.0082290E-02
4181.249, 4.6910521E-02
4183.177, 0.1617547
4185.105, -1.5371130E-02
4187.034, 4.3485232E-02
4188.962, 0.3740984
4190.891, 0.1247020
4192.819, 0.3902870
4194.748, -0.1890433
4196.676, -5.6537040E-02
4198.604, -0.1805592
4200.533, 1.9307390E-02
4202.461, -7.1605787E-02
4204.390, -0.2978286
4206.318, -0.1085915
4208.247, -3.5993300E-02
4210.175, 5.1045310E-05
4212.104, 6.7513587E-04
4214.032, 0.2231326
4215.961, 0.3576780
4217.889, -1.6642829E-02
4219.818, -0.1433758
4221.746, 0.1915352
4223.675, 0.3991343
4225.603, 0.2144776
4227.532, -0.2843594
4229.460, -7.0254907E-02
4231.389, 0.2663494
4233.317, -0.1222249
4235.246, -0.1464767
4237.174, -8.1487074E-03
4239.103, 9.3488507E-02
4241.031, 1.5697420E-02
4242.959, -0.1650032
4244.888, -0.3475054
4246.816, -0.2288467
4248.745, 2.8056091E-02
4250.673, 0.1007606
4252.602, 0.2516570
4254.530, 8.9836143E-02
4256.458, -4.0912461E-02
4258.387, -0.2287454
4260.315, 5.0903808E-02
4262.244, 0.2973054
4264.172, 0.2709560
4266.101, -3.1652351E-04
4268.029, -0.3365758
4269.958, -0.1056817
4271.886, 5.4750559E-03
4273.815, -3.3850130E-02
4275.743, -3.5970028E-02
4277.672, 6.9667429E-02
4279.600, 0.1518936
4281.529, 0.1199870
4283.457, -0.1891563
4285.386, -0.1347258
4287.314, 0.2523929
4289.243, 4.5558330E-02
4291.171, 0.3487123
4293.100, -3.7652660E-02
4295.028, 0.2775662
4296.957, -0.1536850
4298.885, 0.1523782
4300.813, 0.2727781
4302.742, 0.2560534
4304.670, -0.5152657
4306.599, -0.1604623
4308.527, -1.0640280E-02
4310.456, 2.6805220E-02
4312.384, -0.2184372
4314.313, 0.1376699
4316.241, 2.5048790E-02
4318.169, 0.2454178
4320.098, 0.2865747
4322.026, 0.2227241
4323.955, 0.1461859
4325.883, 0.2451761
4327.812, 4.6149079E-02
4329.740, -0.1082196
4331.669, 0.1898131
4333.597, -0.2268518
4335.526, -0.3097088
4337.454, 2.7086839E-02
4339.383, -0.2989182
4341.311, -1.2891589E-03
4343.240, 4.7459681E-02
4345.168, -9.3009591E-02
4347.097, 0.1315607
4349.025, -2.5626160E-02
4350.954, -0.1160189
4352.882, -0.3740484
4354.811, -6.1852122E-03
4356.739, -2.1775670E-02
4358.667, -0.1301602
4360.596, -4.8589699E-02
4362.524, -0.2163143
4364.453, -2.5171600E-02
4366.381, -2.7087640E-03
4368.310, 7.7287771E-02
4370.238, 0.2973498
4372.167, -0.1019332
4374.095, -6.2230360E-02
4376.023, -0.1156319
4377.952, -7.1253084E-02
4379.880, 0.2827352
4381.809, 0.1474400
##END=



