##NAMES=Mottramite
##RRUFFID=R050517
##IDEAL CHEMISTRY=PbCu(VO_4_)(OH)
##LOCALITY=Tsumeb mine, Tsumeb, Otavi District, Oshikoto, Namibia
##OWNER=RRUFF
##SOURCE=University of Arizona Mineral Museum
##DESCRIPTION=Coating of green prismatic crystals
##STATUS=The identification of this mineral has been confirmed by X-ray diffraction and chemical analysis
##URL=https://www.rruff.net/odr/rruff_sample/R050517
##MEASURED CHEMISTRY=Pb_1.00_Cu_1.00_((V_0.88_As_0.12_)O_4_)(OH)
##DIFFRACTION SAMPLE DESCRIPTION=Powder
##CELL PARAMETERS=a: 7.7035 b: 6.0491 c: 9.2367 alpha: 90 beta: 90 gamma: 90 volume: 430.43 crystal system: orthorhombic
##FILETYPE=Raman RAW
##RAMAN WAVELENGTH=785

8.740845e+001, 0.000000e+000
8.933691e+001, 1.341727e+002
9.126538e+001, 1.317100e+002
9.319385e+001, 1.410138e+002
9.512231e+001, 1.592559e+002
9.705078e+001, 1.805089e+002
9.897925e+001, 2.050766e+002
1.009077e+002, 2.298638e+002
1.028362e+002, 2.497419e+002
1.047646e+002, 2.753550e+002
1.066931e+002, 3.106022e+002
1.086216e+002, 3.540006e+002
1.105500e+002, 3.990097e+002
1.124785e+002, 4.456896e+002
1.144070e+002, 5.139240e+002
1.163354e+002, 6.178231e+002
1.182639e+002, 7.312892e+002
1.201924e+002, 8.511777e+002
1.221208e+002, 9.772805e+002
1.240493e+002, 1.115000e+003
1.259778e+002, 1.260189e+003
1.279063e+002, 1.392321e+003
1.298347e+002, 1.509349e+003
1.317632e+002, 1.611518e+003
1.336917e+002, 1.678141e+003
1.356201e+002, 1.749918e+003
1.375486e+002, 1.863324e+003
1.394771e+002, 2.003195e+003
1.414055e+002, 2.141890e+003
1.433340e+002, 2.288943e+003
1.452625e+002, 2.395916e+003
1.471909e+002, 2.442294e+003
1.491194e+002, 2.471566e+003
1.510479e+002, 2.490831e+003
1.529763e+002, 2.510437e+003
1.549048e+002, 2.535946e+003
1.568333e+002, 2.507596e+003
1.587617e+002, 2.470247e+003
1.606902e+002, 2.444581e+003
1.626187e+002, 2.428302e+003
1.645471e+002, 2.432376e+003
1.664756e+002, 2.432648e+003
1.684041e+002, 2.405506e+003
1.703325e+002, 2.359626e+003
1.722610e+002, 2.321358e+003
1.741895e+002, 2.294434e+003
1.761179e+002, 2.269250e+003
1.780464e+002, 2.240633e+003
1.799749e+002, 2.218559e+003
1.819033e+002, 2.212300e+003
1.838318e+002, 2.212540e+003
1.857603e+002, 2.207372e+003
1.876887e+002, 2.196144e+003
1.896172e+002, 2.181937e+003
1.915457e+002, 2.167048e+003
1.934741e+002, 2.145705e+003
1.954026e+002, 2.109208e+003
1.973311e+002, 2.072640e+003
1.992595e+002, 2.050338e+003
2.011880e+002, 2.037122e+003
2.031165e+002, 2.016258e+003
2.050449e+002, 1.984345e+003
2.069734e+002, 1.950948e+003
2.089019e+002, 1.908995e+003
2.108303e+002, 1.874121e+003
2.127588e+002, 1.851905e+003
2.146872e+002, 1.840178e+003
2.166157e+002, 1.838663e+003
2.185442e+002, 1.847270e+003
2.204726e+002, 1.852327e+003
2.224011e+002, 1.851256e+003
2.243296e+002, 1.850518e+003
2.262580e+002, 1.842139e+003
2.281865e+002, 1.843391e+003
2.301150e+002, 1.871636e+003
2.320434e+002, 1.912222e+003
2.339719e+002, 1.941753e+003
2.359004e+002, 1.955881e+003
2.378288e+002, 1.982517e+003
2.397573e+002, 2.022914e+003
2.416858e+002, 2.071888e+003
2.436142e+002, 2.132141e+003
2.455427e+002, 2.196941e+003
2.474712e+002, 2.260514e+003
2.493996e+002, 2.325644e+003
2.513281e+002, 2.399002e+003
2.532566e+002, 2.482182e+003
2.551850e+002, 2.568536e+003
2.571135e+002, 2.656090e+003
2.590420e+002, 2.749329e+003
2.609705e+002, 2.847251e+003
2.628989e+002, 2.954027e+003
2.648274e+002, 3.073376e+003
2.667559e+002, 3.202347e+003
2.686843e+002, 3.332348e+003
2.706128e+002, 3.460597e+003
2.725413e+002, 3.599932e+003
2.744697e+002, 3.751616e+003
2.763982e+002, 3.911722e+003
2.783267e+002, 4.092350e+003
2.802551e+002, 4.267224e+003
2.821836e+002, 4.424571e+003
2.841121e+002, 4.562264e+003
2.860405e+002, 4.672991e+003
2.879690e+002, 4.753766e+003
2.898975e+002, 4.814576e+003
2.918259e+002, 4.852573e+003
2.937544e+002, 4.876831e+003
2.956829e+002, 4.873129e+003
2.976113e+002, 4.876592e+003
2.995398e+002, 4.909128e+003
3.014683e+002, 4.963966e+003
3.033967e+002, 5.026583e+003
3.053252e+002, 5.096534e+003
3.072537e+002, 5.184202e+003
3.091821e+002, 5.301221e+003
3.111106e+002, 5.404253e+003
3.130391e+002, 5.484915e+003
3.149675e+002, 5.545108e+003
3.168960e+002, 5.592203e+003
3.188245e+002, 5.618028e+003
3.207529e+002, 5.608460e+003
3.226814e+002, 5.563024e+003
3.246099e+002, 5.497291e+003
3.265383e+002, 5.409687e+003
3.284668e+002, 5.312655e+003
3.303953e+002, 5.212482e+003
3.323237e+002, 5.095084e+003
3.342522e+002, 4.933165e+003
3.361806e+002, 4.768780e+003
3.381091e+002, 4.653025e+003
3.400376e+002, 4.571632e+003
3.419660e+002, 4.450086e+003
3.438945e+002, 4.283122e+003
3.458230e+002, 4.119079e+003
3.477514e+002, 3.967390e+003
3.496799e+002, 3.804246e+003
3.516084e+002, 3.608537e+003
3.535368e+002, 3.412836e+003
3.554653e+002, 3.240561e+003
3.573938e+002, 3.080301e+003
3.593222e+002, 2.908644e+003
3.612507e+002, 2.725846e+003
3.631792e+002, 2.557220e+003
3.651076e+002, 2.400509e+003
3.670361e+002, 2.268578e+003
3.689646e+002, 2.167314e+003
3.708930e+002, 2.086955e+003
3.728215e+002, 2.031453e+003
3.747500e+002, 1.985235e+003
3.766784e+002, 1.930561e+003
3.786069e+002, 1.874565e+003
3.805354e+002, 1.844019e+003
3.824638e+002, 1.838553e+003
3.843923e+002, 1.829704e+003
3.863208e+002, 1.814632e+003
3.882492e+002, 1.799573e+003
3.901777e+002, 1.787854e+003
3.921062e+002, 1.774443e+003
3.940346e+002, 1.761868e+003
3.959631e+002, 1.742915e+003
3.978916e+002, 1.707895e+003
3.998200e+002, 1.659529e+003
4.017485e+002, 1.607196e+003
4.036770e+002, 1.550958e+003
4.056054e+002, 1.498691e+003
4.075339e+002, 1.453578e+003
4.094624e+002, 1.405111e+003
4.113908e+002, 1.340083e+003
4.133193e+002, 1.283010e+003
4.152478e+002, 1.249250e+003
4.171762e+002, 1.224491e+003
4.191047e+002, 1.192732e+003
4.210332e+002, 1.156375e+003
4.229616e+002, 1.122746e+003
4.248901e+002, 1.091867e+003
4.268186e+002, 1.069296e+003
4.287470e+002, 1.059652e+003
4.306755e+002, 1.045143e+003
4.326040e+002, 1.016450e+003
4.345324e+002, 9.873631e+002
4.364609e+002, 9.613563e+002
4.383894e+002, 9.384887e+002
4.403178e+002, 9.186797e+002
4.422463e+002, 9.022216e+002
4.441748e+002, 8.917697e+002
4.461032e+002, 8.861927e+002
4.480317e+002, 8.737148e+002
4.499602e+002, 8.505042e+002
4.518886e+002, 8.339845e+002
4.538171e+002, 8.340413e+002
4.557456e+002, 8.323781e+002
4.576740e+002, 8.228915e+002
4.596025e+002, 8.111442e+002
4.615310e+002, 8.008941e+002
4.634594e+002, 7.910513e+002
4.653879e+002, 7.767142e+002
4.673164e+002, 7.612146e+002
4.692448e+002, 7.602824e+002
4.711733e+002, 7.760794e+002
4.731018e+002, 7.794328e+002
4.750302e+002, 7.576591e+002
4.769587e+002, 7.421132e+002
4.788872e+002, 7.436563e+002
4.808156e+002, 7.458047e+002
4.827441e+002, 7.422961e+002
4.846726e+002, 7.357525e+002
4.866010e+002, 7.273257e+002
4.885295e+002, 7.182582e+002
4.904580e+002, 7.110340e+002
4.923864e+002, 7.053558e+002
4.943149e+002, 6.988018e+002
4.962434e+002, 6.903616e+002
4.981718e+002, 6.859531e+002
5.001003e+002, 6.898300e+002
5.020288e+002, 6.922217e+002
5.039572e+002, 6.879586e+002
5.058857e+002, 6.864204e+002
5.078142e+002, 6.979997e+002
5.097426e+002, 7.089775e+002
5.116711e+002, 7.025695e+002
5.135996e+002, 6.877665e+002
5.155281e+002, 6.796369e+002
5.174565e+002, 6.776379e+002
5.193850e+002, 6.779316e+002
5.213135e+002, 6.816002e+002
5.232419e+002, 6.812648e+002
5.251704e+002, 6.729330e+002
5.270989e+002, 6.657757e+002
5.290273e+002, 6.597906e+002
5.309558e+002, 6.564563e+002
5.328843e+002, 6.581899e+002
5.348127e+002, 6.608944e+002
5.367412e+002, 6.613466e+002
5.386697e+002, 6.606144e+002
5.405981e+002, 6.605678e+002
5.425266e+002, 6.606156e+002
5.444551e+002, 6.586433e+002
5.463835e+002, 6.546304e+002
5.483120e+002, 6.484875e+002
5.502405e+002, 6.382136e+002
5.521689e+002, 6.299565e+002
5.540974e+002, 6.223737e+002
5.560259e+002, 6.192197e+002
5.579543e+002, 6.243805e+002
5.598828e+002, 6.303766e+002
5.618113e+002, 6.352739e+002
5.637397e+002, 6.372110e+002
5.656682e+002, 6.316949e+002
5.675967e+002, 6.237839e+002
5.695251e+002, 6.236472e+002
5.714536e+002, 6.297690e+002
5.733821e+002, 6.287852e+002
5.753105e+002, 6.174698e+002
5.772390e+002, 6.131471e+002
5.791675e+002, 6.219865e+002
5.810959e+002, 6.264743e+002
5.830244e+002, 6.220078e+002
5.849528e+002, 6.202060e+002
5.868813e+002, 6.270186e+002
5.888098e+002, 6.328854e+002
5.907382e+002, 6.314738e+002
5.926667e+002, 6.285382e+002
5.945952e+002, 6.289093e+002
5.965236e+002, 6.305048e+002
5.984521e+002, 6.306555e+002
6.003806e+002, 6.293610e+002
6.023090e+002, 6.255011e+002
6.042375e+002, 6.183997e+002
6.061660e+002, 6.185289e+002
6.080944e+002, 6.309796e+002
6.100229e+002, 6.359249e+002
6.119514e+002, 6.288152e+002
6.138798e+002, 6.252855e+002
6.158083e+002, 6.303192e+002
6.177368e+002, 6.348776e+002
6.196652e+002, 6.324563e+002
6.215937e+002, 6.330143e+002
6.235222e+002, 6.489616e+002
6.254506e+002, 6.644650e+002
6.273791e+002, 6.622301e+002
6.293076e+002, 6.532242e+002
6.312360e+002, 6.568272e+002
6.331645e+002, 6.695851e+002
6.350930e+002, 6.751653e+002
6.370214e+002, 6.729846e+002
6.389499e+002, 6.827463e+002
6.408784e+002, 7.081086e+002
6.428068e+002, 7.246304e+002
6.447353e+002, 7.284381e+002
6.466638e+002, 7.336017e+002
6.485922e+002, 7.421431e+002
6.505207e+002, 7.536675e+002
6.524492e+002, 7.698991e+002
6.543776e+002, 7.857838e+002
6.563061e+002, 7.986682e+002
6.582346e+002, 8.103119e+002
6.601630e+002, 8.219170e+002
6.620915e+002, 8.327729e+002
6.640200e+002, 8.384872e+002
6.659484e+002, 8.448406e+002
6.678769e+002, 8.680452e+002
6.698054e+002, 9.026769e+002
6.717338e+002, 9.211000e+002
6.736623e+002, 9.231805e+002
6.755908e+002, 9.291417e+002
6.775192e+002, 9.390163e+002
6.794477e+002, 9.514825e+002
6.813762e+002, 9.669957e+002
6.833046e+002, 9.814156e+002
6.852331e+002, 9.944120e+002
6.871616e+002, 1.004622e+003
6.890900e+002, 1.011323e+003
6.910185e+002, 1.015864e+003
6.929470e+002, 1.018051e+003
6.948754e+002, 1.019377e+003
6.968039e+002, 1.019228e+003
6.987324e+002, 1.020104e+003
7.006608e+002, 1.026591e+003
7.025893e+002, 1.033063e+003
7.045178e+002, 1.030846e+003
7.064462e+002, 1.024090e+003
7.083747e+002, 1.020798e+003
7.103032e+002, 1.020481e+003
7.122316e+002, 1.021250e+003
7.141601e+002, 1.023231e+003
7.160886e+002, 1.028551e+003
7.180170e+002, 1.037157e+003
7.199455e+002, 1.042173e+003
7.218740e+002, 1.042115e+003
7.238024e+002, 1.050220e+003
7.257309e+002, 1.071548e+003
7.276594e+002, 1.087721e+003
7.295878e+002, 1.091254e+003
7.315163e+002, 1.097288e+003
7.334448e+002, 1.112646e+003
7.353732e+002, 1.127202e+003
7.373017e+002, 1.131149e+003
7.392302e+002, 1.142687e+003
7.411586e+002, 1.176167e+003
7.430871e+002, 1.214437e+003
7.450156e+002, 1.240258e+003
7.469440e+002, 1.269144e+003
7.488725e+002, 1.320197e+003
7.508010e+002, 1.382610e+003
7.527294e+002, 1.439494e+003
7.546579e+002, 1.496110e+003
7.565864e+002, 1.562917e+003
7.585148e+002, 1.639068e+003
7.604433e+002, 1.721336e+003
7.623718e+002, 1.811041e+003
7.643002e+002, 1.917287e+003
7.662287e+002, 2.039586e+003
7.681572e+002, 2.165101e+003
7.700856e+002, 2.292393e+003
7.720141e+002, 2.430915e+003
7.739426e+002, 2.581209e+003
7.758710e+002, 2.745521e+003
7.777995e+002, 2.925583e+003
7.797280e+002, 3.116125e+003
7.816564e+002, 3.315760e+003
7.835849e+002, 3.527069e+003
7.855134e+002, 3.758723e+003
7.874418e+002, 3.988512e+003
7.893703e+002, 4.214408e+003
7.912988e+002, 4.431688e+003
7.932272e+002, 4.621399e+003
7.951557e+002, 4.825184e+003
7.970842e+002, 5.066126e+003
7.990126e+002, 5.328776e+003
8.009411e+002, 5.610140e+003
8.028696e+002, 5.899452e+003
8.047980e+002, 6.202299e+003
8.067265e+002, 6.492334e+003
8.086550e+002, 6.757699e+003
8.105834e+002, 6.976078e+003
8.125119e+002, 7.126410e+003
8.144404e+002, 7.203683e+003
8.163688e+002, 7.216750e+003
8.182973e+002, 7.142981e+003
8.202258e+002, 6.904806e+003
8.221542e+002, 6.526465e+003
8.240827e+002, 6.106264e+003
8.260112e+002, 5.648142e+003
8.279396e+002, 5.175944e+003
8.298681e+002, 4.688779e+003
8.317966e+002, 4.223515e+003
8.337250e+002, 3.774547e+003
8.356535e+002, 3.386854e+003
8.375820e+002, 3.067084e+003
8.395104e+002, 2.788047e+003
8.414389e+002, 2.556448e+003
8.433674e+002, 2.351350e+003
8.452958e+002, 2.172656e+003
8.472243e+002, 2.019966e+003
8.491528e+002, 1.899387e+003
8.510812e+002, 1.792568e+003
8.530097e+002, 1.702154e+003
8.549382e+002, 1.615958e+003
8.568666e+002, 1.530929e+003
8.587951e+002, 1.452072e+003
8.607236e+002, 1.376304e+003
8.626520e+002, 1.316799e+003
8.645805e+002, 1.289369e+003
8.665090e+002, 1.255341e+003
8.684374e+002, 1.193478e+003
8.703659e+002, 1.134308e+003
8.722944e+002, 1.090597e+003
8.742228e+002, 1.054389e+003
8.761513e+002, 1.022971e+003
8.780798e+002, 9.959033e+002
8.800082e+002, 9.781492e+002
8.819367e+002, 9.572188e+002
8.838652e+002, 9.202220e+002
8.857936e+002, 8.834453e+002
8.877221e+002, 8.585798e+002
8.896506e+002, 8.379561e+002
8.915790e+002, 8.163229e+002
8.935075e+002, 7.956608e+002
8.954360e+002, 7.784633e+002
8.973644e+002, 7.623712e+002
8.992929e+002, 7.438749e+002
9.012214e+002, 7.262124e+002
9.031498e+002, 7.137220e+002
9.050783e+002, 7.038096e+002
9.070068e+002, 6.945275e+002
9.089352e+002, 6.843663e+002
9.108637e+002, 6.706144e+002
9.127922e+002, 6.547041e+002
9.147206e+002, 6.355237e+002
9.166491e+002, 6.183023e+002
9.185776e+002, 6.154415e+002
9.205060e+002, 6.204564e+002
9.224345e+002, 6.210822e+002
9.243630e+002, 6.182213e+002
9.262914e+002, 6.140023e+002
9.282199e+002, 6.080190e+002
9.301484e+002, 5.978087e+002
9.320768e+002, 5.854858e+002
9.340053e+002, 5.778123e+002
9.359338e+002, 5.729843e+002
9.378622e+002, 5.633073e+002
9.397907e+002, 5.520882e+002
9.417192e+002, 5.531856e+002
9.436476e+002, 5.622159e+002
9.455761e+002, 5.626982e+002
9.475046e+002, 5.566525e+002
9.494330e+002, 5.513068e+002
9.513615e+002, 5.467897e+002
9.532900e+002, 5.443512e+002
9.552184e+002, 5.433124e+002
9.571469e+002, 5.415034e+002
9.590754e+002, 5.384151e+002
9.610038e+002, 5.286663e+002
9.629323e+002, 5.155685e+002
9.648608e+002, 5.181229e+002
9.667892e+002, 5.309782e+002
9.687177e+002, 5.284778e+002
9.706462e+002, 5.144884e+002
9.725746e+002, 5.044843e+002
9.745031e+002, 4.989660e+002
9.764316e+002, 5.021893e+002
9.783600e+002, 5.109236e+002
9.802885e+002, 5.108678e+002
9.822170e+002, 5.044497e+002
9.841454e+002, 5.016034e+002
9.860739e+002, 5.017822e+002
9.880024e+002, 5.025169e+002
9.899308e+002, 5.037032e+002
9.918593e+002, 5.058684e+002
9.937878e+002, 5.081819e+002
9.957162e+002, 5.076442e+002
9.976447e+002, 5.048658e+002
9.995732e+002, 5.017383e+002
1.001502e+003, 4.983509e+002
1.003430e+003, 4.936279e+002
1.005359e+003, 4.892151e+002
1.007287e+003, 4.912816e+002
1.009216e+003, 4.969244e+002
1.011144e+003, 4.984804e+002
1.013072e+003, 4.970061e+002
1.015001e+003, 4.943100e+002
1.016929e+003, 4.914384e+002
1.018858e+003, 4.907716e+002
1.020786e+003, 4.916639e+002
1.022715e+003, 4.930327e+002
1.024643e+003, 4.946985e+002
1.026572e+003, 4.978520e+002
1.028500e+003, 4.999620e+002
1.030429e+003, 4.945646e+002
1.032357e+003, 4.866484e+002
1.034286e+003, 4.815585e+002
1.036214e+003, 4.814135e+002
1.038143e+003, 4.967145e+002
1.040071e+003, 5.118201e+002
1.042000e+003, 5.014600e+002
1.043928e+003, 4.841667e+002
1.045856e+003, 4.809771e+002
1.047785e+003, 4.836014e+002
1.049713e+003, 4.852524e+002
1.051642e+003, 4.859497e+002
1.053570e+003, 4.855793e+002
1.055499e+003, 4.844227e+002
1.057427e+003, 4.820830e+002
1.059356e+003, 4.798235e+002
1.061284e+003, 4.777800e+002
1.063213e+003, 4.773202e+002
1.065141e+003, 4.832331e+002
1.067070e+003, 4.852653e+002
1.068998e+003, 4.717655e+002
1.070927e+003, 4.612786e+002
1.072855e+003, 4.683359e+002
1.074783e+003, 4.730065e+002
1.076712e+003, 4.629820e+002
1.078640e+003, 4.541174e+002
1.080569e+003, 4.525544e+002
1.082497e+003, 4.540947e+002
1.084426e+003, 4.596263e+002
1.086354e+003, 4.622173e+002
1.088283e+003, 4.570274e+002
1.090211e+003, 4.568842e+002
1.092140e+003, 4.685840e+002
1.094068e+003, 4.739531e+002
1.095996e+003, 4.680319e+002
1.097925e+003, 4.603058e+002
1.099853e+003, 4.498580e+002
1.101782e+003, 4.479310e+002
1.103710e+003, 4.585406e+002
1.105639e+003, 4.616157e+002
1.107567e+003, 4.537224e+002
1.109496e+003, 4.536574e+002
1.111424e+003, 4.635170e+002
1.113353e+003, 4.656242e+002
1.115281e+003, 4.599638e+002
1.117210e+003, 4.574689e+002
1.119138e+003, 4.577318e+002
1.121067e+003, 4.554535e+002
1.122995e+003, 4.515558e+002
1.124923e+003, 4.507837e+002
1.126852e+003, 4.523799e+002
1.128780e+003, 4.536342e+002
1.130709e+003, 4.555616e+002
1.132637e+003, 4.629098e+002
1.134566e+003, 4.703856e+002
1.136494e+003, 4.682030e+002
1.138423e+003, 4.617419e+002
1.140351e+003, 4.547350e+002
1.142280e+003, 4.506045e+002
1.144208e+003, 4.573227e+002
1.146137e+003, 4.621393e+002
1.148065e+003, 4.512796e+002
1.149994e+003, 4.416269e+002
1.151922e+003, 4.452649e+002
1.153850e+003, 4.481642e+002
1.155779e+003, 4.440064e+002
1.157707e+003, 4.402760e+002
1.159636e+003, 4.388694e+002
1.161564e+003, 4.388039e+002
1.163493e+003, 4.397245e+002
1.165421e+003, 4.431931e+002
1.167350e+003, 4.507385e+002
1.169278e+003, 4.517172e+002
1.171207e+003, 4.442475e+002
1.173135e+003, 4.380395e+002
1.175064e+003, 4.341098e+002
1.176992e+003, 4.353866e+002
1.178921e+003, 4.410694e+002
1.180849e+003, 4.430433e+002
1.182777e+003, 4.421050e+002
1.184706e+003, 4.438158e+002
1.186634e+003, 4.464706e+002
1.188563e+003, 4.423433e+002
1.190491e+003, 4.380216e+002
1.192420e+003, 4.512508e+002
1.194348e+003, 4.655716e+002
1.196277e+003, 4.552055e+002
1.198205e+003, 4.407509e+002
1.200134e+003, 4.430714e+002
1.202062e+003, 4.470318e+002
1.203991e+003, 4.424152e+002
1.205919e+003, 4.362237e+002
1.207848e+003, 4.288447e+002
1.209776e+003, 4.255999e+002
1.211704e+003, 4.296204e+002
1.213633e+003, 4.353426e+002
1.215561e+003, 4.454213e+002
1.217490e+003, 4.466926e+002
1.219418e+003, 4.340522e+002
1.221347e+003, 4.349879e+002
1.223275e+003, 4.521566e+002
1.225204e+003, 4.542629e+002
1.227132e+003, 4.423779e+002
1.229061e+003, 4.367156e+002
1.230989e+003, 4.365090e+002
1.232918e+003, 4.402031e+002
1.234846e+003, 4.435878e+002
1.236775e+003, 4.352484e+002
1.238703e+003, 4.245715e+002
1.240631e+003, 4.221299e+002
1.242560e+003, 4.242572e+002
1.244488e+003, 4.305866e+002
1.246417e+003, 4.361284e+002
1.248345e+003, 4.373275e+002
1.250274e+003, 4.378987e+002
1.252202e+003, 4.395974e+002
1.254131e+003, 4.401195e+002
1.256059e+003, 4.375009e+002
1.257988e+003, 4.368837e+002
1.259916e+003, 4.390640e+002
1.261845e+003, 4.433745e+002
1.263773e+003, 4.509222e+002
1.265702e+003, 4.486381e+002
1.267630e+003, 4.380132e+002
1.269558e+003, 4.344189e+002
1.271487e+003, 4.353537e+002
1.273415e+003, 4.337644e+002
1.275344e+003, 4.304649e+002
1.277272e+003, 4.235742e+002
1.279201e+003, 4.196413e+002
1.281129e+003, 4.280202e+002
1.283058e+003, 4.360256e+002
1.284986e+003, 4.364460e+002
1.286915e+003, 4.345529e+002
1.288843e+003, 4.307711e+002
1.290772e+003, 4.307223e+002
1.292700e+003, 4.372546e+002
1.294629e+003, 4.408344e+002
1.296557e+003, 4.403205e+002
1.298485e+003, 4.344415e+002
1.300414e+003, 4.235990e+002
1.302342e+003, 4.191432e+002
1.304271e+003, 4.209412e+002
1.306199e+003, 4.327871e+002
1.308128e+003, 4.468034e+002
1.310056e+003, 4.478828e+002
1.311985e+003, 4.428925e+002
1.313913e+003, 4.350528e+002
1.315842e+003, 4.303724e+002
1.317770e+003, 4.354877e+002
1.319699e+003, 4.375015e+002
1.321627e+003, 4.297030e+002
1.323556e+003, 4.280768e+002
1.325484e+003, 4.368587e+002
1.327412e+003, 4.451068e+002
1.329341e+003, 4.514432e+002
1.331269e+003, 4.502571e+002
1.333198e+003, 4.434471e+002
1.335126e+003, 4.478394e+002
1.337055e+003, 4.563826e+002
1.338983e+003, 4.498268e+002
1.340912e+003, 4.392872e+002
1.342840e+003, 4.384977e+002
1.344769e+003, 4.413806e+002
1.346697e+003, 4.461515e+002
1.348626e+003, 4.485288e+002
1.350554e+003, 4.446079e+002
1.352483e+003, 4.449098e+002
1.354411e+003, 4.523540e+002
1.356339e+003, 4.573390e+002
1.358268e+003, 4.587814e+002
1.360196e+003, 4.532589e+002
1.362125e+003, 4.436247e+002
1.364053e+003, 4.451723e+002
1.365982e+003, 4.517475e+002
1.367910e+003, 4.515860e+002
1.369839e+003, 4.491262e+002
1.371767e+003, 4.500821e+002
1.373696e+003, 4.492531e+002
1.375624e+003, 4.390515e+002
1.377553e+003, 4.346125e+002
1.379481e+003, 4.432352e+002
1.381410e+003, 4.502794e+002
1.383338e+003, 4.545902e+002
1.385266e+003, 4.560630e+002
1.387195e+003, 4.549086e+002
1.389123e+003, 4.510312e+002
1.391052e+003, 4.469594e+002
1.392980e+003, 4.511267e+002
1.394909e+003, 4.559777e+002
1.396837e+003, 4.506513e+002
1.398766e+003, 4.456339e+002
1.400694e+003, 4.507085e+002
1.402623e+003, 4.526573e+002
1.404551e+003, 4.418272e+002
1.406480e+003, 4.394270e+002
1.408408e+003, 4.499138e+002
1.410337e+003, 4.543769e+002
1.412265e+003, 4.530500e+002
1.414193e+003, 4.528936e+002
1.416122e+003, 4.529421e+002
1.418050e+003, 4.487788e+002
1.419979e+003, 4.460081e+002
1.421907e+003, 4.532528e+002
1.423836e+003, 4.584071e+002
1.425764e+003, 4.504594e+002
1.427693e+003, 4.495767e+002
1.429621e+003, 4.681378e+002
1.431550e+003, 4.721253e+002
1.433478e+003, 4.580414e+002
1.435407e+003, 4.470991e+002
1.437335e+003, 4.400649e+002
1.439264e+003, 4.444322e+002
1.441192e+003, 4.515099e+002
1.443120e+003, 4.453805e+002
1.445049e+003, 4.389595e+002
1.446977e+003, 4.417603e+002
1.448906e+003, 4.433673e+002
1.450834e+003, 4.387939e+002
1.452763e+003, 4.380028e+002
1.454691e+003, 4.432519e+002
1.456620e+003, 4.477887e+002
1.458548e+003, 4.507050e+002
1.460477e+003, 4.422909e+002
1.462405e+003, 4.326119e+002
1.464334e+003, 4.450977e+002
1.466262e+003, 4.595992e+002
1.468191e+003, 4.620887e+002
1.470119e+003, 4.577751e+002
1.472047e+003, 4.452134e+002
1.473976e+003, 4.415139e+002
1.475904e+003, 4.501457e+002
1.477833e+003, 4.549215e+002
1.479761e+003, 4.555610e+002
1.481690e+003, 4.547988e+002
1.483618e+003, 4.534766e+002
1.485547e+003, 4.519197e+002
1.487475e+003, 4.522003e+002
1.489404e+003, 4.587389e+002
1.491332e+003, 4.619235e+002
1.493261e+003, 4.587155e+002
1.495189e+003, 4.546471e+002
1.497118e+003, 4.506393e+002
1.499046e+003, 4.522053e+002
1.500974e+003, 4.563341e+002
1.502903e+003, 4.503289e+002
1.504831e+003, 4.418067e+002
1.506760e+003, 4.364399e+002
1.508688e+003, 4.397899e+002
1.510617e+003, 4.673351e+002
1.512545e+003, 4.763850e+002
1.514474e+003, 4.568375e+002
1.516402e+003, 4.490514e+002
1.518331e+003, 4.541308e+002
1.520259e+003, 4.562546e+002
1.522188e+003, 4.558614e+002
1.524116e+003, 4.523544e+002
1.526045e+003, 4.508717e+002
1.527973e+003, 4.596478e+002
1.529901e+003, 4.643433e+002
1.531830e+003, 4.571990e+002
1.533758e+003, 4.563789e+002
1.535687e+003, 4.629499e+002
1.537615e+003, 4.625277e+002
1.539544e+003, 4.575161e+002
1.541472e+003, 4.536913e+002
1.543401e+003, 4.537814e+002
1.545329e+003, 4.669164e+002
1.547258e+003, 4.738809e+002
1.549186e+003, 4.591613e+002
1.551115e+003, 4.520439e+002
1.553043e+003, 4.562487e+002
1.554972e+003, 4.563566e+002
1.556900e+003, 4.546132e+002
1.558828e+003, 4.654126e+002
1.560757e+003, 4.757073e+002
1.562685e+003, 4.682837e+002
1.564614e+003, 4.593066e+002
1.566542e+003, 4.559581e+002
1.568471e+003, 4.552221e+002
1.570399e+003, 4.575166e+002
1.572328e+003, 4.577319e+002
1.574256e+003, 4.563081e+002
1.576185e+003, 4.545571e+002
1.578113e+003, 4.535505e+002
1.580042e+003, 4.545629e+002
1.581970e+003, 4.564648e+002
1.583899e+003, 4.601555e+002
1.585827e+003, 4.600066e+002
1.587755e+003, 4.545110e+002
1.589684e+003, 4.481179e+002
1.591612e+003, 4.436434e+002
1.593541e+003, 4.569061e+002
1.595469e+003, 4.706779e+002
1.597398e+003, 4.668556e+002
1.599326e+003, 4.605911e+002
1.601255e+003, 4.564247e+002
1.603183e+003, 4.561836e+002
1.605112e+003, 4.602393e+002
1.607040e+003, 4.608173e+002
1.608969e+003, 4.588528e+002
1.610897e+003, 4.542272e+002
1.612826e+003, 4.520854e+002
1.614754e+003, 4.576096e+002
1.616682e+003, 4.626854e+002
1.618611e+003, 4.654717e+002
1.620539e+003, 4.640947e+002
1.622468e+003, 4.588932e+002
1.624396e+003, 4.528252e+002
1.626325e+003, 4.471182e+002
1.628253e+003, 4.423846e+002
1.630182e+003, 4.415118e+002
1.632110e+003, 4.473227e+002
1.634039e+003, 4.501013e+002
1.635967e+003, 4.482971e+002
1.637896e+003, 4.494857e+002
1.639824e+003, 4.519767e+002
1.641753e+003, 4.487768e+002
1.643681e+003, 4.455545e+002
1.645609e+003, 4.472583e+002
1.647538e+003, 4.527120e+002
1.649466e+003, 4.634371e+002
1.651395e+003, 4.588356e+002
1.653323e+003, 4.419256e+002
1.655252e+003, 4.387904e+002
1.657180e+003, 4.423485e+002
1.659109e+003, 4.432630e+002
1.661037e+003, 4.453911e+002
1.662966e+003, 4.520144e+002
1.664894e+003, 4.552170e+002
1.666823e+003, 4.543171e+002
1.668751e+003, 4.494686e+002
1.670680e+003, 4.446641e+002
1.672608e+003, 4.487521e+002
1.674536e+003, 4.540743e+002
1.676465e+003, 4.571428e+002
1.678393e+003, 4.554981e+002
1.680322e+003, 4.484250e+002
1.682250e+003, 4.450852e+002
1.684179e+003, 4.447438e+002
1.686107e+003, 4.439896e+002
1.688036e+003, 4.447219e+002
1.689964e+003, 4.529416e+002
1.691893e+003, 4.531440e+002
1.693821e+003, 4.372344e+002
1.695750e+003, 4.358897e+002
1.697678e+003, 4.456190e+002
1.699607e+003, 4.510257e+002
1.701535e+003, 4.530612e+002
1.703464e+003, 4.496515e+002
1.705392e+003, 4.493840e+002
1.707320e+003, 4.595250e+002
1.709249e+003, 4.579908e+002
1.711177e+003, 4.473915e+002
1.713106e+003, 4.437282e+002
1.715034e+003, 4.435011e+002
1.716963e+003, 4.436461e+002
1.718891e+003, 4.447040e+002
1.720820e+003, 4.471998e+002
1.722748e+003, 4.489555e+002
1.724677e+003, 4.505621e+002
1.726605e+003, 4.603208e+002
1.728534e+003, 4.660443e+002
1.730462e+003, 4.516729e+002
1.732391e+003, 4.404955e+002
1.734319e+003, 4.405101e+002
1.736247e+003, 4.414116e+002
1.738176e+003, 4.431904e+002
1.740104e+003, 4.518500e+002
1.742033e+003, 4.605777e+002
1.743961e+003, 4.645512e+002
1.745890e+003, 4.609035e+002
1.747818e+003, 4.473981e+002
1.749747e+003, 4.422895e+002
1.751675e+003, 4.444233e+002
1.753604e+003, 4.498963e+002
1.755532e+003, 4.531720e+002
1.757461e+003, 4.482113e+002
1.759389e+003, 4.442195e+002
1.761318e+003, 4.431267e+002
1.763246e+003, 4.458291e+002
1.765174e+003, 4.497947e+002
1.767103e+003, 4.494731e+002
1.769031e+003, 4.458014e+002
1.770960e+003, 4.362611e+002
1.772888e+003, 4.357516e+002
1.774817e+003, 4.455309e+002
1.776745e+003, 4.500901e+002
1.778674e+003, 4.502503e+002
1.780602e+003, 4.470569e+002
1.782531e+003, 4.425601e+002
1.784459e+003, 4.366241e+002
1.786388e+003, 4.351115e+002
1.788316e+003, 4.380031e+002
1.790245e+003, 4.427064e+002
1.792173e+003, 4.468835e+002
1.794101e+003, 4.473495e+002
1.796030e+003, 4.477578e+002
1.797958e+003, 4.492597e+002
1.799887e+003, 4.481122e+002
1.801815e+003, 4.455949e+002
1.803744e+003, 4.471653e+002
1.805672e+003, 4.473037e+002
1.807601e+003, 4.391626e+002
1.809529e+003, 4.346478e+002
1.811458e+003, 4.350602e+002
1.813386e+003, 4.428410e+002
1.815315e+003, 4.516758e+002
1.817243e+003, 4.525332e+002
1.819172e+003, 4.495943e+002
1.821100e+003, 4.436601e+002
1.823028e+003, 4.353972e+002
1.824957e+003, 4.270102e+002
1.826885e+003, 4.318678e+002
1.828814e+003, 4.396395e+002
1.830742e+003, 4.426400e+002
1.832671e+003, 4.446188e+002
1.834599e+003, 4.464832e+002
1.836528e+003, 4.435594e+002
1.838456e+003, 4.400877e+002
1.840385e+003, 4.455836e+002
1.842313e+003, 4.484713e+002
1.844242e+003, 4.409605e+002
1.846170e+003, 4.443958e+002
1.848099e+003, 4.543688e+002
1.850027e+003, 4.394390e+002
1.851955e+003, 4.258943e+002
1.853884e+003, 4.348818e+002
1.855812e+003, 4.406126e+002
1.857741e+003, 4.380916e+002
1.859669e+003, 4.387427e+002
1.861598e+003, 4.411964e+002
1.863526e+003, 4.449587e+002
1.865455e+003, 4.458031e+002
1.867383e+003, 4.418915e+002
1.869312e+003, 4.412426e+002
1.871240e+003, 4.423322e+002
1.873169e+003, 4.387341e+002
1.875097e+003, 4.375496e+002
1.877026e+003, 4.431132e+002
1.878954e+003, 4.473110e+002
1.880882e+003, 4.484253e+002
1.882811e+003, 4.409525e+002
1.884739e+003, 4.344251e+002
1.886668e+003, 4.409488e+002
1.888596e+003, 4.419800e+002
1.890525e+003, 4.347247e+002
1.892453e+003, 4.342466e+002
1.894382e+003, 4.372170e+002
1.896310e+003, 4.384674e+002
1.898239e+003, 4.367437e+002
1.900167e+003, 4.322655e+002
1.902096e+003, 4.312770e+002
1.904024e+003, 4.328131e+002
1.905953e+003, 4.370559e+002
1.907881e+003, 4.398102e+002
1.909809e+003, 4.396689e+002
1.911738e+003, 4.341704e+002
1.913666e+003, 4.257035e+002
1.915595e+003, 4.221833e+002
1.917523e+003, 4.231283e+002
1.919452e+003, 4.328020e+002
1.921380e+003, 4.364060e+002
1.923309e+003, 4.344734e+002
1.925237e+003, 4.355482e+002
1.927166e+003, 4.371854e+002
1.929094e+003, 4.403625e+002
1.931023e+003, 4.390905e+002
1.932951e+003, 4.315535e+002
1.934880e+003, 4.319294e+002
1.936808e+003, 4.365716e+002
1.938736e+003, 4.401982e+002
1.940665e+003, 4.391839e+002
1.942593e+003, 4.340508e+002
1.944522e+003, 4.303709e+002
1.946450e+003, 4.275573e+002
1.948379e+003, 4.243430e+002
1.950307e+003, 4.226523e+002
1.952236e+003, 4.237144e+002
1.954164e+003, 4.252534e+002
1.956093e+003, 4.290909e+002
1.958021e+003, 4.413338e+002
1.959950e+003, 4.448770e+002
1.961878e+003, 4.313001e+002
1.963807e+003, 4.310174e+002
1.965735e+003, 4.362690e+002
1.967663e+003, 4.293318e+002
1.969592e+003, 4.231012e+002
1.971520e+003, 4.250320e+002
1.973449e+003, 4.231117e+002
1.975377e+003, 4.167888e+002
1.977306e+003, 4.182190e+002
1.979234e+003, 4.217186e+002
1.981163e+003, 4.206736e+002
1.983091e+003, 4.258121e+002
1.985020e+003, 4.318395e+002
1.986948e+003, 4.256245e+002
1.988877e+003, 4.243045e+002
1.990805e+003, 4.303551e+002
1.992734e+003, 4.318054e+002
1.994662e+003, 4.323929e+002
1.996590e+003, 4.324900e+002
1.998519e+003, 4.318581e+002
2.000447e+003, 4.293990e+002
2.002376e+003, 4.271277e+002
2.004304e+003, 4.272495e+002
2.006233e+003, 4.248226e+002
2.008161e+003, 4.201086e+002
2.010090e+003, 4.151505e+002
2.012018e+003, 4.145873e+002
2.013947e+003, 4.181449e+002
2.015875e+003, 4.244589e+002
2.017804e+003, 4.251901e+002
2.019732e+003, 4.258748e+002
2.021661e+003, 4.252299e+002
2.023589e+003, 4.186054e+002
2.025517e+003, 4.138748e+002
2.027446e+003, 4.118329e+002
2.029374e+003, 4.104816e+002
2.031303e+003, 4.117206e+002
2.033231e+003, 4.116370e+002
2.035160e+003, 4.162423e+002
2.037088e+003, 4.176438e+002
2.039017e+003, 4.123409e+002
2.040945e+003, 4.146061e+002
2.042874e+003, 4.172220e+002
2.044802e+003, 4.106938e+002
2.046731e+003, 4.097824e+002
2.048659e+003, 4.118160e+002
2.050588e+003, 4.044679e+002
2.052516e+003, 4.014568e+002
2.054445e+003, 4.078778e+002
2.056373e+003, 4.068783e+002
2.058302e+003, 4.047363e+002
2.060230e+003, 4.112254e+002
2.062158e+003, 4.181476e+002
2.064087e+003, 4.149458e+002
2.066015e+003, 4.095195e+002
2.067944e+003, 4.072310e+002
2.069872e+003, 4.123799e+002
2.071801e+003, 4.132775e+002
2.073729e+003, 4.062393e+002
2.075657e+003, 4.085840e+002
2.077586e+003, 4.120901e+002
2.079514e+003, 4.045376e+002
2.081443e+003, 4.034842e+002
2.083371e+003, 4.106428e+002
2.085300e+003, 3.982968e+002
2.087228e+003, 3.884402e+002
2.089157e+003, 4.023749e+002
2.091085e+003, 4.076438e+002
2.093014e+003, 4.021762e+002
2.094942e+003, 4.016281e+002
2.096871e+003, 4.025264e+002
2.098799e+003, 4.046432e+002
2.100728e+003, 4.051365e+002
2.102656e+003, 4.025050e+002
2.104584e+003, 4.020976e+002
2.106513e+003, 4.014466e+002
2.108441e+003, 3.988282e+002
2.110370e+003, 4.054964e+002
2.112298e+003, 4.117472e+002
2.114227e+003, 4.073030e+002
2.116155e+003, 4.029491e+002
2.118084e+003, 4.032109e+002
2.120012e+003, 4.045971e+002
2.121941e+003, 4.038226e+002
2.123869e+003, 4.031989e+002
2.125798e+003, 3.976332e+002
2.127726e+003, 3.945392e+002
2.129655e+003, 4.014648e+002
2.131583e+003, 4.051230e+002
2.133511e+003, 4.038855e+002
2.135440e+003, 3.988846e+002
2.137368e+003, 3.947812e+002
2.139297e+003, 3.936487e+002
2.141225e+003, 3.962968e+002
2.143154e+003, 4.001357e+002
2.145082e+003, 4.037617e+002
2.147011e+003, 3.997231e+002
2.148939e+003, 3.845041e+002
2.150868e+003, 3.846988e+002
2.152796e+003, 3.900153e+002
2.154725e+003, 3.882354e+002
2.156653e+003, 3.894108e+002
2.158582e+003, 3.898313e+002
2.160510e+003, 3.842423e+002
2.162438e+003, 3.845420e+002
2.164367e+003, 3.962658e+002
2.166295e+003, 3.994510e+002
2.168224e+003, 3.970844e+002
2.170152e+003, 3.902571e+002
2.172081e+003, 3.942482e+002
2.174009e+003, 4.083168e+002
2.175938e+003, 3.959933e+002
2.177866e+003, 3.803286e+002
2.179795e+003, 3.738795e+002
2.181723e+003, 3.734273e+002
2.183652e+003, 3.760802e+002
2.185580e+003, 3.778065e+002
2.187509e+003, 3.824554e+002
2.189437e+003, 3.875153e+002
2.191365e+003, 3.795362e+002
2.193294e+003, 3.750988e+002
2.195222e+003, 3.824741e+002
2.197151e+003, 3.895188e+002
2.199079e+003, 3.934635e+002
2.201008e+003, 3.887716e+002
2.202936e+003, 3.846306e+002
2.204865e+003, 3.827733e+002
2.206793e+003, 3.799288e+002
2.208722e+003, 3.786564e+002
2.210650e+003, 3.805183e+002
2.212579e+003, 3.829237e+002
2.214507e+003, 3.843620e+002
2.216436e+003, 3.813396e+002
2.218364e+003, 3.804223e+002
2.220292e+003, 3.822263e+002
2.222221e+003, 3.838415e+002
2.224149e+003, 3.836292e+002
2.226078e+003, 3.804598e+002
2.228006e+003, 3.768961e+002
2.229935e+003, 3.745363e+002
2.231863e+003, 3.766195e+002
2.233792e+003, 3.721350e+002
2.235720e+003, 3.638306e+002
2.237649e+003, 3.695792e+002
2.239577e+003, 3.730391e+002
2.241506e+003, 3.666221e+002
2.243434e+003, 3.651968e+002
2.245363e+003, 3.669448e+002
2.247291e+003, 3.699366e+002
2.249219e+003, 3.724137e+002
2.251148e+003, 3.752845e+002
2.253076e+003, 3.786281e+002
2.255005e+003, 3.749467e+002
2.256933e+003, 3.630172e+002
2.258862e+003, 3.657293e+002
2.260790e+003, 3.713048e+002
2.262719e+003, 3.701747e+002
2.264647e+003, 3.727087e+002
2.266576e+003, 3.744229e+002
2.268504e+003, 3.668588e+002
2.270433e+003, 3.637356e+002
2.272361e+003, 3.643658e+002
2.274290e+003, 3.686415e+002
2.276218e+003, 3.696330e+002
2.278146e+003, 3.641587e+002
2.280075e+003, 3.681714e+002
2.282003e+003, 3.707965e+002
2.283932e+003, 3.635186e+002
2.285860e+003, 3.672875e+002
2.287789e+003, 3.739645e+002
2.289717e+003, 3.594841e+002
2.291646e+003, 3.509791e+002
2.293574e+003, 3.554644e+002
2.295503e+003, 3.586574e+002
2.297431e+003, 3.614862e+002
2.299360e+003, 3.612528e+002
2.301288e+003, 3.561534e+002
2.303217e+003, 3.519753e+002
2.305145e+003, 3.504517e+002
2.307073e+003, 3.506540e+002
2.309002e+003, 3.532382e+002
2.310930e+003, 3.515905e+002
2.312859e+003, 3.537608e+002
2.314787e+003, 3.586993e+002
2.316716e+003, 3.533453e+002
2.318644e+003, 3.500855e+002
2.320573e+003, 3.516891e+002
2.322501e+003, 3.556759e+002
2.324430e+003, 3.570262e+002
2.326358e+003, 3.472386e+002
2.328287e+003, 3.519960e+002
2.330215e+003, 3.627866e+002
2.332144e+003, 3.556389e+002
2.334072e+003, 3.481237e+002
2.336000e+003, 3.450795e+002
2.337929e+003, 3.438216e+002
2.339857e+003, 3.462010e+002
2.341786e+003, 3.507568e+002
2.343714e+003, 3.539433e+002
2.345643e+003, 3.523851e+002
2.347571e+003, 3.396671e+002
2.349500e+003, 3.405951e+002
2.351428e+003, 3.454329e+002
2.353357e+003, 3.419410e+002
2.355285e+003, 3.410788e+002
2.357214e+003, 3.437533e+002
2.359142e+003, 3.446018e+002
2.361071e+003, 3.421911e+002
2.362999e+003, 3.391033e+002
2.364927e+003, 3.472420e+002
2.366856e+003, 3.480371e+002
2.368784e+003, 3.400128e+002
2.370713e+003, 3.378955e+002
2.372641e+003, 3.363555e+002
2.374570e+003, 3.333487e+002
2.376498e+003, 3.329570e+002
2.378427e+003, 3.345751e+002
2.380355e+003, 3.341931e+002
2.382284e+003, 3.403062e+002
2.384212e+003, 3.430589e+002
2.386141e+003, 3.313761e+002
2.388069e+003, 3.262633e+002
2.389998e+003, 3.313653e+002
2.391926e+003, 3.284756e+002
2.393854e+003, 3.233817e+002
2.395783e+003, 3.267295e+002
2.397711e+003, 3.296945e+002
2.399640e+003, 3.317788e+002
2.401568e+003, 3.314095e+002
2.403497e+003, 3.241558e+002
2.405425e+003, 3.237654e+002
2.407354e+003, 3.226959e+002
2.409282e+003, 3.224998e+002
2.411211e+003, 3.239374e+002
2.413139e+003, 3.246186e+002
2.415068e+003, 3.221721e+002
2.416996e+003, 3.185661e+002
2.418925e+003, 3.183024e+002
2.420853e+003, 3.209964e+002
2.422781e+003, 3.262004e+002
2.424710e+003, 3.221060e+002
2.426638e+003, 3.220778e+002
2.428567e+003, 3.215240e+002
2.430495e+003, 3.232661e+002
2.432424e+003, 3.197549e+002
2.434352e+003, 3.157359e+002
2.436281e+003, 3.210744e+002
2.438209e+003, 3.255395e+002
2.440138e+003, 3.289366e+002
2.442066e+003, 3.287750e+002
2.443995e+003, 3.233318e+002
2.445923e+003, 3.173986e+002
2.447852e+003, 3.170619e+002
2.449780e+003, 3.145179e+002
2.451708e+003, 3.134798e+002
2.453637e+003, 3.168275e+002
2.455565e+003, 3.162869e+002
2.457494e+003, 3.171519e+002
2.459422e+003, 3.184383e+002
2.461351e+003, 3.096913e+002
2.463279e+003, 3.047118e+002
2.465208e+003, 3.147385e+002
2.467136e+003, 3.147133e+002
2.469065e+003, 3.051419e+002
2.470993e+003, 3.029499e+002
2.472922e+003, 3.010145e+002
2.474850e+003, 3.031165e+002
2.476779e+003, 2.998859e+002
2.478707e+003, 3.019632e+002
2.480635e+003, 3.125165e+002
2.482564e+003, 3.042781e+002
2.484492e+003, 2.985527e+002
2.486421e+003, 3.045469e+002
2.488349e+003, 3.073327e+002
2.490278e+003, 3.088110e+002
2.492206e+003, 3.061270e+002
2.494135e+003, 3.018659e+002
2.496063e+003, 3.007537e+002
2.497992e+003, 3.018467e+002
2.499920e+003, 2.990421e+002
2.501849e+003, 2.981346e+002
2.503777e+003, 2.992314e+002
2.505706e+003, 2.936490e+002
2.507634e+003, 2.906695e+002
2.509563e+003, 2.928606e+002
2.511491e+003, 2.976587e+002
2.513419e+003, 2.962842e+002
2.515348e+003, 2.881926e+002
2.517276e+003, 2.894120e+002
2.519205e+003, 2.918931e+002
2.521133e+003, 2.924205e+002
2.523062e+003, 2.921398e+002
2.524990e+003, 2.899738e+002
2.526919e+003, 2.860027e+002
2.528847e+003, 2.857397e+002
2.530776e+003, 2.877936e+002
2.532704e+003, 2.851329e+002
2.534633e+003, 2.864365e+002
2.536561e+003, 2.902094e+002
2.538490e+003, 2.912661e+002
2.540418e+003, 2.857429e+002
2.542346e+003, 2.850361e+002
2.544275e+003, 2.902794e+002
2.546203e+003, 2.895482e+002
2.548132e+003, 2.871135e+002
2.550060e+003, 2.855022e+002
2.551989e+003, 2.835311e+002
2.553917e+003, 2.815121e+002
2.555846e+003, 2.780648e+002
2.557774e+003, 2.766451e+002
2.559703e+003, 2.756880e+002
2.561631e+003, 2.748651e+002
2.563560e+003, 2.761890e+002
2.565488e+003, 2.760413e+002
2.567417e+003, 2.737383e+002
2.569345e+003, 2.737056e+002
2.571273e+003, 2.733887e+002
2.573202e+003, 2.712112e+002
2.575130e+003, 2.789530e+002
2.577059e+003, 2.815765e+002
2.578987e+003, 2.760464e+002
2.580916e+003, 2.703221e+002
2.582844e+003, 2.688641e+002
2.584773e+003, 2.716589e+002
2.586701e+003, 2.688879e+002
2.588630e+003, 2.669702e+002
2.590558e+003, 2.674018e+002
2.592487e+003, 2.676838e+002
2.594415e+003, 2.726498e+002
2.596344e+003, 2.783314e+002
2.598272e+003, 2.662695e+002
2.600200e+003, 2.620126e+002
2.602129e+003, 2.640666e+002
2.604057e+003, 2.569068e+002
2.605986e+003, 2.540715e+002
2.607914e+003, 2.560608e+002
2.609843e+003, 2.594576e+002
2.611771e+003, 2.631040e+002
2.613700e+003, 2.663329e+002
2.615628e+003, 2.667642e+002
2.617557e+003, 2.650520e+002
2.619485e+003, 2.627961e+002
2.621414e+003, 2.593002e+002
2.623342e+003, 2.587411e+002
2.625271e+003, 2.569697e+002
2.627199e+003, 2.519234e+002
2.629127e+003, 2.492062e+002
2.631056e+003, 2.468551e+002
2.632984e+003, 2.472074e+002
2.634913e+003, 2.465466e+002
2.636841e+003, 2.425827e+002
2.638770e+003, 2.373412e+002
2.640698e+003, 2.403849e+002
2.642627e+003, 2.443291e+002
2.644555e+003, 2.457178e+002
2.646484e+003, 2.426224e+002
2.648412e+003, 2.447815e+002
2.650341e+003, 2.521817e+002
2.652269e+003, 2.482350e+002
2.654198e+003, 2.429448e+002
2.656126e+003, 2.382763e+002
2.658054e+003, 2.403562e+002
2.659983e+003, 2.428572e+002
2.661911e+003, 2.407552e+002
2.663840e+003, 2.359724e+002
2.665768e+003, 2.394985e+002
2.667697e+003, 2.424117e+002
2.669625e+003, 2.340185e+002
2.671554e+003, 2.309839e+002
2.673482e+003, 2.310621e+002
2.675411e+003, 2.385269e+002
2.677339e+003, 2.334760e+002
2.679268e+003, 2.270132e+002
2.681196e+003, 2.252498e+002
2.683125e+003, 2.274520e+002
2.685053e+003, 2.350601e+002
2.686981e+003, 2.326783e+002
2.688910e+003, 2.297453e+002
2.690838e+003, 2.335219e+002
2.692767e+003, 2.319554e+002
2.694695e+003, 2.357377e+002
2.696624e+003, 2.326000e+002
2.698552e+003, 2.253000e+002
2.700481e+003, 2.246078e+002
2.702409e+003, 2.245316e+002
2.704338e+003, 2.242724e+002
2.706266e+003, 2.250102e+002
2.708195e+003, 2.251138e+002
2.710123e+003, 2.190605e+002
2.712052e+003, 2.160115e+002
2.713980e+003, 2.103832e+002
2.715908e+003, 2.093505e+002
2.717837e+003, 2.195977e+002
2.719765e+003, 2.149906e+002
2.721694e+003, 2.118499e+002
2.723622e+003, 2.178440e+002
2.725551e+003, 2.207153e+002
2.727479e+003, 2.138681e+002
2.729408e+003, 2.122513e+002
2.731336e+003, 2.121213e+002
2.733265e+003, 2.098392e+002
2.735193e+003, 2.047906e+002
2.737122e+003, 2.055694e+002
2.739050e+003, 2.150291e+002
2.740979e+003, 2.182628e+002
2.742907e+003, 2.151046e+002
2.744835e+003, 2.127388e+002
2.746764e+003, 2.147458e+002
2.748692e+003, 2.157153e+002
2.750621e+003, 2.100827e+002
2.752549e+003, 2.073764e+002
2.754478e+003, 2.089819e+002
2.756406e+003, 2.095170e+002
2.758335e+003, 2.060401e+002
2.760263e+003, 2.058074e+002
2.762192e+003, 2.073339e+002
2.764120e+003, 2.002858e+002
2.766049e+003, 1.925538e+002
2.767977e+003, 1.910893e+002
2.769906e+003, 1.917340e+002
2.771834e+003, 1.943757e+002
2.773762e+003, 1.969709e+002
2.775691e+003, 1.942283e+002
2.777619e+003, 1.939206e+002
2.779548e+003, 1.948442e+002
2.781476e+003, 1.914356e+002
2.783405e+003, 1.907235e+002
2.785333e+003, 1.943929e+002
2.787262e+003, 1.945426e+002
2.789190e+003, 1.982162e+002
2.791119e+003, 1.977284e+002
2.793047e+003, 1.874518e+002
2.794976e+003, 1.920223e+002
2.796904e+003, 1.983594e+002
2.798833e+003, 1.922553e+002
2.800761e+003, 1.819500e+002
2.802689e+003, 1.810951e+002
2.804618e+003, 1.841650e+002
2.806546e+003, 1.844824e+002
2.808475e+003, 1.859197e+002
2.810403e+003, 1.864968e+002
2.812332e+003, 1.858598e+002
2.814260e+003, 1.808642e+002
2.816189e+003, 1.804917e+002
2.818117e+003, 1.835080e+002
2.820046e+003, 1.806419e+002
2.821974e+003, 1.764993e+002
2.823903e+003, 1.768442e+002
2.825831e+003, 1.811036e+002
2.827760e+003, 1.813334e+002
2.829688e+003, 1.814199e+002
2.831616e+003, 1.739840e+002
2.833545e+003, 1.739897e+002
2.835473e+003, 1.744189e+002
2.837402e+003, 1.701435e+002
2.839330e+003, 1.725497e+002
2.841259e+003, 1.746092e+002
2.843187e+003, 1.708858e+002
2.845116e+003, 1.720598e+002
2.847044e+003, 1.747371e+002
2.848973e+003, 1.727446e+002
2.850901e+003, 1.647592e+002
2.852830e+003, 1.682258e+002
2.854758e+003, 1.737731e+002
2.856687e+003, 1.748185e+002
2.858615e+003, 1.630712e+002
2.860543e+003, 1.636771e+002
2.862472e+003, 1.694257e+002
2.864400e+003, 1.676638e+002
2.866329e+003, 1.648592e+002
2.868257e+003, 1.627337e+002
2.870186e+003, 1.610759e+002
2.872114e+003, 1.595734e+002
2.874043e+003, 1.627784e+002
2.875971e+003, 1.627472e+002
2.877900e+003, 1.583203e+002
2.879828e+003, 1.607304e+002
2.881757e+003, 1.591503e+002
2.883685e+003, 1.552358e+002
2.885614e+003, 1.584563e+002
2.887542e+003, 1.582594e+002
2.889470e+003, 1.560228e+002
2.891399e+003, 1.493592e+002
2.893327e+003, 1.492909e+002
2.895256e+003, 1.519704e+002
2.897184e+003, 1.516102e+002
2.899113e+003, 1.513101e+002
2.901041e+003, 1.502855e+002
2.902970e+003, 1.476906e+002
2.904898e+003, 1.470163e+002
2.906827e+003, 1.457856e+002
2.908755e+003, 1.490249e+002
2.910684e+003, 1.516451e+002
2.912612e+003, 1.439955e+002
2.914541e+003, 1.431452e+002
2.916469e+003, 1.445057e+002
2.918397e+003, 1.401395e+002
2.920326e+003, 1.392002e+002
2.922254e+003, 1.403891e+002
2.924183e+003, 1.420190e+002
2.926111e+003, 1.391470e+002
2.928040e+003, 1.382447e+002
2.929968e+003, 1.395868e+002
2.931897e+003, 1.426864e+002
2.933825e+003, 1.412500e+002
2.935754e+003, 1.392812e+002
2.937682e+003, 1.381966e+002
2.939611e+003, 1.382047e+002
2.941539e+003, 1.346133e+002
2.943468e+003, 1.306699e+002
2.945396e+003, 1.312360e+002
2.947324e+003, 1.302601e+002
2.949253e+003, 1.296170e+002
2.951181e+003, 1.315896e+002
2.953110e+003, 1.369124e+002
2.955038e+003, 1.333661e+002
2.956967e+003, 1.283733e+002
2.958895e+003, 1.270780e+002
2.960824e+003, 1.289943e+002
2.962752e+003, 1.317342e+002
2.964681e+003, 1.333193e+002
2.966609e+003, 1.326045e+002
2.968538e+003, 1.308952e+002
2.970466e+003, 1.285477e+002
2.972395e+003, 1.254587e+002
2.974323e+003, 1.218502e+002
2.976251e+003, 1.238348e+002
2.978180e+003, 1.217817e+002
2.980108e+003, 1.147292e+002
2.982037e+003, 1.200291e+002
2.983965e+003, 1.201239e+002
2.985894e+003, 1.188498e+002
2.987822e+003, 1.218406e+002
2.989751e+003, 1.203930e+002
2.991679e+003, 1.137905e+002
2.993608e+003, 1.074427e+002
2.995536e+003, 1.120830e+002
2.997465e+003, 1.153545e+002
2.999393e+003, 1.145043e+002
3.001322e+003, 1.110185e+002
3.003250e+003, 1.133071e+002
3.005178e+003, 1.122362e+002
3.007107e+003, 1.097357e+002
3.009035e+003, 1.078822e+002
3.010964e+003, 1.072251e+002
3.012892e+003, 1.059007e+002
3.014821e+003, 1.049238e+002
3.016749e+003, 1.077067e+002
3.018678e+003, 1.078278e+002
3.020606e+003, 1.062704e+002
3.022535e+003, 1.043775e+002
3.024463e+003, 1.053544e+002
3.026392e+003, 1.047431e+002
3.028320e+003, 1.042662e+002
3.030249e+003, 1.044690e+002
3.032177e+003, 1.001808e+002
3.034105e+003, 9.701482e+001
3.036034e+003, 9.753003e+001
3.037962e+003, 1.008386e+002
3.039891e+003, 1.054502e+002
3.041819e+003, 1.015633e+002
3.043748e+003, 9.689206e+001
3.045676e+003, 1.036288e+002
3.047605e+003, 1.001526e+002
3.049533e+003, 9.736066e+001
3.051462e+003, 9.470481e+001
3.053390e+003, 9.289301e+001
3.055319e+003, 9.079292e+001
3.057247e+003, 8.959487e+001
3.059176e+003, 9.002050e+001
3.061104e+003, 9.264786e+001
3.063032e+003, 9.475313e+001
3.064961e+003, 9.668182e+001
3.066889e+003, 9.648004e+001
3.068818e+003, 9.641882e+001
3.070746e+003, 9.053777e+001
3.072675e+003, 8.689651e+001
3.074603e+003, 8.649589e+001
3.076532e+003, 8.432574e+001
3.078460e+003, 8.734230e+001
3.080389e+003, 8.901406e+001
3.082317e+003, 8.320713e+001
3.084246e+003, 8.672686e+001
3.086174e+003, 8.608742e+001
3.088103e+003, 8.118116e+001
3.090031e+003, 7.990273e+001
3.091959e+003, 7.712286e+001
3.093888e+003, 7.482063e+001
3.095816e+003, 7.587370e+001
3.097745e+003, 7.804781e+001
3.099673e+003, 7.563238e+001
3.101602e+003, 7.575187e+001
3.103530e+003, 7.767178e+001
3.105459e+003, 7.568433e+001
3.107387e+003, 7.515929e+001
3.109316e+003, 7.759818e+001
3.111244e+003, 7.991402e+001
3.113173e+003, 7.674946e+001
3.115101e+003, 7.478490e+001
3.117030e+003, 7.453501e+001
3.118958e+003, 7.599200e+001
3.120886e+003, 7.740002e+001
3.122815e+003, 8.192931e+001
3.124743e+003, 7.837521e+001
3.126672e+003, 6.996927e+001
3.128600e+003, 7.312712e+001
3.130529e+003, 7.772634e+001
3.132457e+003, 7.561879e+001
3.134386e+003, 7.077184e+001
3.136314e+003, 7.056705e+001
3.138243e+003, 6.848116e+001
3.140171e+003, 6.923989e+001
3.142100e+003, 6.955994e+001
3.144028e+003, 6.868466e+001
3.145957e+003, 6.206368e+001
3.147885e+003, 6.545643e+001
3.149813e+003, 7.142721e+001
3.151742e+003, 6.622186e+001
3.153670e+003, 6.607866e+001
3.155599e+003, 6.770393e+001
3.157527e+003, 6.945490e+001
3.159456e+003, 6.135081e+001
3.161384e+003, 6.134052e+001
3.163313e+003, 6.057866e+001
3.165241e+003, 5.941556e+001
3.167170e+003, 6.317890e+001
3.169098e+003, 6.162033e+001
3.171027e+003, 5.665058e+001
3.172955e+003, 5.305223e+001
3.174884e+003, 5.874746e+001
3.176812e+003, 5.614273e+001
3.178740e+003, 5.905747e+001
3.180669e+003, 6.223397e+001
3.182597e+003, 5.918616e+001
3.184526e+003, 5.683702e+001
3.186454e+003, 5.662519e+001
3.188383e+003, 5.627444e+001
3.190311e+003, 5.403881e+001
3.192240e+003, 5.456315e+001
3.194168e+003, 5.197276e+001
3.196097e+003, 4.734653e+001
3.198025e+003, 4.461888e+001
3.199954e+003, 4.634733e+001
3.201882e+003, 5.463107e+001
3.203811e+003, 5.922455e+001
3.205739e+003, 5.900663e+001
3.207667e+003, 5.837423e+001
3.209596e+003, 5.718918e+001
3.211524e+003, 5.801242e+001
3.213453e+003, 5.866810e+001
3.215381e+003, 5.217884e+001
3.217310e+003, 5.636899e+001
3.219238e+003, 5.524187e+001
3.221167e+003, 5.299550e+001
3.223095e+003, 5.727067e+001
3.225024e+003, 6.041225e+001
3.226952e+003, 5.380950e+001
3.228881e+003, 5.017676e+001
3.230809e+003, 5.543721e+001
3.232738e+003, 5.070018e+001
3.234666e+003, 5.416543e+001
3.236594e+003, 5.614571e+001
3.238523e+003, 5.219737e+001
3.240451e+003, 4.751522e+001
3.242380e+003, 5.203320e+001
3.244308e+003, 5.065646e+001
3.246237e+003, 4.684264e+001
3.248165e+003, 4.907889e+001
3.250094e+003, 5.292383e+001
3.252022e+003, 4.842669e+001
3.253951e+003, 4.678127e+001
3.255879e+003, 5.339165e+001
3.257808e+003, 4.671843e+001
3.259736e+003, 4.618905e+001
3.261665e+003, 4.579753e+001
3.263593e+003, 4.316194e+001
3.265521e+003, 4.599965e+001
3.267450e+003, 4.508369e+001
3.269378e+003, 4.586197e+001
3.271307e+003, 4.714305e+001
3.273235e+003, 4.624118e+001
3.275164e+003, 4.666154e+001
3.277092e+003, 4.805666e+001
3.279021e+003, 4.730104e+001
3.280949e+003, 4.477924e+001
3.282878e+003, 4.234546e+001
3.284806e+003, 4.610508e+001
3.286735e+003, 4.266003e+001
3.288663e+003, 3.895413e+001
3.290592e+003, 4.892787e+001
3.292520e+003, 4.797507e+001
3.294448e+003, 4.434894e+001
3.296377e+003, 4.124754e+001
3.298305e+003, 4.098357e+001
3.300234e+003, 4.861395e+001
3.302162e+003, 4.146088e+001
3.304091e+003, 3.806846e+001
3.306019e+003, 4.089712e+001
3.307948e+003, 4.387241e+001
3.309876e+003, 3.544831e+001
3.311805e+003, 3.814995e+001
3.313733e+003, 4.110727e+001
3.315662e+003, 4.025482e+001
3.317590e+003, 4.302285e+001
3.319519e+003, 4.125048e+001
3.321447e+003, 3.979852e+001
3.323375e+003, 4.050683e+001
3.325304e+003, 4.249323e+001
3.327232e+003, 3.355265e+001
3.329161e+003, 3.694011e+001
3.331089e+003, 4.148900e+001
3.333018e+003, 4.185004e+001
3.334946e+003, 4.219046e+001
3.336875e+003, 4.093274e+001
3.338803e+003, 3.728492e+001
3.340732e+003, 3.662160e+001
3.342660e+003, 4.068576e+001
3.344589e+003, 4.166920e+001
3.346517e+003, 3.851146e+001
3.348446e+003, 3.476169e+001
3.350374e+003, 3.466020e+001
3.352302e+003, 3.913775e+001
3.354231e+003, 3.141261e+001
3.356159e+003, 3.723068e+001
3.358088e+003, 3.997780e+001
3.360016e+003, 3.623469e+001
3.361945e+003, 3.674774e+001
3.363873e+003, 3.532064e+001
3.365802e+003, 3.673190e+001
3.367730e+003, 3.691522e+001
3.369659e+003, 3.540007e+001
3.371587e+003, 4.129358e+001
3.373516e+003, 3.841549e+001
3.375444e+003, 3.035306e+001
3.377373e+003, 2.810836e+001
3.379301e+003, 3.545791e+001
3.381229e+003, 3.059578e+001
3.383158e+003, 3.293482e+001
3.385086e+003, 3.283032e+001
3.387015e+003, 2.945523e+001
3.388943e+003, 2.674739e+001
3.390872e+003, 2.951531e+001
3.392800e+003, 3.215684e+001
3.394729e+003, 3.280434e+001
3.396657e+003, 3.226807e+001
3.398586e+003, 3.227747e+001
3.400514e+003, 3.689183e+001
3.402443e+003, 3.378060e+001
3.404371e+003, 3.180218e+001
3.406300e+003, 3.198110e+001
3.408228e+003, 2.770794e+001
3.410156e+003, 3.326211e+001
3.412085e+003, 3.276335e+001
3.414013e+003, 3.209955e+001
3.415942e+003, 3.245866e+001
3.417870e+003, 2.817966e+001
3.419799e+003, 3.065507e+001
3.421727e+003, 3.076555e+001
3.423656e+003, 3.216774e+001
3.425584e+003, 3.443660e+001
3.427513e+003, 3.219756e+001
3.429441e+003, 2.819140e+001
3.431370e+003, 3.165402e+001
3.433298e+003, 3.134790e+001
3.435227e+003, 2.699245e+001
3.437155e+003, 2.919176e+001
3.439083e+003, 3.187157e+001
3.441012e+003, 2.996112e+001
3.442940e+003, 3.026830e+001
3.444869e+003, 3.258957e+001
3.446797e+003, 3.092033e+001
3.448726e+003, 2.589496e+001
3.450654e+003, 3.003426e+001
3.452583e+003, 3.039175e+001
3.454511e+003, 2.854177e+001
3.456440e+003, 3.383883e+001
3.458368e+003, 2.843327e+001
3.460297e+003, 3.248613e+001
3.462225e+003, 3.389279e+001
3.464154e+003, 2.962254e+001
3.466082e+003, 2.441595e+001
3.468010e+003, 2.568091e+001
3.469939e+003, 2.574957e+001
3.471867e+003, 2.436282e+001
3.473796e+003, 2.464149e+001
3.475724e+003, 2.757097e+001
3.477653e+003, 2.641884e+001
3.479581e+003, 2.262994e+001
3.481510e+003, 2.448872e+001
3.483438e+003, 2.528290e+001
3.485367e+003, 2.214395e+001
3.487295e+003, 2.443742e+001
3.489224e+003, 2.136358e+001
3.491152e+003, 2.498901e+001
3.493081e+003, 2.811804e+001
3.495009e+003, 2.771087e+001
3.496938e+003, 2.732840e+001
3.498866e+003, 2.230341e+001
3.500794e+003, 2.268808e+001
3.502723e+003, 2.417066e+001
3.504651e+003, 2.457088e+001
3.506580e+003, 2.397100e+001
3.508508e+003, 2.160811e+001
3.510437e+003, 2.358837e+001
3.512365e+003, 2.127511e+001
3.514294e+003, 2.235244e+001
3.516222e+003, 2.762218e+001
3.518151e+003, 2.488808e+001
3.520079e+003, 2.226634e+001
3.522008e+003, 2.205626e+001
3.523936e+003, 2.189776e+001
3.525865e+003, 2.302592e+001
3.527793e+003, 2.656742e+001
3.529721e+003, 2.381182e+001
3.531650e+003, 2.383769e+001
3.533578e+003, 2.561483e+001
3.535507e+003, 2.800075e+001
3.537435e+003, 2.929646e+001
3.539364e+003, 2.733532e+001
3.541292e+003, 2.762539e+001
3.543221e+003, 2.011377e+001
3.545149e+003, 1.981421e+001
3.547078e+003, 2.577591e+001
3.549006e+003, 2.886354e+001
3.550935e+003, 2.679816e+001
3.552863e+003, 2.541456e+001
3.554792e+003, 2.517016e+001
3.556720e+003, 2.345037e+001
3.558648e+003, 1.959566e+001
3.560577e+003, 1.549836e+001
3.562505e+003, 2.086149e+001
3.564434e+003, 2.204192e+001
3.566362e+003, 2.068316e+001
3.568291e+003, 1.933021e+001
3.570219e+003, 1.857715e+001
3.572148e+003, 1.751727e+001
3.574076e+003, 2.513574e+001
3.576005e+003, 2.328484e+001
3.577933e+003, 1.921737e+001
3.579862e+003, 1.944421e+001
3.581790e+003, 2.366339e+001
3.583719e+003, 2.523980e+001
3.585647e+003, 2.168170e+001
3.587575e+003, 2.022437e+001
3.589504e+003, 1.889305e+001
3.591432e+003, 1.619306e+001
3.593361e+003, 1.375447e+001
3.595289e+003, 1.665144e+001
3.597218e+003, 1.975431e+001
3.599146e+003, 1.824144e+001
3.601075e+003, 1.530094e+001
3.603003e+003, 1.332637e+001
3.604932e+003, 1.361773e+001
3.606860e+003, 2.061308e+001
3.608789e+003, 1.353250e+001
3.610717e+003, 1.782039e+001
3.612646e+003, 1.940754e+001
3.614574e+003, 1.513869e+001
3.616502e+003, 1.471660e+001
3.618431e+003, 2.149168e+001
3.620359e+003, 2.143385e+001
3.622288e+003, 1.869862e+001
3.624216e+003, 1.625917e+001
3.626145e+003, 1.774213e+001
3.628073e+003, 2.326049e+001
3.630002e+003, 2.142672e+001
3.631930e+003, 2.402327e+001
3.633859e+003, 2.067961e+001
3.635787e+003, 1.649152e+001
3.637716e+003, 1.701478e+001
3.639644e+003, 2.024604e+001
3.641573e+003, 1.330908e+001
3.643501e+003, 2.137373e+001
3.645429e+003, 1.770643e+001
3.647358e+003, 1.435819e+001
3.649286e+003, 1.744098e+001
3.651215e+003, 1.993463e+001
3.653143e+003, 1.045804e+001
3.655072e+003, 1.275708e+001
3.657000e+003, 1.444648e+001
3.658929e+003, 1.541927e+001
3.660857e+003, 1.465984e+001
3.662786e+003, 1.516765e+001
3.664714e+003, 2.006913e+001
3.666643e+003, 1.783358e+001
3.668571e+003, 1.384947e+001
3.670500e+003, 1.374200e+001
3.672428e+003, 1.383816e+001
3.674356e+003, 1.399534e+001
3.676285e+003, 1.493628e+001
3.678213e+003, 1.345026e+001
3.680142e+003, 9.339833e+000
3.682070e+003, 1.119740e+001
3.683999e+003, 1.515955e+001
3.685927e+003, 1.494054e+001
3.687856e+003, 1.222484e+001
3.689784e+003, 1.322175e+001
3.691713e+003, 1.706461e+001
3.693641e+003, 1.455252e+001
3.695570e+003, 1.193773e+001
3.697498e+003, 1.215421e+001
3.699427e+003, 1.232912e+001
3.701355e+003, 1.088591e+001
3.703283e+003, 1.087750e+001
3.705212e+003, 1.351487e+001
3.707140e+003, 1.875970e+001
3.709069e+003, 1.580580e+001
3.710997e+003, 1.453128e+001
3.712926e+003, 1.422136e+001
3.714854e+003, 1.063470e+001
3.716783e+003, 1.236106e+001
3.718711e+003, 1.138955e+001
3.720640e+003, 1.079792e+001
3.722568e+003, 1.290686e+001
3.724497e+003, 1.337182e+001
3.726425e+003, 1.174243e+001
3.728354e+003, 1.159329e+001
3.730282e+003, 1.463103e+001
3.732210e+003, 1.577280e+001
3.734139e+003, 1.452947e+001
3.736067e+003, 1.174375e+001
3.737996e+003, 1.057983e+001
3.739924e+003, 1.289595e+001
3.741853e+003, 1.675717e+001
3.743781e+003, 1.611710e+001
3.745710e+003, 9.073041e+000
3.747638e+003, 1.003250e+001
3.749567e+003, 9.772334e+000
3.751495e+003, 1.008408e+001
3.753424e+003, 1.200559e+001
3.755352e+003, 1.267417e+001
3.757281e+003, 1.010769e+001
3.759209e+003, 1.201709e+001
3.761137e+003, 1.064453e+001
3.763066e+003, 5.576282e+000
3.764994e+003, 7.497375e+000
3.766923e+003, 9.109830e+000
3.768851e+003, 7.083533e+000
3.770780e+003, 1.334161e+001
3.772708e+003, 1.029106e+001
3.774637e+003, 1.338435e+001
3.776565e+003, 9.877782e+000
3.778494e+003, 1.129043e+001
3.780422e+003, 1.308416e+001
3.782351e+003, 1.232980e+001
3.784279e+003, 1.268764e+001
3.786208e+003, 1.139634e+001
3.788136e+003, 1.479204e+001
3.790064e+003, 1.248955e+001
3.791993e+003, 8.917451e+000
3.793921e+003, 6.204067e+000
3.795850e+003, 6.939909e+000
3.797778e+003, 8.649288e+000
3.799707e+003, 6.694413e+000
3.801635e+003, 1.306072e+001
3.803564e+003, 1.091908e+001
3.805492e+003, 9.726871e+000
3.807421e+003, 8.251379e+000
3.809349e+003, 8.737473e+000
3.811278e+003, 9.686846e+000
3.813206e+003, 9.401048e+000
3.815135e+003, 1.068521e+001
3.817063e+003, 1.224907e+001
3.818991e+003, 3.938249e+000
3.820920e+003, 5.436644e+000
3.822848e+003, 5.139690e+000
3.824777e+003, 6.263749e+000
3.826705e+003, 7.399831e+000
3.828634e+003, 5.164339e+000
3.830562e+003, 7.024509e+000
3.832491e+003, 1.649426e+001
3.834419e+003, 6.926836e+000
3.836348e+003, 6.117757e+000
3.838276e+003, 5.056979e+000
3.840205e+003, 5.056944e+000
3.842133e+003, 9.027083e+000
3.844062e+003, 1.161285e+001
3.845990e+003, 6.077822e+000
3.847918e+003, 7.393136e+000
3.849847e+003, 1.244454e+001
3.851775e+003, 4.187603e+000
3.853704e+003, 3.330882e+000
3.855632e+003, 6.034390e+000
3.857561e+003, 7.712346e+000
3.859489e+003, 7.583825e+000
3.861418e+003, 6.114990e+000
3.863346e+003, 7.405064e+000
3.865275e+003, 4.322800e+000
3.867203e+003, 9.539660e+000
3.869132e+003, 1.136686e+001
3.871060e+003, 6.107539e+000
3.872989e+003, 3.376278e+000
3.874917e+003, 3.945844e+000
3.876845e+003, 7.606064e+000
3.878774e+003, 1.681752e+001
3.880702e+003, 9.564252e+000
3.882631e+003, 8.342472e+000
3.884559e+003, 5.995208e+000
3.886488e+003, 8.502837e+000
3.888416e+003, 7.559709e+000
3.890345e+003, 8.311644e+000
3.892273e+003, 9.418778e+000
3.894202e+003, 7.521978e+000
3.896130e+003, 8.777101e+000
3.898059e+003, 7.658248e+000
3.899987e+003, 2.694178e+000
3.901916e+003, 4.500069e+000
3.903844e+003, 7.851419e+000
3.905772e+003, 6.835608e+000
3.907701e+003, 6.630317e+000
3.909629e+003, 6.365342e+000
3.911558e+003, 4.852178e+000
3.913486e+003, 5.552249e+000
3.915415e+003, 2.231106e+000
3.917343e+003, 6.071239e+000
3.919272e+003, 4.956524e+000
3.921200e+003, 2.438420e+000
3.923129e+003, 3.550502e+000
3.925057e+003, 5.500473e+000
3.926986e+003, 6.485235e+000
3.928914e+003, 5.440529e+000
3.930843e+003, 3.883720e+000
3.932771e+003, 6.326328e+000
3.934699e+003, 5.209252e+000
3.936628e+003, 3.699366e+000
3.938556e+003, 4.587865e+000
3.940485e+003, 5.871006e+000
3.942413e+003, 9.321788e+000
3.944342e+003, 2.532053e+000
3.946270e+003, 6.099128e-002
3.948199e+003, 5.932783e+000
3.950127e+003, 5.486656e+000
3.952056e+003, 2.845358e+000
3.953984e+003, 1.928650e+000
3.955913e+003, 8.077205e+000
3.957841e+003, 3.855793e+000
3.959770e+003, 5.771812e+000
3.961698e+003, 5.147465e+000
3.963626e+003, 1.762399e+000
3.965555e+003, 5.161512e+000
3.967483e+003, 6.698240e+000
3.969412e+003, 3.800478e-001
3.971340e+003, 1.293068e+000
3.973269e+003, 5.639491e-001
3.975197e+003, 5.272126e+000
3.977126e+003, 6.239767e+000
3.979054e+003, 2.184587e+000
3.980983e+003, 4.297656e+000
3.982911e+003, 1.990266e+000
3.984840e+003, 3.164376e+000
3.986768e+003, 5.133656e+000
3.988697e+003, 4.189906e+000
3.990625e+003, 5.674442e+000
3.992553e+003, 8.553771e+000
3.994482e+003, -2.737755e-001
3.996410e+003, 4.519469e+000
3.998339e+003, 3.855816e+000
4.000267e+003, 4.436533e+000
4.002196e+003, 2.356163e+000
4.004124e+003, 4.871999e+000
4.006053e+003, 5.972505e+000
4.007981e+003, 4.073072e+000
4.009910e+003, 5.152873e+000
4.011838e+003, 7.130714e+000
4.013767e+003, 4.008007e+000
4.015695e+003, 5.829916e+000
4.017624e+003, 4.840312e+000
4.019552e+003, 2.823862e-001
4.021480e+003, 3.654155e+000
4.023409e+003, 5.032790e+000
4.025337e+003, 2.106548e+000
4.027266e+003, 3.970945e-001
4.029194e+003, 2.594270e+000
4.031123e+003, 2.809947e+000
4.033051e+003, 6.531208e-002
4.034980e+003, -1.275009e-001
4.036908e+003, 2.165177e+000
4.038837e+003, 1.537614e+000
4.040765e+003, 4.627897e+000
4.042694e+003, 8.575978e-001
4.044622e+003, 4.973746e+000
4.046551e+003, 9.529283e+000
4.048479e+003, 2.281343e+000
4.050407e+003, 3.131130e+000
4.052336e+003, 3.805932e+000
4.054264e+003, 4.164057e+000
4.056193e+003, 1.316539e+000
4.058121e+003, 4.843956e-001
4.060050e+003, 3.767841e+000
4.061978e+003, 5.170431e-001
4.063907e+003, 2.874795e+000
4.065835e+003, 8.888976e-001
4.067764e+003, 4.012711e+000
4.069692e+003, -1.044315e+000
4.071621e+003, 1.296227e+000
4.073549e+003, 4.154646e+000
4.075478e+003, 4.881632e+000
4.077406e+003, -3.667997e-001
4.079334e+003, 1.696497e-001
4.081263e+003, 2.012021e+000
4.083191e+003, 1.076770e+000
4.085120e+003, 2.953053e+000
4.087048e+003, 8.123607e+000
4.088977e+003, 9.121498e+000
4.090905e+003, 1.715796e+000
4.092834e+003, 2.332749e+000
4.094762e+003, 7.031631e+000
4.096690e+003, 3.119779e+000
4.098619e+003, 2.069006e+000
4.100547e+003, -1.011888e+000
4.102476e+003, -4.674582e-001
4.104404e+003, -2.840161e-001
4.106333e+003, 1.458525e+000
4.108261e+003, 2.044280e+000
4.110190e+003, 1.468897e+000
4.112118e+003, -4.842108e-001
4.114047e+003, -1.192393e-001
4.115975e+003, 3.000502e+000
4.117904e+003, 7.907955e-001
4.119832e+003, -1.916786e+000
4.121761e+003, 2.199203e+000
4.123689e+003, 3.858833e+000
4.125618e+003, 3.029306e+000
4.127546e+003, 5.879874e+000
4.129475e+003, 5.908658e+000
4.131403e+003, 2.889916e+000
4.133332e+003, 3.170158e+000
4.135260e+003, 5.304093e+000
4.137188e+003, 7.088296e+000
4.139117e+003, 4.898621e+000
4.141045e+003, 2.188393e+000
4.142974e+003, 4.813140e+000
4.144902e+003, 5.048964e+000
4.146831e+003, 1.534084e+000
4.148759e+003, -1.467328e-001
4.150688e+003, -1.593712e+000
4.152616e+003, 2.074999e+000
4.154544e+003, 1.429228e+000
4.156473e+003, 2.383435e+000
4.158401e+003, 8.429075e+000
4.160330e+003, -5.192217e-002
4.162258e+003, 2.639961e+000
4.164187e+003, 1.596280e+000
4.166115e+003, 3.782282e+000
4.168044e+003, 4.959492e-001
4.169972e+003, 3.634593e+000
4.171901e+003, 1.666780e+000
4.173829e+003, 3.837761e+000
4.175758e+003, 8.823992e-001
4.177686e+003, -3.612940e-001
4.179615e+003, 2.962136e+000
4.181543e+003, 4.765574e+000
4.183472e+003, 1.928283e+000
4.185400e+003, 1.090381e+000
4.187329e+003, 1.615050e+000
4.189257e+003, -4.656214e+000
4.191186e+003, 1.209368e+000
4.193114e+003, 5.158589e+000
4.195042e+003, 3.564173e+000
4.196971e+003, 1.025991e+000
4.198899e+003, 8.997628e+000
4.200828e+003, 7.816454e-002
4.202756e+003, 1.118950e+000
4.204685e+003, 2.828439e+000
4.206613e+003, 3.376706e+000
4.208542e+003, 6.762901e-001
4.210470e+003, -8.466182e-002
4.212398e+003, -2.412734e-001
4.214327e+003, 5.874463e+000
4.216255e+003, 5.110303e+000
4.218184e+003, 5.856557e-001
4.220112e+003, 2.762208e+000
4.222041e+003, 6.992992e+000
4.223969e+003, 3.335469e+000
4.225898e+003, -1.010236e+000
4.227826e+003, 4.210985e-001
4.229755e+003, 2.396919e-001
4.231683e+003, -7.054564e-001
4.233612e+003, 1.899950e+000
4.235540e+003, 1.801577e+000
4.237469e+003, -1.366114e+000
4.239397e+003, -2.314672e+000
4.241326e+003, 2.294509e+000
4.243254e+003, 1.839450e+000
4.245183e+003, -1.240035e+000
4.247111e+003, 5.059085e+000
4.249040e+003, 9.140139e+000
4.250968e+003, 3.537643e+000
4.252896e+003, 1.354051e+000
4.254825e+003, 6.087938e+000
4.256753e+003, 8.685115e+000
4.258682e+003, 1.628065e+000
4.260610e+003, 3.084858e+000
4.262539e+003, 4.863247e+000
4.264467e+003, 6.269869e+000
4.266396e+003, 2.607302e+000
4.268324e+003, 1.668116e+000
4.270252e+003, -4.346501e-003
4.272181e+003, 2.314912e+000
4.274109e+003, 6.146640e+000
4.276038e+003, 4.576475e-001
4.277966e+003, 2.952196e+000
4.279895e+003, 3.849067e+000
4.281823e+003, 1.286293e-001
4.283752e+003, 1.267397e+000
4.285680e+003, 2.649843e+000
4.287609e+003, 4.887896e+000
4.289537e+003, 4.052587e+000
4.291466e+003, 3.689203e+000
4.293394e+003, 1.994259e+000
4.295323e+003, 2.659203e+000
4.297251e+003, 6.673300e+000
4.299180e+003, 5.363777e+000
4.301108e+003, 2.963343e+000
4.303037e+003, 3.681662e+000
4.304965e+003, 4.847704e+000
4.306894e+003, 1.508454e+000
4.308822e+003, 1.288466e+000
4.310750e+003, 2.357884e+000
4.312679e+003, 4.926713e+000
4.314607e+003, 2.937925e+000
4.316536e+003, 1.817444e+000
4.318464e+003, 2.896765e+000
4.320393e+003, 8.146148e+000
4.322321e+003, -3.428218e-001
4.324250e+003, -3.304680e+000
4.326178e+003, 1.042861e+001
4.328106e+003, 1.933116e+000
4.330035e+003, -3.281973e+000
4.331963e+003, 6.642897e+000
4.333892e+003, 4.626153e+000
4.335820e+003, 2.417744e+000
4.337749e+003, -3.018010e+000
4.339677e+003, 4.967591e+000
4.341606e+003, 8.252735e+000
4.343534e+003, 1.889807e+000
4.345463e+003, 2.212535e+000
4.347391e+003, 5.881083e+000
4.349320e+003, 5.454122e+000
4.351248e+003, 1.787531e+000
4.353177e+003, 1.493657e+000
4.355105e+003, 3.169952e+000
4.357034e+003, -2.098298e+000
4.358962e+003, 1.225069e+000
4.360891e+003, 1.607123e+000
4.362819e+003, -3.473454e-002
4.364748e+003, 2.694397e+000
4.366676e+003, 4.350223e+000
4.368604e+003, 5.903535e+000
4.370533e+003, 7.459235e+000
4.372461e+003, -4.479102e+000
4.374390e+003, 2.510426e-002
4.376318e+003, 2.498483e+000
4.378247e+003, 8.820944e+000
4.380175e+003, 4.430712e+000
##END=



