##NAMES=Motukoreaite
##RRUFFID=R070337
##IDEAL CHEMISTRY=Mg_6_Al_3_(OH)_18_[Na(H_2_O)_6_](SO_4_)_2_·6H_2_O
##LOCALITY=Motukorea (Brown's Island), near Auckland, New Zealand
##OWNER=RRUFF
##SOURCE=Michael Scott
##DESCRIPTION=Very pale yellow cement to microcrystalline
##STATUS=The identification of this mineral is not yet confirmed
##URL=https://www.rruff.net/odr/rruff_sample/R070337
##FILETYPE=Raman RAW
##RAMAN WAVELENGTH=785

247.6812, 2228.993
249.6096, 2222.777
251.5381, 2219.223
253.4666, 2223.207
255.3950, 2228.645
257.3235, 2233.363
259.2520, 2237.010
261.1804, 2238.459
263.1089, 2237.626
265.0374, 2238.692
266.9658, 2242.610
268.8943, 2244.703
270.8228, 2239.972
272.7512, 2237.969
274.6797, 2248.965
276.6082, 2262.741
278.5366, 2258.240
280.4651, 2236.563
282.3936, 2233.719
284.3220, 2255.718
286.2505, 2273.274
288.1790, 2279.355
290.1074, 2277.153
292.0359, 2261.433
293.9644, 2242.471
295.8928, 2235.572
297.8213, 2239.651
299.7498, 2241.956
301.6782, 2241.719
303.6067, 2243.654
305.5352, 2253.322
307.4636, 2258.630
309.3921, 2248.495
311.3206, 2236.939
313.2490, 2243.861
315.1775, 2263.180
317.1060, 2266.612
319.0344, 2253.020
320.9629, 2239.512
322.8914, 2225.598
324.8198, 2219.182
326.7483, 2228.360
328.6768, 2239.530
330.6052, 2242.133
332.5337, 2239.006
334.4622, 2237.336
336.3906, 2236.831
338.3191, 2232.708
340.2476, 2222.614
342.1760, 2214.042
344.1045, 2206.866
346.0330, 2203.913
347.9614, 2208.076
349.8899, 2216.277
351.8184, 2225.947
353.7468, 2236.155
355.6753, 2244.497
357.6038, 2251.585
359.5322, 2251.087
361.4607, 2236.370
363.3892, 2221.782
365.3176, 2205.500
367.2461, 2195.710
369.1746, 2205.348
371.1030, 2222.603
373.0315, 2224.800
374.9600, 2213.975
376.8884, 2205.938
378.8169, 2202.422
380.7454, 2200.787
382.6738, 2206.962
384.6023, 2206.261
386.5308, 2183.577
388.4592, 2160.914
390.3877, 2163.202
392.3162, 2178.692
394.2446, 2184.311
396.1731, 2179.824
398.1016, 2177.455
400.0300, 2180.391
401.9585, 2180.949
403.8870, 2175.966
405.8154, 2171.593
407.7439, 2172.315
409.6724, 2172.914
411.6008, 2167.188
413.5293, 2158.141
415.4578, 2151.029
417.3862, 2145.984
419.3147, 2142.620
421.2432, 2140.361
423.1716, 2141.061
425.1001, 2149.121
427.0286, 2154.257
428.9570, 2151.175
430.8855, 2145.209
432.8140, 2139.375
434.7424, 2134.374
436.6709, 2131.558
438.5994, 2130.932
440.5278, 2131.810
442.4563, 2138.282
444.3848, 2137.173
446.3132, 2119.195
448.2417, 2107.107
450.1702, 2112.161
452.0986, 2118.916
454.0271, 2114.914
455.9556, 2108.691
457.8840, 2113.978
459.8125, 2127.359
461.7410, 2125.822
463.6694, 2103.476
465.5979, 2086.844
467.5264, 2075.277
469.4548, 2070.095
471.3833, 2075.580
473.3118, 2081.530
475.2402, 2085.970
477.1687, 2086.202
479.0972, 2074.897
481.0256, 2060.868
482.9541, 2064.055
484.8826, 2083.743
486.8110, 2092.422
488.7395, 2085.188
490.6680, 2080.486
492.5964, 2082.744
494.5249, 2076.834
496.4534, 2049.165
498.3818, 2028.290
500.3103, 2036.230
502.2388, 2051.145
504.1672, 2057.796
506.0957, 2057.535
508.0242, 2052.195
509.9526, 2041.931
511.8811, 2029.707
513.8096, 2012.220
515.7380, 2010.490
517.6665, 2035.038
519.5950, 2046.307
521.5234, 2027.129
523.4519, 2005.774
525.3804, 1993.378
527.3088, 1987.344
529.2373, 1989.171
531.1658, 1994.448
533.0942, 1997.082
535.0227, 1996.976
536.9512, 1992.234
538.8796, 1982.063
540.8081, 1977.410
542.7366, 1979.222
544.6650, 1983.975
546.5935, 1994.576
548.5220, 1999.116
550.4504, 1986.247
552.3789, 1975.314
554.3074, 1980.315
556.2358, 1987.891
558.1643, 1983.657
560.0928, 1972.892
562.0212, 1966.218
563.9497, 1963.458
565.8782, 1964.125
567.8066, 1968.428
569.7351, 1964.696
571.6636, 1948.674
573.5920, 1942.682
575.5205, 1960.246
577.4490, 1969.509
579.3774, 1949.023
581.3059, 1930.078
583.2344, 1930.497
585.1628, 1936.036
587.0913, 1934.503
589.0198, 1928.275
590.9482, 1919.355
592.8767, 1909.483
594.8052, 1908.394
596.7336, 1915.020
598.6621, 1911.634
600.5906, 1894.774
602.5190, 1887.534
604.4475, 1898.562
606.3760, 1906.974
608.3044, 1906.760
610.2329, 1903.418
612.1614, 1897.617
614.0898, 1890.398
616.0183, 1879.650
617.9468, 1870.282
619.8752, 1869.504
621.8037, 1873.347
623.7322, 1876.290
625.6606, 1876.704
627.5891, 1864.012
629.5176, 1839.743
631.4460, 1834.371
633.3745, 1854.875
635.3030, 1863.093
637.2314, 1844.104
639.1599, 1834.362
641.0884, 1853.932
643.0168, 1863.113
644.9453, 1838.643
646.8738, 1816.728
648.8022, 1823.672
650.7307, 1834.759
652.6592, 1824.788
654.5876, 1807.975
656.5161, 1804.835
658.4446, 1809.648
660.3730, 1812.185
662.3015, 1812.196
664.2300, 1808.917
666.1584, 1802.243
668.0869, 1794.297
670.0154, 1782.470
671.9438, 1779.662
673.8723, 1799.007
675.8008, 1806.329
677.7292, 1788.023
679.6577, 1773.703
681.5862, 1773.996
683.5146, 1775.905
685.4431, 1773.236
687.3716, 1770.139
689.3000, 1769.532
691.2285, 1770.096
693.1570, 1772.215
695.0854, 1773.402
697.0139, 1768.899
698.9424, 1760.667
700.8708, 1752.628
702.7993, 1745.507
704.7278, 1749.917
706.6563, 1769.895
708.5847, 1773.184
710.5132, 1751.061
712.4417, 1733.315
714.3701, 1719.068
716.2986, 1710.723
718.2271, 1708.872
720.1555, 1712.500
722.0840, 1731.217
724.0125, 1738.586
725.9409, 1714.172
727.8694, 1691.983
729.7979, 1692.736
731.7263, 1699.880
733.6548, 1704.411
735.5833, 1706.238
737.5117, 1703.078
739.4402, 1698.747
741.3687, 1698.911
743.2971, 1702.200
745.2256, 1707.258
747.1541, 1712.557
749.0825, 1708.736
751.0110, 1696.023
752.9395, 1686.860
754.8679, 1681.515
756.7964, 1678.504
758.7249, 1679.034
760.6533, 1675.906
762.5818, 1668.202
764.5103, 1658.681
766.4387, 1645.519
768.3672, 1638.505
770.2957, 1642.891
772.2241, 1645.063
774.1526, 1639.201
776.0811, 1633.713
778.0095, 1635.210
779.9380, 1632.917
781.8665, 1611.528
783.7949, 1596.868
785.7234, 1611.578
787.6519, 1630.509
789.5803, 1633.515
791.5088, 1629.733
793.4373, 1629.235
795.3657, 1628.439
797.2942, 1619.103
799.2227, 1606.962
801.1511, 1605.108
803.0796, 1610.334
805.0081, 1613.966
806.9365, 1615.638
808.8650, 1613.283
810.7935, 1607.001
812.7219, 1597.299
814.6504, 1584.500
816.5789, 1575.223
818.5073, 1569.724
820.4358, 1563.636
822.3643, 1556.408
824.2927, 1552.199
826.2212, 1551.080
828.1497, 1558.782
830.0781, 1580.870
832.0066, 1587.592
833.9351, 1567.326
835.8635, 1550.919
837.7920, 1547.906
839.7205, 1543.168
841.6489, 1527.255
843.5774, 1519.119
845.5059, 1529.335
847.4343, 1539.713
849.3628, 1547.702
851.2913, 1550.021
853.2197, 1542.387
855.1482, 1532.750
857.0767, 1522.974
859.0051, 1515.521
860.9336, 1508.236
862.8621, 1508.470
864.7905, 1531.616
866.7190, 1553.553
868.6475, 1550.056
870.5759, 1537.595
872.5044, 1531.760
874.4329, 1527.693
876.3613, 1519.132
878.2898, 1509.326
880.2183, 1503.542
882.1467, 1498.686
884.0752, 1486.302
886.0037, 1474.044
887.9321, 1477.779
889.8606, 1489.597
891.7891, 1497.180
893.7175, 1499.792
895.6460, 1494.137
897.5745, 1483.072
899.5029, 1473.050
901.4314, 1464.524
903.3599, 1457.552
905.2883, 1453.047
907.2168, 1456.510
909.1453, 1466.032
911.0737, 1470.679
913.0022, 1470.765
914.9307, 1470.451
916.8591, 1469.789
918.7876, 1468.780
920.7161, 1467.359
922.6445, 1461.631
924.5730, 1451.321
926.5015, 1443.846
928.4299, 1439.018
930.3584, 1442.374
932.2869, 1456.217
934.2153, 1457.836
936.1438, 1444.416
938.0723, 1437.982
940.0007, 1440.033
941.9292, 1440.927
943.8577, 1441.623
945.7861, 1434.914
947.7146, 1417.143
949.6431, 1409.628
951.5715, 1414.296
953.5000, 1421.590
955.4285, 1434.250
957.3569, 1436.367
959.2854, 1422.564
961.2139, 1422.301
963.1423, 1442.726
965.0708, 1445.778
966.9993, 1426.044
968.9277, 1413.223
970.8562, 1408.792
972.7847, 1405.366
974.7131, 1402.636
976.6416, 1402.723
978.5701, 1407.151
980.4985, 1404.319
982.4270, 1392.223
984.3555, 1384.391
986.2839, 1381.606
988.2124, 1381.551
990.1409, 1384.921
992.0693, 1383.148
993.9978, 1375.592
995.9263, 1363.704
997.8547, 1346.216
999.7832, 1349.372
1001.712, 1375.514
1003.640, 1391.725
1005.569, 1396.685
1007.497, 1391.066
1009.426, 1374.908
1011.354, 1365.518
1013.282, 1363.337
1015.211, 1361.715
1017.139, 1360.757
1019.068, 1370.708
1020.996, 1389.792
1022.925, 1385.809
1024.853, 1361.946
1026.782, 1360.197
1028.710, 1376.545
1030.639, 1371.593
1032.567, 1350.403
1034.496, 1348.325
1036.424, 1360.590
1038.353, 1363.994
1040.281, 1360.121
1042.209, 1351.436
1044.138, 1341.919
1046.066, 1348.115
1047.995, 1362.423
1049.923, 1363.384
1051.852, 1356.841
1053.780, 1355.269
1055.709, 1356.748
1057.637, 1359.677
1059.566, 1361.275
1061.494, 1353.688
1063.423, 1344.479
1065.351, 1347.372
1067.280, 1352.743
1069.208, 1346.103
1071.136, 1337.529
1073.065, 1340.613
1074.993, 1344.477
1076.922, 1335.313
1078.850, 1326.568
1080.779, 1330.269
1082.707, 1337.586
1084.636, 1347.369
1086.564, 1351.272
1088.493, 1338.437
1090.421, 1327.223
1092.350, 1328.662
1094.278, 1330.926
1096.207, 1329.218
1098.135, 1327.396
1100.063, 1326.408
1101.992, 1325.994
1103.920, 1327.577
1105.849, 1326.978
1107.777, 1322.164
1109.706, 1317.678
1111.634, 1310.814
1113.563, 1311.151
1115.491, 1324.247
1117.420, 1330.100
1119.348, 1325.217
1121.277, 1325.056
1123.205, 1331.203
1125.134, 1332.991
1127.062, 1330.076
1128.990, 1329.773
1130.919, 1331.550
1132.847, 1324.382
1134.776, 1311.087
1136.704, 1306.160
1138.633, 1308.922
1140.561, 1321.349
1142.490, 1336.980
1144.418, 1343.788
1146.347, 1343.526
1148.275, 1335.261
1150.204, 1325.265
1152.132, 1317.573
1154.061, 1314.948
1155.989, 1322.261
1157.917, 1331.354
1159.846, 1341.289
1161.774, 1343.696
1163.703, 1331.418
1165.631, 1316.991
1167.560, 1301.088
1169.488, 1296.274
1171.417, 1309.410
1173.345, 1322.909
1175.274, 1334.605
1177.202, 1337.541
1179.131, 1328.920
1181.059, 1326.337
1182.988, 1331.870
1184.916, 1333.891
1186.844, 1331.999
1188.773, 1323.582
1190.701, 1311.107
1192.630, 1311.065
1194.558, 1319.484
1196.487, 1328.447
1198.415, 1333.401
1200.344, 1320.980
1202.272, 1303.954
1204.201, 1296.371
1206.129, 1295.808
1208.058, 1306.346
1209.986, 1314.043
1211.915, 1306.970
1213.843, 1299.847
1215.771, 1296.229
1217.700, 1298.342
1219.628, 1310.132
1221.557, 1316.147
1223.485, 1312.558
1225.414, 1308.810
1227.342, 1306.124
1229.271, 1302.869
1231.199, 1299.252
1233.128, 1301.460
1235.056, 1307.592
1236.985, 1304.343
1238.913, 1296.846
1240.842, 1302.548
1242.770, 1311.593
1244.698, 1307.435
1246.627, 1297.179
1248.555, 1282.148
1250.484, 1273.807
1252.412, 1284.439
1254.341, 1298.680
1256.269, 1317.732
1258.198, 1323.418
1260.126, 1298.017
1262.055, 1285.042
1263.983, 1291.961
1265.912, 1302.190
1267.840, 1315.650
1269.769, 1311.593
1271.697, 1292.026
1273.625, 1285.083
1275.554, 1287.899
1277.482, 1291.464
1279.411, 1292.834
1281.339, 1282.681
1283.268, 1273.162
1285.196, 1282.522
1287.125, 1290.490
1289.053, 1278.375
1290.982, 1267.762
1292.910, 1267.632
1294.839, 1272.035
1296.767, 1286.022
1298.696, 1290.525
1300.624, 1282.320
1302.552, 1269.033
1304.481, 1249.548
1306.409, 1252.347
1308.338, 1270.639
1310.266, 1266.692
1312.195, 1250.127
1314.123, 1237.749
1316.052, 1228.448
1317.980, 1219.940
1319.909, 1215.660
1321.837, 1218.393
1323.766, 1225.133
1325.694, 1238.310
1327.623, 1244.616
1329.551, 1240.491
1331.479, 1230.016
1333.408, 1211.336
1335.336, 1204.450
1337.265, 1207.699
1339.193, 1203.498
1341.122, 1195.925
1343.050, 1196.900
1344.979, 1200.607
1346.907, 1199.927
1348.836, 1197.596
1350.764, 1195.603
1352.693, 1192.087
1354.621, 1185.401
1356.550, 1180.112
1358.478, 1176.863
1360.406, 1178.706
1362.335, 1186.049
1364.263, 1193.742
1366.192, 1200.246
1368.120, 1197.608
1370.049, 1188.730
1371.977, 1176.481
1373.906, 1165.398
1375.834, 1162.381
1377.763, 1159.123
1379.691, 1146.903
1381.620, 1143.989
1383.548, 1158.391
1385.477, 1163.825
1387.405, 1156.424
1389.333, 1152.182
1391.262, 1151.361
1393.190, 1146.130
1395.119, 1140.131
1397.047, 1143.617
1398.976, 1149.225
1400.904, 1148.828
1402.833, 1146.399
1404.761, 1146.047
1406.690, 1140.234
1408.618, 1123.108
1410.547, 1117.611
1412.475, 1126.542
1414.404, 1126.427
1416.332, 1118.482
1418.260, 1116.004
1420.189, 1115.776
1422.117, 1109.435
1424.046, 1104.277
1425.974, 1108.752
1427.903, 1114.494
1429.831, 1117.527
1431.760, 1121.080
1433.688, 1127.896
1435.617, 1124.694
1437.545, 1111.487
1439.474, 1110.094
1441.402, 1114.745
1443.331, 1103.647
1445.259, 1089.845
1447.188, 1088.880
1449.116, 1091.751
1451.044, 1092.783
1452.973, 1096.233
1454.901, 1106.804
1456.830, 1111.160
1458.758, 1107.476
1460.687, 1111.957
1462.615, 1120.574
1464.544, 1111.400
1466.472, 1097.483
1468.401, 1098.135
1470.329, 1099.588
1472.258, 1092.723
1474.186, 1085.597
1476.115, 1078.990
1478.043, 1079.219
1479.971, 1087.727
1481.900, 1090.566
1483.828, 1088.267
1485.757, 1081.623
1487.685, 1072.710
1489.614, 1059.448
1491.542, 1053.690
1493.471, 1065.859
1495.399, 1073.072
1497.328, 1067.796
1499.256, 1067.762
1501.185, 1073.906
1503.113, 1066.499
1505.042, 1052.468
1506.970, 1048.834
1508.898, 1049.960
1510.827, 1048.914
1512.755, 1054.807
1514.684, 1075.899
1516.612, 1079.807
1518.541, 1059.990
1520.469, 1050.007
1522.398, 1049.386
1524.326, 1050.630
1526.255, 1050.078
1528.183, 1040.307
1530.112, 1029.235
1532.040, 1017.557
1533.969, 1017.978
1535.897, 1035.316
1537.825, 1035.300
1539.754, 1019.153
1541.682, 1022.719
1543.611, 1033.877
1545.539, 1027.861
1547.468, 1019.276
1549.396, 1018.346
1551.325, 1021.982
1553.253, 1032.484
1555.182, 1025.741
1557.110, 1003.049
1559.039, 1000.384
1560.967, 1008.721
1562.896, 1006.394
1564.824, 1004.171
1566.752, 1018.158
1568.681, 1020.953
1570.609, 999.1460
1572.538, 987.0479
1574.466, 986.3132
1576.395, 990.0961
1578.323, 993.7708
1580.252, 986.1083
1582.180, 978.5579
1584.109, 983.6317
1586.037, 985.1296
1587.966, 974.8730
1589.894, 971.9803
1591.823, 976.0626
1593.751, 972.6411
1595.679, 965.3337
1597.608, 958.6091
1599.536, 955.2339
1601.465, 963.7277
1603.393, 962.0598
1605.322, 937.2058
1607.250, 927.0176
1609.179, 929.6861
1611.107, 933.7997
1613.036, 938.0175
1614.964, 940.7008
1616.893, 942.7721
1618.821, 945.9216
1620.750, 944.4612
1622.678, 936.8174
1624.606, 927.5447
1626.535, 920.5484
1628.463, 937.0831
1630.392, 950.1152
1632.320, 933.5121
1634.249, 919.4435
1636.177, 919.4273
1638.106, 916.5000
1640.034, 910.1465
1641.963, 911.6725
1643.891, 914.8724
1645.820, 906.6791
1647.748, 901.4265
1649.677, 907.7883
1651.605, 908.5221
1653.533, 900.3351
1655.462, 893.3576
1657.390, 888.4301
1659.319, 888.7916
1661.247, 889.3213
1663.176, 886.0710
1665.104, 881.6567
1667.033, 876.7513
1668.961, 866.8284
1670.890, 854.8182
1672.818, 857.0996
1674.747, 862.9088
1676.675, 858.6267
1678.604, 855.9693
1680.532, 859.9016
1682.460, 853.2474
1684.389, 837.8837
1686.317, 841.0328
1688.246, 849.7665
1690.174, 845.4868
1692.103, 837.1138
1694.031, 824.3832
1695.960, 828.7898
1697.888, 848.6490
1699.817, 836.5666
1701.745, 814.8538
1703.674, 827.7117
1705.602, 839.5372
1707.531, 824.3109
1709.459, 816.3697
1711.387, 818.0915
1713.316, 817.4748
1715.244, 814.6422
1717.173, 809.3349
1719.101, 805.1168
1721.030, 806.0408
1722.958, 803.2480
1724.887, 795.8741
1726.815, 798.1104
1728.744, 803.9981
1730.672, 804.1934
1732.601, 798.9926
1734.529, 782.6187
1736.458, 775.9599
1738.386, 781.2314
1740.314, 782.5665
1742.243, 780.4191
1744.171, 773.2130
1746.100, 768.1930
1748.028, 770.1916
1749.957, 772.8514
1751.885, 775.3588
1753.814, 768.4269
1755.742, 756.9514
1757.671, 745.3879
1759.599, 738.5906
1761.528, 738.7866
1763.456, 745.8309
1765.385, 757.3732
1767.313, 755.6592
1769.241, 748.1217
1771.170, 741.0381
1773.098, 736.8544
1775.027, 736.3151
1776.955, 741.6187
1778.884, 749.2856
1780.812, 745.6483
1782.741, 736.8804
1784.669, 725.4034
1786.598, 719.2053
1788.526, 720.1285
1790.455, 724.6544
1792.383, 728.7179
1794.312, 721.4384
1796.240, 714.0209
1798.168, 711.5375
1800.097, 712.7105
1802.025, 716.2594
1803.954, 714.3644
1805.882, 708.7913
1807.811, 697.6512
1809.739, 693.5601
1811.668, 700.9131
1813.596, 699.9870
1815.525, 693.1205
1817.453, 696.3415
1819.382, 696.8652
1821.310, 678.3444
1823.239, 670.2885
1825.167, 674.7899
1827.095, 671.2145
1829.024, 664.7947
1830.952, 665.4228
1832.881, 666.2101
1834.809, 664.3199
1836.738, 657.9353
1838.666, 651.7617
1840.595, 667.6194
1842.523, 677.5425
1844.452, 652.7230
1846.380, 633.4349
1848.309, 623.9290
1850.237, 632.9015
1852.166, 645.2794
1854.094, 638.6157
1856.022, 635.0325
1857.951, 644.7369
1859.879, 640.4549
1861.808, 628.1519
1863.736, 622.0792
1865.665, 619.9553
1867.593, 626.4957
1869.522, 623.4006
1871.450, 609.3922
1873.379, 607.4338
1875.307, 610.8768
1877.236, 614.4203
1879.164, 612.8804
1881.093, 604.7911
1883.021, 593.7556
1884.949, 585.4048
1886.878, 593.7510
1888.806, 604.8155
1890.735, 614.7397
1892.663, 607.4959
1894.592, 590.5307
1896.520, 589.3455
1898.449, 589.7560
1900.377, 581.5860
1902.306, 583.7903
1904.234, 595.4533
1906.163, 595.7333
1908.091, 586.5111
1910.020, 564.4542
1911.948, 561.6100
1913.876, 579.9623
1915.805, 577.6357
1917.733, 565.2916
1919.662, 546.5001
1921.590, 539.4263
1923.519, 548.3352
1925.447, 544.6958
1927.376, 537.6392
1929.304, 543.7674
1931.233, 547.3142
1933.161, 545.5858
1935.090, 539.9290
1937.018, 533.6038
1938.947, 542.9611
1940.875, 548.3450
1942.803, 539.1697
1944.732, 537.0573
1946.660, 538.8257
1948.589, 529.9136
1950.517, 519.8853
1952.446, 513.3459
1954.374, 515.3640
1956.303, 521.4269
1958.231, 522.5341
1960.160, 519.1716
1962.088, 505.6963
1964.017, 501.8665
1965.945, 505.1207
1967.874, 501.3009
1969.802, 498.4009
1971.730, 501.1120
1973.659, 499.5464
1975.587, 496.2392
1977.516, 497.9912
1979.444, 498.2802
1981.373, 496.5803
1983.301, 494.1859
1985.230, 489.3842
1987.158, 485.0812
1989.087, 481.9228
1991.015, 479.5884
1992.944, 478.8513
1994.872, 477.8916
1996.801, 472.5052
1998.729, 466.5492
2000.657, 458.2368
2002.586, 460.5380
2004.514, 471.0912
2006.443, 478.3950
2008.371, 477.4297
2010.300, 463.6981
2012.228, 456.6270
2014.157, 456.1426
2016.085, 456.1333
2018.014, 457.3372
2019.942, 460.8216
2021.871, 455.4937
2023.799, 446.3206
2025.728, 444.6016
2027.656, 442.2293
2029.584, 436.7802
2031.513, 434.3402
2033.441, 433.0964
2035.370, 430.8248
2037.298, 430.3260
2039.227, 432.6407
2041.155, 434.5222
2043.084, 433.0215
2045.012, 426.2269
2046.941, 423.8929
2048.869, 425.1462
2050.798, 423.8839
2052.726, 420.9424
2054.655, 415.0544
2056.583, 414.5369
2058.511, 418.1242
2060.440, 409.1801
2062.368, 400.5452
2064.297, 403.1768
2066.225, 409.5235
2068.154, 416.2166
2070.082, 406.9087
2072.011, 397.7980
2073.939, 399.2674
2075.868, 403.6056
2077.796, 408.3033
2079.725, 410.3518
2081.653, 406.3447
2083.582, 394.1978
2085.510, 392.8164
2087.438, 395.5297
2089.367, 395.4333
2091.295, 388.5971
2093.224, 375.0631
2095.152, 372.1622
2097.081, 374.3176
2099.009, 378.2709
2100.938, 383.5147
2102.866, 387.8003
2104.795, 375.2367
2106.723, 368.2221
2108.652, 380.9423
2110.580, 380.2843
2112.509, 372.1630
2114.437, 367.5030
2116.365, 366.9608
2118.294, 370.5286
2120.222, 358.8614
2122.151, 349.4185
2124.079, 358.7336
2126.008, 363.7646
2127.936, 362.0342
2129.865, 354.9603
2131.793, 347.9547
2133.722, 343.1622
2135.650, 346.4007
2137.579, 352.7561
2139.507, 356.7322
2141.436, 351.9886
2143.364, 339.1144
2145.292, 334.6680
2147.221, 334.9911
2149.149, 338.8945
2151.078, 331.2034
2153.006, 319.4851
2154.935, 327.5008
2156.863, 337.3506
2158.792, 344.8042
2160.720, 338.9128
2162.649, 329.9678
2164.577, 332.9739
2166.506, 324.1249
2168.434, 308.7979
2170.363, 314.3371
2172.291, 319.5108
2174.219, 314.2763
2176.148, 316.1318
2178.076, 318.8917
2180.005, 313.2564
2181.933, 308.3964
2183.862, 306.2112
2185.790, 308.1724
2187.719, 310.4287
2189.647, 313.2055
2191.576, 311.6554
2193.504, 307.5863
2195.433, 302.7970
2197.361, 299.4235
2199.290, 298.2135
2201.218, 299.8847
2203.146, 299.9653
2205.075, 295.6153
2207.003, 289.5684
2208.932, 285.6740
2210.860, 292.1601
2212.789, 296.9099
2214.717, 297.4813
2216.646, 292.5782
2218.574, 285.0753
2220.503, 277.7812
2222.431, 277.6069
2224.360, 280.8349
2226.288, 285.0765
2228.217, 283.5650
2230.145, 277.8065
2232.073, 272.6586
2234.002, 273.6721
2235.930, 282.1898
2237.859, 275.7523
2239.787, 268.3129
2241.716, 272.8098
2243.644, 278.5986
2245.573, 281.6039
2247.501, 276.0119
2249.430, 268.6147
2251.358, 259.1797
2253.287, 262.3855
2255.215, 269.3640
2257.144, 264.7603
2259.072, 259.9327
2261.000, 260.3132
2262.929, 258.7145
2264.857, 256.5353
2266.786, 256.1845
2268.714, 256.8172
2270.643, 254.4170
2272.571, 245.8091
2274.500, 243.4401
2276.428, 244.5444
2278.357, 242.0894
2280.285, 239.0741
2282.214, 237.5484
2284.142, 248.3256
2286.071, 249.5802
2287.999, 237.0485
2289.927, 240.5596
2291.856, 244.8351
2293.784, 239.8907
2295.713, 247.1008
2297.641, 252.3223
2299.570, 235.4608
2301.498, 230.3173
2303.427, 235.2018
2305.355, 238.2639
2307.284, 237.3857
2309.212, 230.9924
2311.141, 228.3167
2313.069, 228.0371
2314.998, 220.7793
2316.926, 215.7706
2318.854, 217.6930
2320.783, 220.1684
2322.711, 214.5249
2324.640, 212.5801
2326.568, 217.3463
2328.497, 215.0828
2330.425, 211.5579
2332.354, 212.7536
2334.282, 214.8295
2336.211, 214.8710
2338.139, 214.5695
2340.068, 215.1065
2341.996, 213.4332
2343.925, 212.7122
2345.853, 215.5241
2347.781, 210.9290
2349.710, 204.1563
2351.638, 202.5319
2353.567, 202.4678
2355.495, 204.4260
2357.424, 208.1851
2359.352, 203.5614
2361.281, 201.0702
2363.209, 201.2270
2365.138, 205.7006
2367.066, 205.6166
2368.995, 198.7105
2370.923, 195.2904
2372.852, 192.9373
2374.780, 190.9451
2376.708, 194.3205
2378.637, 194.4559
2380.565, 191.7041
2382.494, 190.9813
2384.422, 190.6215
2386.351, 194.7464
2388.279, 193.9942
2390.208, 189.9209
2392.136, 185.7069
2394.065, 185.5386
2395.993, 189.7633
2397.922, 190.3861
2399.850, 183.4916
2401.779, 181.0127
2403.707, 180.1031
2405.635, 176.7144
2407.564, 175.5594
2409.492, 171.1681
2411.421, 169.3199
2413.349, 169.1764
2415.278, 166.8464
2417.206, 169.5964
2419.135, 180.3510
2421.063, 177.2217
2422.992, 168.8168
2424.920, 171.5876
2426.849, 174.5867
2428.777, 171.8522
2430.706, 162.3143
2432.634, 163.2117
2434.563, 170.2030
2436.491, 163.2564
2438.419, 158.7578
2440.348, 159.0010
2442.276, 155.7130
2444.205, 154.3994
2446.133, 154.5896
2448.062, 162.0532
2449.990, 160.6473
2451.919, 152.8549
2453.847, 155.4903
2455.776, 153.6806
2457.704, 152.1229
2459.633, 155.1843
2461.561, 153.5019
2463.490, 148.7615
2465.418, 152.5211
2467.346, 157.3928
2469.275, 153.0413
2471.203, 146.0614
2473.132, 143.4929
2475.060, 148.7103
2476.989, 149.6090
2478.917, 148.4763
2480.846, 150.9138
2482.774, 149.4054
2484.703, 144.3132
2486.631, 140.5625
2488.560, 144.7490
2490.488, 147.9111
2492.417, 139.9712
2494.345, 135.0009
2496.273, 134.5189
2498.202, 137.8741
2500.130, 138.7269
2502.059, 139.7876
2503.987, 141.1440
2505.916, 134.7343
2507.844, 130.2451
2509.773, 138.5008
2511.701, 140.7020
2513.630, 138.9251
2515.558, 134.8860
2517.487, 132.4687
2519.415, 129.7397
2521.344, 125.2569
2523.272, 123.7579
2525.200, 126.0544
2527.129, 128.3481
2529.057, 124.6799
2530.986, 121.6246
2532.914, 122.4277
2534.843, 120.4366
2536.771, 119.3486
2538.700, 116.3759
2540.628, 117.5816
2542.557, 123.4765
2544.485, 125.3512
2546.414, 122.6782
2548.342, 118.8909
2550.271, 117.3597
2552.199, 117.6741
2554.127, 119.8483
2556.056, 119.8243
2557.984, 118.4772
2559.913, 116.3498
2561.841, 108.9393
2563.770, 106.7441
2565.698, 109.2998
2567.627, 111.1720
2569.555, 111.9539
2571.484, 112.2941
2573.412, 111.5101
2575.341, 107.9649
2577.269, 105.8146
2579.198, 110.0419
2581.126, 107.4233
2583.054, 104.3223
2584.983, 107.5748
2586.911, 103.5049
2588.840, 98.50082
2590.768, 99.37621
2592.697, 100.3318
2594.625, 99.48922
2596.554, 95.81140
2598.482, 97.48751
2600.411, 98.98369
2602.339, 96.68596
2604.268, 94.36775
2606.196, 96.25550
2608.125, 103.7980
2610.053, 103.3945
2611.981, 97.06602
2613.910, 88.48302
2615.838, 89.85898
2617.767, 92.45300
2619.695, 92.53577
2621.624, 92.47913
2623.552, 92.71215
2625.481, 92.90176
2627.409, 91.86169
2629.338, 93.58855
2631.266, 95.31223
2633.195, 87.80577
2635.123, 87.34204
2637.052, 91.88380
2638.980, 89.42783
2640.908, 88.03438
2642.837, 87.29394
2644.765, 85.94193
2646.694, 84.16830
2648.622, 84.35181
2650.551, 86.64626
2652.479, 89.02129
2654.408, 89.42910
2656.336, 86.95876
2658.265, 85.27213
2660.193, 83.42799
2662.122, 82.92638
2664.050, 83.42904
2665.979, 82.07202
2667.907, 78.64592
2669.835, 78.16024
2671.764, 82.31664
2673.692, 86.60766
2675.621, 76.26828
2677.549, 74.81135
2679.478, 78.45522
2681.406, 74.26621
2683.335, 74.62984
2685.263, 75.55598
2687.192, 73.54603
2689.120, 74.95497
2691.049, 75.85107
2692.977, 71.38239
2694.906, 69.14125
2696.834, 69.79540
2698.762, 71.80442
2700.691, 74.02199
2702.619, 72.44067
2704.548, 72.03040
2706.476, 75.88099
2708.405, 72.70303
2710.333, 67.47247
2712.262, 65.04424
2714.190, 71.26577
2716.119, 73.85484
2718.047, 66.16061
2719.976, 62.24810
2721.904, 61.62471
2723.833, 65.91152
2725.761, 64.85077
2727.689, 66.25565
2729.618, 71.34163
2731.546, 66.64442
2733.475, 63.76769
2735.403, 67.16463
2737.332, 64.29166
2739.260, 61.37507
2741.189, 59.87061
2743.117, 63.47927
2745.046, 66.25828
2746.974, 64.51977
2748.903, 64.07631
2750.831, 62.63233
2752.760, 63.95207
2754.688, 65.68159
2756.616, 59.51480
2758.545, 57.93644
2760.473, 64.83922
2762.402, 62.12991
2764.330, 59.76510
2766.259, 60.32290
2768.187, 56.08593
2770.116, 59.33280
2772.044, 57.83183
2773.973, 53.76645
2775.901, 55.11424
2777.830, 55.73250
2779.758, 56.89495
2781.687, 55.14656
2783.615, 51.74189
2785.543, 51.22461
2787.472, 51.04074
2789.400, 51.42937
2791.329, 51.21252
2793.257, 53.75117
2795.186, 53.59027
2797.114, 48.01989
2799.043, 43.61247
2800.971, 46.37363
2802.900, 49.11309
2804.828, 51.47389
2806.757, 54.57271
2808.685, 53.95786
2810.614, 54.00835
2812.542, 49.75964
2814.470, 46.42376
2816.399, 45.76865
2818.327, 43.86491
2820.256, 42.82544
2822.184, 43.52333
2824.113, 44.66660
2826.041, 49.45061
2827.970, 46.82510
2829.898, 43.19835
2831.827, 42.10719
2833.755, 38.75676
2835.684, 39.71882
2837.612, 43.30705
2839.541, 42.52075
2841.469, 43.08116
2843.397, 45.45321
2845.326, 43.66915
2847.254, 41.18917
2849.183, 42.05444
2851.111, 40.04438
2853.040, 42.63205
2854.968, 41.36258
2856.897, 36.81272
2858.825, 34.39534
2860.754, 35.91055
2862.682, 40.26801
2864.611, 42.49265
2866.539, 41.36570
2868.468, 36.94760
2870.396, 30.35842
2872.324, 33.70432
2874.253, 37.57941
2876.181, 39.45076
2878.110, 35.63344
2880.038, 37.02946
2881.967, 37.86710
2883.895, 31.20237
2885.824, 33.05445
2887.752, 35.01490
2889.681, 34.52115
2891.609, 32.17332
2893.538, 31.79989
2895.466, 32.52382
2897.395, 33.70222
2899.323, 31.30676
2901.251, 31.19746
2903.180, 33.90196
2905.108, 33.82605
2907.037, 34.93739
2908.965, 37.89905
2910.894, 38.28907
2912.822, 31.83448
2914.751, 29.13110
2916.679, 32.42378
2918.608, 32.12471
2920.536, 31.28364
2922.465, 29.83786
2924.393, 35.46533
2926.322, 30.62284
2928.250, 27.06269
2930.178, 30.83430
2932.107, 29.34418
2934.035, 25.67181
2935.964, 23.71794
2937.892, 30.62312
2939.821, 35.23110
2941.749, 32.18289
2943.678, 27.62305
2945.606, 29.26032
2947.535, 31.39137
2949.463, 30.49195
2951.392, 24.94564
2953.320, 23.39103
2955.249, 22.06496
2957.177, 23.12393
2959.105, 26.52775
2961.034, 26.51884
2962.962, 27.43385
2964.891, 28.17563
2966.819, 27.13761
2968.748, 21.05767
2970.676, 19.30624
2972.605, 25.20164
2974.533, 18.90890
2976.462, 19.43869
2978.390, 23.43230
2980.319, 20.90391
2982.247, 17.76257
2984.176, 15.95794
2986.104, 18.35151
2988.032, 22.35635
2989.961, 23.72484
2991.889, 21.84212
2993.818, 20.53119
2995.746, 23.13303
2997.675, 21.90602
2999.603, 19.60969
3001.532, 15.34461
3003.460, 19.48475
3005.389, 22.42598
3007.317, 18.93180
3009.246, 15.95329
3011.174, 17.54193
3013.103, 19.27323
3015.031, 20.21035
3016.959, 19.20117
3018.888, 17.93460
3020.816, 18.73110
3022.745, 20.75522
3024.673, 17.11199
3026.602, 16.58148
3028.530, 18.34786
3030.459, 20.04239
3032.387, 20.39646
3034.316, 14.84804
3036.244, 8.920685
3038.173, 15.66535
3040.101, 16.90259
3042.030, 16.66829
3043.958, 17.76004
3045.886, 16.25635
3047.815, 16.80272
3049.743, 16.15639
3051.672, 13.91075
3053.600, 14.59106
3055.529, 15.98744
3057.457, 16.48410
3059.386, 15.01036
3061.314, 12.93951
3063.243, 10.73370
3065.171, 9.640666
3067.100, 10.95193
3069.028, 9.334598
3070.957, 8.492073
3072.885, 8.974627
3074.813, 9.853451
3076.742, 13.72176
3078.670, 15.12146
3080.599, 12.84486
3082.527, 6.164409
3084.456, 7.303205
3086.384, 11.13191
3088.313, 14.18164
3090.241, 12.86285
3092.170, 13.14697
3094.098, 14.47576
3096.027, 15.46662
3097.955, 16.62584
3099.884, 14.67591
3101.812, 13.00639
3103.740, 13.56534
3105.669, 14.83624
3107.597, 12.82130
3109.526, 12.34453
3111.454, 14.03004
3113.383, 9.098860
3115.311, 10.14748
3117.240, 13.32960
3119.168, 14.92531
3121.097, 11.92929
3123.025, 12.02410
3124.954, 13.96922
3126.882, 16.17939
3128.811, 13.45823
3130.739, 10.62265
3132.667, 9.785420
3134.596, 10.37051
3136.524, 8.544127
3138.453, 12.31395
3140.381, 14.65888
3142.310, 10.65630
3144.238, 8.623075
3146.167, 9.505909
3148.095, 11.09647
3150.024, 11.34021
3151.952, 9.927514
3153.881, 5.026258
3155.809, 4.726728
3157.738, 8.888867
3159.666, 6.097193
3161.594, 6.078600
3163.523, 8.602951
3165.451, 11.19684
3167.380, 11.62041
3169.308, 6.767848
3171.237, 5.629522
3173.165, 7.815974
3175.094, 9.688553
3177.022, 8.934747
3178.951, 8.181026
3180.879, 7.115743
3182.808, 5.866781
3184.736, 13.05987
3186.665, 10.76603
3188.593, 7.549730
3190.521, 14.03843
3192.450, 8.134381
3194.378, 9.340267
3196.307, 11.42896
3198.235, 9.098628
3200.164, 8.666245
3202.092, 9.007746
3204.021, 9.712692
3205.949, 8.938694
3207.878, 9.334799
3209.806, 11.28246
3211.735, 10.60107
3213.663, 7.834749
3215.592, 6.223416
3217.520, 10.19431
3219.448, 10.54538
3221.377, 8.262727
3223.305, 8.984102
3225.234, 10.73962
3227.162, 9.804626
3229.091, 10.26763
3231.019, 15.34584
3232.948, 9.925682
3234.876, 7.438205
3236.805, 6.496943
3238.733, 5.317661
3240.662, -0.5979691
3242.590, 1.120697
3244.519, 3.952464
3246.447, 5.483775
3248.375, 8.696834
3250.304, 8.951789
3252.232, 9.745705
3254.161, 9.588506
3256.089, 2.554833
3258.018, 5.427038
3259.946, 5.286751
3261.875, 6.984942
3263.803, 7.081344
3265.732, -6.5173827E-02
3267.660, 2.872003
3269.589, 5.690701
3271.517, 6.284054
3273.446, 7.340834
3275.374, 8.517167
3277.302, 6.234330
3279.231, 2.895228
3281.159, 3.554851
3283.088, 8.946471
3285.016, 10.11828
3286.945, 6.618332
3288.873, 2.432760
3290.802, 4.660804
3292.730, 6.625028
3294.659, 9.064919
3296.587, 8.628374
3298.516, 4.850041
3300.444, 11.69281
3302.373, 8.878455
3304.301, 6.540763
3306.229, 8.073270
3308.158, 5.916635
3310.086, 5.637547
3312.015, 4.584170
3313.943, 3.620233
3315.872, 1.515254
3317.800, 7.452521
3319.729, 5.888262
3321.657, 4.474216
3323.586, 5.821684
3325.514, 0.8905708
3327.443, 1.210697
3329.371, 1.682309
3331.300, 1.049754
3333.228, -0.9236321
3335.156, 1.9818511E-02
3337.085, 1.833956
3339.013, 4.250326
3340.942, 4.950847
3342.870, 1.235623
3344.799, 1.353217
3346.727, 4.868335
3348.656, 4.183540
3350.584, 0.1209529
3352.513, 3.639948
3354.441, 4.564402
3356.370, 1.239189
3358.298, -0.8709484
3360.227, 0.7880834
3362.155, -0.8223560
3364.083, 1.268735
3366.012, 5.411932
3367.940, 6.801817
3369.869, 2.839409
3371.797, -2.100843
3373.726, 4.145223
3375.654, 6.307360
3377.583, 2.141503
3379.511, 0.5229423
3381.440, 0.6376477
3383.368, -1.032596
3385.297, 0.1574294
3387.225, 4.601812
3389.154, 5.001473
3391.082, 5.768735
3393.010, 7.810397
3394.939, 7.677557
3396.867, 5.009558
3398.796, 1.482095
3400.724, -1.343669
3402.653, -3.356522
3404.581, -4.327508
3406.510, -3.924439
3408.438, -0.3492983
3410.367, 1.030207
3412.295, 0.6242312
3414.224, -0.5568385
3416.152, -0.8611352
3418.081, 3.150877
3420.009, 2.527457
3421.938, -3.434929
3423.866, -4.560189
3425.794, 4.412890
3427.723, 1.240447
3429.651, 1.785270
3431.580, 2.140315
3433.508, 1.727918
3435.437, 1.771917
3437.365, 3.809637
3439.294, 4.492162
3441.222, 6.465796
3443.151, 7.232961
3445.079, 4.669895
3447.008, 1.913487
3448.936, 9.1503210E-02
3450.865, 4.433526
3452.793, 5.141869
3454.721, -1.440862
3456.650, 0.4141054
3458.578, 4.079948
3460.507, 4.710150
3462.435, 1.895023
3464.364, -0.7824351
3466.292, 3.015352
3468.221, -1.378997
3470.149, -0.6514173
3472.078, 3.457675
3474.006, 4.231626
3475.935, -3.168690
3477.863, -0.3367347
3479.792, 3.467388
3481.720, 0.9117576
3483.648, -1.117414
3485.577, 6.554379
3487.505, 2.684200
3489.434, 4.334236
3491.362, 3.990059
3493.291, 0.4182801
3495.219, -2.555163
3497.148, 1.155923
3499.076, 3.206243
3501.005, -4.165142
3502.933, -6.797654
3504.862, -0.1251023
3506.790, 0.6575520
3508.719, 0.4209858
3510.647, -4.411764
3512.575, -7.160297
3514.504, -4.355964
3516.432, 2.222053
3518.361, -2.169060
3520.289, 2.083437
3522.218, 2.737747
3524.146, -2.396674
3526.075, -8.199583
3528.003, -5.833573
3529.932, 2.375143
3531.860, 2.769915
3533.789, -7.3929183E-02
3535.717, -2.052850
3537.646, -3.185615
3539.574, -3.884907
3541.502, 1.959890
3543.431, -1.745372
3545.359, -3.707577
3547.288, 1.952902
3549.216, -2.200305
3551.145, -0.8763481
3553.073, 4.246907
3555.002, 5.759945
3556.930, 3.829373
3558.859, 2.143523
3560.787, -1.225584
3562.716, -2.782733
3564.644, -0.8056267
3566.573, 0.1717400
3568.501, -0.3306289
3570.429, 0.7947208
3572.358, -3.321313
3574.286, -1.468258
3576.215, -2.400411
3578.143, -3.288795
3580.072, -1.438618
3582.000, -1.520884
3583.929, 1.046389
3585.857, 4.039681
3587.786, -1.749960
3589.714, -5.606731
3591.643, -9.3664497E-02
3593.571, -1.100389
3595.500, -2.015884
3597.428, -0.1079477
3599.356, -2.642092
3601.285, -5.178119
3603.213, -2.717531
3605.142, -6.538379
3607.070, -2.402060
3608.999, 0.7902175
3610.927, -1.843036
3612.856, -4.951650
3614.784, -3.569463
3616.713, -4.385922
3618.641, 7.648501
3620.570, 3.846436
3622.498, -2.959671
3624.427, -4.037201
3626.355, -1.356493
3628.283, -0.8731344
3630.212, -6.597907
3632.140, -2.737709
3634.069, -0.4863749
3635.997, -3.008083
3637.926, -4.844608
3639.854, -0.4264566
3641.783, -1.755445
3643.711, 0.2611025
3645.640, -4.724814
3647.568, -6.472508
3649.497, -1.873743
3651.425, -5.009471
3653.354, -4.802062
3655.282, -9.963231
3657.210, -5.155521
3659.139, -3.241176
3661.067, -8.096842
3662.996, -10.42141
3664.924, -14.53076
3666.853, -11.22324
3668.781, -7.027819
3670.710, -7.268868
3672.638, -9.984337
3674.567, -10.07320
3676.495, -2.170664
3678.424, -1.834092
3680.352, -6.065616
3682.281, -9.386906
3684.209, -5.863301
3686.137, 0.6795630
3688.066, 0.1165075
3689.994, -1.926812
3691.923, -5.827414
3693.851, -5.950529
3695.780, -2.668075
3697.708, -3.098869
3699.637, -6.658405
3701.565, -0.4043634
3703.494, -5.518054
3705.422, -1.960760
3707.351, 4.276941
3709.279, -0.1765279
3711.208, -7.927742
3713.136, -3.740239
3715.064, 5.377637
3716.993, 2.112000
3718.921, -5.356083
3720.850, -4.986041
3722.778, -2.696845
3724.707, -3.560869
3726.635, -6.068503
3728.564, -10.86521
3730.492, -3.080617
3732.421, -7.378676
3734.349, -12.13358
3736.278, -12.20411
3738.206, -10.12759
3740.135, -8.321577
3742.063, -3.744674
3743.991, -5.791917
3745.920, -9.004239
3747.848, -5.239718
3749.777, -0.5749245
3751.705, -1.146142
3753.634, -6.580960
3755.562, -16.75858
3757.491, -6.339713
3759.419, -2.745084
3761.348, -7.018085
3763.276, -5.712790
3765.205, -3.643187
3767.133, -8.347523
3769.062, -2.589856
3770.990, -4.914312
3772.918, 1.439926
3774.847, -5.586703
3776.775, -5.669086
3778.704, -0.3334353
3780.632, -3.460015
3782.561, -11.78158
3784.489, -3.334308
3786.418, -4.381821
3788.346, 0.9505409
3790.275, -0.5205463
3792.203, -2.553477
3794.132, -3.224703
3796.060, -6.429872
3797.989, -2.325519
3799.917, -5.095613
3801.845, 2.231745
3803.774, -3.651241
3805.702, -2.493213
3807.631, -0.4741959
3809.559, -5.859624
3811.488, -7.606290
3813.416, -4.252704
3815.345, -7.813723
3817.273, -5.830937
3819.202, -4.981349
3821.130, -6.407251
3823.059, -7.857950
3824.987, -7.218218
3826.916, -4.322171
3828.844, -6.228884
3830.772, -3.823235
3832.701, 0.9466984
3834.629, -6.616799
3836.558, -5.815820
3838.486, -3.523575
3840.415, -6.910316
3842.343, -2.476214
3844.272, -4.208869
3846.200, -1.352901
3848.129, -0.1962242
3850.057, -3.091311
3851.986, -5.673244
3853.914, -4.352783
3855.843, -0.5981745
3857.771, -0.9802338
3859.699, -10.30466
3861.628, -1.423932
3863.556, 5.028972
3865.485, 2.225783
3867.413, -1.195320
3869.342, -1.620639
3871.270, -1.624845
3873.199, -3.848626
3875.127, -7.515693
3877.056, -10.55031
3878.984, -5.558101
3880.913, -6.636220
3882.841, -14.30453
3884.770, -8.330379
3886.698, -6.262222
3888.626, -10.33988
3890.555, -6.996762
3892.483, -6.995071
3894.412, -8.153353
3896.340, -10.81107
3898.269, -6.341560
3900.197, 1.835852
3902.126, -0.5789618
3904.054, -7.108986
3905.983, -8.649419
3907.911, -7.002883
3909.840, -7.885952
3911.768, -11.95728
3913.697, -7.752623
3915.625, -1.981913
3917.553, -8.997604
3919.482, -12.89286
3921.410, -7.270929
3923.339, -6.858375
3925.267, -11.01808
3927.196, -2.345884
3929.124, -0.6725981
3931.053, -2.818369
3932.981, -7.121726
3934.910, -6.250645
3936.838, -6.013270
3938.767, -6.808499
3940.695, -6.642782
3942.624, -6.715682
3944.552, -8.896310
3946.480, -11.35727
3948.409, -9.073157
3950.337, -3.110587
3952.266, -0.9258840
3954.194, -6.011686
3956.123, -6.574238
3958.051, -7.989967
3959.980, -11.00742
3961.908, -10.13808
3963.837, -6.641704
3965.765, -6.897876
3967.694, -3.760142
3969.622, -5.226786
3971.551, -8.560914
3973.479, -3.582454
3975.407, -7.368361
3977.336, -10.86517
3979.264, -5.914622
3981.193, -6.653307
3983.121, -11.37020
3985.050, -4.968842
3986.978, -3.674336
3988.907, -5.678314
3990.835, -3.734425
3992.764, -5.294593
3994.692, -5.995149
3996.621, -4.323965
3998.549, -3.728156
4000.478, -4.945510
4002.406, -7.873876
4004.334, -8.611574
4006.263, -3.911445
4008.191, 0.6323556
4010.120, 0.9019787
4012.048, -4.542794
4013.977, -2.097448
4015.905, -7.834209
4017.834, -2.768365
4019.762, -3.457854
4021.691, -7.216212
4023.619, -3.360203
4025.548, -5.045899
4027.476, -13.39767
4029.405, -7.868884
4031.333, -7.579222
4033.261, -12.41388
4035.190, -4.178069
4037.118, -9.671888
4039.047, -15.29084
4040.975, -14.40292
4042.904, -6.936785
4044.832, -10.15256
4046.761, -14.59290
4048.689, -9.036636
4050.618, -3.834958
4052.546, -6.419450
4054.475, -5.877450
4056.403, -5.920323
4058.332, -2.867270
4060.260, -8.172100
4062.188, -7.018163
4064.117, -0.6074079
4066.045, -5.154410
4067.974, -13.10754
4069.902, -10.40053
4071.831, -9.527375
4073.759, -10.45294
4075.688, -9.942134
4077.616, -10.69178
4079.545, -5.361931
4081.473, -5.801029
4083.402, -4.521863
4085.330, -3.699527
4087.259, -3.849524
4089.187, -8.601051
4091.115, -8.994948
4093.044, -4.915244
4094.972, -5.426639
4096.901, -3.499180
4098.829, -4.240385
4100.758, -4.343900
4102.687, -2.846412
4104.615, -4.635946
4106.543, -3.624042
4108.472, -1.206993
4110.400, -9.439646
4112.329, -3.737731
4114.257, -12.45333
4116.186, 0.1870526
4118.114, -13.06586
4120.042, -8.221990
4121.971, -7.263237
4123.899, -9.337897
4125.828, -8.570113
4127.756, -5.778634
4129.685, -10.05716
4131.613, -12.89872
4133.542, -4.558575
4135.470, -1.465600
4137.398, -12.10811
4139.327, -8.772881
4141.256, -6.886723
4143.184, -8.832619
4145.112, -7.448106
4147.041, -9.604371
4148.970, -7.021096
4150.898, -8.872787
4152.826, -6.539017
4154.755, -3.011694
4156.684, -3.006626
4158.612, -3.864616
4160.540, -8.596725
4162.469, -11.45244
4164.397, -2.941063
4166.326, -1.615645
4168.254, -8.818879
4170.183, -7.114563
4172.111, -7.805748
4174.040, -7.320292
4175.968, -13.03796
4177.896, -5.647681
4179.825, -3.096139
4181.753, -4.074792
4183.682, -7.744234
4185.610, -17.32081
4187.539, -10.18950
4189.467, -13.77157
4191.396, -19.48951
4193.324, -14.50112
4195.253, -7.919788
4197.181, -9.700766
4199.109, -10.44108
4201.038, -7.567239
4202.967, -5.019526
4204.895, -10.91265
4206.823, -10.50465
4208.752, -10.01483
4210.681, -20.95554
4212.609, -14.40868
4214.537, -9.115235
4216.466, -11.36780
4218.395, -0.9787842
4220.323, -9.602787
4222.251, -14.21353
4224.180, -6.765275
4226.108, -6.141632
4228.037, -4.500219
4229.965, -7.131347
4231.894, -7.665909
4233.822, -7.832951
4235.750, 1.584711
4237.679, -13.89555
4239.607, -8.468822
4241.536, -8.889140
4243.464, -6.228148
4245.393, -9.147959
4247.321, -14.22176
4249.250, -11.26763
4251.178, -9.075012
4253.106, -4.365475
4255.035, -7.627180
4256.964, -13.29719
4258.892, -11.79802
4260.820, -11.81220
4262.749, -12.50916
4264.678, -11.94361
4266.606, -9.351033
4268.534, -15.46306
4270.463, -12.75887
4272.392, -13.77105
4274.320, -6.652339
4276.248, -14.24676
4278.177, -18.23469
4280.105, -1.207751
4282.034, -5.698553
4283.962, -2.945638
4285.891, -10.59455
4287.819, -15.94791
4289.748, -13.35662
4291.676, -4.129310
4293.604, -13.73312
4295.533, -15.80791
4297.461, -4.433797
4299.390, -10.11405
4301.318, -3.605621
4303.247, -11.95093
4305.175, -9.286420
4307.104, -12.28409
4309.032, -15.11482
4310.961, -14.93986
4312.889, -15.54097
4314.817, -10.34509
4316.746, -5.953966
4318.675, -6.243888
4320.603, -10.53391
4322.531, -16.69379
4324.460, -14.71073
4326.389, -9.641679
4328.317, -7.460235
4330.245, -2.084226
4332.174, -9.436043
##END=



