##NAMES=Muirite
##RRUFFID=R120160
##IDEAL CHEMISTRY=Ba_10_Ca_2_Mn^2+^TiSi_10_O_30_(OH,Cl,F)_10_
##LOCALITY=Gun Claim, MacMillian Pass, Itsy Mts, Watson Lake Mining District, Yukon Territory, Canada
##OWNER=RRUFF
##SOURCE=Donald Doell
##DESCRIPTION=Orange-red massive, associated with colorless sanbornite with good cleavage, diopside, and witherite.
##STATUS=The identification of this mineral has been confirmed by single-crystal X-ray diffraction
##URL=https://www.rruff.net/odr/rruff_sample/R120160
##DIFFRACTION SAMPLE DESCRIPTION=Single crystal, powder profile is calculated
##CELL PARAMETERS=a: 14.019 b: 14.019 c: 5.6393 alpha: 90 beta: 90 gamma: 90 volume: 1108.3 crystal system: tetragonal
##FILETYPE=Raman Processed
##RAMAN WAVELENGTH=532

194.3226, 344.7336
196.2511, 362.0973
198.1795, 361.4884
200.1080, 362.1993
202.0365, 365.5490
203.9649, 368.9475
205.8934, 371.3644
207.8219, 372.5519
209.7503, 374.0052
211.6788, 376.5858
213.6073, 379.8459
215.5357, 382.3100
217.4642, 383.7188
219.3927, 384.4355
221.3211, 384.5615
223.2496, 383.0578
225.1781, 382.3267
227.1065, 382.6336
229.0350, 383.9157
230.9635, 385.8608
232.8919, 387.7653
234.8204, 390.7519
236.7489, 395.2604
238.6773, 401.0705
240.6058, 409.8194
242.5343, 421.5338
244.4627, 436.3877
246.3912, 455.5939
248.3197, 477.4574
250.2481, 504.7723
252.1766, 539.9950
254.1051, 582.6012
256.0335, 630.1595
257.9620, 685.9482
259.8905, 745.8838
261.8189, 804.3124
263.7474, 866.1522
265.6759, 919.8533
267.6043, 961.4343
269.5328, 991.6526
271.4613, 1003.022
273.3897, 991.2929
275.3182, 963.1805
277.2467, 923.8796
279.1751, 872.6519
281.1036, 817.5963
283.0321, 760.9462
284.9605, 703.8875
286.8890, 656.7414
288.8175, 620.4719
290.7459, 593.3580
292.6744, 573.9025
294.6029, 562.3088
296.5313, 554.6940
298.4598, 549.9013
300.3883, 546.9753
302.3167, 543.3405
304.2452, 538.7394
306.1737, 532.1304
308.1021, 523.3940
310.0306, 512.2363
311.9591, 500.0362
313.8875, 487.7316
315.8160, 475.4302
317.7445, 462.9447
319.6729, 450.0160
321.6014, 436.3932
323.5299, 421.7875
325.4583, 405.9296
327.3868, 390.3437
329.3153, 374.8242
331.2437, 360.5794
333.1722, 348.1528
335.1007, 338.0882
337.0291, 329.8315
338.9576, 323.0912
340.8861, 317.6698
342.8145, 312.8478
344.7430, 308.7961
346.6715, 306.1624
348.5999, 305.1368
350.5284, 306.4750
352.4569, 307.2711
354.3853, 306.7170
356.3138, 305.3014
358.2423, 303.8149
360.1707, 301.9991
362.0992, 301.4172
364.0277, 302.4353
365.9561, 305.3308
367.8846, 309.3350
369.8131, 314.6834
371.7415, 321.5806
373.6700, 329.9679
375.5985, 340.2261
377.5269, 350.5155
379.4554, 361.1937
381.3839, 371.2065
383.3123, 379.3185
385.2408, 385.4830
387.1693, 388.5117
389.0977, 388.1473
391.0262, 383.2030
392.9547, 376.1422
394.8831, 366.9590
396.8116, 357.7140
398.7401, 349.5582
400.6685, 342.5874
402.5970, 336.3042
404.5255, 330.4758
406.4539, 325.5624
408.3824, 322.2899
410.3109, 320.8310
412.2393, 319.7574
414.1678, 318.5724
416.0963, 316.8309
418.0247, 314.6007
419.9532, 311.7842
421.8817, 308.9106
423.8102, 306.2227
425.7386, 303.8885
427.6671, 302.0561
429.5956, 301.1646
431.5240, 300.8620
433.4525, 299.8665
435.3810, 297.1740
437.3094, 294.3132
439.2379, 291.8745
441.1664, 289.9038
443.0948, 287.9280
445.0233, 285.7278
446.9518, 284.2548
448.8802, 284.2309
450.8087, 285.5440
452.7372, 287.6344
454.6656, 290.6830
456.5941, 294.6874
458.5226, 299.4470
460.4510, 305.1919
462.3795, 310.4592
464.3080, 315.0301
466.2364, 318.7647
468.1649, 321.8370
470.0934, 323.9316
472.0218, 324.8393
473.9503, 324.3152
475.8788, 322.8555
477.8072, 321.6830
479.7357, 320.7684
481.6642, 320.2100
483.5926, 320.0392
485.5211, 320.0045
487.4496, 320.4228
489.3780, 321.5978
491.3065, 323.4658
493.2350, 325.1596
495.1634, 325.8524
497.0919, 327.2525
499.0204, 330.0742
500.9488, 334.6788
502.8773, 339.9521
504.8058, 345.4904
506.7342, 351.2614
508.6627, 357.6283
510.5912, 364.8343
512.5197, 372.1273
514.4481, 379.9959
516.3766, 387.4368
518.3051, 393.7407
520.2335, 399.6976
522.1620, 403.5518
524.0905, 404.7322
526.0189, 402.9196
527.9474, 399.0980
529.8759, 392.7153
531.8043, 384.9196
533.7328, 375.7209
535.6613, 365.2998
537.5897, 355.3530
539.5182, 345.5404
541.4467, 336.7948
543.3751, 329.4903
545.3036, 323.5951
547.2321, 319.0804
549.1605, 316.5498
551.0890, 314.8755
553.0175, 313.1118
554.9459, 311.5019
556.8744, 308.9646
558.8029, 305.0760
560.7313, 299.9321
562.6598, 294.0494
564.5883, 287.0150
566.5167, 280.3910
568.4452, 274.3685
570.3737, 268.7928
572.3021, 263.6049
574.2306, 258.5718
576.1591, 254.2313
578.0875, 250.9188
580.0160, 248.9093
581.9445, 246.7334
583.8729, 244.0715
585.8014, 241.3972
587.7299, 239.2027
589.6583, 237.4748
591.5868, 236.0723
593.5153, 235.1140
595.4437, 234.5051
597.3722, 233.9389
599.3007, 233.1373
601.2291, 232.5002
603.1576, 232.1511
605.0861, 232.1295
607.0145, 232.1331
608.9430, 232.0684
610.8715, 232.0718
612.7999, 232.2635
614.7284, 232.6233
616.6569, 233.0108
618.5853, 233.4099
620.5138, 233.8631
622.4423, 234.3303
624.3707, 234.7926
626.2992, 235.4617
628.2277, 236.2105
630.1561, 237.2608
632.0846, 238.7826
634.0131, 240.7441
635.9415, 242.9333
637.8700, 245.0046
639.7985, 247.6002
641.7269, 250.9450
643.6554, 254.3090
645.5839, 260.1656
647.5123, 268.4011
649.4408, 279.3297
651.3693, 293.2176
653.2977, 309.6901
655.2262, 329.7893
657.1547, 357.5349
659.0831, 389.0330
661.0116, 414.6718
662.9401, 435.9533
664.8685, 449.5430
666.7970, 450.5939
668.7255, 442.3761
670.6539, 436.0432
672.5824, 428.6328
674.5109, 428.5908
676.4393, 439.5805
678.3678, 461.6677
680.2963, 485.9640
682.2247, 519.8281
684.1532, 549.2127
686.0817, 569.7844
688.0101, 582.5714
689.9386, 579.7043
691.8671, 551.1710
693.7955, 512.7527
695.7240, 471.2842
697.6525, 422.4534
699.5809, 381.3676
701.5094, 348.6606
703.4379, 323.4938
705.3663, 305.6103
707.2948, 295.3784
709.2233, 287.5700
711.1517, 281.8283
713.0802, 277.4575
715.0087, 273.9951
716.9371, 271.6621
718.8656, 269.9095
720.7941, 268.9830
722.7225, 268.5153
724.6510, 268.1550
726.5795, 267.8694
728.5079, 267.7311
730.4364, 267.7820
732.3649, 268.0555
734.2933, 268.4080
736.2218, 268.7988
738.1503, 269.3844
740.0787, 270.4220
742.0072, 271.6079
743.9357, 272.5286
745.8641, 273.1754
747.7926, 273.3910
749.7211, 273.0270
751.6495, 272.3662
753.5780, 271.7326
755.5065, 270.8246
757.4349, 270.4682
759.3634, 271.1332
761.2919, 272.4490
763.2203, 273.9991
765.1488, 276.0884
767.0773, 277.9702
769.0057, 279.1696
770.9342, 279.9852
772.8627, 281.2951
774.7911, 283.2800
776.7196, 284.9578
778.6481, 286.2001
780.5765, 287.2701
782.5050, 287.5587
784.4335, 286.7992
786.3619, 285.0760
788.2904, 282.2737
790.2189, 278.7831
792.1473, 275.5093
794.0758, 272.1279
796.0043, 269.0440
797.9327, 266.7303
799.8612, 265.4607
801.7897, 264.8006
803.7181, 264.9362
805.6466, 265.1289
807.5751, 265.3351
809.5035, 265.8406
811.4320, 266.4931
813.3605, 267.1454
815.2889, 268.2091
817.2174, 269.8834
819.1459, 271.9462
821.0743, 274.5981
823.0028, 277.7687
824.9313, 281.8022
826.8597, 286.4283
828.7882, 292.1563
830.7167, 299.9322
832.6451, 309.5577
834.5736, 320.4910
836.5021, 332.3646
838.4305, 346.3854
840.3590, 362.4490
842.2875, 380.8062
844.2159, 399.3180
846.1444, 418.3385
848.0729, 438.3405
850.0013, 458.0130
851.9298, 477.5927
853.8583, 495.6810
855.7867, 511.8452
857.7152, 525.1627
859.6437, 536.2300
861.5721, 545.5242
863.5006, 552.3076
865.4291, 555.9954
867.3575, 557.0018
869.2860, 555.4991
871.2145, 550.2305
873.1429, 542.5112
875.0714, 532.9354
876.9999, 523.5999
878.9283, 514.0433
880.8568, 503.8272
882.7853, 494.1772
884.7137, 486.6839
886.6422, 479.7719
888.5707, 471.8116
890.4991, 463.0681
892.4276, 454.7343
894.3561, 447.1622
896.2845, 439.5006
898.2130, 430.5880
900.1415, 419.8908
902.0699, 409.1158
903.9984, 398.8504
905.9269, 390.1667
907.8553, 382.1503
909.7838, 373.6328
911.7123, 366.4082
913.6407, 361.5468
915.5692, 359.4375
917.4977, 358.2879
919.4261, 357.3812
921.3546, 356.9923
923.2831, 357.4367
925.2115, 358.4369
927.1400, 359.5472
929.0685, 360.6750
930.9969, 361.3342
932.9254, 361.5371
934.8539, 361.6405
936.7823, 361.5302
938.7108, 360.5191
940.6393, 359.4476
942.5677, 358.6881
944.4962, 358.3592
946.4247, 358.5165
948.3531, 358.1551
950.2816, 357.2159
952.2101, 356.1849
954.1385, 355.3973
956.0670, 354.4673
957.9955, 353.0074
959.9240, 352.0901
961.8524, 352.6963
963.7809, 354.0562
965.7094, 355.2285
967.6378, 355.8636
969.5663, 357.9542
971.4948, 361.5198
973.4232, 365.5014
975.3517, 369.1369
977.2802, 372.5439
979.2086, 376.6051
981.1371, 381.5055
983.0656, 387.0343
984.9940, 393.1787
986.9225, 400.5464
988.8510, 410.1212
990.7794, 422.1283
992.7079, 436.5254
994.6364, 454.3281
996.5648, 477.6247
998.4933, 507.2292
1000.422, 543.9699
1002.350, 590.4211
1004.279, 643.3508
1006.207, 698.0147
1008.136, 751.7962
1010.064, 800.2770
1011.993, 818.5335
1013.921, 805.7184
1015.849, 769.6927
1017.778, 718.5370
1019.706, 655.9261
1021.635, 603.8484
1023.563, 564.4107
1025.492, 536.7910
1027.420, 521.2098
1029.349, 515.8441
1031.277, 515.7614
1033.206, 519.7567
1035.134, 527.9895
1037.063, 539.5594
1038.991, 553.5657
1040.920, 567.7985
1042.848, 581.5621
1044.776, 594.1142
1046.705, 603.8179
1048.633, 609.5673
1050.562, 609.7752
1052.490, 603.9860
1054.419, 592.0013
1056.347, 574.5668
1058.276, 550.1532
1060.204, 518.8096
1062.133, 481.3718
1064.061, 444.6832
1065.990, 410.9754
1067.918, 382.7422
1069.847, 361.2292
1071.775, 346.5858
1073.703, 336.2264
1075.632, 330.1069
1077.560, 326.3756
1079.489, 323.9677
1081.417, 322.0753
1083.346, 319.8022
1085.274, 317.2376
1087.203, 315.8014
1089.131, 315.1255
1091.060, 313.9689
1092.988, 312.0374
1094.917, 309.6465
1096.845, 308.2706
1098.774, 307.4418
1100.702, 306.5370
1102.630, 305.9337
1104.559, 306.0269
1106.487, 305.8641
1108.416, 304.0365
1110.344, 301.6748
1112.273, 300.5387
1114.201, 300.5437
1116.130, 300.2965
1118.058, 299.1496
1119.987, 297.5949
1121.915, 296.8549
1123.844, 296.8647
1125.772, 296.7454
1127.701, 296.1547
1129.629, 295.5267
1131.557, 294.7797
1133.486, 293.8456
1135.414, 293.4640
1137.343, 294.0438
1139.271, 294.6266
1141.200, 294.3448
1143.128, 293.6662
1145.057, 293.9657
1146.985, 294.6693
1148.914, 294.5262
1150.842, 293.1983
1152.771, 292.2700
1154.699, 292.2010
1156.628, 292.1007
1158.556, 291.7843
1160.484, 291.3327
1162.413, 290.7993
1164.341, 289.7654
1166.270, 289.0502
1168.198, 289.3003
1170.127, 290.2767
1172.055, 290.9485
1173.984, 291.1468
1175.912, 291.4801
1177.841, 292.2211
1179.769, 292.5349
1181.698, 292.6048
1183.626, 292.5549
1185.555, 292.5053
1187.483, 292.0047
1189.411, 291.7588
1191.340, 292.2783
1193.268, 293.2903
1195.197, 294.1016
1197.125, 294.7045
1199.054, 295.2037
1200.982, 295.3350
1202.911, 294.8766
1204.839, 294.2234
1206.768, 293.7120
1208.696, 294.0255
1210.625, 295.5160
1212.553, 296.9033
1214.482, 297.8152
1216.410, 298.2403
1218.339, 298.2256
1220.267, 297.5713
1222.195, 297.1495
1224.124, 297.2773
1226.052, 297.5830
1227.981, 297.6154
1229.909, 297.4007
1231.838, 297.5487
1233.766, 298.5277
1235.695, 299.1107
1237.623, 298.9222
1239.552, 298.7562
1241.480, 299.5110
1243.409, 301.3719
1245.337, 302.5158
1247.266, 301.9464
1249.194, 301.1498
1251.122, 301.3673
1253.051, 302.3731
1254.979, 303.2926
1256.908, 304.1571
1258.836, 304.9548
1260.765, 305.5172
1262.693, 305.8307
1264.622, 306.0106
1266.550, 305.9370
1268.479, 306.4176
1270.407, 308.3502
1272.336, 309.7894
1274.264, 309.5663
1276.193, 308.2863
1278.121, 308.0101
1280.049, 309.1790
1281.978, 310.3566
1283.906, 311.0912
1285.835, 311.5168
1287.763, 312.2947
1289.692, 313.4478
1291.620, 314.2030
1293.549, 314.2403
1295.477, 314.2925
1297.406, 314.7664
1299.334, 315.1685
1301.263, 315.2238
1303.191, 314.9186
1305.120, 315.0682
1307.048, 316.0658
1308.976, 316.9010
1310.905, 317.4355
1312.833, 317.7178
1314.762, 317.7482
1316.690, 317.2093
1318.619, 317.3623
1320.547, 319.1417
1322.476, 320.7382
1324.404, 320.8307
1326.333, 319.9934
1328.261, 319.9199
1330.190, 320.8213
1332.118, 321.7161
1334.047, 322.5359
1335.975, 323.0768
1337.903, 323.1509
1339.832, 322.8734
1341.760, 322.6850
1343.689, 322.5364
1345.617, 322.5420
1347.546, 322.5566
1349.474, 322.8427
1351.403, 323.9277
1353.331, 326.0393
1355.260, 327.2057
1357.188, 326.3726
1359.117, 326.0285
1361.045, 327.2152
1362.974, 328.9203
1364.902, 329.7868
1366.830, 329.6402
1368.759, 329.5300
1370.687, 329.2297
1372.616, 329.1792
1374.544, 329.9052
1376.473, 330.8766
1378.401, 331.1427
1380.330, 330.6525
1382.258, 330.4810
1384.187, 331.2682
1386.115, 331.8246
1388.044, 331.0979
1389.972, 329.8927
1391.901, 329.7930
1393.829, 331.0316
1395.757, 332.1696
1397.686, 333.0870
1399.614, 333.6663
1401.543, 333.5521
1403.471, 333.1451
1405.400, 333.5523
1407.328, 335.6002
1409.257, 336.7067
1411.185, 336.1037
1413.114, 335.4130
1415.042, 335.4848
1416.971, 335.8373
1418.899, 335.5252
1420.828, 334.0853
1422.756, 333.5469
1424.684, 334.7821
1426.613, 336.1922
1428.541, 337.0859
1430.470, 337.4942
1432.398, 337.2775
1434.327, 336.1094
1436.255, 336.0378
1438.184, 338.4048
1440.112, 340.9497
1442.041, 342.1661
1443.969, 342.5570
1445.898, 343.2697
1447.826, 344.4180
1449.755, 345.1808
1451.683, 345.0476
1453.611, 344.8396
1455.540, 345.0486
1457.468, 345.6641
1459.397, 346.2126
1461.325, 346.4528
1463.254, 346.8882
1465.182, 348.0488
1467.111, 349.1918
1469.039, 349.7806
1470.968, 349.8515
1472.896, 350.0533
1474.825, 350.9601
1476.753, 351.5668
1478.682, 351.2433
1480.610, 351.0802
1482.538, 351.9432
1484.467, 353.2976
1486.395, 353.8654
1488.324, 353.2111
1490.252, 352.9040
1492.181, 352.9942
1494.109, 353.4029
1496.038, 354.2165
1497.966, 355.1927
1499.895, 356.0905
1501.823, 356.9433
1503.752, 357.6449
1505.680, 358.4067
1507.609, 358.8272
1509.537, 358.3039
1511.465, 357.7624
1513.394, 358.3900
1515.322, 359.9616
1517.251, 360.9983
1519.179, 361.3095
1521.108, 361.2376
1523.036, 360.2368
1524.965, 359.3560
1526.893, 359.6309
1528.822, 360.5984
1530.750, 360.6758
1532.679, 359.5684
1534.607, 358.7643
1536.536, 359.0423
1538.464, 359.4543
1540.392, 359.5905
1542.321, 359.5430
1544.249, 359.4185
1546.178, 358.9594
1548.106, 359.1763
1550.035, 360.6607
1551.963, 362.1964
1553.892, 363.3502
1555.820, 364.1302
1557.749, 364.5941
1559.677, 364.6115
1561.606, 364.7033
1563.534, 365.3136
1565.463, 365.6354
1567.391, 365.3258
1569.319, 364.9545
1571.248, 364.9346
1573.176, 365.1999
1575.105, 365.6171
1577.033, 366.0263
1578.962, 366.5588
1580.890, 367.4518
1582.819, 368.4934
1584.747, 369.7773
1586.676, 371.0714
1588.604, 371.9263
1590.533, 372.2418
1592.461, 372.2940
1594.390, 371.7766
1596.318, 371.4901
1598.246, 371.4229
1600.175, 371.6980
1602.103, 372.4872
1604.032, 373.7402
1605.960, 375.3081
1607.889, 377.4917
1609.817, 379.2272
1611.746, 380.4369
1613.674, 381.1391
1615.603, 380.8925
1617.531, 380.2937
1619.460, 380.7379
1621.388, 382.3194
1623.317, 383.8857
1625.245, 385.5427
1627.173, 386.8406
1629.102, 387.1592
1631.030, 387.2921
1632.959, 388.0269
1634.887, 389.2627
1636.816, 390.7526
1638.744, 392.7719
1640.673, 393.9676
1642.601, 393.4316
1644.530, 392.7903
1646.458, 393.0443
1648.387, 393.7809
1650.315, 394.3901
1652.244, 394.8669
1654.172, 395.0812
1656.100, 394.7554
1658.029, 394.7120
1659.957, 395.4413
1661.886, 396.2617
1663.814, 396.7433
1665.743, 396.9380
1667.671, 396.8339
1669.600, 396.4005
1671.528, 396.5727
1673.457, 398.1270
1675.385, 399.2524
1677.314, 398.4525
1679.242, 397.4337
1681.171, 398.0322
1683.099, 399.7360
1685.027, 400.4335
1686.956, 399.7321
1688.884, 399.3127
1690.813, 399.7118
1692.741, 400.1662
1694.670, 399.9243
1696.598, 399.7921
1698.527, 401.1966
1700.455, 403.8001
1702.384, 404.8386
1704.312, 403.6834
1706.241, 402.7149
1708.169, 402.4325
1710.098, 402.6705
1712.026, 403.5480
1713.954, 404.8315
1715.883, 406.4324
1717.811, 408.2748
1719.740, 409.1752
1721.668, 408.4679
1723.597, 408.5444
1725.525, 410.9434
1727.454, 413.1465
1729.382, 413.2693
1731.311, 412.2978
1733.239, 411.7192
1735.168, 411.5403
1737.096, 411.4877
1739.025, 411.8075
1740.953, 411.5849
1742.881, 409.9859
1744.810, 408.5045
1746.738, 407.9790
1748.667, 408.2342
1750.595, 409.2399
1752.524, 410.9143
1754.452, 412.0634
1756.381, 412.6323
1758.309, 412.5136
1760.238, 410.9798
1762.166, 409.5528
1764.095, 409.1851
1766.023, 409.3933
1767.952, 409.4993
1769.880, 409.4769
1771.808, 409.2325
1773.737, 408.3734
1775.665, 408.5099
1777.594, 411.4613
1779.522, 413.8439
1781.451, 413.4833
1783.379, 411.9624
1785.308, 411.3851
1787.236, 411.6164
1789.165, 411.3200
1791.093, 409.9463
1793.022, 409.7944
1794.950, 412.5896
1796.879, 414.9494
1798.807, 415.1213
1800.735, 414.5681
1802.664, 414.8144
1804.592, 415.7133
1806.521, 416.5189
1808.449, 417.3188
1810.378, 417.6382
1812.306, 416.2728
1814.235, 415.9712
1816.163, 419.0386
1818.092, 421.8634
1820.020, 420.7393
1821.949, 417.4095
1823.877, 416.5598
1825.806, 418.8813
1827.734, 420.1660
1829.662, 419.6373
1831.591, 419.4359
1833.519, 419.9451
1835.448, 420.7018
1837.376, 421.4260
1839.305, 422.2318
1841.233, 423.4118
1843.162, 424.8956
1845.090, 425.8129
1847.019, 426.0365
1848.947, 425.9337
1850.876, 425.3300
1852.804, 424.7260
1854.733, 423.9344
1856.661, 423.5731
1858.589, 424.3023
1860.518, 425.8299
1862.446, 427.4844
1864.375, 429.3099
1866.303, 430.3741
1868.232, 430.3837
1870.160, 430.1803
1872.089, 429.5227
1874.017, 429.2798
1875.946, 430.5804
1877.874, 432.0029
1879.803, 431.3923
1881.731, 429.5409
1883.660, 429.6657
1885.588, 432.0374
1887.516, 434.2139
1889.445, 435.9701
1891.373, 437.1939
1893.302, 437.5098
1895.230, 437.6800
1897.159, 438.3629
1899.087, 439.1318
1901.016, 439.1769
1902.944, 438.6563
1904.873, 438.6691
1906.801, 439.3673
1908.730, 440.0655
1910.658, 440.9733
1912.587, 441.4258
1914.515, 440.9322
1916.443, 440.2451
1918.372, 439.6796
1920.300, 439.4074
1922.229, 439.7610
1924.157, 440.7407
1926.086, 442.0350
1928.014, 444.2347
1929.943, 445.4742
1931.871, 445.4484
1933.800, 444.7625
1935.728, 442.5399
1937.657, 440.7822
1939.585, 441.5739
1941.514, 443.4520
1943.442, 443.7699
1945.371, 442.6443
1947.299, 441.4330
1949.228, 439.9742
1951.156, 439.5158
1953.084, 440.8562
1955.013, 441.8029
1956.941, 441.0648
1958.870, 440.3356
1960.798, 440.6911
1962.727, 441.7723
1964.655, 443.5589
1966.584, 445.6819
1968.512, 446.2066
1970.441, 444.7409
1972.369, 444.3497
1974.298, 446.0922
1976.226, 447.3799
1978.155, 447.0544
1980.083, 446.7635
1982.011, 447.9786
1983.940, 449.2426
1985.868, 448.1949
1987.797, 449.3920
1989.725, 450.1351
1991.654, 449.6974
1993.582, 451.6633
1995.511, 451.1091
1997.439, 450.6002
1999.368, 450.1737
2001.296, 450.0756
2003.225, 450.7759
2005.153, 451.4717
2007.082, 451.4503
2009.010, 451.1600
2010.938, 451.3297
2012.867, 451.9487
2014.795, 452.9107
2016.724, 454.2657
2018.652, 455.2511
2020.581, 455.5601
2022.509, 455.9459
2024.438, 456.7475
2026.366, 457.4589
2028.295, 457.6947
2030.223, 457.8146
2032.152, 457.9449
2034.080, 458.3196
2036.009, 458.7596
2037.937, 459.7393
2039.865, 459.6535
2041.794, 460.6453
2043.722, 460.5864
2045.651, 460.2281
2047.579, 461.2476
2049.508, 461.3963
2051.436, 461.4464
2053.365, 461.7260
2055.293, 462.1299
2057.222, 462.3761
2059.150, 462.7006
2061.079, 464.1931
2063.007, 466.6331
2064.936, 467.2834
2066.864, 465.7065
2068.792, 464.4615
2070.721, 463.8812
2072.649, 463.8920
2074.578, 465.1697
2076.506, 466.1031
2078.435, 465.1715
2080.363, 464.0504
2082.292, 464.7882
2084.220, 466.4185
2086.149, 466.7407
2088.077, 465.8207
2090.006, 465.2805
2091.934, 465.5201
2093.863, 464.8770
2095.791, 462.1315
2097.719, 461.1452
2099.648, 464.0503
2101.576, 466.5627
2103.505, 466.4200
2105.433, 465.7866
2107.362, 466.4642
2109.290, 467.5180
2111.219, 467.6259
2113.147, 467.0956
2115.076, 466.8775
2117.004, 466.9904
2118.933, 466.8946
2120.861, 466.3510
2122.790, 465.7850
2124.718, 464.4513
2126.646, 464.0331
2128.575, 466.3028
2130.503, 467.7883
2132.432, 465.8880
2134.360, 463.5447
2136.289, 463.8244
2138.217, 465.4684
2140.146, 465.8487
2142.074, 465.3649
2144.003, 466.1054
2145.931, 468.0786
2147.860, 468.9006
2149.788, 467.9569
2151.717, 467.2710
2153.645, 467.1390
2155.573, 467.4570
2157.502, 468.9781
2159.430, 470.0214
2161.359, 468.6701
2163.287, 467.5415
2165.216, 470.0137
2167.144, 469.5582
2169.073, 470.4417
2171.001, 472.1559
2172.930, 472.2807
2174.858, 474.6257
2176.787, 476.1893
2178.715, 476.6879
2180.644, 476.8961
2182.572, 476.7217
2184.500, 476.8950
2186.429, 478.0939
2188.357, 479.0938
2190.286, 479.1432
2192.214, 479.1576
2194.143, 479.9028
2196.071, 480.9036
2198.000, 481.7039
2199.928, 482.2150
2201.857, 482.0743
2203.785, 482.2897
2205.714, 482.0428
2207.642, 481.5195
2209.571, 481.2148
2211.499, 479.8508
2213.427, 479.0589
2215.356, 479.5097
2217.284, 479.6568
2219.213, 478.3741
2221.141, 477.4252
2223.070, 477.9031
2224.998, 478.5916
2226.927, 478.6613
2228.855, 478.3529
2230.784, 477.5987
2232.712, 476.8759
2234.641, 477.7735
2236.569, 477.6340
2238.498, 478.2157
2240.426, 479.4350
2242.354, 479.7314
2244.283, 482.1346
2246.211, 483.2917
2248.140, 482.2519
2250.068, 480.9445
2251.997, 479.0615
2253.925, 478.2298
2255.854, 480.0357
2257.782, 481.8266
2259.711, 481.7347
2261.639, 481.1612
2263.568, 481.2090
2265.496, 481.7370
2267.425, 482.8824
2269.353, 484.2764
2271.281, 484.9290
2273.210, 484.8729
2275.138, 483.8582
2277.067, 481.7952
2278.995, 481.1130
2280.924, 482.4583
2282.852, 483.7089
2284.781, 484.6953
2286.709, 485.3919
2288.638, 485.3606
2290.566, 485.5918
2292.495, 486.7810
2294.423, 487.8330
2296.352, 488.2552
2298.280, 488.3474
2300.208, 488.1603
2302.137, 487.9245
2304.065, 487.9939
2305.994, 488.1519
2307.922, 487.6011
2309.851, 488.2843
2311.779, 487.2598
2313.708, 489.5471
2315.636, 491.2907
2317.565, 492.5150
2319.493, 493.0112
2321.422, 492.5744
2323.350, 492.4214
2325.279, 492.7473
2327.207, 493.5676
2329.135, 495.5411
2331.064, 496.8641
2332.992, 496.2127
2334.921, 495.5088
2336.849, 495.5351
2338.778, 496.0194
2340.706, 496.9668
2342.635, 498.0329
2344.563, 499.0567
2346.492, 499.8557
2348.420, 499.6395
2350.349, 499.1159
2352.277, 500.2326
2354.206, 502.7758
2356.134, 505.6264
2358.063, 508.8405
2359.991, 510.1021
2361.919, 508.2638
2363.848, 507.7546
2365.776, 509.0560
2367.705, 510.5077
2369.633, 512.5256
2371.562, 513.3135
2373.490, 511.7127
2375.419, 510.7390
2377.347, 511.7313
2379.276, 513.2236
2381.204, 515.1090
2383.133, 516.4969
2385.061, 516.0890
2386.990, 515.7025
2388.918, 517.2947
2390.846, 519.5701
2392.775, 520.9743
2394.703, 521.8645
2396.632, 522.7882
2398.560, 523.7098
2400.489, 524.7616
2402.417, 525.7903
2404.346, 525.7532
2406.274, 524.6351
2408.203, 525.1405
2410.131, 527.8246
2412.060, 530.1573
2413.988, 532.2902
2415.917, 533.2672
2417.845, 532.3676
2419.773, 532.9035
2421.702, 536.1816
2423.630, 538.6606
2425.559, 538.5975
2427.487, 538.8347
2429.416, 540.1309
2431.344, 542.0286
2433.273, 544.9999
2435.201, 547.6894
2437.130, 549.1405
2439.058, 550.2728
2440.987, 552.0432
2442.915, 553.4061
2444.844, 552.5626
2446.772, 551.6155
2448.700, 554.0865
2450.629, 553.5985
2452.557, 557.9832
2454.486, 556.4738
2456.414, 558.3450
2458.343, 562.6008
2460.271, 564.3948
2462.200, 564.1625
2464.128, 564.8839
2466.057, 566.5501
2467.985, 567.5429
2469.914, 567.7048
2471.842, 567.8392
2473.771, 568.1484
2475.699, 568.0327
2477.627, 567.2468
2479.556, 567.2696
2481.484, 568.4545
2483.413, 569.6359
2485.341, 570.6161
2487.270, 571.3093
2489.198, 572.0787
2491.127, 571.8891
2493.055, 568.4264
2494.984, 567.1812
2496.912, 572.4538
2498.841, 576.7670
2500.769, 576.2778
2502.698, 575.4422
2504.626, 576.5544
2506.554, 578.3464
2508.483, 580.5955
2510.411, 582.3959
2512.340, 582.7603
2514.268, 582.6387
2516.197, 582.6478
2518.125, 583.1485
2520.054, 584.9582
2521.982, 587.2195
2523.911, 588.6464
2525.839, 589.5438
2527.768, 590.5327
2529.696, 591.4665
2531.625, 591.9802
2533.553, 592.2192
2535.481, 592.6104
2537.410, 593.1768
2539.338, 593.5620
2541.267, 593.9077
2543.195, 595.3546
2545.124, 596.2992
2547.052, 597.6453
2548.981, 599.3926
2550.909, 600.3533
2552.838, 602.4254
2554.766, 603.1395
2556.695, 602.3339
2558.623, 602.2858
2560.552, 603.4453
2562.480, 603.8937
2564.408, 602.9705
2566.337, 602.8812
2568.265, 604.2939
2570.194, 605.6572
2572.122, 606.9333
2574.051, 608.0023
2575.979, 608.7505
2577.908, 609.5046
2579.836, 610.3591
2581.765, 611.1143
2583.693, 612.4019
2585.622, 612.3879
2587.550, 608.9000
2589.479, 606.8829
2591.407, 608.5231
2593.335, 609.6228
2595.264, 608.6042
2597.192, 606.9586
2599.121, 605.5695
2601.049, 603.3957
2602.978, 598.9073
2604.906, 595.1453
2606.835, 594.1674
2608.763, 593.6180
2610.692, 593.0261
2612.620, 591.5714
2614.549, 587.8389
2616.477, 584.1976
2618.406, 582.2897
2620.334, 580.9064
2622.262, 579.5686
2624.191, 577.9473
2626.119, 575.4745
2628.048, 573.0566
2629.976, 570.8234
2631.905, 569.6219
2633.833, 571.0980
2635.762, 572.8975
2637.690, 572.7552
2639.619, 571.5427
2641.547, 569.9634
2643.476, 568.0920
2645.404, 565.6710
2647.333, 563.4872
2649.261, 562.5499
2651.189, 562.2781
2653.118, 561.9183
2655.046, 561.6912
2656.975, 561.6893
2658.903, 562.0834
2660.832, 564.2637
2662.760, 565.9827
2664.689, 563.3087
2666.617, 559.0599
2668.546, 557.4861
2670.474, 557.2786
2672.403, 555.9991
2674.331, 554.8439
2676.260, 556.5189
2678.188, 559.1036
2680.116, 559.6498
2682.045, 559.0391
2683.973, 558.4492
2685.902, 557.9479
2687.830, 557.6163
2689.759, 557.4779
2691.687, 557.8981
2693.616, 558.3370
2695.544, 557.2577
2697.473, 556.1089
2699.401, 558.5245
2701.330, 562.0898
2703.258, 561.7963
2705.187, 559.6209
2707.115, 559.2008
2709.043, 559.5312
2710.972, 558.4064
2712.900, 557.2090
2714.829, 558.9611
2716.757, 561.9850
2718.686, 563.4710
2720.614, 563.9142
2722.543, 564.2125
2724.471, 563.9727
2726.400, 561.5477
2728.328, 558.9931
2730.257, 560.0597
2732.185, 562.7884
2734.114, 564.4671
2736.042, 565.4630
2737.970, 566.2513
2739.899, 566.8652
2741.827, 567.4355
2743.756, 567.7818
2745.684, 567.3400
2747.613, 566.7678
2749.541, 566.6857
2751.470, 567.1477
2753.398, 569.0675
2755.327, 570.6434
2757.255, 569.3535
2759.184, 567.3655
2761.112, 567.1553
2763.041, 567.3973
2764.969, 566.5664
2766.897, 565.7836
2768.826, 565.9371
2770.754, 566.5891
2772.683, 567.5134
2774.611, 568.4749
2776.540, 569.1299
2778.468, 569.8273
2780.397, 571.1131
2782.325, 572.0093
2784.254, 571.3156
2786.182, 570.7902
2788.111, 572.1202
2790.039, 573.2757
2791.968, 573.3779
2793.896, 572.7190
2795.824, 570.8026
2797.753, 569.3489
2799.681, 569.4744
2801.610, 569.8147
2803.538, 569.2789
2805.467, 569.6441
2807.395, 571.6913
2809.324, 573.9425
2811.252, 576.8211
2813.181, 577.7675
2815.109, 573.9868
2817.038, 571.9160
2818.966, 573.9247
2820.895, 574.4502
2822.823, 571.9128
2824.751, 570.3558
2826.680, 570.9481
2828.608, 571.9615
2830.537, 572.9411
2832.465, 575.2006
2834.394, 579.2707
2836.322, 581.0612
2838.251, 579.7249
2840.179, 578.8849
2842.108, 578.9341
2844.036, 579.4325
2845.965, 580.4815
2847.893, 580.6529
2849.822, 579.9564
2851.750, 579.6944
2853.678, 579.8571
2855.607, 579.5344
2857.535, 578.7964
2859.464, 578.6544
2861.392, 578.9769
2863.321, 579.1293
2865.249, 579.2328
2867.178, 579.5504
2869.106, 580.0458
2871.035, 580.4076
2872.963, 580.8710
2874.892, 582.3862
2876.820, 583.8552
2878.749, 583.1866
2880.677, 582.1740
2882.605, 583.2649
2884.534, 585.0959
2886.462, 587.1693
2888.391, 588.2274
2890.319, 586.1201
2892.248, 584.2506
2894.176, 585.3394
2896.105, 586.8224
2898.033, 587.6253
2899.962, 587.9701
2901.890, 587.5875
2903.819, 587.4975
2905.747, 588.4235
2907.676, 589.0775
2909.604, 589.1737
2911.532, 588.7275
2913.461, 587.1122
2915.389, 587.8869
2917.318, 588.7393
2919.246, 588.8945
2921.175, 590.1805
2923.103, 590.7900
2925.032, 592.2357
2926.960, 593.4227
2928.889, 594.1075
2930.817, 594.0436
2932.746, 593.2838
2934.674, 592.5316
2936.603, 591.9091
2938.531, 592.2070
2940.459, 591.6558
2942.388, 592.5172
2944.316, 591.6946
2946.245, 592.0124
2948.173, 592.8304
2950.102, 593.2181
2952.030, 593.6271
2953.959, 594.6278
2955.887, 595.6873
2957.816, 596.5135
2959.744, 596.9342
2961.673, 596.3760
2963.601, 596.2637
2965.530, 598.2369
2967.458, 599.2299
2969.386, 597.4568
2971.315, 596.2160
2973.243, 596.2405
2975.172, 596.2038
2977.100, 595.4742
2979.029, 596.0596
2980.957, 598.6370
2982.886, 599.3918
2984.814, 598.2073
2986.743, 597.6106
2988.671, 597.6994
2990.600, 598.1609
2992.528, 598.7675
2994.457, 597.6985
2996.385, 595.9745
2998.313, 596.3129
3000.242, 595.6124
3002.170, 597.8699
3004.099, 599.2960
3006.027, 599.9348
3007.956, 597.4294
3009.884, 598.9841
3011.813, 598.9117
3013.741, 598.7726
3015.670, 600.8989
3017.598, 598.8507
3019.527, 600.9412
3021.455, 601.3794
3023.384, 602.5739
3025.312, 602.1310
3027.240, 602.1937
3029.169, 603.8944
3031.097, 604.6881
3033.026, 604.0569
3034.954, 605.2993
3036.883, 603.1941
3038.811, 604.0264
3040.740, 606.1264
3042.668, 605.5773
3044.597, 606.8498
3046.525, 607.4285
3048.454, 604.8549
3050.382, 607.7634
3052.311, 608.3013
3054.239, 606.4044
3056.167, 609.1252
3058.096, 607.5641
3060.024, 607.5313
3061.953, 608.6489
3063.881, 608.5673
3065.810, 610.3762
3067.738, 610.3638
3069.667, 610.1888
3071.595, 610.7238
3073.524, 610.7707
3075.452, 610.7001
3077.381, 610.7453
3079.309, 610.3553
3081.238, 609.9280
3083.166, 611.9893
3085.094, 614.7559
3087.023, 615.0456
3088.951, 613.8168
3090.880, 610.8206
3092.808, 608.8182
3094.737, 611.2022
3096.665, 613.4438
3098.594, 612.8707
3100.522, 612.4370
3102.451, 613.1986
3104.379, 613.9244
3106.308, 614.4860
3108.236, 614.4547
3110.165, 614.9481
3112.093, 613.7722
3114.021, 615.2689
3115.950, 615.9913
3117.878, 615.9787
3119.807, 614.7590
3121.735, 613.4675
3123.664, 614.8974
3125.592, 616.8085
3127.521, 616.5341
3129.449, 615.7791
3131.378, 615.1476
3133.306, 615.2006
3135.235, 616.1318
3137.163, 617.9294
3139.092, 617.5088
3141.020, 618.0776
3142.948, 618.6123
3144.877, 618.2193
3146.805, 621.0060
3148.734, 622.1313
3150.662, 621.7557
3152.591, 621.2016
3154.519, 620.6024
3156.448, 619.6453
3158.376, 619.4904
3160.305, 622.5151
3162.233, 625.1821
3164.162, 623.4573
3166.090, 623.1169
3168.019, 627.2780
3169.947, 629.5013
3171.875, 626.1091
3173.804, 625.2943
3175.732, 627.8702
3177.661, 628.1388
3179.589, 626.2014
3181.518, 624.9666
3183.446, 624.4983
3185.375, 624.9276
3187.303, 625.8383
3189.232, 626.3563
3191.160, 627.2418
3193.089, 629.6711
3195.017, 631.8206
3196.946, 633.1224
3198.874, 633.3528
3200.802, 631.5763
3202.731, 631.1835
3204.659, 632.7269
3206.588, 633.8409
3208.516, 634.4083
3210.445, 634.2979
3212.373, 633.8356
3214.302, 634.3076
3216.230, 635.1174
3218.159, 635.2778
3220.087, 635.4954
3222.016, 637.3525
3223.944, 637.6728
3225.873, 633.9290
3227.801, 632.0469
3229.729, 634.2540
3231.658, 637.0961
3233.586, 640.5615
3235.515, 641.9403
3237.443, 641.5646
3239.372, 641.5377
3241.300, 642.0637
3243.229, 643.7592
3245.157, 645.9776
3247.086, 648.4283
3249.014, 650.2352
3250.943, 650.8699
3252.871, 650.3575
3254.800, 648.3701
3256.728, 647.0002
3258.656, 647.0179
3260.585, 646.9315
3262.513, 646.7982
3264.442, 646.4557
3266.370, 646.4057
3268.299, 648.6583
3270.227, 651.1842
3272.156, 650.6122
3274.084, 649.5486
3276.013, 649.4247
3277.941, 649.8834
3279.870, 651.5981
3281.798, 651.7649
3283.727, 653.1305
3285.655, 654.0131
3287.583, 654.8643
3289.512, 656.1467
3291.440, 655.7371
3293.369, 657.4029
3295.297, 659.2295
3297.226, 658.3673
3299.154, 657.2938
3301.083, 657.2072
3303.011, 657.8875
3304.940, 660.0338
3306.868, 661.2435
3308.797, 661.3388
3310.725, 661.4489
3312.654, 661.7020
3314.582, 662.2623
3316.510, 663.0828
3318.439, 664.3083
3320.367, 665.3215
3322.296, 664.6884
3324.224, 665.1215
3326.153, 668.6598
3328.081, 671.6089
3330.010, 673.2332
3331.938, 674.2219
3333.867, 674.6431
3335.795, 674.3575
3337.724, 673.9355
3339.652, 675.2451
3341.581, 677.2802
3343.509, 679.0766
3345.438, 680.5071
3347.366, 681.3972
3349.294, 682.3158
3351.223, 683.4894
3353.151, 685.0352
3355.080, 687.0000
3357.008, 687.3008
3358.937, 687.0219
3360.865, 692.7619
3362.794, 699.9581
3364.722, 702.0160
3366.651, 702.5403
3368.579, 703.4945
3370.508, 704.6289
3372.436, 705.4694
3374.365, 708.5198
3376.293, 710.0466
3378.221, 716.7880
3380.150, 715.7942
3382.078, 719.4877
3384.007, 724.7896
3385.935, 726.4398
3387.864, 728.5363
3389.792, 734.1170
3391.721, 739.6620
3393.649, 743.7567
3395.578, 748.0533
3397.506, 752.6495
3399.435, 758.2833
3401.363, 765.1586
3403.292, 774.9824
3405.220, 785.3959
3407.148, 794.1271
3409.077, 801.0838
3411.005, 806.4228
3412.934, 809.0028
3414.862, 808.4632
3416.791, 806.1119
3418.719, 802.1656
3420.648, 795.1442
3422.576, 786.5609
3424.505, 779.5689
3426.433, 773.3651
3428.362, 767.2504
3430.290, 761.4581
3432.219, 755.9557
3434.147, 750.9119
3436.075, 746.2269
3438.004, 742.0605
3439.932, 738.5727
3441.861, 736.6741
3443.789, 735.5151
3445.718, 734.4343
3447.646, 732.6146
3449.575, 728.2984
3451.503, 726.0634
3453.432, 727.3556
3455.360, 727.8321
3457.289, 727.2538
3459.217, 727.5301
3461.146, 728.1068
3463.074, 727.7048
3465.002, 726.9445
3466.931, 726.7682
3468.859, 725.3868
3470.788, 725.4398
3472.716, 720.7883
3474.645, 724.2255
3476.573, 723.7151
3478.502, 721.2028
3480.430, 724.7167
3482.359, 722.3607
3484.287, 724.7510
3486.216, 721.0184
3488.144, 719.4368
3490.073, 719.1342
3492.001, 720.2316
3493.929, 719.9483
3495.858, 718.6212
3497.786, 717.1390
3499.715, 716.2580
3501.643, 717.5348
3503.572, 719.0255
3505.500, 721.3053
3507.429, 719.5204
3509.357, 712.6306
3511.286, 710.1568
3513.214, 711.5634
3515.143, 714.1273
3517.071, 716.8681
3519.000, 719.1168
3520.928, 720.1563
3522.856, 720.7911
3524.785, 718.3119
3526.713, 719.2997
3528.642, 717.5580
3530.570, 714.2606
3532.499, 713.6491
3534.427, 714.9841
3536.356, 718.5105
3538.284, 721.4077
3540.213, 723.2120
3542.141, 720.7496
3544.070, 723.1657
3545.998, 722.3894
3547.927, 723.1926
3549.855, 722.5953
3551.783, 722.5806
3553.712, 721.3367
3555.640, 722.2756
3557.569, 721.8383
3559.497, 721.4756
3561.426, 721.3475
3563.354, 721.0239
3565.283, 722.4877
3567.211, 720.6315
3569.140, 719.7288
3571.068, 719.5185
3572.997, 725.2028
3574.925, 719.4581
3576.854, 717.2839
3578.782, 718.9080
3580.710, 725.9749
3582.639, 732.5353
3584.567, 728.4827
3586.496, 725.0045
3588.424, 727.3168
3590.353, 729.0234
3592.281, 728.9324
3594.210, 729.5302
3596.138, 730.3704
3598.067, 730.1552
3599.995, 729.8923
3601.924, 730.7462
3603.852, 730.9982
3605.781, 731.4325
3607.709, 732.1447
3609.637, 732.1262
3611.566, 732.6475
3613.494, 732.2053
3615.423, 730.7108
3617.351, 731.0579
3619.280, 736.3489
3621.208, 738.2296
3623.137, 735.8591
3625.065, 734.5702
3626.994, 734.4154
3628.922, 735.3477
3630.851, 736.9294
3632.779, 737.1113
3634.708, 737.9769
3636.636, 738.8333
3638.564, 738.9669
3640.493, 740.5145
3642.421, 741.1913
3644.350, 741.1541
3646.278, 740.0358
3648.207, 739.5679
3650.135, 740.9531
3652.064, 741.7870
3653.992, 742.2427
3655.921, 745.1227
3657.849, 747.8101
3659.778, 744.4626
3661.706, 741.8837
3663.635, 744.6671
3665.563, 745.5064
3667.491, 744.0118
3669.420, 745.1064
3671.348, 747.4761
3673.277, 749.1516
3675.205, 749.3201
3677.134, 746.7714
3679.062, 744.0863
3680.991, 741.6078
3682.919, 742.5378
3684.848, 745.2540
3686.776, 744.7079
3688.705, 744.6391
3690.633, 749.0244
3692.562, 751.1746
3694.490, 749.6884
3696.418, 749.1646
3698.347, 748.9894
3700.275, 745.5485
3702.204, 743.0596
3704.132, 745.9710
3706.061, 747.6455
3707.989, 746.4045
3709.918, 745.1443
3711.846, 744.1998
3713.775, 744.3589
3715.703, 744.8548
3717.632, 745.3491
3719.560, 745.0983
3721.489, 743.6659
3723.417, 743.2435
3725.345, 743.7655
3727.274, 744.4716
3729.202, 745.9846
3731.131, 745.8987
3733.059, 746.0215
3734.988, 746.8254
3736.916, 747.1656
3738.845, 747.4539
3740.773, 748.7711
3742.702, 749.9081
3744.630, 751.2327
3746.559, 751.8145
3748.487, 752.8386
3750.416, 752.2281
3752.344, 754.0452
3754.272, 753.7334
3756.201, 753.5147
3758.129, 755.1605
3760.058, 756.0450
3761.986, 755.5094
3763.915, 755.9531
3765.843, 756.9207
3767.772, 757.5026
3769.700, 757.8154
3771.629, 758.0693
3773.557, 757.3468
3775.486, 755.4522
3777.414, 755.5423
3779.343, 756.6063
3781.271, 757.3759
3783.199, 757.7624
3785.128, 757.8063
3787.056, 756.7939
3788.985, 755.0529
3790.913, 758.1925
3792.842, 762.7575
3794.770, 765.7913
3796.699, 765.8709
3798.627, 761.9595
3800.556, 761.2610
3802.484, 763.0985
3804.413, 762.3097
3806.341, 761.2947
3808.270, 762.1557
3810.198, 763.4139
3812.126, 764.8468
3814.055, 764.4935
3815.983, 763.5314
3817.912, 765.2576
3819.840, 766.9071
3821.769, 766.2402
3823.697, 767.5511
3825.626, 771.0579
3827.554, 773.2194
3829.483, 774.1142
3831.411, 773.4910
3833.340, 772.5629
3835.268, 771.5332
3837.197, 771.8547
3839.125, 773.2034
3841.053, 774.4463
3842.982, 774.9749
3844.910, 773.3683
3846.839, 773.5399
3848.767, 775.8397
3850.696, 778.5925
3852.624, 780.5467
3854.553, 781.3277
3856.481, 782.4836
3858.410, 781.6611
3860.338, 783.4045
3862.267, 782.7401
3864.195, 783.5665
3866.124, 784.0880
3868.052, 781.8458
3869.980, 781.1191
3871.909, 783.0546
3873.837, 783.6248
3875.766, 784.5596
3877.694, 785.9518
3879.623, 786.2814
3881.551, 789.1619
3883.480, 788.5653
3885.408, 791.8578
3887.337, 795.7927
3889.265, 799.0840
3891.194, 800.4141
3893.122, 802.2365
3895.051, 804.6468
3896.979, 805.0161
3898.907, 804.6155
3900.836, 805.8221
3902.764, 806.9474
3904.693, 806.8627
3906.621, 808.6270
3908.550, 809.7323
3910.478, 812.0624
3912.407, 812.9951
3914.335, 814.2628
3916.264, 816.2753
3918.192, 819.6603
3920.121, 818.6957
3922.049, 816.5966
3923.978, 818.1103
3925.906, 820.9299
3927.834, 824.6002
3929.763, 826.8847
3931.691, 828.6259
3933.620, 829.6623
3935.548, 828.9692
3937.477, 828.6364
3939.405, 830.4738
3941.334, 831.9554
3943.262, 834.5732
3945.191, 836.8962
3947.119, 835.9030
3949.048, 837.1544
3950.976, 839.3251
3952.905, 840.7833
3954.833, 843.2008
3956.761, 846.4105
3958.690, 847.8859
3960.618, 846.9863
3962.547, 846.7846
3964.475, 849.1345
3966.404, 849.6545
3968.332, 853.7627
3970.261, 853.7874
3972.189, 856.7722
3974.118, 860.1306
3976.046, 862.3317
3977.975, 864.4717
3979.903, 866.6647
3981.832, 867.6602
3983.760, 867.1143
3985.688, 866.3058
3987.617, 867.1174
3989.545, 868.4189
3991.474, 868.5325
3993.402, 869.3017
3995.331, 873.0273
3997.259, 875.4932
3999.188, 875.5577
4001.116, 878.5169
4003.045, 879.2759
4004.973, 880.4852
4006.902, 882.0645
4008.830, 883.1292
4010.759, 885.7023
4012.687, 887.9297
4014.615, 889.6687
4016.544, 890.5602
4018.472, 892.2277
4020.401, 893.7618
4022.329, 894.7303
4024.258, 897.3361
4026.186, 899.0020
4028.115, 901.5071
4030.043, 903.4531
4031.972, 903.4265
4033.900, 904.0966
4035.829, 905.5262
4037.757, 906.1765
4039.686, 908.1651
4041.614, 911.7791
4043.542, 912.3203
4045.471, 912.3438
4047.399, 917.0844
4049.328, 919.6661
4051.256, 919.2786
4053.185, 917.7823
4055.113, 916.5878
4057.042, 922.7999
4058.970, 927.5059
4060.899, 926.4442
4062.827, 926.6533
4064.756, 928.8268
4066.684, 933.2902
4068.613, 936.4190
4070.541, 936.7048
4072.469, 934.7421
4074.398, 932.6267
4076.326, 935.6688
4078.255, 939.6686
4080.183, 941.7850
4082.112, 943.5477
4084.040, 946.0446
4085.969, 950.7797
4087.897, 954.2084
4089.826, 954.9086
4091.754, 955.7483
4093.683, 957.0507
4095.611, 958.7737
4097.540, 961.6956
4099.468, 963.7175
4101.396, 966.1221
4103.325, 968.8229
4105.253, 970.6975
4107.182, 972.7948
4109.110, 974.5487
4111.039, 977.1973
4112.967, 980.7122
4114.896, 984.3900
4116.824, 987.0624
4118.753, 990.0589
4120.681, 990.7709
4122.610, 995.0202
4124.538, 996.9089
4126.467, 998.8484
4128.395, 1004.650
4130.324, 1006.348
4132.252, 1004.485
4134.181, 1007.860
4136.109, 1011.564
4138.038, 1013.045
4139.966, 1014.772
4141.895, 1016.869
4143.823, 1021.612
4145.751, 1026.424
4147.680, 1029.372
4149.608, 1033.422
4151.537, 1037.694
4153.465, 1042.451
4155.394, 1047.253
4157.322, 1050.061
4159.250, 1052.149
4161.179, 1054.320
4163.107, 1058.370
4165.036, 1063.410
4166.964, 1066.658
4168.893, 1070.367
4170.821, 1074.562
4172.750, 1073.368
4174.678, 1074.926
4176.607, 1085.951
4178.535, 1094.343
4180.464, 1099.819
4182.392, 1103.982
4184.321, 1109.143
4186.249, 1116.430
4188.178, 1121.566
4190.106, 1125.924
4192.035, 1132.791
4193.963, 1140.216
4195.892, 1147.994
4197.820, 1150.427
4199.749, 1150.310
4201.677, 1155.936
4203.605, 1161.820
4205.534, 1165.250
4207.462, 1171.331
4209.391, 1179.154
4211.319, 1184.231
4213.248, 1189.344
4215.176, 1195.609
4217.104, 1201.428
4219.033, 1206.690
4220.961, 1211.330
4222.890, 1217.583
4224.818, 1222.771
4226.747, 1229.488
4228.675, 1233.642
4230.604, 1240.555
4232.532, 1245.191
4234.461, 1247.494
4236.389, 1252.629
4238.318, 1257.992
4240.246, 1261.227
4242.175, 1263.841
4244.103, 1266.470
4246.032, 1271.351
4247.960, 1276.878
4249.889, 1283.406
4251.817, 1288.180
4253.746, 1291.004
4255.674, 1294.903
4257.603, 1297.538
4259.531, 1299.139
4261.459, 1301.900
4263.388, 1302.479
4265.316, 1303.748
4267.245, 1306.415
4269.173, 1310.560
4271.102, 1314.366
4273.030, 1317.428
4274.958, 1322.000
4276.887, 1325.328
4278.815, 1329.489
4280.744, 1332.121
4282.672, 1333.429
4284.601, 1335.438
4286.529, 1338.802
4288.458, 1343.327
4290.386, 1349.697
4292.315, 1354.500
4294.243, 1356.070
4296.172, 1355.350
4298.100, 1354.545
4300.029, 1359.036
4301.957, 1362.111
4303.886, 1361.966
4305.814, 1369.425
4307.743, 1369.492
4309.671, 1374.638
4311.600, 1373.689
4313.528, 1375.700
4315.457, 1378.945
4317.385, 1382.144
4319.313, 1384.875
4321.242, 1385.140
4323.170, 1385.066
4325.099, 1390.888
4327.027, 1397.737
4328.956, 1403.849
4330.884, 1405.498
4332.813, 1405.915
4334.741, 1409.960
4336.669, 1413.176
4338.598, 1414.951
4340.526, 1418.911
4342.455, 1415.934
4344.383, 1424.458
4346.312, 1429.215
4348.240, 1430.096
4350.169, 1426.795
4352.097, 1426.903
4354.026, 1433.123
4355.954, 1437.787
4357.883, 1440.787
4359.811, 1441.691
4361.740, 1442.140
4363.668, 1442.748
4365.597, 1444.934
4367.525, 1449.355
4369.454, 1458.375
4371.382, 1461.646
4373.311, 1461.120
4375.239, 1459.262
4377.167, 1459.325
4379.096, 1460.013
4381.024, 1460.602
4382.953, 1463.312
4384.881, 1464.878
4386.810, 1468.141
4388.738, 1473.044
4390.667, 1481.566
4392.595, 1487.021
4394.523, 1487.629
4396.452, 1484.993
4398.380, 1482.209
4400.309, 1481.468
4402.237, 1484.197
4404.166, 1489.012
4406.094, 1491.990
4408.023, 1492.336
4409.951, 1489.620
4411.880, 1500.700
4413.808, 1497.765
4415.737, 1505.826
4417.665, 1502.200
4419.594, 1504.273
4421.522, 1511.264
4423.451, 1517.132
4425.379, 1517.456
4427.308, 1521.773
4429.236, 1526.156
4431.165, 1523.896
4433.093, 1524.107
4435.021, 1527.239
4436.950, 1525.901
4438.878, 1526.085
4440.807, 1530.745
4442.735, 1534.559
4444.664, 1537.006
4446.592, 1541.072
4448.521, 1539.863
4450.449, 1546.784
4452.377, 1545.473
4454.306, 1545.998
4456.234, 1553.736
4458.163, 1553.199
4460.091, 1552.433
4462.020, 1565.100
4463.948, 1573.266
4465.877, 1575.232
4467.805, 1581.769
4469.734, 1582.631
4471.662, 1584.404
4473.591, 1584.155
4475.519, 1580.019
4477.448, 1582.176
4479.376, 1583.398
4481.305, 1584.719
4483.233, 1594.151
4485.162, 1600.828
4487.090, 1601.952
4489.019, 1601.480
4490.947, 1602.657
4492.875, 1609.524
4494.804, 1613.412
4496.732, 1615.859
4498.661, 1622.086
4500.589, 1624.445
4502.518, 1626.386
4504.446, 1625.386
4506.375, 1628.624
4508.303, 1628.462
4510.231, 1628.995
4512.160, 1630.999
4514.088, 1628.428
4516.017, 1641.428
4517.945, 1650.186
4519.874, 1654.933
4521.802, 1643.649
4523.731, 1653.066
4525.659, 1654.186
4527.588, 1654.967
4529.516, 1667.296
4531.445, 1658.345
4533.373, 1670.490
4535.302, 1674.215
4537.230, 1681.793
4539.159, 1681.026
4541.087, 1682.835
4543.016, 1692.995
4544.944, 1698.530
4546.873, 1696.803
4548.801, 1704.625
4550.729, 1695.382
4552.658, 1701.116
4554.586, 1713.309
4556.515, 1712.002
4558.443, 1719.977
4560.372, 1724.418
4562.300, 1712.786
4564.229, 1729.104
4566.157, 1733.335
4568.085, 1725.154
4570.014, 1740.515
4571.942, 1734.046
4573.871, 1735.370
4575.799, 1742.555
4577.728, 1743.630
4579.656, 1754.340
4581.585, 1755.768
4583.513, 1756.365
4585.442, 1760.582
4587.370, 1761.461
4589.299, 1767.532
4591.227, 1767.522
4593.156, 1773.974
4595.084, 1781.891
4597.013, 1778.594
4598.941, 1787.168
4600.870, 1777.332
4602.798, 1782.900
4604.727, 1786.811
4606.655, 1800.567
4608.583, 1790.819
4610.512, 1795.961
4612.440, 1807.440
4614.369, 1810.051
4616.297, 1816.369
4618.226, 1811.710
4620.154, 1817.362
4622.083, 1820.174
4624.011, 1832.808
4625.939, 1837.686
4627.868, 1840.911
4629.796, 1837.706
4631.725, 1836.678
4633.653, 1840.669
4635.582, 1850.971
4637.510, 1856.475
4639.439, 1859.315
4641.367, 1860.376
4643.296, 1862.651
4645.224, 1864.113
4647.153, 1861.578
4649.081, 1864.268
4651.010, 1870.697
4652.938, 1876.018
4654.867, 1880.462
4656.795, 1883.754
4658.724, 1883.222
4660.652, 1887.078
4662.581, 1896.596
4664.509, 1897.816
4666.438, 1898.242
4668.366, 1902.071
4670.294, 1901.911
4672.223, 1902.498
4674.151, 1909.932
4676.080, 1911.832
4678.008, 1911.332
4679.937, 1913.052
4681.865, 1916.140
4683.793, 1919.986
4685.722, 1923.060
4687.650, 1929.615
4689.579, 1938.184
4691.507, 1935.646
4693.436, 1934.540
4695.364, 1938.513
4697.293, 1945.181
4699.221, 1949.490
4701.150, 1948.847
4703.078, 1949.994
4705.007, 1953.578
4706.935, 1961.347
4708.864, 1964.033
4710.792, 1964.692
4712.721, 1965.812
4714.649, 1974.080
4716.578, 1983.530
4718.506, 1982.022
4720.435, 1983.919
4722.363, 1988.640
4724.292, 1989.193
4726.220, 1991.298
4728.148, 1995.766
4730.077, 2002.208
4732.005, 2006.668
4733.934, 2008.181
4735.862, 2006.848
4737.791, 2010.039
4739.719, 2020.415
4741.647, 2028.239
4743.576, 2031.916
4745.504, 2030.611
4747.433, 2030.149
4749.361, 2030.641
4751.290, 2031.762
4753.218, 2036.162
4755.147, 2044.761
4757.075, 2060.217
4759.004, 2065.128
4760.932, 2065.327
4762.861, 2071.617
4764.789, 2075.913
4766.718, 2077.926
4768.646, 2078.478
4770.575, 2079.167
4772.503, 2080.748
4774.432, 2084.321
4776.360, 2088.429
4778.289, 2093.109
4780.217, 2098.783
4782.146, 2107.187
4784.074, 2117.567
4786.002, 2127.604
4787.931, 2132.343
4789.859, 2131.290
4791.788, 2134.037
4793.716, 2136.602
4795.645, 2138.313
4797.573, 2150.955
4799.501, 2157.856
4801.430, 2150.279
4803.358, 2151.431
4805.287, 2155.528
4807.215, 2159.601
4809.144, 2162.031
4811.072, 2165.399
4813.001, 2171.374
4814.929, 2180.295
4816.858, 2188.497
4818.786, 2192.810
4820.715, 2199.267
4822.643, 2207.050
4824.572, 2217.184
4826.500, 2211.099
4828.429, 2206.773
4830.357, 2225.415
4832.286, 2224.546
4834.214, 2218.369
4836.143, 2225.807
4838.071, 2230.380
4840.000, 2232.366
4841.928, 2232.677
4843.856, 2237.750
4845.785, 2243.864
4847.713, 2245.217
4849.642, 2247.500
4851.570, 2251.726
4853.499, 2259.603
4855.427, 2262.286
4857.355, 2263.492
4859.284, 2269.547
4861.212, 2278.710
4863.141, 2285.470
4865.069, 2279.193
4866.998, 2286.050
4868.926, 2297.242
4870.855, 2291.804
4872.783, 2292.563
4874.712, 2299.390
4876.640, 2308.952
4878.569, 2314.072
4880.497, 2316.305
4882.426, 2318.331
4884.354, 2327.629
4886.283, 2337.739
4888.211, 2335.776
4890.140, 2336.597
4892.068, 2340.886
4893.997, 2348.096
4895.925, 2349.902
4897.854, 2349.906
4899.782, 2354.764
4901.710, 2361.160
4903.639, 2368.129
4905.567, 2375.545
4907.496, 2380.718
4909.424, 2383.676
4911.353, 2384.203
4913.281, 2385.454
4915.209, 2389.488
4917.138, 2399.830
4919.066, 2406.200
4920.995, 2408.681
4922.923, 2407.280
4924.852, 2407.805
4926.780, 2411.812
4928.709, 2421.307
4930.637, 2424.609
4932.566, 2426.134
4934.494, 2430.756
4936.423, 2431.362
4938.351, 2435.990
4940.280, 2451.225
4942.208, 2452.940
4944.137, 2452.134
4946.065, 2457.356
4947.994, 2468.363
4949.922, 2475.650
4951.851, 2474.681
4953.779, 2478.117
4955.708, 2481.602
4957.636, 2482.771
4959.564, 2487.865
4961.493, 2495.620
4963.421, 2504.454
4965.350, 2506.188
4967.278, 2506.245
4969.207, 2507.179
4971.135, 2513.028
4973.063, 2517.390
4974.992, 2519.677
4976.920, 2525.819
4978.849, 2531.677
4980.777, 2536.101
4982.706, 2536.505
4984.634, 2546.130
4986.563, 2559.507
4988.491, 2558.290
4990.420, 2560.920
4992.348, 2565.096
4994.277, 2561.434
4996.205, 2560.463
4998.134, 2566.037
5000.062, 2585.901
5001.991, 2593.281
5003.919, 2592.400
5005.848, 2587.907
5007.776, 2590.663
5009.705, 2595.449
5011.633, 2597.371
5013.562, 2604.789
5015.490, 2613.899
5017.418, 2622.402
5019.347, 2624.894
5021.275, 2622.480
5023.204, 2617.965
5025.132, 2624.669
5027.061, 2631.221
5028.989, 2635.462
5030.917, 2642.522
5032.846, 2646.512
5034.774, 2649.667
5036.703, 2661.756
5038.631, 2666.478
5040.560, 2667.202
5042.488, 2670.935
5044.417, 2674.678
5046.345, 2680.841
5048.274, 2692.115
5050.202, 2694.292
5052.131, 2695.219
5054.059, 2701.370
5055.988, 2700.038
5057.916, 2697.988
5059.845, 2698.654
5061.773, 2705.585
5063.702, 2709.376
5065.630, 2710.322
5067.559, 2723.442
5069.487, 2730.343
5071.416, 2732.840
5073.344, 2744.348
5075.272, 2745.892
5077.201, 2744.028
5079.129, 2750.979
5081.058, 2756.655
5082.986, 2762.082
5084.915, 2768.751
5086.843, 2769.048
5088.771, 2767.959
5090.700, 2769.093
5092.628, 2783.596
5094.557, 2790.970
5096.485, 2788.000
5098.414, 2790.507
5100.342, 2790.347
5102.271, 2791.462
5104.199, 2806.942
5106.128, 2815.833
5108.056, 2818.789
5109.985, 2818.246
5111.913, 2819.146
5113.842, 2823.259
5115.770, 2831.452
5117.699, 2839.070
5119.627, 2846.419
5121.556, 2853.246
5123.484, 2858.382
5125.413, 2856.731
5127.341, 2853.677
5129.270, 2867.960
5131.198, 2876.438
5133.126, 2877.858
5135.055, 2873.733
5136.983, 2878.965
5138.912, 2885.370
5140.840, 2885.877
5142.769, 2890.891
5144.697, 2897.278
5146.625, 2903.740
5148.554, 2910.216
5150.482, 2918.677
5152.411, 2926.200
5154.339, 2925.614
5156.268, 2921.478
5158.196, 2920.962
5160.125, 2931.536
5162.053, 2941.359
5163.982, 2944.243
5165.910, 2939.542
5167.839, 2949.410
5169.767, 2957.568
5171.696, 2960.160
5173.624, 2961.446
5175.553, 2968.802
5177.481, 2978.877
5179.410, 2985.938
5181.338, 2985.769
5183.267, 2986.015
5185.195, 2992.045
5187.124, 2995.976
5189.052, 3000.070
5190.980, 3003.888
5192.909, 2998.763
5194.837, 3001.268
5196.766, 3009.320
5198.694, 3014.513
5200.623, 3020.434
5202.551, 3025.277
5204.479, 3027.283
5206.408, 3029.422
5208.336, 3037.197
5210.265, 3048.242
5212.193, 3040.018
5214.122, 3042.870
5216.050, 3053.870
5217.979, 3061.204
5219.907, 3071.066
5221.836, 3072.601
5223.764, 3059.107
5225.693, 3059.812
5227.621, 3070.871
5229.550, 3084.081
5231.478, 3076.812
5233.407, 3071.969
5235.335, 3073.127
5237.264, 3082.991
5239.192, 3082.810
5241.121, 3084.696
5243.049, 3093.700
5244.978, 3090.388
5246.906, 3098.871
5248.834, 3114.879
5250.763, 3112.406
5252.691, 3115.686
5254.620, 3121.255
5256.548, 3123.785
5258.477, 3123.535
5260.405, 3126.699
5262.333, 3134.429
5264.262, 3143.112
5266.190, 3148.067
5268.119, 3150.990
5270.047, 3154.844
5271.976, 3159.451
5273.904, 3166.332
5275.833, 3174.648
5277.761, 3167.394
5279.690, 3166.070
5281.618, 3171.861
5283.547, 3177.330
5285.475, 3183.534
5287.404, 3189.977
5289.332, 3196.501
5291.261, 3195.483
5293.189, 3194.858
5295.118, 3196.745
5297.046, 3199.810
5298.975, 3202.203
5300.903, 3204.849
5302.832, 3208.873
5304.760, 3207.819
5306.688, 3209.786
5308.617, 3216.652
5310.545, 3224.220
5312.474, 3227.136
5314.402, 3228.301
5316.331, 3231.572
5318.259, 3240.264
5320.188, 3243.199
5322.116, 3238.801
5324.044, 3242.700
5325.973, 3240.907
5327.901, 3240.468
5329.830, 3251.995
5331.758, 3259.783
5333.687, 3264.354
5335.615, 3267.011
5337.544, 3270.354
5339.472, 3272.022
5341.401, 3273.056
5343.329, 3275.963
5345.258, 3269.268
5347.186, 3270.010
5349.115, 3281.236
5351.043, 3288.059
5352.972, 3291.571
5354.900, 3292.796
5356.829, 3292.314
5358.757, 3295.087
5360.686, 3294.906
5362.614, 3291.252
5364.542, 3290.401
5366.471, 3301.943
5368.399, 3313.615
5370.328, 3313.685
5372.256, 3310.872
5374.185, 3313.855
5376.113, 3321.472
5378.042, 3324.630
5379.970, 3319.931
5381.898, 3319.952
5383.827, 3333.333
5385.755, 3333.473
5387.684, 3336.079
5389.612, 3341.310
5391.541, 3342.137
5393.469, 3348.319
5395.398, 3354.095
5397.326, 3356.046
5399.255, 3355.843
5401.183, 3361.138
5403.112, 3364.376
5405.040, 3353.802
5406.969, 3359.701
5408.897, 3366.640
5410.826, 3368.540
5412.754, 3366.050
5414.683, 3373.219
5416.611, 3378.859
5418.540, 3372.589
5420.468, 3371.933
5422.396, 3379.571
5424.325, 3390.950
5426.253, 3397.238
5428.182, 3397.897
5430.110, 3398.274
5432.039, 3400.695
5433.967, 3403.380
5435.896, 3402.073
5437.824, 3403.733
5439.752, 3417.331
5441.681, 3414.560
5443.609, 3408.040
5445.538, 3408.681
5447.466, 3433.188
5449.395, 3428.744
5451.323, 3421.753
5453.252, 3427.425
5455.180, 3432.718
5457.109, 3430.115
5459.037, 3428.138
5460.966, 3436.839
5462.894, 3444.064
5464.823, 3445.172
5466.751, 3443.979
5468.680, 3451.466
5470.608, 3453.542
5472.537, 3451.816
5474.465, 3449.023
5476.394, 3448.553
5478.322, 3453.022
5480.250, 3459.597
5482.179, 3465.633
5484.107, 3460.925
5486.036, 3454.315
5487.964, 3453.606
5489.893, 3467.886
5491.821, 3462.746
5493.750, 3467.881
5495.678, 3483.865
5497.606, 3477.479
5499.535, 3472.023
##END=



