##NAMES=Munakataite
##RRUFFID=R110005
##IDEAL CHEMISTRY=Pb_2_Cu_2_(Se^4+^O_3_)(SO_4_)(OH)_4_
##LOCALITY=Tonopah-Belmont mine, Maricopa County, Arizona, USA
##OWNER=RRUFF
##SOURCE=Marcus Origlieri
##DESCRIPTION=Blue acicular to prismatic crystals with tapering terminations, associated with brochantite and cerussite
##STATUS=The identification of this mineral has been confirmed by single-crystal X-ray diffraction
##URL=https://www.rruff.net/odr/rruff_sample/R110005
##DIFFRACTION SAMPLE DESCRIPTION=Single crystal, powder profile is calculated
##CELL PARAMETERS=a: 9.7696 b: 5.6589 c: 9.2463 alpha: 90 beta: 102.4 gamma: 90 volume: 499.3 crystal system: monoclinic
##FILETYPE=Raman RAW
##RAMAN WAVELENGTH=532

175.9583, 17.71688
177.8867, 18.12660
179.8152, 18.34683
181.7437, 18.33862
183.6721, 18.02196
185.6006, 17.41652
187.5291, 17.08696
189.4576, 16.98488
191.3860, 17.10637
193.3145, 17.47729
195.2430, 18.47499
197.1714, 19.09162
199.0999, 19.12021
201.0284, 18.60451
202.9568, 17.95409
204.8853, 16.87440
206.8138, 15.86747
208.7422, 15.30443
210.6707, 15.63504
212.5992, 15.86443
214.5276, 15.79256
216.4561, 15.52885
218.3846, 15.42164
220.3130, 15.76054
222.2415, 16.07855
224.1700, 16.01352
226.0984, 15.47231
228.0269, 14.96637
229.9554, 14.62179
231.8838, 14.38256
233.8123, 14.01723
235.7408, 13.48566
237.6692, 12.95300
239.5977, 12.47437
241.5262, 12.04655
243.4546, 11.62631
245.3831, 11.20427
247.3116, 10.78706
249.2400, 10.41213
251.1685, 10.08689
253.0970, 9.826694
255.0254, 9.592483
256.9539, 9.394513
258.8824, 9.107563
260.8108, 8.707400
262.7393, 8.289824
264.6678, 8.007105
266.5962, 7.899704
268.5247, 7.868545
270.4532, 7.824889
272.3816, 7.718958
274.3101, 7.681257
276.2386, 7.890338
278.1670, 8.196623
280.0955, 8.365318
282.0240, 8.206646
283.9524, 8.005136
285.8809, 7.855246
287.8094, 7.751913
289.7378, 7.641523
291.6663, 7.599319
293.5948, 7.608121
295.5232, 7.615861
297.4517, 7.551939
299.3802, 7.532888
301.3086, 7.550620
303.2371, 7.553818
305.1656, 7.470759
307.0940, 7.266421
309.0225, 7.231112
310.9510, 7.445426
312.8794, 7.921317
314.8079, 8.314051
316.7364, 8.561216
318.6648, 8.827535
320.5933, 9.382838
322.5218, 10.38888
324.4502, 11.50169
326.3787, 12.62695
328.3072, 13.78089
330.2356, 15.12316
332.1641, 16.88305
334.0926, 18.72701
336.0210, 20.34432
337.9495, 21.34667
339.8780, 22.58384
341.8064, 24.32052
343.7349, 26.39868
345.6634, 28.32016
347.5918, 30.10187
349.5203, 31.48873
351.4488, 32.21858
353.3772, 32.16909
355.3057, 31.87724
357.2342, 31.35543
359.1626, 30.85330
361.0911, 30.75831
363.0196, 31.25817
364.9480, 32.05511
366.8765, 33.15387
368.8050, 34.61744
370.7334, 36.54930
372.6619, 39.31084
374.5904, 42.17098
376.5188, 44.63913
378.4473, 46.56686
380.3758, 47.99544
382.3042, 48.76839
384.2327, 48.75534
386.1612, 47.82168
388.0896, 45.73828
390.0181, 43.13750
391.9466, 40.10123
393.8750, 36.74068
395.8035, 33.38707
397.7320, 30.04836
399.6604, 27.03091
401.5889, 24.57751
403.5174, 22.86043
405.4458, 21.32932
407.3743, 19.99607
409.3028, 18.84752
411.2312, 17.79739
413.1597, 16.76832
415.0882, 15.95732
417.0166, 15.47146
418.9451, 15.34586
420.8736, 15.19394
422.8020, 14.96932
424.7305, 14.80973
426.6590, 14.74877
428.5874, 14.67177
430.5159, 15.15769
432.4444, 16.33584
434.3728, 18.25811
436.3013, 20.80437
438.2298, 24.43694
440.1582, 27.79263
442.0867, 30.29191
444.0152, 31.08182
445.9436, 30.96198
447.8721, 30.21978
449.8006, 29.39958
451.7290, 28.40574
453.6575, 27.36060
455.5860, 27.23498
457.5144, 28.13129
459.4429, 29.94579
461.3714, 32.80264
463.2998, 37.23642
465.2283, 41.69280
467.1568, 45.99019
469.0852, 49.78851
471.0137, 52.36611
472.9422, 53.14911
474.8706, 52.50066
476.7991, 50.33112
478.7276, 46.96616
480.6560, 43.21878
482.5845, 39.15998
484.5130, 35.31202
486.4414, 31.86671
488.3699, 28.56093
490.2984, 25.76491
492.2268, 23.63792
494.1553, 22.21967
496.0838, 21.22967
498.0122, 20.66076
499.9407, 20.17889
501.8692, 19.67427
503.7976, 19.19277
505.7261, 18.79182
507.6546, 18.27176
509.5830, 18.14637
511.5115, 18.74494
513.4399, 19.82736
515.3684, 21.29879
517.2969, 23.33201
519.2253, 25.82715
521.1538, 28.45903
523.0823, 31.39407
525.0107, 33.44331
526.9392, 34.38947
528.8677, 33.97163
530.7961, 32.30590
532.7246, 29.14661
534.6531, 25.92469
536.5815, 22.93964
538.5100, 20.18103
540.4385, 17.89407
542.3669, 16.28412
544.2954, 15.17817
546.2239, 14.58624
548.1523, 14.42590
550.0808, 13.78130
552.0093, 12.34189
553.9377, 10.78073
555.8662, 9.544794
557.7947, 8.586643
559.7231, 7.867401
561.6516, 7.474526
563.5801, 7.251856
565.5085, 6.942324
567.4370, 6.609255
569.3655, 6.288505
571.2939, 5.880892
573.2224, 5.404641
575.1509, 5.205913
577.0793, 5.581129
579.0078, 5.970292
580.9363, 6.074880
582.8647, 5.858455
584.7932, 5.752339
586.7217, 5.857851
588.6501, 6.037487
590.5786, 6.163961
592.5071, 6.257294
594.4355, 6.474892
596.3640, 6.853762
598.2925, 7.299930
600.2209, 7.771746
602.1494, 8.347615
604.0779, 8.925737
606.0063, 9.614387
607.9348, 10.04917
609.8633, 10.15898
611.7917, 10.05300
613.7202, 9.856837
615.6487, 9.459879
617.5771, 8.885334
619.5056, 8.439510
621.4341, 8.168896
623.3625, 8.065677
625.2910, 8.112508
627.2195, 8.322918
629.1479, 8.530819
631.0764, 8.739381
633.0049, 8.887813
634.9333, 8.941360
636.8618, 8.904734
638.7903, 8.945719
640.7188, 8.999828
642.6472, 9.194338
644.5757, 9.632099
646.5042, 10.39492
648.4326, 11.17904
650.3611, 11.87337
652.2896, 12.59242
654.2180, 13.47991
656.1465, 14.55577
658.0750, 15.83623
660.0034, 17.56490
661.9319, 19.30619
663.8604, 20.58572
665.7888, 21.40771
667.7173, 21.93301
669.6458, 22.20614
671.5742, 22.19319
673.5027, 21.84418
675.4312, 20.82982
677.3596, 19.83527
679.2881, 18.88781
681.2166, 18.01483
683.1450, 17.32319
685.0735, 16.93001
687.0020, 16.53370
688.9304, 15.95339
690.8589, 15.20514
692.7874, 14.68968
694.7158, 14.50320
696.6443, 14.42856
698.5728, 14.40154
700.5012, 14.42319
702.4297, 14.50251
704.3582, 14.65193
706.2866, 14.85018
708.2151, 15.08144
710.1436, 15.35253
712.0720, 15.70328
714.0005, 16.01751
715.9290, 16.48972
717.8574, 17.36526
719.7859, 18.62487
721.7144, 19.74447
723.6428, 20.43474
725.5713, 21.11324
727.4998, 22.03028
729.4282, 23.31034
731.3567, 24.32246
733.2852, 24.94550
735.2136, 25.38154
737.1421, 25.77681
739.0706, 26.14872
740.9990, 26.49056
742.9275, 26.73857
744.8560, 26.95370
746.7844, 27.28301
748.7129, 27.69062
750.6414, 28.18973
752.5698, 28.71065
754.4983, 29.48144
756.4268, 30.43685
758.3552, 31.55346
760.2837, 32.94304
762.2122, 34.56939
764.1406, 36.50344
766.0691, 38.74636
767.9976, 41.25845
769.9260, 44.13787
771.8545, 47.13460
773.7830, 50.41607
775.7114, 54.82365
777.6399, 60.27406
779.5684, 67.48608
781.4968, 75.60141
783.4253, 85.69654
785.3538, 99.75742
787.2822, 119.3722
789.2107, 139.3597
791.1392, 162.1966
793.0676, 182.8682
794.9961, 194.7374
796.9246, 197.4143
798.8530, 192.3475
800.7815, 177.0216
802.7100, 154.2579
804.6384, 131.8500
806.5669, 109.2577
808.4954, 89.73965
810.4238, 74.56425
812.3523, 63.00874
814.2808, 53.66491
816.2092, 47.05863
818.1377, 41.48088
820.0662, 36.50145
821.9946, 32.22558
823.9231, 28.31469
825.8516, 24.90289
827.7800, 22.04628
829.7085, 19.77263
831.6370, 17.88694
833.5654, 16.16329
835.4939, 14.59261
837.4224, 13.28284
839.3508, 12.20735
841.2793, 11.43278
843.2078, 10.69120
845.1362, 10.24217
847.0647, 9.978327
848.9932, 9.892241
850.9216, 9.769437
852.8501, 9.622289
854.7786, 9.505117
856.7070, 9.307161
858.6355, 8.829431
860.5640, 8.295309
862.4924, 7.986809
864.4209, 7.978014
866.3494, 8.022785
868.2778, 8.065656
870.2063, 8.182030
872.1348, 8.299799
874.0632, 8.268454
875.9917, 8.149454
877.9202, 7.958670
879.8486, 7.898104
881.7771, 7.938559
883.7056, 7.865366
885.6340, 7.712685
887.5625, 7.626953
889.4910, 7.784726
891.4194, 7.659963
893.3479, 7.031478
895.2764, 6.571869
897.2048, 6.591549
899.1333, 6.859782
901.0618, 7.079046
902.9902, 7.133045
904.9187, 7.066507
906.8472, 6.900591
908.7756, 6.749399
910.7041, 6.619276
912.6326, 6.710455
914.5610, 6.889935
916.4895, 7.034105
918.4180, 7.155397
920.3464, 7.581244
922.2749, 8.299129
924.2034, 9.102485
926.1318, 9.867109
928.0603, 10.67144
929.9888, 11.67943
931.9172, 13.16611
933.8457, 14.61318
935.7742, 15.99536
937.7026, 17.39670
939.6311, 18.71125
941.5596, 20.12335
943.4880, 21.76567
945.4165, 23.40520
947.3450, 25.60462
949.2734, 28.68879
951.2019, 32.28344
953.1304, 36.58532
955.0588, 42.00354
956.9873, 48.94983
958.9158, 57.51466
960.8442, 69.56647
962.7727, 87.30734
964.7012, 109.2562
966.6296, 130.4243
968.5581, 149.4530
970.4866, 161.7580
972.4150, 160.7508
974.3435, 147.0163
976.2720, 128.2252
978.2004, 107.4529
980.1289, 86.56529
982.0574, 68.24989
983.9858, 54.17327
985.9143, 43.84329
987.8428, 36.81550
989.7712, 32.07792
991.6997, 29.15480
993.6282, 27.01201
995.5566, 24.31848
997.4851, 21.69153
999.4136, 19.65345
1001.342, 18.19536
1003.271, 17.09518
1005.199, 16.05709
1007.127, 15.42222
1009.056, 15.29244
1010.984, 15.52244
1012.913, 15.62035
1014.841, 16.07229
1016.770, 16.76711
1018.698, 17.28957
1020.627, 17.62402
1022.555, 18.00464
1024.484, 18.47756
1026.412, 18.86884
1028.341, 19.31387
1030.269, 19.78943
1032.198, 20.20964
1034.126, 20.45091
1036.054, 20.49996
1037.983, 20.90216
1039.911, 21.79972
1041.840, 22.79779
1043.768, 23.33826
1045.697, 23.51153
1047.625, 23.91486
1049.554, 24.53382
1051.482, 25.28822
1053.411, 26.08376
1055.339, 26.84716
1057.268, 27.36632
1059.196, 27.96707
1061.125, 28.72084
1063.053, 29.36829
1064.981, 29.76872
1066.910, 30.27662
1068.838, 31.16114
1070.767, 31.87931
1072.695, 32.42754
1074.624, 32.93199
1076.552, 33.24459
1078.481, 32.99085
1080.409, 32.21387
1082.338, 31.48171
1084.266, 31.03707
1086.195, 30.61907
1088.123, 29.92212
1090.052, 28.79504
1091.980, 27.77202
1093.908, 27.08110
1095.837, 26.37504
1097.765, 25.48932
1099.694, 24.61700
1101.622, 23.99722
1103.551, 23.14972
1105.479, 21.93217
1107.408, 20.56135
1109.336, 19.39687
1111.265, 18.50011
1113.193, 17.57233
1115.122, 16.50039
1117.050, 15.44920
1118.979, 14.51108
1120.907, 13.70098
1122.835, 12.89115
1124.764, 12.16273
1126.692, 11.32540
1128.621, 10.34901
1130.549, 9.455667
1132.478, 9.048875
1134.406, 9.199439
1136.335, 9.169877
1138.263, 8.615432
1140.192, 7.700310
1142.120, 7.138751
1144.049, 7.241420
1145.977, 7.574995
1147.906, 7.672562
1149.834, 7.376181
1151.762, 7.020803
1153.691, 6.731760
1155.619, 6.550880
1157.548, 6.282720
1159.476, 6.126910
1161.405, 6.265260
1163.333, 6.455754
1165.262, 6.275072
1167.190, 5.611229
1169.119, 5.101687
1171.047, 5.057095
1172.976, 5.109755
1174.904, 4.848122
1176.833, 4.228370
1178.761, 3.875844
1180.689, 4.027087
1182.618, 4.154573
1184.546, 4.344920
1186.475, 4.653266
1188.403, 4.699496
1190.332, 4.115345
1192.260, 3.653853
1194.189, 3.553745
1196.117, 3.500949
1198.046, 3.487846
1199.974, 3.688215
1201.903, 3.800977
1203.831, 3.463627
1205.760, 2.919391
1207.688, 2.803081
1209.616, 3.126104
1211.545, 3.295362
1213.473, 3.099686
1215.402, 2.955908
1217.330, 3.053535
1219.259, 3.226256
1221.187, 3.274064
1223.116, 3.109456
1225.044, 3.006979
1226.973, 3.087780
1228.901, 3.230637
1230.830, 3.265868
1232.758, 3.214286
1234.687, 3.152517
1236.615, 3.103043
1238.543, 2.890103
1240.472, 2.219348
1242.400, 1.597915
1244.329, 1.599962
1246.257, 2.251835
1248.186, 2.476678
1250.114, 1.730032
1252.043, 1.058538
1253.971, 0.9606674
1255.900, 1.245683
1257.828, 1.380553
1259.757, 1.205897
1261.685, 1.068781
1263.614, 0.9948118
1265.542, 1.108002
1267.470, 1.465503
1269.399, 1.900898
1271.327, 2.032717
1273.256, 1.752918
1275.184, 1.487903
1277.113, 1.301978
1279.041, 1.199389
1280.970, 1.267755
1282.898, 1.502477
1284.827, 1.573392
1286.755, 1.357100
1288.684, 1.100320
1290.612, 0.8234936
1292.541, 0.5707576
1294.469, 0.4528436
1296.397, 0.5050266
1298.326, 0.6167967
1300.254, 0.8682222
1302.183, 1.112468
1304.111, 1.226369
1306.040, 1.220023
1307.968, 1.244459
1309.897, 1.348228
1311.825, 1.349545
1313.754, 1.056889
1315.682, 0.7740739
1317.611, 0.7346674
1319.539, 0.9069960
1321.468, 1.221635
1323.396, 1.895648
1325.324, 2.260770
1327.253, 1.688015
1329.181, 0.8718227
1331.110, 0.7131891
1333.038, 1.367396
1334.967, 1.630146
1336.895, 0.8853070
1338.824, 0.2873037
1340.752, 0.3169165
1342.681, 0.7211998
1344.609, 0.9647014
1346.538, 0.9173545
1348.466, 0.9739541
1350.395, 1.260472
1352.323, 1.518979
1354.251, 1.617647
1356.180, 1.587815
1358.108, 1.512818
1360.037, 1.369139
1361.965, 1.203609
1363.894, 0.9953392
1365.822, 0.8179562
1367.751, 0.7320055
1369.679, 0.6958555
1371.608, 0.6027454
1373.536, 0.3949647
1375.465, 0.3267786
1377.393, 0.5617749
1379.322, 0.8734100
1381.250, 1.164964
1383.178, 1.428236
1385.107, 1.494857
1387.035, 1.156722
1388.964, 0.9425646
1390.892, 1.062719
1392.821, 1.306510
1394.749, 1.451494
1396.678, 1.497094
1398.606, 1.409775
1400.535, 0.8916317
1402.463, 0.6177013
1404.392, 1.019191
1406.320, 1.585406
1408.249, 1.642956
1410.177, 1.158092
1412.105, 0.8496532
1414.034, 0.8501039
1415.962, 0.8838677
1417.891, 0.7932746
1419.819, 0.7175948
1421.748, 0.8871475
1423.676, 1.267618
1425.605, 1.504841
1427.533, 1.553387
1429.462, 1.496224
1431.390, 1.290964
1433.319, 0.9994271
1435.247, 0.6953083
1437.176, 0.4429099
1439.104, 0.3931910
1441.032, 0.6393512
1442.961, 0.8577062
1444.889, 0.9805473
1446.818, 1.074780
1448.746, 1.135185
1450.675, 1.101489
1452.603, 1.023977
1454.532, 0.7966900
1456.460, 0.7199581
1458.389, 1.031394
1460.317, 1.396908
1462.246, 1.386587
1464.174, 0.9488952
1466.103, 0.7372371
1468.031, 0.9622111
1469.959, 1.154075
1471.888, 1.202169
1473.816, 1.119822
1475.745, 0.8811039
1477.673, 0.5330909
1479.602, 0.4453344
1481.530, 0.7690307
1483.459, 1.077943
1485.387, 1.327707
1487.316, 1.419432
1489.244, 1.133494
1491.173, 0.6111224
1493.101, 0.4919505
1495.030, 0.9821079
1496.958, 1.386921
1498.886, 1.447634
1500.815, 1.367853
1502.743, 1.266215
1504.672, 1.217737
1506.600, 1.225774
1508.529, 1.212538
1510.457, 1.202236
1512.386, 1.272040
1514.314, 1.323331
1516.243, 1.282092
1518.171, 1.198669
1520.100, 1.103883
1522.028, 0.8761365
1523.957, 0.8327392
1525.885, 1.421488
1527.813, 1.755258
1529.742, 1.192633
1531.670, 0.2735049
1533.599, 7.6127290E-03
1535.527, 0.6618965
1537.456, 1.044605
1539.384, 0.9532897
1541.313, 0.8502474
1543.241, 0.8316090
1545.170, 0.8673173
1547.098, 0.9615270
1549.027, 1.142016
1550.955, 1.212238
1552.884, 1.041781
1554.812, 1.008439
1556.740, 1.308110
1558.669, 1.578351
1560.597, 1.515445
1562.526, 1.215158
1564.454, 1.006480
1566.383, 0.8526351
1568.311, 0.7866337
1570.240, 0.9027563
1572.168, 1.019965
1574.097, 1.052657
1576.025, 1.007273
1577.954, 0.8706637
1579.882, 0.6689475
1581.811, 0.6244106
1583.739, 0.8266489
1585.667, 0.9969368
1587.596, 1.031161
1589.524, 1.020077
1591.453, 1.098269
1593.381, 1.210359
1595.310, 1.025498
1597.238, 0.3412906
1599.167, 3.9131802E-02
1601.095, 0.7128249
1603.024, 1.402497
1604.952, 1.366682
1606.881, 0.9762070
1608.809, 0.9838096
1610.738, 1.439304
1612.666, 1.702804
1614.594, 1.583367
1616.523, 1.415807
1618.451, 1.398030
1620.380, 1.369081
1622.308, 1.016759
1624.237, 0.4494210
1626.165, 0.4826192
1628.094, 1.459687
1630.022, 2.031928
1631.951, 1.536807
1633.879, 0.9107959
1635.808, 0.6462530
1637.736, 0.6379861
1639.665, 0.7097400
1641.593, 0.8696165
1643.521, 0.9773480
1645.450, 0.9867011
1647.378, 1.000590
1649.307, 1.070018
1651.235, 1.146384
1653.164, 1.193713
1655.092, 1.214947
1657.021, 1.208885
1658.949, 1.144132
1660.878, 1.192713
1662.806, 1.588926
1664.735, 1.816790
1666.663, 1.466080
1668.592, 0.9559874
1670.520, 0.9015074
1672.448, 1.286300
1674.377, 1.401583
1676.305, 1.019781
1678.234, 0.8672832
1680.162, 1.338856
1682.091, 1.836691
1684.019, 2.111345
1685.948, 2.181947
1687.876, 2.038018
1689.805, 1.651402
1691.733, 1.361048
1693.662, 1.245279
1695.590, 1.118155
1697.519, 0.7490767
1699.447, 0.5288122
1701.375, 0.9025551
1703.304, 1.620379
1705.232, 1.853430
1707.161, 1.510221
1709.089, 1.234069
1711.018, 1.087616
1712.946, 1.017160
1714.875, 1.116569
1716.803, 1.183310
1718.732, 0.9766461
1720.660, 0.5888779
1722.589, 0.4599442
1724.517, 0.6505844
1726.446, 0.7920367
1728.374, 0.8098988
1730.302, 0.8225663
1732.231, 0.8107178
1734.159, 0.8615687
1736.088, 1.108081
1738.016, 1.494597
1739.945, 1.747261
1741.873, 1.856784
1743.802, 1.860202
1745.730, 1.665370
1747.659, 1.526846
1749.587, 1.656773
1751.516, 1.780571
1753.444, 1.584255
1755.373, 1.174525
1757.301, 1.009138
1759.229, 1.131121
1761.158, 1.244993
1763.086, 1.248170
1765.015, 1.352890
1766.943, 1.943503
1768.872, 2.387134
1770.800, 1.900892
1772.729, 0.9015830
1774.657, 0.7645205
1776.586, 1.624460
1778.514, 1.951669
1780.443, 1.219684
1782.371, 0.6452196
1784.300, 0.7181236
1786.228, 1.058120
1788.156, 1.609573
1790.085, 2.147409
1792.013, 2.074976
1793.942, 1.384303
1795.870, 1.031232
1797.799, 1.262081
1799.727, 1.438825
1801.656, 1.276658
1803.584, 1.103099
1805.513, 1.171742
1807.441, 1.335952
1809.370, 1.327710
1811.298, 1.175171
1813.227, 1.240902
1815.155, 1.692321
1817.083, 1.848279
1819.012, 1.243670
1820.940, 0.7223678
1822.869, 0.8023059
1824.797, 1.075081
1826.726, 1.004776
1828.654, 0.6890892
1830.583, 0.7302570
1832.511, 1.274690
1834.440, 1.541705
1836.368, 1.076728
1838.297, 0.8488067
1840.225, 1.380906
1842.154, 1.995649
1844.082, 2.183741
1846.010, 2.059166
1847.939, 1.822102
1849.867, 1.408315
1851.796, 1.334859
1853.724, 2.037265
1855.653, 2.376351
1857.581, 1.952842
1859.510, 1.513626
1861.438, 1.411958
1863.367, 1.474468
1865.295, 1.517953
1867.224, 1.542244
1869.152, 1.546329
1871.081, 1.526019
1873.009, 1.496202
1874.938, 1.415864
1876.866, 1.390683
1878.794, 1.503178
1880.723, 1.613123
1882.651, 1.579024
1884.580, 1.509566
1886.508, 1.650811
1888.437, 1.984385
1890.365, 2.118756
1892.294, 2.014469
1894.222, 1.802133
1896.151, 1.319672
1898.079, 1.069712
1900.008, 1.526102
1901.936, 2.032702
1903.865, 1.991480
1905.793, 1.667701
1907.721, 1.577363
1909.650, 1.718296
1911.578, 1.959177
1913.507, 2.372320
1915.435, 2.564450
1917.364, 2.275227
1919.292, 1.996258
1921.221, 1.817196
1923.149, 1.853957
1925.078, 2.474063
1927.006, 3.342851
1928.935, 3.470333
1930.863, 2.733935
1932.792, 2.372005
1934.720, 2.687233
1936.648, 2.832083
1938.577, 2.566576
1940.505, 2.339682
1942.434, 2.333000
1944.362, 2.427613
1946.291, 2.552282
1948.219, 2.685458
1950.148, 2.761246
1952.076, 2.769377
1954.005, 2.798086
1955.933, 2.831780
1957.862, 2.928335
1959.790, 3.113878
1961.719, 3.336156
1963.647, 3.576841
1965.575, 3.846867
1967.504, 4.225341
1969.432, 4.606121
1971.361, 4.772209
1973.289, 4.746843
1975.218, 4.764667
1977.146, 4.895702
1979.075, 4.639572
1981.003, 3.533184
1982.932, 2.818595
1984.860, 3.326256
1986.789, 3.920932
1988.717, 3.794110
1990.646, 3.393476
1992.574, 3.378629
1994.502, 3.656338
1996.431, 3.696869
1998.359, 3.438040
2000.288, 3.170977
2002.216, 2.733531
2004.145, 2.545119
2006.073, 2.918758
2008.002, 3.198832
2009.930, 3.127938
2011.859, 2.842263
2013.787, 2.239092
2015.716, 1.587285
2017.644, 1.645110
2019.573, 2.357352
2021.501, 2.711190
2023.429, 2.602310
2025.358, 2.544526
2027.286, 2.671021
2029.215, 2.720213
2031.143, 2.537764
2033.072, 2.342169
2035.000, 2.261995
2036.929, 2.235614
2038.857, 2.141337
2040.786, 2.053372
2042.714, 2.274866
2044.643, 2.209387
2046.571, 2.196784
2048.500, 2.467512
2050.428, 2.203038
2052.356, 2.626753
2054.285, 2.876735
2056.213, 2.576336
2058.142, 2.235896
2060.070, 2.052458
2061.999, 2.065995
2063.927, 2.497132
2065.856, 3.148531
2067.784, 3.277013
2069.713, 2.899228
2071.641, 2.593154
2073.570, 2.409531
2075.498, 2.193436
2077.427, 1.821125
2079.355, 1.636845
2081.283, 1.837982
2083.212, 2.170555
2085.140, 2.722582
2087.069, 3.140216
2088.997, 2.900383
2090.926, 2.277238
2092.854, 1.904641
2094.783, 1.782178
2096.711, 1.951019
2098.640, 2.686218
2100.568, 2.997809
2102.497, 2.618320
2104.425, 2.285255
2106.354, 2.101499
2108.282, 2.018098
2110.210, 2.014457
2112.139, 2.105672
2114.067, 2.447353
2115.996, 2.798030
2117.924, 2.742494
2119.853, 2.397963
2121.781, 2.179487
2123.710, 2.098803
2125.638, 2.033330
2127.567, 1.982734
2129.495, 1.925512
2131.424, 1.719975
2133.352, 1.718350
2135.281, 2.160193
2137.209, 2.626422
2139.137, 3.025759
2141.066, 3.237621
2142.994, 3.053271
2144.923, 2.648468
2146.851, 2.321265
2148.780, 2.073429
2150.708, 1.903622
2152.637, 1.812039
2154.565, 1.855881
2156.494, 2.086129
2158.422, 2.234756
2160.351, 2.220917
2162.279, 2.175290
2164.208, 2.085098
2166.136, 2.041671
2168.064, 2.151490
2169.993, 2.268353
2171.921, 2.259387
2173.850, 2.170007
2175.778, 2.001105
2177.707, 1.810506
2179.635, 2.006690
2181.564, 2.599186
2183.492, 2.668046
2185.421, 2.021949
2187.349, 1.919746
2189.278, 2.839990
2191.206, 3.437130
2193.135, 3.241917
2195.063, 2.786024
2196.991, 1.992700
2198.920, 1.361426
2200.848, 1.324601
2202.777, 1.561549
2204.705, 1.772520
2206.634, 1.941282
2208.562, 1.962277
2210.491, 1.867653
2212.419, 2.192822
2214.348, 2.992898
2216.276, 3.148288
2218.205, 2.485852
2220.133, 1.681842
2222.062, 0.6619673
2223.990, 2.0820931E-02
2225.918, -5.4117450E-03
2227.847, 0.3079260
2229.775, 1.100457
2231.704, 1.900903
2233.632, 2.425434
2235.561, 2.749488
2237.489, 2.908558
2239.418, 2.955652
2241.346, 3.004773
2243.275, 3.048182
2245.203, 3.046872
2247.132, 2.998910
2249.060, 2.806153
2250.989, 2.433772
2252.917, 2.154467
2254.845, 1.986751
2256.774, 1.972097
2258.702, 2.242098
2260.631, 2.483354
2262.559, 2.634186
2264.488, 2.694656
2266.416, 2.586426
2268.345, 2.471401
2270.273, 2.498887
2272.202, 2.584704
2274.130, 2.576659
2276.059, 2.557047
2277.987, 2.879150
2279.916, 3.376155
2281.844, 3.080554
2283.772, 3.219746
2285.701, 3.354195
2287.629, 2.815136
2289.558, 3.419614
2291.486, 3.018095
2293.415, 2.783301
2295.343, 2.835776
2297.272, 3.028078
2299.200, 3.649120
2301.129, 3.939087
2303.057, 3.217846
2304.986, 2.513978
2306.914, 2.599277
2308.843, 2.970410
2310.771, 3.233386
2312.699, 3.364491
2314.628, 3.266097
2316.556, 3.011183
2318.485, 2.850086
2320.413, 2.776420
2322.342, 2.598717
2324.270, 2.642523
2326.199, 2.293676
2328.127, 2.727066
2330.056, 3.005440
2331.984, 3.036855
2333.913, 2.979638
2335.841, 2.759103
2337.770, 2.680406
2339.698, 3.179224
2341.626, 3.346667
2343.555, 2.352855
2345.483, 1.498333
2347.412, 1.854839
2349.340, 2.390365
2351.269, 2.035627
2353.197, 1.482684
2355.126, 1.703764
2357.054, 2.301523
2358.983, 2.505321
2360.911, 2.446021
2362.840, 2.687083
2364.768, 3.191980
2366.697, 3.128129
2368.625, 2.310452
2370.553, 2.046509
2372.482, 2.494762
2374.410, 2.852605
2376.339, 3.113048
2378.267, 3.041896
2380.196, 2.354484
2382.124, 2.049225
2384.053, 2.787244
2385.981, 3.307793
2387.910, 3.008293
2389.838, 2.613796
2391.767, 2.299188
2393.695, 2.204806
2395.624, 2.616048
2397.552, 3.088050
2399.480, 3.258485
2401.409, 3.228108
2403.337, 3.038173
2405.266, 2.779426
2407.194, 2.578621
2409.123, 2.442174
2411.051, 2.416290
2412.980, 2.480971
2414.908, 2.478165
2416.837, 2.403974
2418.765, 2.292156
2420.694, 2.124612
2422.622, 2.277886
2424.551, 2.843985
2426.479, 3.080301
2428.407, 2.765513
2430.336, 2.588879
2432.264, 2.870914
2434.193, 2.957012
2436.121, 2.357756
2438.050, 2.171244
2439.978, 3.159199
2441.907, 3.824226
2443.835, 3.444533
2445.764, 2.993198
2447.692, 3.064291
2449.621, 3.133969
2451.549, 2.665834
2453.478, 2.247784
2455.406, 2.496803
2457.334, 2.994957
2459.263, 3.378762
2461.191, 3.597487
2463.120, 3.501927
2465.048, 3.218770
2466.977, 2.918059
2468.905, 2.676519
2470.834, 2.786140
2472.762, 3.158360
2474.691, 3.351798
2476.619, 3.365022
2478.548, 3.107812
2480.476, 2.524714
2482.405, 2.231744
2484.333, 2.244138
2486.261, 2.488044
2488.190, 3.024039
2490.118, 3.136201
2492.047, 2.523850
2493.975, 2.208670
2495.904, 2.621571
2497.832, 2.802266
2499.761, 2.350773
2501.689, 2.324971
2503.618, 3.232856
2505.546, 3.802422
2507.475, 3.483108
2509.403, 3.110332
2511.332, 2.987212
2513.260, 2.947537
2515.188, 2.913486
2517.117, 2.948357
2519.045, 3.162655
2520.974, 3.363100
2522.902, 3.494948
2524.831, 3.480361
2526.759, 3.072766
2528.688, 2.698683
2530.616, 2.791079
2532.545, 3.099381
2534.473, 3.431732
2536.402, 3.711271
2538.330, 3.858736
2540.259, 3.851799
2542.187, 3.420352
2544.115, 2.923636
2546.044, 3.347164
2547.972, 3.150229
2549.901, 3.344386
2551.829, 3.652493
2553.758, 3.753802
2555.686, 3.927296
2557.615, 3.868022
2559.543, 4.055287
2561.472, 3.731884
2563.400, 3.527709
2565.329, 3.682884
2567.257, 4.216420
2569.186, 4.584405
2571.114, 4.790558
2573.042, 4.714018
2574.971, 4.292577
2576.899, 3.901809
2578.828, 3.519820
2580.756, 3.602649
2582.685, 4.294126
2584.613, 4.760973
2586.542, 4.861876
2588.470, 4.809562
2590.399, 4.367354
2592.327, 4.391694
2594.256, 5.237021
2596.184, 5.508576
2598.113, 4.792838
2600.041, 4.183791
2601.969, 3.818714
2603.898, 3.863762
2605.826, 4.863565
2607.755, 5.406837
2609.683, 4.800096
2611.612, 4.545702
2613.540, 5.162641
2615.469, 5.681972
2617.397, 5.764166
2619.326, 5.738916
2621.254, 5.586514
2623.183, 5.567323
2625.111, 5.917516
2627.040, 6.193366
2628.968, 6.097432
2630.896, 6.161860
2632.825, 6.904727
2634.753, 7.361265
2636.682, 6.747513
2638.610, 6.154535
2640.539, 6.120101
2642.467, 6.282980
2644.396, 6.641368
2646.324, 6.877347
2648.253, 6.712203
2650.181, 6.551039
2652.110, 6.699264
2654.038, 6.861702
2655.967, 6.814920
2657.895, 6.756206
2659.823, 6.818266
2661.752, 6.919723
2663.680, 6.979586
2665.609, 7.093794
2667.537, 7.460299
2669.466, 7.746190
2671.394, 7.502841
2673.323, 7.307417
2675.251, 7.770027
2677.180, 8.298613
2679.108, 8.447744
2681.037, 8.444674
2682.965, 8.213140
2684.894, 8.202868
2686.822, 9.244549
2688.750, 10.15367
2690.679, 9.538053
2692.607, 8.709055
2694.536, 8.883757
2696.464, 9.241409
2698.393, 9.222634
2700.321, 8.976207
2702.250, 8.391484
2704.178, 7.922665
2706.107, 8.064463
2708.035, 8.414264
2709.964, 8.776273
2711.892, 9.012637
2713.821, 8.903401
2715.749, 8.745621
2717.677, 8.775661
2719.606, 8.894709
2721.534, 9.098572
2723.463, 9.254731
2725.391, 9.199088
2727.320, 9.128200
2729.248, 9.266071
2731.177, 9.359174
2733.105, 9.146707
2735.034, 8.883761
2736.962, 8.723353
2738.891, 8.647711
2740.819, 8.630538
2742.748, 8.704205
2744.676, 8.998116
2746.604, 9.247161
2748.533, 9.224730
2750.461, 9.151053
2752.390, 9.139149
2754.318, 9.163198
2756.247, 9.236012
2758.175, 9.302139
2760.104, 9.336655
2762.032, 9.344941
2763.961, 9.330975
2765.889, 9.283636
2767.818, 9.053092
2769.746, 9.039579
2771.675, 9.744884
2773.603, 10.16933
2775.531, 9.590547
2777.460, 9.058724
2779.388, 8.952947
2781.317, 9.042262
2783.245, 9.455353
2785.174, 9.613909
2787.102, 9.040895
2789.031, 8.681447
2790.959, 9.045585
2792.888, 9.259879
2794.816, 9.005685
2796.745, 8.969815
2798.673, 9.481458
2800.602, 9.635242
2802.530, 8.782113
2804.458, 8.440019
2806.387, 9.250086
2808.315, 9.571888
2810.244, 9.073075
2812.172, 9.050395
2814.101, 9.883483
2816.029, 10.31236
2817.958, 9.897223
2819.886, 9.724197
2821.815, 9.892721
2823.743, 9.681988
2825.672, 9.015075
2827.600, 8.733613
2829.529, 8.957248
2831.457, 9.238611
2833.385, 9.636762
2835.314, 9.199263
2837.242, 8.023673
2839.171, 7.795460
2841.099, 8.440411
2843.028, 8.820145
2844.956, 8.969613
2846.885, 9.376724
2848.813, 9.264253
2850.742, 9.688614
2852.670, 9.032684
2854.599, 8.675772
2856.527, 8.588781
2858.456, 8.833844
2860.384, 9.200776
2862.313, 9.341154
2864.241, 9.251646
2866.169, 8.585416
2868.098, 8.042673
2870.026, 9.034486
2871.955, 10.00787
2873.883, 8.723300
2875.812, 7.250736
2877.740, 7.468346
2879.669, 8.028773
2881.597, 8.053782
2883.526, 7.989878
2885.454, 8.162949
2887.383, 8.239322
2889.311, 7.971073
2891.240, 7.790049
2893.168, 8.008068
2895.096, 8.087895
2897.025, 7.765095
2898.953, 7.424742
2900.882, 7.069835
2902.810, 6.920111
2904.739, 7.097927
2906.667, 7.153302
2908.596, 7.049127
2910.524, 6.590610
2912.453, 6.735565
2914.381, 6.799975
2916.310, 6.619013
2918.238, 6.691623
2920.167, 6.872157
2922.095, 6.628114
2924.023, 6.379509
2925.952, 6.382921
2927.880, 6.525516
2929.809, 6.178723
2931.737, 5.634744
2933.666, 5.881202
2935.594, 5.598998
2937.523, 6.215950
2939.451, 5.782335
2941.380, 6.233839
2943.308, 6.853575
2945.237, 6.950094
2947.165, 6.714183
2949.094, 5.869492
2951.022, 5.394399
2952.950, 6.329358
2954.879, 7.044263
2956.807, 6.375018
2958.736, 5.775348
2960.664, 5.930407
2962.593, 5.925857
2964.521, 5.442580
2966.450, 5.197888
2968.378, 5.466759
2970.307, 5.775217
2972.235, 6.179060
2974.164, 6.197253
2976.092, 5.792254
2978.021, 5.240544
2979.949, 4.551854
2981.877, 4.384017
2983.806, 4.682593
2985.734, 4.745659
2987.663, 4.682752
2989.591, 4.954198
2991.520, 4.883440
2993.448, 5.229043
2995.377, 4.970422
2997.305, 5.091820
2999.234, 5.288203
3001.162, 5.271707
3003.091, 5.173921
3005.019, 5.112226
3006.948, 4.977288
3008.876, 4.588948
3010.804, 4.351517
3012.733, 4.449114
3014.661, 4.660172
3016.590, 5.224052
3018.518, 5.187906
3020.447, 5.203037
3022.375, 5.207575
3024.304, 4.742547
3026.232, 4.948892
3028.161, 4.443273
3030.089, 4.465614
3032.018, 4.903046
3033.946, 4.886867
3035.875, 4.603349
3037.803, 4.783318
3039.731, 5.117674
3041.660, 4.968551
3043.588, 4.570391
3045.517, 4.081113
3047.445, 3.670797
3049.374, 3.414642
3051.302, 3.404262
3053.231, 3.916797
3055.159, 4.277686
3057.088, 4.110454
3059.016, 4.035304
3060.945, 4.359590
3062.873, 4.546591
3064.802, 4.564207
3066.730, 4.340218
3068.658, 3.835095
3070.587, 3.674030
3072.515, 3.862583
3074.444, 3.828243
3076.372, 3.645308
3078.301, 3.567960
3080.229, 3.604191
3082.158, 3.937513
3084.086, 4.225663
3086.015, 3.770728
3087.943, 3.341615
3089.872, 3.570049
3091.800, 3.998478
3093.729, 4.521871
3095.657, 4.929826
3097.585, 5.295331
3099.514, 5.092195
3101.442, 3.784747
3103.371, 3.240482
3105.299, 3.772157
3107.228, 4.091049
3109.156, 4.171176
3111.085, 4.206632
3113.013, 4.141592
3114.942, 3.381981
3116.870, 3.655634
3118.799, 2.833375
3120.727, 3.530343
3122.656, 3.108826
3124.584, 2.628775
3126.512, 3.193556
3128.441, 3.661485
3130.369, 3.490453
3132.298, 3.202119
3134.226, 2.863331
3136.155, 2.661894
3138.083, 2.599841
3140.012, 2.815646
3141.940, 3.332745
3143.869, 3.436977
3145.797, 3.158626
3147.726, 2.805550
3149.654, 2.559199
3151.583, 3.126429
3153.511, 3.871464
3155.439, 3.970492
3157.368, 3.708873
3159.296, 3.001867
3161.225, 2.593417
3163.153, 3.194138
3165.082, 3.596883
3167.010, 3.536643
3168.939, 2.892356
3170.867, 3.064953
3172.796, 2.982979
3174.724, 2.696638
3176.653, 3.206608
3178.581, 3.012151
3180.510, 3.163674
3182.438, 3.416973
3184.366, 3.181131
3186.295, 2.876148
3188.223, 3.182330
3190.152, 3.370307
3192.080, 2.698836
3194.009, 2.281450
3195.937, 2.777792
3197.866, 3.180556
3199.794, 3.376260
3201.723, 3.370514
3203.651, 3.120600
3205.580, 3.158818
3207.508, 3.396877
3209.437, 2.955045
3211.365, 2.252276
3213.293, 2.028971
3215.222, 2.227306
3217.150, 3.169372
3219.079, 3.934942
3221.007, 3.977218
3222.936, 3.658005
3224.864, 2.683423
3226.793, 2.309764
3228.721, 2.770215
3230.650, 2.993309
3232.578, 2.848429
3234.507, 2.946867
3236.435, 3.186784
3238.364, 2.919891
3240.292, 3.004216
3242.220, 2.624399
3244.149, 2.852317
3246.077, 2.801248
3248.006, 2.726530
3249.934, 2.769965
3251.863, 2.764266
3253.791, 2.678356
3255.720, 2.449303
3257.648, 2.059643
3259.577, 2.142037
3261.505, 2.008231
3263.434, 2.512444
3265.362, 2.170713
3267.291, 2.415834
3269.219, 2.779542
3271.147, 2.789367
3273.076, 2.699638
3275.004, 2.640570
3276.933, 2.530610
3278.861, 2.223251
3280.790, 2.206248
3282.718, 2.537254
3284.647, 2.883187
3286.575, 3.209574
3288.504, 3.492253
3290.432, 3.614341
3292.361, 3.103504
3294.289, 2.519281
3296.218, 2.358019
3298.146, 2.411882
3300.074, 2.846740
3302.003, 2.839316
3303.931, 2.949221
3305.860, 3.278327
3307.788, 3.074539
3309.717, 3.719759
3311.645, 3.964991
3313.574, 3.982631
3315.502, 3.874896
3317.431, 3.745379
3319.359, 3.630987
3321.288, 3.500642
3323.216, 3.509188
3325.145, 3.334726
3327.073, 3.276273
3329.001, 3.315090
3330.930, 3.216332
3332.858, 3.741174
3334.787, 4.013005
3336.715, 4.072171
3338.644, 3.807210
3340.572, 3.671125
3342.501, 4.519436
3344.429, 5.040852
3346.358, 4.317825
3348.286, 3.818511
3350.215, 4.027280
3352.143, 4.022946
3354.072, 3.743879
3356.000, 3.527438
3357.928, 3.405705
3359.857, 3.452278
3361.785, 3.606891
3363.714, 3.888443
3365.642, 4.089152
3367.571, 4.038815
3369.499, 3.982427
3371.428, 4.036016
3373.356, 3.755636
3375.285, 3.888132
3377.213, 3.256139
3379.142, 3.909908
3381.070, 4.049053
3382.999, 3.875682
3384.927, 3.441105
3386.855, 3.153886
3388.784, 3.397735
3390.712, 3.559146
3392.641, 3.444966
3394.569, 3.551394
3396.498, 3.954448
3398.426, 3.337076
3400.355, 2.362066
3402.283, 3.190990
3404.212, 4.355730
3406.140, 3.940880
3408.069, 3.322029
3409.997, 3.000450
3411.926, 2.994962
3413.854, 3.374418
3415.782, 3.627831
3417.711, 3.724029
3419.639, 3.777359
3421.568, 3.678626
3423.496, 2.867184
3425.425, 2.176711
3427.353, 2.381247
3429.282, 2.818166
3431.210, 3.306732
3433.139, 3.819485
3435.067, 4.382262
3436.996, 4.384859
3438.924, 3.977706
3440.853, 4.017285
3442.781, 4.163787
3444.709, 3.789981
3446.638, 3.660575
3448.566, 4.323487
3450.495, 4.926598
3452.423, 5.405120
3454.352, 5.079928
3456.280, 4.031996
3458.209, 2.841652
3460.137, 1.962960
3462.066, 2.477890
3463.994, 3.468011
3465.923, 4.600458
3467.851, 5.143175
3469.780, 4.401453
3471.708, 3.934115
3473.636, 3.800768
3475.565, 4.020047
3477.493, 4.417712
3479.422, 4.672979
3481.350, 4.650774
3483.279, 3.901003
3485.207, 3.492880
3487.136, 4.087797
3489.064, 4.381346
3490.993, 4.216803
3492.921, 4.012607
3494.850, 3.863364
3496.778, 4.208863
3498.707, 4.639055
3500.635, 4.687627
3502.563, 4.689274
3504.492, 4.793822
3506.420, 4.833452
3508.349, 4.756046
3510.277, 4.776905
3512.206, 4.834949
3514.134, 4.632520
3516.063, 4.372453
3517.991, 4.219073
3519.920, 4.242102
3521.848, 4.579260
3523.777, 4.643135
3525.705, 4.215202
3527.634, 4.591483
3529.562, 4.427938
3531.490, 5.047918
3533.419, 4.481955
3535.347, 4.692871
3537.276, 4.837703
3539.204, 4.268581
3541.133, 4.464557
3543.061, 4.317220
3544.990, 4.113801
3546.918, 4.217113
3548.847, 3.838541
3550.775, 3.755330
3552.704, 3.571407
3554.632, 3.664810
3556.561, 3.453357
3558.489, 4.416876
3560.417, 3.436789
3562.346, 3.604663
3564.274, 4.212144
3566.203, 3.390192
3568.131, 2.561515
3570.060, 2.896061
3571.988, 3.092182
3573.917, 2.868319
3575.845, 2.887850
3577.774, 3.094059
3579.702, 2.685479
3581.631, 2.063633
3583.559, 1.518262
3585.488, 1.458787
3587.416, 1.087623
3589.344, 1.174096
3591.273, 1.206314
3593.201, 1.253776
3595.130, 1.246072
3597.058, 1.827678
3598.987, 1.313503
3600.915, 1.830072
3602.844, 2.161826
3604.772, 1.959477
3606.701, 1.882277
3608.629, 1.969201
3610.558, 1.966143
3612.486, 1.944598
3614.415, 2.071340
3616.343, 2.095330
3618.271, 1.813396
3620.200, 1.727542
3622.128, 1.955621
3624.057, 2.297681
3625.985, 2.552432
3627.914, 2.171521
3629.842, 1.500962
3631.771, 0.4752966
3633.699, 8.6235814E-03
3635.628, 0.4224715
3637.556, 0.9268606
3639.485, 1.416836
3641.413, 1.325156
3643.342, 1.152968
3645.270, 1.754170
3647.198, 1.897322
3649.127, 0.9211397
3651.055, 0.6185238
3652.984, 1.130510
3654.912, 1.420131
3656.841, 1.572909
3658.769, 1.727726
3660.698, 1.810532
3662.626, 1.753227
3664.555, 1.825302
3666.483, 2.150180
3668.412, 1.425378
3670.340, 0.3271660
3672.269, 0.4523487
3674.197, 0.6971652
3676.125, 9.7424649E-02
3678.054, 0.1598615
3679.982, 1.558947
3681.911, 1.866896
3683.839, 1.492669
3685.768, 1.612824
3687.696, 1.806377
3689.625, 1.665354
3691.553, 1.621782
3693.482, 1.858907
3695.410, 1.866211
3697.339, 1.707989
3699.267, 1.640114
3701.196, 1.599989
3703.124, 1.629555
3705.052, 1.406033
3706.981, 0.6884710
3708.909, 0.5204278
3710.838, 0.7982799
3712.766, 0.8735734
3714.695, 1.024158
3716.623, 1.844940
3718.552, 2.219573
3720.480, 1.753785
3722.409, 1.137945
3724.337, 0.5218238
3726.266, 0.5414923
3728.194, 0.7751797
3730.123, 0.8340570
3732.051, 0.9178464
3733.979, 1.095954
3735.908, 1.179434
3737.836, 1.179680
3739.765, 1.195296
3741.693, 1.188889
3743.622, 1.142126
3745.550, 1.007547
3747.479, 0.7580283
3749.407, 0.3738051
3751.336, 8.9273781E-02
3753.264, 1.188143
3755.193, 2.394162
3757.121, 2.593279
3759.050, 2.546514
3760.978, 2.363069
3762.906, 2.462117
3764.835, 2.559726
3766.763, 1.321761
3768.692, 0.3426788
3770.620, 1.365635
3772.549, 1.647347
3774.477, 0.7610770
3776.406, 0.1941361
3778.334, 4.5910768E-02
3780.263, 0.7934257
3782.191, 1.345003
3784.120, 0.8247358
3786.048, 0.8525288
3787.977, 1.536668
3789.905, 0.9336889
3791.833, 5.6122489E-02
3793.762, 0.4934289
3795.690, 1.143872
3797.619, 1.771045
3799.547, 1.307341
3801.476, 2.2584820E-02
3803.404, 0.1324652
3805.333, 0.8137137
3807.261, 1.522190
3809.190, 1.688383
3811.118, 1.895425
3813.047, 1.206692
3814.975, 1.750774
3816.904, 1.662359
3818.832, 1.482528
3820.760, 1.652287
3822.689, 1.686389
3824.617, 1.533016
3826.546, 1.035460
3828.474, 0.5406009
3830.403, 0.7123681
3832.331, 1.021127
3834.260, 1.353802
3836.188, 1.361652
3838.117, 1.130227
3840.045, 1.223942
3841.974, 1.293098
3843.902, 0.8210065
3845.831, 0.7018594
3847.759, 1.363115
3849.688, 1.008134
3851.616, 0.3841874
3853.544, 1.419402
3855.473, 2.282288
3857.401, 1.999534
3859.330, 1.563009
3861.258, 1.141103
3863.187, 1.212422
3865.115, 1.436681
3867.044, 1.549646
3868.972, 1.355399
3870.901, 0.7756124
3872.829, 0.6339142
3874.758, 0.7584360
3876.686, 0.4143970
3878.615, 0.2992708
3880.543, 1.079215
3882.471, 1.486394
3884.400, 1.438780
3886.328, 1.045097
3888.257, 0.8298749
3890.185, 0.7919708
3892.114, 0.4084290
3894.042, 0.8323495
3895.971, 0.3065327
3897.899, 0.5530602
3899.828, 1.526377
3901.756, 2.245274
3903.685, 1.991660
3905.613, 1.748851
3907.542, 1.705827
3909.470, 2.054002
3911.398, 2.271849
3913.327, 1.736221
3915.255, 1.151989
3917.184, 0.6688578
3919.112, 1.455579
3921.041, 2.505454
3922.969, 2.148880
3924.898, 1.558568
3926.826, 0.9984446
3928.755, 1.360036
3930.683, 2.053836
3932.612, 0.8029913
3934.540, -8.8636257E-02
3936.469, 0.7976814
3938.397, 1.106875
3940.325, 0.9545418
3942.254, 1.472718
3944.182, 1.893172
3946.111, 1.197537
3948.039, 1.226935
3949.968, 2.328400
3951.896, 2.452049
3953.825, 1.973003
3955.753, 1.391475
3957.682, 1.084121
3959.610, 1.433027
3961.539, 1.586896
3963.467, 1.518671
3965.396, 1.649097
3967.324, 0.7776165
3969.252, 1.364162
3971.181, 1.246701
3973.109, 0.5703766
3975.038, 1.066361
3976.966, 1.650893
3978.895, 1.480193
3980.823, 1.349153
3982.752, 1.327840
3984.680, 1.259901
3986.609, 1.299040
3988.537, 1.208825
3990.466, 0.9646612
3992.394, 1.050161
3994.323, 0.5772736
3996.251, 0.4194009
3998.179, 0.6588947
4000.108, 1.118523
4002.036, 1.140018
4003.965, 1.841622
4005.893, 1.518079
4007.822, 1.849897
4009.750, 1.968928
4011.679, 1.174036
4013.607, 1.237966
4015.536, 1.863404
4017.464, 2.231000
4019.393, 2.042749
4021.321, 1.034358
4023.250, 0.7041734
4025.178, 0.8659942
4027.106, 0.6198301
4029.035, 0.5789928
4030.963, 0.9675190
4032.892, 1.291974
4034.820, 1.909956
4036.749, 2.061063
4038.677, 1.848666
4040.606, 1.445881
4042.534, 1.245808
4044.463, 1.293161
4046.391, 1.186495
4048.320, 1.145296
4050.248, 1.306118
4052.177, 1.137188
4054.105, 0.6418161
4056.033, 0.6531554
4057.962, 0.7712600
4059.890, 1.101041
4061.819, 1.628929
4063.747, 2.116870
4065.676, 2.240901
4067.604, 2.171894
4069.533, 1.664971
4071.461, 1.351973
4073.390, 1.447090
4075.318, 1.605609
4077.247, 1.927554
4079.175, 1.827047
4081.104, 1.566140
4083.032, 1.619973
4084.960, 1.617385
4086.889, 1.448530
4088.817, 1.581276
4090.746, 1.532798
4092.674, 0.9090915
4094.603, 1.060077
4096.531, 2.046945
4098.460, 1.953972
4100.388, 1.495035
4102.317, 0.8732153
4104.245, 0.5890765
4106.174, 1.207527
4108.102, 1.318546
4110.031, 1.056677
4111.959, 1.044077
4113.888, 1.501796
4115.816, 2.225652
4117.745, 2.124450
4119.673, 1.975621
4121.602, 1.893144
4123.530, 1.807970
4125.458, 1.651482
4127.387, 1.761885
4129.315, 1.908506
4131.244, 2.161098
4133.172, 2.370958
4135.101, 2.261092
4137.029, 2.152697
4138.958, 1.993083
4140.886, 1.995203
4142.814, 1.691602
4144.743, 2.028228
4146.671, 2.138809
4148.600, 2.245656
4150.528, 1.873077
4152.457, 1.841608
4154.385, 1.878769
4156.314, 2.673879
4158.242, 2.056645
4160.171, 2.679579
4162.099, 2.959864
4164.028, 1.771289
4165.956, 1.452903
4167.885, 1.943336
4169.813, 1.692174
4171.742, 1.338757
4173.670, 1.372135
4175.599, 1.444850
4177.527, 1.495538
4179.456, 1.343262
4181.384, 1.433790
4183.313, 2.013237
4185.241, 2.316734
4187.169, 2.091578
4189.098, 2.160563
4191.026, 0.9830887
4192.955, 1.629806
4194.883, 1.476675
4196.812, 1.146214
4198.740, 2.437746
4200.668, 2.649433
4202.597, 1.297148
4204.525, 1.905591
4206.454, 2.770671
4208.382, 1.850800
4210.311, 1.172964
4212.239, 0.9883689
4214.168, 1.433467
4216.096, 2.023035
4218.025, 2.214878
4219.953, 2.140764
4221.882, 1.895588
4223.810, 2.472212
4225.739, 3.054055
4227.667, 3.145678
4229.596, 2.377078
4231.524, 2.885168
4233.453, 2.059119
4235.381, 2.930444
4237.310, 2.071195
4239.238, 1.772953
4241.167, 1.915626
4243.095, 1.614378
4245.023, 1.383112
4246.952, 1.388502
4248.880, 2.234332
4250.809, 3.069297
4252.737, 1.579873
4254.666, 0.9431285
4256.594, 2.310199
4258.522, 2.244226
4260.451, 1.691746
4262.379, 1.758756
4264.308, 2.065004
4266.236, 2.504678
4268.165, 2.162273
4270.093, 1.791346
4272.022, 2.083344
4273.950, 2.559780
4275.879, 2.977696
4277.807, 2.300570
4279.736, 1.513887
4281.664, 1.055196
4283.593, 1.035499
4285.521, 1.366917
4287.450, 2.154420
4289.378, 2.488497
4291.307, 1.970757
4293.235, 1.941530
4295.164, 2.079523
4297.092, 1.980231
4299.021, 1.905191
4300.949, 1.902784
4302.877, 2.163814
4304.806, 2.361393
4306.734, 2.222797
4308.663, 2.096459
4310.591, 1.977443
4312.520, 1.684756
4314.448, 1.563884
4316.376, 1.839304
4318.305, 1.328491
4320.233, 1.504138
4322.162, 1.162134
4324.090, 1.588711
4326.019, 1.811340
4327.947, 2.035290
4329.876, 2.341126
4331.804, 2.365078
4333.733, 2.376247
4335.661, 2.333217
4337.590, 2.090201
4339.518, 1.857224
4341.447, 1.532442
4343.375, 1.536720
4345.304, 1.787283
4347.232, 2.335607
4349.161, 2.465675
4351.089, 2.171400
4353.018, 2.037631
4354.946, 2.144928
4356.875, 2.602906
4358.803, 2.744019
4360.731, 2.486906
4362.660, 2.675187
4364.588, 2.690213
4366.517, 2.401833
4368.445, 2.557603
4370.374, 2.105216
4372.302, 1.360647
4374.230, 1.272280
4376.159, 1.637936
4378.087, 1.015937
4380.016, 1.290744
4381.944, 1.312886
4383.873, 1.625235
4385.801, 1.575619
4387.730, 1.812183
4389.658, 2.608851
4391.587, 2.177762
4393.515, 2.399008
4395.444, 2.554586
4397.372, 2.194428
4399.301, 1.601944
4401.229, 1.269873
4403.158, 1.253589
4405.086, 1.403094
4407.015, 1.567212
4408.943, 1.969789
4410.872, 2.502129
4412.800, 2.235394
4414.729, 1.900733
4416.657, 1.745276
4418.585, 2.383474
4420.514, 2.554702
4422.442, 2.092377
4424.371, 2.086977
4426.299, 2.130258
4428.228, 1.786017
4430.156, 2.065877
4432.084, 2.589693
4434.013, 2.428374
4435.941, 2.074455
4437.870, 1.661793
4439.798, 1.400214
4441.727, 1.295421
4443.655, 1.350292
4445.584, 1.690946
4447.512, 2.120271
4449.441, 2.102786
4451.369, 2.345862
4453.298, 2.961397
4455.226, 3.068856
4457.155, 3.088728
4459.083, 3.317902
4461.012, 3.120949
4462.940, 2.752277
4464.869, 2.733704
4466.797, 2.757893
4468.726, 2.760020
4470.654, 3.018757
4472.583, 2.713006
4474.511, 0.8023691
4476.439, 0.4534765
4478.368, 1.073726
4480.296, 2.240990
4482.225, 2.485905
4484.153, 1.809530
4486.082, 0.8711146
4488.010, 0.7701502
4489.938, 1.951397
4491.867, 2.004710
4493.795, 1.681589
4495.724, 1.762963
4497.652, 1.990911
4499.581, 2.310401
4501.509, 2.240136
4503.438, 2.909155
4505.366, 2.168458
4507.295, 2.103246
4509.223, 2.018798
4511.152, 1.218536
4513.080, 1.114398
4515.009, 1.428346
4516.937, 1.639697
4518.866, 2.134616
4520.794, 2.715954
4522.723, 1.511543
4524.651, 0.7906903
4526.580, 1.373749
4528.508, 1.735354
4530.437, 1.942261
4532.365, 2.158012
4534.293, 2.212004
4536.222, 2.083646
4538.150, 1.437106
4540.079, 1.691773
4542.007, 2.909484
4543.936, 1.472841
4545.864, 0.5074428
4547.792, 1.505727
4549.721, 2.172319
4551.649, 2.576117
4553.578, 3.114810
4555.506, 2.538073
4557.435, 1.623536
4559.363, 3.103953
4561.292, 3.208150
4563.220, 1.314763
4565.149, 2.127002
4567.077, 2.464271
4569.006, 0.5771187
4570.934, 1.395570
4572.863, 2.925763
4574.791, 3.090457
4576.720, 2.283764
4578.648, 1.373251
4580.577, 2.322380
4582.505, 2.892002
4584.434, 2.665838
4586.362, 3.087613
4588.291, 2.110893
4590.219, 2.942030
4592.147, 2.465682
4594.076, 2.119205
4596.004, 3.302269
4597.933, 3.119973
4599.861, 2.266337
4601.790, 2.223225
4603.718, 2.408474
4605.646, 2.681185
4607.575, 3.086738
4609.503, 2.869254
4611.432, 1.848348
4613.360, 2.469409
4615.289, 2.687183
4617.217, 1.328706
4619.146, 1.434912
4621.074, 2.040639
4623.003, 1.889553
4624.931, 1.702690
4626.860, 1.710897
4628.788, 2.543503
4630.717, 2.810524
4632.645, 2.413714
4634.574, 2.857209
4636.502, 1.815600
4638.431, 2.688117
4640.359, 2.300841
4642.288, 1.683287
4644.216, 1.506092
4646.145, 1.624646
4648.073, 1.748905
4650.001, 1.525269
4651.930, 1.647797
4653.858, 2.009951
4655.787, 2.599737
4657.715, 2.207968
4659.644, 1.327455
4661.572, 2.088071
4663.500, 3.301495
4665.429, 4.472867
4667.357, 3.002544
4669.286, 2.106149
4671.214, 2.970042
4673.143, 2.551419
4675.071, 1.841202
4677.000, 1.567606
4678.928, 1.886863
4680.857, 2.390980
4682.785, 2.578118
4684.714, 3.145100
4686.642, 3.618492
4688.571, 2.893979
4690.499, 2.057584
4692.428, 1.515387
4694.356, 2.153428
4696.285, 2.314607
4698.213, 1.778986
4700.142, 2.211296
4702.070, 2.466250
4703.999, 2.204561
4705.927, 2.090621
4707.855, 2.215711
4709.784, 2.661351
4711.712, 3.102727
4713.641, 3.091508
4715.569, 3.291346
4717.498, 3.181222
4719.426, 2.923192
4721.354, 2.548705
4723.283, 1.543084
4725.211, 0.6408736
4727.140, 1.182639
4729.068, 1.843607
4730.997, 2.430607
4732.925, 3.062426
4734.854, 3.179072
4736.782, 2.734654
4738.711, 1.556079
4740.639, 1.147375
4742.568, 1.810190
4744.496, 2.146204
4746.425, 2.017276
4748.353, 1.461720
4750.282, 1.644733
4752.210, 1.976270
4754.139, 2.124652
4756.067, 2.092952
4757.996, 2.199094
4759.924, 2.695224
4761.853, 3.041841
4763.781, 2.937451
4765.709, 1.957309
4767.638, 1.758374
4769.566, 2.113525
4771.495, 2.886391
4773.423, 2.455918
4775.352, 2.923947
4777.280, 2.736492
4779.208, 3.026251
4781.137, 2.732587
4783.065, 2.439166
4784.994, 2.281087
4786.922, 2.307854
4788.851, 2.779052
4790.779, 2.858731
4792.708, 2.524813
4794.636, 2.012449
4796.565, 2.046266
4798.493, 2.437603
4800.422, 0.7907210
4802.350, 0.8930251
4804.279, 2.753556
4806.207, 1.336535
4808.136, 0.7415755
4810.064, 2.160604
4811.993, 2.905190
4813.921, 2.891746
4815.850, 2.228600
4817.778, 1.882578
4819.707, 1.703030
4821.635, 1.607590
4823.563, 1.898620
4825.492, 2.079879
4827.420, 1.925146
4829.349, 1.296807
4831.277, 0.8764357
4833.206, 1.059226
4835.134, 1.881917
4837.063, 2.560864
4838.991, 2.658730
4840.919, 2.415111
4842.848, 1.947721
4844.776, 0.9853238
4846.705, 2.422714
4848.633, 3.590941
4850.562, 2.706983
4852.490, 2.328076
4854.419, 2.468459
4856.347, 3.206719
4858.276, 3.701621
4860.204, 3.218853
4862.133, 3.633981
4864.061, 2.163035
4865.990, 3.500141
4867.918, 2.132113
4869.847, 1.828539
4871.775, 1.829398
4873.704, 1.496453
4875.632, 1.618480
4877.561, 1.861342
4879.489, 1.930368
4881.417, 1.679285
4883.346, 1.499216
4885.274, 1.673077
4887.203, 1.499633
4889.131, 1.740350
4891.060, 1.648260
4892.988, 1.912106
4894.917, 2.405392
4896.845, 1.858540
4898.773, 2.969470
4900.702, 4.023768
4902.630, 3.670402
4904.559, 2.564904
4906.487, 1.757973
4908.416, 1.924094
4910.344, 1.264090
4912.273, 1.116100
4914.201, 2.337542
4916.130, 2.531643
4918.058, 2.477685
4919.987, 2.679989
4921.915, 2.954537
4923.844, 2.605205
4925.772, 2.787344
4927.701, 2.120037
4929.629, 2.674872
4931.558, 2.154927
4933.486, 1.972675
4935.415, 2.043083
4937.343, 2.315535
4939.271, 2.890876
4941.200, 2.869043
4943.128, 3.107441
4945.057, 3.157964
4946.985, 3.069870
4948.914, 3.023735
4950.842, 2.589875
4952.771, 2.386844
4954.699, 2.624671
4956.627, 3.977576
4958.556, 4.003662
4960.484, 2.954934
4962.413, 3.291073
4964.341, 2.702615
4966.270, 1.664053
4968.198, 2.076116
4970.127, 2.912343
4972.055, 3.434741
4973.984, 2.450967
4975.912, 2.316104
4977.841, 2.626639
4979.769, 2.457345
4981.698, 2.132714
4983.626, 1.917021
4985.555, 2.073659
4987.483, 2.316045
4989.412, 2.215139
4991.340, 1.388655
4993.269, 1.873626
4995.197, 2.171247
4997.125, 1.193941
4999.054, 1.690717
5000.982, 1.923437
5002.911, 1.311441
5004.839, 1.818201
5006.768, 2.475384
5008.696, 2.881498
5010.625, 2.767579
5012.553, 3.079241
5014.481, 3.700820
5016.410, 3.384360
5018.338, 2.717335
5020.267, 2.118724
5022.195, 2.394966
5024.124, 2.475484
5026.052, 2.375738
5027.981, 2.269639
5029.909, 2.176588
5031.838, 2.259130
5033.766, 2.053899
5035.695, 2.225530
5037.623, 2.591285
5039.552, 2.056817
5041.480, 2.031739
5043.409, 2.608816
5045.337, 2.137152
5047.266, 2.519310
5049.194, 1.836334
5051.123, 2.206486
5053.051, 2.035182
5054.979, 1.896896
5056.908, 1.876639
5058.836, 1.652108
5060.765, 2.357887
5062.693, 3.265746
5064.622, 2.804300
5066.550, 2.382644
5068.479, 2.007301
5070.407, 1.540566
5072.335, 1.445947
5074.264, 1.595325
5076.192, 1.914850
5078.121, 1.451173
5080.049, 1.153899
5081.978, 1.332457
5083.906, 0.7862933
5085.835, 1.627113
5087.763, 1.733842
5089.692, 3.349385
5091.620, 2.743035
5093.549, 2.296154
5095.477, 2.910653
5097.406, 2.212559
5099.334, 1.555243
5101.263, 2.621691
5103.191, 1.958426
5105.120, 1.367635
5107.048, 2.115688
5108.977, 1.846181
5110.905, 1.288258
5112.833, 0.9029122
5114.762, 1.852584
5116.690, 2.225774
5118.619, 1.831922
5120.547, 2.419044
5122.476, 1.579445
5124.404, 2.798819
5126.333, 1.864351
5128.261, 2.185097
5130.189, 2.551535
5132.118, 2.023103
5134.046, 2.110548
5135.975, 2.019145
5137.903, 1.689793
5139.832, 3.111390
5141.760, 3.454305
5143.689, 2.958216
5145.617, 3.602158
5147.546, 3.166180
5149.474, 2.344242
5151.403, 1.960537
5153.331, 2.787999
5155.260, 3.245370
5157.188, 2.574391
5159.117, 2.139109
5161.045, 1.766184
5162.974, 1.548873
5164.902, 2.101460
5166.831, 3.049005
5168.759, 3.731539
5170.688, 3.208313
5172.616, 2.563006
5174.544, 2.557421
5176.473, 2.036616
5178.401, 2.624214
5180.330, 1.549188
5182.258, 1.149147
5184.187, 1.177399
5186.115, 2.295709
5188.043, 3.460053
5189.972, 2.394281
5191.900, 2.177333
5193.829, 2.361800
5195.757, 2.304035
5197.686, 1.515097
5199.614, 1.544813
5201.543, 2.803838
5203.471, 4.152062
5205.400, 4.313051
5207.328, 3.430308
5209.257, 1.892946
5211.185, 1.168020
5213.114, 1.427318
5215.042, 2.967388
5216.971, 2.654726
5218.899, 2.040827
5220.828, 1.786093
5222.756, 2.132746
5224.685, 2.228142
5226.613, 2.060718
5228.542, 1.636912
5230.470, 2.525612
5232.398, 3.085474
5234.327, 2.218402
5236.255, 2.436854
5238.184, 3.022928
5240.112, 3.365766
5242.041, 2.133013
5243.969, 1.657378
5245.897, 1.723090
5247.826, 1.676574
5249.754, 1.939975
5251.683, 1.817235
5253.611, 1.114468
5255.540, 1.207424
5257.468, -0.1272873
5259.397, 0.3319013
5261.325, -1.078016
5263.254, 0.8798731
5265.182, 2.594789
5267.111, 3.127968
5269.039, 2.819663
5270.968, 2.561227
5272.896, 2.582038
5274.825, 2.753097
5276.753, 2.715791
5278.682, 2.454871
5280.610, 1.879788
5282.539, 1.913607
5284.467, 1.719760
5286.396, 1.234671
5288.324, 2.327731
5290.252, 2.582391
5292.181, 2.101282
5294.109, 1.454862
5296.038, 2.122971
5297.966, 2.178946
5299.895, 0.8617323
5301.823, 2.235010
5303.751, 2.370728
5305.680, 1.691559
5307.608, 2.464053
5309.537, 1.898287
5311.465, 1.951565
5313.394, 1.729161
5315.322, 2.008933
5317.251, 2.834171
5319.179, 3.269705
5321.108, 2.626971
5323.036, 2.138672
5324.965, 1.707605
5326.893, 1.254331
5328.822, 1.814770
5330.750, 2.002990
5332.679, 1.753483
5334.607, 1.624681
5336.536, 2.726264
5338.464, 3.218269
5340.393, 2.013711
5342.321, 1.893571
5344.250, 0.8709263
5346.178, -0.1536235
5348.106, 2.297283
5350.035, 2.760027
5351.963, 2.629648
5353.892, 2.966593
5355.820, 1.757585
5357.749, 1.995025
5359.677, 3.327048
5361.605, 4.041978
5363.534, 2.571355
5365.462, 1.875490
5367.391, 3.273226
5369.319, 2.680971
5371.248, 2.638869
5373.176, 3.118218
5375.105, 3.304289
5377.033, 3.100356
5378.962, 2.659500
5380.890, 2.096082
5382.819, 2.151887
5384.747, 1.545321
5386.676, 2.149244
5388.604, 2.346092
5390.533, 2.380437
5392.461, 2.606513
5394.390, 2.359349
5396.318, 2.631776
5398.247, 2.874935
5400.175, 2.813921
5402.104, 2.329367
5404.032, 3.314191
5405.960, 3.121637
5407.889, 2.181844
5409.817, 2.915880
5411.746, 1.867698
5413.674, 1.598685
5415.603, 2.935354
5417.531, 2.703870
5419.459, 2.370119
5421.388, 2.115700
5423.316, 1.853705
5425.245, 2.547521
5427.173, 3.333535
5429.102, 3.504015
5431.030, 1.620643
5432.959, 1.172154
5434.887, 1.912722
5436.816, 3.116479
5438.744, 1.527129
5440.673, 1.047801
5442.601, 1.398652
5444.530, 1.240191
5446.458, 2.459111
5448.387, 3.022289
5450.315, 2.618890
5452.244, 2.852047
5454.172, 2.734457
5456.101, 2.038435
5458.029, 2.406316
5459.958, 2.163851
5461.886, 2.473626
5463.814, 2.021441
5465.743, 1.731504
5467.671, 2.628001
5469.600, 2.989278
5471.528, 2.444285
5473.457, 1.255078
5475.385, 2.519074
5477.313, 3.245572
5479.242, 2.118177
5481.170, 2.678294
5483.099, 2.725138
5485.027, 2.319608
5486.956, 1.950747
5488.884, 2.488818
5490.813, 2.900582
5492.741, 2.751063
5494.670, 1.665298
5496.598, 0.5831364
5498.527, 1.035483
5500.455, 2.688169
##END=



