##NAMES=Murphyite
##RRUFFID=R210011
##IDEAL CHEMISTRY=Pb(Te^6+^O_4_)
##LOCALITY=Grand Central mine, Tombstone, Arizona, USA
##OWNER=RRUFF
##SOURCE=Bruce Murphy
##DESCRIPTION=Colorless prismatic crystals, associated with chlorargyrite, emmonsite, ottoite, stolzite, scheelite, schieffelinite, quartz, and jarosite.
##STATUS=The identification of this mineral has been confirmed by X-ray diffraction and chemical analysis
##URL=https://www.rruff.net/odr/rruff_sample/R210011
##MEASURED CHEMISTRY=(Pb_0.96_Fe_0.03_Mn_0.02_)(Te_0.61_W_0.38_)O_4_
##DIFFRACTION SAMPLE DESCRIPTION=Single crystal, powder profile is calculated
##CELL PARAMETERS=a: 13.6089 b: 5.0175 c: 5.5767 alpha: 90 beta: 107.928 gamma: 90 volume: 362.302 crystal system: unknown
##FILETYPE=Raman RAW
##RAMAN WAVELENGTH=532

9.324341e+001, 0.000000e+000
9.517188e+001, 7.858475e+002
9.710034e+001, 8.446740e+002
9.902881e+001, 8.835858e+002
1.009573e+002, 9.040829e+002
1.028857e+002, 9.222209e+002
1.048142e+002, 9.467904e+002
1.067427e+002, 9.847882e+002
1.086711e+002, 1.020833e+003
1.105996e+002, 1.058918e+003
1.125281e+002, 1.099648e+003
1.144565e+002, 1.123601e+003
1.163850e+002, 1.128798e+003
1.183135e+002, 1.124437e+003
1.202419e+002, 1.111203e+003
1.221704e+002, 1.085567e+003
1.240989e+002, 1.064629e+003
1.260273e+002, 1.047337e+003
1.279558e+002, 1.033307e+003
1.298843e+002, 1.034535e+003
1.318127e+002, 1.057044e+003
1.337412e+002, 1.091613e+003
1.356697e+002, 1.129010e+003
1.375981e+002, 1.167687e+003
1.395266e+002, 1.210703e+003
1.414551e+002, 1.263561e+003
1.433835e+002, 1.327819e+003
1.453120e+002, 1.380739e+003
1.472405e+002, 1.408616e+003
1.491689e+002, 1.423347e+003
1.510974e+002, 1.442565e+003
1.530259e+002, 1.472952e+003
1.549543e+002, 1.502945e+003
1.568828e+002, 1.532139e+003
1.588113e+002, 1.563224e+003
1.607397e+002, 1.576470e+003
1.626682e+002, 1.560876e+003
1.645967e+002, 1.522230e+003
1.665251e+002, 1.480657e+003
1.684536e+002, 1.427378e+003
1.703821e+002, 1.378770e+003
1.723105e+002, 1.341810e+003
1.742390e+002, 1.318918e+003
1.761675e+002, 1.305435e+003
1.780959e+002, 1.299640e+003
1.800244e+002, 1.303518e+003
1.819529e+002, 1.317391e+003
1.838813e+002, 1.343366e+003
1.858098e+002, 1.379900e+003
1.877383e+002, 1.425287e+003
1.896667e+002, 1.488066e+003
1.915952e+002, 1.552915e+003
1.935237e+002, 1.621329e+003
1.954521e+002, 1.692712e+003
1.973806e+002, 1.761043e+003
1.993091e+002, 1.829907e+003
2.012375e+002, 1.893717e+003
2.031660e+002, 1.946938e+003
2.050945e+002, 1.996906e+003
2.070229e+002, 2.027516e+003
2.089514e+002, 2.030503e+003
2.108799e+002, 2.007978e+003
2.128083e+002, 1.971348e+003
2.147368e+002, 1.920973e+003
2.166653e+002, 1.858178e+003
2.185938e+002, 1.781964e+003
2.205222e+002, 1.685072e+003
2.224507e+002, 1.588997e+003
2.243792e+002, 1.496636e+003
2.263076e+002, 1.403238e+003
2.282361e+002, 1.333930e+003
2.301646e+002, 1.294070e+003
2.320930e+002, 1.276067e+003
2.340215e+002, 1.267391e+003
2.359500e+002, 1.269903e+003
2.378784e+002, 1.280698e+003
2.398069e+002, 1.298609e+003
2.417354e+002, 1.325197e+003
2.436638e+002, 1.356768e+003
2.455923e+002, 1.395508e+003
2.475208e+002, 1.438635e+003
2.494492e+002, 1.482875e+003
2.513777e+002, 1.530985e+003
2.533062e+002, 1.576517e+003
2.552346e+002, 1.616858e+003
2.571631e+002, 1.651370e+003
2.590916e+002, 1.685130e+003
2.610200e+002, 1.727956e+003
2.629485e+002, 1.767668e+003
2.648770e+002, 1.787211e+003
2.668054e+002, 1.781951e+003
2.687339e+002, 1.761190e+003
2.706624e+002, 1.716958e+003
2.725908e+002, 1.650821e+003
2.745193e+002, 1.593908e+003
2.764478e+002, 1.545546e+003
2.783762e+002, 1.510572e+003
2.803047e+002, 1.500058e+003
2.822332e+002, 1.521748e+003
2.841616e+002, 1.556579e+003
2.860901e+002, 1.604903e+003
2.880186e+002, 1.665443e+003
2.899470e+002, 1.726824e+003
2.918755e+002, 1.792874e+003
2.938040e+002, 1.857132e+003
2.957324e+002, 1.911483e+003
2.976609e+002, 1.959167e+003
2.995894e+002, 1.993940e+003
3.015178e+002, 2.011639e+003
3.034463e+002, 2.012155e+003
3.053748e+002, 2.007537e+003
3.073032e+002, 2.003443e+003
3.092317e+002, 1.992640e+003
3.111602e+002, 1.971586e+003
3.130886e+002, 1.949676e+003
3.150171e+002, 1.898189e+003
3.169456e+002, 1.802918e+003
3.188740e+002, 1.663249e+003
3.208025e+002, 1.528090e+003
3.227310e+002, 1.385388e+003
3.246594e+002, 1.255432e+003
3.265879e+002, 1.150638e+003
3.285164e+002, 1.072398e+003
3.304448e+002, 1.013524e+003
3.323733e+002, 9.724927e+002
3.343018e+002, 9.487622e+002
3.362302e+002, 9.332448e+002
3.381587e+002, 9.273962e+002
3.400872e+002, 9.280031e+002
3.420156e+002, 9.330907e+002
3.439441e+002, 9.431901e+002
3.458726e+002, 9.564073e+002
3.478010e+002, 9.715011e+002
3.497295e+002, 9.894299e+002
3.516580e+002, 1.011591e+003
3.535864e+002, 1.036721e+003
3.555149e+002, 1.067752e+003
3.574434e+002, 1.103551e+003
3.593718e+002, 1.141623e+003
3.613003e+002, 1.194204e+003
3.632288e+002, 1.256231e+003
3.651572e+002, 1.334493e+003
3.670857e+002, 1.432922e+003
3.690142e+002, 1.542408e+003
3.709426e+002, 1.690031e+003
3.728711e+002, 1.874444e+003
3.747996e+002, 2.096221e+003
3.767280e+002, 2.371847e+003
3.786565e+002, 2.742553e+003
3.805850e+002, 3.137262e+003
3.825134e+002, 3.519927e+003
3.844419e+002, 3.928713e+003
3.863704e+002, 4.216872e+003
3.882988e+002, 4.369842e+003
3.902273e+002, 4.385447e+003
3.921558e+002, 4.282707e+003
3.940842e+002, 4.007284e+003
3.960127e+002, 3.675328e+003
3.979412e+002, 3.327548e+003
3.998696e+002, 2.950671e+003
4.017981e+002, 2.617529e+003
4.037266e+002, 2.330245e+003
4.056550e+002, 2.087027e+003
4.075835e+002, 1.884418e+003
4.095120e+002, 1.724909e+003
4.114404e+002, 1.595115e+003
4.133689e+002, 1.492176e+003
4.152974e+002, 1.416855e+003
4.172258e+002, 1.353128e+003
4.191543e+002, 1.301876e+003
4.210828e+002, 1.259851e+003
4.230112e+002, 1.225390e+003
4.249397e+002, 1.198242e+003
4.268682e+002, 1.177388e+003
4.287966e+002, 1.163077e+003
4.307251e+002, 1.154761e+003
4.326536e+002, 1.152008e+003
4.345820e+002, 1.155269e+003
4.365105e+002, 1.162934e+003
4.384390e+002, 1.175236e+003
4.403674e+002, 1.191589e+003
4.422959e+002, 1.211106e+003
4.442244e+002, 1.234979e+003
4.461528e+002, 1.261171e+003
4.480813e+002, 1.288194e+003
4.500098e+002, 1.321422e+003
4.519382e+002, 1.348350e+003
4.538667e+002, 1.364934e+003
4.557952e+002, 1.372983e+003
4.577236e+002, 1.376830e+003
4.596521e+002, 1.376433e+003
4.615806e+002, 1.372026e+003
4.635090e+002, 1.363622e+003
4.654375e+002, 1.351537e+003
4.673660e+002, 1.334340e+003
4.692944e+002, 1.307221e+003
4.712229e+002, 1.276520e+003
4.731514e+002, 1.249702e+003
4.750798e+002, 1.229218e+003
4.770083e+002, 1.210012e+003
4.789368e+002, 1.190221e+003
4.808652e+002, 1.170297e+003
4.827937e+002, 1.153516e+003
4.847222e+002, 1.138531e+003
4.866506e+002, 1.128132e+003
4.885791e+002, 1.123478e+003
4.905076e+002, 1.126459e+003
4.924360e+002, 1.130548e+003
4.943645e+002, 1.136360e+003
4.962930e+002, 1.142353e+003
4.982214e+002, 1.146817e+003
5.001499e+002, 1.151018e+003
5.020784e+002, 1.151078e+003
5.040068e+002, 1.145346e+003
5.059353e+002, 1.134240e+003
5.078638e+002, 1.121807e+003
5.097922e+002, 1.105901e+003
5.117207e+002, 1.090887e+003
5.136492e+002, 1.079383e+003
5.155776e+002, 1.071194e+003
5.175061e+002, 1.064825e+003
5.194346e+002, 1.059624e+003
5.213630e+002, 1.056205e+003
5.232915e+002, 1.055549e+003
5.252200e+002, 1.059511e+003
5.271484e+002, 1.063994e+003
5.290769e+002, 1.068590e+003
5.310054e+002, 1.073363e+003
5.329338e+002, 1.078577e+003
5.348623e+002, 1.085006e+003
5.367908e+002, 1.090916e+003
5.387192e+002, 1.095901e+003
5.406477e+002, 1.100072e+003
5.425762e+002, 1.102252e+003
5.445046e+002, 1.100668e+003
5.464331e+002, 1.098353e+003
5.483616e+002, 1.097746e+003
5.502900e+002, 1.099493e+003
5.522185e+002, 1.101293e+003
5.541470e+002, 1.102028e+003
5.560754e+002, 1.102556e+003
5.580039e+002, 1.105033e+003
5.599324e+002, 1.109794e+003
5.618608e+002, 1.115392e+003
5.637893e+002, 1.120562e+003
5.657178e+002, 1.125589e+003
5.676462e+002, 1.133375e+003
5.695747e+002, 1.146405e+003
5.715032e+002, 1.160387e+003
5.734316e+002, 1.173929e+003
5.753601e+002, 1.187374e+003
5.772886e+002, 1.198364e+003
5.792170e+002, 1.205836e+003
5.811455e+002, 1.211094e+003
5.830740e+002, 1.215554e+003
5.850024e+002, 1.219754e+003
5.869309e+002, 1.222049e+003
5.888594e+002, 1.222612e+003
5.907878e+002, 1.221187e+003
5.927163e+002, 1.217030e+003
5.946448e+002, 1.208465e+003
5.965732e+002, 1.200303e+003
5.985017e+002, 1.194365e+003
6.004302e+002, 1.190510e+003
6.023586e+002, 1.187439e+003
6.042871e+002, 1.182874e+003
6.062156e+002, 1.180856e+003
6.081440e+002, 1.183059e+003
6.100725e+002, 1.189289e+003
6.120010e+002, 1.200852e+003
6.139294e+002, 1.216976e+003
6.158579e+002, 1.239523e+003
6.177864e+002, 1.268750e+003
6.197148e+002, 1.300022e+003
6.216433e+002, 1.348019e+003
6.235718e+002, 1.415042e+003
6.255002e+002, 1.498990e+003
6.274287e+002, 1.597943e+003
6.293572e+002, 1.719660e+003
6.312856e+002, 1.838063e+003
6.332141e+002, 1.952417e+003
6.351426e+002, 2.060463e+003
6.370710e+002, 2.140515e+003
6.389995e+002, 2.180876e+003
6.409280e+002, 2.206323e+003
6.428564e+002, 2.219582e+003
6.447849e+002, 2.221327e+003
6.467134e+002, 2.222785e+003
6.486418e+002, 2.223782e+003
6.505703e+002, 2.225318e+003
6.524988e+002, 2.228679e+003
6.544272e+002, 2.236491e+003
6.563557e+002, 2.239268e+003
6.582842e+002, 2.237047e+003
6.602126e+002, 2.230818e+003
6.621411e+002, 2.219378e+003
6.640696e+002, 2.200667e+003
6.659980e+002, 2.188510e+003
6.679265e+002, 2.185098e+003
6.698550e+002, 2.190582e+003
6.717834e+002, 2.206485e+003
6.737119e+002, 2.233419e+003
6.756404e+002, 2.270353e+003
6.775688e+002, 2.320974e+003
6.794973e+002, 2.381815e+003
6.814258e+002, 2.444265e+003
6.833542e+002, 2.517694e+003
6.852827e+002, 2.575366e+003
6.872112e+002, 2.606657e+003
6.891396e+002, 2.613017e+003
6.910681e+002, 2.614396e+003
6.929966e+002, 2.596510e+003
6.949250e+002, 2.588278e+003
6.968535e+002, 2.592222e+003
6.987820e+002, 2.610816e+003
7.007104e+002, 2.672836e+003
7.026389e+002, 2.782548e+003
7.045674e+002, 2.940229e+003
7.064958e+002, 3.145234e+003
7.084243e+002, 3.405109e+003
7.103528e+002, 3.696507e+003
7.122813e+002, 4.040344e+003
7.142097e+002, 4.399119e+003
7.161382e+002, 4.762927e+003
7.180667e+002, 5.145878e+003
7.199951e+002, 5.449310e+003
7.219236e+002, 5.669973e+003
7.238521e+002, 5.787942e+003
7.257805e+002, 5.772014e+003
7.277090e+002, 5.567368e+003
7.296375e+002, 5.293840e+003
7.315659e+002, 4.914265e+003
7.334944e+002, 4.481584e+003
7.354229e+002, 4.067667e+003
7.373513e+002, 3.667619e+003
7.392798e+002, 3.299918e+003
7.412083e+002, 2.965150e+003
7.431367e+002, 2.665384e+003
7.450652e+002, 2.409732e+003
7.469937e+002, 2.206825e+003
7.489221e+002, 2.042336e+003
7.508506e+002, 1.921560e+003
7.527791e+002, 1.841839e+003
7.547075e+002, 1.785658e+003
7.566360e+002, 1.756600e+003
7.585645e+002, 1.745528e+003
7.604929e+002, 1.753325e+003
7.624214e+002, 1.777049e+003
7.643499e+002, 1.801320e+003
7.662783e+002, 1.825398e+003
7.682068e+002, 1.850537e+003
7.701353e+002, 1.879980e+003
7.720637e+002, 1.911601e+003
7.739922e+002, 1.935194e+003
7.759207e+002, 1.949033e+003
7.778491e+002, 1.956159e+003
7.797776e+002, 1.957332e+003
7.817061e+002, 1.952712e+003
7.836345e+002, 1.947161e+003
7.855630e+002, 1.943696e+003
7.874915e+002, 1.937098e+003
7.894199e+002, 1.924587e+003
7.913484e+002, 1.906184e+003
7.932769e+002, 1.886575e+003
7.952053e+002, 1.863097e+003
7.971338e+002, 1.841367e+003
7.990623e+002, 1.825284e+003
8.009907e+002, 1.815187e+003
8.029192e+002, 1.800860e+003
8.048477e+002, 1.775014e+003
8.067761e+002, 1.750721e+003
8.087046e+002, 1.735074e+003
8.106331e+002, 1.729063e+003
8.125615e+002, 1.723848e+003
8.144900e+002, 1.720913e+003
8.164185e+002, 1.717429e+003
8.183469e+002, 1.712875e+003
8.202754e+002, 1.707483e+003
8.222039e+002, 1.697314e+003
8.241323e+002, 1.679596e+003
8.260608e+002, 1.658769e+003
8.279893e+002, 1.636029e+003
8.299177e+002, 1.610555e+003
8.318462e+002, 1.586719e+003
8.337747e+002, 1.561306e+003
8.357031e+002, 1.540471e+003
8.376316e+002, 1.524668e+003
8.395601e+002, 1.513574e+003
8.414885e+002, 1.517844e+003
8.434170e+002, 1.538716e+003
8.453455e+002, 1.576326e+003
8.472739e+002, 1.629318e+003
8.492024e+002, 1.697146e+003
8.511309e+002, 1.794249e+003
8.530593e+002, 1.907368e+003
8.549878e+002, 2.061036e+003
8.569163e+002, 2.257332e+003
8.588447e+002, 2.495358e+003
8.607732e+002, 2.819880e+003
8.627017e+002, 3.218356e+003
8.646301e+002, 3.732104e+003
8.665586e+002, 4.386546e+003
8.684871e+002, 5.190085e+003
8.704155e+002, 6.085913e+003
8.723440e+002, 7.239169e+003
8.742725e+002, 8.322389e+003
8.762009e+002, 9.266455e+003
8.781294e+002, 1.004458e+004
8.800579e+002, 1.037877e+004
8.819863e+002, 1.011377e+004
8.839148e+002, 9.518736e+003
8.858433e+002, 8.642808e+003
8.877717e+002, 7.473866e+003
8.897002e+002, 6.405853e+003
8.916287e+002, 5.411375e+003
8.935571e+002, 4.531892e+003
8.954856e+002, 3.791918e+003
8.974141e+002, 3.189950e+003
8.993425e+002, 2.689925e+003
9.012710e+002, 2.307934e+003
9.031995e+002, 2.005692e+003
9.051279e+002, 1.777387e+003
9.070564e+002, 1.615331e+003
9.089849e+002, 1.484754e+003
9.109133e+002, 1.401337e+003
9.128418e+002, 1.334300e+003
9.147703e+002, 1.280605e+003
9.166987e+002, 1.239545e+003
9.186272e+002, 1.208120e+003
9.205557e+002, 1.188921e+003
9.224841e+002, 1.173114e+003
9.244126e+002, 1.159333e+003
9.263411e+002, 1.147283e+003
9.282695e+002, 1.136594e+003
9.301980e+002, 1.127969e+003
9.321265e+002, 1.120074e+003
9.340549e+002, 1.112016e+003
9.359834e+002, 1.104687e+003
9.379119e+002, 1.099542e+003
9.398403e+002, 1.096928e+003
9.417688e+002, 1.095089e+003
9.436973e+002, 1.093622e+003
9.456257e+002, 1.092750e+003
9.475542e+002, 1.093180e+003
9.494827e+002, 1.095401e+003
9.514111e+002, 1.096041e+003
9.533396e+002, 1.093121e+003
9.552681e+002, 1.089461e+003
9.571965e+002, 1.086827e+003
9.591250e+002, 1.085316e+003
9.610535e+002, 1.084606e+003
9.629819e+002, 1.084657e+003
9.649104e+002, 1.085204e+003
9.668389e+002, 1.086490e+003
9.687673e+002, 1.088281e+003
9.706958e+002, 1.088711e+003
9.726243e+002, 1.085967e+003
9.745527e+002, 1.084128e+003
9.764812e+002, 1.085910e+003
9.784097e+002, 1.091105e+003
9.803381e+002, 1.094324e+003
9.822666e+002, 1.094211e+003
9.841951e+002, 1.093885e+003
9.861235e+002, 1.093375e+003
9.880520e+002, 1.093168e+003
9.899805e+002, 1.094971e+003
9.919089e+002, 1.099787e+003
9.938374e+002, 1.103969e+003
9.957659e+002, 1.105410e+003
9.976943e+002, 1.105738e+003
9.996228e+002, 1.107394e+003
1.001551e+003, 1.111068e+003
1.003480e+003, 1.113840e+003
1.005408e+003, 1.114999e+003
1.007337e+003, 1.115277e+003
1.009265e+003, 1.115186e+003
1.011194e+003, 1.114309e+003
1.013122e+003, 1.114645e+003
1.015051e+003, 1.116792e+003
1.016979e+003, 1.119781e+003
1.018907e+003, 1.123294e+003
1.020836e+003, 1.127209e+003
1.022764e+003, 1.130828e+003
1.024693e+003, 1.134280e+003
1.026621e+003, 1.137042e+003
1.028550e+003, 1.138227e+003
1.030478e+003, 1.138228e+003
1.032407e+003, 1.140240e+003
1.034335e+003, 1.145178e+003
1.036264e+003, 1.151179e+003
1.038192e+003, 1.160246e+003
1.040121e+003, 1.169687e+003
1.042049e+003, 1.172860e+003
1.043978e+003, 1.167155e+003
1.045906e+003, 1.163565e+003
1.047834e+003, 1.166781e+003
1.049763e+003, 1.171915e+003
1.051691e+003, 1.174696e+003
1.053620e+003, 1.174947e+003
1.055548e+003, 1.174522e+003
1.057477e+003, 1.172831e+003
1.059405e+003, 1.171617e+003
1.061334e+003, 1.172033e+003
1.063262e+003, 1.174246e+003
1.065191e+003, 1.176236e+003
1.067119e+003, 1.178526e+003
1.069048e+003, 1.179849e+003
1.070976e+003, 1.179265e+003
1.072905e+003, 1.177243e+003
1.074833e+003, 1.174981e+003
1.076761e+003, 1.171982e+003
1.078690e+003, 1.170096e+003
1.080618e+003, 1.170624e+003
1.082547e+003, 1.172327e+003
1.084475e+003, 1.174006e+003
1.086404e+003, 1.175957e+003
1.088332e+003, 1.177227e+003
1.090261e+003, 1.177164e+003
1.092189e+003, 1.177035e+003
1.094118e+003, 1.177577e+003
1.096046e+003, 1.178876e+003
1.097975e+003, 1.180947e+003
1.099903e+003, 1.184871e+003
1.101832e+003, 1.188273e+003
1.103760e+003, 1.189330e+003
1.105688e+003, 1.189174e+003
1.107617e+003, 1.190381e+003
1.109545e+003, 1.193501e+003
1.111474e+003, 1.196459e+003
1.113402e+003, 1.199406e+003
1.115331e+003, 1.201305e+003
1.117259e+003, 1.200644e+003
1.119188e+003, 1.195053e+003
1.121116e+003, 1.192478e+003
1.123045e+003, 1.196115e+003
1.124973e+003, 1.199956e+003
1.126902e+003, 1.199756e+003
1.128830e+003, 1.196291e+003
1.130759e+003, 1.195782e+003
1.132687e+003, 1.199975e+003
1.134615e+003, 1.204485e+003
1.136544e+003, 1.207710e+003
1.138472e+003, 1.209875e+003
1.140401e+003, 1.211057e+003
1.142329e+003, 1.210473e+003
1.144258e+003, 1.210594e+003
1.146186e+003, 1.212103e+003
1.148115e+003, 1.214111e+003
1.150043e+003, 1.216288e+003
1.151972e+003, 1.218934e+003
1.153900e+003, 1.220579e+003
1.155829e+003, 1.220839e+003
1.157757e+003, 1.221105e+003
1.159686e+003, 1.221381e+003
1.161614e+003, 1.222234e+003
1.163542e+003, 1.225197e+003
1.165471e+003, 1.231293e+003
1.167399e+003, 1.235905e+003
1.169328e+003, 1.235435e+003
1.171256e+003, 1.234194e+003
1.173185e+003, 1.236684e+003
1.175113e+003, 1.243570e+003
1.177042e+003, 1.247777e+003
1.178970e+003, 1.246126e+003
1.180899e+003, 1.244352e+003
1.182827e+003, 1.245012e+003
1.184756e+003, 1.247496e+003
1.186684e+003, 1.248762e+003
1.188613e+003, 1.247309e+003
1.190541e+003, 1.247001e+003
1.192469e+003, 1.249311e+003
1.194398e+003, 1.252322e+003
1.196326e+003, 1.253820e+003
1.198255e+003, 1.253804e+003
1.200183e+003, 1.254206e+003
1.202112e+003, 1.255841e+003
1.204040e+003, 1.257307e+003
1.205969e+003, 1.258118e+003
1.207897e+003, 1.258430e+003
1.209826e+003, 1.258257e+003
1.211754e+003, 1.256604e+003
1.213683e+003, 1.256866e+003
1.215611e+003, 1.261481e+003
1.217540e+003, 1.266757e+003
1.219468e+003, 1.268849e+003
1.221396e+003, 1.266695e+003
1.223325e+003, 1.265586e+003
1.225253e+003, 1.264872e+003
1.227182e+003, 1.265437e+003
1.229110e+003, 1.268300e+003
1.231039e+003, 1.272583e+003
1.232967e+003, 1.276378e+003
1.234896e+003, 1.279843e+003
1.236824e+003, 1.283013e+003
1.238753e+003, 1.287536e+003
1.240681e+003, 1.290667e+003
1.242610e+003, 1.288995e+003
1.244538e+003, 1.282974e+003
1.246467e+003, 1.281624e+003
1.248395e+003, 1.288413e+003
1.250323e+003, 1.295533e+003
1.252252e+003, 1.300837e+003
1.254180e+003, 1.304744e+003
1.256109e+003, 1.307951e+003
1.258037e+003, 1.309678e+003
1.259966e+003, 1.311911e+003
1.261894e+003, 1.315885e+003
1.263823e+003, 1.319311e+003
1.265751e+003, 1.320963e+003
1.267680e+003, 1.321247e+003
1.269608e+003, 1.321448e+003
1.271537e+003, 1.321337e+003
1.273465e+003, 1.322183e+003
1.275394e+003, 1.324903e+003
1.277322e+003, 1.328299e+003
1.279250e+003, 1.331357e+003
1.281179e+003, 1.333938e+003
1.283107e+003, 1.335875e+003
1.285036e+003, 1.336417e+003
1.286964e+003, 1.337034e+003
1.288893e+003, 1.338914e+003
1.290821e+003, 1.341017e+003
1.292750e+003, 1.341351e+003
1.294678e+003, 1.338732e+003
1.296607e+003, 1.337399e+003
1.298535e+003, 1.338274e+003
1.300464e+003, 1.339806e+003
1.302392e+003, 1.341664e+003
1.304321e+003, 1.343630e+003
1.306249e+003, 1.344287e+003
1.308177e+003, 1.342105e+003
1.310106e+003, 1.341977e+003
1.312034e+003, 1.347036e+003
1.313963e+003, 1.352878e+003
1.315891e+003, 1.355265e+003
1.317820e+003, 1.354860e+003
1.319748e+003, 1.355855e+003
1.321677e+003, 1.358802e+003
1.323605e+003, 1.362712e+003
1.325534e+003, 1.368660e+003
1.327462e+003, 1.374483e+003
1.329391e+003, 1.377259e+003
1.331319e+003, 1.376382e+003
1.333248e+003, 1.376396e+003
1.335176e+003, 1.377475e+003
1.337104e+003, 1.379971e+003
1.339033e+003, 1.385849e+003
1.340961e+003, 1.392895e+003
1.342890e+003, 1.396058e+003
1.344818e+003, 1.391850e+003
1.346747e+003, 1.390065e+003
1.348675e+003, 1.391968e+003
1.350604e+003, 1.394723e+003
1.352532e+003, 1.397241e+003
1.354461e+003, 1.399397e+003
1.356389e+003, 1.401006e+003
1.358318e+003, 1.402455e+003
1.360246e+003, 1.402872e+003
1.362175e+003, 1.400745e+003
1.364103e+003, 1.399220e+003
1.366031e+003, 1.401467e+003
1.367960e+003, 1.406354e+003
1.369888e+003, 1.409069e+003
1.371817e+003, 1.407887e+003
1.373745e+003, 1.408391e+003
1.375674e+003, 1.413282e+003
1.377602e+003, 1.419365e+003
1.379531e+003, 1.424184e+003
1.381459e+003, 1.427583e+003
1.383388e+003, 1.430950e+003
1.385316e+003, 1.434721e+003
1.387245e+003, 1.437538e+003
1.389173e+003, 1.439209e+003
1.391102e+003, 1.439885e+003
1.393030e+003, 1.439811e+003
1.394958e+003, 1.439153e+003
1.396887e+003, 1.437552e+003
1.398815e+003, 1.432792e+003
1.400744e+003, 1.430408e+003
1.402672e+003, 1.433040e+003
1.404601e+003, 1.437930e+003
1.406529e+003, 1.441873e+003
1.408458e+003, 1.444802e+003
1.410386e+003, 1.447944e+003
1.412315e+003, 1.452151e+003
1.414243e+003, 1.455333e+003
1.416172e+003, 1.454671e+003
1.418100e+003, 1.453744e+003
1.420029e+003, 1.457822e+003
1.421957e+003, 1.466667e+003
1.423885e+003, 1.472769e+003
1.425814e+003, 1.473244e+003
1.427742e+003, 1.474158e+003
1.429671e+003, 1.479760e+003
1.431599e+003, 1.486192e+003
1.433528e+003, 1.488277e+003
1.435456e+003, 1.485734e+003
1.437385e+003, 1.484597e+003
1.439313e+003, 1.485789e+003
1.441242e+003, 1.488118e+003
1.443170e+003, 1.493055e+003
1.445099e+003, 1.497782e+003
1.447027e+003, 1.497873e+003
1.448956e+003, 1.491503e+003
1.450884e+003, 1.488931e+003
1.452813e+003, 1.492919e+003
1.454741e+003, 1.497393e+003
1.456669e+003, 1.502579e+003
1.458598e+003, 1.506740e+003
1.460526e+003, 1.507008e+003
1.462455e+003, 1.502521e+003
1.464383e+003, 1.500481e+003
1.466312e+003, 1.501306e+003
1.468240e+003, 1.503686e+003
1.470169e+003, 1.508345e+003
1.472097e+003, 1.513556e+003
1.474026e+003, 1.517711e+003
1.475954e+003, 1.520799e+003
1.477883e+003, 1.522403e+003
1.479811e+003, 1.521012e+003
1.481740e+003, 1.521523e+003
1.483668e+003, 1.526864e+003
1.485596e+003, 1.533847e+003
1.487525e+003, 1.539278e+003
1.489453e+003, 1.543490e+003
1.491382e+003, 1.549090e+003
1.493310e+003, 1.557264e+003
1.495239e+003, 1.562453e+003
1.497167e+003, 1.559508e+003
1.499096e+003, 1.555802e+003
1.501024e+003, 1.557233e+003
1.502953e+003, 1.562547e+003
1.504881e+003, 1.567069e+003
1.506810e+003, 1.571492e+003
1.508738e+003, 1.573403e+003
1.510667e+003, 1.569316e+003
1.512595e+003, 1.566317e+003
1.514523e+003, 1.569379e+003
1.516452e+003, 1.576342e+003
1.518380e+003, 1.580311e+003
1.520309e+003, 1.580068e+003
1.522237e+003, 1.580251e+003
1.524166e+003, 1.582064e+003
1.526094e+003, 1.583621e+003
1.528023e+003, 1.584256e+003
1.529951e+003, 1.584459e+003
1.531880e+003, 1.585062e+003
1.533808e+003, 1.586511e+003
1.535737e+003, 1.587246e+003
1.537665e+003, 1.584204e+003
1.539594e+003, 1.584158e+003
1.541522e+003, 1.591552e+003
1.543450e+003, 1.600652e+003
1.545379e+003, 1.604525e+003
1.547307e+003, 1.602753e+003
1.549236e+003, 1.601981e+003
1.551164e+003, 1.603553e+003
1.553093e+003, 1.604480e+003
1.555021e+003, 1.603880e+003
1.556950e+003, 1.603322e+003
1.558878e+003, 1.603961e+003
1.560807e+003, 1.605767e+003
1.562735e+003, 1.608230e+003
1.564664e+003, 1.611239e+003
1.566592e+003, 1.614872e+003
1.568521e+003, 1.620296e+003
1.570449e+003, 1.624626e+003
1.572377e+003, 1.625407e+003
1.574306e+003, 1.624275e+003
1.576234e+003, 1.624312e+003
1.578163e+003, 1.625496e+003
1.580091e+003, 1.627161e+003
1.582020e+003, 1.629808e+003
1.583948e+003, 1.632398e+003
1.585877e+003, 1.635169e+003
1.587805e+003, 1.637732e+003
1.589734e+003, 1.639837e+003
1.591662e+003, 1.641534e+003
1.593591e+003, 1.642151e+003
1.595519e+003, 1.640869e+003
1.597448e+003, 1.641162e+003
1.599376e+003, 1.645046e+003
1.601304e+003, 1.649178e+003
1.603233e+003, 1.651266e+003
1.605161e+003, 1.651995e+003
1.607090e+003, 1.652052e+003
1.609018e+003, 1.651204e+003
1.610947e+003, 1.653538e+003
1.612875e+003, 1.662336e+003
1.614804e+003, 1.669377e+003
1.616732e+003, 1.669420e+003
1.618661e+003, 1.667524e+003
1.620589e+003, 1.668498e+003
1.622518e+003, 1.671932e+003
1.624446e+003, 1.675373e+003
1.626375e+003, 1.678942e+003
1.628303e+003, 1.681375e+003
1.630231e+003, 1.681393e+003
1.632160e+003, 1.681292e+003
1.634088e+003, 1.682405e+003
1.636017e+003, 1.684252e+003
1.637945e+003, 1.685842e+003
1.639874e+003, 1.687184e+003
1.641802e+003, 1.689301e+003
1.643731e+003, 1.692753e+003
1.645659e+003, 1.696344e+003
1.647588e+003, 1.700522e+003
1.649516e+003, 1.703950e+003
1.651445e+003, 1.704766e+003
1.653373e+003, 1.703714e+003
1.655302e+003, 1.704373e+003
1.657230e+003, 1.706771e+003
1.659158e+003, 1.710604e+003
1.661087e+003, 1.716865e+003
1.663015e+003, 1.722640e+003
1.664944e+003, 1.727018e+003
1.666872e+003, 1.729923e+003
1.668801e+003, 1.730846e+003
1.670729e+003, 1.729949e+003
1.672658e+003, 1.730388e+003
1.674586e+003, 1.733741e+003
1.676515e+003, 1.735795e+003
1.678443e+003, 1.734108e+003
1.680372e+003, 1.733490e+003
1.682300e+003, 1.737758e+003
1.684229e+003, 1.744163e+003
1.686157e+003, 1.746113e+003
1.688085e+003, 1.742448e+003
1.690014e+003, 1.744811e+003
1.691942e+003, 1.757888e+003
1.693871e+003, 1.767966e+003
1.695799e+003, 1.768603e+003
1.697728e+003, 1.767574e+003
1.699656e+003, 1.769586e+003
1.701585e+003, 1.774047e+003
1.703513e+003, 1.779887e+003
1.705442e+003, 1.788152e+003
1.707370e+003, 1.792775e+003
1.709299e+003, 1.791410e+003
1.711227e+003, 1.790184e+003
1.713156e+003, 1.790512e+003
1.715084e+003, 1.792163e+003
1.717012e+003, 1.794789e+003
1.718941e+003, 1.798464e+003
1.720869e+003, 1.804150e+003
1.722798e+003, 1.812412e+003
1.724726e+003, 1.818976e+003
1.726655e+003, 1.823022e+003
1.728583e+003, 1.825695e+003
1.730512e+003, 1.825027e+003
1.732440e+003, 1.825163e+003
1.734369e+003, 1.830909e+003
1.736297e+003, 1.840602e+003
1.738226e+003, 1.846135e+003
1.740154e+003, 1.846457e+003
1.742083e+003, 1.847911e+003
1.744011e+003, 1.852243e+003
1.745939e+003, 1.856041e+003
1.747868e+003, 1.857970e+003
1.749796e+003, 1.859415e+003
1.751725e+003, 1.861803e+003
1.753653e+003, 1.864905e+003
1.755582e+003, 1.867207e+003
1.757510e+003, 1.868573e+003
1.759439e+003, 1.869844e+003
1.761367e+003, 1.869653e+003
1.763296e+003, 1.871355e+003
1.765224e+003, 1.878493e+003
1.767153e+003, 1.885012e+003
1.769081e+003, 1.885908e+003
1.771010e+003, 1.882798e+003
1.772938e+003, 1.880124e+003
1.774866e+003, 1.878275e+003
1.776795e+003, 1.876699e+003
1.778723e+003, 1.875454e+003
1.780652e+003, 1.875031e+003
1.782580e+003, 1.874827e+003
1.784509e+003, 1.876341e+003
1.786437e+003, 1.882854e+003
1.788366e+003, 1.890588e+003
1.790294e+003, 1.891394e+003
1.792223e+003, 1.885272e+003
1.794151e+003, 1.881300e+003
1.796080e+003, 1.880733e+003
1.798008e+003, 1.881735e+003
1.799937e+003, 1.884026e+003
1.801865e+003, 1.887590e+003
1.803793e+003, 1.893881e+003
1.805722e+003, 1.900476e+003
1.807650e+003, 1.902930e+003
1.809579e+003, 1.901869e+003
1.811507e+003, 1.903982e+003
1.813436e+003, 1.910846e+003
1.815364e+003, 1.915814e+003
1.817293e+003, 1.916656e+003
1.819221e+003, 1.916742e+003
1.821150e+003, 1.917671e+003
1.823078e+003, 1.918841e+003
1.825007e+003, 1.919598e+003
1.826935e+003, 1.920113e+003
1.828864e+003, 1.920493e+003
1.830792e+003, 1.920257e+003
1.832720e+003, 1.922394e+003
1.834649e+003, 1.928800e+003
1.836577e+003, 1.934860e+003
1.838506e+003, 1.938828e+003
1.840434e+003, 1.942215e+003
1.842363e+003, 1.947032e+003
1.844291e+003, 1.951589e+003
1.846220e+003, 1.951428e+003
1.848148e+003, 1.945658e+003
1.850077e+003, 1.944260e+003
1.852005e+003, 1.951885e+003
1.853934e+003, 1.956848e+003
1.855862e+003, 1.956273e+003
1.857791e+003, 1.956188e+003
1.859719e+003, 1.960356e+003
1.861647e+003, 1.965571e+003
1.863576e+003, 1.967319e+003
1.865504e+003, 1.966381e+003
1.867433e+003, 1.968150e+003
1.869361e+003, 1.973444e+003
1.871290e+003, 1.977508e+003
1.873218e+003, 1.980029e+003
1.875147e+003, 1.981297e+003
1.877075e+003, 1.979354e+003
1.879004e+003, 1.978967e+003
1.880932e+003, 1.985327e+003
1.882861e+003, 1.994089e+003
1.884789e+003, 1.997470e+003
1.886718e+003, 1.995995e+003
1.888646e+003, 1.997047e+003
1.890574e+003, 2.001411e+003
1.892503e+003, 2.004625e+003
1.894431e+003, 2.005118e+003
1.896360e+003, 2.005662e+003
1.898288e+003, 2.007979e+003
1.900217e+003, 2.010071e+003
1.902145e+003, 2.009370e+003
1.904074e+003, 2.007927e+003
1.906002e+003, 2.010077e+003
1.907931e+003, 2.015353e+003
1.909859e+003, 2.019253e+003
1.911788e+003, 2.021934e+003
1.913716e+003, 2.020449e+003
1.915645e+003, 2.010633e+003
1.917573e+003, 2.002623e+003
1.919501e+003, 2.001669e+003
1.921430e+003, 2.003844e+003
1.923358e+003, 2.006972e+003
1.925287e+003, 2.010636e+003
1.927215e+003, 2.013417e+003
1.929144e+003, 2.015213e+003
1.931072e+003, 2.017608e+003
1.933001e+003, 2.019620e+003
1.934929e+003, 2.023407e+003
1.936858e+003, 2.030423e+003
1.938786e+003, 2.036713e+003
1.940715e+003, 2.041912e+003
1.942643e+003, 2.044483e+003
1.944572e+003, 2.042098e+003
1.946500e+003, 2.036494e+003
1.948428e+003, 2.030580e+003
1.950357e+003, 2.024055e+003
1.952285e+003, 2.025071e+003
1.954214e+003, 2.038106e+003
1.956142e+003, 2.047169e+003
1.958071e+003, 2.049810e+003
1.959999e+003, 2.049546e+003
1.961928e+003, 2.044199e+003
1.963856e+003, 2.039590e+003
1.965785e+003, 2.039697e+003
1.967713e+003, 2.042683e+003
1.969642e+003, 2.046400e+003
1.971570e+003, 2.050418e+003
1.973499e+003, 2.052206e+003
1.975427e+003, 2.051271e+003
1.977355e+003, 2.052518e+003
1.979284e+003, 2.058683e+003
1.981212e+003, 2.063054e+003
1.983141e+003, 2.061052e+003
1.985069e+003, 2.059615e+003
1.986998e+003, 2.062652e+003
1.988926e+003, 2.068542e+003
1.990855e+003, 2.076101e+003
1.992783e+003, 2.084679e+003
1.994712e+003, 2.091845e+003
1.996640e+003, 2.097206e+003
1.998569e+003, 2.101457e+003
2.000497e+003, 2.103017e+003
2.002426e+003, 2.105070e+003
2.004354e+003, 2.108313e+003
2.006282e+003, 2.110995e+003
2.008211e+003, 2.113757e+003
2.010139e+003, 2.114868e+003
2.012068e+003, 2.112265e+003
2.013996e+003, 2.107870e+003
2.015925e+003, 2.104835e+003
2.017853e+003, 2.103353e+003
2.019782e+003, 2.103676e+003
2.021710e+003, 2.105970e+003
2.023639e+003, 2.109684e+003
2.025567e+003, 2.116038e+003
2.027496e+003, 2.120035e+003
2.029424e+003, 2.118098e+003
2.031353e+003, 2.116290e+003
2.033281e+003, 2.117252e+003
2.035209e+003, 2.120289e+003
2.037138e+003, 2.125472e+003
2.039066e+003, 2.131772e+003
2.040995e+003, 2.136883e+003
2.042923e+003, 2.140805e+003
2.044852e+003, 2.145515e+003
2.046780e+003, 2.152360e+003
2.048709e+003, 2.157422e+003
2.050637e+003, 2.158579e+003
2.052566e+003, 2.161358e+003
2.054494e+003, 2.166493e+003
2.056423e+003, 2.173720e+003
2.058351e+003, 2.185259e+003
2.060280e+003, 2.196140e+003
2.062208e+003, 2.200212e+003
2.064136e+003, 2.199568e+003
2.066065e+003, 2.200374e+003
2.067993e+003, 2.202638e+003
2.069922e+003, 2.203884e+003
2.071850e+003, 2.203974e+003
2.073779e+003, 2.205047e+003
2.075707e+003, 2.207887e+003
2.077636e+003, 2.210800e+003
2.079564e+003, 2.213850e+003
2.081493e+003, 2.215830e+003
2.083421e+003, 2.214753e+003
2.085350e+003, 2.213354e+003
2.087278e+003, 2.215518e+003
2.089207e+003, 2.218589e+003
2.091135e+003, 2.215992e+003
2.093063e+003, 2.208263e+003
2.094992e+003, 2.204985e+003
2.096920e+003, 2.208452e+003
2.098849e+003, 2.209904e+003
2.100777e+003, 2.209359e+003
2.102706e+003, 2.207792e+003
2.104634e+003, 2.204440e+003
2.106563e+003, 2.202192e+003
2.108491e+003, 2.202312e+003
2.110420e+003, 2.203494e+003
2.112348e+003, 2.204551e+003
2.114277e+003, 2.205724e+003
2.116205e+003, 2.207362e+003
2.118134e+003, 2.208862e+003
2.120062e+003, 2.209334e+003
2.121990e+003, 2.208594e+003
2.123919e+003, 2.207299e+003
2.125847e+003, 2.205825e+003
2.127776e+003, 2.203418e+003
2.129704e+003, 2.199365e+003
2.131633e+003, 2.196536e+003
2.133561e+003, 2.198163e+003
2.135490e+003, 2.198462e+003
2.137418e+003, 2.192154e+003
2.139347e+003, 2.186372e+003
2.141275e+003, 2.188471e+003
2.143204e+003, 2.193595e+003
2.145132e+003, 2.193573e+003
2.147061e+003, 2.189633e+003
2.148989e+003, 2.187670e+003
2.150917e+003, 2.187705e+003
2.152846e+003, 2.188545e+003
2.154774e+003, 2.190709e+003
2.156703e+003, 2.190671e+003
2.158631e+003, 2.186031e+003
2.160560e+003, 2.183577e+003
2.162488e+003, 2.185424e+003
2.164417e+003, 2.189255e+003
2.166345e+003, 2.196533e+003
2.168274e+003, 2.202371e+003
2.170202e+003, 2.202023e+003
2.172131e+003, 2.198515e+003
2.174059e+003, 2.195118e+003
2.175988e+003, 2.192545e+003
2.177916e+003, 2.194124e+003
2.179844e+003, 2.199837e+003
2.181773e+003, 2.201101e+003
2.183701e+003, 2.196877e+003
2.185630e+003, 2.196253e+003
2.187558e+003, 2.201496e+003
2.189487e+003, 2.205969e+003
2.191415e+003, 2.207068e+003
2.193344e+003, 2.208842e+003
2.195272e+003, 2.214341e+003
2.197201e+003, 2.218940e+003
2.199129e+003, 2.217950e+003
2.201058e+003, 2.216423e+003
2.202986e+003, 2.221497e+003
2.204915e+003, 2.228600e+003
2.206843e+003, 2.228653e+003
2.208771e+003, 2.222929e+003
2.210700e+003, 2.217055e+003
2.212628e+003, 2.210968e+003
2.214557e+003, 2.214714e+003
2.216485e+003, 2.230884e+003
2.218414e+003, 2.240757e+003
2.220342e+003, 2.239658e+003
2.222271e+003, 2.238337e+003
2.224199e+003, 2.239881e+003
2.226128e+003, 2.240741e+003
2.228056e+003, 2.238156e+003
2.229985e+003, 2.236395e+003
2.231913e+003, 2.240691e+003
2.233842e+003, 2.245000e+003
2.235770e+003, 2.241869e+003
2.237698e+003, 2.235916e+003
2.239627e+003, 2.233646e+003
2.241555e+003, 2.235141e+003
2.243484e+003, 2.242723e+003
2.245412e+003, 2.255368e+003
2.247341e+003, 2.262251e+003
2.249269e+003, 2.262168e+003
2.251198e+003, 2.263719e+003
2.253126e+003, 2.269336e+003
2.255055e+003, 2.271580e+003
2.256983e+003, 2.267969e+003
2.258912e+003, 2.263889e+003
2.260840e+003, 2.258759e+003
2.262769e+003, 2.257019e+003
2.264697e+003, 2.262185e+003
2.266625e+003, 2.269549e+003
2.268554e+003, 2.277731e+003
2.270482e+003, 2.284333e+003
2.272411e+003, 2.285404e+003
2.274339e+003, 2.283547e+003
2.276268e+003, 2.283432e+003
2.278196e+003, 2.284777e+003
2.280125e+003, 2.286601e+003
2.282053e+003, 2.288869e+003
2.283982e+003, 2.293209e+003
2.285910e+003, 2.300241e+003
2.287839e+003, 2.304807e+003
2.289767e+003, 2.304381e+003
2.291696e+003, 2.305375e+003
2.293624e+003, 2.310484e+003
2.295552e+003, 2.313798e+003
2.297481e+003, 2.315149e+003
2.299409e+003, 2.314572e+003
2.301338e+003, 2.309310e+003
2.303266e+003, 2.306439e+003
2.305195e+003, 2.311774e+003
2.307123e+003, 2.319018e+003
2.309052e+003, 2.323549e+003
2.310980e+003, 2.325635e+003
2.312909e+003, 2.324357e+003
2.314837e+003, 2.321428e+003
2.316766e+003, 2.321751e+003
2.318694e+003, 2.324949e+003
2.320623e+003, 2.327107e+003
2.322551e+003, 2.328529e+003
2.324479e+003, 2.329383e+003
2.326408e+003, 2.329225e+003
2.328336e+003, 2.333702e+003
2.330265e+003, 2.344094e+003
2.332193e+003, 2.353228e+003
2.334122e+003, 2.359257e+003
2.336050e+003, 2.363486e+003
2.337979e+003, 2.365154e+003
2.339907e+003, 2.366410e+003
2.341836e+003, 2.367607e+003
2.343764e+003, 2.369632e+003
2.345693e+003, 2.373023e+003
2.347621e+003, 2.377809e+003
2.349550e+003, 2.385473e+003
2.351478e+003, 2.393231e+003
2.353406e+003, 2.398452e+003
2.355335e+003, 2.401618e+003
2.357263e+003, 2.401495e+003
2.359192e+003, 2.400760e+003
2.361120e+003, 2.407437e+003
2.363049e+003, 2.420059e+003
2.364977e+003, 2.426960e+003
2.366906e+003, 2.427575e+003
2.368834e+003, 2.435007e+003
2.370763e+003, 2.450639e+003
2.372691e+003, 2.465429e+003
2.374620e+003, 2.479169e+003
2.376548e+003, 2.489063e+003
2.378477e+003, 2.493384e+003
2.380405e+003, 2.497907e+003
2.382333e+003, 2.505625e+003
2.384262e+003, 2.510426e+003
2.386190e+003, 2.506404e+003
2.388119e+003, 2.505764e+003
2.390047e+003, 2.517742e+003
2.391976e+003, 2.528738e+003
2.393904e+003, 2.528467e+003
2.395833e+003, 2.527784e+003
2.397761e+003, 2.535251e+003
2.399690e+003, 2.545594e+003
2.401618e+003, 2.554428e+003
2.403547e+003, 2.562308e+003
2.405475e+003, 2.568906e+003
2.407404e+003, 2.575674e+003
2.409332e+003, 2.586257e+003
2.411260e+003, 2.599542e+003
2.413189e+003, 2.611295e+003
2.415117e+003, 2.621446e+003
2.417046e+003, 2.629883e+003
2.418974e+003, 2.636414e+003
2.420903e+003, 2.647379e+003
2.422831e+003, 2.663376e+003
2.424760e+003, 2.675369e+003
2.426688e+003, 2.682161e+003
2.428617e+003, 2.686990e+003
2.430545e+003, 2.689208e+003
2.432474e+003, 2.692707e+003
2.434402e+003, 2.699751e+003
2.436331e+003, 2.706042e+003
2.438259e+003, 2.709570e+003
2.440188e+003, 2.715138e+003
2.442116e+003, 2.726681e+003
2.444044e+003, 2.735177e+003
2.445973e+003, 2.733825e+003
2.447901e+003, 2.731692e+003
2.449830e+003, 2.731797e+003
2.451758e+003, 2.734958e+003
2.453687e+003, 2.746825e+003
2.455615e+003, 2.757134e+003
2.457544e+003, 2.755702e+003
2.459472e+003, 2.748656e+003
2.461401e+003, 2.741105e+003
2.463329e+003, 2.734741e+003
2.465258e+003, 2.733550e+003
2.467186e+003, 2.734481e+003
2.469115e+003, 2.730279e+003
2.471043e+003, 2.722763e+003
2.472971e+003, 2.718900e+003
2.474900e+003, 2.717545e+003
2.476828e+003, 2.711776e+003
2.478757e+003, 2.701493e+003
2.480685e+003, 2.694469e+003
2.482614e+003, 2.690775e+003
2.484542e+003, 2.685204e+003
2.486471e+003, 2.677485e+003
2.488399e+003, 2.671436e+003
2.490328e+003, 2.667983e+003
2.492256e+003, 2.663359e+003
2.494185e+003, 2.658678e+003
2.496113e+003, 2.649842e+003
2.498042e+003, 2.632593e+003
2.499970e+003, 2.620818e+003
2.501898e+003, 2.618126e+003
2.503827e+003, 2.615901e+003
2.505755e+003, 2.613461e+003
2.507684e+003, 2.608372e+003
2.509612e+003, 2.596185e+003
2.511541e+003, 2.586894e+003
2.513469e+003, 2.585943e+003
2.515398e+003, 2.585123e+003
2.517326e+003, 2.578305e+003
2.519255e+003, 2.573542e+003
2.521183e+003, 2.579042e+003
2.523112e+003, 2.582223e+003
2.525040e+003, 2.574662e+003
2.526969e+003, 2.564105e+003
2.528897e+003, 2.555404e+003
2.530825e+003, 2.548310e+003
2.532754e+003, 2.545038e+003
2.534682e+003, 2.541327e+003
2.536611e+003, 2.529577e+003
2.538539e+003, 2.516563e+003
2.540468e+003, 2.511438e+003
2.542396e+003, 2.510245e+003
2.544325e+003, 2.507442e+003
2.546253e+003, 2.503441e+003
2.548182e+003, 2.499035e+003
2.550110e+003, 2.494708e+003
2.552039e+003, 2.492279e+003
2.553967e+003, 2.491377e+003
2.555896e+003, 2.489266e+003
2.557824e+003, 2.486776e+003
2.559752e+003, 2.487348e+003
2.561681e+003, 2.490114e+003
2.563609e+003, 2.491257e+003
2.565538e+003, 2.490290e+003
2.567466e+003, 2.486795e+003
2.569395e+003, 2.480427e+003
2.571323e+003, 2.476794e+003
2.573252e+003, 2.476625e+003
2.575180e+003, 2.473683e+003
2.577109e+003, 2.468175e+003
2.579037e+003, 2.463509e+003
2.580966e+003, 2.460198e+003
2.582894e+003, 2.457571e+003
2.584823e+003, 2.455198e+003
2.586751e+003, 2.456547e+003
2.588679e+003, 2.464642e+003
2.590608e+003, 2.469092e+003
2.592536e+003, 2.468031e+003
2.594465e+003, 2.469163e+003
2.596393e+003, 2.473643e+003
2.598322e+003, 2.475070e+003
2.600250e+003, 2.470677e+003
2.602179e+003, 2.468080e+003
2.604107e+003, 2.471992e+003
2.606036e+003, 2.472151e+003
2.607964e+003, 2.466211e+003
2.609893e+003, 2.460897e+003
2.611821e+003, 2.456905e+003
2.613750e+003, 2.456075e+003
2.615678e+003, 2.460047e+003
2.617606e+003, 2.463969e+003
2.619535e+003, 2.466429e+003
2.621463e+003, 2.467215e+003
2.623392e+003, 2.461837e+003
2.625320e+003, 2.460686e+003
2.627249e+003, 2.469443e+003
2.629177e+003, 2.476239e+003
2.631106e+003, 2.478277e+003
2.633034e+003, 2.477736e+003
2.634963e+003, 2.474956e+003
2.636891e+003, 2.471686e+003
2.638820e+003, 2.466264e+003
2.640748e+003, 2.464302e+003
2.642677e+003, 2.469779e+003
2.644605e+003, 2.475910e+003
2.646533e+003, 2.480470e+003
2.648462e+003, 2.483919e+003
2.650390e+003, 2.485160e+003
2.652319e+003, 2.487188e+003
2.654247e+003, 2.493029e+003
2.656176e+003, 2.498041e+003
2.658104e+003, 2.498861e+003
2.660033e+003, 2.499794e+003
2.661961e+003, 2.502606e+003
2.663890e+003, 2.506280e+003
2.665818e+003, 2.512246e+003
2.667747e+003, 2.515824e+003
2.669675e+003, 2.512423e+003
2.671604e+003, 2.508421e+003
2.673532e+003, 2.507076e+003
2.675460e+003, 2.507449e+003
2.677389e+003, 2.509157e+003
2.679317e+003, 2.512515e+003
2.681246e+003, 2.520750e+003
2.683174e+003, 2.526730e+003
2.685103e+003, 2.523571e+003
2.687031e+003, 2.519721e+003
2.688960e+003, 2.521333e+003
2.690888e+003, 2.523399e+003
2.692817e+003, 2.521729e+003
2.694745e+003, 2.521084e+003
2.696674e+003, 2.524453e+003
2.698602e+003, 2.530198e+003
2.700531e+003, 2.540164e+003
2.702459e+003, 2.548423e+003
2.704387e+003, 2.548668e+003
2.706316e+003, 2.547928e+003
2.708244e+003, 2.548256e+003
2.710173e+003, 2.551008e+003
2.712101e+003, 2.559271e+003
2.714030e+003, 2.566314e+003
2.715958e+003, 2.568920e+003
2.717887e+003, 2.567947e+003
2.719815e+003, 2.563387e+003
2.721744e+003, 2.557715e+003
2.723672e+003, 2.551030e+003
2.725601e+003, 2.546838e+003
2.727529e+003, 2.548796e+003
2.729458e+003, 2.551592e+003
2.731386e+003, 2.553660e+003
2.733314e+003, 2.552885e+003
2.735243e+003, 2.544281e+003
2.737171e+003, 2.537464e+003
2.739100e+003, 2.537804e+003
2.741028e+003, 2.539974e+003
2.742957e+003, 2.542630e+003
2.744885e+003, 2.544571e+003
2.746814e+003, 2.543611e+003
2.748742e+003, 2.544111e+003
2.750671e+003, 2.549583e+003
2.752599e+003, 2.554262e+003
2.754528e+003, 2.554969e+003
2.756456e+003, 2.555640e+003
2.758385e+003, 2.557666e+003
2.760313e+003, 2.560207e+003
2.762241e+003, 2.566061e+003
2.764170e+003, 2.567008e+003
2.766098e+003, 2.557571e+003
2.768027e+003, 2.548784e+003
2.769955e+003, 2.545049e+003
2.771884e+003, 2.540413e+003
2.773812e+003, 2.530896e+003
2.775741e+003, 2.524409e+003
2.777669e+003, 2.525198e+003
2.779598e+003, 2.526815e+003
2.781526e+003, 2.529365e+003
2.783455e+003, 2.529632e+003
2.785383e+003, 2.524645e+003
2.787312e+003, 2.522168e+003
2.789240e+003, 2.524062e+003
2.791168e+003, 2.527028e+003
2.793097e+003, 2.531680e+003
2.795025e+003, 2.533021e+003
2.796954e+003, 2.530569e+003
2.798882e+003, 2.524439e+003
2.800811e+003, 2.512768e+003
2.802739e+003, 2.507347e+003
2.804668e+003, 2.514417e+003
2.806596e+003, 2.517115e+003
2.808525e+003, 2.515041e+003
2.810453e+003, 2.510164e+003
2.812382e+003, 2.502108e+003
2.814310e+003, 2.499635e+003
2.816239e+003, 2.505007e+003
2.818167e+003, 2.506874e+003
2.820095e+003, 2.504491e+003
2.822024e+003, 2.502054e+003
2.823952e+003, 2.499549e+003
2.825881e+003, 2.501100e+003
2.827809e+003, 2.506346e+003
2.829738e+003, 2.509537e+003
2.831666e+003, 2.510769e+003
2.833595e+003, 2.511843e+003
2.835523e+003, 2.512136e+003
2.837452e+003, 2.502933e+003
2.839380e+003, 2.489356e+003
2.841309e+003, 2.489430e+003
2.843237e+003, 2.498897e+003
2.845166e+003, 2.507857e+003
2.847094e+003, 2.514607e+003
2.849022e+003, 2.513120e+003
2.850951e+003, 2.507806e+003
2.852879e+003, 2.505908e+003
2.854808e+003, 2.506367e+003
2.856736e+003, 2.508572e+003
2.858665e+003, 2.511300e+003
2.860593e+003, 2.514167e+003
2.862522e+003, 2.515592e+003
2.864450e+003, 2.514026e+003
2.866379e+003, 2.510514e+003
2.868307e+003, 2.503866e+003
2.870236e+003, 2.498612e+003
2.872164e+003, 2.498333e+003
2.874093e+003, 2.500461e+003
2.876021e+003, 2.504668e+003
2.877949e+003, 2.508229e+003
2.879878e+003, 2.509567e+003
2.881806e+003, 2.510057e+003
2.883735e+003, 2.509787e+003
2.885663e+003, 2.509973e+003
2.887592e+003, 2.512161e+003
2.889520e+003, 2.512198e+003
2.891449e+003, 2.506755e+003
2.893377e+003, 2.506189e+003
2.895306e+003, 2.517393e+003
2.897234e+003, 2.524512e+003
2.899163e+003, 2.525119e+003
2.901091e+003, 2.525423e+003
2.903020e+003, 2.525924e+003
2.904948e+003, 2.525483e+003
2.906876e+003, 2.523886e+003
2.908805e+003, 2.523226e+003
2.910733e+003, 2.524068e+003
2.912662e+003, 2.523122e+003
2.914590e+003, 2.520908e+003
2.916519e+003, 2.521064e+003
2.918447e+003, 2.523667e+003
2.920376e+003, 2.529360e+003
2.922304e+003, 2.536526e+003
2.924233e+003, 2.539307e+003
2.926161e+003, 2.538740e+003
2.928090e+003, 2.536331e+003
2.930018e+003, 2.534019e+003
2.931947e+003, 2.537033e+003
2.933875e+003, 2.540381e+003
2.935803e+003, 2.535506e+003
2.937732e+003, 2.529823e+003
2.939660e+003, 2.530902e+003
2.941589e+003, 2.533686e+003
2.943517e+003, 2.534967e+003
2.945446e+003, 2.535669e+003
2.947374e+003, 2.536153e+003
2.949303e+003, 2.536672e+003
2.951231e+003, 2.539069e+003
2.953160e+003, 2.537763e+003
2.955088e+003, 2.526441e+003
2.957017e+003, 2.519070e+003
2.958945e+003, 2.518890e+003
2.960874e+003, 2.522858e+003
2.962802e+003, 2.531899e+003
2.964730e+003, 2.537507e+003
2.966659e+003, 2.538307e+003
2.968587e+003, 2.537214e+003
2.970516e+003, 2.534489e+003
2.972444e+003, 2.530851e+003
2.974373e+003, 2.526942e+003
2.976301e+003, 2.530903e+003
2.978230e+003, 2.540668e+003
2.980158e+003, 2.543478e+003
2.982087e+003, 2.541092e+003
2.984015e+003, 2.537410e+003
2.985944e+003, 2.534865e+003
2.987872e+003, 2.540631e+003
2.989801e+003, 2.548609e+003
2.991729e+003, 2.551395e+003
2.993657e+003, 2.551863e+003
2.995586e+003, 2.552060e+003
2.997514e+003, 2.552256e+003
2.999443e+003, 2.554446e+003
3.001371e+003, 2.553715e+003
3.003300e+003, 2.543075e+003
3.005228e+003, 2.536589e+003
3.007157e+003, 2.541658e+003
3.009085e+003, 2.544804e+003
3.011014e+003, 2.541498e+003
3.012942e+003, 2.543187e+003
3.014871e+003, 2.557246e+003
3.016799e+003, 2.562713e+003
3.018728e+003, 2.557959e+003
3.020656e+003, 2.555306e+003
3.022584e+003, 2.555233e+003
3.024513e+003, 2.558644e+003
3.026441e+003, 2.564491e+003
3.028370e+003, 2.566667e+003
3.030298e+003, 2.566235e+003
3.032227e+003, 2.566790e+003
3.034155e+003, 2.567658e+003
3.036084e+003, 2.567683e+003
3.038012e+003, 2.567534e+003
3.039941e+003, 2.568235e+003
3.041869e+003, 2.568688e+003
3.043798e+003, 2.568898e+003
3.045726e+003, 2.567001e+003
3.047655e+003, 2.559494e+003
3.049583e+003, 2.553701e+003
3.051511e+003, 2.551913e+003
3.053440e+003, 2.553962e+003
3.055368e+003, 2.561299e+003
3.057297e+003, 2.567516e+003
3.059225e+003, 2.572609e+003
3.061154e+003, 2.571069e+003
3.063082e+003, 2.561854e+003
3.065011e+003, 2.558381e+003
3.066939e+003, 2.560204e+003
3.068868e+003, 2.561813e+003
3.070796e+003, 2.562482e+003
3.072725e+003, 2.558879e+003
3.074653e+003, 2.553993e+003
3.076582e+003, 2.554745e+003
3.078510e+003, 2.557883e+003
3.080438e+003, 2.560312e+003
3.082367e+003, 2.562710e+003
3.084295e+003, 2.565293e+003
3.086224e+003, 2.568403e+003
3.088152e+003, 2.572823e+003
3.090081e+003, 2.575825e+003
3.092009e+003, 2.573500e+003
3.093938e+003, 2.575397e+003
3.095866e+003, 2.584703e+003
3.097795e+003, 2.587718e+003
3.099723e+003, 2.581888e+003
3.101652e+003, 2.579139e+003
3.103580e+003, 2.579940e+003
3.105509e+003, 2.588848e+003
3.107437e+003, 2.602312e+003
3.109365e+003, 2.603348e+003
3.111294e+003, 2.597093e+003
3.113222e+003, 2.590923e+003
3.115151e+003, 2.587515e+003
3.117079e+003, 2.592126e+003
3.119008e+003, 2.598675e+003
3.120936e+003, 2.601468e+003
3.122865e+003, 2.605734e+003
3.124793e+003, 2.617397e+003
3.126722e+003, 2.623166e+003
3.128650e+003, 2.616242e+003
3.130579e+003, 2.616607e+003
3.132507e+003, 2.633433e+003
3.134436e+003, 2.636608e+003
3.136364e+003, 2.623426e+003
3.138292e+003, 2.618782e+003
3.140221e+003, 2.621431e+003
3.142149e+003, 2.618818e+003
3.144078e+003, 2.613912e+003
3.146006e+003, 2.614431e+003
3.147935e+003, 2.618156e+003
3.149863e+003, 2.622572e+003
3.151792e+003, 2.626726e+003
3.153720e+003, 2.628936e+003
3.155649e+003, 2.630682e+003
3.157577e+003, 2.631891e+003
3.159506e+003, 2.632956e+003
3.161434e+003, 2.633673e+003
3.163363e+003, 2.634710e+003
3.165291e+003, 2.636162e+003
3.167219e+003, 2.640668e+003
3.169148e+003, 2.648519e+003
3.171076e+003, 2.651024e+003
3.173005e+003, 2.649212e+003
3.174933e+003, 2.647406e+003
3.176862e+003, 2.646555e+003
3.178790e+003, 2.649769e+003
3.180719e+003, 2.653400e+003
3.182647e+003, 2.653668e+003
3.184576e+003, 2.651634e+003
3.186504e+003, 2.643479e+003
3.188433e+003, 2.641533e+003
3.190361e+003, 2.654149e+003
3.192290e+003, 2.661862e+003
3.194218e+003, 2.658164e+003
3.196146e+003, 2.652685e+003
3.198075e+003, 2.645681e+003
3.200003e+003, 2.644371e+003
3.201932e+003, 2.648837e+003
3.203860e+003, 2.658200e+003
3.205789e+003, 2.669039e+003
3.207717e+003, 2.673033e+003
3.209646e+003, 2.672586e+003
3.211574e+003, 2.669446e+003
3.213503e+003, 2.665271e+003
3.215431e+003, 2.659595e+003
3.217360e+003, 2.656977e+003
3.219288e+003, 2.659775e+003
3.221217e+003, 2.663500e+003
3.223145e+003, 2.669213e+003
3.225073e+003, 2.669934e+003
3.227002e+003, 2.665573e+003
3.228930e+003, 2.657910e+003
3.230859e+003, 2.649199e+003
3.232787e+003, 2.650551e+003
3.234716e+003, 2.656678e+003
3.236644e+003, 2.657204e+003
3.238573e+003, 2.656271e+003
3.240501e+003, 2.657213e+003
3.242430e+003, 2.658893e+003
3.244358e+003, 2.660342e+003
3.246287e+003, 2.662855e+003
3.248215e+003, 2.666657e+003
3.250144e+003, 2.670427e+003
3.252072e+003, 2.673053e+003
3.254000e+003, 2.678099e+003
3.255929e+003, 2.685109e+003
3.257857e+003, 2.693442e+003
3.259786e+003, 2.701606e+003
3.261714e+003, 2.707681e+003
3.263643e+003, 2.710672e+003
3.265571e+003, 2.706043e+003
3.267500e+003, 2.703958e+003
3.269428e+003, 2.711375e+003
3.271357e+003, 2.722868e+003
3.273285e+003, 2.739991e+003
3.275214e+003, 2.748850e+003
3.277142e+003, 2.746197e+003
3.279071e+003, 2.747113e+003
3.280999e+003, 2.751707e+003
3.282927e+003, 2.752487e+003
3.284856e+003, 2.751675e+003
3.286784e+003, 2.754575e+003
3.288713e+003, 2.759290e+003
3.290641e+003, 2.766413e+003
3.292570e+003, 2.770142e+003
3.294498e+003, 2.765104e+003
3.296427e+003, 2.761225e+003
3.298355e+003, 2.761633e+003
3.300284e+003, 2.764140e+003
3.302212e+003, 2.768530e+003
3.304141e+003, 2.763414e+003
3.306069e+003, 2.750601e+003
3.307998e+003, 2.746289e+003
3.309926e+003, 2.746221e+003
3.311854e+003, 2.742202e+003
3.313783e+003, 2.736926e+003
3.315711e+003, 2.732576e+003
3.317640e+003, 2.727860e+003
3.319568e+003, 2.720648e+003
3.321497e+003, 2.717757e+003
3.323425e+003, 2.722002e+003
3.325354e+003, 2.726171e+003
3.327282e+003, 2.729865e+003
3.329211e+003, 2.726656e+003
3.331139e+003, 2.719587e+003
3.333068e+003, 2.716727e+003
3.334996e+003, 2.716925e+003
3.336925e+003, 2.721681e+003
3.338853e+003, 2.724418e+003
3.340781e+003, 2.721198e+003
3.342710e+003, 2.716336e+003
3.344638e+003, 2.711126e+003
3.346567e+003, 2.705586e+003
3.348495e+003, 2.699994e+003
3.350424e+003, 2.703956e+003
3.352352e+003, 2.714559e+003
3.354281e+003, 2.718873e+003
3.356209e+003, 2.719801e+003
3.358138e+003, 2.722041e+003
3.360066e+003, 2.722804e+003
3.361995e+003, 2.720089e+003
3.363923e+003, 2.715602e+003
3.365852e+003, 2.708724e+003
3.367780e+003, 2.707733e+003
3.369708e+003, 2.716087e+003
3.371637e+003, 2.716140e+003
3.373565e+003, 2.710055e+003
3.375494e+003, 2.706748e+003
3.377422e+003, 2.704131e+003
3.379351e+003, 2.694966e+003
3.381279e+003, 2.690495e+003
3.383208e+003, 2.700835e+003
3.385136e+003, 2.712244e+003
3.387065e+003, 2.723799e+003
3.388993e+003, 2.724360e+003
3.390922e+003, 2.713412e+003
3.392850e+003, 2.714253e+003
3.394779e+003, 2.724174e+003
3.396707e+003, 2.731919e+003
3.398635e+003, 2.735835e+003
3.400564e+003, 2.733175e+003
3.402492e+003, 2.728086e+003
3.404421e+003, 2.719362e+003
3.406349e+003, 2.718315e+003
3.408278e+003, 2.730237e+003
3.410206e+003, 2.730675e+003
3.412135e+003, 2.716941e+003
3.414063e+003, 2.717220e+003
3.415992e+003, 2.725144e+003
3.417920e+003, 2.725129e+003
3.419849e+003, 2.722370e+003
3.421777e+003, 2.722467e+003
3.423706e+003, 2.722742e+003
3.425634e+003, 2.722167e+003
3.427563e+003, 2.720276e+003
3.429491e+003, 2.714173e+003
3.431419e+003, 2.723227e+003
3.433348e+003, 2.743370e+003
3.435276e+003, 2.755165e+003
3.437205e+003, 2.756221e+003
3.439133e+003, 2.734774e+003
3.441062e+003, 2.712997e+003
3.442990e+003, 2.704898e+003
3.444919e+003, 2.704051e+003
3.446847e+003, 2.710840e+003
3.448776e+003, 2.715222e+003
3.450704e+003, 2.715731e+003
3.452633e+003, 2.705050e+003
3.454561e+003, 2.689924e+003
3.456490e+003, 2.692961e+003
3.458418e+003, 2.700083e+003
3.460346e+003, 2.698208e+003
3.462275e+003, 2.696710e+003
3.464203e+003, 2.700588e+003
3.466132e+003, 2.698568e+003
3.468060e+003, 2.686732e+003
3.469989e+003, 2.687824e+003
3.471917e+003, 2.697242e+003
3.473846e+003, 2.693683e+003
3.475774e+003, 2.685543e+003
3.477703e+003, 2.679301e+003
3.479631e+003, 2.678484e+003
3.481560e+003, 2.687323e+003
3.483488e+003, 2.691279e+003
3.485417e+003, 2.684053e+003
3.487345e+003, 2.687491e+003
3.489273e+003, 2.697235e+003
3.491202e+003, 2.689599e+003
3.493130e+003, 2.676722e+003
3.495059e+003, 2.676265e+003
3.496987e+003, 2.679014e+003
3.498916e+003, 2.680312e+003
3.500844e+003, 2.682234e+003
3.502773e+003, 2.685637e+003
3.504701e+003, 2.683978e+003
3.506630e+003, 2.678056e+003
3.508558e+003, 2.673979e+003
3.510487e+003, 2.671986e+003
3.512415e+003, 2.673787e+003
3.514344e+003, 2.676011e+003
3.516272e+003, 2.674781e+003
3.518200e+003, 2.679458e+003
3.520129e+003, 2.692386e+003
3.522057e+003, 2.690545e+003
3.523986e+003, 2.676811e+003
3.525914e+003, 2.679162e+003
3.527843e+003, 2.688500e+003
3.529771e+003, 2.695391e+003
3.531700e+003, 2.698550e+003
3.533628e+003, 2.694671e+003
3.535557e+003, 2.693618e+003
3.537485e+003, 2.697259e+003
3.539414e+003, 2.692917e+003
3.541342e+003, 2.683209e+003
3.543271e+003, 2.685163e+003
3.545199e+003, 2.689800e+003
3.547127e+003, 2.687574e+003
3.549056e+003, 2.683682e+003
3.550984e+003, 2.679858e+003
3.552913e+003, 2.677971e+003
3.554841e+003, 2.678395e+003
3.556770e+003, 2.677810e+003
3.558698e+003, 2.677155e+003
3.560627e+003, 2.681242e+003
3.562555e+003, 2.684943e+003
3.564484e+003, 2.681506e+003
3.566412e+003, 2.680389e+003
3.568341e+003, 2.685938e+003
3.570269e+003, 2.688726e+003
3.572198e+003, 2.688261e+003
3.574126e+003, 2.689850e+003
3.576054e+003, 2.691834e+003
3.577983e+003, 2.691123e+003
3.579911e+003, 2.689189e+003
3.581840e+003, 2.686668e+003
3.583768e+003, 2.684367e+003
3.585697e+003, 2.683743e+003
3.587625e+003, 2.681222e+003
3.589554e+003, 2.677704e+003
3.591482e+003, 2.673871e+003
3.593411e+003, 2.671669e+003
3.595339e+003, 2.674330e+003
3.597268e+003, 2.677016e+003
3.599196e+003, 2.676312e+003
3.601125e+003, 2.677856e+003
3.603053e+003, 2.681580e+003
3.604981e+003, 2.682470e+003
3.606910e+003, 2.680466e+003
3.608838e+003, 2.671431e+003
3.610767e+003, 2.666583e+003
3.612695e+003, 2.678003e+003
3.614624e+003, 2.682802e+003
3.616552e+003, 2.674325e+003
3.618481e+003, 2.673411e+003
3.620409e+003, 2.676567e+003
3.622338e+003, 2.662758e+003
3.624266e+003, 2.648165e+003
3.626195e+003, 2.652070e+003
3.628123e+003, 2.658325e+003
3.630052e+003, 2.663024e+003
3.631980e+003, 2.660345e+003
3.633908e+003, 2.652153e+003
3.635837e+003, 2.659586e+003
3.637765e+003, 2.670989e+003
3.639694e+003, 2.662138e+003
3.641622e+003, 2.652893e+003
3.643551e+003, 2.656322e+003
3.645479e+003, 2.655472e+003
3.647408e+003, 2.649039e+003
3.649336e+003, 2.648947e+003
3.651265e+003, 2.652285e+003
3.653193e+003, 2.651363e+003
3.655122e+003, 2.648072e+003
3.657050e+003, 2.640258e+003
3.658979e+003, 2.637866e+003
3.660907e+003, 2.642693e+003
3.662835e+003, 2.649219e+003
3.664764e+003, 2.654296e+003
3.666692e+003, 2.643211e+003
3.668621e+003, 2.631239e+003
3.670549e+003, 2.633645e+003
3.672478e+003, 2.636136e+003
3.674406e+003, 2.634077e+003
3.676335e+003, 2.633710e+003
3.678263e+003, 2.635261e+003
3.680192e+003, 2.638991e+003
3.682120e+003, 2.642349e+003
3.684049e+003, 2.643543e+003
3.685977e+003, 2.641016e+003
3.687906e+003, 2.631193e+003
3.689834e+003, 2.629140e+003
3.691762e+003, 2.633515e+003
3.693691e+003, 2.625718e+003
3.695619e+003, 2.617683e+003
3.697548e+003, 2.630526e+003
3.699476e+003, 2.640548e+003
3.701405e+003, 2.633813e+003
3.703333e+003, 2.631382e+003
3.705262e+003, 2.633570e+003
3.707190e+003, 2.635675e+003
3.709119e+003, 2.636489e+003
3.711047e+003, 2.632531e+003
3.712976e+003, 2.630602e+003
3.714904e+003, 2.639312e+003
3.716833e+003, 2.636024e+003
3.718761e+003, 2.621944e+003
3.720689e+003, 2.613104e+003
3.722618e+003, 2.611238e+003
3.724546e+003, 2.623656e+003
3.726475e+003, 2.634055e+003
3.728403e+003, 2.632491e+003
3.730332e+003, 2.634231e+003
3.732260e+003, 2.638827e+003
3.734189e+003, 2.635250e+003
3.736117e+003, 2.629544e+003
3.738046e+003, 2.631912e+003
3.739974e+003, 2.632462e+003
3.741903e+003, 2.622757e+003
3.743831e+003, 2.622256e+003
3.745760e+003, 2.629480e+003
3.747688e+003, 2.630659e+003
3.749616e+003, 2.630404e+003
3.751545e+003, 2.635679e+003
3.753473e+003, 2.640214e+003
3.755402e+003, 2.642378e+003
3.757330e+003, 2.639138e+003
3.759259e+003, 2.632811e+003
3.761187e+003, 2.635205e+003
3.763116e+003, 2.640032e+003
3.765044e+003, 2.641251e+003
3.766973e+003, 2.641415e+003
3.768901e+003, 2.641016e+003
3.770830e+003, 2.639841e+003
3.772758e+003, 2.638481e+003
3.774687e+003, 2.639266e+003
3.776615e+003, 2.640578e+003
3.778543e+003, 2.640780e+003
3.780472e+003, 2.642204e+003
3.782400e+003, 2.646389e+003
3.784329e+003, 2.646284e+003
3.786257e+003, 2.643410e+003
3.788186e+003, 2.640608e+003
3.790114e+003, 2.638053e+003
3.792043e+003, 2.635692e+003
3.793971e+003, 2.632942e+003
3.795900e+003, 2.629475e+003
3.797828e+003, 2.640365e+003
3.799757e+003, 2.653811e+003
3.801685e+003, 2.650613e+003
3.803614e+003, 2.645351e+003
3.805542e+003, 2.643699e+003
3.807470e+003, 2.640391e+003
3.809399e+003, 2.635289e+003
3.811327e+003, 2.630292e+003
3.813256e+003, 2.627521e+003
3.815184e+003, 2.633875e+003
3.817113e+003, 2.631832e+003
3.819041e+003, 2.616893e+003
3.820970e+003, 2.613494e+003
3.822898e+003, 2.617272e+003
3.824827e+003, 2.610206e+003
3.826755e+003, 2.603325e+003
3.828684e+003, 2.604358e+003
3.830612e+003, 2.607118e+003
3.832541e+003, 2.610837e+003
3.834469e+003, 2.614195e+003
3.836397e+003, 2.615604e+003
3.838326e+003, 2.608142e+003
3.840254e+003, 2.607138e+003
3.842183e+003, 2.622494e+003
3.844111e+003, 2.629072e+003
3.846040e+003, 2.626653e+003
3.847968e+003, 2.617980e+003
3.849897e+003, 2.610953e+003
3.851825e+003, 2.612126e+003
3.853754e+003, 2.616547e+003
3.855682e+003, 2.623431e+003
3.857611e+003, 2.626862e+003
3.859539e+003, 2.625980e+003
3.861468e+003, 2.614943e+003
3.863396e+003, 2.607487e+003
3.865324e+003, 2.611660e+003
3.867253e+003, 2.610419e+003
3.869181e+003, 2.604843e+003
3.871110e+003, 2.606265e+003
3.873038e+003, 2.611124e+003
3.874967e+003, 2.618942e+003
3.876895e+003, 2.621421e+003
3.878824e+003, 2.615853e+003
3.880752e+003, 2.612458e+003
3.882681e+003, 2.612082e+003
3.884609e+003, 2.620367e+003
3.886538e+003, 2.621064e+003
3.888466e+003, 2.605429e+003
3.890395e+003, 2.604670e+003
3.892323e+003, 2.617099e+003
3.894251e+003, 2.626948e+003
3.896180e+003, 2.630848e+003
3.898108e+003, 2.620649e+003
3.900037e+003, 2.617407e+003
3.901965e+003, 2.623054e+003
3.903894e+003, 2.618531e+003
3.905822e+003, 2.610792e+003
3.907751e+003, 2.609740e+003
3.909679e+003, 2.611927e+003
3.911608e+003, 2.616675e+003
3.913536e+003, 2.620726e+003
3.915465e+003, 2.624045e+003
3.917393e+003, 2.629355e+003
3.919322e+003, 2.630153e+003
3.921250e+003, 2.619864e+003
3.923178e+003, 2.615382e+003
3.925107e+003, 2.617222e+003
3.927035e+003, 2.618969e+003
3.928964e+003, 2.619497e+003
3.930892e+003, 2.616995e+003
3.932821e+003, 2.614984e+003
3.934749e+003, 2.614317e+003
3.936678e+003, 2.612134e+003
3.938606e+003, 2.611826e+003
3.940535e+003, 2.621765e+003
3.942463e+003, 2.628254e+003
3.944392e+003, 2.627033e+003
3.946320e+003, 2.626216e+003
3.948249e+003, 2.625238e+003
3.950177e+003, 2.615427e+003
3.952105e+003, 2.611422e+003
3.954034e+003, 2.625866e+003
3.955962e+003, 2.633911e+003
3.957891e+003, 2.634312e+003
3.959819e+003, 2.635501e+003
3.961748e+003, 2.633246e+003
3.963676e+003, 2.620559e+003
3.965605e+003, 2.617573e+003
3.967533e+003, 2.625840e+003
3.969462e+003, 2.626247e+003
3.971390e+003, 2.624499e+003
3.973319e+003, 2.627047e+003
3.975247e+003, 2.630710e+003
3.977176e+003, 2.634423e+003
3.979104e+003, 2.636174e+003
3.981032e+003, 2.637318e+003
3.982961e+003, 2.642437e+003
3.984889e+003, 2.643493e+003
3.986818e+003, 2.637635e+003
3.988746e+003, 2.637117e+003
3.990675e+003, 2.639181e+003
3.992603e+003, 2.632729e+003
3.994532e+003, 2.628214e+003
3.996460e+003, 2.632189e+003
3.998389e+003, 2.628980e+003
4.000317e+003, 2.620442e+003
4.002246e+003, 2.616696e+003
4.004174e+003, 2.617422e+003
4.006103e+003, 2.623691e+003
4.008031e+003, 2.632172e+003
4.009959e+003, 2.640498e+003
4.011888e+003, 2.638740e+003
4.013816e+003, 2.633436e+003
4.015745e+003, 2.627807e+003
4.017673e+003, 2.629898e+003
4.019602e+003, 2.639601e+003
4.021530e+003, 2.634616e+003
4.023459e+003, 2.626224e+003
4.025387e+003, 2.623208e+003
4.027316e+003, 2.625695e+003
4.029244e+003, 2.632949e+003
4.031173e+003, 2.625559e+003
4.033101e+003, 2.613443e+003
4.035030e+003, 2.603639e+003
4.036958e+003, 2.606424e+003
4.038886e+003, 2.621778e+003
4.040815e+003, 2.619769e+003
4.042743e+003, 2.611700e+003
4.044672e+003, 2.612255e+003
4.046600e+003, 2.612065e+003
4.048529e+003, 2.608485e+003
4.050457e+003, 2.611418e+003
4.052386e+003, 2.615957e+003
4.054314e+003, 2.614444e+003
4.056243e+003, 2.613329e+003
4.058171e+003, 2.614398e+003
4.060100e+003, 2.615771e+003
4.062028e+003, 2.617298e+003
4.063957e+003, 2.619076e+003
4.065885e+003, 2.620100e+003
4.067813e+003, 2.620127e+003
4.069742e+003, 2.618367e+003
4.071670e+003, 2.616502e+003
4.073599e+003, 2.617653e+003
4.075527e+003, 2.618193e+003
4.077456e+003, 2.617198e+003
4.079384e+003, 2.616064e+003
4.081313e+003, 2.613647e+003
4.083241e+003, 2.604248e+003
4.085170e+003, 2.602750e+003
4.087098e+003, 2.615716e+003
4.089027e+003, 2.616549e+003
4.090955e+003, 2.612938e+003
4.092884e+003, 2.617654e+003
4.094812e+003, 2.616001e+003
4.096740e+003, 2.604399e+003
4.098669e+003, 2.614406e+003
4.100598e+003, 2.626877e+003
4.102526e+003, 2.613052e+003
4.104454e+003, 2.603105e+003
4.106383e+003, 2.602859e+003
4.108312e+003, 2.603493e+003
4.110240e+003, 2.604527e+003
4.112168e+003, 2.605540e+003
4.114097e+003, 2.607667e+003
4.116025e+003, 2.610873e+003
4.117954e+003, 2.610457e+003
4.119882e+003, 2.609747e+003
4.121811e+003, 2.613457e+003
4.123739e+003, 2.614276e+003
4.125667e+003, 2.611721e+003
4.127596e+003, 2.615369e+003
4.129524e+003, 2.619627e+003
4.131453e+003, 2.618547e+003
4.133381e+003, 2.619382e+003
4.135310e+003, 2.621210e+003
4.137238e+003, 2.611410e+003
4.139167e+003, 2.605674e+003
4.141095e+003, 2.618936e+003
4.143023e+003, 2.623995e+003
4.144952e+003, 2.620713e+003
4.146881e+003, 2.612833e+003
4.148809e+003, 2.611358e+003
4.150737e+003, 2.623259e+003
4.152666e+003, 2.624314e+003
4.154595e+003, 2.618340e+003
4.156523e+003, 2.622824e+003
4.158451e+003, 2.624964e+003
4.160380e+003, 2.619269e+003
4.162309e+003, 2.616705e+003
4.164237e+003, 2.616765e+003
4.166165e+003, 2.618973e+003
4.168094e+003, 2.619089e+003
4.170022e+003, 2.614817e+003
4.171951e+003, 2.620506e+003
4.173879e+003, 2.628705e+003
4.175808e+003, 2.627275e+003
4.177736e+003, 2.628580e+003
4.179665e+003, 2.634433e+003
4.181593e+003, 2.638258e+003
4.183521e+003, 2.638133e+003
4.185450e+003, 2.630086e+003
4.187378e+003, 2.625342e+003
4.189307e+003, 2.625015e+003
4.191235e+003, 2.627568e+003
4.193164e+003, 2.628085e+003
4.195092e+003, 2.621432e+003
4.197021e+003, 2.619599e+003
4.198949e+003, 2.622815e+003
4.200878e+003, 2.635115e+003
4.202806e+003, 2.637381e+003
4.204734e+003, 2.622493e+003
4.206663e+003, 2.615056e+003
4.208592e+003, 2.613937e+003
4.210520e+003, 2.618501e+003
4.212448e+003, 2.618102e+003
4.214377e+003, 2.611878e+003
4.216306e+003, 2.613093e+003
4.218234e+003, 2.616290e+003
4.220162e+003, 2.614613e+003
4.222091e+003, 2.619662e+003
4.224020e+003, 2.629687e+003
4.225948e+003, 2.624957e+003
4.227876e+003, 2.618719e+003
4.229805e+003, 2.617770e+003
4.231733e+003, 2.624440e+003
4.233662e+003, 2.634333e+003
4.235590e+003, 2.635858e+003
4.237519e+003, 2.639657e+003
##END=



