##NAMES=Nalivkinite
##RRUFFID=R070219
##IDEAL CHEMISTRY=Li_2_NaFe^2+^_7_Ti_2_(Si_4_O_12_)_2_O_2_(OH)_4_F(H_2_O)_2_
##LOCALITY=Dara-i-Pioz (Darai-Piez) Glacier, Alayskiy (Alai; Alay) Range, South Tien-Shan Mts, Garm region, Districts of the Republican Subordination, Tajikistan
##OWNER=RRUFF
##SOURCE=Michael Scott
##DESCRIPTION=Light brown platy crystals
##STATUS=The identification of this mineral has been confirmed only by single crystal X-ray diffraction
##URL=https://www.rruff.net/odr/rruff_sample/R070219
##DIFFRACTION SAMPLE DESCRIPTION=Single crystal, powder profile is calculated
##CELL PARAMETERS=a: 5.35 b: 11.89 c: 11.67 alpha: 113.45 beta: 94.63 gamma: 102.98 volume: 652.4 crystal system: triclinic
##FILETYPE=Raman Processed
##RAMAN WAVELENGTH=785

207.1836, 24687.30
209.1121, 24769.60
211.0405, 24839.80
212.9690, 24904.64
214.8975, 24977.15
216.8259, 25054.41
218.7544, 25136.23
220.6829, 25246.59
222.6113, 25300.71
224.5398, 25226.40
226.4683, 25141.64
228.3967, 25178.45
230.3252, 25293.35
232.2537, 25343.23
234.1821, 25321.94
236.1106, 25277.28
238.0391, 25193.90
239.9675, 25143.66
241.8960, 25158.47
243.8245, 25188.33
245.7529, 25195.89
247.6814, 25188.97
249.6099, 25177.04
251.5383, 25165.57
253.4668, 25164.60
255.3953, 25175.20
257.3237, 25166.89
259.2522, 25141.29
261.1807, 25102.19
263.1091, 25041.26
265.0376, 24970.31
266.9661, 24902.90
268.8945, 24827.47
270.8230, 24767.47
272.7515, 24752.63
274.6799, 24738.00
276.6084, 24711.21
278.5369, 24672.34
280.4653, 24610.31
282.3938, 24560.33
284.3223, 24571.17
286.2507, 24628.94
288.1792, 24610.24
290.1077, 24500.74
292.0361, 24435.12
293.9646, 24435.38
295.8931, 24448.01
297.8215, 24469.60
299.7500, 24467.00
301.6785, 24396.81
303.6069, 24299.62
305.5354, 24275.22
307.4639, 24321.01
309.3923, 24334.59
311.3208, 24293.62
313.2493, 24265.76
315.1777, 24291.63
317.1062, 24306.28
319.0347, 24292.90
320.9631, 24258.85
322.8916, 24185.13
324.8201, 24081.78
326.7485, 24018.51
328.6770, 23999.68
330.6055, 23960.71
332.5339, 23867.89
334.4624, 23782.39
336.3909, 23719.67
338.3193, 23675.23
340.2478, 23653.52
342.1763, 23640.85
344.1047, 23622.93
346.0332, 23592.40
347.9617, 23539.71
349.8901, 23469.47
351.8186, 23407.36
353.7471, 23340.56
355.6755, 23270.22
357.6040, 23210.42
359.5325, 23149.22
361.4609, 23059.94
363.3894, 22964.27
365.3179, 22902.10
367.2463, 22875.65
369.1748, 22830.66
371.1033, 22743.85
373.0317, 22671.60
374.9602, 22622.40
376.8887, 22577.93
378.8171, 22537.97
380.7456, 22489.92
382.6741, 22424.18
384.6025, 22352.43
386.5310, 22282.57
388.4595, 22221.06
390.3879, 22174.53
392.3164, 22144.12
394.2449, 22112.62
396.1733, 22072.64
398.1018, 22035.19
400.0303, 22023.29
401.9587, 21994.04
403.8872, 21892.26
405.8157, 21788.31
407.7441, 21761.76
409.6726, 21781.96
411.6011, 21780.63
413.5295, 21758.21
415.4580, 21716.42
417.3865, 21653.43
419.3149, 21593.86
421.2434, 21529.43
423.1719, 21489.03
425.1003, 21502.42
427.0288, 21517.16
428.9573, 21495.67
430.8857, 21461.26
432.8142, 21449.45
434.7427, 21446.01
436.6711, 21414.13
438.5996, 21352.14
440.5281, 21304.33
442.4565, 21283.99
444.3850, 21256.78
446.3135, 21212.78
448.2419, 21173.15
450.1704, 21152.65
452.0989, 21128.77
454.0273, 21080.63
455.9558, 21025.88
457.8843, 20986.60
459.8127, 20956.96
461.7412, 20920.07
463.6697, 20882.26
465.5981, 20818.17
467.5266, 20720.31
469.4551, 20618.70
471.3835, 20508.01
473.3120, 20407.27
475.2405, 20340.01
477.1689, 20265.03
479.0974, 20144.37
481.0259, 20016.23
482.9543, 19923.27
484.8828, 19856.03
486.8113, 19790.77
488.7397, 19731.95
490.6682, 19666.88
492.5967, 19588.23
494.5251, 19520.58
496.4536, 19481.42
498.3821, 19426.65
500.3105, 19314.65
502.2390, 19216.47
504.1675, 19176.81
506.0959, 19139.82
508.0244, 19049.57
509.9529, 18944.48
511.8813, 18902.35
513.8098, 18912.82
515.7383, 18907.96
517.6667, 18879.97
519.5952, 18836.81
521.5237, 18778.73
523.4521, 18731.54
525.3806, 18704.60
527.3091, 18671.92
529.2375, 18629.92
531.1660, 18584.46
533.0945, 18527.97
535.0229, 18476.30
536.9514, 18460.12
538.8799, 18460.21
540.8083, 18434.22
542.7368, 18387.57
544.6653, 18347.91
546.5938, 18318.04
548.5222, 18294.61
550.4507, 18283.07
552.3792, 18250.62
554.3076, 18175.60
556.2361, 18125.43
558.1646, 18143.02
560.0930, 18165.74
562.0215, 18147.88
563.9500, 18097.10
565.8784, 18022.78
567.8069, 17953.92
569.7354, 17914.64
571.6638, 17866.93
573.5923, 17768.82
575.5208, 17655.06
577.4492, 17591.00
579.3777, 17555.55
581.3062, 17508.12
583.2346, 17473.54
585.1631, 17435.01
587.0916, 17352.66
589.0200, 17250.29
590.9485, 17164.52
592.8770, 17094.48
594.8054, 17040.62
596.7339, 17012.79
598.6624, 16994.47
600.5908, 16948.98
602.5193, 16870.63
604.4478, 16790.71
606.3762, 16738.74
608.3047, 16700.17
610.2332, 16638.30
612.1616, 16556.35
614.0901, 16488.62
616.0186, 16443.24
617.9470, 16395.28
619.8755, 16328.37
621.8040, 16275.22
623.7324, 16256.29
625.6609, 16239.96
627.5894, 16231.45
629.5178, 16232.01
631.4463, 16218.70
633.3748, 16184.96
635.3032, 16160.26
637.2317, 16154.02
639.1602, 16137.47
641.0886, 16113.04
643.0171, 16097.73
644.9456, 16089.60
646.8740, 16080.18
648.8025, 16063.76
650.7310, 16061.32
652.6594, 16082.84
654.5879, 16068.69
656.5164, 15997.53
658.4448, 15937.58
660.3733, 15898.53
662.3018, 15859.76
664.2302, 15821.52
666.1587, 15779.54
668.0872, 15739.61
670.0156, 15692.19
671.9441, 15617.76
673.8726, 15542.22
675.8010, 15492.51
677.7295, 15460.76
679.6580, 15443.48
681.5864, 15446.55
683.5149, 15452.13
685.4434, 15412.78
687.3718, 15319.94
689.3003, 15251.77
691.2288, 15238.38
693.1572, 15210.86
695.0857, 15141.58
697.0142, 15066.31
698.9426, 15017.88
700.8711, 14999.59
702.7996, 14975.63
704.7280, 14929.59
706.6565, 14903.21
708.5850, 14872.23
710.5134, 14815.93
712.4419, 14788.66
714.3704, 14752.66
716.2988, 14693.89
718.2273, 14642.12
720.1558, 14591.24
722.0842, 14564.82
724.0127, 14563.87
725.9412, 14548.60
727.8696, 14510.09
729.7981, 14438.28
731.7266, 14336.60
733.6550, 14260.14
735.5835, 14225.11
737.5120, 14207.43
739.4404, 14201.67
741.3689, 14179.45
743.2974, 14107.10
745.2258, 14022.51
747.1543, 13971.10
749.0828, 13950.98
751.0112, 13966.31
752.9397, 13985.74
754.8682, 13928.86
756.7966, 13842.76
758.7251, 13826.53
760.6536, 13814.69
762.5820, 13762.22
764.5105, 13708.03
766.4390, 13662.49
768.3674, 13647.06
770.2959, 13657.54
772.2244, 13632.42
774.1528, 13580.40
776.0813, 13555.50
778.0098, 13512.26
779.9382, 13421.65
781.8667, 13383.24
783.7952, 13420.39
785.7236, 13431.39
787.6521, 13387.74
789.5806, 13337.35
791.5090, 13306.40
793.4375, 13279.38
795.3660, 13232.13
797.2944, 13186.67
799.2229, 13160.49
801.1514, 13131.24
803.0798, 13092.99
805.0083, 13055.85
806.9368, 13017.66
808.8652, 12970.51
810.7937, 12916.73
812.7222, 12860.92
814.6506, 12799.69
816.5791, 12745.96
818.5076, 12705.62
820.4360, 12676.54
822.3645, 12661.22
824.2930, 12628.59
826.2214, 12559.52
828.1499, 12490.02
830.0784, 12442.00
832.0068, 12399.00
833.9353, 12350.05
835.8638, 12303.84
837.7922, 12265.14
839.7207, 12241.43
841.6492, 12232.90
843.5776, 12202.76
845.5061, 12141.08
847.4346, 12085.66
849.3630, 12044.73
851.2915, 12016.33
853.2200, 12009.24
855.1484, 12006.64
857.0769, 11993.10
859.0054, 11977.10
860.9338, 11972.75
862.8623, 11970.49
864.7908, 11939.66
866.7192, 11885.41
868.6477, 11852.30
870.5762, 11846.22
872.5046, 11835.54
874.4331, 11825.23
876.3616, 11843.82
878.2900, 11872.75
880.2185, 11853.27
882.1470, 11807.87
884.0754, 11824.43
886.0039, 11887.54
887.9324, 11935.50
889.8608, 11958.61
891.7893, 11922.19
893.7178, 11856.34
895.6462, 11856.61
897.5747, 11897.85
899.5032, 11884.35
901.4316, 11826.56
903.3601, 11806.49
905.2886, 11823.83
907.2170, 11824.97
909.1455, 11809.63
911.0740, 11820.71
913.0024, 11853.73
914.9309, 11818.15
916.8594, 11715.75
918.7878, 11665.86
920.7163, 11671.27
922.6448, 11646.13
924.5732, 11587.11
926.5017, 11520.81
928.4302, 11444.72
930.3586, 11411.31
932.2871, 11432.34
934.2156, 11407.44
936.1440, 11323.94
938.0725, 11254.75
940.0010, 11206.21
941.9294, 11160.87
943.8579, 11115.56
945.7864, 11073.02
947.7148, 11033.17
949.6433, 11000.52
951.5718, 10980.65
953.5002, 10943.84
955.4287, 10883.97
957.3572, 10834.38
959.2856, 10794.03
961.2141, 10764.32
963.1426, 10753.36
965.0710, 10724.37
966.9995, 10667.38
968.9280, 10639.76
970.8564, 10653.67
972.7849, 10623.64
974.7134, 10535.28
976.6418, 10487.99
978.5703, 10495.49
980.4988, 10480.20
982.4272, 10429.04
984.3557, 10401.71
986.2842, 10410.32
988.2126, 10410.13
990.1411, 10392.35
992.0696, 10371.03
993.9980, 10349.77
995.9265, 10342.91
997.8550, 10350.16
999.7834, 10346.79
1001.712, 10334.14
1003.640, 10356.83
1005.569, 10407.60
1007.497, 10367.99
1009.426, 10246.68
1011.354, 10185.65
1013.283, 10184.02
1015.211, 10190.17
1017.140, 10201.34
1019.068, 10199.72
1020.997, 10183.45
1022.925, 10150.39
1024.854, 10108.81
1026.782, 10079.12
1028.710, 10052.16
1030.639, 10048.65
1032.567, 10070.26
1034.496, 10074.12
1036.424, 10051.92
1038.353, 9993.110
1040.281, 9931.606
1042.210, 9934.865
1044.138, 9956.565
1046.067, 9933.253
1047.995, 9898.619
1049.924, 9877.872
1051.852, 9852.281
1053.781, 9801.879
1055.709, 9746.712
1057.637, 9729.065
1059.566, 9731.378
1061.494, 9713.382
1063.423, 9680.086
1065.351, 9657.959
1067.280, 9649.550
1069.208, 9631.827
1071.137, 9598.041
1073.065, 9568.411
1074.994, 9552.030
1076.922, 9534.618
1078.851, 9515.207
1080.779, 9511.459
1082.708, 9494.127
1084.636, 9426.760
1086.564, 9361.614
1088.493, 9338.873
1090.421, 9342.142
1092.350, 9345.316
1094.278, 9337.470
1096.207, 9349.974
1098.135, 9353.760
1100.064, 9304.544
1101.992, 9280.139
1103.921, 9325.443
1105.849, 9326.543
1107.778, 9234.015
1109.706, 9193.080
1111.635, 9255.472
1113.563, 9272.307
1115.491, 9236.260
1117.420, 9213.752
1119.348, 9175.818
1121.277, 9150.918
1123.205, 9151.925
1125.134, 9131.758
1127.062, 9107.022
1128.991, 9109.209
1130.919, 9119.252
1132.848, 9140.354
1134.776, 9159.999
1136.705, 9127.810
1138.633, 9089.104
1140.562, 9088.843
1142.490, 9078.018
1144.418, 9033.785
1146.347, 8991.237
1148.275, 8963.829
1150.204, 8951.902
1152.132, 8968.197
1154.061, 8980.806
1155.989, 8968.696
1157.918, 8942.325
1159.846, 8896.156
1161.775, 8873.828
1163.703, 8914.631
1165.632, 8933.219
1167.560, 8881.104
1169.489, 8833.300
1171.417, 8819.961
1173.345, 8784.008
1175.274, 8704.459
1177.202, 8660.157
1179.131, 8669.773
1181.059, 8673.269
1182.988, 8665.291
1184.916, 8657.716
1186.845, 8647.610
1188.773, 8628.154
1190.702, 8602.462
1192.630, 8575.450
1194.559, 8550.927
1196.487, 8533.971
1198.416, 8510.051
1200.344, 8488.957
1202.272, 8479.742
1204.201, 8450.246
1206.129, 8417.793
1208.058, 8418.151
1209.986, 8409.100
1211.915, 8353.721
1213.843, 8328.239
1215.772, 8352.280
1217.700, 8373.982
1219.629, 8414.346
1221.557, 8434.259
1223.486, 8400.699
1225.414, 8357.750
1227.343, 8328.571
1229.271, 8302.763
1231.199, 8261.375
1233.128, 8239.224
1235.056, 8250.319
1236.985, 8259.623
1238.913, 8262.429
1240.842, 8284.482
1242.770, 8297.745
1244.699, 8260.984
1246.627, 8219.295
1248.556, 8188.509
1250.484, 8158.826
1252.413, 8142.019
1254.341, 8139.061
1256.270, 8150.406
1258.198, 8145.260
1260.126, 8115.300
1262.055, 8100.565
1263.983, 8100.647
1265.912, 8080.107
1267.840, 8044.271
1269.769, 8024.056
1271.697, 8014.987
1273.626, 7976.481
1275.554, 7920.551
1277.483, 7918.387
1279.411, 7937.156
1281.340, 7917.810
1283.268, 7885.615
1285.197, 7844.534
1287.125, 7803.454
1289.053, 7783.369
1290.982, 7773.961
1292.910, 7765.037
1294.839, 7762.637
1296.767, 7787.995
1298.696, 7770.515
1300.624, 7684.778
1302.553, 7645.614
1304.481, 7653.618
1306.410, 7635.186
1308.338, 7599.911
1310.267, 7585.659
1312.195, 7584.579
1314.124, 7594.041
1316.052, 7591.172
1317.980, 7549.317
1319.909, 7504.202
1321.837, 7467.714
1323.766, 7456.739
1325.694, 7484.890
1327.623, 7508.896
1329.551, 7525.262
1331.480, 7517.366
1333.408, 7478.071
1335.337, 7447.990
1337.265, 7425.748
1339.194, 7414.987
1341.122, 7411.757
1343.051, 7396.866
1344.979, 7375.373
1346.907, 7342.757
1348.836, 7327.674
1350.764, 7374.736
1352.693, 7391.539
1354.621, 7322.752
1356.550, 7294.747
1358.478, 7343.285
1360.407, 7368.477
1362.335, 7360.402
1364.264, 7342.982
1366.192, 7319.361
1368.121, 7306.111
1370.049, 7302.014
1371.978, 7320.098
1373.906, 7322.031
1375.834, 7231.834
1377.763, 7166.131
1379.691, 7211.476
1381.620, 7243.606
1383.548, 7231.764
1385.477, 7204.458
1387.405, 7165.359
1389.334, 7134.109
1391.262, 7112.340
1393.191, 7102.850
1395.119, 7100.614
1397.048, 7100.826
1398.976, 7094.318
1400.905, 7063.939
1402.833, 7032.728
1404.761, 7015.121
1406.690, 7000.744
1408.618, 6993.779
1410.547, 6960.064
1412.475, 6894.900
1414.404, 6857.343
1416.332, 6847.880
1418.261, 6868.666
1420.189, 6888.902
1422.118, 6837.375
1424.046, 6776.847
1425.975, 6773.790
1427.903, 6772.818
1429.832, 6727.902
1431.760, 6721.843
1433.688, 6792.437
1435.617, 6793.302
1437.545, 6721.323
1439.474, 6694.245
1441.402, 6699.601
1443.331, 6703.497
1445.259, 6693.587
1447.188, 6639.446
1449.116, 6591.879
1451.045, 6591.979
1452.973, 6589.498
1454.902, 6557.560
1456.830, 6553.858
1458.759, 6586.753
1460.687, 6591.252
1462.615, 6572.857
1464.544, 6546.872
1466.472, 6526.178
1468.401, 6531.993
1470.329, 6544.445
1472.258, 6554.364
1474.186, 6561.323
1476.115, 6571.249
1478.043, 6552.119
1479.972, 6496.015
1481.900, 6497.842
1483.829, 6530.920
1485.757, 6469.299
1487.686, 6391.190
1489.614, 6418.652
1491.542, 6440.544
1493.471, 6391.835
1495.399, 6356.728
1497.328, 6363.223
1499.256, 6345.716
1501.185, 6300.131
1503.113, 6264.889
1505.042, 6247.726
1506.970, 6298.239
1508.899, 6339.117
1510.827, 6269.651
1512.756, 6207.768
1514.684, 6195.171
1516.613, 6192.967
1518.541, 6195.028
1520.469, 6181.833
1522.398, 6156.993
1524.326, 6137.514
1526.255, 6124.741
1528.183, 6125.222
1530.112, 6126.896
1532.040, 6137.625
1533.969, 6100.655
1535.897, 5995.633
1537.826, 5951.735
1539.754, 5970.674
1541.683, 5975.067
1543.611, 5969.516
1545.540, 5969.592
1547.468, 5959.354
1549.396, 5915.999
1551.325, 5878.347
1553.253, 5855.510
1555.182, 5840.368
1557.110, 5831.296
1559.039, 5815.859
1560.967, 5803.387
1562.896, 5822.146
1564.824, 5841.388
1566.753, 5834.111
1568.681, 5820.468
1570.610, 5808.561
1572.538, 5781.908
1574.467, 5740.507
1576.395, 5686.415
1578.323, 5641.896
1580.252, 5663.094
1582.180, 5691.907
1584.109, 5682.435
1586.037, 5663.545
1587.966, 5636.281
1589.894, 5629.533
1591.823, 5640.276
1593.751, 5599.730
1595.680, 5548.279
1597.608, 5573.983
1599.537, 5596.261
1601.465, 5552.881
1603.394, 5506.054
1605.322, 5454.893
1607.250, 5463.525
1609.179, 5519.778
1611.107, 5533.965
1613.036, 5525.073
1614.964, 5513.645
1616.893, 5500.307
1618.821, 5487.906
1620.750, 5466.345
1622.678, 5434.517
1624.607, 5376.200
1626.535, 5310.775
1628.464, 5315.255
1630.392, 5327.706
1632.321, 5296.794
1634.249, 5259.650
1636.177, 5224.243
1638.106, 5211.050
1640.034, 5217.361
1641.963, 5201.982
1643.891, 5175.088
1645.820, 5140.972
1647.748, 5127.384
1649.677, 5159.718
1651.605, 5154.799
1653.534, 5096.375
1655.462, 5068.434
1657.391, 5060.522
1659.319, 5039.099
1661.248, 5018.819
1663.176, 5011.121
1665.104, 5010.601
1667.033, 5017.655
1668.961, 5003.386
1670.890, 4972.646
1672.818, 4959.579
1674.747, 4948.537
1676.675, 4915.945
1678.604, 4887.928
1680.532, 4869.804
1682.461, 4883.437
1684.389, 4919.413
1686.318, 4894.610
1688.246, 4847.927
1690.175, 4839.719
1692.103, 4827.816
1694.031, 4787.151
1695.960, 4762.186
1697.888, 4756.865
1699.817, 4777.105
1701.745, 4796.119
1703.674, 4755.588
1705.602, 4719.993
1707.531, 4741.571
1709.459, 4738.825
1711.388, 4706.666
1713.316, 4685.356
1715.245, 4676.122
1717.173, 4692.202
1719.102, 4692.894
1721.030, 4640.279
1722.958, 4593.219
1724.887, 4557.417
1726.815, 4555.051
1728.744, 4572.106
1730.672, 4594.614
1732.601, 4599.556
1734.529, 4562.085
1736.458, 4528.575
1738.386, 4503.207
1740.315, 4502.950
1742.243, 4503.642
1744.172, 4450.237
1746.100, 4405.122
1748.029, 4411.201
1749.957, 4397.804
1751.885, 4359.920
1753.814, 4329.393
1755.742, 4312.875
1757.671, 4330.352
1759.599, 4341.641
1761.528, 4330.070
1763.456, 4305.729
1765.385, 4273.045
1767.313, 4252.539
1769.242, 4245.422
1771.170, 4262.847
1773.099, 4265.362
1775.027, 4237.250
1776.956, 4224.449
1778.884, 4221.436
1780.813, 4195.637
1782.741, 4162.078
1784.669, 4131.586
1786.598, 4098.678
1788.526, 4062.087
1790.455, 4049.878
1792.383, 4052.849
1794.312, 4054.566
1796.240, 4052.618
1798.169, 4047.360
1800.097, 4027.108
1802.026, 3995.143
1803.954, 4005.022
1805.883, 4020.945
1807.811, 3984.095
1809.740, 3959.350
1811.668, 3966.981
1813.596, 3944.708
1815.525, 3902.073
1817.453, 3889.339
1819.382, 3877.163
1821.310, 3820.640
1823.239, 3824.276
1825.167, 3891.514
1827.096, 3884.396
1829.024, 3844.251
1830.953, 3832.248
1832.881, 3826.939
1834.810, 3822.805
1836.738, 3813.351
1838.667, 3795.199
1840.595, 3750.291
1842.523, 3710.198
1844.452, 3696.614
1846.380, 3703.682
1848.309, 3728.180
1850.237, 3704.046
1852.166, 3665.688
1854.094, 3662.851
1856.023, 3659.641
1857.951, 3641.105
1859.880, 3621.908
1861.808, 3606.064
1863.737, 3620.790
1865.665, 3619.442
1867.594, 3557.126
1869.522, 3514.839
1871.450, 3495.127
1873.379, 3496.481
1875.307, 3492.952
1877.236, 3445.681
1879.164, 3417.478
1881.093, 3428.425
1883.021, 3419.993
1884.950, 3404.500
1886.878, 3414.842
1888.807, 3401.979
1890.735, 3335.673
1892.664, 3326.206
1894.592, 3351.215
1896.521, 3310.489
1898.449, 3271.770
1900.377, 3278.771
1902.306, 3253.413
1904.234, 3199.598
1906.163, 3199.275
1908.091, 3213.015
1910.020, 3217.642
1911.948, 3204.204
1913.877, 3174.968
1915.805, 3169.643
1917.734, 3172.716
1919.662, 3173.417
1921.591, 3164.157
1923.519, 3145.325
1925.448, 3123.580
1927.376, 3099.166
1929.304, 3079.709
1931.233, 3071.708
1933.161, 3075.387
1935.090, 3072.812
1937.018, 3071.512
1938.947, 3077.707
1940.875, 3060.975
1942.804, 3018.418
1944.732, 3015.176
1946.661, 3030.255
1948.589, 3005.791
1950.518, 2975.313
1952.446, 2961.689
1954.375, 2958.741
1956.303, 2955.547
1958.231, 2931.057
1960.160, 2909.562
1962.088, 2908.269
1964.017, 2909.168
1965.945, 2909.800
1967.874, 2898.624
1969.802, 2882.347
1971.731, 2868.708
1973.659, 2853.165
1975.588, 2831.145
1977.516, 2784.613
1979.445, 2755.841
1981.373, 2784.408
1983.302, 2771.087
1985.230, 2726.506
1987.158, 2737.588
1989.087, 2751.064
1991.015, 2726.687
1992.944, 2700.837
1994.872, 2679.747
1996.801, 2655.152
1998.729, 2632.620
2000.658, 2615.003
2002.586, 2614.796
2004.515, 2624.013
2006.443, 2611.402
2008.372, 2593.809
2010.300, 2574.573
2012.229, 2559.792
2014.157, 2551.280
2016.085, 2547.512
2018.014, 2540.070
2019.942, 2520.987
2021.871, 2504.686
2023.799, 2493.854
2025.728, 2468.560
2027.656, 2448.791
2029.585, 2445.261
2031.513, 2458.501
2033.442, 2469.417
2035.370, 2431.514
2037.299, 2401.490
2039.227, 2395.904
2041.156, 2411.410
2043.084, 2422.410
2045.012, 2380.858
2046.941, 2359.184
2048.869, 2367.251
2050.798, 2376.365
2052.726, 2376.463
2054.655, 2334.949
2056.583, 2318.814
2058.512, 2330.752
2060.440, 2332.080
2062.369, 2322.331
2064.297, 2292.144
2066.226, 2279.451
2068.154, 2278.260
2070.083, 2288.650
2072.011, 2281.124
2073.939, 2220.906
2075.868, 2197.146
2077.796, 2200.300
2079.725, 2216.133
2081.653, 2216.183
2083.582, 2185.107
2085.510, 2149.946
2087.439, 2131.482
2089.367, 2169.502
2091.296, 2178.352
2093.224, 2144.472
2095.153, 2120.756
2097.081, 2105.574
2099.010, 2097.741
2100.938, 2104.209
2102.866, 2115.520
2104.795, 2091.826
2106.723, 2060.819
2108.652, 2030.860
2110.580, 2023.263
2112.509, 2027.059
2114.437, 2018.046
2116.366, 2018.736
2118.294, 2035.713
2120.223, 2026.056
2122.151, 2006.073
2124.080, 1989.903
2126.008, 1967.662
2127.937, 1943.972
2129.865, 1954.525
2131.793, 1948.690
2133.722, 1901.290
2135.650, 1891.732
2137.579, 1903.017
2139.507, 1906.808
2141.436, 1904.412
2143.364, 1895.158
2145.293, 1873.584
2147.221, 1856.666
2149.150, 1860.271
2151.078, 1851.396
2153.007, 1831.978
2154.935, 1817.286
2156.864, 1819.015
2158.792, 1837.215
2160.720, 1824.589
2162.649, 1801.235
2164.577, 1800.944
2166.506, 1801.060
2168.434, 1792.511
2170.363, 1758.526
2172.291, 1737.703
2174.220, 1750.516
2176.148, 1741.869
2178.077, 1724.402
2180.005, 1725.408
2181.934, 1715.897
2183.862, 1695.280
2185.791, 1706.966
2187.719, 1710.658
2189.647, 1673.387
2191.576, 1661.941
2193.504, 1663.080
2195.433, 1660.304
2197.361, 1651.411
2199.290, 1634.922
2201.218, 1633.359
2203.147, 1639.945
2205.075, 1654.273
2207.004, 1635.576
2208.932, 1600.484
2210.861, 1591.788
2212.789, 1585.332
2214.718, 1572.120
2216.646, 1584.997
2218.574, 1592.943
2220.503, 1581.233
2222.431, 1548.436
2224.360, 1513.433
2226.288, 1521.975
2228.217, 1528.449
2230.145, 1519.611
2232.074, 1506.364
2234.002, 1499.685
2235.931, 1493.818
2237.859, 1489.898
2239.788, 1487.065
2241.716, 1475.746
2243.645, 1454.925
2245.573, 1436.150
2247.501, 1451.769
2249.430, 1453.742
2251.358, 1432.737
2253.287, 1426.825
2255.215, 1426.374
2257.144, 1426.731
2259.072, 1411.630
2261.001, 1394.393
2262.929, 1393.363
2264.858, 1387.483
2266.786, 1379.656
2268.715, 1371.401
2270.643, 1371.458
2272.572, 1379.836
2274.500, 1369.752
2276.428, 1355.090
2278.357, 1350.218
2280.285, 1343.674
2282.214, 1325.792
2284.142, 1318.231
2286.071, 1314.402
2287.999, 1312.975
2289.928, 1309.798
2291.856, 1302.405
2293.785, 1294.888
2295.713, 1296.025
2297.642, 1299.526
2299.570, 1291.164
2301.499, 1267.657
2303.427, 1253.754
2305.355, 1270.964
2307.284, 1267.127
2309.212, 1244.771
2311.141, 1231.356
2313.069, 1227.210
2314.998, 1222.169
2316.926, 1199.348
2318.855, 1182.563
2320.783, 1190.002
2322.712, 1183.606
2324.640, 1171.203
2326.569, 1178.719
2328.497, 1169.503
2330.426, 1151.620
2332.354, 1163.858
2334.282, 1174.478
2336.211, 1159.445
2338.139, 1144.238
2340.068, 1131.424
2341.996, 1121.112
2343.925, 1119.968
2345.853, 1120.609
2347.782, 1102.657
2349.710, 1084.750
2351.639, 1073.533
2353.567, 1078.100
2355.496, 1090.923
2357.424, 1098.590
2359.353, 1083.171
2361.281, 1066.924
2363.209, 1067.126
2365.138, 1062.883
2367.066, 1051.361
2368.995, 1040.908
2370.923, 1040.715
2372.852, 1036.060
2374.780, 1019.808
2376.709, 1025.467
2378.637, 1033.676
2380.566, 1034.289
2382.494, 1036.833
2384.423, 1028.630
2386.351, 1008.107
2388.280, 1006.795
2390.208, 1013.127
2392.136, 991.9929
2394.065, 967.9423
2395.993, 951.8607
2397.922, 968.1612
2399.850, 970.4874
2401.779, 955.2609
2403.707, 941.4494
2405.636, 932.4108
2407.564, 933.0685
2409.493, 926.2186
2411.421, 926.4775
2413.350, 933.4166
2415.278, 933.0318
2417.207, 930.0257
2419.135, 930.3765
2421.063, 918.5570
2422.992, 895.8433
2424.920, 883.1771
2426.849, 883.4146
2428.777, 874.8149
2430.706, 867.2761
2432.634, 878.4822
2434.563, 881.7817
2436.491, 866.5353
2438.420, 860.3223
2440.348, 863.0397
2442.277, 877.6984
2444.205, 869.7410
2446.134, 847.1609
2448.062, 844.7546
2449.990, 836.4568
2451.919, 826.4723
2453.847, 820.5894
2455.776, 818.4645
2457.704, 821.7537
2459.633, 800.8250
2461.561, 780.8855
2463.490, 786.3550
2465.418, 803.6237
2467.347, 812.4350
2469.275, 810.0109
2471.204, 794.9619
2473.132, 782.4057
2475.061, 802.5456
2476.989, 779.0467
2478.917, 745.7563
2480.846, 758.9839
2482.774, 761.6945
2484.703, 755.5831
2486.631, 764.0267
2488.560, 758.8473
2490.488, 740.6663
2492.417, 743.7766
2494.345, 731.0781
2496.274, 712.2625
2498.202, 729.1624
2500.131, 730.8793
2502.059, 724.3821
2503.988, 714.3646
2505.916, 702.7911
2507.844, 698.3273
2509.773, 695.3983
2511.701, 695.2147
2513.630, 694.3495
2515.558, 696.2461
2517.487, 689.5610
2519.415, 676.8775
2521.344, 675.5522
2523.272, 672.7899
2525.201, 669.5828
2527.129, 657.3289
2529.058, 660.9379
2530.986, 663.9196
2532.915, 644.3533
2534.843, 640.8488
2536.771, 643.0201
2538.700, 631.5973
2540.628, 630.7999
2542.557, 636.8198
2544.485, 629.2650
2546.414, 624.2598
2548.342, 622.8131
2550.271, 623.6988
2552.199, 626.9541
2554.128, 627.1656
2556.056, 615.9777
2557.985, 604.4233
2559.913, 596.1805
2561.842, 599.7130
2563.770, 591.9841
2565.698, 579.8986
2567.627, 582.7858
2569.555, 586.7726
2571.484, 584.2238
2573.412, 569.2170
2575.341, 566.4021
2577.269, 568.1935
2579.198, 559.8193
2581.126, 567.3547
2583.055, 574.3881
2584.983, 562.2079
2586.912, 556.9749
2588.840, 552.0376
2590.769, 541.7258
2592.697, 537.9482
2594.625, 538.2159
2596.554, 541.4738
2598.482, 528.1079
2600.411, 520.2739
2602.339, 531.3447
2604.268, 532.6353
2606.196, 522.3817
2608.125, 503.2824
2610.053, 515.1075
2611.982, 514.6725
2613.910, 489.4924
2615.839, 492.4583
2617.767, 490.7963
2619.696, 478.2211
2621.624, 488.1216
2623.552, 485.0864
2625.481, 466.7380
2627.409, 464.0575
2629.338, 473.8142
2631.266, 484.2378
2633.195, 471.0850
2635.123, 469.9764
2637.052, 478.2953
2638.980, 473.7313
2640.909, 468.2359
2642.837, 460.9040
2644.766, 444.4224
2646.694, 445.8777
2648.623, 452.0377
2650.551, 451.9775
2652.479, 442.3708
2654.408, 437.2309
2656.336, 445.7322
2658.265, 442.1457
2660.193, 430.3272
2662.122, 421.1309
2664.050, 428.2961
2665.979, 430.7705
2667.907, 435.5802
2669.836, 441.6523
2671.764, 427.8885
2673.693, 419.2235
2675.621, 435.3485
2677.550, 426.7230
2679.478, 410.9858
2681.406, 403.9389
2683.335, 412.6842
2685.263, 419.2703
2687.192, 413.9722
2689.120, 403.8261
2691.049, 395.8903
2692.977, 400.8768
2694.906, 391.7658
2696.834, 382.1308
2698.763, 372.5275
2700.691, 367.6523
2702.620, 373.3630
2704.548, 382.6103
2706.477, 368.2435
2708.405, 359.0833
2710.333, 364.8063
2712.262, 368.2352
2714.190, 371.3705
2716.119, 375.4008
2718.047, 374.1881
2719.976, 362.6490
2721.904, 352.3845
2723.833, 359.7495
2725.761, 353.7906
2727.690, 340.9120
2729.618, 329.9758
2731.547, 326.7930
2733.475, 328.3999
2735.404, 334.2422
2737.332, 333.8821
2739.260, 338.0064
2741.189, 332.3304
2743.117, 321.4913
2745.046, 328.4913
2746.974, 328.7899
2748.903, 324.6086
2750.831, 321.7114
2752.760, 320.1766
2754.688, 327.4817
2756.617, 319.5424
2758.545, 319.7723
2760.474, 332.8687
2762.402, 316.4434
2764.331, 304.9593
2766.259, 300.9126
2768.188, 300.5963
2770.116, 304.6160
2772.044, 302.9579
2773.973, 298.6610
2775.901, 300.4515
2777.830, 293.9460
2779.758, 292.0500
2781.687, 293.6291
2783.615, 278.3754
2785.544, 274.8587
2787.472, 290.9750
2789.401, 291.2269
2791.329, 274.2850
2793.258, 255.3983
2795.186, 268.9961
2797.115, 278.7288
2799.043, 284.4461
2800.971, 277.7693
2802.900, 260.9983
2804.828, 258.6388
2806.757, 254.2863
2808.685, 248.3315
2810.614, 253.8343
2812.542, 246.4225
2814.471, 248.9745
2816.399, 257.2423
2818.328, 228.7788
2820.256, 217.8783
2822.185, 232.4300
2824.113, 226.5960
2826.042, 222.3195
2827.970, 231.1065
2829.898, 235.6084
2831.827, 236.3737
2833.755, 230.6710
2835.684, 223.8980
2837.612, 213.2714
2839.541, 214.2662
2841.469, 223.3495
2843.398, 237.9058
2845.326, 225.1123
2847.255, 216.9810
2849.183, 215.6626
2851.112, 214.1343
2853.040, 219.9391
2854.969, 211.0144
2856.897, 198.9139
2858.825, 200.9400
2860.754, 210.2253
2862.682, 208.7705
2864.611, 204.2818
2866.539, 212.3213
2868.468, 218.8879
2870.396, 209.6912
2872.325, 204.9980
2874.253, 207.7380
2876.182, 210.1651
2878.110, 194.0834
2880.039, 193.2468
2881.967, 203.7247
2883.896, 193.4028
2885.824, 186.3373
2887.752, 187.5753
2889.681, 175.7958
2891.609, 175.0800
2893.538, 181.8394
2895.466, 182.4211
2897.395, 186.5435
2899.323, 173.2717
2901.252, 169.2552
2903.180, 164.1032
2905.109, 157.9322
2907.037, 161.3343
2908.966, 168.0300
2910.894, 175.1447
2912.823, 171.4876
2914.751, 168.2043
2916.679, 157.1508
2918.608, 152.7880
2920.536, 151.6704
2922.465, 159.7734
2924.393, 166.8283
2926.322, 152.9348
2928.250, 150.0369
2930.179, 159.8473
2932.107, 154.4128
2934.036, 149.6902
2935.964, 153.7775
2937.893, 155.6258
2939.821, 142.3326
2941.750, 136.5294
2943.678, 141.7600
2945.606, 162.3206
2947.535, 148.5938
2949.463, 134.1216
2951.392, 136.3435
2953.320, 129.4142
2955.249, 135.2965
2957.177, 143.9156
2959.106, 140.7763
2961.034, 130.4256
2962.963, 125.4765
2964.891, 133.0057
2966.820, 128.8899
2968.748, 136.6878
2970.677, 139.3353
2972.605, 119.3614
2974.533, 134.0247
2976.462, 121.4636
2978.390, 100.8792
2980.319, 115.9177
2982.247, 117.7294
2984.176, 125.4844
2986.104, 132.0798
2988.033, 122.4404
2989.961, 135.2360
2991.890, 137.2015
2993.818, 116.4141
2995.747, 100.2986
2997.675, 103.4317
2999.604, 112.5299
3001.532, 117.6801
3003.460, 109.4479
3005.389, 99.33154
3007.317, 98.23756
3009.246, 107.2211
3011.174, 106.7603
3013.103, 105.5094
3015.031, 114.9748
3016.960, 109.6945
3018.888, 99.11793
3020.817, 94.06419
3022.745, 96.64233
3024.674, 91.18552
3026.602, 92.29634
3028.531, 99.95567
3030.459, 103.0051
3032.387, 112.6705
3034.316, 103.7980
3036.244, 87.90714
3038.173, 88.43870
3040.101, 103.3752
3042.030, 100.9899
3043.958, 85.02860
3045.887, 83.63063
3047.815, 77.11182
3049.744, 80.74900
3051.672, 96.09420
3053.601, 89.17899
3055.529, 80.91698
3057.458, 81.00383
3059.386, 91.14890
3061.314, 89.94904
3063.243, 91.37605
3065.171, 92.25384
3067.100, 85.07236
3069.028, 84.75148
3070.957, 83.70482
3072.885, 81.19048
3074.814, 78.65588
3076.742, 77.90682
3078.671, 92.34750
3080.599, 104.0209
3082.528, 66.48720
3084.456, 62.42756
3086.385, 72.60986
3088.313, 81.12492
3090.241, 71.28406
3092.170, 61.99313
3094.098, 55.30405
3096.027, 53.27934
3097.955, 65.04699
3099.884, 63.36309
3101.812, 63.96046
3103.741, 70.55960
3105.669, 63.56340
3107.598, 59.77063
3109.526, 50.51776
3111.455, 36.17526
3113.383, 55.97175
3115.312, 57.31681
3117.240, 57.00540
3119.168, 63.61128
3121.097, 70.89317
3123.025, 73.04119
3124.954, 72.37099
3126.882, 69.53656
3128.811, 58.85033
3130.739, 62.93775
3132.668, 65.16642
3134.596, 51.70703
3136.525, 66.42168
3138.453, 82.81381
3140.382, 81.12981
3142.310, 60.54171
3144.239, 56.37113
3146.167, 60.76875
3148.095, 61.84186
3150.024, 57.85592
3151.952, 66.59644
3153.881, 69.61680
3155.809, 65.91360
3157.738, 59.18526
3159.666, 69.13614
3161.595, 59.49437
3163.523, 48.36956
3165.452, 49.54020
3167.380, 59.71335
3169.309, 42.92158
3171.237, 45.19352
3173.166, 61.63871
3175.094, 47.97077
3177.022, 49.44908
3178.951, 48.66865
3180.879, 47.71156
3182.808, 63.26997
3184.736, 62.72924
3186.665, 46.33405
3188.593, 32.02782
3190.522, 55.79478
3192.450, 44.63506
3194.379, 35.39361
3196.307, 40.79543
3198.236, 61.64312
3200.164, 43.34300
3202.093, 50.56949
3204.021, 55.33276
3205.949, 32.40731
3207.878, 41.54387
3209.806, 41.55684
3211.735, 43.26827
3213.663, 53.94498
3215.592, 52.61270
3217.520, 62.65659
3219.449, 61.56659
3221.377, 54.57331
3223.306, 56.21812
3225.234, 71.40761
3227.163, 63.02897
3229.091, 41.72062
3231.020, 35.64347
3232.948, 40.99731
3234.876, 56.43919
3236.805, 51.90568
3238.733, 30.31847
3240.662, 40.24650
3242.590, 41.14322
3244.519, 34.82016
3246.447, 32.42420
3248.376, 52.56166
3250.304, 45.62183
3252.233, 36.61756
3254.161, 37.02937
3256.090, 48.78527
3258.018, 43.62194
3259.947, 35.71381
3261.875, 31.74010
3263.803, 29.16516
3265.732, 16.14895
3267.660, 30.52888
3269.589, 33.10600
3271.517, 15.35658
3273.446, 25.23147
3275.374, 35.43260
3277.303, 40.38834
3279.231, 40.05452
3281.160, 30.83547
3283.088, 4.568502
3285.017, 5.683896
3286.945, 19.93578
3288.874, 33.20330
3290.802, 47.60224
3292.730, 37.09209
3294.659, 31.92886
3296.587, 31.36835
3298.516, 24.98348
3300.444, 39.85040
3302.373, 44.63677
3304.301, 46.86226
3306.230, 44.06927
3308.158, 36.29816
3310.087, 35.33945
3312.015, 34.07164
3313.944, 40.92556
3315.872, 59.95243
3317.801, 31.33169
3319.729, 41.86631
3321.657, 42.89172
3323.586, 23.57191
3325.514, 30.05358
3327.443, 34.67134
3329.371, 49.56741
3331.300, 54.48453
3333.228, 33.50792
3335.157, -1.901125
3337.085, 13.36462
3339.014, 28.18304
3340.942, 25.56872
3342.871, 35.90697
3344.799, 30.25050
3346.728, 24.59154
3348.656, 27.78555
3350.584, 33.17941
3352.513, 17.44514
3354.441, -2.252253
3356.370, 2.329775
3358.298, 20.10411
3360.227, 36.72589
3362.155, 22.26588
3364.084, 19.15846
3366.012, 18.39819
3367.941, 17.38066
3369.869, 21.40711
3371.798, 40.76763
3373.726, 40.06712
3375.655, 42.90968
3377.583, 45.83904
3379.511, 20.83601
3381.440, 18.26493
3383.368, 30.05355
3385.297, 31.42846
3387.225, 23.90397
3389.154, 25.23226
3391.082, 24.01334
3393.011, 20.32802
3394.939, 23.84240
3396.868, 26.37725
3398.796, 2.038656
3400.725, 24.80532
3402.653, 23.23655
3404.582, 24.13359
3406.510, 48.68034
3408.438, 32.72692
3410.367, 39.76535
3412.295, 42.51645
3414.224, 24.13681
3416.152, -5.536145
3418.081, 26.73789
3420.009, 33.03365
3421.938, 34.97494
3423.866, 26.88275
3425.795, 5.737508
3427.723, 39.94949
3429.652, 30.07413
3431.580, 9.481855
3433.509, 6.122974
3435.437, 19.07774
3437.365, -12.38550
3439.294, 21.96948
3441.222, 12.73386
3443.151, -2.618597
3445.079, 21.74357
3447.008, 4.820578
3448.936, -6.616767
3450.865, 6.015022
3452.793, 20.06661
3454.722, 18.05897
3456.650, 11.34385
3458.579, 17.71746
3460.507, 15.19910
3462.436, 19.62178
3464.364, 33.42240
3466.292, 28.13793
3468.221, 30.61452
3470.149, 30.62050
3472.078, 18.05947
3474.006, 8.200128
3475.935, 30.04674
3477.863, 30.23108
3479.792, 29.95169
3481.720, 27.96331
3483.649, 21.86020
3485.577, 16.82918
3487.506, 51.71281
3489.434, 29.45311
3491.363, 11.60547
3493.291, 14.50466
3495.219, 24.78104
3497.148, 38.80525
3499.076, 7.411130
3501.005, -0.7477145
3502.933, 5.485580
3504.862, 9.237931
3506.790, 20.08243
3508.719, 26.53444
3510.647, 29.52331
3512.576, 11.22413
3514.504, -7.684033
3516.433, 6.110500
3518.361, 9.238987
3520.290, -2.955205
3522.218, -17.22445
3524.146, -20.61590
3526.075, -9.550282
3528.003, 6.918016
3529.932, 7.512761
3531.860, 10.00391
3533.789, 11.04976
3535.717, 2.524939
3537.646, -14.69449
3539.574, 28.89687
3541.503, 18.19364
3543.431, 20.66373
3545.360, 31.10170
3547.288, 27.27844
3549.217, 21.32206
3551.145, 41.34279
3553.073, 30.81687
3555.002, 27.51846
3556.930, 32.47717
3558.859, 21.23286
3560.787, -0.1015950
3562.716, 27.88831
3564.644, 48.10036
3566.573, 19.80393
3568.501, -12.08989
3570.430, 27.83025
3572.358, 28.98986
3574.287, 28.82706
3576.215, 13.88723
3578.144, 22.93414
3580.072, 51.65676
3582.000, 21.33435
3583.929, 11.76019
3585.857, 18.05398
3587.786, 8.808913
3589.714, 5.162614
3591.643, 22.27148
3593.571, 17.06454
3595.500, 1.464730
3597.428, 14.26112
3599.357, 20.17283
3601.285, 11.08529
3603.214, 0.4404693
3605.142, -3.585572
3607.071, -4.120778
3608.999, 18.10918
3610.927, 22.26270
3612.856, 9.857783
3614.784, 6.206243
3616.713, 16.44180
3618.641, 8.043372
3620.570, 7.599018
3622.498, 19.80046
3624.427, 14.58423
3626.355, -15.01793
3628.284, -2.001020
3630.212, 17.48282
3632.141, 25.81044
3634.069, 9.335102
3635.998, 3.051489
3637.926, 15.70637
3639.854, -12.96493
3641.783, -3.8799688E-02
3643.711, 12.94475
3645.640, 4.234666
3647.568, 21.33044
3649.497, 49.73857
3651.425, 6.001006
3653.354, 33.96199
3655.282, 48.30595
3657.211, 36.64054
3659.139, 20.50357
3661.068, 24.65701
3662.996, 47.67968
3664.925, 12.73056
3666.853, 19.05325
3668.781, 0.7789617
3670.710, -5.574372
3672.638, 9.596007
3674.567, 26.58069
3676.495, 33.56222
3678.424, 10.42492
3680.352, 15.03786
3682.281, 7.992835
3684.209, 5.518537
3686.138, 22.29543
3688.066, 37.71545
3689.995, -8.159881
3691.923, 8.242868
3693.852, 12.72358
3695.780, -0.1205520
3697.708, -3.168034
3699.637, 3.028347
3701.565, -20.34126
3703.494, 4.240168
3705.422, 17.63130
3707.351, 23.86378
3709.279, 23.85280
3711.208, 17.84618
3713.136, 10.17962
3715.065, 6.995645
3716.993, -6.069589
3718.922, 12.57237
3720.850, 15.32823
3722.779, 20.71857
3724.707, 28.63493
3726.635, 12.20335
3728.564, -6.688173
3730.492, 6.951768
3732.421, 8.735491
3734.349, 34.51527
3736.278, 34.03089
3738.206, 18.50583
3740.135, 44.54240
3742.063, 11.20007
3743.992, -3.029342
3745.920, 17.59831
3747.849, 15.80190
3749.777, 10.53079
3751.706, 15.79328
3753.634, 13.79914
3755.563, 1.778012
3757.491, -2.662182
3759.419, -10.28321
3761.348, 10.61968
3763.276, 14.92963
3765.205, 6.793465
3767.133, 17.38530
3769.062, 11.49434
3770.990, -15.25117
3772.919, 2.448929
3774.847, 14.59975
3776.776, 22.14538
3778.704, 11.85183
3780.633, -0.4328064
3782.561, 32.77876
3784.490, 17.78970
3786.418, 22.05841
3788.346, 22.86651
3790.275, 10.11317
3792.203, 8.229986
3794.132, 18.17829
3796.060, 21.80580
3797.989, 24.04669
3799.917, 13.70223
3801.846, 11.19045
3803.774, 26.58603
3805.703, 21.29004
3807.631, 16.65788
3809.560, 22.88685
3811.488, 15.40151
3813.417, 42.47980
3815.345, 41.00508
3817.273, 37.18614
3819.202, 31.41204
3821.130, 40.08776
3823.059, 44.78862
3824.987, 26.27823
3826.916, 1.359846
3828.844, 16.82680
3830.773, -0.6261327
3832.701, 35.30267
3834.630, 16.89326
3836.558, 7.527750
3838.487, 18.38474
3840.415, 20.25739
3842.344, 20.04895
3844.272, 10.94530
3846.200, -18.30012
3848.129, 10.71841
3850.057, 9.955437
3851.986, -3.069760
3853.914, 4.662102
3855.843, 8.994590
3857.771, -8.906247
3859.700, 21.23097
3861.628, 30.23334
3863.557, -4.895162
3865.485, 28.85204
3867.414, 18.57703
3869.342, 10.37978
3871.271, 16.22334
3873.199, 5.106671
3875.127, 7.102956
3877.056, 39.73008
3878.984, 52.77103
3880.913, 35.56514
3882.841, 34.22837
3884.770, 35.62683
3886.698, 25.62360
3888.627, 22.49577
3890.555, 30.24220
3892.484, 7.434308
3894.412, 21.64478
3896.341, 1.988721
3898.269, 22.28264
3900.198, -5.330900
3902.126, -9.250268
3904.054, 1.074222
3905.983, 4.237966
3907.911, 11.94110
3909.840, 12.08381
3911.768, 12.08909
3913.697, 13.19294
3915.625, 4.091779
3917.554, -3.695790
3919.482, -17.33651
3921.411, -10.22359
3923.339, 5.454083
3925.268, -3.898572
3927.196, -21.80818
3929.125, 9.768386
3931.053, 10.24489
3932.981, 10.62669
3934.910, 18.45691
3936.838, 27.16313
3938.767, 23.27445
3940.695, 18.61306
3942.624, 20.71093
3944.552, 26.19389
3946.481, 32.75151
3948.409, -0.7423471
3950.338, 29.00540
3952.266, 19.74944
3954.195, 18.39680
3956.123, 13.26009
3958.052, 19.71850
3959.980, 17.11268
3961.908, 16.83352
3963.837, 27.71522
3965.765, 6.639889
3967.694, 3.856670
3969.622, 14.14454
3971.551, 24.05182
3973.479, 16.83979
3975.408, 5.353417
3977.336, 3.755865
3979.265, 8.318649
3981.193, 8.618303
3983.122, 8.233765
3985.050, 6.616069
3986.979, -9.301978
3988.907, 23.68398
3990.835, 25.74513
3992.764, 16.97044
3994.692, 10.78253
3996.621, 16.83076
3998.549, 5.215688
4000.478, -8.793026
4002.406, -17.15423
4004.335, -0.1700244
4006.263, 39.99287
4008.192, 20.98795
4010.120, -0.9597177
4012.049, 17.04152
4013.977, 4.520375
4015.906, 23.73977
4017.834, 19.40026
4019.762, 26.28411
4021.691, 9.443464
4023.619, -4.043978
4025.548, 14.77665
4027.476, 30.28293
4029.405, 19.03658
4031.333, 24.82690
4033.262, 38.14233
4035.190, 45.91541
4037.119, 11.68182
4039.047, 1.064076
4040.976, 25.53553
4042.904, 11.50133
4044.833, 8.068552
4046.761, 44.15634
4048.689, 46.04629
4050.618, 14.62673
4052.546, 15.02179
4054.475, 1.930213
4056.403, -6.176811
4058.332, 4.232022
4060.260, -14.20319
4062.189, 5.974862
4064.117, 20.14794
4066.046, 22.95926
4067.974, 24.70934
4069.903, 16.67758
4071.831, 4.735177
4073.760, -5.507324
4075.688, -9.881548
4077.616, -2.888761
4079.545, 13.06624
4081.473, 29.24200
4083.402, -1.651874
4085.330, -1.889520
4087.259, -9.511521
4089.187, 9.666175
4091.116, 31.96800
4093.044, 15.96110
4094.973, 13.15511
4096.901, 18.68722
4098.830, 14.33902
4100.758, 19.93897
4102.687, 26.01004
4104.615, 16.36057
4106.543, 15.68519
4108.472, 15.68804
4110.400, -0.2532847
4112.329, 34.41329
4114.257, 11.17382
4116.186, 13.01374
4118.114, 22.51582
4120.043, 13.85815
4121.971, 26.08269
4123.899, 12.68246
4125.828, -11.79510
4127.757, -14.33615
4129.685, -5.518395
4131.613, -12.45100
4133.542, 1.590612
4135.471, 28.74921
4137.399, -2.504107
4139.327, -3.373960
4141.256, 6.479719
4143.185, 9.018522
4145.113, -19.11365
4147.041, 19.28432
4148.970, 6.411604
4150.898, -3.822252
4152.827, 2.244132
4154.755, 1.096126
4156.684, 12.33876
4158.612, 14.38212
4160.541, 5.980982
4162.469, 3.340939
4164.397, 2.784152
4166.326, 1.540997
4168.254, 18.57710
4170.183, 31.62469
4172.111, 15.37040
4174.040, 33.13763
4175.968, 0.6232766
4177.896, 40.81268
4179.825, 43.22100
4181.754, 18.32421
4183.682, 36.03810
4185.610, 35.72074
4187.539, 47.39782
4189.468, 49.66462
4191.396, 8.543932
4193.324, -6.353691
4195.253, 18.59313
4197.182, 16.33370
4199.110, 29.98234
4201.038, 16.51900
4202.967, 15.76849
4204.896, 25.38834
4206.824, 17.10207
4208.752, 12.37514
4210.681, 11.29676
4212.609, 18.70430
4214.538, 18.55505
4216.466, 23.20601
4218.395, 6.045516
4220.323, -16.31165
4222.251, 17.27409
4224.180, 25.75692
4226.108, 11.25410
4228.037, 32.09532
4229.965, 9.353184
4231.894, -3.551650
4233.822, -8.4445670E-02
4235.751, 27.47617
4237.679, 4.721627
4239.607, 19.21462
4241.536, 36.46599
4243.465, 2.145956
4245.393, -5.531155
4247.321, 8.231517
4249.250, 20.22703
4251.179, 32.26443
4253.107, 18.41335
4255.035, 21.41928
4256.964, 5.050476
4258.893, 4.992413
4260.821, 46.63099
4262.749, 46.53388
4264.678, 46.69278
4266.606, 18.49693
4268.535, 9.006974
4270.463, 17.71985
4272.392, 5.697243
4274.320, 16.13897
4276.249, 6.123397
4278.177, 16.45077
4280.105, -10.08463
4282.034, -29.82775
4283.962, -5.7679340E-02
4285.891, -3.242406
4287.819, 18.74751
4289.748, 35.29855
4291.676, 13.93703
4293.604, 15.10330
4295.533, 12.33131
4297.462, 4.751721
4299.390, 13.12701
4301.318, -0.9862167
4303.247, 11.36117
4305.176, 32.53439
4307.104, 9.118372
4309.032, 10.16642
4310.961, 30.57703
4312.890, -9.624655
4314.818, -3.869338
4316.746, 22.88851
4318.675, 23.19860
4320.604, 19.93869
4322.532, 17.61225
4324.460, 37.44931
4326.389, 6.770099
4328.317, 10.65205
4330.246, 23.18130
4332.174, 12.48247
4334.103, 3.340924
4336.031, 7.635717
4337.959, 8.352025
4339.888, -6.844394
4341.816, 4.603824
4343.745, -2.679519
4345.673, -7.827260
##END=



