##NAMES=Namibite
##RRUFFID=R060782
##IDEAL CHEMISTRY=Cu(BiO)_2_(VO_4_)(OH)
##LOCALITY=Khorixas, Darmaraland, Namibia
##OWNER=RRUFF
##SOURCE=Michael Scott
##DESCRIPTION=Dark green irregularly formed crystals associated with quartz
##STATUS=The identification of this mineral is confirmed by single-crystal X-ray diffraction and chemical analysis
##URL=https://www.rruff.net/odr/rruff_sample/R060782
##MEASURED CHEMISTRY=(Cu_0.87_Fe_0.13_)((Bi_0.93_Cr_0.05_Al_0.02_)O)_2_V_1.00_O_4_(OH) ; OH estimated by charge balance
##DIFFRACTION SAMPLE DESCRIPTION=Single crystal, powder profile is calculated
##CELL PARAMETERS=a: 6.122 b: 7.28 c: 7.38 alpha: 90.06 beta: 108.94 gamma: 107.19 volume: 296 crystal system: triclinic
##FILETYPE=Raman RAW
##RAMAN WAVELENGTH=785

123.424, 716.781
125.352, 902.828
127.281, 1283.073
129.209, 1680.751
131.138, 2189.869
133.066, 2596.250
134.995, 2725.826
136.923, 2780.280
138.852, 2866.955
140.780, 2916.389
142.708, 3628.521
144.637, 5129.049
146.565, 7035.084
148.494, 10189.120
150.422, 12863.480
152.351, 13966.300
154.279, 13590.250
156.208, 12320.910
158.136, 9228.406
160.065, 6859.690
161.993, 5522.884
163.922, 4671.084
165.850, 4196.197
167.779, 3937.759
169.707, 3636.310
171.635, 3275.839
173.564, 2928.128
175.492, 2559.310
177.421, 2254.988
179.349, 2065.534
181.278, 1937.254
183.206, 1826.174
185.135, 1732.700
187.063, 1667.803
188.992, 1638.435
190.920, 1622.007
192.849, 1617.521
194.777, 1624.480
196.706, 1646.859
198.634, 1678.226
200.562, 1708.575
202.491, 1739.158
204.419, 1761.930
206.348, 1775.146
208.276, 1784.610
210.205, 1792.590
212.133, 1796.854
214.062, 1789.174
215.990, 1774.443
217.919, 1781.821
219.847, 1814.549
221.776, 1861.363
223.704, 1921.684
225.633, 1996.266
227.561, 2086.090
229.490, 2190.027
231.418, 2317.734
233.346, 2470.653
235.275, 2589.004
237.203, 2680.012
239.132, 2725.343
241.060, 2714.931
242.989, 2664.052
244.917, 2570.031
246.846, 2450.493
248.774, 2330.202
250.703, 2206.618
252.631, 2107.398
254.560, 2034.200
256.488, 1979.083
258.417, 1946.233
260.345, 1923.792
262.273, 1900.971
264.202, 1883.415
266.130, 1881.490
268.059, 1894.242
269.987, 1938.926
271.916, 2020.333
273.844, 2120.902
275.773, 2215.194
277.701, 2351.308
279.630, 2562.569
281.558, 2836.654
283.487, 3150.411
285.415, 3511.815
287.344, 3876.260
289.272, 4281.272
291.200, 4590.825
293.129, 4769.626
295.057, 4817.099
296.986, 4699.014
298.914, 4460.781
300.843, 4183.715
302.771, 3857.885
304.700, 3601.225
306.628, 3422.960
308.557, 3290.369
310.485, 3204.939
312.414, 3150.938
314.342, 3131.776
316.271, 3131.776
318.199, 3115.613
320.127, 3083.211
322.056, 3099.577
323.984, 3171.152
325.913, 3265.068
327.841, 3388.187
329.770, 3508.999
331.698, 3646.667
333.627, 3750.065
335.555, 3755.639
337.484, 3666.550
339.412, 3523.340
341.341, 3326.345
343.269, 3083.023
345.198, 2752.473
347.126, 2464.947
349.054, 2271.641
350.983, 2138.863
352.911, 2038.627
354.840, 1980.121
356.768, 1983.655
358.697, 2047.330
360.625, 2217.196
362.554, 2506.532
364.482, 2872.958
366.411, 3473.533
368.339, 3931.094
370.267, 4106.578
372.196, 4018.694
374.125, 3592.614
376.053, 2890.213
377.981, 2316.745
379.910, 1871.544
381.838, 1551.845
383.767, 1386.121
385.695, 1285.423
387.624, 1240.607
389.552, 1222.783
391.481, 1222.135
393.409, 1232.246
395.338, 1242.048
397.266, 1251.647
399.194, 1260.704
401.123, 1268.103
403.052, 1282.421
404.980, 1315.034
406.908, 1338.346
408.837, 1331.825
410.765, 1324.397
412.694, 1344.120
414.622, 1377.641
416.551, 1391.395
418.479, 1389.898
420.408, 1401.901
422.336, 1427.652
424.265, 1476.877
426.193, 1568.431
428.122, 1658.517
430.050, 1742.672
431.978, 1811.235
433.907, 1863.178
435.835, 1891.432
437.764, 1878.202
439.692, 1828.051
441.621, 1752.185
443.549, 1646.291
445.478, 1548.065
447.406, 1465.502
449.335, 1390.471
451.263, 1318.108
453.192, 1255.174
455.120, 1209.348
457.049, 1173.698
458.977, 1135.743
460.905, 1099.108
462.834, 1078.938
464.762, 1076.507
466.691, 1073.945
468.619, 1070.346
470.548, 1062.995
472.476, 1047.955
474.405, 1034.053
476.333, 1023.004
478.262, 1016.784
480.190, 1023.416
482.119, 1033.995
484.047, 1026.475
485.976, 1003.925
487.904, 992.769
489.832, 998.289
491.761, 1000.177
493.689, 992.008
495.618, 984.413
497.546, 980.662
499.475, 976.730
501.403, 967.280
503.332, 958.868
505.260, 961.296
507.189, 970.182
509.117, 976.314
511.046, 979.570
512.974, 981.527
514.903, 980.845
516.831, 983.496
518.760, 985.712
520.688, 998.078
522.617, 1030.845
524.545, 1064.868
526.473, 1087.216
528.402, 1106.878
530.330, 1128.038
532.259, 1156.491
534.187, 1204.338
536.116, 1271.466
538.044, 1351.394
539.973, 1438.170
541.901, 1559.012
543.830, 1711.833
545.758, 1906.813
547.687, 2155.619
549.615, 2433.751
551.544, 2766.365
553.472, 3087.607
555.400, 3381.204
557.329, 3600.188
559.257, 3678.175
561.186, 3625.023
563.114, 3469.336
565.043, 3201.936
566.971, 2923.463
568.900, 2609.260
570.828, 2346.097
572.757, 2159.302
574.685, 1988.989
576.614, 1814.928
578.542, 1662.737
580.470, 1554.425
582.399, 1466.491
584.327, 1379.763
586.256, 1297.943
588.184, 1227.000
590.113, 1166.419
592.041, 1113.277
593.970, 1067.092
595.898, 1030.756
597.827, 1010.319
599.755, 988.651
601.683, 961.480
603.612, 939.825
605.541, 929.502
607.469, 920.091
609.397, 904.739
611.326, 891.129
613.254, 886.720
615.183, 886.064
617.111, 884.506
619.040, 881.200
620.968, 872.121
622.897, 857.391
624.825, 848.759
626.754, 846.701
628.682, 849.626
630.610, 861.361
632.539, 868.745
634.468, 868.221
636.396, 867.923
638.324, 869.613
640.253, 872.717
642.181, 875.958
644.110, 881.752
646.038, 892.813
647.967, 906.524
649.895, 920.681
651.824, 934.985
653.752, 946.434
655.681, 956.317
657.609, 977.219
659.537, 1010.092
661.466, 1047.013
663.394, 1085.822
665.323, 1136.437
667.251, 1204.409
669.180, 1272.578
671.108, 1355.177
673.037, 1397.631
674.965, 1367.765
676.894, 1310.845
678.822, 1238.309
680.751, 1164.017
682.679, 1090.962
684.608, 1027.351
686.536, 986.142
688.464, 960.632
690.393, 936.685
692.321, 914.816
694.250, 897.884
696.178, 885.983
698.107, 876.712
700.035, 868.532
701.964, 875.752
703.892, 903.312
705.821, 925.734
707.749, 935.081
709.678, 951.222
711.606, 979.100
713.535, 1016.220
715.463, 1066.483
717.391, 1118.399
719.320, 1172.602
721.248, 1218.695
723.177, 1260.759
725.105, 1280.178
727.034, 1248.131
728.962, 1184.675
730.891, 1118.318
732.819, 1051.207
734.748, 986.178
736.676, 925.250
738.605, 888.443
740.533, 874.780
742.462, 860.032
744.390, 842.953
746.318, 837.132
748.247, 846.567
750.175, 846.763
752.104, 829.355
754.032, 819.470
755.961, 826.146
757.889, 834.451
759.818, 839.921
761.746, 845.429
763.675, 853.953
765.603, 860.107
767.532, 862.563
769.460, 859.813
771.389, 841.080
773.317, 826.221
775.245, 844.135
777.174, 872.663
779.102, 877.557
781.031, 870.028
782.959, 873.812
784.888, 885.021
786.816, 887.606
788.745, 885.672
790.673, 902.532
792.602, 935.461
794.530, 956.042
796.459, 963.371
798.387, 979.615
800.316, 1007.250
802.244, 1036.377
804.172, 1065.819
806.101, 1095.879
808.029, 1123.618
809.958, 1161.211
811.886, 1210.899
813.815, 1270.792
815.743, 1332.626
817.672, 1417.316
819.600, 1514.833
821.529, 1659.124
823.457, 1825.130
825.386, 2093.730
827.314, 2418.507
829.243, 2970.944
831.171, 3828.401
833.099, 5002.727
835.028, 6655.176
836.956, 8471.463
838.885, 10270.130
840.813, 11924.600
842.742, 13602.130
844.670, 14796.250
846.599, 14775.900
848.527, 13681.520
850.456, 11322.630
852.384, 8331.283
854.313, 5983.211
856.241, 4253.321
858.170, 3110.910
860.098, 2470.605
862.027, 2025.796
863.955, 1751.772
865.883, 1565.970
867.812, 1460.624
869.740, 1360.056
871.669, 1260.407
873.597, 1187.869
875.526, 1146.757
877.454, 1104.521
879.383, 1056.421
881.311, 1022.015
883.240, 1007.045
885.168, 990.408
887.097, 968.809
889.025, 950.311
890.954, 935.813
892.882, 923.660
894.810, 918.477
896.739, 907.154
898.667, 881.558
900.596, 862.543
902.524, 857.939
904.453, 851.462
906.381, 836.740
908.310, 825.636
910.238, 826.762
912.167, 821.897
914.095, 799.179
916.024, 780.551
917.952, 774.398
919.881, 771.375
921.809, 767.823
923.737, 767.298
925.666, 777.115
927.594, 780.948
929.523, 765.808
931.451, 751.775
933.380, 750.285
935.308, 750.646
937.237, 750.692
939.165, 745.206
941.094, 722.810
943.022, 706.690
944.951, 717.698
946.879, 729.852
948.808, 724.935
950.736, 717.403
952.664, 715.285
954.593, 716.180
956.521, 719.186
958.450, 723.613
960.378, 733.089
962.307, 738.491
964.235, 731.283
966.164, 720.104
968.092, 706.462
970.021, 697.177
971.949, 698.197
973.878, 704.296
975.806, 718.401
977.735, 727.751
979.663, 717.150
981.591, 704.579
983.520, 705.360
985.448, 707.943
987.377, 703.200
989.305, 696.830
991.234, 690.861
993.162, 687.992
995.091, 694.907
997.019, 700.063
998.948, 691.286
1000.876, 681.502
1002.805, 679.318
1004.733, 681.027
1006.662, 689.135
1008.590, 693.458
1010.518, 679.722
1012.447, 669.084
1014.375, 680.103
1016.304, 693.419
1018.232, 696.917
1020.161, 698.232
1022.089, 704.520
1024.018, 706.455
1025.946, 692.586
1027.875, 681.351
1029.803, 685.047
1031.732, 690.368
1033.660, 693.713
1035.589, 692.862
1037.517, 680.742
1039.446, 673.441
1041.374, 681.461
1043.302, 689.261
1045.231, 693.655
1047.159, 692.404
1049.088, 676.992
1051.016, 670.457
1052.945, 687.616
1054.873, 698.520
1056.802, 690.231
1058.730, 685.846
1060.659, 694.887
1062.587, 698.556
1064.516, 690.036
1066.444, 683.489
1068.373, 682.568
1070.301, 680.669
1072.229, 675.917
1074.158, 672.789
1076.086, 671.704
1078.015, 674.102
1079.943, 680.824
1081.872, 686.490
1083.800, 690.569
1085.729, 692.476
1087.657, 692.116
1089.586, 690.103
1091.514, 686.521
1093.443, 682.952
1095.371, 679.731
1097.299, 680.532
1099.228, 684.750
1101.156, 687.034
1103.085, 687.062
1105.013, 682.790
1106.942, 676.262
1108.870, 675.156
1110.799, 677.788
1112.727, 680.249
1114.656, 681.822
1116.584, 680.059
1118.513, 677.307
1120.441, 677.088
1122.370, 678.724
1124.298, 682.537
1126.226, 686.411
1128.155, 689.091
1130.083, 689.445
1132.012, 682.494
1133.940, 678.155
1135.869, 687.781
1137.797, 696.821
1139.726, 695.130
1141.654, 692.386
1143.583, 693.990
1145.511, 694.016
1147.440, 687.826
1149.368, 684.117
1151.297, 684.518
1153.225, 688.763
1155.153, 702.490
1157.082, 708.770
1159.010, 702.710
1160.939, 697.099
1162.867, 691.236
1164.796, 689.015
1166.724, 691.139
1168.653, 693.128
1170.581, 695.028
1172.510, 690.864
1174.438, 682.296
1176.367, 686.808
1178.295, 698.107
1180.224, 691.111
1182.152, 674.673
1184.080, 665.788
1186.009, 662.445
1187.937, 662.985
1189.866, 666.083
1191.794, 674.573
1193.723, 679.085
1195.651, 666.609
1197.580, 659.175
1199.508, 675.562
1201.437, 685.833
1203.365, 671.961
1205.294, 664.634
1207.222, 676.615
1209.151, 685.014
1211.079, 684.494
1213.007, 681.807
1214.936, 676.457
1216.864, 677.783
1218.793, 687.706
1220.721, 687.720
1222.650, 678.610
1224.578, 672.229
1226.507, 669.255
1228.435, 676.282
1230.364, 686.690
1232.292, 685.370
1234.221, 676.842
1236.149, 660.418
1238.078, 649.204
1240.006, 663.059
1241.934, 676.878
1243.863, 676.204
1245.791, 669.183
1247.720, 653.737
1249.648, 646.765
1251.577, 656.478
1253.505, 659.473
1255.434, 649.384
1257.362, 648.964
1259.291, 661.312
1261.219, 666.645
1263.148, 664.487
1265.076, 667.639
1267.005, 673.521
1268.933, 668.808
1270.861, 659.060
1272.790, 657.295
1274.718, 657.338
1276.647, 646.839
1278.575, 639.525
1280.504, 653.977
1282.432, 665.442
1284.361, 656.530
1286.289, 649.138
1288.218, 648.043
1290.146, 652.545
1292.075, 663.766
1294.003, 672.891
1295.932, 678.886
1297.860, 680.582
1299.788, 677.978
1301.717, 669.362
1303.645, 658.160
1305.574, 654.484
1307.502, 655.886
1309.431, 660.184
1311.359, 664.929
1313.288, 667.925
1315.216, 669.833
1317.145, 671.854
1319.073, 671.641
1321.002, 666.738
1322.930, 662.478
1324.859, 658.256
1326.787, 661.660
1328.715, 673.845
1330.644, 676.642
1332.572, 670.464
1334.501, 659.971
1336.429, 650.013
1338.358, 657.139
1340.286, 667.145
1342.215, 659.502
1344.143, 649.044
1346.072, 644.276
1348.000, 646.469
1349.929, 665.746
1351.857, 674.166
1353.786, 657.520
1355.714, 645.291
1357.642, 637.852
1359.571, 642.948
1361.499, 658.819
1363.428, 658.037
1365.356, 647.771
1367.285, 648.996
1369.213, 654.356
1371.142, 655.022
1373.070, 655.120
1374.999, 659.558
1376.927, 660.434
1378.856, 649.326
1380.784, 646.135
1382.713, 661.021
1384.641, 664.862
1386.569, 655.951
1388.498, 646.877
1390.426, 638.250
1392.355, 632.255
1394.283, 629.824
1396.212, 635.040
1398.140, 641.572
1400.069, 645.263
1401.997, 646.525
1403.926, 644.801
1405.854, 642.597
1407.783, 639.733
1409.711, 641.533
1411.640, 649.780
1413.568, 642.453
1415.496, 624.755
1417.425, 624.331
1419.353, 632.843
1421.282, 637.450
1423.210, 640.367
1425.139, 642.361
1427.067, 645.792
1428.996, 654.207
1430.924, 653.427
1432.853, 638.957
1434.781, 626.301
1436.710, 617.360
1438.638, 623.330
1440.567, 637.035
1442.495, 635.718
1444.423, 628.874
1446.352, 628.907
1448.280, 628.403
1450.209, 621.605
1452.137, 617.530
1454.066, 619.279
1455.994, 618.547
1457.923, 614.366
1459.851, 613.753
1461.780, 616.438
1463.708, 621.036
1465.637, 625.755
1467.565, 627.580
1469.494, 628.470
1471.422, 630.648
1473.350, 630.335
1475.279, 624.729
1477.207, 626.680
1479.136, 637.558
1481.064, 635.735
1482.993, 623.635
1484.921, 616.025
1486.850, 610.620
1488.778, 601.219
1490.707, 596.114
1492.635, 605.545
1494.564, 612.762
1496.492, 612.444
1498.421, 614.888
1500.349, 620.678
1502.277, 615.571
1504.206, 604.383
1506.134, 606.022
1508.063, 609.995
1509.991, 600.958
1511.920, 592.726
1513.848, 592.603
1515.777, 597.504
1517.705, 609.430
1519.634, 611.583
1521.562, 604.734
1523.491, 604.685
1525.419, 607.767
1527.348, 604.226
1529.276, 601.931
1531.204, 613.369
1533.133, 617.493
1535.061, 596.032
1536.990, 591.325
1538.918, 608.116
1540.847, 615.444
1542.775, 614.167
1544.704, 602.401
1546.632, 593.101
1548.561, 604.382
1550.489, 615.420
1552.418, 613.901
1554.346, 615.239
1556.275, 625.010
1558.203, 620.680
1560.131, 605.725
1562.060, 600.933
1563.988, 600.601
1565.917, 596.548
1567.845, 594.785
1569.774, 602.250
1571.702, 601.375
1573.631, 584.878
1575.559, 576.261
1577.488, 574.988
1579.416, 575.083
1581.345, 577.137
1583.273, 582.720
1585.202, 589.905
1587.130, 600.206
1589.058, 603.016
1590.987, 594.913
1592.915, 586.782
1594.844, 580.530
1596.772, 587.541
1598.701, 596.499
1600.629, 590.571
1602.558, 581.715
1604.486, 572.491
1606.415, 572.745
1608.343, 584.807
1610.272, 588.186
1612.200, 584.593
1614.129, 581.584
1616.057, 577.594
1617.985, 565.896
1619.914, 563.832
1621.842, 580.380
1623.771, 584.398
1625.699, 572.982
1627.628, 565.723
1629.556, 562.641
1631.485, 562.058
1633.413, 566.184
1635.342, 583.618
1637.270, 590.440
1639.199, 581.474
1641.127, 570.075
1643.056, 559.433
1644.984, 561.316
1646.912, 564.480
1648.841, 547.776
1650.769, 539.097
1652.698, 553.796
1654.626, 566.119
1656.555, 573.050
1658.483, 569.133
1660.412, 559.341
1662.340, 551.144
1664.269, 546.906
1666.197, 550.354
1668.126, 554.484
1670.054, 558.430
1671.983, 557.432
1673.911, 554.217
1675.839, 563.116
1677.768, 569.361
1679.696, 552.277
1681.625, 539.163
1683.553, 540.540
1685.482, 542.118
1687.410, 543.194
1689.339, 542.768
1691.267, 542.289
1693.196, 544.111
1695.124, 545.648
1697.053, 547.471
1698.981, 542.693
1700.910, 531.401
1702.838, 533.178
1704.766, 538.216
1706.695, 526.651
1708.623, 518.041
1710.552, 526.455
1712.480, 530.859
1714.409, 528.781
1716.337, 530.161
1718.266, 532.675
1720.194, 530.714
1722.123, 529.340
1724.051, 531.718
1725.980, 534.440
1727.908, 537.165
1729.837, 535.329
1731.765, 531.100
1733.693, 530.277
1735.622, 527.309
1737.550, 518.066
1739.479, 509.766
1741.407, 503.579
1743.336, 513.199
1745.264, 525.492
1747.193, 504.856
1749.121, 489.804
1751.050, 502.506
1752.978, 505.687
1754.907, 493.620
1756.835, 501.022
1758.764, 516.355
1760.692, 522.149
1762.620, 520.394
1764.549, 510.128
1766.477, 504.935
1768.406, 505.943
1770.334, 502.478
1772.263, 498.696
1774.191, 499.989
1776.120, 505.393
1778.048, 516.102
1779.977, 512.844
1781.905, 498.945
1783.834, 501.002
1785.762, 506.756
1787.691, 501.822
1789.619, 500.637
1791.547, 506.403
1793.476, 506.239
1795.404, 501.891
1797.333, 500.636
1799.261, 499.737
1801.190, 497.615
1803.118, 492.414
1805.047, 484.686
1806.975, 479.772
1808.904, 478.305
1810.832, 486.582
1812.761, 488.736
1814.689, 474.073
1816.618, 470.111
1818.546, 475.780
1820.474, 478.769
1822.403, 479.742
1824.331, 477.219
1826.260, 480.911
1828.188, 493.572
1830.117, 483.228
1832.045, 463.804
1833.974, 464.354
1835.902, 469.900
1837.831, 475.238
1839.759, 476.985
1841.688, 474.557
1843.616, 470.692
1845.545, 467.132
1847.473, 463.589
1849.401, 462.751
1851.330, 467.406
1853.258, 464.065
1855.187, 457.475
1857.115, 463.075
1859.044, 464.620
1860.972, 448.991
1862.901, 443.922
1864.829, 449.672
1866.758, 453.216
1868.686, 452.224
1870.615, 442.601
1872.543, 441.117
1874.472, 451.815
1876.400, 449.659
1878.328, 442.113
1880.257, 439.765
1882.185, 436.034
1884.114, 427.107
1886.042, 436.644
1887.971, 455.266
1889.899, 451.236
1891.828, 441.409
1893.756, 433.030
1895.685, 430.348
1897.613, 433.286
1899.542, 439.860
1901.470, 445.551
1903.399, 444.219
1905.327, 445.593
1907.255, 451.335
1909.184, 447.741
1911.112, 440.024
1913.041, 438.799
1914.969, 435.503
1916.898, 425.463
1918.826, 429.958
1920.755, 441.036
1922.683, 434.782
1924.612, 424.244
1926.540, 414.367
1928.469, 418.268
1930.397, 429.116
1932.326, 417.100
1934.254, 407.659
1936.182, 419.631
1938.111, 422.805
1940.039, 417.358
1941.968, 417.369
1943.896, 418.690
1945.825, 418.828
1947.753, 416.870
1949.682, 413.342
1951.610, 418.637
1953.539, 421.381
1955.467, 405.674
1957.396, 400.460
1959.324, 405.804
1961.253, 406.231
1963.181, 406.049
1965.109, 412.626
1967.038, 407.170
1968.966, 386.140
1970.895, 391.027
1972.823, 404.474
1974.752, 410.198
1976.680, 403.292
1978.609, 377.971
1980.537, 387.599
1982.466, 406.584
1984.394, 394.771
1986.323, 380.949
1988.251, 377.304
1990.180, 377.958
1992.108, 379.661
1994.036, 380.524
1995.965, 382.124
1997.893, 384.986
1999.822, 391.301
2001.750, 397.960
2003.679, 399.289
2005.607, 395.952
2007.536, 388.560
2009.464, 385.769
2011.393, 386.457
2013.321, 386.552
2015.250, 380.098
2017.178, 367.833
2019.107, 374.387
2021.035, 386.318
2022.964, 385.333
2024.892, 381.005
2026.820, 376.214
2028.749, 377.008
2030.677, 377.579
2032.606, 368.955
2034.534, 361.605
2036.463, 360.961
2038.391, 363.943
2040.320, 366.650
2042.248, 370.470
2044.177, 373.687
2046.105, 375.234
2048.034, 365.265
2049.962, 358.918
2051.891, 365.464
2053.819, 368.471
2055.748, 368.594
2057.676, 368.056
2059.604, 363.906
2061.533, 355.323
2063.461, 343.959
2065.390, 338.090
2067.318, 355.638
2069.247, 358.565
2071.175, 341.086
2073.104, 337.370
2075.032, 339.158
2076.960, 339.957
2078.889, 352.134
2080.817, 371.516
2082.746, 368.302
2084.674, 355.302
2086.603, 336.793
2088.531, 315.759
2090.460, 299.623
2092.388, 309.427
2094.317, 322.068
2096.245, 334.940
2098.174, 341.548
2100.102, 339.995
2102.031, 334.800
2103.959, 332.104
2105.887, 331.771
2107.816, 324.511
2109.744, 320.960
2111.673, 331.999
2113.601, 339.626
2115.530, 342.685
2117.458, 343.232
2119.387, 335.197
2121.315, 324.958
2123.244, 327.155
2125.172, 331.035
2127.101, 319.975
2129.029, 316.158
2130.958, 328.920
2132.886, 329.587
2134.814, 326.086
2136.743, 333.020
2138.671, 330.682
2140.600, 320.929
2142.528, 312.755
2144.457, 308.626
2146.385, 316.381
2148.314, 316.304
2150.242, 310.363
2152.171, 319.862
2154.099, 325.640
2156.028, 320.816
2157.956, 318.603
2159.885, 318.524
2161.813, 317.461
2163.741, 313.619
2165.670, 311.786
2167.598, 316.957
2169.527, 315.364
2171.455, 307.677
2173.384, 298.734
2175.312, 292.878
2177.241, 297.561
2179.169, 299.378
2181.098, 299.692
2183.026, 299.205
2184.955, 296.746
2186.883, 290.120
2188.812, 287.960
2190.740, 286.546
2192.668, 280.097
2194.597, 282.815
2196.525, 291.562
2198.454, 296.008
2200.382, 293.322
2202.311, 276.013
2204.239, 281.561
2206.168, 292.605
2208.096, 277.217
2210.025, 274.159
2211.953, 287.087
2213.882, 278.307
2215.810, 267.074
2217.739, 263.040
2219.667, 261.130
2221.595, 260.802
2223.524, 266.608
2225.452, 273.230
2227.381, 277.970
2229.309, 299.456
2231.238, 305.747
2233.166, 276.220
2235.095, 275.628
2237.023, 281.495
2238.952, 262.751
2240.880, 254.595
2242.809, 259.116
2244.737, 267.343
2246.666, 273.995
2248.594, 278.111
2250.522, 268.506
2252.451, 256.044
2254.379, 250.442
2256.308, 254.593
2258.236, 262.429
2260.165, 260.581
2262.093, 255.316
2264.022, 248.847
2265.950, 248.101
2267.879, 250.331
2269.807, 253.182
2271.736, 252.404
2273.664, 249.984
2275.593, 248.326
2277.521, 242.384
2279.449, 235.188
2281.378, 240.508
2283.306, 246.225
2285.235, 248.225
2287.163, 247.053
2289.092, 245.805
2291.020, 248.865
2292.949, 243.171
2294.877, 234.046
2296.806, 235.392
2298.734, 237.227
2300.663, 236.494
2302.591, 232.789
2304.520, 233.260
2306.448, 240.159
2308.376, 235.032
2310.305, 230.948
2312.233, 240.932
2314.162, 241.612
2316.090, 237.794
2318.019, 235.146
2319.947, 232.165
2321.876, 229.023
2323.804, 230.269
2325.733, 231.870
2327.661, 232.307
2329.590, 236.722
2331.518, 237.650
2333.447, 229.152
2335.375, 232.902
2337.303, 237.160
2339.232, 222.380
2341.160, 223.558
2343.089, 234.135
2345.017, 228.372
2346.946, 222.974
2348.874, 217.726
2350.803, 221.812
2352.731, 225.734
2354.660, 216.350
2356.588, 215.356
2358.517, 218.846
2360.445, 219.288
2362.374, 222.368
2364.302, 221.066
2366.230, 215.356
2368.159, 216.106
2370.087, 218.456
2372.016, 222.120
2373.944, 221.438
2375.873, 210.471
2377.801, 214.380
2379.730, 218.835
2381.658, 210.155
2383.587, 208.007
2385.515, 208.396
2387.444, 203.662
2389.372, 205.729
2391.301, 206.437
2393.229, 206.683
2395.157, 211.352
2397.086, 211.309
2399.014, 206.651
2400.943, 199.881
2402.871, 195.737
2404.800, 195.048
2406.728, 200.136
2408.657, 205.417
2410.585, 198.218
2412.514, 187.645
2414.442, 176.908
2416.371, 184.560
2418.299, 196.807
2420.228, 196.002
2422.156, 181.381
2424.084, 173.405
2426.013, 188.472
2427.941, 196.776
2429.870, 192.285
2431.798, 178.100
2433.727, 179.393
2435.655, 187.753
2437.584, 189.989
2439.512, 194.564
2441.441, 192.899
2443.369, 185.036
2445.298, 186.877
2447.226, 195.565
2449.155, 193.214
2451.083, 188.782
2453.011, 186.514
2454.940, 183.612
2456.868, 178.662
2458.797, 177.228
2460.725, 176.660
2462.654, 175.618
2464.582, 186.180
2466.511, 181.147
2468.439, 170.070
2470.368, 172.706
2472.296, 178.447
2474.225, 178.797
2476.153, 176.978
2478.082, 175.277
2480.010, 172.003
2481.938, 170.037
2483.867, 167.348
2485.795, 169.241
2487.724, 165.669
2489.652, 160.421
2491.581, 164.761
2493.509, 167.882
2495.438, 168.894
2497.366, 173.416
2499.295, 173.954
2501.223, 170.524
2503.152, 164.383
2505.080, 159.553
2507.009, 156.548
2508.937, 158.536
2510.865, 160.304
2512.794, 157.572
2514.722, 156.481
2516.651, 153.842
2518.579, 153.800
2520.508, 156.965
2522.436, 151.188
2524.365, 145.200
2526.293, 149.384
2528.222, 154.944
2530.150, 162.308
2532.079, 162.280
2534.007, 151.672
2535.936, 152.213
2537.864, 152.305
2539.792, 146.706
2541.721, 149.056
2543.649, 153.270
2545.578, 144.151
2547.506, 151.444
2549.435, 150.825
2551.363, 138.612
2553.292, 144.648
2555.220, 153.187
2557.149, 152.796
2559.077, 141.218
2561.006, 136.983
2562.934, 146.246
2564.863, 149.742
2566.791, 136.048
2568.719, 128.696
2570.648, 137.822
2572.576, 138.255
2574.505, 134.309
2576.433, 136.155
2578.362, 135.450
2580.290, 140.936
2582.219, 134.445
2584.147, 124.958
2586.076, 123.706
2588.004, 131.906
2589.933, 139.719
2591.861, 139.689
2593.790, 142.540
2595.718, 138.412
2597.646, 130.063
2599.575, 137.805
2601.503, 136.041
2603.432, 132.058
2605.360, 131.742
2607.289, 130.769
2609.217, 129.013
2611.146, 116.910
2613.074, 120.794
2615.003, 130.791
2616.931, 121.846
2618.860, 119.186
2620.788, 121.619
2622.717, 123.772
2624.645, 122.192
2626.573, 125.836
2628.502, 130.301
2630.430, 121.975
2632.359, 112.172
2634.287, 115.270
2636.216, 120.049
2638.144, 124.393
2640.073, 125.335
2642.001, 121.884
2643.930, 118.615
2645.858, 117.893
2647.787, 123.480
2649.715, 118.820
2651.644, 115.441
2653.572, 122.188
2655.500, 123.045
2657.429, 120.724
2659.357, 113.031
2661.286, 110.809
2663.214, 113.873
2665.143, 116.852
2667.071, 114.626
2669.000, 113.256
2670.928, 112.121
2672.857, 117.081
2674.785, 116.610
2676.714, 107.642
2678.642, 109.182
2680.571, 109.337
2682.499, 102.461
2684.427, 106.849
2686.356, 109.589
2688.284, 104.696
2690.213, 99.406
2692.141, 106.288
2694.070, 112.549
2695.998, 110.636
2697.927, 114.734
2699.855, 113.681
2701.784, 106.857
2703.712, 97.844
2705.641, 95.711
2707.569, 106.687
2709.498, 105.164
2711.426, 102.031
2713.354, 101.050
2715.283, 99.966
2717.211, 95.330
2719.140, 87.908
2721.068, 83.897
2722.997, 86.758
2724.925, 92.627
2726.854, 92.707
2728.782, 98.416
2730.711, 99.572
2732.639, 89.368
2734.568, 93.120
2736.496, 93.518
2738.425, 88.501
2740.353, 91.252
2742.281, 90.368
2744.210, 87.866
2746.138, 95.336
2748.067, 91.931
2749.995, 86.862
2751.924, 98.434
2753.852, 101.476
2755.781, 97.511
2757.709, 87.660
2759.638, 78.955
2761.566, 85.681
2763.495, 106.210
2765.423, 98.979
2767.352, 89.274
2769.280, 83.269
2771.208, 81.693
2773.137, 85.417
2775.065, 90.926
2776.994, 96.473
2778.922, 80.997
2780.851, 73.450
2782.779, 84.728
2784.708, 88.469
2786.636, 85.568
2788.565, 80.575
2790.493, 77.526
2792.422, 77.358
2794.350, 77.892
2796.279, 75.966
2798.207, 75.275
2800.135, 75.914
2802.064, 74.308
2803.992, 71.764
2805.921, 75.103
2807.849, 83.289
2809.778, 79.714
2811.706, 80.595
2813.635, 81.061
2815.563, 69.239
2817.492, 69.019
2819.420, 69.545
2821.349, 69.825
2823.277, 81.258
2825.206, 76.398
2827.134, 63.530
2829.063, 60.996
2830.991, 74.112
2832.919, 82.373
2834.848, 74.796
2836.776, 84.622
2838.705, 85.335
2840.633, 70.569
2842.562, 75.468
2844.490, 70.727
2846.419, 63.919
2848.347, 71.258
2850.276, 72.648
2852.204, 72.937
2854.133, 67.102
2856.061, 70.646
2857.990, 68.781
2859.918, 61.312
2861.846, 63.147
2863.775, 68.641
2865.703, 72.060
2867.632, 70.790
2869.560, 74.468
2871.489, 71.252
2873.417, 67.031
2875.346, 61.566
2877.274, 59.416
2879.203, 62.899
2881.131, 63.551
2883.060, 63.089
2884.988, 64.752
2886.917, 71.617
2888.845, 72.336
2890.773, 66.945
2892.702, 58.117
2894.630, 57.888
2896.559, 68.754
2898.487, 71.944
2900.416, 63.532
2902.344, 60.232
2904.273, 57.720
2906.201, 54.070
2908.130, 56.751
2910.058, 55.099
2911.987, 52.899
2913.915, 54.364
2915.844, 50.496
2917.772, 53.290
2919.700, 62.116
2921.629, 67.065
2923.557, 55.733
2925.486, 47.851
2927.414, 45.584
2929.343, 53.842
2931.271, 62.087
2933.200, 62.730
2935.128, 52.716
2937.057, 54.866
2938.985, 59.659
2940.914, 60.294
2942.842, 59.645
2944.771, 49.077
2946.699, 45.524
2948.627, 58.102
2950.556, 58.754
2952.484, 58.271
2954.413, 61.666
2956.341, 52.999
2958.270, 53.461
2960.198, 51.596
2962.127, 47.738
2964.055, 54.674
2965.984, 53.721
2967.912, 52.171
2969.841, 41.951
2971.769, 49.579
2973.698, 54.986
2975.626, 55.339
2977.554, 47.623
2979.483, 49.042
2981.411, 49.931
2983.340, 52.500
2985.268, 54.842
2987.197, 51.133
2989.125, 49.495
2991.054, 53.442
2992.982, 45.992
2994.911, 42.338
2996.839, 46.676
2998.768, 54.897
3000.696, 53.294
3002.625, 46.579
3004.553, 44.926
3006.481, 38.093
3008.410, 34.536
3010.338, 39.621
3012.267, 41.640
3014.195, 40.878
3016.124, 50.132
3018.052, 59.130
3019.981, 48.750
3021.909, 51.651
3023.838, 51.869
3025.766, 43.302
3027.695, 45.771
3029.623, 45.095
3031.552, 39.519
3033.480, 45.544
3035.408, 48.289
3037.337, 44.270
3039.265, 40.507
3041.194, 36.029
3043.122, 42.993
3045.051, 36.245
3046.979, 22.063
3048.908, 41.484
3050.836, 35.677
3052.765, 32.833
3054.693, 43.479
3056.622, 36.507
3058.550, 34.654
3060.479, 33.654
3062.407, 36.175
3064.335, 26.973
3066.264, 28.965
3068.192, 35.758
3070.121, 29.207
3072.049, 26.102
3073.978, 34.216
3075.906, 42.888
3077.835, 32.868
3079.763, 29.210
3081.692, 28.133
3083.620, 29.422
3085.549, 33.682
3087.477, 31.436
3089.406, 31.627
3091.334, 33.501
3093.262, 29.933
3095.191, 34.258
3097.119, 31.709
3099.048, 24.521
3100.976, 21.152
3102.905, 31.070
3104.833, 32.160
3106.762, 20.107
3108.690, 34.262
3110.619, 34.010
3112.547, 31.878
3114.476, 40.654
3116.404, 34.024
3118.333, 27.680
3120.261, 30.854
3122.189, 36.737
3124.118, 35.775
3126.046, 39.268
3127.975, 35.970
3129.903, 25.082
3131.832, 25.435
3133.760, 25.587
3135.689, 27.256
3137.617, 24.739
3139.546, 15.440
3141.474, 12.079
3143.403, 16.926
3145.331, 31.058
3147.260, 22.545
3149.188, 17.765
3151.116, 14.115
3153.045, 7.401
3154.973, 35.037
3156.902, 32.135
3158.830, 20.633
3160.759, 19.211
3162.687, 20.154
3164.616, 15.813
3166.544, 17.328
3168.473, 28.452
3170.401, 22.035
3172.330, 16.074
3174.258, 17.664
3176.187, 21.877
3178.115, 13.667
3180.043, 20.466
3181.972, 21.678
3183.900, 14.744
3185.829, 14.572
3187.757, 18.650
3189.686, 19.258
3191.614, 17.547
3193.543, 19.246
3195.471, 25.612
3197.400, 23.357
3199.328, 16.339
3201.257, 13.420
3203.185, 13.635
3205.114, 18.281
3207.042, 19.753
3208.970, 14.564
3210.899, 23.700
3212.827, 21.979
3214.756, 27.608
3216.684, 41.739
3218.613, 9.654
3220.541, 8.715
3222.470, 20.586
3224.398, 27.810
3226.327, 18.953
3228.255, 14.175
3230.184, 15.037
3232.112, 15.111
3234.041, 5.572
3235.969, 4.040
3237.897, 6.739
3239.826, 10.366
3241.754, 13.461
3243.683, 17.130
3245.611, 24.515
3247.540, 21.137
3249.468, 5.549
3251.397, 4.847
3253.325, 9.861
3255.254, 8.586
3257.182, 8.091
3259.111, 22.395
3261.039, 24.723
3262.968, 23.029
3264.896, 22.983
3266.824, 23.670
3268.753, 8.901
3270.681, 8.383
3272.610, 13.022
3274.538, 14.815
3276.467, 15.316
3278.395, 27.931
3280.324, 22.613
3282.252, 13.418
3284.181, 23.073
3286.109, 29.327
3288.038, 23.728
3289.966, 13.669
3291.895, 7.843
3293.823, 12.252
3295.751, 32.681
3297.680, 31.667
3299.608, 11.815
3301.537, -2.701
3303.465, 0.405
3305.394, 20.885
3307.322, 28.495
3309.251, 14.647
3311.179, 10.475
3313.108, 26.205
3315.036, 22.822
3316.965, 8.372
3318.893, 15.453
3320.822, 29.190
3322.750, 23.980
3324.678, 15.547
3326.607, 14.933
3328.535, 13.222
3330.464, 17.326
3332.392, 22.767
3334.321, 21.689
3336.249, 10.440
3338.178, 17.419
3340.106, 21.854
3342.035, 5.831
3343.963, -12.773
3345.892, 19.515
3347.820, 21.262
3349.749, 16.779
3351.677, 16.705
3353.605, 19.680
3355.534, 5.089
3357.462, 8.741
3359.391, 7.182
3361.319, 5.557
3363.248, 19.934
3365.176, 7.944
3367.105, 15.840
3369.033, 20.492
3370.962, 12.539
3372.890, 7.470
3374.819, 13.706
3376.747, 13.770
3378.676, 2.217
3380.604, -9.227
3382.532, 8.020
3384.461, 24.615
3386.389, 22.288
3388.318, 7.307
3390.246, -2.910
3392.175, 10.380
3394.103, 7.188
3396.032, 2.511
3397.960, 5.754
3399.889, 16.350
3401.817, 2.042
3403.746, 18.959
3405.674, 12.972
3407.603, 1.203
3409.531, 22.334
3411.459, -2.514
3413.388, -14.170
3415.316, -11.203
3417.245, 1.497
3419.173, 19.150
3421.102, 26.486
3423.030, 22.474
3424.959, 22.649
3426.887, 21.854
3428.816, 2.722
3430.744, -4.446
3432.673, 10.903
3434.601, 17.450
3436.530, 13.247
3438.458, 19.763
3440.386, 21.068
3442.315, 18.712
3444.243, 17.297
3446.172, 14.978
3448.100, 6.107
3450.029, 7.386
3451.957, 5.557
3453.886, 7.681
3455.814, 11.583
3457.743, 8.546
3459.671, -2.328
3461.600, 1.058
3463.528, 13.504
3465.457, 22.393
3467.385, 19.368
3469.313, 17.658
3471.242, 13.002
3473.170, 10.707
3475.099, 4.776
3477.027, -5.630
3478.956, 7.477
3480.884, 7.241
3482.813, 13.209
3484.741, 18.509
3486.670, 17.135
3488.598, 20.706
3490.527, 17.375
3492.455, 8.949
3494.384, 7.337
3496.312, 11.222
3498.240, 8.135
3500.169, 11.662
3502.097, -1.429
3504.026, 3.364
3505.954, 20.250
3507.883, 21.693
3509.811, 6.334
3511.740, 10.004
3513.668, 12.058
3515.597, 10.098
3517.525, 9.126
3519.454, 9.790
3521.382, 13.718
3523.311, 18.639
3525.239, 11.977
3527.167, 4.086
3529.096, 17.481
3531.024, 8.428
3532.953, -6.680
3534.881, 0.344
3536.810, 9.425
3538.738, 2.790
3540.667, 16.268
3542.595, 18.185
3544.524, 15.238
3546.452, 9.712
3548.381, 5.258
3550.309, 7.288
3552.238, 17.282
3554.166, 21.823
3556.094, 17.158
3558.023, 11.435
3559.951, 10.345
3561.880, 10.820
3563.808, 21.693
3565.737, 13.467
3567.665, -2.420
3569.594, -4.897
3571.522, 13.046
3573.451, 16.607
3575.379, 17.038
3577.308, 10.297
3579.236, 8.978
3581.165, 10.085
3583.093, 0.554
3585.021, 3.997
3586.950, 6.682
3588.878, 4.215
3590.807, -3.466
3592.735, -6.200
3594.664, 10.249
3596.592, 20.463
3598.521, 17.614
3600.449, 17.066
3602.378, 14.028
3604.306, 6.808
3606.235, 10.706
3608.163, 22.765
3610.092, 6.584
3612.020, 7.643
3613.948, 20.259
3615.877, 23.060
3617.805, 17.591
3619.734, 10.098
3621.662, 7.969
3623.591, 8.805
3625.519, 8.982
3627.448, 8.023
3629.376, 9.324
3631.305, 2.995
3633.233, 18.313
3635.162, 23.079
3637.090, 15.560
3639.019, 10.553
3640.947, 16.605
3642.875, 7.936
3644.804, 13.776
3646.732, 20.967
3648.661, 16.374
3650.589, 5.971
3652.518, 6.926
3654.446, 6.630
3656.375, -1.397
3658.303, -5.117
3660.232, 6.798
3662.160, 17.861
3664.089, 8.866
3666.017, 11.823
3667.946, -6.101
3669.874, 7.709
3671.802, 16.754
3673.731, 18.917
3675.659, 18.642
3677.588, -11.688
3679.516, -3.840
3681.445, 12.940
3683.373, 16.736
3685.302, 15.382
3687.230, 13.345
3689.159, 5.620
3691.087, 6.001
3693.016, 10.083
3694.944, -0.329
3696.873, -11.455
3698.801, -3.594
3700.729, 16.033
3702.658, -5.089
3704.586, -2.951
3706.515, 19.877
3708.443, 25.691
3710.372, 25.435
3712.300, 22.857
3714.229, 11.066
3716.157, 8.266
3718.086, 7.159
3720.014, 4.605
3721.943, 6.526
3723.871, 1.094
3725.800, -1.718
3727.728, 17.849
3729.656, 3.294
3731.585, 6.502
3733.513, 3.664
3735.442, 16.560
3737.370, 26.908
3739.299, 13.659
3741.227, -10.014
3743.156, 4.159
3745.084, 12.862
3747.013, 16.796
3748.941, 12.372
3750.870, 6.846
3752.798, 8.865
3754.727, 17.391
3756.655, 20.750
3758.583, 14.374
3760.512, 7.964
3762.440, 4.125
3764.369, -2.050
3766.297, -5.034
3768.226, 3.441
3770.154, 8.334
3772.083, 7.596
3774.011, 10.984
3775.940, -1.904
3777.868, 13.743
3779.797, 35.668
3781.725, 18.879
3783.654, 3.968
3785.582, -2.167
3787.510, 11.335
3789.439, 11.533
3791.367, 16.776
3793.296, 13.226
3795.224, 4.214
3797.153, 23.546
3799.081, 6.316
3801.010, 16.142
3802.938, 23.515
3804.867, 18.304
3806.795, 19.697
3808.724, 18.550
3810.652, 2.596
3812.581, -1.308
3814.509, 3.372
3816.438, 12.545
3818.366, 10.829
3820.294, 5.984
3822.223, -5.979
3824.151, -4.107
3826.080, 20.012
3828.008, 7.672
3829.937, 1.790
3831.865, 14.989
3833.794, 6.787
3835.722, 13.012
3837.651, 18.317
3839.579, 9.315
3841.508, -0.209
3843.436, -7.159
3845.365, 19.526
3847.293, 20.366
3849.221, -0.513
3851.150, -4.850
3853.078, 7.370
3855.007, 15.434
3856.935, 5.718
3858.864, -18.744
3860.792, -4.473
3862.721, 8.209
3864.649, -6.521
3866.578, 14.048
3868.506, 20.681
3870.435, 6.604
3872.363, -3.677
3874.292, -6.940
3876.220, 23.712
3878.148, 11.762
3880.077, -1.686
3882.005, 6.232
3883.934, 17.420
3885.862, 19.464
3887.791, 21.811
3889.719, 21.423
3891.648, -0.511
3893.576, 17.674
3895.505, -15.186
3897.433, -17.555
3899.362, 20.367
3901.290, 23.010
3903.219, 5.023
3905.147, 1.851
3907.075, 9.368
3909.004, 12.805
3910.932, 14.194
3912.861, 12.609
3914.789, 5.318
3916.718, 13.698
3918.646, 22.358
3920.575, 17.420
3922.503, 5.500
3924.432, 0.431
3926.360, 6.394
3928.289, 14.782
3930.217, 34.427
3932.146, 16.995
3934.074, -0.270
3936.002, -1.947
3937.931, 4.624
3939.859, 10.974
3941.788, 13.300
3943.716, 12.241
3945.645, 13.700
3947.573, 20.236
3949.502, 17.462
3951.430, 14.989
3953.359, 20.029
3955.287, 14.280
3957.216, 15.825
3959.144, 20.628
3961.073, 14.373
3963.001, 3.884
3964.929, 1.237
3966.858, 11.014
3968.786, -2.854
3970.715, 6.163
3972.643, 2.582
3974.572, -0.195
3976.500, 4.261
3978.429, 13.972
3980.357, 18.837
3982.286, 10.488
3984.214, -2.142
3986.143, 8.803
3988.071, 21.369
3990.000, 6.301
3991.928, -8.723
3993.856, 9.679
3995.785, 5.040
3997.713, 17.058
3999.642, 25.863
4001.570, 2.339
4003.499, -8.596
4005.427, 19.072
4007.356, 7.650
4009.284, 13.596
4011.213, 12.775
4013.141, 4.412
4015.070, 6.067
4016.998, 14.198
4018.927, -4.147
4020.855, 1.183
4022.783, 18.422
4024.712, 7.852
4026.640, 8.234
4028.569, 2.983
4030.497, 6.346
4032.426, 14.523
4034.354, 17.122
4036.283, 5.078
4038.211, 4.180
4040.140, -1.566
4042.068, 4.464
4043.997, 13.505
4045.925, 15.228
4047.854, 11.772
4049.782, 4.128
4051.710, 15.455
4053.639, 16.097
4055.567, 2.201
4057.496, 13.091
4059.424, 4.218
4061.353, 14.991
4063.281, -1.808
4065.210, -3.706
4067.138, 10.123
4069.067, 15.859
4070.995, 4.766
4072.924, 2.579
4074.852, 28.141
4076.781, 18.667
4078.709, -4.229
4080.637, 25.893
4082.566, 3.696
4084.494, 7.507
4086.423, -7.556
4088.351, 0.626
4090.280, 26.062
4092.208, 19.519
4094.137, 0.369
4096.065, 2.291
4097.994, 14.034
4099.922, 17.698
4101.851, 18.775
4103.779, 17.543
4105.708, 17.647
4107.636, 18.080
4109.564, 8.679
4111.493, 6.448
4113.421, 14.028
4115.350, 14.579
4117.278, 17.532
4119.207, 10.715
4121.135, 13.763
4123.063, 2.948
4124.992, -2.631
4126.920, 0.578
4128.849, 3.609
4130.777, 21.572
4132.706, 5.223
4134.634, 28.827
4136.563, 17.821
4138.491, 28.147
4140.420, 5.326
4142.348, 13.948
4144.277, 12.939
4146.205, 21.911
4148.134, 6.657
4150.062, 3.021
4151.991, 7.081
4153.919, 17.657
4155.848, 8.243
4157.776, 9.604
4159.705, 21.848
4161.633, 13.608
4163.562, 16.370
4165.490, 4.707
4167.418, -1.606
4169.347, 12.329
4171.275, 7.654
4173.204, 8.735
4175.132, 7.997
4177.061, 0.882
4178.989, 18.258
4180.917, -4.543
4182.846, 11.156
4184.774, 15.450
4186.703, 4.663
4188.631, 6.470
4190.560, 6.107
4192.488, -11.209
4194.417, 4.763
4196.345, 27.640
4198.274, 14.966
4200.202, 9.675
4202.131, 5.073
4204.059, 1.992
4205.988, 6.759
4207.916, 5.328
4209.845, 19.532
4211.773, 2.704
4213.702, 9.446
4215.630, 11.588
4217.559, -3.729
4219.487, -2.888
4221.416, 17.238
4223.344, -8.879
4225.272, -0.814
4227.201, 14.321
4229.129, 33.860
4231.058, 23.515
4232.986, 3.842
4234.915, 10.583
4236.843, 24.999
4238.771, 14.454
4240.700, 8.619
4242.628, 17.904
4244.557, 13.248
4246.485, 16.275
4248.414, 26.074
4250.342, 8.579
4252.271, 10.271
4254.199, 18.817
4256.128, 7.162
4258.056, -2.453
4259.985, 2.839
4261.913, 8.550
4263.842, -1.431
4265.770, 15.821
4267.699, 2.451
4269.627, 11.844
4271.556, 13.670
4273.484, 10.579
4275.413, 30.832
4277.341, -7.087
4279.270, -0.001
4281.198, 11.265
4283.126, 7.270
4285.055, -8.507
4286.983, 4.178
4288.912, 3.049
4290.840, 11.839
4292.769, 9.247
4294.697, 12.766
4296.625, 13.721
4298.554, -3.298
4300.482, 1.760
4302.411, 15.627
4304.339, 26.978
4306.268, 29.241
4308.196, 8.537
4310.125, 8.384
4312.053, 20.651
4313.982, 7.151
4315.910, 5.279
4317.839, 8.046
4319.767, 1.031
4321.696, 8.141
4323.624, 6.335
4325.553, 13.311
4327.481, 18.150
4329.410, 4.001
4331.338, 9.503
4333.267, 10.040
4335.195, 1.279
4337.124, -3.140
4339.052, 1.599
4340.980, 28.589
4342.909, 30.690
##END=



