##NAMES=Narsarsukite
##RRUFFID=R060203
##IDEAL CHEMISTRY=Na_2_(Ti,Fe^3+^)Si_4_(O,F)_11_
##LOCALITY=Poudrette Quarry, Mont Saint-Hilaire, Rouville County, Quebec, Canada
##OWNER=RRUFF
##SOURCE=Royal Ontario Museum
##DESCRIPTION=Light tan colored transparent fragment
##STATUS=The identification of this mineral is confirmed by single-crystal X-ray diffraction and chemical analysis
##URL=https://www.rruff.net/odr/rruff_sample/R060203
##MEASURED CHEMISTRY=(Na_1.24_[box]_0.76_)(Ti_0.76_Fe^3+^_0.20_Al_0.04_)Si_4.00_(O_10.00_F_1.00_) ; trace amounts of Zr and  K
##DIFFRACTION SAMPLE DESCRIPTION=Single crystal, powder profile is calculated
##CELL PARAMETERS=a: 10.7123 b: 10.7123 c: 7.9419 alpha: 90 beta: 90 gamma: 90 volume: 911.4 crystal system: tetragonal
##FILETYPE=Raman Processed
##RAMAN WAVELENGTH=532

145.9134, 5170.834
147.8418, 5825.056
149.7703, 6901.231
151.6988, 8199.101
153.6272, 9140.894
155.5557, 10409.88
157.4842, 11358.29
159.4126, 11796.01
161.3411, 11865.66
163.2696, 11521.61
165.1980, 10661.71
167.1265, 9486.240
169.0550, 8365.688
170.9834, 7179.820
172.9119, 6145.403
174.8404, 5306.646
176.7688, 4656.519
178.6973, 4177.198
180.6258, 3897.120
182.5542, 3763.722
184.4827, 3646.579
186.4112, 3577.489
188.3396, 3485.128
190.2681, 3335.888
192.1966, 3098.137
194.1250, 2863.214
196.0535, 2618.284
197.9820, 2376.438
199.9104, 2165.769
201.8389, 1994.713
203.7674, 1849.340
205.6958, 1733.410
207.6243, 1647.331
209.5528, 1573.980
211.4812, 1512.893
213.4097, 1461.440
215.3382, 1417.016
217.2666, 1376.648
219.1951, 1344.627
221.1236, 1321.421
223.0520, 1305.479
224.9805, 1302.933
226.9090, 1311.580
228.8374, 1333.411
230.7659, 1370.034
232.6944, 1418.356
234.6228, 1483.314
236.5513, 1565.299
238.4798, 1667.370
240.4082, 1777.401
242.3367, 1891.720
244.2652, 2016.079
246.1936, 2151.792
248.1221, 2278.575
250.0506, 2452.248
251.9790, 2680.349
253.9075, 2967.971
255.8360, 3331.646
257.7644, 3836.221
259.6929, 4391.201
261.6214, 4916.188
263.5498, 5497.105
265.4783, 5942.363
267.4068, 6191.956
269.3352, 6249.411
271.2637, 6166.211
273.1922, 5851.258
275.1206, 5429.979
277.0491, 5002.237
278.9776, 4533.079
280.9060, 4108.144
282.8345, 3758.354
284.7630, 3477.479
286.6914, 3252.804
288.6199, 3091.977
290.5484, 2984.670
292.4768, 2929.801
294.4053, 2925.910
296.3338, 2972.304
298.2622, 3088.320
300.1907, 3253.723
302.1192, 3438.326
304.0476, 3706.649
305.9761, 3938.896
307.9046, 4076.796
309.8330, 4135.325
311.7615, 4114.446
313.6900, 3967.083
315.6184, 3745.677
317.5469, 3516.427
319.4754, 3269.001
321.4038, 3037.832
323.3323, 2845.490
325.2608, 2690.038
327.1892, 2573.103
329.1177, 2502.708
331.0462, 2459.664
332.9747, 2436.092
334.9031, 2431.766
336.8316, 2435.708
338.7601, 2437.751
340.6885, 2443.165
342.6170, 2467.673
344.5455, 2495.016
346.4739, 2551.253
348.4024, 2655.786
350.3309, 2803.931
352.2593, 2973.074
354.1878, 3190.501
356.1163, 3418.462
358.0447, 3605.054
359.9732, 3752.554
361.9017, 3867.466
363.8301, 3915.620
365.7586, 3899.278
367.6871, 3895.044
369.6155, 3932.778
371.5440, 3980.207
373.4725, 4036.601
375.4009, 4109.526
377.3294, 4169.112
379.2579, 4185.962
381.1863, 4166.201
383.1148, 4102.047
385.0433, 3967.642
386.9717, 3814.040
388.9002, 3652.156
390.8287, 3486.259
392.7571, 3354.198
394.6856, 3276.810
396.6141, 3236.379
398.5425, 3240.452
400.4710, 3294.149
402.3995, 3367.019
404.3279, 3420.904
406.2564, 3499.152
408.1849, 3687.121
410.1133, 3956.036
412.0418, 4360.637
413.9703, 4992.894
415.8987, 5825.157
417.8272, 6679.776
419.7557, 7671.946
421.6841, 8600.435
423.6126, 9214.880
425.5411, 9347.594
427.4695, 9230.671
429.3980, 8781.813
431.3265, 8106.261
433.2549, 7417.337
435.1834, 6829.818
437.1119, 6372.623
439.0403, 6066.692
440.9688, 5925.962
442.8973, 5854.067
444.8257, 5855.922
446.7542, 5855.275
448.6827, 5790.369
450.6111, 5611.697
452.5396, 5387.994
454.4681, 5113.984
456.3965, 4812.278
458.3250, 4531.275
460.2535, 4305.622
462.1819, 4140.205
464.1104, 4010.673
466.0389, 3930.365
467.9673, 3987.141
469.8958, 4141.522
471.8243, 4430.950
473.7527, 4922.446
475.6812, 5643.525
477.6097, 6402.378
479.5381, 7201.347
481.4666, 7934.350
483.3951, 8431.261
485.3235, 8561.532
487.2520, 8438.133
489.1805, 8090.454
491.1089, 7608.252
493.0374, 7081.041
494.9659, 6601.223
496.8943, 6201.927
498.8228, 5900.266
500.7513, 5697.394
502.6797, 5587.632
504.6082, 5566.694
506.5367, 5608.586
508.4651, 5707.240
510.3936, 5883.623
512.3221, 6046.733
514.2505, 6218.381
516.1790, 6334.497
518.1075, 6353.071
520.0359, 6211.025
521.9644, 5922.331
523.8929, 5478.742
525.8214, 4924.614
527.7498, 4321.061
529.6783, 3751.752
531.6068, 3251.447
533.5352, 2831.234
535.4637, 2490.914
537.3922, 2227.892
539.3206, 2034.182
541.2491, 1876.173
543.1776, 1748.331
545.1060, 1637.673
547.0345, 1533.605
548.9630, 1429.571
550.8914, 1331.854
552.8199, 1247.487
554.7484, 1178.355
556.6768, 1116.725
558.6053, 1063.931
560.5338, 1018.340
562.4622, 975.1182
564.3907, 935.3370
566.3192, 902.2056
568.2476, 876.2638
570.1761, 857.7829
572.1046, 844.2488
574.0330, 836.0217
575.9615, 833.2989
577.8900, 837.8978
579.8184, 846.9159
581.7469, 855.5892
583.6754, 862.5817
585.6038, 867.8937
587.5323, 872.8187
589.4608, 875.5984
591.3892, 871.9626
593.3177, 859.1241
595.2462, 842.7931
597.1746, 826.9581
599.1031, 811.1225
601.0316, 794.8674
602.9600, 778.0533
604.8885, 764.6819
606.8170, 755.9437
608.7454, 751.0997
610.6739, 748.9266
612.6024, 748.4307
614.5308, 750.7067
616.4593, 758.3421
618.3878, 771.4412
620.3162, 788.9537
622.2447, 812.2489
624.1732, 839.8408
626.1016, 869.2742
628.0301, 901.9576
629.9586, 932.5061
631.8870, 960.9289
633.8155, 982.3663
635.7440, 994.7994
637.6724, 997.8160
639.6009, 994.5016
641.5294, 983.8668
643.4578, 968.7139
645.3863, 951.8829
647.3148, 932.2618
649.2432, 912.2773
651.1717, 893.0551
653.1002, 876.2080
655.0286, 861.0010
656.9571, 847.2350
658.8856, 834.7191
660.8140, 823.2894
662.7425, 813.5218
664.6710, 808.2411
666.5994, 808.2287
668.5279, 811.2299
670.4564, 815.5095
672.3848, 821.2556
674.3133, 829.1678
676.2418, 839.8212
678.1702, 852.4838
680.0987, 867.0582
682.0272, 882.4503
683.9556, 899.1500
685.8841, 917.0740
687.8126, 937.9369
689.7410, 961.2532
691.6695, 987.4513
693.5980, 1014.908
695.5264, 1044.489
697.4549, 1074.443
699.3834, 1102.853
701.3118, 1126.957
703.2403, 1150.953
705.1688, 1174.485
707.0972, 1200.439
709.0257, 1230.281
710.9542, 1261.708
712.8826, 1303.160
714.8111, 1353.692
716.7396, 1414.425
718.6680, 1487.915
720.5965, 1566.233
722.5250, 1664.026
724.4534, 1789.932
726.3819, 1941.128
728.3104, 2113.641
730.2388, 2320.466
732.1673, 2534.286
734.0958, 2757.422
736.0242, 2981.461
737.9527, 3176.876
739.8812, 3332.788
741.8096, 3472.532
743.7381, 3590.895
745.6666, 3697.525
747.5950, 3842.320
749.5235, 4023.863
751.4520, 4255.547
753.3804, 4541.742
755.3089, 4887.095
757.2374, 5275.381
759.1658, 5726.288
761.0943, 6193.169
763.0228, 6669.442
764.9512, 7154.350
766.8797, 7592.736
768.8082, 8022.458
770.7366, 8362.518
772.6651, 8579.042
774.5936, 8652.802
776.5220, 8622.045
778.4505, 8445.691
780.3790, 8205.561
782.3074, 7932.320
784.2359, 7624.444
786.1644, 7330.768
788.0928, 7049.740
790.0213, 6784.178
791.9498, 6542.546
793.8782, 6325.436
795.8067, 6106.893
797.7352, 5890.881
799.6636, 5667.559
801.5921, 5436.755
803.5206, 5199.692
805.4490, 4942.394
807.3775, 4647.445
809.3060, 4349.310
811.2344, 4053.315
813.1629, 3759.514
815.0914, 3503.463
817.0198, 3288.674
818.9483, 3109.676
820.8768, 2973.976
822.8052, 2882.270
824.7337, 2772.915
826.6622, 2643.586
828.5906, 2495.251
830.5191, 2313.123
832.4476, 2091.688
834.3760, 1898.482
836.3045, 1734.331
838.2330, 1599.369
840.1614, 1494.716
842.0899, 1419.628
844.0184, 1364.153
845.9468, 1334.808
847.8753, 1317.739
849.8038, 1310.121
851.7322, 1311.750
853.6607, 1321.065
855.5892, 1336.905
857.5176, 1361.683
859.4461, 1394.951
861.3746, 1437.589
863.3030, 1494.080
865.2315, 1564.807
867.1600, 1650.582
869.0884, 1753.331
871.0169, 1872.546
872.9454, 2002.807
874.8738, 2154.242
876.8023, 2295.876
878.7308, 2423.870
880.6592, 2532.732
882.5877, 2607.865
884.5162, 2643.472
886.4446, 2651.714
888.3731, 2621.406
890.3016, 2565.868
892.2300, 2527.242
894.1585, 2501.307
896.0870, 2500.229
898.0154, 2538.219
899.9439, 2599.136
901.8724, 2666.554
903.8008, 2754.195
905.7293, 2803.414
907.6578, 2808.359
909.5862, 2769.655
911.5147, 2667.963
913.4432, 2483.397
915.3716, 2284.149
917.3001, 2062.251
919.2286, 1841.532
921.1570, 1653.130
923.0855, 1494.228
925.0140, 1366.126
926.9424, 1277.600
928.8709, 1216.208
930.7994, 1177.358
932.7278, 1161.699
934.6563, 1156.893
936.5848, 1160.200
938.5132, 1173.763
940.4417, 1198.571
942.3702, 1235.432
944.2986, 1284.386
946.2271, 1343.803
948.1556, 1417.597
950.0840, 1505.289
952.0125, 1608.727
953.9410, 1733.256
955.8694, 1876.922
957.7979, 2046.850
959.7264, 2244.213
961.6548, 2471.893
963.5833, 2748.786
965.5118, 3075.576
967.4402, 3455.495
969.3687, 3889.165
971.2972, 4386.562
973.2256, 4921.517
975.1541, 5503.680
977.0826, 6159.827
979.0110, 6876.282
980.9395, 7652.971
982.8680, 8549.369
984.7964, 9529.471
986.7249, 10564.26
988.6534, 11653.15
990.5818, 12814.11
992.5103, 13977.78
994.4388, 15243.02
996.3672, 16776.69
998.2957, 18616.92
1000.224, 20675.52
1002.153, 23171.87
1004.081, 25815.54
1006.010, 28009.32
1007.938, 29807.48
1009.867, 30848.85
1011.795, 30758.71
1013.723, 29545.23
1015.652, 27888.63
1017.580, 25712.38
1019.509, 23378.15
1021.437, 21019.82
1023.366, 18719.18
1025.294, 16425.63
1027.223, 14148.17
1029.151, 12035.31
1031.080, 10100.27
1033.008, 8352.277
1034.937, 6858.656
1036.865, 5662.772
1038.794, 4678.773
1040.722, 3920.460
1042.651, 3340.819
1044.579, 2902.096
1046.507, 2573.811
1048.436, 2312.936
1050.364, 2116.316
1052.293, 1961.996
1054.221, 1832.827
1056.150, 1722.629
1058.078, 1636.208
1060.007, 1575.030
1061.935, 1530.828
1063.864, 1499.123
1065.792, 1480.794
1067.721, 1489.092
1069.649, 1519.817
1071.578, 1572.108
1073.506, 1645.448
1075.434, 1723.862
1077.363, 1794.534
1079.291, 1851.920
1081.220, 1879.096
1083.148, 1873.505
1085.077, 1852.444
1087.005, 1829.809
1088.934, 1814.260
1090.862, 1813.205
1092.791, 1828.905
1094.719, 1857.964
1096.648, 1897.691
1098.576, 1951.554
1100.505, 2030.027
1102.433, 2117.067
1104.361, 2227.156
1106.290, 2365.639
1108.218, 2534.806
1110.147, 2744.898
1112.075, 3015.952
1114.004, 3341.202
1115.932, 3723.772
1117.861, 4157.456
1119.789, 4619.764
1121.718, 5089.602
1123.646, 5454.744
1125.575, 5691.274
1127.503, 5708.269
1129.432, 5471.312
1131.360, 5000.653
1133.288, 4420.000
1135.217, 3733.364
1137.145, 3092.089
1139.074, 2561.446
1141.002, 2134.709
1142.931, 1805.041
1144.859, 1577.366
1146.788, 1419.280
1148.716, 1312.125
1150.645, 1237.376
1152.573, 1178.656
1154.502, 1133.454
1156.430, 1090.054
1158.359, 1056.759
1160.287, 1023.335
1162.215, 986.9774
1164.144, 949.9054
1166.072, 915.3659
1168.001, 881.7513
1169.929, 851.1957
1171.858, 823.7265
1173.786, 799.7403
1175.715, 777.7579
1177.643, 756.7078
1179.572, 736.4141
1181.500, 718.5864
1183.429, 703.6224
1185.357, 690.1697
1187.286, 677.1915
1189.214, 663.0983
1191.142, 647.3763
1193.071, 633.0769
1194.999, 620.3681
1196.928, 609.6238
1198.856, 600.9686
1200.785, 594.2079
1202.713, 587.1951
1204.642, 579.1263
1206.570, 572.0128
1208.499, 567.1102
1210.427, 563.6957
1212.356, 559.6210
1214.284, 554.2733
1216.213, 549.8973
1218.141, 546.7623
1220.069, 544.3922
1221.998, 542.1783
1223.926, 539.5652
1225.855, 539.4335
1227.783, 545.8972
1229.712, 550.4990
1231.640, 547.4005
1233.569, 539.0533
1235.497, 533.8075
1237.426, 532.4590
1239.354, 532.0292
1241.283, 532.4074
1243.211, 534.1219
1245.140, 535.6323
1247.068, 536.7012
1248.996, 537.8270
1250.925, 540.1240
1252.853, 541.0391
1254.782, 539.3124
1256.710, 537.1081
1258.639, 536.7164
1260.567, 539.3322
1262.496, 540.0142
1264.424, 539.4252
1266.353, 538.9672
1268.281, 537.3728
1270.210, 534.5293
1272.138, 532.9167
1274.067, 533.5172
1275.995, 533.6333
1277.923, 532.4493
1279.852, 531.7305
1281.780, 530.2551
1283.709, 527.4593
1285.637, 525.5770
1287.566, 526.6964
1289.494, 527.3712
1291.423, 525.2358
1293.351, 521.3923
1295.280, 519.1208
1297.208, 519.4267
1299.137, 519.7556
1301.065, 520.0017
1302.994, 519.8671
1304.922, 519.0064
1306.850, 517.0167
1308.779, 514.7677
1310.707, 511.7690
1312.636, 510.2966
1314.564, 511.2810
1316.493, 512.8511
1318.421, 513.1151
1320.350, 511.3807
1322.278, 509.1629
1324.207, 506.1058
1326.135, 504.5801
1328.064, 506.4503
1329.992, 509.2387
1331.921, 509.2197
1333.849, 505.6304
1335.777, 503.2955
1337.706, 503.3605
1339.634, 504.1920
1341.563, 506.0437
1343.491, 508.5872
1345.420, 509.9284
1347.348, 508.3007
1349.277, 508.1434
1351.205, 511.4688
1353.134, 514.9515
1355.062, 515.9703
1356.991, 514.7926
1358.919, 513.9722
1360.848, 513.4095
1362.776, 513.3889
1364.704, 514.3018
1366.633, 515.6982
1368.561, 516.9356
1370.490, 517.9537
1372.418, 519.4636
1374.347, 521.8827
1376.275, 523.9459
1378.204, 524.9470
1380.132, 525.4105
1382.061, 525.8258
1383.989, 526.1871
1385.918, 525.9799
1387.846, 524.2668
1389.775, 523.5977
1391.703, 525.4142
1393.631, 528.1181
1395.560, 529.9659
1397.488, 530.8717
1399.417, 531.2225
1401.345, 530.4073
1403.274, 529.6774
1405.202, 529.4354
1407.131, 529.3778
1409.059, 529.1573
1410.988, 528.8044
1412.916, 528.3551
1414.845, 528.4930
1416.773, 527.9171
1418.702, 525.2582
1420.630, 522.0095
1422.558, 520.6024
1424.487, 521.1414
1426.415, 521.4916
1428.344, 521.0568
1430.272, 520.6703
1432.201, 520.6412
1434.129, 520.8603
1436.058, 521.5208
1437.986, 522.7291
1439.915, 522.7379
1441.843, 520.8506
1443.772, 518.5623
1445.700, 515.5554
1447.629, 512.8775
1449.557, 512.4210
1451.485, 514.6039
1453.414, 516.8621
1455.342, 519.4310
1457.271, 521.7469
1459.199, 523.1469
1461.128, 523.8151
1463.056, 524.6393
1464.985, 525.9736
1466.913, 526.7452
1468.842, 526.0181
1470.770, 525.7746
1472.699, 527.1296
1474.627, 529.1204
1476.556, 530.6552
1478.484, 531.8611
1480.412, 532.7194
1482.341, 533.1849
1484.269, 533.2755
1486.198, 532.6691
1488.126, 531.9569
1490.055, 531.2562
1491.983, 530.5912
1493.912, 531.3212
1495.840, 534.4593
1497.769, 536.3857
1499.697, 535.0633
1501.626, 533.1186
1503.554, 532.1243
1505.483, 532.3389
1507.411, 534.2040
1509.339, 538.2568
1511.268, 541.5661
1513.196, 542.8757
1515.125, 543.7866
1517.053, 544.6790
1518.982, 545.2540
1520.910, 546.5566
1522.839, 549.2897
1524.767, 551.8669
1526.696, 553.8373
1528.624, 555.3168
1530.553, 556.4145
1532.481, 557.4883
1534.410, 558.5816
1536.338, 559.3547
1538.266, 560.2029
1540.195, 561.3572
1542.123, 562.7304
1544.052, 564.5067
1545.980, 566.3298
1547.909, 567.7599
1549.837, 568.6791
1551.766, 569.2031
1553.694, 568.8420
1555.623, 568.8088
1557.551, 569.2911
1559.480, 570.2037
1561.408, 572.4078
1563.337, 575.5389
1565.265, 575.0574
1567.193, 567.9730
1569.122, 563.8974
1571.050, 566.0579
1572.979, 569.2424
1574.907, 571.1225
1576.836, 571.5977
1578.764, 570.0898
1580.693, 566.1529
1582.621, 564.0696
1584.550, 565.4552
1586.478, 567.2898
1588.407, 568.7990
1590.335, 569.8450
1592.264, 570.1248
1594.192, 569.9716
1596.120, 570.3388
1598.049, 571.3424
1599.977, 572.1631
1601.906, 573.4594
1603.834, 573.8469
1605.763, 571.1728
1607.691, 566.9540
1609.620, 565.8036
1611.548, 568.6716
1613.477, 568.8243
1615.405, 562.7493
1617.334, 557.2284
1619.262, 555.6647
1621.191, 556.1303
1623.119, 556.7897
1625.047, 557.5568
1626.976, 558.0253
1628.904, 558.3353
1630.833, 558.1825
1632.761, 557.3250
1634.690, 556.2985
1636.618, 555.1879
1638.547, 554.2325
1640.475, 554.4639
1642.404, 556.1855
1644.332, 555.6364
1646.261, 550.8972
1648.189, 546.2067
1650.118, 543.1261
1652.046, 541.0723
1653.974, 539.8890
1655.903, 539.4367
1657.831, 538.6725
1659.760, 537.6669
1661.688, 535.8641
1663.617, 531.5973
1665.545, 528.3915
1667.474, 528.8764
1669.402, 530.8197
1671.331, 530.6357
1673.259, 528.3102
1675.188, 526.3659
1677.116, 525.4002
1679.045, 524.0381
1680.973, 521.1948
1682.901, 518.6975
1684.830, 517.6798
1686.758, 517.8044
1688.687, 518.4738
1690.615, 519.8508
1692.544, 519.9547
1694.472, 517.6956
1696.401, 515.6598
1698.329, 514.9732
1700.258, 514.5555
1702.186, 513.4097
1704.115, 511.8605
1706.043, 511.3130
1707.972, 511.9662
1709.900, 512.8235
1711.828, 514.2089
1713.757, 515.0146
1715.685, 514.2570
1717.614, 513.1635
1719.542, 512.9108
1721.471, 513.3185
1723.399, 513.5641
1725.328, 513.8080
1727.256, 513.1296
1729.185, 510.1681
1731.113, 508.2769
1733.042, 509.8564
1734.970, 512.2982
1736.899, 512.8315
1738.827, 511.7673
1740.755, 511.1117
1742.684, 510.9186
1744.612, 510.8877
1746.541, 510.6226
1748.469, 511.0209
1750.398, 513.6712
1752.326, 516.2679
1754.255, 515.9903
1756.183, 513.5431
1758.112, 512.4759
1760.040, 513.1321
1761.969, 513.9894
1763.897, 514.9804
1765.826, 515.7591
1767.754, 515.9923
1769.682, 516.0436
1771.611, 515.8759
1773.539, 515.7620
1775.468, 517.0684
1777.396, 520.1059
1779.325, 522.1953
1781.253, 522.8235
1783.182, 522.6329
1785.110, 521.7963
1787.039, 520.3918
1788.967, 517.5447
1790.896, 514.4275
1792.824, 514.5004
1794.753, 518.0507
1796.681, 520.3218
1798.609, 520.3629
1800.538, 519.7420
1802.466, 518.3689
1804.395, 517.1183
1806.323, 516.7125
1808.252, 516.8552
1810.180, 517.0697
1812.109, 517.3859
1814.037, 517.3660
1815.966, 516.4417
1817.894, 516.6774
1819.823, 520.0241
1821.751, 522.8721
1823.680, 522.3617
1825.608, 520.7887
1827.536, 521.9925
1829.465, 525.4977
1831.393, 525.9308
1833.322, 521.9362
1835.250, 519.2347
1837.179, 518.9479
1839.107, 519.4146
1841.036, 521.1346
1842.964, 522.4226
1844.893, 521.2878
1846.821, 518.5067
1848.750, 516.4240
1850.678, 514.8576
1852.607, 514.8284
1854.535, 518.2850
1856.464, 520.3738
1858.392, 519.4630
1860.320, 518.2394
1862.249, 517.9672
1864.177, 518.3112
1866.106, 518.8554
1868.034, 519.5496
1869.963, 520.2113
1871.891, 520.6306
1873.820, 521.5833
1875.748, 523.8193
1877.677, 525.6989
1879.605, 527.1193
1881.534, 527.7596
1883.462, 526.5262
1885.391, 524.5887
1887.319, 524.9153
1889.247, 527.4271
1891.176, 528.9937
1893.104, 529.2813
1895.033, 529.0142
1896.961, 527.6384
1898.890, 527.0176
1900.818, 529.3085
1902.747, 531.6997
1904.675, 530.9274
1906.604, 528.5161
1908.532, 528.4435
1910.461, 530.7604
1912.389, 532.3795
1914.318, 533.0639
1916.246, 532.7479
1918.174, 530.2888
1920.103, 528.2265
1922.031, 527.9700
1923.960, 528.5406
1925.888, 529.0768
1927.817, 529.5388
1929.745, 529.7773
1931.674, 529.7314
1933.602, 529.7630
1935.531, 529.9310
1937.459, 530.1396
1939.388, 530.5311
1941.316, 530.8613
1943.245, 531.0560
1945.173, 531.1503
1947.101, 530.8507
1949.030, 530.4482
1950.958, 531.1750
1952.887, 533.1674
1954.815, 535.1257
1956.744, 537.1705
1958.672, 538.5981
1960.601, 538.7952
1962.529, 539.0185
1964.458, 540.1062
1966.386, 541.2261
1968.315, 541.7830
1970.243, 541.8795
1972.172, 541.7404
1974.100, 541.3768
1976.028, 540.1959
1977.957, 537.6069
1979.885, 536.8546
1981.814, 539.8016
1983.742, 542.4695
1985.671, 542.7231
1987.599, 542.7416
1989.528, 544.4011
1991.456, 546.7249
1993.385, 548.3172
1995.313, 549.1617
1997.242, 548.8932
1999.170, 546.7717
2001.099, 545.4235
2003.027, 544.6980
2004.955, 544.8433
2006.884, 546.2586
2008.812, 548.0814
2010.741, 551.2090
2012.669, 553.5341
2014.598, 551.8403
2016.526, 547.7755
2018.455, 546.5685
2020.383, 548.1613
2022.312, 549.0623
2024.240, 548.6046
2026.169, 549.6034
2028.097, 553.8372
2030.026, 556.7608
2031.954, 555.1127
2033.882, 553.2892
2035.811, 555.0645
2037.739, 557.7314
2039.668, 557.1302
2041.596, 554.2880
2043.525, 553.6325
2045.453, 555.6176
2047.382, 557.0353
2049.310, 557.0856
2051.239, 557.8716
2053.167, 560.9636
2055.096, 562.7924
2057.024, 561.0248
2058.953, 559.0811
2060.881, 559.5850
2062.810, 561.1100
2064.738, 561.4882
2066.667, 561.0706
2068.595, 561.5432
2070.523, 562.9226
2072.452, 564.1434
2074.380, 564.6342
2076.309, 567.4026
2078.237, 575.6119
2080.166, 581.2406
2082.094, 579.5399
2084.023, 576.0546
2085.951, 572.8506
2087.880, 570.9407
2089.808, 572.3596
2091.737, 576.0419
2093.665, 578.4364
2095.594, 579.4167
2097.522, 580.6891
2099.450, 583.4111
2101.379, 583.5846
2103.307, 578.4628
2105.236, 575.3172
2107.164, 577.1805
2109.093, 579.5139
2111.021, 579.8407
2112.950, 580.0341
2114.878, 583.3221
2116.807, 586.7037
2118.735, 583.5934
2120.664, 575.7018
2122.592, 571.8892
2124.521, 572.8620
2126.449, 573.6675
2128.377, 574.0815
2130.306, 573.9807
2132.234, 573.3120
2134.163, 572.0185
2136.091, 568.7250
2138.020, 566.2992
2139.948, 567.0603
2141.877, 569.0721
2143.805, 570.8231
2145.734, 572.0221
2147.662, 571.3093
2149.591, 569.1383
2151.519, 568.9611
2153.448, 571.0172
2155.376, 572.5564
2157.304, 573.1829
2159.233, 573.4753
2161.161, 573.7238
2163.090, 573.4780
2165.018, 571.4948
2166.947, 570.4385
2168.875, 573.1515
2170.804, 576.4870
2172.732, 577.1689
2174.661, 575.9557
2176.589, 573.4996
2178.518, 570.1827
2180.446, 571.4489
2182.375, 577.6896
2184.303, 579.1125
2186.231, 573.5449
2188.160, 571.0942
2190.088, 575.0015
2192.017, 578.8405
2193.945, 581.6093
2195.874, 582.2645
2197.802, 578.4962
2199.731, 574.2543
2201.659, 572.6577
2203.588, 572.5319
2205.516, 572.9761
2207.445, 573.4866
2209.373, 571.6979
2211.302, 567.7732
2213.230, 567.3652
2215.158, 571.0046
2217.087, 572.8340
2219.015, 571.7119
2220.944, 571.1629
2222.872, 572.2637
2224.801, 572.9921
2226.729, 573.0225
2228.658, 571.9291
2230.586, 567.9684
2232.515, 564.5315
2234.443, 564.8858
2236.372, 567.1165
2238.300, 569.2357
2240.229, 571.0021
2242.157, 571.3982
2244.085, 570.5657
2246.014, 569.9310
2247.942, 569.4423
2249.871, 569.4968
2251.799, 570.3255
2253.728, 570.0200
2255.656, 567.6745
2257.585, 565.4955
2259.513, 562.9584
2261.442, 562.4135
2263.370, 567.3980
2265.299, 571.4393
2267.227, 569.3575
2269.156, 565.8419
2271.084, 565.0033
2273.012, 565.8793
2274.941, 567.8901
2276.869, 570.0867
2278.798, 569.1247
2280.726, 565.5931
2282.655, 563.9522
2284.583, 564.4854
2286.512, 565.6762
2288.440, 568.5272
2290.369, 569.3109
2292.297, 563.2262
2294.226, 562.6120
2296.154, 576.1349
2298.083, 584.9188
2300.011, 579.7518
2301.939, 574.0297
2303.868, 574.7922
2305.796, 577.0590
2307.725, 577.6410
2309.653, 577.0053
2311.582, 574.7122
2313.510, 572.1777
2315.439, 572.3419
2317.367, 574.9288
2319.296, 578.7733
2321.224, 583.9924
2323.153, 587.6028
2325.081, 589.3867
2327.010, 590.8763
2328.938, 592.3813
2330.866, 591.7850
2332.795, 587.9941
2334.723, 584.2282
2336.652, 580.9697
2338.580, 578.6170
2340.509, 578.4020
2342.437, 577.8117
2344.366, 574.7434
2346.294, 572.0212
2348.223, 572.3417
2350.151, 573.3123
2352.080, 572.0837
2354.008, 570.1509
2355.937, 569.4763
2357.865, 569.9825
2359.793, 572.1580
2361.722, 575.4882
2363.650, 577.2337
2365.579, 577.3930
2367.507, 576.5519
2369.436, 573.9703
2371.364, 573.1817
2373.293, 574.4656
2375.221, 576.6242
2377.150, 580.3516
2379.078, 581.5753
2381.007, 577.0742
2382.935, 575.4605
2384.864, 583.9411
2386.792, 589.6859
2388.720, 584.9368
2390.649, 579.9349
2392.577, 581.2157
2394.506, 583.6013
2396.434, 583.3033
2398.363, 581.7863
2400.291, 579.7031
2402.220, 577.9678
2404.148, 578.0643
2406.077, 579.4703
2408.005, 581.8179
2409.934, 584.4991
2411.862, 584.4280
2413.791, 581.7740
2415.719, 581.5117
2417.647, 583.9115
2419.576, 586.4379
2421.504, 589.2473
2423.433, 590.2991
2425.361, 589.0364
2427.290, 588.7567
2429.218, 590.6747
2431.147, 591.8259
2433.075, 591.0978
2435.004, 590.3591
2436.932, 588.7266
2438.861, 588.9050
2440.789, 593.5620
2442.718, 597.3593
2444.646, 597.5583
2446.574, 597.0778
2448.503, 597.6209
2450.431, 598.2886
2452.360, 598.6494
2454.288, 598.5460
2456.217, 597.1931
2458.145, 595.7948
2460.074, 596.1292
2462.002, 597.6000
2463.931, 600.0356
2465.859, 602.3149
2467.788, 600.4097
2469.716, 595.9059
2471.645, 595.4463
2473.573, 598.5941
2475.501, 600.2630
2477.430, 600.3722
2479.358, 599.7379
2481.287, 598.1191
2483.215, 597.1843
2485.144, 596.6556
2487.072, 601.3948
2489.001, 614.0049
2490.929, 619.5884
2492.858, 612.6802
2494.786, 606.4821
2496.715, 601.7958
2498.643, 599.9847
2500.572, 603.8536
2502.500, 605.5685
2504.428, 601.9646
2506.357, 599.0344
2508.285, 599.0040
2510.214, 600.0384
2512.142, 602.3317
2514.071, 604.0770
2515.999, 602.6456
2517.928, 602.4681
2519.856, 609.7061
2521.785, 615.4359
2523.713, 609.5134
2525.642, 602.4948
2527.570, 604.4557
2529.499, 609.1618
2531.427, 610.6367
2533.355, 609.9728
2535.284, 607.3236
2537.212, 604.5886
2539.141, 606.1909
2541.069, 609.7054
2542.998, 608.9308
2544.926, 605.7401
2546.855, 604.2589
2548.783, 604.6885
2550.712, 609.5213
2552.640, 617.2628
2554.569, 617.2372
2556.497, 609.9911
2558.426, 605.8288
2560.354, 604.7963
2562.282, 607.8934
2564.211, 614.8495
2566.139, 618.3596
2568.068, 617.5348
2569.996, 616.8812
2571.925, 616.7614
2573.853, 615.3186
2575.782, 612.0562
2577.710, 609.9314
2579.639, 609.1678
2581.567, 610.4384
2583.496, 614.6849
2585.424, 617.6406
2587.353, 618.4889
2589.281, 618.2313
2591.209, 614.6227
2593.138, 614.7811
2595.066, 621.2841
2596.995, 625.4886
2598.923, 624.8447
2600.852, 623.7426
2602.780, 623.8303
2604.709, 622.9620
2606.637, 619.5172
2608.566, 617.0942
2610.494, 616.8282
2612.423, 617.5028
2614.351, 619.1716
2616.280, 621.1039
2618.208, 624.1504
2620.136, 625.5133
2622.065, 622.3888
2623.993, 619.6410
2625.922, 619.0223
2627.850, 619.6244
2629.779, 621.8387
2631.707, 623.8549
2633.636, 624.9265
2635.564, 625.4183
2637.493, 625.7217
2639.421, 625.4172
2641.350, 623.3381
2643.278, 621.8069
2645.207, 622.2581
2647.135, 623.7384
2649.063, 626.9673
2650.992, 629.1970
2652.920, 626.6901
2654.849, 624.6202
2656.777, 628.4713
2658.706, 632.6763
2660.634, 633.5030
2662.563, 631.9683
2664.491, 625.9599
2666.420, 621.5244
2668.348, 625.3474
2670.277, 630.9788
2672.205, 632.8990
2674.134, 633.3274
2676.062, 633.7307
2677.990, 634.3412
2679.919, 636.2614
2681.847, 637.6132
2683.776, 635.9852
2685.704, 633.8151
2687.633, 633.2519
2689.561, 633.7245
2691.490, 635.4442
2693.418, 636.9413
2695.347, 636.1959
2697.275, 634.9362
2699.204, 635.1629
2701.132, 635.3624
2703.061, 632.8665
2704.989, 630.7743
2706.917, 634.1270
2708.846, 637.8490
2710.774, 635.1935
2712.703, 631.8354
2714.631, 633.7718
2716.560, 636.9749
2718.488, 637.3073
2720.417, 636.7621
2722.345, 636.8961
2724.274, 637.8204
2726.202, 640.9219
2728.131, 643.4773
2730.059, 642.3544
2731.988, 640.2903
2733.916, 639.2067
2735.844, 639.0315
2737.773, 639.4938
2739.701, 641.0068
2741.630, 645.5594
2743.558, 649.1476
2745.487, 648.2621
2747.415, 645.4691
2749.344, 641.2148
2751.272, 638.0571
2753.201, 639.1990
2755.129, 640.6035
2757.058, 638.7459
2758.986, 637.3566
2760.915, 639.9325
2762.843, 642.4708
2764.771, 641.4744
2766.700, 640.7891
2768.628, 642.7714
2770.557, 645.3265
2772.485, 648.0192
2774.414, 649.8842
2776.342, 650.0782
2778.271, 649.7682
2780.199, 649.2899
2782.128, 648.7679
2784.056, 647.7474
2785.985, 647.8610
2787.913, 651.3856
2789.842, 653.8504
2791.770, 653.0298
2793.698, 651.9608
2795.627, 650.8342
2797.555, 650.7150
2799.484, 652.3873
2801.412, 653.4152
2803.341, 652.3461
2805.269, 651.5461
2807.198, 651.8943
2809.126, 651.5262
2811.055, 649.8078
2812.983, 649.5972
2814.912, 652.3560
2816.840, 654.1007
2818.769, 653.3612
2820.697, 653.3679
2822.625, 654.4225
2824.554, 654.7863
2826.482, 654.2389
2828.411, 652.4014
2830.339, 647.9628
2832.268, 649.4162
2834.196, 658.6776
2836.125, 662.5353
2838.053, 660.9842
2839.982, 661.4872
2841.910, 664.2745
2843.839, 665.0549
2845.767, 663.8561
2847.696, 662.2355
2849.624, 660.4216
2851.552, 660.6461
2853.481, 662.1849
2855.409, 661.7737
2857.338, 660.4471
2859.266, 662.5968
2861.195, 665.9707
2863.123, 663.0657
2865.052, 658.3092
2866.980, 660.5009
2868.909, 665.8741
2870.837, 670.8478
2872.766, 673.7654
2874.694, 670.3318
2876.623, 665.9417
2878.551, 666.0792
2880.479, 667.6266
2882.408, 668.1660
2884.336, 668.7145
2886.265, 671.0922
2888.193, 672.0849
2890.122, 668.9783
2892.050, 666.0771
2893.979, 665.2565
2895.907, 665.6826
2897.836, 668.0662
2899.764, 669.9479
2901.693, 670.1428
2903.621, 671.5325
2905.550, 675.6111
2907.478, 678.2473
2909.406, 677.1576
2911.335, 677.2588
2913.263, 679.2286
2915.192, 680.0352
2917.120, 679.4257
2919.049, 677.8981
2920.977, 674.9725
2922.906, 677.0060
2924.834, 684.2069
2926.763, 682.7770
2928.691, 674.8615
2930.620, 675.0352
2932.548, 680.9664
2934.477, 682.9857
2936.405, 682.0922
2938.333, 679.8471
2940.262, 677.7651
2942.190, 679.6443
2944.119, 682.2371
2946.047, 679.2587
2947.976, 676.8008
2949.904, 685.0391
2951.833, 691.9984
2953.761, 686.2555
2955.690, 679.9504
2957.618, 681.0179
2959.547, 682.8083
2961.475, 682.0604
2963.404, 681.9820
2965.332, 684.3103
2967.260, 685.3087
2969.189, 682.6979
2971.117, 681.1783
2973.046, 681.7060
2974.974, 681.4697
2976.903, 680.1534
2978.831, 679.0726
2980.760, 678.2821
2982.688, 678.3516
2984.617, 679.2267
2986.545, 680.5126
2988.474, 681.9358
2990.402, 682.1644
2992.331, 681.8378
2994.259, 683.5818
2996.188, 685.6771
2998.116, 684.0621
3000.044, 681.4538
3001.973, 680.7871
3003.901, 681.2074
3005.830, 682.3550
3007.758, 683.6565
3009.687, 684.9141
3011.615, 685.8891
3013.544, 686.2751
3015.472, 686.6072
3017.401, 685.7431
3019.329, 687.8575
3021.258, 695.3263
3023.186, 697.2926
3025.115, 690.5394
3027.043, 685.0312
3028.971, 681.3638
3030.900, 680.0375
3032.828, 680.9083
3034.757, 681.8683
3036.685, 682.8884
3038.614, 683.8784
3040.542, 685.0114
3042.471, 687.5712
3044.399, 689.7526
3046.328, 688.1896
3048.256, 685.7551
3050.185, 684.9193
3052.113, 685.3115
3054.042, 687.8295
3055.970, 689.6069
3057.898, 687.8661
3059.827, 687.7668
3061.755, 693.4701
3063.684, 695.9148
3065.612, 693.2662
3067.541, 691.0270
3069.469, 689.9029
3071.398, 689.8400
3073.326, 690.9871
3075.255, 689.9876
3077.183, 687.6756
3079.112, 689.1109
3081.040, 692.5823
3082.969, 693.3868
3084.897, 692.9941
3086.825, 694.6096
3088.754, 695.3210
3090.682, 690.1922
3092.611, 686.0381
3094.539, 690.0074
3096.468, 692.1415
3098.396, 687.4301
3100.325, 684.3987
3102.253, 686.8269
3104.182, 688.9113
3106.110, 690.1672
3108.039, 690.6963
3109.967, 690.5184
3111.896, 691.8520
3113.824, 694.2731
3115.752, 692.3923
3117.681, 688.0700
3119.609, 687.0167
3121.538, 688.0840
3123.466, 690.9208
3125.395, 693.2676
3127.323, 692.1338
3129.252, 690.5591
3131.180, 689.7108
3133.109, 689.8455
3135.037, 691.2167
3136.966, 693.7003
3138.894, 698.1869
3140.823, 698.8575
3142.751, 694.3484
3144.679, 692.5729
3146.608, 693.8039
3148.536, 697.4775
3150.465, 701.9672
3152.393, 701.5193
3154.322, 698.1197
3156.250, 692.9985
3158.179, 689.4906
3160.107, 692.8251
3162.036, 696.3813
3163.964, 696.1788
3165.893, 694.9818
3167.821, 692.8350
3169.750, 692.3876
3171.678, 694.4183
3173.606, 696.3441
3175.535, 698.0181
3177.463, 697.5863
3179.392, 695.6201
3181.320, 697.8825
3183.249, 701.6899
3185.177, 699.1358
3187.106, 694.3851
3189.034, 692.4050
3190.963, 692.7065
3192.891, 697.0775
3194.820, 700.0278
3196.748, 696.8851
3198.677, 695.6906
3200.605, 698.5413
3202.533, 700.0435
3204.462, 698.8271
3206.390, 698.5056
3208.319, 699.0051
3210.247, 699.3995
3212.176, 699.3929
3214.104, 697.8363
3216.033, 695.8038
3217.961, 694.5349
3219.890, 694.0823
3221.818, 694.7662
3223.747, 695.7921
3225.675, 696.9873
3227.604, 698.1722
3229.532, 699.3691
3231.460, 700.4617
3233.389, 701.6713
3235.317, 700.0007
3237.246, 695.9834
3239.174, 692.6786
3241.103, 691.2253
3243.031, 696.4202
3244.960, 702.0296
3246.888, 699.0688
3248.817, 695.9891
3250.745, 698.8337
3252.674, 700.6282
3254.602, 698.4340
3256.531, 697.1171
3258.459, 697.1770
3260.387, 697.8704
3262.316, 699.0402
3264.244, 700.6401
3266.173, 702.2853
3268.101, 703.1196
3270.030, 703.1760
3271.958, 701.6381
3273.887, 700.6877
3275.815, 702.2922
3277.744, 703.7090
3279.672, 704.4931
3281.601, 702.9251
3283.529, 698.0720
3285.458, 697.9943
3287.386, 702.6092
3289.314, 702.7285
3291.243, 700.4892
3293.171, 703.5544
3295.100, 707.7068
3297.028, 708.3806
3298.957, 707.2086
3300.885, 703.8348
3302.814, 701.5256
3304.742, 701.2369
3306.671, 702.1076
3308.599, 704.7284
3310.528, 705.6611
3312.456, 705.0919
3314.385, 703.2816
3316.313, 701.2219
3318.241, 699.8981
3320.170, 700.8901
3322.098, 709.1320
3324.027, 714.0141
3325.955, 706.1199
3327.884, 702.1660
3329.812, 706.0076
3331.741, 705.6487
3333.669, 699.5296
3335.598, 703.5193
3337.526, 713.7959
3339.455, 715.2530
3341.383, 712.7576
3343.312, 712.2224
3345.240, 710.4641
3347.168, 703.7341
3349.097, 699.4589
3351.025, 701.4531
3352.954, 702.7126
3354.882, 702.6630
3356.811, 704.7352
3358.739, 708.2514
3360.668, 709.7642
3362.596, 709.7260
3364.525, 707.3954
3366.453, 706.0510
3368.382, 709.6619
3370.310, 711.9166
3372.239, 710.7283
3374.167, 708.2836
3376.095, 704.5891
3378.024, 705.3085
3379.952, 709.3008
3381.881, 707.1379
3383.809, 703.9442
3385.738, 709.3236
3387.666, 714.7255
3389.595, 713.3249
3391.523, 710.3284
3393.452, 705.5409
3395.380, 705.3456
3397.309, 710.8596
3399.237, 710.2286
3401.166, 705.3780
3403.094, 704.1895
3405.022, 705.8346
3406.951, 711.5735
3408.879, 715.7130
3410.808, 713.7861
3412.736, 710.9824
3414.665, 707.6603
3416.593, 708.3450
3418.522, 713.2654
3420.450, 714.0133
3422.379, 711.7961
3424.307, 709.1289
3426.236, 707.6910
3428.164, 710.2883
3430.093, 712.8133
3432.021, 713.3150
3433.949, 713.9697
3435.878, 715.4637
3437.806, 715.2137
3439.735, 713.6107
3441.663, 715.3263
3443.592, 717.3712
3445.520, 713.8634
3447.449, 709.8172
3449.377, 708.3019
3451.306, 708.0500
3453.234, 709.1716
3455.163, 710.8428
3457.091, 712.9210
3459.020, 711.6259
3460.948, 708.9728
3462.876, 711.3071
3464.805, 713.9661
3466.733, 711.6254
3468.662, 709.8956
3470.590, 712.0150
3472.519, 713.3204
3474.447, 713.3890
3476.376, 713.7973
3478.304, 714.3881
3480.233, 714.7097
3482.161, 714.2855
3484.090, 710.8683
3486.018, 709.9606
3487.947, 716.8632
3489.875, 719.8747
3491.803, 716.7191
3493.732, 711.6119
3495.660, 705.5690
3497.589, 703.2222
3499.517, 704.2914
3501.446, 711.4349
3503.374, 716.6631
3505.303, 715.2479
3507.231, 713.4424
3509.160, 712.8199
3511.088, 711.8616
3513.017, 710.9022
3514.945, 712.1123
3516.874, 713.8145
3518.802, 713.1580
3520.730, 712.6103
3522.659, 713.6608
3524.587, 714.3749
3526.516, 714.2255
3528.444, 714.5877
3530.373, 715.4442
3532.301, 717.2252
3534.230, 718.2305
3536.158, 714.4138
3538.087, 711.6633
3540.015, 714.4072
3541.944, 715.4487
3543.872, 713.7955
3545.801, 715.6865
3547.729, 719.6724
3549.657, 718.2986
3551.586, 715.4849
3553.514, 715.3610
3555.443, 715.6835
3557.371, 714.8400
3559.300, 716.8746
3561.228, 722.0526
3563.157, 721.7014
3565.085, 717.6865
3567.014, 714.4962
3568.942, 713.0958
3570.871, 716.3732
3572.799, 717.6407
3574.728, 714.8333
3576.656, 713.1819
3578.584, 713.2186
3580.513, 714.2413
3582.441, 715.5236
3584.370, 715.7322
3586.298, 715.8386
3588.227, 716.3370
3590.155, 717.1323
3592.084, 718.2073
3594.012, 719.4593
3595.941, 720.8253
3597.869, 722.7701
3599.798, 723.9044
3601.726, 720.9940
3603.655, 720.1243
3605.583, 724.1412
3607.511, 726.6940
3609.440, 727.2283
3611.368, 722.0703
3613.297, 715.3948
3615.225, 714.7756
3617.154, 715.9261
3619.082, 716.5056
3621.011, 716.4839
3622.939, 714.7737
3624.868, 718.7840
3626.796, 725.4119
3628.725, 723.2982
3630.653, 719.1555
3632.582, 720.3710
3634.510, 721.4088
3636.438, 720.4429
3638.367, 719.8358
3640.295, 719.6349
3642.224, 719.0488
3644.152, 718.5007
3646.081, 718.6615
3648.009, 719.0870
3649.938, 719.1035
3651.866, 721.5943
3653.795, 726.9764
3655.723, 724.9764
3657.652, 719.5007
3659.580, 719.3287
3661.509, 719.3439
3663.437, 715.8045
3665.365, 713.7958
3667.294, 714.5437
3669.222, 717.7158
3671.151, 721.9957
3673.079, 723.7455
3675.008, 723.7343
3676.936, 720.8271
3678.865, 721.0277
3680.793, 728.6290
3682.722, 730.5402
3684.650, 727.7119
3686.579, 723.1147
3688.507, 719.7356
3690.436, 722.1071
3692.364, 723.8543
3694.292, 721.9248
3696.221, 722.2401
3698.149, 724.3298
3700.078, 725.4393
3702.006, 725.7434
3703.935, 724.9030
3705.863, 724.2697
3707.792, 724.0595
3709.720, 725.3209
3711.649, 727.7089
3713.577, 729.7738
3715.506, 729.9233
3717.434, 722.9425
3719.363, 719.0507
3721.291, 723.9025
3723.219, 725.5102
3725.148, 723.9468
3727.076, 724.1764
3729.005, 724.9325
3730.933, 724.9613
3732.862, 723.7612
3734.790, 719.5268
3736.719, 721.6202
3738.647, 728.9041
3740.576, 731.2195
3742.504, 731.0107
3744.433, 731.0544
3746.361, 729.6016
3748.290, 725.3354
3750.218, 723.5387
3752.146, 724.0906
3754.075, 725.2801
3756.003, 726.4063
3757.932, 725.7973
3759.860, 726.8436
3761.789, 731.1215
3763.717, 732.6829
3765.646, 731.6956
3767.574, 728.8625
3769.503, 726.3797
3771.431, 726.1283
3773.360, 727.9371
3775.288, 732.6156
3777.217, 730.7961
3779.145, 725.5165
3781.073, 725.9519
3783.002, 728.1232
3784.930, 730.7128
3786.859, 729.5674
3788.787, 723.5204
3790.716, 725.3487
3792.644, 730.8063
3794.573, 732.6271
3796.501, 732.2584
3798.430, 730.0748
3800.358, 726.7259
3802.287, 722.7129
3804.215, 723.5782
3806.144, 726.2593
3808.072, 728.4574
3810.000, 726.9767
3811.929, 719.8126
3813.857, 719.0548
3815.786, 723.6751
3817.714, 725.7097
3819.643, 727.5633
3821.571, 732.1150
3823.500, 734.8982
3825.428, 735.1620
3827.357, 736.7587
3829.285, 738.4257
3831.214, 736.1286
3833.142, 733.9207
3835.071, 734.1819
3836.999, 735.0866
3838.927, 736.3884
3840.856, 737.3539
3842.784, 737.6080
3844.713, 736.0596
3846.641, 735.0812
3848.570, 735.7473
3850.498, 736.3127
3852.427, 736.6951
3854.355, 737.2850
3856.284, 736.4596
3858.212, 731.7652
3860.141, 731.9258
3862.069, 738.3954
3863.998, 737.8519
3865.926, 734.3962
3867.854, 733.5447
3869.783, 732.2597
3871.711, 728.8871
3873.640, 731.9744
3875.568, 739.4832
3877.497, 741.8619
3879.425, 740.1078
3881.354, 733.2639
3883.282, 732.1906
3885.211, 737.6621
3887.139, 739.8956
3889.068, 740.1631
3890.996, 739.8035
3892.925, 739.9780
3894.853, 740.8348
3896.781, 744.0104
3898.710, 748.8759
3900.638, 758.7698
3902.567, 763.2103
3904.495, 749.8089
3906.424, 742.9837
3908.352, 744.1562
3910.281, 744.7576
3912.209, 744.1998
3914.138, 741.6529
3916.066, 741.6910
3917.995, 746.5890
3919.923, 748.8258
3921.852, 749.3434
3923.780, 748.4268
3925.708, 747.5374
3927.637, 748.5487
3929.565, 748.6931
3931.494, 748.6408
3933.422, 752.1803
3935.351, 752.8674
3937.279, 747.1591
3939.208, 747.6144
3941.136, 753.0758
3943.065, 750.6339
3944.993, 748.1182
3946.922, 754.2067
3948.850, 757.8925
3950.779, 757.6068
3952.707, 754.9971
3954.635, 751.7817
3956.564, 753.9455
3958.492, 755.7618
3960.421, 752.7899
3962.349, 754.9241
3964.278, 759.1160
3966.206, 751.8944
3968.135, 746.5682
3970.063, 751.8126
3971.992, 755.4760
3973.920, 756.7025
3975.849, 759.9960
3977.777, 762.3055
3979.706, 760.6785
3981.634, 760.8896
3983.563, 763.0291
3985.491, 766.3499
3987.419, 768.3396
3989.348, 764.2605
3991.276, 762.0687
3993.205, 763.4089
3995.133, 763.5120
3997.062, 763.0362
3998.990, 763.1716
4000.919, 764.0233
4002.847, 765.6779
4004.776, 767.0740
4006.704, 768.4340
4008.633, 770.7857
4010.561, 772.3448
4012.490, 771.1696
4014.418, 771.6289
4016.346, 773.8880
4018.275, 776.2443
4020.203, 778.2628
4022.132, 780.5121
4024.060, 779.0992
4025.989, 775.2927
4027.917, 775.4067
4029.846, 776.6970
4031.774, 779.3583
4033.703, 782.9277
4035.631, 784.0712
4037.560, 781.5186
4039.488, 779.5709
4041.417, 776.9545
4043.345, 780.5452
4045.273, 790.0611
4047.202, 785.6162
4049.130, 778.2632
4051.059, 781.0262
4052.987, 783.6291
4054.916, 782.5089
4056.844, 782.6521
4058.773, 783.2950
4060.701, 785.9818
4062.630, 787.3552
4064.558, 783.2540
4066.487, 782.7448
4068.415, 787.4884
4070.344, 791.4662
4072.272, 789.7352
4074.200, 786.8593
4076.129, 785.0156
4078.057, 784.2476
4079.986, 789.7181
4081.914, 790.3568
4083.843, 784.9621
4085.771, 787.0802
4087.700, 792.3094
4089.628, 793.6882
4091.557, 791.3772
4093.485, 786.7772
4095.414, 786.8857
4097.342, 790.7383
4099.271, 790.3927
4101.199, 788.8870
4103.127, 791.4406
4105.056, 795.4485
4106.984, 797.8796
4108.913, 796.4850
4110.841, 792.9973
4112.770, 789.1637
4114.698, 793.9913
4116.627, 805.0272
4118.555, 806.6122
4120.484, 802.1454
4122.412, 798.2183
4124.341, 797.7789
4126.269, 798.5082
4128.198, 799.3634
4130.126, 802.3011
4132.055, 803.7414
4133.983, 805.9604
4135.912, 814.7888
4137.840, 814.5644
4139.769, 807.2164
4141.697, 807.3111
4143.625, 806.4132
4145.554, 803.2682
4147.482, 807.9594
4149.411, 815.4396
4151.339, 824.3737
4153.268, 826.9776
4155.196, 811.9515
4157.125, 807.9510
4159.053, 812.7120
4160.981, 812.7525
4162.910, 812.6650
4164.838, 812.2138
4166.767, 812.5172
4168.695, 813.5753
4170.624, 815.8645
4172.552, 818.9199
4174.481, 822.3354
4176.409, 820.1724
4178.338, 816.2872
4180.266, 822.0510
4182.195, 825.1263
4184.123, 817.1319
4186.052, 818.3104
4187.980, 826.8561
4189.909, 822.1078
4191.837, 817.4202
4193.766, 822.7866
4195.694, 822.6745
4197.623, 819.7797
4199.551, 823.0392
4201.479, 825.0148
4203.408, 824.3079
4205.336, 827.5192
4207.265, 831.5832
4209.193, 830.7243
4211.122, 831.0850
4213.050, 833.8090
4214.979, 832.8964
4216.907, 831.6627
4218.835, 834.5744
4220.764, 834.9396
4222.692, 831.2128
4224.621, 835.2736
4226.549, 840.3797
4228.478, 838.0729
4230.406, 839.4725
4232.335, 845.6232
4234.263, 839.5818
4236.192, 833.3824
4238.120, 838.7024
4240.049, 838.2172
4241.977, 832.5847
4243.906, 835.9948
4245.834, 841.2343
4247.763, 844.6531
4249.691, 845.4150
4251.620, 844.2736
4253.548, 842.5663
4255.477, 841.8871
4257.405, 843.0059
4259.333, 846.1602
4261.262, 849.3823
4263.190, 848.3181
4265.119, 847.9464
4267.047, 849.5709
4268.976, 849.9882
4270.904, 850.9600
4272.833, 856.0798
4274.761, 857.6635
4276.689, 855.1365
4278.618, 852.3622
4280.546, 851.8680
4282.475, 857.8984
4284.403, 857.8990
4286.332, 853.9763
4288.260, 855.2486
4290.189, 858.5757
4292.117, 863.4541
4294.046, 864.2678
4295.974, 863.3061
4297.903, 865.4312
4299.831, 865.6712
4301.760, 862.7677
4303.688, 866.0631
4305.617, 870.6672
4307.545, 871.6288
4309.474, 873.2692
4311.402, 875.1888
4313.331, 872.5598
4315.259, 868.0569
4317.188, 861.7089
4319.116, 865.3543
4321.044, 874.4024
4322.973, 880.5619
4324.901, 880.3239
4326.830, 872.2536
4328.758, 877.9727
4330.687, 884.2446
4332.615, 875.3049
4334.543, 874.9285
4336.472, 883.4182
4338.400, 883.8229
4340.329, 883.2204
4342.257, 885.2703
4344.186, 883.1114
4346.114, 880.5886
4348.043, 887.6005
4349.971, 892.7501
4351.900, 893.6232
4353.828, 890.1711
4355.757, 886.4631
4357.685, 885.2877
4359.614, 887.9008
4361.542, 892.8581
4363.471, 896.2106
4365.399, 897.5167
4367.328, 896.3936
4369.256, 901.1978
4371.185, 905.4250
4373.113, 897.0022
4375.042, 894.9158
4376.970, 901.2370
4378.898, 909.4451
4380.827, 913.4244
4382.755, 905.7596
4384.684, 904.2277
4386.612, 906.5852
4388.541, 907.5361
4390.469, 909.9504
4392.397, 914.5001
4394.326, 916.7695
4396.254, 915.9352
4398.183, 908.3412
4400.111, 912.8549
4402.040, 924.0961
4403.968, 924.1617
4405.897, 920.6896
4407.825, 916.0451
4409.754, 920.0707
4411.682, 925.9561
4413.611, 927.9755
4415.539, 926.2371
4417.468, 923.6896
4419.396, 931.7421
4421.325, 936.0175
4423.253, 932.0676
4425.182, 931.7956
4427.110, 934.8468
4429.039, 943.3135
4430.967, 942.4411
4432.896, 935.9382
4434.824, 943.3325
4436.752, 949.4619
4438.681, 947.7214
4440.609, 946.1377
4442.538, 945.7571
4444.466, 948.5873
4446.395, 950.2277
4448.323, 950.1368
4450.251, 945.3246
4452.180, 946.2197
4454.108, 955.9827
4456.037, 956.3407
4457.965, 954.9079
4459.894, 959.7938
4461.822, 960.2396
4463.751, 958.3551
4465.679, 964.5935
4467.608, 966.6458
4469.536, 961.3351
4471.465, 965.2337
4473.393, 970.8658
4475.322, 971.4613
4477.250, 971.0695
4479.179, 970.8176
4481.107, 973.0269
4483.036, 976.1409
4484.964, 979.6572
4486.893, 979.7398
4488.821, 976.5524
4490.750, 969.2932
4492.678, 972.1379
4494.606, 979.9694
4496.535, 985.1642
4498.463, 989.4410
4500.392, 991.7665
4502.320, 982.5619
4504.249, 979.3943
4506.177, 992.1464
4508.105, 999.9199
4510.034, 1004.179
4511.962, 1006.635
4513.891, 1003.362
4515.819, 998.4059
4517.748, 1004.673
4519.676, 1009.436
4521.605, 1010.227
4523.533, 1014.947
4525.462, 1017.911
4527.390, 1015.724
4529.319, 1010.731
4531.247, 1008.028
4533.176, 1017.008
4535.104, 1021.236
4537.033, 1020.708
4538.961, 1025.418
4540.890, 1027.082
4542.818, 1022.853
4544.747, 1020.229
4546.675, 1024.103
4548.604, 1040.009
4550.532, 1038.641
4552.460, 1030.615
4554.389, 1037.409
4556.317, 1041.132
4558.246, 1040.513
4560.174, 1042.897
4562.103, 1046.684
4564.031, 1051.864
4565.959, 1048.425
4567.888, 1046.282
4569.816, 1053.146
4571.745, 1058.411
4573.673, 1061.668
4575.602, 1063.640
4577.530, 1063.815
4579.459, 1063.134
4581.387, 1064.668
4583.316, 1068.803
4585.244, 1075.833
4587.173, 1072.685
4589.101, 1070.859
4591.030, 1078.288
4592.958, 1080.911
4594.887, 1083.142
4596.815, 1093.573
4598.744, 1095.886
4600.672, 1093.392
4602.601, 1101.650
4604.529, 1104.425
4606.458, 1098.955
4608.386, 1098.601
4610.314, 1101.193
4612.243, 1105.770
4614.171, 1112.697
4616.100, 1118.853
4618.028, 1121.523
4619.957, 1125.276
4621.885, 1129.030
4623.813, 1128.871
4625.742, 1133.189
4627.670, 1140.251
4629.599, 1137.500
4631.527, 1139.643
4633.456, 1149.272
4635.384, 1153.149
4637.313, 1154.983
4639.241, 1156.879
4641.170, 1158.866
4643.098, 1160.712
4645.027, 1161.047
4646.955, 1165.659
4648.884, 1170.856
4650.812, 1170.063
4652.741, 1171.115
4654.669, 1174.111
4656.598, 1176.007
4658.526, 1178.853
4660.455, 1182.999
4662.383, 1187.346
4664.312, 1191.159
4666.240, 1194.095
4668.168, 1198.813
4670.097, 1199.136
4672.025, 1190.736
4673.954, 1192.732
4675.882, 1199.362
4677.811, 1202.898
4679.739, 1207.734
4681.667, 1213.935
4683.596, 1221.661
4685.524, 1228.998
4687.453, 1234.823
4689.381, 1235.758
4691.310, 1236.979
4693.238, 1239.359
4695.167, 1239.523
4697.095, 1241.170
4699.024, 1245.791
4700.952, 1250.328
4702.881, 1250.661
4704.809, 1244.738
4706.738, 1249.613
4708.666, 1258.652
4710.595, 1265.545
4712.523, 1273.418
4714.452, 1278.066
4716.380, 1273.018
4718.309, 1267.322
4720.237, 1266.058
4722.166, 1280.195
4724.094, 1288.777
4726.022, 1289.783
4727.951, 1283.352
4729.879, 1283.543
4731.808, 1291.821
4733.736, 1301.871
4735.665, 1306.367
4737.593, 1304.992
4739.521, 1313.397
4741.450, 1318.015
4743.378, 1311.373
4745.307, 1310.964
4747.235, 1315.615
4749.164, 1324.767
4751.092, 1326.552
4753.021, 1327.802
4754.949, 1337.598
4756.878, 1335.700
4758.806, 1333.829
4760.735, 1346.229
4762.663, 1351.077
4764.592, 1352.710
4766.520, 1360.577
4768.449, 1365.001
4770.377, 1367.367
4772.306, 1373.735
4774.234, 1373.065
4776.163, 1368.983
4778.091, 1374.092
4780.020, 1383.439
4781.948, 1392.561
4783.876, 1384.942
4785.805, 1390.689
4787.733, 1410.134
4789.662, 1405.358
4791.590, 1398.374
4793.519, 1396.328
4795.447, 1402.035
4797.375, 1409.128
4799.304, 1415.233
4801.232, 1421.718
4803.161, 1426.696
4805.089, 1429.567
4807.018, 1433.193
4808.946, 1433.255
4810.875, 1426.635
4812.803, 1434.785
4814.732, 1447.680
4816.660, 1459.807
4818.589, 1461.830
4820.517, 1462.423
4822.446, 1467.997
4824.374, 1475.283
4826.303, 1477.563
4828.231, 1469.232
4830.160, 1478.861
4832.088, 1493.303
4834.017, 1501.186
4835.945, 1493.403
4837.874, 1489.749
4839.802, 1509.987
4841.730, 1511.400
4843.659, 1508.016
4845.587, 1521.126
4847.516, 1521.807
4849.444, 1520.317
4851.373, 1529.471
4853.301, 1537.566
4855.229, 1541.991
4857.158, 1538.568
4859.086, 1539.271
4861.015, 1544.708
4862.943, 1555.377
4864.872, 1569.973
4866.800, 1582.368
4868.729, 1583.963
4870.657, 1583.512
4872.586, 1583.883
4874.514, 1588.260
4876.443, 1589.506
4878.371, 1590.586
4880.300, 1596.670
4882.228, 1605.942
4884.157, 1612.426
4886.085, 1606.623
4888.014, 1607.718
4889.942, 1614.257
4891.871, 1623.651
4893.799, 1624.604
4895.728, 1625.874
4897.656, 1642.052
4899.584, 1645.261
4901.513, 1644.779
4903.441, 1653.868
4905.370, 1659.314
4907.298, 1663.922
4909.227, 1672.512
4911.155, 1678.052
4913.083, 1679.734
4915.012, 1675.917
4916.940, 1688.111
4918.869, 1702.536
4920.797, 1702.510
4922.726, 1712.119
4924.654, 1718.514
4926.583, 1710.947
4928.511, 1721.092
4930.440, 1731.930
4932.368, 1727.563
4934.297, 1731.991
4936.225, 1737.553
4938.154, 1739.718
4940.082, 1750.936
4942.011, 1756.890
4943.939, 1749.299
4945.868, 1757.045
4947.796, 1767.709
4949.725, 1774.971
4951.653, 1774.645
4953.582, 1777.090
4955.510, 1787.503
4957.438, 1822.590
4959.367, 1838.581
4961.295, 1825.663
4963.224, 1820.664
4965.152, 1822.736
4967.081, 1828.841
4969.009, 1828.914
4970.938, 1830.381
4972.866, 1834.863
4974.794, 1841.733
4976.723, 1853.098
4978.651, 1866.350
4980.580, 1875.619
4982.508, 1880.863
4984.437, 1882.199
4986.365, 1875.643
4988.294, 1883.769
4990.222, 1896.306
4992.151, 1896.343
4994.079, 1906.718
4996.008, 1919.982
4997.936, 1926.212
4999.865, 1931.113
5001.793, 1935.682
5003.722, 1940.394
5005.650, 1936.727
5007.579, 1945.505
5009.507, 1977.951
5011.436, 1972.482
5013.364, 1968.154
5015.292, 1980.212
5017.221, 1988.823
5019.149, 1995.543
5021.078, 2001.044
5023.006, 2005.702
5024.935, 2010.280
5026.863, 2015.964
5028.792, 2027.977
5030.720, 2028.206
5032.648, 2024.175
5034.577, 2035.595
5036.505, 2044.106
5038.434, 2050.183
5040.362, 2056.320
5042.291, 2063.198
5044.219, 2068.736
5046.148, 2071.186
5048.076, 2079.095
5050.005, 2087.629
5051.933, 2093.881
5053.862, 2100.288
5055.790, 2100.260
5057.719, 2095.434
5059.647, 2113.726
5061.576, 2128.875
5063.504, 2135.574
5065.433, 2134.364
5067.361, 2143.075
5069.290, 2158.732
5071.218, 2172.415
5073.146, 2174.754
5075.075, 2175.766
5077.003, 2187.552
5078.932, 2204.079
5080.860, 2214.116
5082.789, 2209.017
5084.717, 2210.577
5086.646, 2220.029
5088.574, 2234.744
5090.502, 2233.553
5092.431, 2238.608
5094.359, 2252.416
5096.288, 2261.189
5098.216, 2274.135
5100.145, 2285.289
5102.073, 2279.977
5104.002, 2288.772
5105.930, 2301.716
5107.859, 2305.815
5109.787, 2305.850
5111.716, 2306.798
5113.644, 2311.598
5115.573, 2333.856
5117.501, 2346.295
5119.430, 2345.836
5121.358, 2359.801
5123.287, 2373.823
5125.215, 2384.671
5127.144, 2391.978
5129.072, 2400.254
5131.000, 2407.322
5132.929, 2409.902
5134.857, 2417.290
5136.786, 2426.133
5138.714, 2433.718
5140.643, 2441.728
5142.571, 2452.305
5144.500, 2465.281
5146.428, 2477.738
5148.356, 2482.724
5150.285, 2486.187
5152.213, 2502.336
5154.142, 2515.502
5156.070, 2523.145
5157.999, 2524.100
5159.927, 2520.938
5161.856, 2523.019
5163.784, 2533.824
5165.713, 2545.271
5167.641, 2555.253
5169.570, 2563.970
5171.498, 2573.680
5173.427, 2583.853
5175.355, 2594.144
5177.284, 2604.594
5179.212, 2610.263
5181.141, 2615.909
5183.069, 2624.922
5184.998, 2640.106
5186.926, 2651.144
5188.854, 2656.031
5190.783, 2658.933
5192.711, 2669.871
5194.640, 2688.005
5196.568, 2713.163
5198.497, 2713.768
5200.425, 2708.839
5202.354, 2712.848
5204.282, 2731.221
5206.210, 2736.825
5208.139, 2729.450
5210.067, 2746.273
5211.996, 2752.870
5213.924, 2757.292
5215.853, 2780.543
5217.781, 2803.375
5219.710, 2821.496
5221.638, 2832.448
5223.567, 2823.646
5225.495, 2828.473
5227.424, 2845.583
5229.352, 2834.925
5231.281, 2848.437
5233.209, 2871.153
5235.138, 2875.749
5237.066, 2878.020
5238.995, 2885.667
5240.923, 2900.432
5242.852, 2908.461
5244.780, 2914.363
5246.708, 2921.247
5248.637, 2933.074
5250.565, 2947.659
5252.494, 2960.510
5254.422, 2967.729
5256.351, 2973.131
5258.279, 2986.552
5260.208, 3005.563
5262.136, 3005.987
5264.064, 3011.311
5265.993, 3021.201
5267.921, 3029.869
5269.850, 3033.957
5271.778, 3045.077
5273.707, 3067.222
5275.635, 3085.246
5277.564, 3095.390
5279.492, 3099.012
5281.421, 3098.159
5283.349, 3097.825
5285.278, 3105.620
5287.206, 3127.383
5289.135, 3132.352
5291.063, 3137.155
5292.992, 3146.144
5294.920, 3155.571
5296.849, 3174.710
5298.777, 3192.443
5300.706, 3196.942
5302.634, 3200.546
5304.563, 3210.275
5306.491, 3224.748
5308.419, 3227.929
5310.348, 3237.646
5312.276, 3248.829
5314.205, 3252.935
5316.133, 3253.935
5318.062, 3265.284
5319.990, 3288.512
5321.918, 3305.158
5323.847, 3316.145
5325.775, 3324.590
5327.704, 3333.769
5329.632, 3333.868
5331.561, 3335.809
5333.489, 3345.708
5335.418, 3370.002
5337.346, 3386.845
5339.275, 3393.497
5341.203, 3388.261
5343.132, 3407.354
5345.060, 3427.858
5346.989, 3437.466
5348.917, 3420.391
5350.846, 3443.165
5352.774, 3474.467
5354.703, 3465.679
5356.631, 3482.006
5358.560, 3502.699
5360.488, 3517.582
5362.417, 3522.384
5364.345, 3529.931
5366.273, 3537.602
5368.202, 3541.532
5370.130, 3560.977
5372.059, 3577.187
5373.987, 3584.735
5375.916, 3584.137
5377.844, 3606.890
5379.772, 3624.099
5381.701, 3613.453
5383.629, 3633.767
5385.558, 3649.870
5387.486, 3655.912
5389.415, 3657.265
5391.343, 3679.702
5393.272, 3697.337
5395.200, 3696.380
5397.129, 3707.125
5399.057, 3717.567
5400.986, 3728.349
5402.914, 3743.446
5404.843, 3764.910
5406.771, 3768.350
5408.700, 3756.279
5410.628, 3777.449
5412.557, 3791.065
5414.485, 3801.539
5416.414, 3818.202
5418.342, 3824.212
5420.271, 3833.527
5422.199, 3845.433
5424.127, 3849.931
5426.056, 3862.414
5427.984, 3878.194
5429.913, 3893.093
5431.841, 3905.280
5433.770, 3908.957
5435.698, 3914.407
5437.626, 3937.305
5439.555, 3940.274
5441.483, 3946.531
5443.412, 3963.569
5445.340, 3992.031
5447.269, 4001.849
5449.197, 4002.095
5451.126, 4002.267
5453.054, 4007.981
5454.983, 4028.668
5456.911, 4050.874
5458.840, 4056.934
5460.768, 4049.095
5462.697, 4051.889
5464.625, 4072.161
5466.554, 4108.747
5468.482, 4121.514
5470.411, 4118.426
5472.339, 4111.276
5474.268, 4120.101
5476.196, 4140.200
5478.125, 4157.688
5480.053, 4157.323
5481.981, 4184.431
5483.910, 4192.558
5485.838, 4188.536
5487.767, 4209.336
5489.695, 4230.859
5491.624, 4238.868
5493.552, 4236.471
5495.480, 4252.833
5497.409, 4270.744
5499.337, 4291.102
5501.266, 4314.236
5503.194, 4299.409
5505.123, 4313.231
5507.051, 4343.296
5508.980, 4358.688
5510.908, 4361.694
5512.837, 4362.245
5514.765, 4366.494
5516.694, 4379.109
5518.622, 4403.836
5520.551, 4423.077
5522.479, 4434.056
5524.408, 4463.048
5526.336, 4460.611
5528.265, 4463.291
5530.193, 4491.826
5532.122, 4491.937
5534.050, 4496.262
5535.979, 4510.287
5537.907, 4530.619
5539.835, 4523.326
5541.764, 4530.386
5543.692, 4548.664
5545.621, 4559.334
5547.549, 4568.649
5549.478, 4589.706
5551.406, 4615.785
5553.334, 4624.162
5555.263, 4633.846
5557.191, 4650.068
5559.120, 4666.844
5561.048, 4661.462
5562.977, 4668.101
5564.905, 4676.617
5566.834, 4682.811
5568.762, 4709.017
5570.691, 4718.561
5572.619, 4722.198
5574.548, 4731.872
5576.476, 4761.567
5578.405, 4773.605
5580.333, 4781.349
5582.262, 4800.906
5584.190, 4802.208
5586.119, 4804.126
5588.047, 4810.541
5589.976, 4820.746
5591.904, 4828.101
5593.833, 4836.906
5595.761, 4853.429
5597.689, 4885.347
5599.618, 4898.726
5601.546, 4913.294
5603.475, 4928.129
5605.403, 4930.397
5607.332, 4943.139
5609.260, 4960.354
5611.188, 4971.793
5613.117, 4963.638
5615.045, 4974.969
5616.974, 4987.880
5618.902, 4998.610
5620.831, 5018.767
5622.759, 5021.053
5624.688, 5031.237
5626.616, 5053.533
5628.545, 5067.129
5630.473, 5095.010
5632.402, 5108.233
5634.330, 5103.885
5636.259, 5106.541
5638.187, 5124.816
5640.116, 5139.141
5642.044, 5144.227
5643.973, 5148.917
5645.901, 5155.352
5647.830, 5165.318
5649.758, 5179.989
5651.687, 5200.250
5653.615, 5233.331
5655.543, 5248.083
5657.472, 5243.959
5659.400, 5258.442
5661.329, 5273.648
5663.257, 5283.584
5665.186, 5288.381
5667.114, 5292.024
5669.042, 5307.848
5670.971, 5320.265
5672.899, 5328.984
5674.828, 5349.158
5676.756, 5338.782
5678.685, 5346.661
5680.613, 5373.133
5682.542, 5375.070
5684.470, 5395.461
5686.399, 5420.291
5688.327, 5440.374
5690.256, 5448.964
5692.184, 5465.427
5694.113, 5468.345
5696.041, 5467.261
5697.970, 5485.085
5699.898, 5516.955
5701.827, 5529.808
5703.755, 5534.803
5705.684, 5552.616
5707.612, 5540.018
5709.541, 5558.526
5711.469, 5579.907
5713.397, 5568.127
5715.326, 5572.875
5717.254, 5586.373
5719.183, 5602.225
5721.111, 5617.213
5723.040, 5638.440
5724.968, 5651.922
5726.896, 5660.891
5728.825, 5670.920
5730.753, 5692.669
5732.682, 5692.930
5734.610, 5701.780
5736.539, 5723.022
5738.467, 5719.023
5740.396, 5730.238
5742.324, 5737.693
5744.253, 5740.707
5746.181, 5755.044
5748.110, 5784.636
5750.038, 5805.138
5751.967, 5811.769
5753.895, 5807.523
5755.824, 5827.756
5757.752, 5840.896
5759.681, 5854.597
5761.609, 5880.128
5763.538, 5870.330
5765.466, 5879.139
5767.395, 5893.369
5769.323, 5899.131
5771.251, 5902.348
5773.180, 5911.080
5775.108, 5919.908
5777.037, 5924.769
5778.965, 5923.162
5780.894, 5948.961
5782.822, 5983.326
5784.750, 6008.387
5786.679, 6012.524
5788.607, 6009.773
5790.536, 6018.343
5792.464, 6030.529
5794.393, 6037.489
5796.321, 6048.894
5798.250, 6062.716
5800.178, 6069.916
5802.107, 6073.029
5804.035, 6095.673
5805.964, 6105.133
5807.892, 6112.180
5809.821, 6121.870
5811.749, 6134.153
5813.678, 6142.016
5815.606, 6169.314
5817.535, 6199.266
5819.463, 6212.382
5821.392, 6212.520
5823.320, 6210.270
5825.249, 6223.935
5827.177, 6249.656
5829.105, 6254.484
5831.034, 6252.641
5832.962, 6249.779
5834.891, 6252.627
5836.819, 6267.497
5838.748, 6319.906
5840.676, 6317.626
5842.604, 6311.722
5844.533, 6339.330
5846.461, 6343.171
5848.390, 6362.789
5850.318, 6374.597
5852.247, 6379.235
5854.175, 6396.851
5856.104, 6431.170
5858.032, 6440.627
5859.961, 6443.421
5861.889, 6459.691
5863.818, 6462.961
5865.746, 6501.718
5867.675, 6507.069
5869.603, 6484.958
5871.532, 6509.967
5873.460, 6524.928
5875.389, 6531.578
5877.317, 6531.525
5879.246, 6529.790
5881.174, 6556.560
5883.103, 6579.210
5885.031, 6589.102
5886.959, 6592.376
5888.888, 6604.198
5890.816, 6639.664
5892.745, 6632.250
5894.673, 6624.260
5896.602, 6654.100
5898.530, 6651.459
5900.458, 6657.126
5902.387, 6670.276
5904.315, 6686.560
5906.244, 6702.780
5908.172, 6693.826
5910.101, 6709.540
5912.029, 6724.388
5913.958, 6720.136
5915.886, 6726.588
5917.815, 6753.782
5919.743, 6769.341
5921.672, 6768.190
5923.600, 6762.192
5925.529, 6787.882
5927.457, 6820.241
5929.386, 6829.555
5931.314, 6826.333
5933.243, 6858.762
5935.171, 6852.782
5937.100, 6868.933
5939.028, 6888.833
5940.957, 6887.482
5942.885, 6874.863
5944.813, 6906.634
5946.742, 6911.445
5948.670, 6899.397
5950.599, 6918.103
5952.527, 6932.912
5954.456, 6932.310
5956.384, 6944.497
5958.313, 6967.946
5960.241, 6962.136
5962.169, 6969.083
5964.098, 6973.086
5966.026, 6992.636
5967.955, 7029.592
5969.883, 7027.820
5971.812, 7055.000
5973.740, 7066.285
5975.669, 7064.679
5977.597, 7073.298
5979.526, 7115.630
5981.454, 7162.094
5983.383, 7186.875
5985.311, 7184.704
5987.240, 7161.719
5989.168, 7127.526
5991.097, 7129.850
5993.025, 7142.519
5994.954, 7148.461
5996.882, 7150.458
5998.811, 7154.636
6000.739, 7150.627
6002.667, 7154.133
6004.596, 7167.104
6006.524, 7169.453
6008.453, 7210.135
6010.381, 7229.710
6012.310, 7244.427
6014.238, 7261.388
6016.167, 7238.857
6018.095, 7221.533
6020.023, 7243.538
6021.952, 7272.534
6023.880, 7280.891
6025.809, 7286.270
6027.737, 7296.736
6029.666, 7303.123
6031.594, 7315.672
6033.523, 7338.384
6035.451, 7343.888
6037.380, 7332.054
6039.308, 7343.263
6041.237, 7355.943
6043.165, 7346.762
6045.094, 7351.114
6047.022, 7370.268
6048.951, 7373.616
6050.879, 7376.348
6052.808, 7397.390
6054.736, 7412.733
6056.665, 7425.382
6058.593, 7426.482
6060.521, 7431.107
6062.450, 7447.942
6064.378, 7437.160
6066.307, 7434.354
6068.235, 7457.935
6070.164, 7489.979
6072.092, 7505.273
6074.021, 7473.247
6075.949, 7478.642
6077.877, 7486.839
6079.806, 7496.446
6081.734, 7510.725
6083.663, 7501.453
6085.591, 7522.118
6087.520, 7547.419
6089.448, 7561.492
6091.377, 7563.643
6093.305, 7566.887
6095.234, 7583.570
6097.162, 7587.816
6099.091, 7577.116
6101.019, 7568.797
6102.948, 7599.530
6104.876, 7596.745
6106.805, 7581.119
6108.733, 7608.278
6110.662, 7650.317
6112.590, 7616.964
6114.519, 7625.367
6116.447, 7634.281
6118.375, 7652.962
6120.304, 7654.400
6122.232, 7611.126
6124.161, 7660.077
6126.089, 7688.970
6128.018, 7682.404
6129.946, 7677.501
6131.875, 7698.420
6133.803, 7707.351
6135.731, 7699.661
6137.660, 7718.638
6139.588, 7731.065
6141.517, 7718.558
6143.445, 7704.759
6145.374, 7736.150
6147.302, 7741.238
6149.231, 7744.725
6151.159, 7752.220
6153.088, 7746.567
6155.016, 7781.749
6156.945, 7784.351
6158.873, 7787.407
6160.802, 7794.838
6162.730, 7796.477
6164.659, 7792.409
6166.587, 7802.211
6168.516, 7803.033
6170.444, 7797.979
6172.373, 7806.296
6174.301, 7851.641
6176.229, 7869.081
6178.158, 7890.078
6180.086, 7886.849
6182.015, 7875.978
6183.943, 7884.844
6185.872, 7889.636
6187.800, 7879.194
6189.729, 7892.609
6191.657, 7890.421
6193.585, 7869.457
6195.514, 7888.077
6197.442, 7899.179
6199.371, 7908.504
6201.299, 7903.967
6203.228, 7904.252
6205.156, 7924.013
6207.085, 7925.593
6209.013, 7932.063
6210.942, 7915.193
6212.870, 7921.713
6214.799, 7953.130
6216.727, 7961.767
6218.656, 7976.608
6220.584, 7964.586
6222.513, 7952.525
6224.441, 7973.453
6226.370, 8015.646
6228.298, 8007.123
6230.227, 8022.056
6232.155, 8008.982
6234.083, 8006.857
6236.012, 8007.889
6237.940, 7989.795
6239.869, 8008.893
6241.797, 8047.398
6243.726, 8047.977
6245.654, 8032.805
6247.583, 8025.953
6249.511, 8031.958
6251.439, 8070.104
6253.368, 8048.547
6255.296, 8025.538
6257.225, 8025.959
6259.153, 8037.839
6261.082, 8037.729
6263.010, 8086.345
6264.939, 8093.233
6266.867, 8080.458
6268.796, 8072.780
6270.724, 8079.683
6272.653, 8101.444
6274.581, 8112.787
6276.510, 8113.800
6278.438, 8098.740
6280.367, 8099.715
6282.295, 8129.275
6284.224, 8114.023
6286.152, 8127.349
6288.081, 8145.623
6290.009, 8151.696
6291.938, 8134.700
6293.866, 8106.268
6295.794, 8135.398
6297.723, 8121.477
6299.651, 8136.823
6301.580, 8159.764
6303.508, 8166.167
6305.437, 8153.847
6307.365, 8137.642
6309.293, 8148.277
6311.222, 8168.007
6313.150, 8180.894
6315.079, 8192.012
6317.007, 8202.267
6318.936, 8187.585
6320.864, 8166.189
6322.793, 8172.335
6324.721, 8182.921
6326.650, 8198.426
6328.578, 8209.321
6330.507, 8173.050
6332.435, 8199.841
6334.364, 8210.420
6336.292, 8198.069
6338.221, 8190.170
6340.149, 8198.441
6342.078, 8205.630
6344.006, 8215.012
6345.935, 8247.246
6347.863, 8258.294
6349.792, 8254.896
6351.720, 8251.887
6353.648, 8248.672
6355.577, 8237.849
6357.505, 8236.249
6359.434, 8243.278
6361.362, 8252.097
6363.291, 8254.960
6365.219, 8249.525
6367.147, 8244.191
6369.076, 8257.851
6371.004, 8251.827
6372.933, 8245.602
6374.861, 8249.661
6376.790, 8253.737
6378.718, 8242.593
6380.647, 8253.018
6382.575, 8255.839
6384.504, 8268.965
6386.432, 8280.296
6388.361, 8284.809
6390.289, 8284.719
6392.218, 8247.134
6394.146, 8249.890
6396.075, 8278.675
6398.003, 8306.595
6399.932, 8307.925
6401.860, 8286.558
6403.789, 8285.395
6405.717, 8272.511
6407.646, 8290.050
6409.574, 8321.528
6411.502, 8321.146
6413.431, 8297.723
6415.359, 8289.613
6417.288, 8286.428
6419.216, 8287.927
6421.145, 8299.296
6423.073, 8315.941
6425.001, 8324.004
6426.930, 8310.732
6428.858, 8283.198
6430.787, 8297.388
6432.715, 8316.037
6434.644, 8316.442
6436.572, 8315.638
6438.501, 8317.989
6440.429, 8319.579
6442.358, 8322.621
6444.286, 8317.834
6446.215, 8302.452
6448.143, 8310.288
6450.072, 8327.174
6452.000, 8337.743
6453.929, 8339.665
6455.857, 8334.937
6457.786, 8340.989
6459.714, 8337.540
6461.643, 8334.117
6463.571, 8328.673
6465.500, 8333.806
6467.428, 8347.191
6469.356, 8328.775
6471.285, 8335.046
6473.213, 8353.915
6475.142, 8381.999
6477.070, 8379.344
6478.999, 8373.546
6480.927, 8392.535
6482.855, 8374.395
6484.784, 8364.281
6486.712, 8382.525
6488.641, 8370.145
6490.569, 8366.207
6492.498, 8365.738
6494.426, 8353.869
6496.355, 8364.997
6498.283, 8379.400
6500.212, 8382.995
6502.140, 8373.850
6504.069, 8357.063
6505.997, 8344.522
6507.926, 8340.819
6509.854, 8341.381
6511.783, 8352.810
6513.711, 8359.277
6515.640, 8365.785
6517.568, 8373.334
6519.497, 8382.021
6521.425, 8381.246
6523.354, 8363.862
6525.282, 8359.907
6527.210, 8352.295
6529.139, 8353.414
6531.067, 8341.355
6532.996, 8338.852
6534.924, 8340.771
6536.853, 8338.774
6538.781, 8350.740
6540.709, 8345.955
6542.638, 8337.094
6544.566, 8335.881
6546.495, 8324.887
6548.423, 8322.823
6550.352, 8333.731
6552.280, 8343.248
6554.209, 8362.446
6556.137, 8356.632
6558.066, 8353.257
6559.994, 8356.916
6561.923, 8372.702
6563.851, 8363.924
6565.780, 8340.411
6567.708, 8354.355
6569.637, 8354.587
6571.565, 8355.263
6573.494, 8312.842
6575.422, 8335.786
6577.351, 8329.333
6579.279, 8312.486
6581.208, 8332.927
6583.136, 8334.822
6585.064, 8319.712
6586.993, 8330.065
6588.921, 8344.790
6590.850, 8364.135
6592.778, 8362.726
6594.707, 8345.928
6596.635, 8341.473
6598.563, 8353.609
6600.492, 8334.224
6602.420, 8336.541
6604.349, 8340.126
6606.277, 8331.729
6608.206, 8334.155
6610.134, 8346.903
6612.063, 8348.506
6613.991, 8335.698
6615.920, 8363.440
6617.848, 8352.676
6619.777, 8340.964
6621.705, 8334.562
6623.634, 8328.675
6625.562, 8332.040
6627.491, 8342.962
6629.419, 8345.475
##END=



