##NAMES=Natrolite
##RRUFFID=R050589
##IDEAL CHEMISTRY=Na_2_(Si_3_Al_2_)O_10_·2H_2_O
##LOCALITY=Mont Saint-Hilaire, Rouville County, Quebec, Canada
##OWNER=RRUFF
##SOURCE=Bob Downs
##DESCRIPTION=White to colorless prismatic crystals associated with aegirine
##STATUS=The identification of this mineral has been confirmed by X-ray diffraction and chemical analysis
##URL=https://www.rruff.net/odr/rruff_sample/R050589
##MEASURED CHEMISTRY=Na_2.00_(Si_3.00_Al_2.00_)O_10_·2H_2_O
##DIFFRACTION SAMPLE DESCRIPTION=Powder
##CELL PARAMETERS=a: 18.2951 b: 18.6259 c: 6.5862 alpha: 90 beta: 90 gamma: 90 volume: 2244.36 crystal system: orthorhombic
##FILETYPE=Raman Processed
##RAMAN WAVELENGTH=532

141.6658, 655.9494
143.5943, 711.0665
145.5227, 758.9869
147.4512, 803.2650
149.3797, 804.5064
151.3081, 817.6887
153.2366, 850.9573
155.1651, 903.9703
157.0935, 950.5537
159.0220, 997.5875
160.9505, 1037.513
162.8789, 1050.530
164.8074, 1035.062
166.7359, 1003.609
168.6643, 954.8388
170.5928, 888.2587
172.5213, 825.2328
174.4497, 763.5134
176.3782, 706.9182
178.3067, 664.6459
180.2351, 640.7189
182.1636, 622.0558
184.0921, 603.2609
186.0205, 584.7170
187.9490, 564.6070
189.8775, 538.9077
191.8059, 512.0523
193.7344, 490.9961
195.6629, 476.5912
197.5913, 467.6220
199.5198, 464.8055
201.4483, 471.0374
203.3767, 475.6801
205.3052, 479.5915
207.2337, 481.5157
209.1621, 478.0134
211.0906, 466.0190
213.0191, 450.6853
214.9475, 432.5927
216.8760, 411.2407
218.8045, 390.8467
220.7329, 371.6259
222.6614, 354.0398
224.5899, 338.9751
226.5183, 327.1800
228.4468, 316.4004
230.3753, 306.2029
232.3037, 296.5201
234.2322, 288.0990
236.1607, 281.0631
238.0891, 275.3737
240.0176, 270.5605
241.9461, 267.0137
243.8745, 263.5826
245.8030, 259.7479
247.7315, 255.3628
249.6599, 251.0366
251.5884, 245.9153
253.5169, 241.1154
255.4453, 238.2603
257.3738, 238.0810
259.3023, 238.9961
261.2307, 240.0715
263.1592, 241.3806
265.0877, 244.1416
267.0161, 249.7779
268.9446, 255.9866
270.8731, 261.0293
272.8015, 263.9095
274.7300, 266.9762
276.6585, 270.5063
278.5869, 273.8728
280.5154, 276.4990
282.4439, 278.0519
284.3723, 279.0836
286.3008, 280.0416
288.2293, 280.7534
290.1577, 282.1659
292.0862, 283.1966
294.0147, 284.8227
295.9431, 289.0590
297.8716, 298.8835
299.8001, 308.9978
301.7285, 319.0179
303.6570, 329.7205
305.5855, 337.1879
307.5139, 338.3378
309.4424, 334.9594
311.3709, 329.3558
313.2993, 318.9781
315.2278, 308.8454
317.1563, 300.6463
319.0847, 294.3516
321.0132, 290.4234
322.9417, 289.6562
324.8701, 290.9967
326.7986, 294.3163
328.7271, 300.8250
330.6555, 306.9101
332.5840, 310.3407
334.5125, 311.5953
336.4409, 311.7893
338.3694, 310.2812
340.2979, 308.1323
342.2263, 305.9542
344.1548, 303.7642
346.0833, 303.7367
348.0117, 307.3554
349.9402, 312.9070
351.8687, 318.4023
353.7971, 325.3073
355.7256, 330.7053
357.6541, 333.3594
359.5826, 333.7125
361.5110, 331.7877
363.4395, 326.4038
365.3680, 318.8477
367.2964, 309.9769
369.2249, 299.3293
371.1534, 289.6109
373.0818, 282.4508
375.0103, 277.0640
376.9388, 272.1985
378.8672, 267.2428
380.7957, 263.1591
382.7242, 260.4901
384.6526, 259.1278
386.5811, 258.4487
388.5096, 258.5525
390.4380, 259.4510
392.3665, 261.1470
394.2950, 263.4367
396.2234, 266.5453
398.1519, 270.6245
400.0804, 276.6175
402.0088, 285.3019
403.9373, 295.8551
405.8658, 307.9305
407.7942, 322.0673
409.7227, 338.5838
411.6512, 356.3828
413.5796, 375.3651
415.5081, 393.9626
417.4366, 412.1330
419.3650, 432.3867
421.2935, 450.4883
423.2220, 462.9459
425.1504, 474.5164
427.0789, 494.2768
429.0074, 520.7930
430.9358, 558.9914
432.8643, 614.7061
434.7928, 695.1557
436.7212, 773.1583
438.6497, 854.6120
440.5782, 925.6455
442.5066, 971.8366
444.4351, 978.8221
446.3636, 955.4161
448.2920, 907.7890
450.2205, 840.0219
452.1490, 767.5873
454.0774, 696.0009
456.0059, 633.2431
457.9344, 581.4576
459.8628, 541.1503
461.7913, 511.0510
463.7198, 490.9358
465.6482, 475.4804
467.5767, 459.8927
469.5052, 442.8170
471.4336, 429.6674
473.3621, 420.6233
475.2906, 415.0645
477.2190, 413.1771
479.1475, 415.7334
481.0760, 420.6542
483.0044, 427.9354
484.9329, 436.8674
486.8614, 446.0938
488.7898, 455.3347
490.7183, 465.4039
492.6468, 476.1167
494.5752, 486.4040
496.5037, 497.0113
498.4322, 505.2159
500.3606, 515.2948
502.2891, 530.8417
504.2176, 554.3325
506.1460, 581.1251
508.0745, 616.1914
510.0030, 657.5448
511.9314, 696.5899
513.8599, 730.6335
515.7883, 766.3342
517.7168, 800.7767
519.6453, 833.5751
521.5737, 888.7007
523.5022, 974.7120
525.4307, 1077.336
527.3591, 1198.839
529.2876, 1340.161
531.2161, 1464.898
533.1445, 1546.181
535.0730, 1575.911
537.0015, 1545.384
538.9299, 1451.785
540.8584, 1326.852
542.7869, 1181.036
544.7153, 1037.945
546.6438, 908.5765
548.5723, 798.3108
550.5007, 710.1720
552.4292, 647.4766
554.3577, 604.1451
556.2861, 566.1837
558.2146, 531.3547
560.1431, 498.5546
562.0715, 466.2167
564.0000, 431.6077
565.9285, 402.9208
567.8569, 380.9473
569.7854, 364.1275
571.7139, 352.2065
573.6423, 343.7563
575.5708, 337.1890
577.4993, 332.6258
579.4277, 329.3242
581.3562, 326.4939
583.2847, 325.1865
585.2131, 324.9576
587.1416, 326.0554
589.0701, 327.0029
590.9985, 326.6119
592.9270, 325.1697
594.8555, 324.2993
596.7839, 324.5363
598.7124, 324.9071
600.6409, 324.1325
602.5693, 322.4613
604.4978, 320.4071
606.4263, 317.9166
608.3547, 315.2379
610.2832, 312.9446
612.2117, 310.9933
614.1401, 309.1275
616.0686, 307.0157
617.9971, 305.0501
619.9255, 304.0496
621.8540, 304.7674
623.7825, 305.7941
625.7109, 306.1057
627.6394, 304.8566
629.5679, 304.3345
631.4963, 305.2339
633.4248, 306.5670
635.3533, 307.0196
637.2817, 306.7684
639.2102, 306.5989
641.1387, 306.4968
643.0671, 306.1235
644.9956, 305.7646
646.9241, 306.4529
648.8525, 307.0835
650.7810, 307.1129
652.7095, 306.8453
654.6379, 307.2118
656.5664, 308.2660
658.4949, 310.0073
660.4233, 312.7366
662.3518, 316.1456
664.2803, 318.6692
666.2087, 319.8371
668.1372, 321.5506
670.0657, 324.4542
671.9941, 327.8077
673.9226, 332.1042
675.8511, 338.9270
677.7795, 345.8327
679.7080, 351.5916
681.6365, 355.5748
683.5649, 360.2052
685.4934, 365.8336
687.4219, 371.6446
689.3503, 377.1242
691.2788, 382.7569
693.2073, 388.5894
695.1357, 394.4696
697.0642, 400.1476
698.9927, 406.2226
700.9211, 412.5983
702.8496, 417.3776
704.7781, 420.0174
706.7065, 421.1889
708.6350, 421.0226
710.5635, 419.5430
712.4919, 417.5852
714.4204, 414.6048
716.3489, 411.6336
718.2773, 409.8076
720.2058, 409.2205
722.1343, 408.6329
724.0627, 408.6783
725.9912, 407.9208
727.9197, 405.5648
729.8481, 400.5727
731.7766, 394.2098
733.7051, 386.0861
735.6335, 377.3693
737.5620, 368.3211
739.4905, 358.8760
741.4189, 350.7243
743.3474, 343.8295
745.2759, 338.5835
747.2043, 335.6659
749.1328, 334.9235
751.0613, 333.1126
752.9897, 329.0137
754.9182, 325.0399
756.8467, 322.2631
758.7751, 320.8319
760.7036, 319.6851
762.6321, 318.9315
764.5605, 318.1469
766.4890, 317.3902
768.4175, 317.0771
770.3459, 316.4069
772.2744, 314.6277
774.2029, 312.8963
776.1313, 312.4460
778.0598, 313.7381
779.9883, 314.8466
781.9167, 315.1308
783.8452, 315.2112
785.7737, 315.8341
787.7021, 317.4599
789.6306, 318.6035
791.5591, 318.5848
793.4875, 318.1502
795.4160, 318.2275
797.3445, 318.9988
799.2729, 319.7776
801.2014, 320.2936
803.1299, 320.7592
805.0583, 321.5405
806.9868, 322.8573
808.9153, 324.0282
810.8438, 324.7521
812.7722, 325.4337
814.7007, 326.5790
816.6292, 328.4740
818.5576, 329.9048
820.4861, 330.2490
822.4146, 330.1928
824.3430, 330.5570
826.2715, 331.5801
828.2000, 332.3221
830.1284, 332.4479
832.0569, 332.3649
833.9854, 332.5446
835.9138, 333.1547
837.8423, 333.3950
839.7708, 332.7262
841.6992, 331.9877
843.6277, 331.9357
845.5562, 332.5869
847.4846, 333.2963
849.4131, 334.1346
851.3416, 335.1211
853.2700, 336.0543
855.1985, 336.9536
857.1270, 337.3309
859.0554, 336.2652
860.9839, 335.1918
862.9124, 335.2682
864.8408, 337.0453
866.7693, 338.3083
868.6978, 338.8077
870.6262, 338.9604
872.5547, 338.8274
874.4832, 338.5085
876.4116, 338.8151
878.3401, 340.8579
880.2686, 342.5448
882.1970, 342.7831
884.1255, 341.5225
886.0540, 340.3988
887.9824, 339.2850
889.9109, 338.3226
891.8394, 337.6677
893.7678, 337.5627
895.6963, 338.0590
897.6248, 339.5545
899.5532, 340.7504
901.4817, 341.0843
903.4102, 341.0797
905.3386, 341.5174
907.2671, 342.4796
909.1956, 343.2374
911.1240, 343.6512
913.0525, 344.4373
914.9810, 345.0930
916.9094, 345.0516
918.8379, 345.2777
920.7664, 346.6873
922.6948, 348.7958
924.6233, 350.6342
926.5518, 352.4002
928.4802, 353.5752
930.4087, 353.3639
932.3372, 352.8356
934.2656, 353.2451
936.1941, 354.2377
938.1226, 355.8478
940.0510, 358.6566
941.9795, 361.8758
943.9080, 364.4996
945.8364, 366.2854
947.7649, 368.2779
949.6934, 370.5566
951.6218, 373.3026
953.5503, 376.3835
955.4788, 379.9558
957.4072, 384.3157
959.3357, 389.7150
961.2642, 395.3280
963.1926, 401.2131
965.1211, 407.1543
967.0496, 411.9889
968.9780, 415.3505
970.9065, 417.9169
972.8350, 419.5520
974.7634, 420.5712
976.6919, 421.1174
978.6204, 420.4932
980.5488, 419.2292
982.4773, 417.3775
984.4058, 416.1925
986.3342, 416.2177
988.2627, 417.4981
990.1912, 419.3507
992.1196, 421.5306
994.0481, 424.0396
995.9766, 427.4396
997.9050, 431.8873
999.8335, 437.3352
1001.762, 444.3306
1003.690, 452.4356
1005.619, 460.2374
1007.547, 467.1991
1009.476, 472.4356
1011.404, 474.8256
1013.333, 477.4006
1015.261, 481.5622
1017.190, 486.2314
1019.118, 492.3773
1021.047, 500.0348
1022.975, 508.9517
1024.904, 518.4621
1026.832, 530.4298
1028.760, 547.4609
1030.689, 570.4286
1032.617, 598.6577
1034.546, 634.9626
1036.474, 672.2006
1038.403, 706.3007
1040.331, 735.6514
1042.260, 750.1734
1044.188, 745.6591
1046.117, 728.1870
1048.045, 696.8146
1049.974, 650.6564
1051.902, 609.7247
1053.831, 577.1773
1055.759, 551.7004
1057.688, 531.4710
1059.616, 517.4503
1061.544, 508.5870
1063.473, 504.3228
1065.401, 501.9719
1067.330, 500.8438
1069.258, 501.0802
1071.187, 502.8284
1073.115, 506.3642
1075.044, 509.5077
1076.972, 512.0872
1078.901, 515.5578
1080.829, 519.9171
1082.758, 522.8613
1084.686, 525.6912
1086.615, 529.3465
1088.543, 531.9458
1090.471, 531.0318
1092.400, 526.3687
1094.328, 519.4360
1096.257, 510.8483
1098.185, 501.5566
1100.114, 491.7141
1102.042, 481.4988
1103.971, 471.6350
1105.899, 462.2755
1107.828, 454.4403
1109.756, 448.4812
1111.685, 443.5812
1113.613, 438.5337
1115.542, 433.8289
1117.470, 430.3564
1119.398, 428.6231
1121.327, 427.5238
1123.255, 425.5450
1125.184, 422.7132
1127.112, 421.5387
1129.041, 422.8665
1130.969, 423.5982
1132.898, 422.0311
1134.826, 418.7612
1136.755, 416.6323
1138.683, 416.0815
1140.612, 415.6418
1142.540, 415.1790
1144.469, 414.9778
1146.397, 415.3601
1148.325, 415.3343
1150.254, 413.9568
1152.182, 412.5423
1154.111, 412.1382
1156.039, 412.5433
1157.968, 412.7736
1159.896, 412.5228
1161.825, 411.7511
1163.753, 410.8022
1165.682, 410.6157
1167.610, 411.2090
1169.539, 411.3744
1171.467, 409.6410
1173.396, 408.8916
1175.324, 409.7890
1177.252, 411.2546
1179.181, 412.3928
1181.109, 413.1954
1183.038, 413.5454
1184.966, 414.4051
1186.895, 415.7780
1188.823, 415.7263
1190.752, 414.3493
1192.680, 414.0746
1194.609, 416.5011
1196.537, 419.2459
1198.466, 420.5848
1200.394, 420.7707
1202.323, 420.8388
1204.251, 421.4443
1206.179, 422.6608
1208.108, 423.2390
1210.036, 423.4156
1211.965, 423.9816
1213.893, 425.0250
1215.822, 425.7450
1217.750, 425.4996
1219.679, 425.2047
1221.607, 425.9144
1223.536, 427.3397
1225.464, 428.1366
1227.393, 427.8410
1229.321, 427.4385
1231.250, 428.2488
1233.178, 430.2764
1235.106, 432.7128
1237.035, 435.0016
1238.963, 436.6525
1240.892, 437.4558
1242.820, 439.3915
1244.749, 442.5976
1246.677, 444.8746
1248.606, 445.5630
1250.534, 445.1742
1252.463, 446.9145
1254.391, 451.3188
1256.320, 456.2127
1258.248, 461.0690
1260.177, 464.7213
1262.105, 467.2869
1264.033, 469.3814
1265.962, 470.9135
1267.890, 470.3083
1269.819, 468.8681
1271.747, 467.8794
1273.676, 467.2845
1275.604, 466.3365
1277.533, 464.7753
1279.461, 462.6454
1281.390, 460.8326
1283.318, 459.8437
1285.247, 458.7403
1287.175, 457.0142
1289.104, 455.1180
1291.032, 453.2345
1292.960, 452.2678
1294.889, 451.9196
1296.817, 451.3120
1298.746, 450.6199
1300.674, 450.1084
1302.603, 450.2707
1304.531, 451.0431
1306.460, 452.1583
1308.388, 453.6164
1310.317, 455.5116
1312.245, 456.7820
1314.174, 456.9833
1316.102, 456.1369
1318.031, 454.5990
1319.959, 453.5722
1321.887, 453.3731
1323.816, 454.1710
1325.744, 455.3992
1327.673, 457.4455
1329.601, 458.8837
1331.530, 459.2791
1333.458, 459.4015
1335.387, 459.9547
1337.315, 460.8701
1339.244, 461.8935
1341.172, 463.4023
1343.101, 464.7757
1345.029, 465.0207
1346.958, 464.5685
1348.886, 465.5920
1350.814, 468.4424
1352.743, 470.0695
1354.671, 468.8123
1356.600, 467.8208
1358.528, 468.6841
1360.457, 470.5358
1362.385, 471.9233
1364.314, 472.7626
1366.242, 473.6717
1368.171, 474.7350
1370.099, 475.6617
1372.028, 476.5180
1373.956, 477.0863
1375.885, 477.1519
1377.813, 476.2377
1379.741, 475.8529
1381.670, 475.8146
1383.598, 476.1506
1385.527, 477.3044
1387.455, 479.1207
1389.384, 480.3355
1391.312, 480.7559
1393.241, 480.9815
1395.169, 480.7672
1397.098, 480.9006
1399.026, 481.7213
1400.955, 483.1629
1402.883, 485.1413
1404.812, 488.0764
1406.740, 490.1406
1408.668, 490.2516
1410.597, 489.7452
1412.525, 489.6351
1414.454, 490.1119
1416.382, 491.0999
1418.311, 492.7190
1420.239, 494.1425
1422.168, 495.0959
1424.096, 496.2290
1426.025, 497.7040
1427.953, 499.4528
1429.882, 500.8173
1431.810, 501.7535
1433.739, 502.3866
1435.667, 502.4234
1437.595, 502.4999
1439.524, 503.4688
1441.452, 505.4060
1443.381, 506.3387
1445.309, 505.3070
1447.238, 504.7106
1449.166, 505.3389
1451.095, 506.2798
1453.023, 506.3005
1454.952, 505.6043
1456.880, 506.3107
1458.809, 509.3208
1460.737, 511.7240
1462.666, 512.2357
1464.594, 512.1824
1466.522, 512.5837
1468.451, 513.3757
1470.379, 514.2160
1472.308, 515.1135
1474.236, 515.8810
1476.165, 516.1009
1478.093, 516.4174
1480.022, 517.4616
1481.950, 519.0001
1483.879, 519.9133
1485.807, 519.9008
1487.736, 520.0766
1489.664, 521.3567
1491.593, 522.4159
1493.521, 522.2407
1495.449, 521.1485
1497.378, 520.6729
1499.306, 520.9230
1501.235, 521.6202
1503.163, 523.0103
1505.092, 524.3161
1507.020, 524.9186
1508.949, 525.2595
1510.877, 526.4720
1512.806, 529.3773
1514.734, 531.0807
1516.663, 530.9250
1518.591, 530.4048
1520.520, 529.4360
1522.448, 528.7566
1524.376, 529.8563
1526.305, 533.1896
1528.233, 534.6974
1530.162, 532.3350
1532.090, 530.9070
1534.019, 532.8891
1535.947, 535.6979
1537.876, 536.1379
1539.804, 534.5732
1541.733, 534.1657
1543.661, 535.2051
1545.590, 536.7107
1547.518, 539.7471
1549.447, 541.9955
1551.375, 540.6112
1553.303, 537.2045
1555.232, 536.3583
1557.160, 538.6923
1559.089, 541.2331
1561.017, 543.9635
1562.946, 546.0399
1564.874, 546.4558
1566.803, 545.9952
1568.731, 545.9050
1570.660, 546.2303
1572.588, 547.1603
1574.517, 549.0223
1576.445, 550.7496
1578.374, 551.7120
1580.302, 552.6025
1582.230, 554.4340
1584.159, 556.9079
1586.087, 557.2631
1588.016, 554.1350
1589.944, 552.4564
1591.873, 554.8049
1593.801, 557.4673
1595.730, 558.1007
1597.658, 557.6856
1599.587, 559.0152
1601.515, 562.6774
1603.444, 565.7813
1605.372, 567.5517
1607.301, 569.1201
1609.229, 570.4662
1611.157, 572.0070
1613.086, 574.4233
1615.014, 577.7602
1616.943, 580.2072
1618.871, 581.0885
1620.800, 582.4434
1622.728, 585.0255
1624.657, 587.6873
1626.585, 590.1016
1628.514, 592.1227
1630.442, 593.2432
1632.371, 593.3201
1634.299, 592.9492
1636.228, 590.1412
1638.156, 589.3496
1640.084, 593.7233
1642.013, 599.1804
1643.941, 601.9981
1645.870, 602.1377
1647.798, 599.5229
1649.727, 590.3553
1651.655, 584.3947
1653.584, 583.5378
1655.512, 584.1876
1657.441, 585.4904
1659.369, 586.7487
1661.298, 586.3412
1663.226, 583.6508
1665.155, 582.6924
1667.083, 584.6095
1669.011, 586.3065
1670.940, 586.7889
1672.868, 587.3998
1674.797, 590.1982
1676.725, 593.9403
1678.654, 594.2375
1680.582, 588.8722
1682.511, 586.9219
1684.439, 591.4876
1686.368, 595.3226
1688.296, 595.5637
1690.225, 594.8200
1692.153, 595.7219
1694.082, 597.8483
1696.010, 598.7868
1697.938, 597.6486
1699.867, 597.2690
1701.795, 598.8108
1703.724, 599.8440
1705.652, 599.0219
1707.581, 597.6467
1709.509, 597.0883
1711.438, 597.3865
1713.366, 598.4686
1715.295, 601.1758
1717.223, 603.0001
1719.152, 603.3058
1721.080, 603.1672
1723.009, 602.0752
1724.937, 601.3331
1726.865, 603.3710
1728.794, 608.2006
1730.722, 611.0637
1732.651, 610.5646
1734.579, 610.7059
1736.508, 612.1052
1738.436, 613.7485
1740.365, 615.3673
1742.293, 616.6809
1744.222, 617.0789
1746.150, 616.4606
1748.079, 616.3878
1750.007, 617.4752
1751.936, 618.1158
1753.864, 618.1539
1755.792, 618.1038
1757.721, 618.0771
1759.649, 618.3810
1761.578, 619.5045
1763.506, 621.4509
1765.435, 623.2850
1767.363, 625.3463
1769.292, 626.4535
1771.220, 625.7402
1773.149, 624.8193
1775.077, 623.8376
1777.006, 623.2757
1778.934, 624.0659
1780.863, 626.0894
1782.791, 627.3337
1784.719, 627.0853
1786.648, 627.9007
1788.576, 631.6110
1790.505, 634.1718
1792.433, 633.6620
1794.362, 631.9785
1796.290, 630.3085
1798.219, 628.9371
1800.147, 629.5339
1802.076, 632.9255
1804.004, 635.0822
1805.933, 635.1357
1807.861, 634.9210
1809.790, 633.9083
1811.718, 633.6937
1813.646, 636.4407
1815.575, 640.4335
1817.503, 641.1988
1819.432, 638.5438
1821.360, 637.1497
1823.289, 637.7197
1825.217, 638.7871
1827.146, 640.6424
1829.074, 642.2094
1831.003, 642.4459
1832.931, 642.3601
1834.860, 643.3074
1836.788, 645.0771
1838.717, 646.7968
1840.645, 648.4666
1842.573, 649.4966
1844.502, 649.5673
1846.430, 649.3964
1848.359, 648.9224
1850.287, 648.7386
1852.216, 649.8713
1854.144, 651.5419
1856.073, 651.5750
1858.001, 649.9145
1859.930, 649.8992
1861.858, 652.9359
1863.787, 654.7407
1865.715, 652.8828
1867.644, 651.0881
1869.572, 651.3448
1871.500, 652.8085
1873.429, 654.5854
1875.357, 656.6341
1877.286, 658.5966
1879.214, 660.4903
1881.143, 662.0050
1883.071, 662.9130
1885.000, 663.5150
1886.928, 663.7843
1888.857, 663.7639
1890.785, 663.2109
1892.714, 662.5596
1894.642, 662.8111
1896.571, 664.0957
1898.499, 664.8303
1900.427, 664.4145
1902.356, 664.9445
1904.284, 667.4109
1906.213, 669.6416
1908.141, 670.3685
1910.070, 671.0284
1911.998, 673.0089
1913.927, 675.6036
1915.855, 677.5115
1917.784, 678.7228
1919.712, 677.8143
1921.641, 673.7660
1923.569, 671.2888
1925.498, 672.0612
1927.426, 673.4641
1929.354, 674.8467
1931.283, 675.9792
1933.211, 676.2503
1935.140, 676.2972
1937.068, 677.9462
1938.997, 681.0208
1940.925, 682.0212
1942.854, 679.9911
1944.782, 678.6985
1946.711, 678.9475
1948.639, 679.9823
1950.568, 682.0154
1952.496, 684.1152
1954.425, 685.7829
1956.353, 686.8185
1958.281, 686.5762
1960.210, 685.0209
1962.138, 684.1754
1964.067, 684.5520
1965.995, 684.8203
1967.924, 684.1833
1969.852, 684.5325
1971.781, 687.4432
1973.709, 690.2494
1975.638, 690.7528
1977.566, 690.1668
1979.495, 690.6589
1981.423, 692.1320
1983.352, 692.5465
1985.280, 691.6583
1987.208, 691.8073
1989.137, 693.6923
1991.065, 695.6455
1992.994, 697.4862
1994.922, 698.7418
1996.851, 697.9937
1998.779, 697.3203
2000.708, 699.7463
2002.636, 703.7659
2004.565, 705.3350
2006.493, 704.4280
2008.422, 703.6982
2010.350, 703.2880
2012.279, 703.3141
2014.207, 704.2893
2016.135, 705.0881
2018.064, 705.2371
2019.992, 705.1966
2021.921, 705.0157
2023.849, 704.9907
2025.778, 705.7897
2027.706, 707.2689
2029.635, 708.1444
2031.563, 708.1624
2033.492, 708.7531
2035.420, 710.3222
2037.349, 711.7222
2039.277, 713.3166
2041.206, 713.8757
2043.134, 711.9578
2045.063, 709.7482
2046.991, 708.5101
2048.919, 708.3353
2050.848, 709.8907
2052.776, 712.7213
2054.705, 714.5063
2056.633, 715.0484
2058.562, 715.0139
2060.490, 713.7659
2062.419, 713.4609
2064.347, 714.9218
2066.276, 717.0613
2068.204, 721.0370
2070.133, 724.0465
2072.061, 722.1506
2073.990, 718.3945
2075.918, 718.8730
2077.846, 723.0891
2079.775, 725.3625
2081.703, 725.3264
2083.632, 725.2008
2085.560, 725.0553
2087.489, 724.9102
2089.417, 724.9916
2091.346, 724.7601
2093.274, 723.2065
2095.203, 722.3377
2097.131, 724.5186
2099.060, 727.7320
2100.988, 728.7775
2102.917, 728.4475
2104.845, 730.1661
2106.773, 734.3411
2108.702, 736.0485
2110.630, 732.6915
2112.559, 731.2097
2114.487, 733.1295
2116.416, 734.6873
2118.344, 735.7543
2120.273, 735.7243
2122.201, 733.3138
2124.130, 730.8183
2126.058, 730.1401
2127.987, 730.9637
2129.915, 733.1270
2131.844, 736.2185
2133.772, 738.4239
2135.700, 739.5760
2137.629, 739.8148
2139.557, 738.3871
2141.486, 738.1829
2143.414, 740.7161
2145.343, 743.1573
2147.271, 745.6068
2149.200, 746.7955
2151.128, 745.0643
2153.057, 742.6648
2154.985, 741.6869
2156.914, 741.8689
2158.842, 743.0574
2160.771, 744.9783
2162.699, 745.1072
2164.627, 743.2287
2166.556, 744.1647
2168.484, 749.5048
2170.413, 752.2108
2172.341, 749.4648
2174.270, 746.8754
2176.198, 746.2058
2178.127, 746.3909
2180.055, 747.1141
2181.984, 748.2497
2183.912, 750.2712
2185.841, 752.2551
2187.769, 752.3529
2189.698, 750.9512
2191.626, 749.6796
2193.554, 748.4884
2195.483, 749.5032
2197.411, 753.2854
2199.340, 755.4756
2201.268, 754.6966
2203.197, 754.9353
2205.125, 758.8438
2207.054, 761.3068
2208.982, 758.1853
2210.911, 755.5751
2212.839, 758.9721
2214.768, 763.3157
2216.696, 762.3004
2218.625, 758.7206
2220.553, 758.4903
2222.481, 760.9151
2224.410, 761.5223
2226.338, 760.2467
2228.267, 759.8040
2230.195, 760.2079
2232.124, 763.1868
2234.052, 770.9797
2235.981, 775.1390
2237.909, 770.8074
2239.838, 766.9727
2241.766, 767.4457
2243.695, 768.4850
2245.623, 768.1024
2247.552, 767.0815
2249.480, 765.6123
2251.408, 764.3622
2253.337, 764.3578
2255.265, 765.5257
2257.194, 768.2201
2259.122, 772.0593
2261.051, 773.4283
2262.979, 772.0220
2264.908, 771.3279
2266.836, 771.8207
2268.765, 772.4197
2270.693, 773.4090
2272.622, 773.8753
2274.550, 772.8008
2276.479, 772.5823
2278.407, 775.6299
2280.335, 778.0123
2282.264, 776.3504
2284.192, 773.8836
2286.121, 773.1345
2288.049, 773.7365
2289.978, 776.0294
2291.906, 778.9888
2293.835, 779.6285
2295.763, 778.2367
2297.692, 778.1265
2299.620, 779.5395
2301.549, 780.7643
2303.477, 781.9095
2305.406, 782.6624
2307.334, 782.7865
2309.262, 783.1990
2311.191, 784.3813
2313.119, 785.3245
2315.048, 785.5829
2316.976, 785.8134
2318.905, 785.2988
2320.833, 786.0427
2322.762, 790.7139
2324.690, 796.0698
2326.619, 798.8772
2328.547, 799.7903
2330.476, 799.9293
2332.404, 799.1042
2334.333, 795.7021
2336.261, 790.4373
2338.189, 790.2891
2340.118, 795.1796
2342.046, 797.8855
2343.975, 797.8292
2345.903, 796.6280
2347.832, 793.4965
2349.760, 792.0992
2351.689, 794.5713
2353.617, 796.1378
2355.546, 794.5443
2357.474, 793.8856
2359.403, 796.8024
2361.331, 799.1047
2363.260, 798.4704
2365.188, 797.0566
2367.116, 795.6922
2369.045, 795.0825
2370.973, 796.4144
2372.902, 798.6618
2374.830, 800.2415
2376.759, 801.3730
2378.687, 802.7492
2380.616, 804.2283
2382.544, 805.1725
2384.473, 805.5324
2386.401, 805.0616
2388.330, 803.7208
2390.258, 803.8324
2392.187, 806.0651
2394.115, 807.2458
2396.043, 805.8375
2397.972, 806.2421
2399.900, 811.1984
2401.829, 814.5639
2403.757, 813.8578
2405.686, 813.3757
2407.614, 814.1535
2409.543, 815.3438
2411.471, 816.8994
2413.400, 818.1884
2415.328, 818.8243
2417.257, 818.9883
2419.185, 818.7690
2421.114, 818.3051
2423.042, 817.0260
2424.970, 816.1740
2426.899, 818.9066
2428.827, 823.4406
2430.756, 823.9601
2432.684, 822.0997
2434.613, 824.9160
2436.541, 831.4396
2438.470, 832.7038
2440.398, 827.8843
2442.327, 824.0710
2444.255, 820.5369
2446.184, 821.1529
2448.112, 828.1014
2450.041, 830.4933
2451.969, 825.9890
2453.897, 823.0244
2455.826, 823.5992
2457.754, 824.5129
2459.683, 825.0634
2461.611, 825.7147
2463.540, 826.5320
2465.468, 827.7011
2467.397, 830.3955
2469.325, 831.9180
2471.254, 828.4575
2473.182, 826.5343
2475.111, 832.1010
2477.039, 837.9420
2478.968, 837.6045
2480.896, 835.5264
2482.824, 837.0189
2484.753, 838.9699
2486.681, 835.7078
2488.610, 831.0848
2490.538, 833.0292
2492.467, 838.4042
2494.395, 839.4210
2496.324, 837.4348
2498.252, 835.9520
2500.181, 835.1703
2502.109, 836.7634
2504.038, 840.5905
2505.966, 841.3607
2507.895, 838.7400
2509.823, 838.3185
2511.751, 840.2646
2513.680, 840.4851
2515.608, 838.3045
2517.537, 838.5791
2519.465, 842.8028
2521.394, 845.1998
2523.322, 844.0784
2525.251, 843.0446
2527.179, 841.7892
2529.108, 842.2765
2531.036, 846.2269
2532.965, 848.1249
2534.893, 845.5246
2536.822, 843.5338
2538.750, 844.0656
2540.678, 845.0579
2542.607, 846.0961
2544.535, 846.9391
2546.464, 847.1039
2548.392, 847.3914
2550.321, 847.6338
2552.249, 848.6464
2554.178, 851.6212
2556.106, 854.5118
2558.035, 856.6313
2559.963, 857.3378
2561.892, 854.9575
2563.820, 852.3663
2565.749, 852.4327
2567.677, 853.5549
2569.605, 854.4219
2571.534, 855.2616
2573.462, 856.7551
2575.391, 857.8193
2577.319, 855.6483
2579.248, 852.7164
2581.176, 853.7099
2583.105, 856.7239
2585.033, 858.3005
2586.962, 859.0353
2588.890, 860.4541
2590.819, 862.2393
2592.747, 863.6398
2594.676, 864.4860
2596.604, 863.0630
2598.532, 860.0857
2600.461, 859.2111
2602.389, 860.2045
2604.318, 863.3671
2606.246, 867.8600
2608.175, 869.2458
2610.103, 867.6367
2612.032, 866.4739
2613.960, 865.8751
2615.889, 863.9772
2617.817, 860.7936
2619.746, 860.4942
2621.674, 863.0545
2623.603, 865.1656
2625.531, 866.5771
2627.459, 868.1580
2629.388, 870.6052
2631.316, 869.1567
2633.245, 862.5033
2635.173, 860.6186
2637.102, 864.2363
2639.030, 868.2884
2640.959, 872.5861
2642.887, 874.5802
2644.816, 872.4306
2646.744, 872.9626
2648.673, 878.2188
2650.601, 879.0676
2652.530, 873.9429
2654.458, 871.2430
2656.386, 872.4727
2658.315, 873.3099
2660.243, 872.0452
2662.172, 873.2521
2664.100, 879.1554
2666.029, 882.5801
2667.957, 882.8026
2669.886, 881.7581
2671.814, 879.3114
2673.743, 877.7513
2675.671, 877.4271
2677.600, 878.3455
2679.528, 882.0029
2681.457, 883.4888
2683.385, 881.6033
2685.313, 880.1370
2687.242, 879.4446
2689.170, 880.3351
2691.099, 885.0293
2693.027, 886.6534
2694.956, 880.7316
2696.884, 878.7722
2698.813, 883.1365
2700.741, 886.4327
2702.670, 886.9879
2704.598, 887.9141
2706.527, 891.0026
2708.455, 891.7708
2710.384, 887.5519
2712.312, 884.9821
2714.240, 884.9042
2716.169, 885.5911
2718.097, 887.0136
2720.026, 888.2388
2721.954, 889.5618
2723.883, 889.3077
2725.811, 885.2922
2727.740, 884.2542
2729.668, 887.7462
2731.597, 890.0192
2733.525, 889.5622
2735.454, 891.0740
2737.382, 897.8256
2739.311, 900.8542
2741.239, 897.6174
2743.167, 896.3769
2745.096, 898.2707
2747.024, 898.4748
2748.953, 895.5220
2750.881, 894.6857
2752.810, 898.2184
2754.738, 900.2679
2756.667, 900.5096
2758.595, 900.1911
2760.524, 899.2082
2762.452, 899.8094
2764.381, 902.6109
2766.309, 904.3993
2768.238, 904.8037
2770.166, 904.2855
2772.094, 902.7067
2774.023, 900.6564
2775.951, 898.1168
2777.880, 900.3181
2779.808, 908.5934
2781.737, 911.5681
2783.665, 908.1673
2785.594, 908.8253
2787.522, 913.3356
2789.451, 915.7899
2791.379, 916.0453
2793.308, 916.4695
2795.236, 916.9637
2797.165, 914.7957
2799.093, 910.3162
2801.021, 907.4990
2802.950, 906.6593
2804.878, 910.1368
2806.807, 916.6243
2808.735, 921.1857
2810.664, 923.4690
2812.592, 920.3690
2814.521, 914.4561
2816.449, 914.8004
2818.378, 918.4562
2820.306, 918.8118
2822.235, 917.7938
2824.163, 919.6637
2826.092, 922.5303
2828.020, 922.6896
2829.948, 921.9068
2831.877, 922.8889
2833.805, 924.1999
2835.734, 924.0820
2837.662, 923.3661
2839.591, 922.5605
2841.519, 922.0697
2843.448, 921.8142
2845.376, 922.5689
2847.305, 925.9052
2849.233, 929.2361
2851.162, 930.9250
2853.090, 931.8469
2855.019, 932.4009
2856.947, 932.6266
2858.875, 932.2861
2860.804, 931.9696
2862.732, 931.0157
2864.661, 931.4485
2866.589, 934.8856
2868.518, 937.3151
2870.446, 937.0812
2872.375, 937.4914
2874.303, 940.8995
2876.232, 942.2454
2878.160, 940.1775
2880.089, 938.0911
2882.017, 935.9737
2883.946, 937.3898
2885.874, 944.2426
2887.802, 946.5381
2889.731, 941.6621
2891.659, 940.3846
2893.588, 942.6370
2895.516, 944.0310
2897.445, 944.3800
2899.373, 945.1164
2901.302, 946.2145
2903.230, 946.1465
2905.159, 945.5157
2907.087, 948.3591
2909.016, 952.5549
2910.944, 950.9063
2912.873, 947.1208
2914.801, 950.0035
2916.729, 955.4767
2918.658, 957.1115
2920.586, 956.9197
2922.515, 957.1656
2924.443, 957.1234
2926.372, 955.7599
2928.300, 954.4083
2930.229, 954.0533
2932.157, 954.3338
2934.086, 954.5121
2936.014, 956.1113
2937.943, 961.7288
2939.871, 965.5035
2941.800, 963.8889
2943.728, 963.6915
2945.656, 967.2178
2947.585, 969.6337
2949.513, 969.4675
2951.442, 968.7592
2953.370, 967.5764
2955.299, 966.5109
2957.227, 965.6009
2959.156, 967.0452
2961.084, 971.3127
2963.013, 972.3775
2964.941, 970.3681
2966.870, 972.4214
2968.798, 977.1091
2970.727, 978.4596
2972.655, 977.9362
2974.583, 980.5963
2976.512, 983.5150
2978.440, 979.4766
2980.369, 973.8134
2982.297, 972.4205
2984.226, 973.1710
2986.154, 974.1239
2988.083, 976.1516
2990.011, 981.9036
2991.940, 985.4904
2993.868, 981.4101
2995.797, 979.1442
2997.725, 984.3607
2999.654, 988.1649
3001.582, 988.5388
3003.510, 988.9806
3005.439, 990.1871
3007.367, 991.3098
3009.296, 991.8666
3011.224, 994.1391
3013.153, 998.0823
3015.081, 1001.109
3017.010, 1002.727
3018.938, 999.9349
3020.867, 994.5166
3022.795, 994.1714
3024.724, 997.1988
3026.652, 1000.788
3028.581, 1004.258
3030.509, 1006.465
3032.438, 1008.333
3034.366, 1011.114
3036.294, 1013.335
3038.223, 1013.064
3040.151, 1013.373
3042.080, 1016.692
3044.008, 1018.831
3045.937, 1017.007
3047.865, 1018.934
3049.794, 1028.023
3051.722, 1032.562
3053.651, 1028.418
3055.579, 1027.487
3057.508, 1029.868
3059.436, 1030.933
3061.365, 1030.731
3063.293, 1030.324
3065.221, 1030.203
3067.150, 1032.210
3069.078, 1035.577
3071.007, 1039.815
3072.935, 1043.416
3074.864, 1044.423
3076.792, 1044.324
3078.721, 1042.948
3080.649, 1043.263
3082.578, 1048.216
3084.506, 1052.552
3086.435, 1054.640
3088.363, 1055.174
3090.292, 1053.398
3092.220, 1054.427
3094.148, 1059.188
3096.077, 1064.900
3098.005, 1071.531
3099.934, 1072.702
3101.862, 1070.030
3103.791, 1070.763
3105.719, 1074.101
3107.648, 1079.585
3109.576, 1085.008
3111.505, 1085.886
3113.433, 1086.608
3115.362, 1091.969
3117.290, 1096.442
3119.219, 1094.432
3121.147, 1095.251
3123.075, 1102.730
3125.004, 1109.286
3126.932, 1112.275
3128.861, 1116.591
3130.789, 1122.573
3132.718, 1128.098
3134.646, 1132.904
3136.575, 1135.302
3138.503, 1136.605
3140.432, 1143.116
3142.360, 1151.200
3144.289, 1152.714
3146.217, 1153.983
3148.146, 1162.593
3150.074, 1171.869
3152.002, 1176.091
3153.931, 1182.299
3155.859, 1194.951
3157.788, 1205.406
3159.716, 1210.520
3161.645, 1216.773
3163.573, 1224.665
3165.502, 1230.936
3167.430, 1235.615
3169.359, 1240.967
3171.287, 1247.292
3173.216, 1256.254
3175.144, 1266.227
3177.073, 1274.947
3179.001, 1282.979
3180.929, 1290.938
3182.858, 1297.985
3184.786, 1302.994
3186.715, 1308.225
3188.643, 1315.058
3190.572, 1321.070
3192.500, 1326.287
3194.429, 1328.252
3196.357, 1326.814
3198.286, 1336.732
3200.214, 1354.751
3202.143, 1360.403
3204.071, 1361.834
3206.000, 1376.971
3207.928, 1391.899
3209.856, 1385.920
3211.785, 1382.487
3213.713, 1396.959
3215.642, 1410.853
3217.570, 1416.346
3219.499, 1422.031
3221.427, 1428.930
3223.356, 1433.195
3225.284, 1434.425
3227.213, 1433.602
3229.141, 1431.454
3231.070, 1430.313
3232.998, 1430.511
3234.927, 1434.721
3236.855, 1437.362
3238.783, 1431.573
3240.712, 1424.370
3242.640, 1416.919
3244.569, 1412.958
3246.497, 1417.004
3248.426, 1415.852
3250.354, 1408.594
3252.283, 1407.915
3254.211, 1413.355
3256.140, 1413.105
3258.068, 1410.509
3259.997, 1414.205
3261.925, 1420.129
3263.854, 1423.386
3265.782, 1427.518
3267.710, 1434.221
3269.639, 1442.921
3271.567, 1454.051
3273.496, 1464.704
3275.424, 1473.859
3277.353, 1486.607
3279.281, 1502.770
3281.210, 1518.356
3283.138, 1535.019
3285.067, 1558.958
3286.995, 1584.644
3288.924, 1602.971
3290.852, 1624.226
3292.781, 1656.662
3294.709, 1689.915
3296.637, 1720.085
3298.566, 1756.403
3300.494, 1801.820
3302.423, 1848.300
3304.351, 1895.450
3306.280, 1937.711
3308.208, 1979.375
3310.137, 2030.349
3312.065, 2084.259
3313.994, 2137.696
3315.922, 2185.038
3317.851, 2220.918
3319.779, 2254.808
3321.708, 2290.642
3323.636, 2315.328
3325.564, 2327.757
3327.493, 2338.236
3329.421, 2345.157
3331.350, 2338.877
3333.278, 2323.146
3335.207, 2301.735
3337.135, 2277.366
3339.064, 2251.483
3340.992, 2224.284
3342.921, 2195.838
3344.849, 2165.657
3346.778, 2132.759
3348.706, 2101.981
3350.635, 2073.320
3352.563, 2045.182
3354.491, 2020.174
3356.420, 2005.641
3358.348, 1994.170
3360.277, 1980.901
3362.205, 1965.953
3364.134, 1947.659
3366.062, 1930.980
3367.991, 1916.204
3369.919, 1907.156
3371.848, 1903.423
3373.776, 1897.668
3375.705, 1891.188
3377.633, 1887.050
3379.562, 1883.249
3381.490, 1877.273
3383.418, 1872.057
3385.347, 1868.624
3387.275, 1865.547
3389.204, 1862.529
3391.132, 1859.029
3393.061, 1855.022
3394.989, 1851.492
3396.918, 1846.990
3398.846, 1837.904
3400.775, 1827.170
3402.703, 1815.280
3404.632, 1806.209
3406.560, 1803.180
3408.489, 1799.810
3410.417, 1795.562
3412.345, 1789.667
3414.274, 1783.164
3416.202, 1782.765
3418.131, 1784.504
3420.059, 1780.509
3421.988, 1778.447
3423.916, 1785.878
3425.845, 1792.064
3427.773, 1793.392
3429.702, 1798.485
3431.630, 1808.607
3433.559, 1810.565
3435.487, 1807.639
3437.416, 1807.767
3439.344, 1810.701
3441.272, 1814.983
3443.201, 1824.932
3445.129, 1847.706
3447.058, 1861.198
3448.986, 1859.231
3450.915, 1863.406
3452.843, 1873.792
3454.772, 1888.522
3456.700, 1903.943
3458.629, 1912.160
3460.557, 1921.143
3462.486, 1941.070
3464.414, 1952.464
3466.343, 1948.783
3468.271, 1952.044
3470.199, 1963.874
3472.128, 1970.458
3474.056, 1972.792
3475.985, 1970.773
3477.913, 1969.803
3479.842, 1977.191
3481.770, 1982.302
3483.699, 1981.865
3485.627, 1980.411
3487.556, 1978.409
3489.484, 1978.984
3491.413, 1981.693
3493.341, 1986.551
3495.270, 1990.764
3497.198, 1989.048
3499.126, 1989.965
3501.055, 1996.571
3502.983, 2007.708
3504.912, 2023.738
3506.840, 2038.009
3508.769, 2053.306
3510.697, 2076.079
3512.626, 2106.060
3514.554, 2144.487
3516.483, 2186.588
3518.411, 2230.566
3520.340, 2277.697
3522.268, 2328.070
3524.197, 2376.985
3526.125, 2424.630
3528.053, 2470.057
3529.982, 2517.555
3531.910, 2578.681
3533.839, 2629.406
3535.767, 2656.548
3537.696, 2678.833
3539.624, 2697.203
3541.553, 2693.227
3543.481, 2670.545
3545.410, 2637.990
3547.338, 2594.433
3549.267, 2535.736
3551.195, 2470.682
3553.124, 2401.333
3555.052, 2329.624
3556.980, 2256.062
3558.909, 2192.413
3560.837, 2135.347
3562.766, 2074.512
3564.694, 2020.294
3566.623, 1986.271
3568.551, 1950.766
3570.480, 1906.990
3572.408, 1876.604
3574.337, 1859.014
3576.265, 1838.468
3578.194, 1817.881
3580.122, 1801.004
3582.051, 1787.181
3583.979, 1776.259
3585.907, 1767.388
3587.836, 1761.022
3589.764, 1751.601
3591.693, 1740.972
3593.621, 1735.967
3595.550, 1732.341
3597.478, 1725.168
3599.407, 1719.215
3601.335, 1717.500
3603.264, 1711.539
3605.192, 1701.595
3607.121, 1701.564
3609.049, 1705.529
3610.978, 1703.271
3612.906, 1699.661
3614.834, 1696.935
3616.763, 1696.628
3618.691, 1699.931
3620.620, 1700.297
3622.548, 1698.526
3624.477, 1696.665
3626.405, 1696.098
3628.334, 1700.219
3630.262, 1700.717
3632.191, 1689.218
3634.119, 1689.432
3636.048, 1700.017
3637.976, 1705.299
3639.905, 1707.738
3641.833, 1709.213
3643.761, 1713.015
3645.690, 1724.883
3647.618, 1727.449
3649.547, 1719.581
3651.475, 1717.022
3653.404, 1718.920
3655.332, 1724.060
3657.261, 1729.489
3659.189, 1735.108
3661.118, 1735.517
3663.046, 1729.336
3664.975, 1728.552
3666.903, 1732.244
3668.832, 1736.552
3670.760, 1739.957
3672.688, 1742.039
3674.617, 1740.578
3676.545, 1733.099
3678.474, 1733.810
3680.402, 1741.692
3682.331, 1747.105
3684.259, 1750.291
3686.188, 1749.501
3688.116, 1751.247
3690.045, 1760.329
3691.973, 1763.504
3693.902, 1760.673
3695.830, 1757.318
3697.759, 1754.777
3699.687, 1754.789
3701.615, 1756.321
3703.544, 1760.167
3705.472, 1762.048
3707.401, 1762.024
3709.329, 1763.208
3711.258, 1764.805
3713.186, 1764.453
3715.115, 1765.917
3717.043, 1772.070
3718.972, 1778.831
3720.900, 1785.415
3722.829, 1786.076
3724.757, 1785.339
3726.686, 1791.813
3728.614, 1798.267
3730.542, 1800.409
3732.471, 1803.989
3734.399, 1809.333
3736.328, 1815.987
3738.256, 1822.591
3740.185, 1827.372
3742.113, 1830.415
3744.042, 1829.858
3745.970, 1832.311
3747.899, 1838.183
3749.827, 1848.220
3751.756, 1858.237
3753.684, 1861.578
3755.613, 1863.389
3757.541, 1864.023
3759.469, 1867.540
3761.398, 1873.603
3763.326, 1881.445
3765.255, 1888.066
3767.183, 1888.251
3769.112, 1889.890
3771.040, 1896.944
3772.969, 1904.472
3774.897, 1912.129
3776.826, 1917.929
3778.754, 1924.221
3780.683, 1935.066
3782.611, 1942.230
3784.540, 1942.351
3786.468, 1939.828
3788.396, 1937.817
3790.325, 1947.099
3792.253, 1956.922
3794.182, 1959.012
3796.110, 1961.047
3798.039, 1964.132
3799.967, 1972.187
3801.896, 1981.707
3803.824, 1984.927
3805.753, 1988.715
3807.681, 1997.211
3809.610, 2003.351
3811.538, 2006.518
3813.467, 2010.153
3815.395, 2014.636
3817.323, 2020.800
3819.252, 2026.938
3821.180, 2031.970
3823.109, 2042.156
3825.037, 2055.100
3826.966, 2053.533
3828.894, 2052.130
3830.823, 2066.567
3832.751, 2078.942
3834.680, 2086.163
3836.608, 2088.241
3838.537, 2088.226
3840.465, 2092.190
3842.394, 2097.597
3844.322, 2103.481
3846.250, 2109.930
3848.179, 2116.709
3850.107, 2120.495
3852.036, 2124.526
3853.964, 2132.917
3855.893, 2141.038
3857.821, 2147.678
3859.750, 2152.427
3861.678, 2156.637
3863.607, 2166.005
3865.535, 2173.803
3867.464, 2172.065
3869.392, 2178.836
3871.321, 2193.997
3873.249, 2198.954
3875.177, 2201.342
3877.106, 2212.470
3879.034, 2220.803
3880.963, 2220.400
3882.891, 2225.879
3884.820, 2234.877
3886.748, 2239.268
3888.677, 2244.123
3890.605, 2255.267
3892.534, 2265.577
3894.462, 2273.002
3896.391, 2278.604
3898.319, 2284.262
3900.248, 2292.016
3902.176, 2298.308
3904.104, 2301.595
3906.033, 2310.701
3907.961, 2322.712
3909.890, 2330.229
3911.818, 2337.282
3913.747, 2349.210
3915.675, 2355.694
3917.604, 2356.326
3919.532, 2363.269
3921.461, 2370.098
3923.389, 2366.971
3925.318, 2371.917
3927.246, 2387.521
3929.175, 2389.833
3931.103, 2387.259
3933.031, 2395.949
3934.960, 2406.579
3936.888, 2415.222
3938.817, 2423.909
3940.745, 2432.981
3942.674, 2438.452
3944.602, 2442.015
3946.531, 2447.569
3948.459, 2452.218
3950.388, 2455.895
3952.316, 2461.467
3954.245, 2470.534
3956.173, 2483.590
3958.102, 2496.510
3960.030, 2508.354
3961.958, 2511.523
3963.887, 2512.820
3965.815, 2517.845
3967.744, 2524.621
3969.672, 2532.077
3971.601, 2536.933
3973.529, 2542.326
3975.458, 2550.364
3977.386, 2556.768
3979.315, 2561.085
3981.243, 2572.269
3983.172, 2586.060
3985.100, 2590.952
3987.029, 2595.882
3988.957, 2608.731
3990.885, 2623.293
3992.814, 2633.207
3994.742, 2634.308
3996.671, 2639.594
3998.599, 2656.013
4000.528, 2665.819
4002.456, 2666.468
4004.385, 2676.708
4006.313, 2687.501
4008.242, 2686.787
4010.170, 2694.193
4012.099, 2709.696
4014.027, 2715.480
4015.956, 2719.628
4017.884, 2726.660
4019.813, 2734.538
4021.741, 2743.038
4023.669, 2752.552
4025.598, 2761.566
4027.526, 2769.586
4029.455, 2778.230
4031.383, 2788.273
4033.312, 2800.278
4035.240, 2811.638
4037.169, 2817.537
4039.097, 2822.785
4041.026, 2827.919
4042.954, 2839.925
4044.883, 2854.124
4046.811, 2857.677
4048.740, 2863.793
4050.668, 2877.814
4052.596, 2885.773
4054.525, 2889.827
4056.453, 2900.419
4058.382, 2910.370
4060.310, 2915.629
4062.239, 2918.027
4064.167, 2920.722
4066.096, 2926.867
4068.024, 2933.460
4069.953, 2941.341
4071.881, 2955.975
4073.810, 2971.953
4075.738, 2972.237
4077.667, 2973.205
4079.595, 2982.530
4081.523, 2994.615
4083.452, 3006.965
4085.380, 3010.530
4087.309, 3013.667
4089.237, 3021.957
4091.166, 3028.185
4093.094, 3033.519
4095.023, 3049.155
4096.951, 3063.967
4098.880, 3065.543
4100.808, 3072.952
4102.737, 3086.693
4104.665, 3091.792
4106.594, 3095.717
4108.522, 3106.063
4110.451, 3118.776
4112.379, 3131.928
4114.308, 3136.017
4116.236, 3137.759
4118.165, 3144.701
4120.093, 3155.860
4122.021, 3168.354
4123.950, 3177.768
4125.878, 3183.732
4127.807, 3188.202
4129.735, 3196.042
4131.664, 3202.423
4133.592, 3216.318
4135.521, 3231.620
4137.449, 3240.782
4139.377, 3244.718
4141.306, 3243.064
4143.234, 3244.699
4145.163, 3247.739
4147.091, 3253.716
4149.020, 3261.862
4150.948, 3273.440
4152.877, 3282.036
4154.805, 3289.177
4156.734, 3296.531
4158.662, 3303.653
4160.591, 3314.209
4162.519, 3330.666
4164.448, 3342.926
4166.376, 3341.121
4168.305, 3345.865
4170.233, 3358.061
4172.162, 3365.263
4174.090, 3373.576
4176.019, 3390.891
4177.947, 3400.664
4179.875, 3401.876
4181.804, 3398.347
4183.732, 3399.189
4185.661, 3413.842
4187.589, 3426.278
4189.518, 3436.231
4191.446, 3437.952
4193.375, 3441.200
4195.303, 3452.855
4197.231, 3461.829
4199.160, 3469.083
4201.088, 3479.157
4203.017, 3488.606
4204.945, 3494.635
4206.874, 3503.416
4208.802, 3513.502
4210.731, 3522.125
4212.659, 3528.518
4214.588, 3531.185
4216.516, 3532.782
4218.445, 3535.134
4220.373, 3538.954
4222.302, 3547.736
4224.230, 3572.179
4226.159, 3583.231
4228.087, 3585.422
4230.016, 3592.073
4231.944, 3599.489
4233.873, 3604.680
4235.801, 3615.277
4237.729, 3627.051
4239.658, 3631.638
4241.586, 3636.836
4243.515, 3644.809
4245.443, 3651.648
4247.372, 3656.917
4249.300, 3659.173
4251.229, 3663.997
4253.157, 3671.675
4255.085, 3678.112
4257.014, 3686.958
4258.942, 3705.282
4260.871, 3713.498
4262.799, 3713.539
4264.728, 3715.910
4266.656, 3723.533
4268.585, 3740.621
4270.513, 3744.778
4272.442, 3745.067
4274.370, 3765.199
4276.299, 3784.886
4278.227, 3797.358
4280.156, 3797.987
4282.084, 3795.336
4284.013, 3801.719
4285.941, 3807.888
4287.870, 3812.642
4289.798, 3820.852
4291.727, 3826.953
4293.655, 3824.961
4295.583, 3821.578
4297.512, 3821.082
4299.440, 3840.297
4301.369, 3857.218
4303.297, 3857.830
4305.226, 3863.491
4307.154, 3873.480
4309.083, 3890.483
4311.011, 3895.431
4312.939, 3882.081
4314.868, 3887.130
4316.796, 3901.679
4318.725, 3920.131
4320.653, 3930.773
4322.582, 3934.601
4324.510, 3947.167
4326.439, 3959.042
4328.367, 3962.461
4330.296, 3968.906
4332.224, 3976.469
4334.153, 3979.053
4336.081, 3984.844
4338.010, 3997.225
4339.938, 3999.074
4341.867, 4003.930
4343.795, 4032.900
4345.724, 4047.435
4347.652, 4046.978
4349.581, 4056.202
4351.509, 4063.553
4353.438, 4061.775
4355.366, 4070.786
4357.294, 4084.061
4359.223, 4086.823
4361.151, 4092.892
4363.080, 4104.661
4365.008, 4103.411
4366.937, 4101.827
4368.865, 4109.995
4370.793, 4123.927
4372.722, 4140.010
4374.650, 4149.313
4376.579, 4152.788
4378.507, 4150.619
4380.436, 4160.811
4382.364, 4175.749
4384.293, 4189.455
4386.221, 4193.284
4388.150, 4188.292
4390.078, 4177.169
4392.007, 4177.292
4393.935, 4202.017
4395.864, 4212.244
4397.792, 4211.743
4399.721, 4203.701
4401.649, 4203.784
4403.578, 4214.415
4405.506, 4227.650
4407.435, 4241.017
4409.363, 4253.398
4411.292, 4259.283
4413.220, 4262.195
4415.148, 4269.497
4417.077, 4279.864
4419.005, 4292.935
4420.934, 4298.646
4422.862, 4298.955
4424.791, 4292.757
4426.719, 4301.662
4428.647, 4319.427
4430.576, 4332.906
4432.504, 4337.554
4434.433, 4333.812
4436.361, 4333.796
4438.290, 4336.132
4440.218, 4338.332
4442.147, 4351.923
4444.075, 4369.763
4446.004, 4372.953
4447.932, 4377.476
4449.861, 4387.053
4451.789, 4399.799
4453.718, 4410.172
4455.646, 4414.068
4457.575, 4414.345
4459.503, 4413.514
4461.432, 4413.556
4463.360, 4422.599
4465.289, 4441.143
4467.217, 4461.617
4469.146, 4472.988
4471.074, 4467.377
4473.002, 4476.227
4474.931, 4487.577
4476.859, 4472.951
4478.788, 4474.124
4480.716, 4493.854
4482.645, 4502.839
4484.573, 4509.279
4486.501, 4519.171
4488.430, 4518.201
4490.358, 4514.624
4492.287, 4519.069
4494.215, 4520.455
4496.144, 4520.735
4498.072, 4534.681
4500.001, 4549.294
4501.929, 4560.387
4503.858, 4561.072
4505.786, 4561.048
4507.715, 4567.143
4509.643, 4581.780
4511.572, 4597.093
4513.500, 4593.855
4515.429, 4594.544
4517.357, 4603.304
4519.286, 4610.949
4521.214, 4617.583
4523.143, 4623.149
4525.071, 4628.491
4527.000, 4633.479
4528.928, 4637.500
4530.856, 4643.179
4532.785, 4650.551
4534.713, 4660.248
4536.642, 4666.359
4538.570, 4667.250
4540.499, 4667.264
4542.427, 4668.961
4544.355, 4674.720
4546.284, 4680.231
4548.212, 4686.899
4550.141, 4698.127
4552.069, 4706.660
4553.998, 4712.318
4555.926, 4720.732
4557.855, 4724.766
4559.783, 4723.032
4561.712, 4727.309
4563.640, 4732.810
4565.569, 4733.529
4567.497, 4741.304
4569.426, 4753.505
4571.354, 4769.302
4573.283, 4772.005
4575.211, 4765.544
4577.140, 4776.948
4579.068, 4786.499
4580.997, 4788.373
4582.925, 4787.706
4584.854, 4788.349
4586.782, 4794.405
4588.710, 4796.989
4590.639, 4800.298
4592.567, 4813.200
4594.496, 4816.102
4596.424, 4811.818
4598.353, 4812.126
4600.281, 4821.721
4602.209, 4837.915
4604.138, 4842.126
4606.066, 4839.769
4607.995, 4832.735
4609.923, 4842.115
4611.852, 4852.656
4613.780, 4848.357
4615.709, 4844.338
4617.637, 4842.243
4619.566, 4840.545
4621.494, 4849.865
4623.423, 4865.470
4625.351, 4863.247
4627.280, 4867.933
4629.208, 4886.664
4631.137, 4888.219
4633.065, 4886.376
4634.994, 4888.726
4636.922, 4899.164
4638.851, 4907.252
4640.779, 4900.836
4642.708, 4904.996
4644.636, 4915.999
4646.564, 4923.903
4648.493, 4930.803
4650.421, 4936.530
4652.350, 4938.705
4654.278, 4939.619
4656.207, 4939.802
4658.135, 4940.020
4660.063, 4942.419
4661.992, 4948.103
4663.920, 4955.254
4665.849, 4960.339
4667.777, 4958.170
4669.706, 4966.898
4671.634, 4973.854
4673.563, 4957.017
4675.491, 4965.477
4677.420, 4987.470
4679.348, 4982.936
4681.277, 4982.232
4683.205, 4988.583
4685.134, 4988.218
4687.062, 4993.218
4688.991, 5006.112
4690.919, 5018.030
4692.848, 5021.429
4694.776, 5014.120
4696.705, 5010.118
4698.633, 5006.431
4700.562, 4996.837
4702.490, 5006.365
4704.418, 5020.384
4706.347, 5021.686
4708.275, 5030.361
4710.204, 5038.756
4712.132, 5027.250
4714.061, 5022.367
4715.989, 5025.017
4717.917, 5028.688
4719.846, 5034.032
4721.774, 5039.254
4723.703, 5027.823
4725.631, 5029.102
4727.560, 5047.623
4729.488, 5039.279
4731.417, 5037.338
4733.345, 5058.577
4735.274, 5055.438
4737.202, 5048.336
4739.131, 5049.123
4741.059, 5052.256
4742.988, 5055.639
4744.916, 5057.618
4746.845, 5054.861
4748.773, 5055.190
4750.702, 5070.594
4752.630, 5073.116
4754.559, 5068.991
4756.487, 5069.944
4758.416, 5078.178
4760.344, 5088.113
4762.272, 5085.180
4764.201, 5089.203
4766.129, 5097.533
4768.058, 5087.577
4769.986, 5088.307
4771.915, 5100.351
4773.843, 5090.098
4775.771, 5088.229
4777.700, 5100.770
4779.628, 5105.903
4781.557, 5109.956
4783.485, 5115.600
4785.414, 5130.323
4787.342, 5132.443
4789.271, 5111.528
4791.199, 5107.444
4793.128, 5111.146
4795.056, 5117.479
4796.985, 5121.072
4798.913, 5118.685
4800.842, 5106.845
4802.770, 5100.070
4804.699, 5103.770
4806.627, 5123.166
4808.556, 5124.677
4810.484, 5121.237
4812.413, 5128.049
4814.341, 5140.472
4816.270, 5145.731
4818.198, 5127.319
4820.126, 5126.934
4822.055, 5132.901
4823.983, 5121.216
4825.912, 5123.162
4827.840, 5130.633
4829.769, 5128.399
4831.697, 5127.076
4833.625, 5130.729
4835.554, 5147.651
4837.482, 5152.951
4839.411, 5150.914
4841.339, 5156.362
4843.268, 5150.838
4845.196, 5139.317
4847.125, 5133.001
4849.053, 5144.411
4850.982, 5158.882
4852.910, 5131.320
4854.839, 5129.967
4856.767, 5149.980
4858.696, 5159.976
4860.624, 5156.713
4862.553, 5148.214
4864.481, 5158.057
4866.410, 5164.180
4868.338, 5164.292
4870.267, 5161.282
4872.195, 5159.646
4874.124, 5158.028
4876.052, 5146.346
4877.980, 5147.061
4879.909, 5157.493
4881.837, 5162.896
4883.766, 5161.626
4885.694, 5157.547
4887.623, 5163.220
4889.551, 5164.193
4891.479, 5160.677
4893.408, 5159.887
4895.336, 5155.667
4897.265, 5149.479
4899.193, 5144.127
4901.122, 5153.318
4903.050, 5168.874
4904.979, 5170.398
4906.907, 5151.647
4908.836, 5129.200
4910.764, 5141.592
4912.693, 5143.259
4914.621, 5137.992
4916.550, 5144.689
4918.478, 5152.155
4920.407, 5156.273
4922.335, 5152.142
4924.264, 5148.162
4926.192, 5144.661
4928.121, 5141.928
4930.049, 5133.734
4931.978, 5128.259
4933.906, 5140.672
4935.834, 5145.559
4937.763, 5143.698
4939.691, 5135.495
4941.620, 5139.048
4943.548, 5144.716
4945.477, 5141.432
4947.405, 5138.630
4949.333, 5135.778
4951.262, 5132.388
4953.190, 5124.784
4955.119, 5121.007
4957.047, 5126.708
4958.976, 5119.725
4960.904, 5114.392
4962.833, 5120.545
4964.761, 5128.459
4966.690, 5128.167
4968.618, 5117.016
4970.547, 5117.818
4972.475, 5120.438
4974.404, 5121.066
4976.332, 5128.123
4978.261, 5126.328
4980.189, 5114.161
4982.118, 5105.379
4984.046, 5110.061
4985.975, 5121.514
4987.903, 5099.373
4989.832, 5100.707
4991.760, 5118.963
4993.688, 5107.950
4995.617, 5093.242
4997.545, 5085.100
4999.474, 5100.615
5001.402, 5091.154
5003.331, 5073.732
5005.259, 5076.276
5007.188, 5082.344
5009.116, 5089.164
5011.044, 5096.822
5012.973, 5092.539
5014.901, 5078.915
5016.830, 5054.916
5018.758, 5075.881
5020.687, 5089.453
5022.615, 5073.120
5024.544, 5079.536
5026.472, 5082.788
5028.401, 5074.725
5030.329, 5082.600
5032.258, 5084.269
5034.186, 5074.894
5036.115, 5051.046
5038.043, 5049.090
5039.972, 5061.042
5041.900, 5057.519
5043.829, 5049.290
5045.757, 5043.841
5047.686, 5050.888
5049.614, 5044.185
5051.542, 5032.313
5053.471, 5024.972
5055.399, 5025.742
5057.328, 5026.553
5059.256, 5022.841
5061.185, 5009.146
5063.113, 5004.777
5065.042, 5014.004
5066.970, 5016.870
5068.898, 5009.087
5070.827, 4996.454
5072.755, 5007.821
5074.684, 5008.311
5076.612, 4999.558
5078.541, 4996.786
5080.469, 4993.890
5082.398, 4989.405
5084.326, 4980.039
5086.255, 4986.298
5088.183, 4986.099
5090.112, 4965.462
5092.040, 4970.760
5093.969, 4977.053
5095.897, 4973.132
5097.826, 4968.926
5099.754, 4963.800
5101.683, 4959.180
5103.611, 4959.568
5105.540, 4966.779
5107.468, 4975.778
5109.396, 4980.105
5111.325, 4963.925
5113.253, 4952.411
5115.182, 4976.370
5117.110, 4960.726
5119.039, 4945.962
5120.967, 4952.275
5122.896, 4954.078
5124.824, 4946.563
5126.752, 4931.941
5128.681, 4921.012
5130.609, 4920.294
5132.538, 4927.539
5134.466, 4937.831
5136.395, 4939.485
5138.323, 4932.892
5140.252, 4918.357
5142.180, 4921.883
5144.109, 4925.771
5146.037, 4920.826
5147.966, 4920.446
5149.894, 4921.689
5151.823, 4922.029
5153.751, 4916.107
5155.680, 4909.977
5157.608, 4904.290
5159.537, 4898.256
5161.465, 4895.038
5163.394, 4891.524
5165.322, 4885.292
5167.250, 4882.392
5169.179, 4868.240
5171.107, 4844.099
5173.036, 4862.392
5174.964, 4866.383
5176.893, 4851.820
5178.821, 4833.749
5180.750, 4839.882
5182.678, 4851.223
5184.606, 4846.386
5186.535, 4831.516
5188.463, 4824.108
5190.392, 4831.213
5192.320, 4837.209
5194.249, 4838.724
5196.177, 4830.788
5198.106, 4798.143
5200.034, 4788.564
5201.963, 4795.279
5203.891, 4809.524
5205.820, 4797.597
5207.748, 4778.670
5209.677, 4763.619
5211.605, 4763.873
5213.534, 4759.430
5215.462, 4752.621
5217.391, 4762.216
5219.319, 4770.022
5221.248, 4769.414
5223.176, 4752.734
5225.104, 4751.274
5227.033, 4745.693
5228.961, 4731.103
5230.890, 4731.599
5232.818, 4730.565
5234.747, 4725.380
5236.675, 4714.783
5238.604, 4717.323
5240.532, 4722.836
5242.460, 4722.450
5244.389, 4711.612
5246.317, 4710.099
5248.246, 4714.837
5250.174, 4686.337
5252.103, 4672.158
5254.031, 4665.581
5255.960, 4643.102
5257.888, 4650.493
5259.817, 4657.860
5261.745, 4649.892
5263.674, 4634.850
5265.602, 4629.916
5267.531, 4634.773
5269.459, 4645.080
5271.388, 4635.096
5273.316, 4621.354
5275.245, 4618.553
5277.173, 4599.735
5279.102, 4593.788
5281.030, 4600.743
5282.958, 4591.551
5284.887, 4579.102
5286.815, 4567.834
5288.744, 4559.773
5290.672, 4563.849
5292.601, 4554.286
5294.529, 4529.821
5296.458, 4540.421
5298.386, 4537.523
5300.314, 4524.870
5302.243, 4517.860
5304.171, 4519.521
5306.100, 4518.320
5308.028, 4509.007
5309.957, 4497.144
5311.885, 4496.316
5313.814, 4495.488
5315.742, 4472.583
5317.671, 4458.665
5319.599, 4457.357
5321.528, 4466.333
5323.456, 4461.015
5325.385, 4452.688
5327.313, 4442.837
5329.242, 4427.596
5331.170, 4422.854
5333.099, 4419.392
5335.027, 4412.851
5336.956, 4422.010
5338.884, 4419.178
5340.813, 4405.565
5342.741, 4394.280
5344.669, 4377.667
5346.598, 4371.919
5348.526, 4382.706
5350.455, 4375.611
5352.383, 4376.525
5354.312, 4376.977
5356.240, 4353.678
5358.168, 4345.569
5360.097, 4335.707
5362.025, 4317.538
5363.954, 4328.861
5365.882, 4329.015
5367.811, 4315.229
5369.739, 4294.440
5371.668, 4299.809
5373.596, 4299.039
5375.525, 4280.925
5377.453, 4259.381
5379.382, 4258.503
5381.310, 4264.749
5383.239, 4259.834
5385.167, 4254.979
5387.096, 4250.525
5389.024, 4243.995
5390.953, 4227.268
5392.881, 4214.110
5394.810, 4213.342
5396.738, 4228.097
5398.667, 4216.484
5400.595, 4206.793
5402.523, 4198.548
5404.452, 4172.612
5406.380, 4167.530
5408.309, 4172.026
5410.237, 4174.161
5412.166, 4148.614
5414.094, 4141.695
5416.022, 4142.339
5417.951, 4128.287
5419.879, 4126.643
5421.808, 4123.307
5423.736, 4113.862
5425.665, 4101.500
5427.593, 4088.471
5429.522, 4082.448
5431.450, 4085.901
5433.379, 4079.812
5435.307, 4064.671
5437.236, 4050.320
5439.164, 4052.805
5441.093, 4039.220
5443.021, 4028.542
5444.950, 4027.895
5446.878, 4035.048
5448.807, 4027.351
5450.735, 4014.296
5452.664, 4005.354
5454.592, 3998.002
5456.521, 3989.174
5458.449, 3982.089
5460.377, 3984.491
5462.306, 3979.427
5464.234, 3965.925
5466.163, 3951.832
5468.091, 3965.766
5470.020, 3955.522
5471.948, 3935.753
5473.876, 3922.348
5475.805, 3921.555
5477.733, 3921.363
5479.662, 3915.720
5481.590, 3899.229
5483.519, 3899.316
5485.447, 3893.804
5487.376, 3879.866
5489.304, 3869.455
5491.233, 3866.211
5493.161, 3861.028
5495.090, 3850.595
5497.018, 3842.449
5498.947, 3837.422
5500.875, 3829.237
5502.804, 3813.560
5504.732, 3807.880
5506.661, 3805.973
5508.589, 3802.024
5510.518, 3788.875
5512.446, 3793.649
5514.375, 3787.755
5516.303, 3770.562
5518.231, 3762.788
5520.160, 3762.043
5522.088, 3752.403
5524.017, 3731.990
5525.945, 3727.945
5527.874, 3721.088
5529.802, 3709.969
5531.730, 3696.671
5533.659, 3701.642
5535.587, 3698.476
5537.516, 3691.536
5539.444, 3691.027
5541.373, 3689.841
5543.301, 3675.080
5545.230, 3656.836
5547.158, 3654.402
5549.087, 3644.638
5551.015, 3641.816
5552.944, 3640.869
5554.872, 3609.149
5556.801, 3607.145
5558.729, 3607.521
5560.658, 3597.347
5562.586, 3581.457
5564.515, 3585.804
5566.443, 3583.639
5568.372, 3563.499
5570.300, 3561.697
5572.229, 3553.142
5574.157, 3543.999
5576.085, 3541.253
5578.014, 3536.452
5579.942, 3538.902
5581.871, 3536.820
5583.799, 3516.753
5585.728, 3507.097
5587.656, 3492.833
5589.584, 3477.911
5591.513, 3471.011
5593.441, 3465.821
5595.370, 3461.583
5597.298, 3457.949
5599.227, 3454.409
5601.155, 3447.072
5603.084, 3439.116
5605.012, 3433.359
5606.941, 3436.607
5608.869, 3418.895
5610.798, 3396.636
5612.726, 3381.276
5614.655, 3383.240
5616.583, 3372.820
5618.512, 3368.965
5620.440, 3371.694
5622.369, 3363.879
5624.297, 3354.074
5626.226, 3345.677
5628.154, 3338.378
5630.083, 3328.162
5632.011, 3322.435
5633.939, 3321.212
5635.868, 3317.913
5637.796, 3290.810
5639.725, 3281.511
5641.653, 3276.554
5643.582, 3268.192
5645.510, 3255.785
5647.438, 3257.340
5649.367, 3256.264
5651.295, 3245.941
5653.224, 3229.932
5655.152, 3233.336
5657.081, 3229.081
5659.009, 3212.613
5660.938, 3206.991
5662.866, 3211.979
5664.795, 3201.106
5666.723, 3180.813
5668.652, 3199.707
5670.580, 3192.043
5672.509, 3178.087
5674.437, 3165.919
5676.366, 3150.550
5678.294, 3145.128
5680.223, 3132.946
5682.151, 3118.305
5684.080, 3120.453
5686.008, 3106.141
5687.937, 3095.191
5689.865, 3093.547
5691.793, 3100.351
5693.722, 3085.969
5695.650, 3076.884
5697.579, 3074.274
5699.507, 3066.881
5701.436, 3072.582
5703.364, 3058.581
5705.292, 3039.213
5707.221, 3038.957
5709.149, 3034.839
5711.078, 3018.542
5713.006, 3002.871
5714.935, 2998.555
5716.863, 2983.649
5718.792, 2990.074
5720.720, 2995.828
5722.649, 2983.089
5724.577, 2967.302
5726.506, 2959.167
5728.434, 2947.411
5730.363, 2931.358
5732.291, 2942.211
5734.220, 2927.189
5736.148, 2916.692
5738.077, 2918.801
5740.005, 2913.675
5741.934, 2906.195
5743.862, 2890.594
5745.791, 2875.010
5747.719, 2874.279
5749.647, 2870.900
5751.576, 2858.680
5753.504, 2849.245
5755.433, 2854.148
5757.361, 2832.933
5759.290, 2828.172
5761.218, 2827.183
5763.146, 2814.694
5765.075, 2808.946
5767.003, 2810.034
5768.932, 2804.811
5770.860, 2790.008
5772.789, 2777.530
5774.717, 2780.083
5776.646, 2773.814
5778.574, 2760.704
5780.503, 2762.005
5782.431, 2742.681
5784.360, 2732.872
5786.288, 2727.504
5788.217, 2713.121
5790.145, 2718.983
5792.074, 2714.969
5794.002, 2704.392
5795.931, 2695.634
5797.859, 2698.374
5799.788, 2684.062
5801.716, 2665.821
5803.645, 2655.118
5805.573, 2664.364
5807.501, 2649.554
5809.430, 2642.336
5811.358, 2640.098
5813.287, 2625.858
5815.215, 2617.370
5817.144, 2603.755
5819.072, 2596.955
5821.000, 2603.794
5822.929, 2609.092
5824.857, 2590.952
5826.786, 2577.763
5828.714, 2575.035
5830.643, 2566.209
5832.571, 2552.484
5834.500, 2539.347
5836.428, 2535.087
5838.357, 2542.962
5840.285, 2536.302
5842.214, 2531.747
5844.142, 2518.938
5846.071, 2500.166
5847.999, 2509.433
5849.928, 2506.731
5851.856, 2498.179
5853.785, 2487.124
5855.713, 2473.528
5857.642, 2473.326
5859.570, 2472.895
5861.499, 2466.766
5863.427, 2454.656
5865.355, 2440.308
5867.284, 2434.060
5869.212, 2432.731
5871.141, 2430.581
5873.069, 2422.695
5874.998, 2416.729
5876.926, 2410.017
5878.854, 2399.719
5880.783, 2388.813
5882.711, 2392.428
5884.640, 2390.188
5886.568, 2375.845
5888.497, 2362.415
5890.425, 2365.981
5892.354, 2355.925
5894.282, 2346.785
5896.211, 2339.266
5898.139, 2331.481
5900.068, 2320.813
5901.996, 2312.456
5903.925, 2316.236
5905.853, 2317.956
5907.782, 2299.502
5909.710, 2302.905
5911.639, 2301.086
5913.567, 2292.579
5915.496, 2281.710
5917.424, 2274.507
5919.353, 2260.747
5921.281, 2256.497
5923.209, 2252.395
5925.138, 2239.232
5927.066, 2233.148
5928.995, 2236.452
5930.923, 2230.398
5932.852, 2217.093
5934.780, 2209.452
5936.708, 2202.525
5938.637, 2201.363
5940.565, 2195.121
5942.494, 2186.007
5944.422, 2195.581
5946.351, 2175.096
5948.279, 2164.858
5950.208, 2158.323
5952.136, 2144.920
5954.065, 2154.756
5955.993, 2142.143
5957.922, 2137.075
5959.850, 2137.272
5961.779, 2124.171
5963.707, 2118.283
5965.636, 2108.221
5967.564, 2099.145
5969.493, 2094.796
5971.421, 2095.859
5973.350, 2090.962
5975.278, 2087.164
5977.207, 2077.428
5979.135, 2064.883
5981.063, 2083.104
5982.992, 2072.183
5984.920, 2056.503
5986.849, 2040.798
5988.777, 2026.477
5990.706, 2041.507
5992.634, 2024.195
5994.563, 2014.558
5996.491, 2010.207
5998.419, 1993.072
6000.348, 1985.714
6002.276, 1991.812
6004.205, 1986.399
6006.133, 1975.725
6008.062, 1979.358
6009.990, 1965.168
6011.919, 1961.044
6013.847, 1953.888
6015.776, 1944.891
6017.704, 1946.991
6019.633, 1934.154
6021.561, 1921.435
6023.490, 1914.483
6025.418, 1912.666
6027.347, 1911.966
6029.275, 1907.028
6031.204, 1898.640
6033.132, 1892.174
6035.061, 1888.327
6036.989, 1882.547
6038.917, 1870.124
6040.846, 1869.532
6042.774, 1871.309
6044.703, 1865.394
6046.631, 1849.645
6048.560, 1832.074
6050.488, 1839.545
6052.417, 1836.182
6054.345, 1818.964
6056.273, 1829.512
6058.202, 1820.753
6060.130, 1815.995
6062.059, 1811.451
6063.987, 1801.002
6065.916, 1784.651
6067.844, 1777.961
6069.773, 1774.700
6071.701, 1763.705
6073.630, 1753.234
6075.558, 1764.179
6077.487, 1759.365
6079.415, 1753.379
6081.344, 1747.703
6083.272, 1739.787
6085.201, 1727.461
6087.129, 1711.219
6089.058, 1714.172
6090.986, 1719.107
6092.915, 1716.339
6094.843, 1707.499
6096.771, 1701.638
6098.700, 1696.304
6100.628, 1684.145
6102.557, 1674.826
6104.485, 1677.117
6106.414, 1669.201
6108.342, 1662.709
6110.271, 1649.003
6112.199, 1645.976
6114.127, 1659.196
6116.056, 1640.610
6117.984, 1631.209
6119.913, 1620.803
6121.841, 1614.564
6123.770, 1615.588
6125.698, 1618.375
6127.627, 1604.838
6129.555, 1601.827
6131.484, 1605.143
6133.412, 1599.571
6135.341, 1573.664
6137.269, 1581.984
6139.198, 1582.001
6141.126, 1571.383
6143.055, 1563.999
6144.983, 1567.031
6146.912, 1552.117
6148.840, 1540.924
6150.769, 1534.302
6152.697, 1532.149
6154.625, 1531.506
6156.554, 1524.583
6158.482, 1520.060
6160.411, 1518.923
6162.339, 1514.330
6164.268, 1506.795
6166.196, 1501.183
6168.125, 1486.295
6170.053, 1482.002
6171.981, 1478.561
6173.910, 1477.508
6175.838, 1479.277
6177.767, 1467.822
6179.695, 1466.677
6181.624, 1462.898
6183.552, 1451.998
6185.481, 1443.132
6187.409, 1448.250
6189.338, 1441.662
6191.266, 1431.739
6193.195, 1427.453
6195.123, 1426.441
6197.052, 1424.122
6198.980, 1421.020
6200.909, 1418.641
6202.837, 1409.242
6204.766, 1402.721
6206.694, 1401.094
6208.623, 1398.272
6210.551, 1395.818
6212.479, 1387.547
6214.408, 1380.118
6216.336, 1378.001
6218.265, 1374.962
6220.193, 1356.551
6222.122, 1356.518
6224.050, 1354.687
6225.979, 1349.906
6227.907, 1345.507
6229.835, 1341.672
6231.764, 1331.584
6233.692, 1333.955
6235.621, 1327.889
6237.549, 1322.777
6239.478, 1321.405
6241.406, 1316.143
6243.335, 1314.928
6245.263, 1307.082
6247.192, 1298.018
6249.120, 1290.852
6251.049, 1289.029
6252.977, 1295.650
6254.906, 1287.248
6256.834, 1281.807
6258.763, 1276.189
6260.691, 1270.729
6262.620, 1265.788
6264.548, 1256.399
6266.477, 1250.176
6268.405, 1253.439
6270.333, 1249.635
6272.262, 1239.311
6274.190, 1232.266
6276.119, 1234.998
6278.047, 1232.484
6279.976, 1226.078
6281.904, 1219.680
6283.833, 1212.116
6285.761, 1203.068
6287.689, 1205.189
6289.618, 1195.045
6291.546, 1194.761
6293.475, 1193.924
6295.403, 1188.503
6297.332, 1183.559
6299.260, 1185.939
6301.189, 1169.563
6303.117, 1167.571
6305.046, 1166.992
6306.974, 1164.453
6308.903, 1162.989
6310.831, 1149.970
6312.760, 1149.254
6314.688, 1151.848
6316.617, 1148.355
6318.545, 1140.804
6320.474, 1136.559
6322.402, 1139.491
6324.331, 1125.211
6326.259, 1122.158
6328.188, 1121.788
6330.116, 1116.931
6332.044, 1111.436
6333.973, 1115.856
6335.901, 1104.234
6337.830, 1100.641
6339.758, 1093.240
6341.687, 1086.303
6343.615, 1084.138
6345.543, 1080.149
6347.472, 1075.053
6349.400, 1071.860
6351.329, 1071.113
6353.257, 1063.376
6355.186, 1057.962
6357.114, 1071.164
6359.043, 1054.786
6360.971, 1050.279
6362.900, 1048.856
6364.828, 1041.508
6366.757, 1033.867
6368.685, 1032.466
6370.614, 1029.618
6372.542, 1025.275
6374.471, 1026.276
6376.399, 1020.474
6378.328, 1013.669
6380.256, 1010.397
6382.185, 1006.043
6384.113, 1014.947
6386.042, 1013.045
6387.970, 1005.577
6389.898, 999.0405
6391.827, 995.5436
6393.755, 994.8580
6395.684, 996.6821
6397.612, 979.9872
6399.541, 974.0076
6401.469, 973.5206
6403.397, 969.9940
6405.326, 962.5297
6407.254, 955.3190
6409.183, 946.9846
6411.111, 950.4388
6413.040, 942.4000
6414.968, 942.9041
6416.897, 949.1981
6418.825, 946.0543
6420.754, 935.1910
6422.682, 932.6321
6424.611, 929.8007
6426.539, 929.1142
6428.468, 931.3846
6430.396, 929.4323
6432.325, 918.3467
6434.253, 910.9072
6436.182, 908.7823
6438.110, 910.1484
6440.039, 909.7069
6441.967, 903.4501
6443.896, 896.0886
6445.824, 895.6355
6447.752, 896.1764
6449.681, 886.2694
6451.609, 877.7484
6453.538, 877.9987
6455.466, 881.9103
6457.395, 882.7318
6459.323, 878.7354
6461.251, 870.5826
6463.180, 870.4979
6465.108, 866.1939
6467.037, 856.8245
6468.965, 853.4903
6470.894, 856.0751
6472.822, 852.4950
6474.751, 847.1005
6476.679, 840.9655
6478.608, 843.3199
6480.536, 838.1711
6482.465, 835.0576
6484.393, 836.0441
6486.322, 827.8665
6488.250, 819.0842
6490.179, 824.0156
6492.107, 820.4733
6494.036, 817.3113
6495.964, 813.2994
6497.893, 810.1940
6499.821, 810.5417
6501.750, 801.7307
6503.678, 797.0561
6505.606, 804.2557
6507.535, 793.9036
6509.463, 787.2070
6511.392, 790.0557
6513.320, 789.9481
6515.249, 785.4478
6517.177, 789.2215
6519.105, 770.7377
6521.034, 772.3650
6522.962, 768.2882
6524.891, 763.7294
6526.819, 768.7825
6528.748, 771.9100
6530.676, 770.2421
6532.605, 761.0313
6534.533, 753.2566
6536.462, 747.5844
6538.390, 749.6596
6540.319, 752.2836
6542.247, 747.4888
6544.176, 744.9547
6546.104, 742.2379
6548.033, 732.9836
6549.961, 729.8551
6551.890, 729.5552
6553.818, 730.9318
6555.747, 729.6794
6557.675, 721.8054
6559.604, 723.1070
6561.532, 714.2311
6563.460, 718.4658
6565.389, 715.5068
6567.317, 712.7474
6569.246, 712.5440
6571.174, 708.2151
6573.103, 700.1649
6575.031, 706.8585
6576.959, 698.5629
6578.888, 697.5042
6580.816, 690.6816
6582.745, 683.6557
6584.673, 681.6981
6586.602, 685.1888
6588.530, 691.9648
6590.459, 677.0157
6592.387, 674.2680
6594.316, 673.4143
6596.244, 667.2284
6598.173, 665.5128
6600.101, 650.5634
6602.030, 652.8469
6603.958, 653.3305
6605.887, 652.1096
6607.815, 644.0840
6609.744, 644.8456
6611.672, 642.0866
6613.601, 639.1818
6615.529, 641.1818
6617.458, 634.1448
6619.386, 636.0666
6621.314, 634.4130
6623.243, 634.3947
6625.171, 630.8338
6627.100, 634.4468
6629.028, 634.8783
6630.957, 632.7218
##END=



