##NAMES=Natrosilite
##RRUFFID=R060855
##IDEAL CHEMISTRY=Na_2_Si_2_O_5_
##LOCALITY=Kedgkverpahk Mountain, Kovoeko Massif, Kola, Russia
##OWNER=RRUFF
##SOURCE=Michael Scott
##DESCRIPTION=Colorless platy fragment
##STATUS=The identification of this mineral has been confirmed by single-crystal X-ray diffraction
##URL=https://www.rruff.net/odr/rruff_sample/R060855
##DIFFRACTION SAMPLE DESCRIPTION=Single crystal, powder profile is calculated
##CELL PARAMETERS=a: 12.336 b: 4.849 c: 8.118 alpha: 90 beta: 104.4 gamma: 90 volume: 470.3 crystal system: monoclinic
##FILETYPE=Raman RAW
##RAMAN WAVELENGTH=532

111.1184, 87.14331
113.0469, 124.3177
114.9753, 170.8450
116.9038, 233.9735
118.8323, 264.1256
120.7607, 310.9234
122.6892, 500.3975
124.6177, 995.8494
126.5461, 1485.262
128.4746, 1864.826
130.4031, 2181.976
132.3315, 2265.793
134.2600, 2011.917
136.1885, 1421.026
138.1169, 961.2260
140.0454, 679.0469
141.9739, 510.6537
143.9023, 392.8839
145.8308, 365.3470
147.7593, 354.6213
149.6877, 347.7999
151.6162, 344.5796
153.5447, 349.0714
155.4731, 346.2990
157.4016, 350.4951
159.3301, 403.7360
161.2585, 530.9023
163.1870, 683.5630
165.1155, 860.2385
167.0439, 1085.470
168.9724, 1242.294
170.9009, 1274.478
172.8293, 1186.545
174.7578, 1152.656
176.6863, 1176.439
178.6147, 1251.830
180.5432, 1356.766
182.4717, 1458.085
184.4001, 1649.848
186.3286, 2017.493
188.2571, 2617.709
190.1855, 3041.218
192.1140, 3247.446
194.0425, 3262.001
195.9709, 3115.972
197.8994, 2608.674
199.8279, 2103.413
201.7563, 1702.190
203.6848, 1400.835
205.6133, 1184.554
207.5417, 1086.060
209.4702, 1075.346
211.3987, 1076.928
213.3272, 1090.043
215.2556, 1114.149
217.1841, 1153.017
219.1126, 1210.849
221.0410, 1264.482
222.9695, 1292.365
224.8980, 1298.691
226.8264, 1354.451
228.7549, 1465.148
230.6834, 1620.026
232.6118, 1821.292
234.5403, 2137.086
236.4688, 2372.353
238.3972, 2490.690
240.3257, 2475.211
242.2542, 2374.170
244.1826, 2104.197
246.1111, 1780.974
248.0396, 1510.414
249.9680, 1298.664
251.8965, 1141.049
253.8250, 1056.837
255.7534, 1049.394
257.6819, 1043.664
259.6104, 1047.629
261.5388, 1044.759
263.4673, 1012.032
265.3958, 916.6479
267.3242, 821.7376
269.2527, 741.5069
271.1812, 674.8510
273.1096, 622.0931
275.0381, 589.9449
276.9666, 570.7001
278.8950, 554.0269
280.8235, 541.7256
282.7520, 530.0320
284.6804, 516.7543
286.6089, 501.4370
288.5374, 489.5380
290.4658, 479.3904
292.3943, 472.9851
294.3228, 476.4606
296.2512, 496.4405
298.1797, 518.1159
300.1082, 536.2811
302.0366, 550.7752
303.9651, 563.3148
305.8936, 566.2115
307.8220, 567.9446
309.7505, 585.0496
311.6790, 595.4154
313.6074, 646.3995
315.5359, 761.1013
317.4644, 958.4298
319.3928, 1155.952
321.3213, 1398.272
323.2498, 1627.166
325.1782, 1733.195
327.1067, 1667.366
329.0352, 1547.095
330.9636, 1418.321
332.8921, 1269.889
334.8206, 1145.041
336.7491, 1060.700
338.6775, 996.7186
340.6060, 917.7583
342.5345, 811.9045
344.4629, 708.4197
346.3914, 615.4219
348.3199, 531.5002
350.2483, 466.0161
352.1768, 424.2870
354.1053, 399.8434
356.0337, 381.5924
357.9622, 371.0544
359.8907, 365.2732
361.8191, 363.4901
363.7476, 366.7159
365.6761, 370.8884
367.6045, 374.7383
369.5330, 380.4460
371.4615, 388.9827
373.3899, 398.9512
375.3184, 415.0871
377.2469, 434.5430
379.1753, 457.6578
381.1038, 499.5219
383.0323, 568.6365
384.9607, 652.0466
386.8892, 740.2803
388.8177, 839.9663
390.7461, 931.4726
392.6746, 1015.354
394.6031, 1089.042
396.5315, 1144.237
398.4600, 1199.452
400.3885, 1217.910
402.3169, 1183.500
404.2454, 1075.441
406.1739, 956.9586
408.1023, 820.0311
410.0308, 678.4151
411.9593, 567.4316
413.8877, 494.0118
415.8162, 442.4702
417.7447, 405.0772
419.6731, 384.7820
421.6016, 370.5256
423.5301, 364.4785
425.4585, 362.7481
427.3870, 359.1873
429.3155, 351.7940
431.2439, 346.3011
433.1724, 344.8488
435.1009, 347.8958
437.0293, 351.1719
438.9578, 354.9808
440.8863, 358.7553
442.8147, 361.2874
444.7432, 361.1557
446.6717, 364.3984
448.6001, 371.9628
450.5286, 383.7227
452.4571, 401.0174
454.3855, 421.4057
456.3140, 448.5953
458.2425, 485.7062
460.1709, 531.9417
462.0994, 585.1993
464.0279, 641.5577
465.9563, 705.5579
467.8848, 785.8560
469.8133, 834.1814
471.7417, 947.0748
473.6702, 1091.006
475.5987, 1290.186
477.5271, 1728.435
479.4556, 2545.727
481.3841, 3558.304
483.3125, 4698.274
485.2410, 6595.384
487.1695, 7733.391
489.0979, 7742.425
491.0264, 6926.195
492.9549, 5915.397
494.8833, 4465.501
496.8118, 3157.036
498.7403, 2204.562
500.6687, 1689.837
502.5972, 1308.157
504.5257, 1109.650
506.4541, 1020.846
508.3826, 967.8339
510.3111, 952.8106
512.2395, 971.1559
514.1680, 1012.864
516.0964, 1081.167
518.0249, 1193.955
519.9534, 1298.127
521.8818, 1486.388
523.8103, 1760.587
525.7388, 2099.488
527.6672, 2681.990
529.5957, 3358.889
531.5242, 4356.252
533.4526, 6025.799
535.3811, 8882.831
537.3096, 11607.92
539.2380, 14517.66
541.1665, 17165.64
543.0950, 18255.39
545.0234, 16584.53
546.9519, 14177.56
548.8804, 11592.64
550.8088, 8639.238
552.7373, 6250.174
554.6658, 4623.470
556.5942, 3522.317
558.5227, 2681.404
560.4512, 2173.418
562.3796, 1797.927
564.3081, 1529.105
566.2366, 1353.184
568.1650, 1206.019
570.0935, 1089.196
572.0220, 994.1656
573.9504, 922.7944
575.8789, 873.2469
577.8074, 829.2192
579.7358, 786.4405
581.6644, 749.4038
583.5928, 721.6439
585.5213, 700.5345
587.4498, 694.1840
589.3782, 696.4095
591.3067, 717.2491
593.2352, 767.9081
595.1636, 834.1494
597.0921, 957.5582
599.0206, 1185.313
600.9490, 1520.310
602.8775, 1766.965
604.8060, 1964.598
606.7344, 2044.380
608.6629, 1937.661
610.5914, 1626.168
612.5198, 1333.085
614.4483, 1082.661
616.3768, 875.3912
618.3052, 719.5394
620.2337, 633.7261
622.1622, 567.4013
624.0906, 521.2148
626.0191, 489.6484
627.9476, 460.9864
629.8760, 434.3636
631.8045, 411.5539
633.7330, 393.2931
635.6614, 380.0306
637.5899, 369.5258
639.5184, 364.1960
641.4468, 359.6912
643.3753, 353.2418
645.3038, 344.6369
647.2322, 335.8313
649.1607, 324.8220
651.0892, 314.5585
653.0176, 308.6533
654.9461, 312.1452
656.8746, 313.2930
658.8030, 309.0724
660.7315, 302.0695
662.6600, 297.4548
664.5884, 297.2732
666.5169, 296.9474
668.4454, 294.5462
670.3738, 290.0464
672.3023, 287.2086
674.2308, 285.1404
676.1592, 285.0420
678.0877, 289.5067
680.0162, 298.2813
681.9446, 303.0586
683.8731, 297.1905
685.8016, 289.9018
687.7300, 287.8320
689.6585, 295.9794
691.5870, 301.9890
693.5154, 302.6385
695.4439, 302.2138
697.3724, 307.0367
699.3008, 319.0434
701.2293, 330.7880
703.1578, 341.9394
705.0862, 351.3933
707.0147, 355.0237
708.9432, 347.0441
710.8716, 339.4040
712.8001, 334.2937
714.7286, 331.9753
716.6570, 332.3181
718.5855, 336.2707
720.5140, 342.0604
722.4424, 348.9949
724.3709, 357.2506
726.2994, 365.3310
728.2278, 367.8488
730.1563, 373.9306
732.0848, 388.4816
734.0132, 410.5111
735.9417, 445.2678
737.8702, 485.5310
739.7986, 545.2697
741.7271, 628.9227
743.6556, 721.9995
745.5840, 880.9686
747.5125, 1154.183
749.4410, 1478.840
751.3694, 1773.447
753.2979, 2107.252
755.2264, 2290.908
757.1548, 2208.649
759.0833, 1954.786
761.0118, 1681.969
762.9402, 1352.977
764.8687, 1074.046
766.7972, 880.1366
768.7256, 761.7461
770.6541, 665.1354
772.5826, 598.6473
774.5110, 542.0195
776.4395, 490.4297
778.3680, 444.0490
780.2964, 404.9681
782.2249, 374.6674
784.1534, 351.0624
786.0818, 333.6622
788.0103, 323.0270
789.9388, 315.4338
791.8672, 313.6895
793.7957, 312.2388
795.7242, 306.5336
797.6526, 296.9922
799.5811, 291.9456
801.5096, 296.3266
803.4380, 302.5058
805.3665, 305.9420
807.2950, 305.7335
809.2234, 305.2707
811.1519, 303.6330
813.0804, 302.3501
815.0089, 303.6741
816.9373, 308.3505
818.8658, 309.5474
820.7943, 300.9662
822.7227, 291.9179
824.6512, 291.1199
826.5797, 303.0574
828.5081, 310.1866
830.4366, 307.6157
832.3651, 301.4903
834.2935, 298.3095
836.2220, 298.4294
838.1505, 300.1429
840.0789, 306.8472
842.0074, 313.0379
843.9359, 312.3100
845.8643, 301.5733
847.7928, 293.5159
849.7213, 292.0151
851.6497, 293.9985
853.5782, 295.6556
855.5067, 297.2129
857.4351, 298.1400
859.3636, 297.7267
861.2921, 296.8884
863.2205, 296.8499
865.1490, 297.7355
867.0775, 298.8126
869.0059, 300.2343
870.9344, 301.5641
872.8629, 302.1670
874.7913, 301.2575
876.7198, 300.7947
878.6483, 301.0698
880.5767, 301.9216
882.5052, 303.1036
884.4337, 304.6581
886.3621, 306.4493
888.2906, 308.6389
890.2191, 310.9788
892.1475, 312.9940
894.0760, 313.9202
896.0045, 316.1235
897.9329, 321.2557
899.8614, 327.3575
901.7899, 331.0363
903.7183, 329.9219
905.6468, 331.3435
907.5753, 339.8194
909.5037, 349.7876
911.4322, 354.2790
913.3607, 351.4292
915.2891, 349.5083
917.2176, 352.0180
919.1461, 355.7385
921.0745, 357.1190
923.0030, 354.0573
924.9315, 351.7718
926.8599, 348.7591
928.7884, 347.4560
930.7169, 352.0531
932.6453, 363.8590
934.5738, 372.4370
936.5023, 372.2297
938.4307, 370.0230
940.3592, 371.8204
942.2877, 379.1346
944.2161, 385.0133
946.1446, 382.1687
948.0731, 382.3889
950.0015, 392.9190
951.9300, 412.6578
953.8585, 450.4598
955.7869, 485.7006
957.7154, 556.7371
959.6439, 681.7690
961.5723, 858.0615
963.5008, 1104.801
965.4293, 1565.836
967.3577, 1957.825
969.2862, 2140.966
971.2147, 2098.298
973.1431, 1965.810
975.0716, 1655.133
977.0001, 1353.930
978.9285, 1147.003
980.8570, 1025.996
982.7855, 910.1435
984.7139, 794.9251
986.6424, 689.0330
988.5709, 591.5316
990.4993, 505.0398
992.4278, 443.8570
994.3563, 421.6464
996.2847, 407.8649
998.2132, 396.1387
1000.142, 387.1665
1002.070, 383.1172
1003.999, 384.6863
1005.927, 389.5864
1007.856, 398.7194
1009.784, 410.5817
1011.712, 422.0092
1013.641, 431.5066
1015.569, 446.0118
1017.498, 462.9181
1019.426, 488.6513
1021.355, 526.3107
1023.283, 566.1702
1025.212, 647.0878
1027.140, 781.0626
1029.069, 943.9603
1030.997, 1152.303
1032.926, 1424.688
1034.854, 1562.970
1036.782, 1486.238
1038.711, 1343.834
1040.639, 1174.200
1042.568, 992.6394
1044.496, 880.5469
1046.425, 830.5502
1048.353, 880.1140
1050.282, 992.0516
1052.210, 1197.192
1054.139, 1632.903
1056.067, 1960.515
1057.996, 2953.049
1059.924, 5184.258
1061.853, 8028.098
1063.781, 10666.71
1065.709, 13541.25
1067.638, 14773.58
1069.566, 12832.67
1071.495, 9708.313
1073.423, 6967.588
1075.352, 4592.322
1077.280, 2816.537
1079.209, 1967.620
1081.137, 1487.271
1083.066, 1168.294
1084.994, 1023.283
1086.923, 890.2513
1088.851, 758.2327
1090.780, 648.3842
1092.708, 573.5865
1094.637, 528.3732
1096.565, 490.1864
1098.494, 459.6460
1100.422, 434.8886
1102.350, 418.8821
1104.279, 407.0393
1106.207, 393.0615
1108.136, 375.6178
1110.064, 360.4337
1111.993, 348.2553
1113.921, 338.5425
1115.850, 330.9597
1117.778, 325.5775
1119.707, 322.2351
1121.635, 325.4851
1123.564, 326.0906
1125.492, 316.0920
1127.421, 299.0688
1129.349, 291.5237
1131.277, 299.2854
1133.206, 305.3534
1135.134, 301.0671
1137.063, 292.1679
1138.991, 286.9827
1140.920, 286.7335
1142.848, 286.5318
1144.777, 283.8387
1146.705, 282.1433
1148.634, 284.8612
1150.562, 293.5364
1152.491, 299.2408
1154.419, 300.0569
1156.348, 300.1893
1158.276, 302.3513
1160.204, 305.3443
1162.133, 304.2928
1164.061, 296.7192
1165.990, 290.7300
1167.918, 290.2316
1169.847, 292.1649
1171.775, 293.0372
1173.704, 292.6614
1175.632, 292.1719
1177.561, 291.7610
1179.489, 291.2841
1181.418, 290.3036
1183.346, 288.7247
1185.275, 288.6124
1187.203, 291.4831
1189.131, 293.8734
1191.060, 294.7262
1192.988, 294.5347
1194.917, 294.5096
1196.845, 295.1688
1198.774, 294.5477
1200.702, 289.4202
1202.631, 285.1583
1204.559, 286.5763
1206.488, 293.2465
1208.416, 299.0035
1210.345, 303.3743
1212.273, 306.0444
1214.202, 306.8349
1216.130, 305.8904
1218.058, 303.6366
1219.987, 298.8381
1221.915, 294.9785
1223.844, 292.8210
1225.772, 291.5542
1227.701, 290.2066
1229.629, 288.5213
1231.558, 288.8379
1233.486, 293.5794
1235.415, 297.6464
1237.343, 297.8423
1239.272, 295.9859
1241.200, 296.8470
1243.129, 301.6945
1245.057, 305.1058
1246.985, 304.4821
1248.914, 302.5175
1250.842, 301.1582
1252.771, 300.3873
1254.699, 300.2055
1256.628, 301.0880
1258.556, 301.9836
1260.485, 302.6564
1262.413, 303.1419
1264.342, 303.4948
1266.270, 304.1186
1268.199, 304.1678
1270.127, 303.6514
1272.056, 302.5610
1273.984, 300.7650
1275.912, 298.1993
1277.841, 295.1782
1279.769, 289.8255
1281.698, 286.7992
1283.626, 290.8055
1285.555, 296.8238
1287.483, 297.0364
1289.412, 290.3929
1291.340, 285.6621
1293.269, 285.9157
1295.197, 287.0938
1297.126, 286.6852
1299.054, 285.0274
1300.983, 284.8582
1302.911, 287.4357
1304.839, 289.3058
1306.768, 289.1724
1308.696, 288.5204
1310.625, 288.8838
1312.553, 290.5401
1314.482, 292.1252
1316.410, 294.6250
1318.339, 295.8960
1320.267, 293.6168
1322.196, 289.7860
1324.124, 289.3095
1326.053, 293.0060
1327.981, 296.2230
1329.910, 298.4949
1331.838, 299.8491
1333.766, 299.8204
1335.695, 298.8869
1337.623, 298.8318
1339.552, 300.7985
1341.480, 300.9543
1343.409, 295.6954
1345.337, 289.7059
1347.266, 287.0943
1349.194, 287.9286
1351.123, 289.9340
1353.051, 295.4340
1354.980, 298.5110
1356.908, 294.9191
1358.837, 288.8364
1360.765, 287.4166
1362.693, 293.6238
1364.622, 297.9485
1366.550, 300.2730
1368.479, 301.1069
1370.407, 298.8628
1372.336, 295.2138
1374.264, 296.4265
1376.193, 305.5600
1378.121, 311.9200
1380.050, 313.4347
1381.978, 312.2702
1383.907, 307.6218
1385.835, 300.9549
1387.764, 299.8865
1389.692, 307.5783
1391.620, 313.2266
1393.549, 311.9758
1395.477, 308.6483
1397.406, 307.3456
1399.334, 307.8320
1401.263, 307.2447
1403.191, 303.9786
1405.120, 302.5010
1407.048, 306.4484
1408.977, 311.5998
1410.905, 312.5948
1412.834, 308.6482
1414.762, 308.2875
1416.691, 317.4003
1418.619, 323.1319
1420.547, 318.5089
1422.476, 309.8653
1424.404, 307.0128
1426.333, 312.6050
1428.261, 316.3081
1430.190, 317.1087
1432.118, 317.3023
1434.047, 317.6228
1435.975, 317.8137
1437.904, 317.1337
1439.832, 314.5204
1441.761, 314.1656
1443.689, 319.6449
1445.618, 323.5999
1447.546, 321.2429
1449.474, 315.6488
1451.403, 313.5720
1453.331, 315.7103
1455.260, 317.2248
1457.188, 317.1566
1459.117, 316.6245
1461.045, 315.5225
1462.974, 314.4568
1464.902, 314.7543
1466.831, 316.5800
1468.759, 318.3626
1470.688, 319.8890
1472.616, 321.1502
1474.545, 323.2664
1476.473, 324.8578
1478.401, 321.9145
1480.330, 313.0603
1482.258, 308.3154
1484.187, 312.7349
1486.115, 317.5574
1488.044, 318.7925
1489.972, 317.5375
1491.901, 316.1317
1493.829, 314.3922
1495.758, 313.0411
1497.686, 310.8785
1499.615, 310.5680
1501.543, 315.1465
1503.472, 321.6806
1505.400, 323.9217
1507.328, 319.8391
1509.257, 317.7570
1511.185, 317.4417
1513.114, 319.8016
1515.042, 327.5322
1516.971, 337.1480
1518.899, 342.8977
1520.828, 343.7244
1522.756, 343.8398
1524.685, 341.9120
1526.613, 340.8658
1528.542, 343.2294
1530.470, 346.0315
1532.399, 344.2354
1534.327, 336.6118
1536.255, 334.6593
1538.184, 343.0040
1540.112, 350.6832
1542.041, 357.2086
1543.969, 360.6223
1545.898, 356.2677
1547.826, 344.5725
1549.755, 340.8400
1551.683, 349.7292
1553.612, 357.4237
1555.540, 362.9902
1557.469, 364.4946
1559.397, 357.5844
1561.326, 344.7812
1563.254, 337.8374
1565.182, 338.6412
1567.111, 338.9716
1569.039, 336.9449
1570.968, 334.1589
1572.896, 330.4836
1574.825, 326.9867
1576.753, 326.3989
1578.682, 329.2240
1580.610, 330.9002
1582.539, 331.1082
1584.467, 329.5301
1586.396, 323.7672
1588.324, 317.3968
1590.253, 315.1621
1592.181, 316.8771
1594.109, 318.9453
1596.038, 321.5714
1597.966, 323.1508
1599.895, 323.2227
1601.823, 321.8878
1603.752, 318.0128
1605.680, 312.7252
1607.609, 311.2195
1609.537, 315.0231
1611.466, 317.5944
1613.394, 316.2147
1615.323, 314.5066
1617.251, 314.0634
1619.180, 314.8958
1621.108, 318.0470
1623.036, 323.9045
1624.965, 325.9085
1626.893, 320.2043
1628.822, 315.6584
1630.750, 318.4278
1632.679, 322.5012
1634.607, 320.6313
1636.536, 313.9435
1638.464, 311.9218
1640.393, 317.2651
1642.321, 320.8279
1644.250, 318.0469
1646.178, 315.0942
1648.107, 316.8527
1650.035, 320.8069
1651.964, 319.8207
1653.892, 312.7754
1655.820, 310.6721
1657.749, 319.2706
1659.677, 325.7479
1661.606, 323.0607
1663.534, 317.2335
1665.463, 313.5185
1667.391, 311.8462
1669.320, 311.5822
1671.248, 312.7096
1673.177, 315.3224
1675.105, 321.6805
1677.034, 326.7012
1678.962, 326.1374
1680.891, 322.8934
1682.819, 323.1476
1684.747, 327.0938
1686.676, 328.1494
1688.604, 323.6166
1690.533, 320.4521
1692.461, 322.8183
1694.390, 325.9094
1696.318, 325.7417
1698.247, 323.3294
1700.175, 321.9647
1702.104, 321.7391
1704.032, 322.6109
1705.961, 325.9884
1707.889, 328.1171
1709.818, 325.5252
1711.746, 322.1200
1713.674, 322.3206
1715.603, 325.5515
1717.531, 328.1800
1719.460, 329.7349
1721.388, 331.8164
1723.317, 336.3895
1725.245, 339.4008
1727.174, 336.5028
1729.102, 331.8504
1731.031, 331.7774
1732.959, 335.8818
1734.888, 338.1884
1736.816, 337.4932
1738.745, 337.2365
1740.673, 339.9590
1742.601, 341.6220
1744.530, 338.5179
1746.458, 333.0361
1748.387, 328.4580
1750.315, 324.8292
1752.244, 325.3683
1754.172, 332.6485
1756.101, 338.5852
1758.029, 340.3399
1759.958, 340.2948
1761.886, 340.1753
1763.815, 339.3873
1765.743, 335.7466
1767.672, 328.9778
1769.600, 326.1128
1771.528, 330.1824
1773.457, 333.5041
1775.385, 332.6271
1777.314, 331.5792
1779.242, 334.1262
1781.171, 338.3218
1783.099, 339.0131
1785.028, 335.3590
1786.956, 334.1142
1788.885, 337.2890
1790.813, 340.0834
1792.742, 342.4637
1794.670, 343.3219
1796.599, 341.2139
1798.527, 337.3383
1800.455, 333.9583
1802.384, 330.8759
1804.312, 329.7144
1806.241, 329.9567
1808.169, 332.8216
1810.098, 342.2442
1812.026, 350.2061
1813.955, 350.9749
1815.883, 347.7009
1817.812, 345.5791
1819.740, 344.6328
1821.669, 344.4616
1823.597, 345.6036
1825.526, 346.3443
1827.454, 344.7509
1829.382, 344.6658
1831.311, 349.6201
1833.239, 355.7996
1835.168, 358.1427
1837.096, 356.9198
1839.025, 355.7424
1840.953, 354.5434
1842.882, 354.0154
1844.810, 354.8298
1846.739, 355.4017
1848.667, 354.6420
1850.596, 353.6904
1852.524, 354.2618
1854.453, 355.3229
1856.381, 353.2637
1858.309, 347.7907
1860.238, 344.0879
1862.166, 343.4655
1864.095, 343.2457
1866.023, 341.9628
1867.952, 341.4369
1869.880, 343.6944
1871.809, 347.0665
1873.737, 348.6645
1875.666, 348.5315
1877.594, 347.7566
1879.523, 344.8341
1881.451, 345.6084
1883.380, 356.2373
1885.308, 364.2509
1887.236, 362.1455
1889.165, 356.9983
1891.093, 356.2063
1893.022, 358.7589
1894.950, 360.6111
1896.879, 362.4559
1898.807, 361.2873
1900.736, 352.2159
1902.664, 347.4648
1904.593, 352.4413
1906.521, 358.4568
1908.450, 361.2294
1910.378, 361.5877
1912.307, 360.1912
1914.235, 357.1341
1916.163, 354.9632
1918.092, 353.5468
1920.020, 353.6714
1921.949, 356.8827
1923.877, 358.9008
1925.806, 357.9272
1927.734, 355.3784
1929.663, 350.4337
1931.591, 345.4657
1933.520, 345.8863
1935.448, 351.0951
1937.377, 353.6158
1939.305, 352.4335
1941.234, 350.8360
1943.162, 348.8010
1945.090, 347.5442
1947.019, 346.3206
1948.947, 347.1674
1950.876, 354.3226
1952.804, 364.2319
1954.733, 367.2776
1956.661, 362.4190
1958.590, 361.2147
1960.518, 367.7037
1962.447, 371.3159
1964.375, 370.7947
1966.304, 368.5011
1968.232, 362.1378
1970.161, 357.1987
1972.089, 360.5086
1974.017, 368.1395
1975.946, 370.0146
1977.874, 366.1708
1979.803, 363.1022
1981.731, 360.7122
1983.660, 361.3435
1985.588, 368.8666
1987.517, 373.0467
1989.445, 364.7121
1991.374, 356.3674
1993.302, 360.1378
1995.231, 369.1544
1997.159, 370.3632
1999.088, 364.7361
2001.016, 362.9367
2002.944, 366.6615
2004.873, 369.2197
2006.801, 369.0537
2008.730, 369.0000
2010.658, 368.6717
2012.587, 369.8603
2014.515, 376.0497
2016.444, 382.8293
2018.372, 383.5706
2020.301, 379.1219
2022.229, 374.3625
2024.158, 368.4787
2026.086, 368.0868
2028.015, 376.1666
2029.943, 382.6455
2031.871, 385.1316
2033.800, 385.5964
2035.728, 382.7555
2037.657, 380.4794
2039.585, 383.8763
2041.514, 389.6588
2043.442, 391.1234
2045.371, 388.4724
2047.299, 384.3717
2049.228, 376.8987
2051.156, 374.3853
2053.084, 381.7926
2055.013, 387.9300
2056.941, 391.5916
2058.870, 391.8265
2060.798, 384.8465
2062.727, 376.7047
2064.656, 374.7036
2066.584, 377.5032
2068.512, 380.9706
2070.441, 385.1098
2072.369, 387.5403
2074.298, 388.0189
2076.226, 387.4808
2078.155, 386.4168
2080.083, 383.8448
2082.012, 376.3784
2083.940, 370.8091
2085.869, 372.1838
2087.797, 377.1495
2089.726, 382.3523
2091.654, 387.5454
2093.583, 391.8943
2095.511, 395.3189
2097.439, 398.3332
2099.368, 401.8141
2101.296, 403.0375
2103.225, 399.4470
2105.153, 397.4234
2107.082, 400.6363
2109.010, 403.3210
2110.939, 401.4959
2112.867, 398.5281
2114.796, 397.7776
2116.724, 398.6224
2118.653, 400.1619
2120.581, 402.1935
2122.510, 402.3107
2124.438, 399.5859
2126.366, 398.6159
2128.295, 402.0182
2130.223, 403.8576
2132.152, 402.1314
2134.080, 399.7584
2136.009, 397.6961
2137.937, 395.7562
2139.866, 393.3154
2141.794, 391.1807
2143.723, 390.9342
2145.651, 392.3667
2147.580, 393.9850
2149.508, 395.8211
2151.437, 400.3406
2153.365, 409.7679
2155.293, 412.8718
2157.222, 402.4189
2159.150, 394.0741
2161.079, 392.7743
2163.007, 394.9752
2164.936, 401.4931
2166.864, 408.0233
2168.793, 408.9216
2170.721, 407.0819
2172.650, 410.0855
2174.578, 417.1745
2176.507, 416.8457
2178.435, 408.4493
2180.364, 401.9318
2182.292, 398.3021
2184.220, 395.7089
2186.149, 393.1194
2188.077, 392.9432
2190.006, 397.9272
2191.934, 403.3050
2193.863, 407.1315
2195.791, 409.5687
2197.720, 410.4412
2199.648, 410.1985
2201.577, 409.5574
2203.505, 408.4992
2205.434, 407.1205
2207.362, 405.3689
2209.291, 403.7295
2211.219, 402.3053
2213.147, 400.6014
2215.076, 398.2340
2217.004, 396.5587
2218.933, 395.7970
2220.861, 396.1934
2222.790, 398.9018
2224.718, 401.6393
2226.647, 402.8494
2228.575, 403.0327
2230.504, 401.5352
2232.432, 399.8908
2234.361, 404.1384
2236.289, 413.2638
2238.218, 413.9639
2240.146, 405.5008
2242.074, 400.1581
2244.003, 399.3860
2245.931, 400.3780
2247.860, 404.3025
2249.788, 406.4619
2251.717, 403.2086
2253.645, 401.1694
2255.574, 404.5077
2257.502, 408.7767
2259.431, 411.2223
2261.359, 412.3831
2263.288, 411.8099
2265.216, 410.8712
2267.145, 413.9297
2269.073, 419.7052
2271.001, 422.0309
2272.930, 420.7448
2274.858, 418.5656
2276.787, 415.9580
2278.715, 411.3890
2280.644, 399.4840
2282.572, 394.0401
2284.501, 401.6699
2286.429, 408.9182
2288.358, 412.0359
2290.286, 413.3550
2292.215, 412.8872
2294.143, 412.4247
2296.072, 413.0212
2298.000, 414.8483
2299.928, 419.5364
2301.857, 425.2024
2303.785, 426.5830
2305.714, 424.0686
2307.642, 421.7974
2309.571, 419.7665
2311.499, 417.6187
2313.428, 414.3130
2315.356, 415.5078
2317.285, 423.9785
2319.213, 429.1882
2321.142, 424.3944
2323.070, 425.6292
2324.999, 443.2009
2326.927, 462.4587
2328.855, 483.6964
2330.784, 495.6012
2332.712, 485.1975
2334.641, 465.1059
2336.569, 445.3471
2338.498, 428.6159
2340.426, 421.4066
2342.355, 421.4168
2344.283, 420.8189
2346.212, 420.0697
2348.140, 424.9937
2350.069, 436.8726
2351.997, 439.8513
2353.926, 426.7461
2355.854, 420.1166
2357.782, 425.0553
2359.711, 428.4673
2361.639, 428.6901
2363.568, 427.8724
2365.496, 424.9479
2367.425, 423.9129
2369.353, 428.3043
2371.282, 433.1226
2373.210, 435.0300
2375.139, 436.2111
2377.067, 439.6747
2378.996, 442.8696
2380.924, 441.4388
2382.853, 437.3651
2384.781, 435.0626
2386.709, 434.1419
2388.638, 432.0707
2390.566, 429.5482
2392.495, 433.5323
2394.423, 444.8583
2396.352, 451.2186
2398.280, 450.8342
2400.209, 448.6713
2402.137, 444.0124
2404.066, 439.3326
2405.994, 434.6665
2407.923, 429.7532
2409.851, 421.2100
2411.780, 419.1922
2413.708, 434.2647
2415.636, 446.7863
2417.565, 443.3700
2419.493, 438.2195
2421.422, 442.2637
2423.350, 447.9084
2425.279, 447.2444
2427.207, 444.4452
2429.136, 444.4033
2431.064, 446.4325
2432.993, 451.0888
2434.921, 456.2185
2436.850, 454.6552
2438.778, 447.9077
2440.707, 446.6846
2442.635, 451.4120
2444.563, 449.3368
2446.492, 438.1483
2448.420, 437.0566
2450.349, 448.7628
2452.277, 454.1662
2454.206, 449.5282
2456.134, 446.1221
2458.063, 447.3200
2459.991, 447.0415
2461.920, 440.2302
2463.848, 437.7796
2465.777, 448.5154
2467.705, 454.6563
2469.634, 446.8871
2471.562, 439.0305
2473.490, 438.2345
2475.419, 439.0452
2477.347, 438.6676
2479.276, 437.4381
2481.204, 434.3924
2483.133, 431.7680
2485.061, 432.7550
2486.990, 435.3334
2488.918, 438.2787
2490.847, 439.6850
2492.775, 432.0236
2494.704, 421.0661
2496.632, 423.8398
2498.561, 437.0175
2500.489, 443.3755
2502.417, 443.2570
2504.346, 447.4319
2506.274, 456.1195
2508.203, 458.4374
2510.131, 453.9048
2512.060, 449.8880
2513.988, 446.5126
2515.917, 448.8791
2517.845, 463.6453
2519.774, 467.9954
2521.702, 454.0797
2523.631, 443.0218
2525.559, 435.5273
2527.488, 433.2332
2529.416, 438.5924
2531.344, 443.5491
2533.273, 446.3173
2535.201, 447.2489
2537.130, 444.9087
2539.058, 443.4013
2540.987, 444.9752
2542.915, 447.0341
2544.844, 448.3550
2546.772, 449.7625
2548.701, 453.4243
2550.629, 455.0375
2552.558, 448.0267
2554.486, 441.3535
2556.415, 444.9394
2558.343, 450.9256
2560.271, 452.5375
2562.200, 450.4095
2564.128, 442.0262
2566.057, 433.1446
2567.985, 431.4603
2569.914, 434.9360
2571.842, 442.9154
2573.771, 451.7419
2575.699, 450.5514
2577.628, 443.3610
2579.556, 443.2220
2581.485, 448.7221
2583.413, 456.5384
2585.342, 465.5010
2587.270, 469.9093
2589.198, 470.1030
2591.127, 469.5136
2593.055, 468.1158
2594.984, 467.9645
2596.912, 468.9432
2598.841, 465.9549
2600.769, 458.8173
2602.698, 460.6609
2604.626, 475.3210
2606.555, 479.2974
2608.483, 467.9284
2610.412, 459.6895
2612.340, 454.7591
2614.269, 453.1899
2616.197, 456.0381
2618.125, 454.5787
2620.054, 445.1843
2621.982, 439.4961
2623.911, 439.4677
2625.839, 442.6229
2627.768, 450.3024
2629.696, 457.2434
2631.625, 463.8183
2633.553, 465.2956
2635.482, 457.1370
2637.410, 452.3848
2639.339, 458.7322
2641.267, 460.5851
2643.196, 450.3798
2645.124, 445.6310
2647.052, 453.1204
2648.981, 458.1959
2650.909, 452.9215
2652.838, 450.6542
2654.766, 458.4120
2656.695, 465.7783
2658.623, 472.2942
2660.552, 473.2800
2662.480, 462.9337
2664.409, 455.7793
2666.337, 459.9753
2668.266, 465.1743
2670.194, 470.0200
2672.123, 470.4047
2674.051, 458.1319
2675.979, 450.6437
2677.908, 459.1595
2679.836, 466.4112
2681.765, 460.8888
2683.693, 456.0640
2685.622, 460.3045
2687.550, 465.0295
2689.479, 466.0437
2691.407, 465.7570
2693.336, 464.2130
2695.264, 463.4503
2697.193, 464.9346
2699.121, 467.0184
2701.050, 469.9020
2702.978, 471.5098
2704.906, 470.3843
2706.835, 467.9678
2708.763, 464.1753
2710.692, 460.8550
2712.620, 456.1653
2714.549, 456.4196
2716.477, 470.7614
2718.406, 484.3567
2720.334, 489.1290
2722.263, 487.9478
2724.191, 476.1351
2726.120, 468.1316
2728.048, 477.5284
2729.977, 487.4633
2731.905, 487.2479
2733.833, 484.6480
2735.762, 483.3287
2737.690, 482.5780
2739.619, 481.8528
2741.547, 481.8473
2743.476, 483.5254
2745.404, 485.2255
2747.333, 488.3158
2749.261, 487.6410
2751.190, 475.8963
2753.118, 467.2507
2755.047, 472.5006
2756.975, 478.0012
2758.904, 476.0539
2760.832, 473.4112
2762.760, 475.3777
2764.689, 474.3753
2766.617, 463.5495
2768.546, 456.0995
2770.474, 460.3515
2772.403, 466.3993
2774.331, 472.6139
2776.260, 475.4003
2778.188, 469.4544
2780.117, 467.8661
2782.045, 479.6690
2783.974, 488.0141
2785.902, 483.6987
2787.831, 479.3355
2789.759, 477.1125
2791.688, 478.4691
2793.616, 486.0711
2795.544, 490.9809
2797.473, 489.7103
2799.401, 486.5023
2801.330, 478.8348
2803.258, 476.2384
2805.187, 482.6950
2807.115, 486.5148
2809.044, 484.6949
2810.972, 483.4077
2812.901, 484.6231
2814.829, 485.3812
2816.758, 485.1990
2818.686, 485.6530
2820.615, 487.4509
2822.543, 485.3074
2824.471, 475.4960
2826.400, 476.0919
2828.328, 497.3051
2830.257, 501.8967
2832.185, 487.5447
2834.114, 477.4823
2836.042, 473.4994
2837.971, 470.8111
2839.899, 469.1769
2841.828, 468.1722
2843.756, 467.6766
2845.685, 473.7909
2847.613, 485.1968
2849.542, 487.8351
2851.470, 482.4645
2853.398, 481.4884
2855.327, 484.4752
2857.255, 489.4083
2859.184, 495.7882
2861.112, 502.3242
2863.041, 508.4196
2864.969, 512.7183
2866.898, 515.1196
2868.826, 515.2468
2870.755, 513.2886
2872.683, 506.8376
2874.612, 501.0645
2876.540, 506.9745
2878.469, 514.2990
2880.397, 507.0721
2882.325, 496.9842
2884.254, 497.4219
2886.182, 500.0623
2888.111, 498.4640
2890.039, 495.8623
2891.968, 494.6263
2893.896, 493.2630
2895.825, 488.3017
2897.753, 487.0882
2899.682, 499.7720
2901.610, 505.7911
2903.539, 486.5083
2905.467, 475.7473
2907.396, 488.7009
2909.324, 498.0158
2911.252, 494.4849
2913.181, 495.2877
2915.109, 511.7280
2917.038, 518.7002
2918.966, 510.9606
2920.895, 508.3077
2922.823, 513.3632
2924.752, 515.7122
2926.680, 513.9268
2928.609, 508.3810
2930.537, 498.0082
2932.466, 497.1164
2934.394, 504.8846
2936.323, 514.3740
2938.251, 523.6834
2940.179, 520.8174
2942.108, 509.6258
2944.036, 505.9853
2945.965, 506.2466
2947.893, 499.9193
2949.822, 493.0973
2951.750, 498.7670
2953.679, 507.6392
2955.607, 507.2165
2957.536, 503.1103
2959.464, 498.1233
2961.393, 495.0598
2963.321, 497.4387
2965.250, 500.5215
2967.178, 504.2997
2969.106, 503.0324
2971.035, 489.4422
2972.963, 480.3831
2974.892, 486.6868
2976.820, 489.5315
2978.749, 483.6609
2980.677, 480.7074
2982.606, 482.0938
2984.534, 488.9080
2986.463, 505.4639
2988.391, 513.8843
2990.320, 513.8697
2992.248, 512.1528
2994.177, 509.1704
2996.105, 505.0097
2998.033, 500.6648
2999.962, 504.5542
3001.890, 512.6364
3003.819, 509.2000
3005.747, 501.1465
3007.676, 500.6857
3009.604, 503.7028
3011.533, 504.6144
3013.461, 505.8724
3015.390, 511.2374
3017.318, 515.7715
3019.247, 515.8080
3021.175, 514.6494
3023.104, 514.8732
3025.032, 512.6417
3026.960, 504.6270
3028.889, 500.0105
3030.817, 503.3563
3032.746, 506.4960
3034.674, 508.9274
3036.603, 510.4243
3038.531, 511.0298
3040.460, 509.3687
3042.388, 505.3987
3044.317, 503.7192
3046.245, 504.2593
3048.174, 507.4895
3050.102, 511.8190
3052.031, 512.3928
3053.959, 511.6783
3055.887, 515.7068
3057.816, 519.5045
3059.744, 517.3449
3061.673, 513.1443
3063.601, 507.3292
3065.530, 504.8711
3067.458, 511.6640
3069.387, 516.1407
3071.315, 513.2420
3073.244, 510.1061
3075.172, 505.9409
3077.101, 507.8711
3079.029, 517.1810
3080.958, 524.9965
3082.886, 530.4959
3084.814, 534.3574
3086.743, 536.6672
3088.671, 533.8030
3090.600, 528.6087
3092.528, 532.3458
3094.457, 538.3004
3096.385, 531.5065
3098.314, 521.9135
3100.242, 522.3033
3102.171, 524.7790
3104.099, 525.3793
3106.028, 523.9197
3107.956, 519.3647
3109.885, 514.5806
3111.813, 509.0955
3113.741, 507.9406
3115.670, 515.9914
3117.598, 518.4792
3119.527, 514.1802
3121.455, 512.8754
3123.384, 514.5083
3125.312, 511.8640
3127.241, 507.8033
3129.169, 519.6901
3131.098, 536.2141
3133.026, 532.2225
3134.955, 523.0794
3136.883, 525.3372
3138.812, 531.2485
3140.740, 537.7140
3142.668, 541.3826
3144.597, 539.4863
3146.525, 536.4367
3148.454, 532.7979
3150.382, 528.7486
3152.311, 523.8121
3154.239, 523.1852
3156.168, 527.5896
3158.096, 535.3938
3160.025, 544.8536
3161.953, 540.8951
3163.882, 531.1375
3165.810, 532.3640
3167.739, 537.6270
3169.667, 539.0992
3171.595, 538.2234
3173.524, 535.2949
3175.452, 531.7042
3177.381, 525.9781
3179.309, 524.8608
3181.238, 532.6211
3183.166, 530.4875
3185.095, 511.1595
3187.023, 500.9480
3188.952, 500.2713
3190.880, 504.5040
3192.809, 511.7879
3194.737, 515.4398
3196.666, 517.5586
3198.594, 524.3902
3200.522, 528.8748
3202.451, 520.2849
3204.379, 513.7274
3206.308, 521.1698
3208.236, 527.7411
3210.165, 528.6976
3212.093, 531.8340
3214.022, 540.4805
3215.950, 544.1307
3217.879, 542.4204
3219.807, 546.6544
3221.736, 553.6495
3223.664, 547.3792
3225.593, 535.6505
3227.521, 533.2880
3229.449, 535.3066
3231.378, 538.6305
3233.306, 541.3586
3235.235, 542.7968
3237.163, 542.7721
3239.092, 541.5444
3241.020, 538.4091
3242.949, 531.7289
3244.877, 528.8764
3246.806, 529.8651
3248.734, 537.9576
3250.663, 548.5721
3252.591, 545.5538
3254.520, 538.0170
3256.448, 539.4900
3258.376, 544.6774
3260.305, 555.2883
3262.233, 558.9244
3264.162, 544.9576
3266.090, 536.4184
3268.019, 538.1592
3269.947, 539.8027
3271.876, 540.1733
3273.804, 540.9757
3275.733, 542.5570
3277.661, 549.5295
3279.590, 555.4719
3281.518, 543.9016
3283.447, 532.0508
3285.375, 537.0090
3287.303, 542.6553
3289.232, 538.4830
3291.160, 538.9859
3293.089, 547.6611
3295.017, 554.2419
3296.946, 557.3080
3298.874, 563.7870
3300.803, 571.6144
3302.731, 567.4460
3304.660, 557.3314
3306.588, 548.1190
3308.517, 542.1190
3310.445, 541.9479
3312.374, 545.1453
3314.302, 556.3964
3316.230, 557.4847
3318.159, 542.3952
3320.087, 531.8470
3322.016, 527.3853
3323.944, 534.7975
3325.873, 549.1910
3327.801, 556.8689
3329.730, 558.0190
3331.658, 548.4257
3333.587, 540.3905
3335.515, 543.7112
3337.444, 548.7311
3339.372, 553.2719
3341.301, 558.2979
3343.229, 565.2625
3345.157, 564.2788
3347.086, 557.4188
3349.014, 555.1085
3350.943, 555.2925
3352.871, 552.4743
3354.800, 552.1324
3356.728, 560.0657
3358.657, 568.6725
3360.585, 577.5300
3362.514, 578.9888
3364.442, 571.4327
3366.371, 565.5409
3368.299, 562.2461
3370.228, 562.7737
3372.156, 565.1834
3374.084, 564.1008
3376.013, 563.2889
3377.941, 566.8215
3379.870, 571.1943
3381.798, 574.9135
3383.727, 579.0510
3385.655, 587.3264
3387.584, 580.9524
3389.512, 563.3298
3391.441, 569.3185
3393.369, 586.0115
3395.298, 584.2800
3397.226, 575.7943
3399.155, 568.4599
3401.083, 563.7291
3403.011, 560.4235
3404.940, 565.8787
3406.868, 582.3870
3408.797, 585.5245
3410.725, 576.1289
3412.654, 576.5596
3414.582, 582.1428
3416.511, 587.9240
3418.439, 588.4498
3420.368, 570.0994
3422.296, 562.0375
3424.225, 577.8504
3426.153, 587.5735
3428.082, 585.4600
3430.010, 587.7664
3431.938, 592.6564
3433.867, 593.3881
3435.795, 590.5814
3437.724, 581.2562
3439.652, 574.7997
3441.581, 579.3130
3443.509, 583.1291
3445.438, 584.6172
3447.366, 580.9370
3449.295, 572.3329
3451.223, 562.9974
3453.152, 556.3994
3455.080, 566.4350
3457.009, 577.1707
3458.937, 573.6969
3460.865, 567.5115
3462.794, 561.4465
3464.722, 558.5963
3466.651, 560.2192
3468.579, 559.9709
3470.508, 558.7273
3472.436, 558.8012
3474.365, 562.0516
3476.293, 574.8255
3478.222, 585.3701
3480.150, 588.8238
3482.079, 586.9800
3484.007, 576.3423
3485.936, 578.6061
3487.864, 590.2463
3489.792, 591.6326
3491.721, 587.6873
3493.649, 584.3062
3495.578, 583.1715
3497.506, 589.3195
3499.435, 588.4523
3501.363, 575.0728
3503.292, 574.4045
3505.220, 586.1480
3507.149, 586.9603
3509.077, 583.5166
3511.006, 589.8326
3512.934, 596.0096
3514.863, 594.9589
3516.791, 591.6019
3518.719, 586.1642
3520.648, 585.1349
3522.576, 588.4568
3524.505, 589.1865
3526.433, 586.4705
3528.362, 575.4450
3530.290, 566.6601
3532.219, 569.6108
3534.147, 573.1489
3536.076, 574.9834
3538.004, 576.7434
3539.933, 578.5495
3541.861, 580.8275
3543.790, 581.5974
3545.718, 576.8494
3547.646, 569.8998
3549.575, 558.8936
3551.503, 557.5869
3553.432, 574.1321
3555.360, 586.0944
3557.289, 593.3251
3559.217, 595.3437
3561.146, 594.7865
3563.074, 596.9987
3565.003, 595.1505
3566.931, 580.8999
3568.860, 574.0952
3570.788, 577.2850
3572.717, 575.8021
3574.645, 571.6366
3576.573, 574.2889
3578.502, 578.1725
3580.430, 577.1473
3582.359, 576.1596
3584.287, 577.9708
3586.216, 575.4603
3588.144, 568.8126
3590.073, 571.7917
3592.001, 579.5425
3593.930, 583.2758
3595.858, 582.2638
3597.787, 568.8212
3599.715, 566.9043
3601.644, 582.4327
3603.572, 585.2956
3605.500, 577.4180
3607.429, 581.3954
3609.357, 589.3192
3611.286, 593.7629
3613.214, 594.0937
3615.143, 587.8698
3617.071, 588.2457
3619.000, 597.4755
3620.928, 596.5588
3622.857, 589.6335
3624.785, 583.2866
3626.714, 580.8210
3628.642, 590.6146
3630.571, 591.5178
3632.499, 576.7717
3634.427, 580.0950
3636.356, 595.8937
3638.284, 582.2598
3640.213, 565.6722
3642.141, 579.7449
3644.070, 589.9052
3645.998, 583.4404
3647.927, 580.5010
3649.855, 582.8936
3651.784, 590.5740
3653.712, 596.5359
3655.641, 586.2119
3657.569, 576.2593
3659.498, 574.6813
3661.426, 574.2202
3663.354, 573.5804
3665.283, 574.2388
3667.211, 575.6828
3669.140, 577.2499
3671.068, 578.0907
3672.997, 577.5565
3674.925, 576.1714
3676.854, 573.1429
3678.782, 573.7599
3680.711, 576.5969
3682.639, 577.6080
3684.568, 578.0779
3686.496, 580.0613
3688.425, 579.5917
3690.353, 570.9658
3692.281, 584.6242
3694.210, 611.3624
3696.138, 609.0146
3698.067, 596.5765
3699.995, 589.7659
3701.924, 589.6615
3703.852, 601.3912
3705.781, 600.0922
3707.709, 588.5966
3709.638, 587.1393
3711.566, 588.5975
3713.495, 581.9703
3715.423, 580.2464
3717.352, 590.4823
3719.280, 595.2473
3721.208, 594.2179
3723.137, 590.0562
3725.065, 585.8793
3726.994, 587.1182
3728.922, 586.5773
3730.851, 579.2076
3732.779, 584.8815
3734.708, 600.6849
3736.636, 597.3405
3738.565, 590.4209
3740.493, 603.0850
3742.422, 609.4283
3744.350, 598.1156
3746.279, 590.5453
3748.207, 588.0884
3750.135, 596.2277
3752.064, 603.9514
3753.992, 596.6087
3755.921, 588.9830
3757.849, 584.2184
3759.778, 588.6779
3761.706, 598.3157
3763.635, 591.0639
3765.563, 581.9781
3767.492, 586.7518
3769.420, 592.2269
3771.349, 594.8995
3773.277, 605.3594
3775.206, 617.8980
3777.134, 609.4072
3779.063, 599.1302
3780.991, 605.0733
3782.919, 603.7958
3784.848, 588.1013
3786.776, 594.1597
3788.705, 610.0647
3790.633, 609.3631
3792.562, 604.5336
3794.490, 601.9674
3796.419, 600.3244
3798.347, 599.3393
3800.276, 595.1308
3802.204, 590.8622
3804.133, 592.9052
3806.061, 592.6827
3807.990, 586.0856
3809.918, 582.6275
3811.846, 583.3346
3813.775, 592.4458
3815.703, 599.0484
3817.632, 588.4965
3819.560, 579.5615
3821.489, 576.3667
3823.417, 575.6735
3825.346, 577.6698
3827.274, 585.9807
3829.203, 595.9139
3831.131, 606.3548
3833.060, 612.7458
3834.988, 614.4727
3836.917, 607.5949
3838.845, 599.3080
3840.773, 602.1641
3842.702, 606.6180
3844.630, 608.6344
3846.559, 612.5135
3848.487, 616.6492
3850.416, 613.0695
3852.344, 605.6055
3854.273, 594.3076
3856.201, 590.8798
3858.130, 598.3858
3860.058, 598.9940
3861.987, 597.2211
3863.915, 604.4026
3865.844, 610.6119
3867.772, 611.6478
3869.700, 607.1276
3871.629, 599.3175
3873.557, 590.0071
3875.486, 585.9595
3877.414, 603.3484
3879.343, 614.3758
3881.271, 611.4696
3883.200, 600.0062
3885.128, 589.0589
3887.057, 601.8875
3888.985, 608.7883
3890.914, 594.5934
3892.842, 592.9030
3894.771, 602.1597
3896.699, 594.5859
3898.627, 584.5899
3900.556, 581.7917
3902.484, 587.1829
3904.413, 601.0926
3906.341, 602.3373
3908.270, 597.5111
3910.198, 597.3457
3912.127, 597.4471
3914.055, 597.8614
3915.984, 600.0978
3917.912, 604.1674
3919.841, 610.5886
3921.769, 612.0798
3923.698, 599.5990
3925.626, 593.7034
3927.554, 596.8456
3929.483, 593.5405
3931.411, 588.1179
3933.340, 589.4724
3935.268, 588.9907
3937.197, 582.5229
3939.125, 584.4158
3941.054, 588.5483
3942.982, 585.9504
3944.911, 582.3284
3946.839, 577.1441
3948.768, 582.1589
3950.696, 594.1996
3952.625, 597.0121
3954.553, 600.0073
3956.481, 610.2162
3958.410, 612.4705
3960.338, 610.1683
3962.267, 603.8395
3964.195, 595.0019
3966.124, 588.9573
3968.052, 589.1740
3969.981, 596.3987
3971.909, 594.4919
3973.838, 592.5270
3975.766, 604.6678
3977.695, 608.6570
3979.623, 597.0584
3981.552, 598.7878
3983.480, 607.6371
3985.408, 610.8056
3987.337, 604.2509
3989.265, 588.5820
3991.194, 596.0703
3993.122, 613.3771
3995.051, 603.1071
3996.979, 590.2424
3998.908, 591.7376
4000.836, 589.5249
4002.765, 584.3895
4004.693, 596.6977
4006.622, 606.2271
4008.550, 598.6337
4010.479, 598.8671
4012.407, 605.8798
4014.335, 597.9260
4016.264, 590.5530
4018.192, 595.8954
4020.121, 597.1483
4022.049, 593.1776
4023.978, 596.6964
4025.906, 601.7209
4027.835, 599.8207
4029.763, 598.6805
4031.692, 601.1130
4033.620, 609.1379
4035.549, 615.8439
4037.477, 612.0025
4039.406, 606.3338
4041.334, 601.1464
4043.262, 604.4467
4045.191, 610.9714
4047.119, 611.2158
4049.048, 611.3783
4050.976, 613.7324
4052.905, 617.4420
4054.833, 620.1975
4056.762, 619.9899
4058.690, 614.9380
4060.619, 601.6942
4062.547, 594.6638
4064.476, 593.8678
4066.404, 610.3171
4068.333, 623.1204
4070.261, 614.7316
4072.189, 609.8483
4074.118, 609.9306
4076.046, 613.2067
4077.975, 617.0707
4079.903, 616.7700
4081.832, 615.5071
4083.760, 614.0464
4085.689, 616.9187
4087.617, 618.6359
4089.546, 611.5605
4091.474, 604.6324
4093.403, 605.3331
4095.331, 602.0690
4097.260, 599.2162
4099.188, 609.1504
4101.117, 616.2141
4103.045, 616.7440
4104.974, 613.3741
4106.902, 611.4431
4108.831, 612.3857
4110.759, 618.5209
4112.688, 614.3651
4114.616, 607.2229
4116.544, 613.8083
4118.473, 612.7827
4120.401, 611.2531
4122.330, 622.4811
4124.258, 630.2642
4126.187, 625.2894
4128.115, 617.5679
4130.043, 616.7646
4131.972, 618.7728
4133.900, 620.7584
4135.829, 618.0361
4137.757, 610.4675
4139.686, 605.6239
4141.614, 618.4310
4143.543, 626.2609
4145.471, 621.6956
4147.400, 618.6083
4149.328, 617.6144
4151.257, 617.7991
4153.185, 614.3310
4155.114, 610.4219
4157.042, 608.4366
4158.971, 612.9313
4160.899, 631.7250
4162.828, 637.2670
4164.756, 613.0486
4166.685, 611.2056
4168.613, 620.3271
4170.542, 617.0046
4172.470, 612.0478
4174.398, 614.2742
4176.327, 616.2802
4178.255, 618.2698
4180.184, 628.8262
4182.112, 638.9489
4184.041, 643.1924
4185.969, 639.8008
4187.897, 636.5540
4189.826, 639.2132
4191.754, 639.9158
4193.683, 637.6035
4195.611, 638.9395
4197.540, 641.2221
4199.468, 624.9774
4201.397, 615.2802
4203.325, 625.8804
4205.254, 624.5399
4207.182, 617.8290
4209.111, 624.3900
4211.039, 629.0791
4212.968, 627.3050
4214.896, 633.9999
4216.825, 643.2307
4218.753, 641.8133
4220.682, 638.4930
4222.610, 635.8073
4224.539, 624.4771
4226.467, 616.1557
4228.396, 642.2333
4230.324, 654.3995
4232.252, 639.4011
4234.181, 641.0065
4236.109, 650.4064
4238.038, 651.4958
4239.966, 651.9791
4241.895, 653.6845
4243.823, 652.3685
4245.751, 651.3700
4247.680, 656.5197
4249.608, 658.6415
4251.537, 656.4620
4253.465, 654.1071
4255.394, 653.2435
4257.322, 655.5925
4259.251, 659.2112
4261.179, 663.2961
4263.108, 666.5839
4265.036, 664.3930
4266.965, 648.6847
4268.893, 653.2253
4270.822, 673.7164
4272.750, 673.2159
4274.679, 668.6368
4276.607, 668.4937
4278.536, 671.0161
4280.464, 675.1010
4282.393, 680.6365
4284.321, 681.0966
4286.250, 673.5170
4288.178, 672.7413
4290.106, 677.2236
4292.035, 685.0132
4293.963, 690.7778
4295.892, 693.3353
4297.820, 689.7614
4299.749, 684.9406
4301.677, 683.1042
4303.605, 686.3722
4305.534, 694.3119
4307.462, 706.3176
4309.391, 713.3976
4311.319, 707.9605
4313.248, 699.1918
4315.176, 690.8609
4317.105, 692.6331
4319.033, 696.8571
4320.962, 699.5172
4322.890, 708.9032
4324.819, 718.0644
4326.747, 710.6240
4328.676, 704.4568
4330.604, 704.9428
4332.533, 691.1145
4334.461, 680.7242
4336.390, 704.9087
4338.318, 709.7388
4340.247, 692.2158
4342.175, 700.2499
4344.104, 713.9558
4346.032, 721.7156
4347.960, 718.2467
4349.889, 708.8282
4351.817, 709.4181
4353.746, 712.8445
4355.674, 718.3938
4357.603, 706.5808
4359.531, 695.2836
4361.459, 716.1009
4363.388, 728.7229
4365.316, 726.1471
4367.245, 718.2592
4369.173, 710.5013
4371.102, 706.5091
4373.030, 704.5184
4374.959, 704.2819
4376.887, 706.6808
4378.816, 708.2858
4380.744, 707.9025
4382.673, 719.6200
4384.601, 734.5505
4386.530, 744.6240
4388.458, 740.7949
4390.387, 726.5833
4392.315, 726.6265
4394.244, 733.5307
4396.172, 745.3799
4398.101, 746.9332
4400.029, 742.5675
4401.958, 744.8994
4403.886, 742.2851
4405.814, 730.9675
4407.743, 726.5389
4409.671, 723.6035
4411.600, 707.8264
4413.528, 737.3273
4415.457, 792.3245
4417.385, 759.3574
4419.313, 739.6993
4421.242, 774.2156
4423.170, 765.0784
4425.099, 742.1736
4427.027, 748.5971
4428.956, 751.7824
4430.884, 747.0544
4432.813, 732.7512
4434.741, 725.1806
4436.670, 734.3351
4438.598, 736.4830
4440.527, 733.5931
4442.455, 726.4466
4444.384, 732.2975
4446.312, 750.9772
4448.241, 735.6484
4450.169, 723.4291
4452.098, 746.1260
4454.026, 736.5496
4455.955, 711.9357
4457.883, 706.5647
4459.812, 720.3081
4461.740, 748.8093
4463.668, 747.0458
4465.597, 737.2241
4467.525, 733.3906
4469.454, 730.6300
4471.382, 729.3471
4473.311, 729.7705
4475.239, 736.9938
4477.167, 750.8646
4479.096, 749.9850
4481.024, 745.1995
4482.953, 743.7337
4484.881, 744.9093
4486.810, 744.8412
4488.738, 731.9544
4490.667, 729.7825
4492.595, 740.2252
4494.524, 728.4268
4496.452, 720.1269
4498.381, 730.3336
4500.309, 745.2257
4502.238, 755.8115
4504.166, 746.2606
4506.095, 742.7143
4508.023, 748.1101
4509.952, 756.2320
4511.880, 749.6951
4513.809, 712.9479
4515.737, 708.0850
4517.666, 716.9815
4519.594, 715.4917
4521.522, 725.3488
4523.451, 742.6054
4525.379, 738.8860
4527.308, 740.6548
4529.236, 756.5583
4531.165, 744.0312
4533.093, 726.6934
4535.021, 729.9786
4536.950, 729.9839
4538.878, 729.7156
4540.807, 745.4239
4542.735, 750.1608
4544.664, 739.1136
4546.592, 728.9549
4548.521, 724.6968
4550.449, 729.8619
4552.378, 721.0170
4554.306, 711.4985
4556.235, 724.2816
4558.163, 735.4438
4560.092, 740.4338
4562.020, 731.4354
4563.949, 722.0504
4565.877, 716.8198
4567.806, 716.2254
4569.734, 721.2900
4571.663, 735.2438
4573.591, 730.6988
4575.520, 718.5985
4577.448, 719.5305
4579.376, 731.5336
4581.305, 748.6807
4583.233, 734.7133
4585.162, 724.6490
4587.090, 733.4483
4589.019, 734.4025
4590.947, 729.3420
4592.875, 718.0460
4594.804, 718.3499
4596.732, 723.2771
4598.661, 715.7365
4600.589, 712.0598
4602.518, 713.8867
4604.446, 709.8008
4606.375, 708.8899
4608.303, 714.7629
4610.232, 721.7404
4612.160, 720.4489
4614.089, 699.9787
4616.017, 698.5568
4617.946, 709.3570
4619.874, 718.2196
4621.803, 723.0536
4623.731, 724.2930
4625.660, 727.0720
4627.588, 722.6829
4629.517, 709.5398
4631.445, 702.7559
4633.374, 707.0408
4635.302, 729.6295
4637.230, 714.0318
4639.159, 692.1461
4641.087, 717.5916
4643.016, 722.9702
4644.944, 710.2689
4646.873, 692.6768
4648.801, 698.5994
4650.729, 724.0294
4652.658, 719.9471
4654.586, 707.8880
4656.515, 696.1827
4658.443, 711.1913
4660.372, 724.7789
4662.300, 712.7602
4664.229, 715.2085
4666.157, 727.0155
4668.086, 743.0743
4670.014, 745.5103
4671.943, 736.5968
4673.871, 725.5913
4675.800, 713.4482
4677.728, 702.5428
4679.657, 713.9254
4681.585, 728.4640
4683.514, 738.0400
4685.442, 723.6915
4687.371, 706.9752
4689.299, 705.4391
4691.228, 703.3239
4693.156, 703.0719
4695.084, 707.0393
4697.013, 722.5976
4698.941, 736.3090
4700.870, 713.7454
4702.798, 709.9352
4704.727, 723.0655
4706.655, 704.0967
4708.583, 697.9916
4710.512, 713.0468
4712.440, 691.0234
4714.369, 684.0151
4716.297, 713.1817
4718.226, 716.6816
4720.154, 712.9474
4722.083, 718.0129
4724.011, 714.6567
4725.940, 710.7109
4727.868, 715.4274
4729.797, 719.2293
4731.725, 722.4434
4733.654, 731.3007
4735.582, 724.7094
4737.511, 709.2249
4739.439, 714.2535
4741.368, 715.3769
4743.296, 710.6561
4745.225, 714.5614
4747.153, 721.8940
4749.082, 729.8149
4751.010, 705.7438
4752.938, 698.6201
4754.867, 728.5719
4756.795, 716.2380
4758.724, 700.0648
4760.652, 715.6520
4762.581, 703.9366
4764.509, 686.9048
4766.438, 685.7734
4768.366, 700.3012
4770.294, 711.4947
4772.223, 685.4172
4774.151, 686.5258
4776.080, 703.1304
4778.008, 699.5372
4779.937, 697.1498
4781.865, 697.1334
4783.794, 690.5358
4785.722, 692.7189
4787.651, 704.2921
4789.579, 714.7762
4791.508, 722.9314
4793.436, 727.2258
4795.365, 715.2948
4797.293, 706.8292
4799.222, 709.0443
4801.150, 714.2196
4803.079, 715.8457
4805.007, 710.9813
4806.936, 698.7937
4808.864, 690.7662
4810.792, 693.4558
4812.721, 710.0551
4814.649, 719.7034
4816.578, 704.8988
4818.506, 712.6592
4820.435, 722.3419
4822.363, 709.9260
4824.292, 705.8492
4826.220, 709.7645
4828.148, 722.7602
4830.077, 717.2005
4832.005, 704.3522
4833.934, 698.9807
4835.862, 710.5028
4837.791, 722.8621
4839.719, 703.4579
4841.648, 704.3322
4843.576, 717.2452
4845.505, 715.8864
4847.433, 705.6957
4849.362, 697.6489
4851.290, 722.7436
4853.219, 721.7996
4855.147, 703.6952
4857.076, 718.8395
4859.004, 725.4443
4860.933, 721.1726
4862.861, 727.7832
4864.790, 723.5432
4866.718, 711.0942
4868.646, 713.9794
4870.575, 716.6498
4872.503, 716.4693
4874.432, 722.4594
4876.360, 717.6540
4878.289, 702.5574
4880.217, 693.5365
4882.146, 693.5206
4884.074, 701.1871
4886.002, 704.1391
4887.931, 712.2821
4889.859, 723.6198
4891.788, 703.1967
4893.716, 701.5980
4895.645, 725.9003
4897.573, 726.1924
4899.502, 718.6619
4901.430, 709.9506
4903.359, 711.2798
4905.287, 708.7188
4907.216, 699.7436
4909.144, 688.8019
4911.073, 688.5003
4913.001, 700.3362
4914.930, 709.4507
4916.858, 708.5139
4918.787, 699.5732
4920.715, 703.3206
4922.644, 704.8220
4924.572, 699.3264
4926.500, 680.1064
4928.429, 677.4268
4930.357, 693.3660
4932.286, 697.0211
4934.214, 700.1277
4936.143, 704.9563
4938.071, 704.6856
4940.000, 712.3267
4941.928, 724.9552
4943.856, 716.9958
4945.785, 700.3499
4947.713, 684.6254
4949.642, 695.2026
4951.570, 696.8593
4953.499, 690.6196
4955.427, 708.6196
4957.356, 708.1819
4959.284, 691.5062
4961.213, 680.2930
4963.141, 676.3571
4965.070, 678.9413
4966.998, 689.5300
4968.927, 689.6004
4970.855, 686.1393
4972.784, 697.7567
4974.712, 703.6170
4976.641, 702.9319
4978.569, 693.6385
4980.498, 708.7988
4982.426, 721.8860
4984.354, 692.5293
4986.283, 689.3715
4988.211, 702.5256
4990.140, 717.9471
4992.068, 711.3575
4993.997, 701.7455
4995.925, 708.1730
4997.854, 703.2593
4999.782, 691.8420
5001.710, 678.0529
5003.639, 666.7546
5005.567, 670.2596
5007.496, 696.6708
5009.424, 701.5197
5011.353, 701.5137
5013.281, 704.1932
5015.210, 715.0140
5017.138, 717.3582
5019.067, 707.2253
5020.995, 687.0170
5022.924, 685.0062
5024.852, 700.3369
5026.781, 700.9682
5028.709, 691.8640
5030.638, 681.5294
5032.566, 688.8939
5034.495, 699.4246
5036.423, 705.9001
5038.352, 698.3759
5040.280, 687.7075
5042.208, 677.9260
5044.137, 671.4163
5046.065, 683.4895
5047.994, 696.7368
5049.922, 691.6604
5051.851, 712.9125
5053.779, 725.6496
5055.708, 706.8796
5057.636, 693.1879
5059.564, 691.8044
5061.493, 703.6921
5063.421, 719.6252
5065.350, 720.1273
5067.278, 704.1353
5069.207, 700.2333
5071.135, 697.2921
5073.064, 692.9545
5074.992, 687.3527
5076.921, 686.8272
5078.849, 687.8985
5080.778, 678.3053
5082.706, 697.1855
5084.635, 713.3773
5086.563, 686.7161
5088.492, 694.4741
5090.420, 704.5626
5092.349, 693.4562
5094.277, 705.3202
5096.206, 713.5128
5098.134, 705.6292
5100.063, 703.8896
5101.991, 695.8571
5103.919, 684.1885
5105.848, 696.4158
5107.776, 707.4348
5109.705, 713.7750
5111.633, 720.7465
5113.562, 710.8088
5115.490, 695.8744
5117.418, 690.5169
5119.347, 702.4495
5121.275, 709.0001
5123.204, 695.1201
5125.132, 698.0616
5127.061, 700.4020
5128.989, 694.6758
5130.918, 703.3540
5132.846, 701.0544
5134.775, 687.3000
5136.703, 682.8607
5138.632, 680.8984
5140.560, 681.5411
5142.489, 689.0069
5144.417, 688.4304
5146.346, 685.7900
5148.274, 686.7496
5150.203, 694.5018
5152.131, 700.1014
5154.060, 699.4454
5155.988, 697.7942
5157.917, 687.4806
5159.845, 675.0020
5161.773, 701.8270
5163.702, 692.6982
5165.630, 666.1909
5167.559, 673.6170
5169.487, 687.3903
5171.416, 701.2189
5173.344, 712.1214
5175.272, 686.1195
5177.201, 676.9606
5179.129, 706.4188
5181.058, 710.9666
5182.986, 711.6644
5184.915, 706.9810
5186.843, 666.4997
5188.772, 682.7022
5190.700, 719.2901
5192.629, 714.7580
5194.557, 710.3823
5196.486, 705.8707
5198.414, 699.3655
5200.343, 693.6916
5202.271, 690.8760
5204.200, 692.1088
5206.128, 702.0075
5208.057, 708.2272
5209.985, 707.5918
5211.914, 692.2877
5213.842, 705.3624
5215.771, 712.5950
5217.699, 685.5121
5219.627, 705.6138
5221.556, 720.7973
5223.484, 715.4736
5225.413, 704.5072
5227.341, 698.1792
5229.270, 698.5043
5231.198, 707.3873
5233.126, 716.7946
5235.055, 716.5203
5236.983, 699.9637
5238.912, 687.1227
5240.840, 691.1831
5242.769, 709.9069
5244.697, 721.3094
5246.626, 725.3754
5248.554, 724.9973
5250.483, 722.7422
5252.411, 727.2169
5254.340, 728.8607
5256.268, 722.1580
5258.197, 724.8390
5260.125, 711.8221
5262.054, 688.4505
5263.982, 691.7517
5265.911, 702.6627
5267.839, 708.6486
5269.768, 695.0869
5271.696, 691.5358
5273.625, 695.9600
5275.553, 703.9427
5277.481, 690.5079
5279.410, 692.1701
5281.338, 704.8407
5283.267, 703.8973
5285.195, 721.9622
5287.124, 734.3517
5289.052, 720.3060
5290.980, 717.1412
5292.909, 711.8208
5294.837, 703.7908
5296.766, 706.3713
5298.694, 696.4528
5300.623, 690.1644
5302.551, 709.9163
5304.480, 704.0649
5306.408, 688.4642
5308.337, 675.7640
5310.265, 694.8114
5312.194, 706.9280
5314.122, 708.8081
5316.051, 706.3639
5317.979, 702.5936
5319.908, 699.2590
5321.836, 697.1240
5323.765, 694.4954
5325.693, 701.6079
5327.622, 709.8835
5329.550, 695.0557
5331.479, 701.0485
5333.407, 713.3495
5335.335, 719.8381
5337.264, 720.3167
5339.192, 709.0737
5341.121, 694.9306
5343.049, 700.7530
5344.978, 704.8326
5346.906, 702.9362
5348.834, 693.3853
5350.763, 698.3790
5352.691, 700.5073
5354.620, 696.6923
5356.548, 689.3670
5358.477, 697.7558
5360.405, 703.0793
5362.334, 692.0909
5364.262, 697.4372
5366.191, 705.4865
5368.119, 710.9801
5370.048, 711.5992
5371.976, 712.4525
5373.905, 711.9324
5375.833, 709.5446
5377.762, 720.2030
5379.690, 709.1448
5381.619, 692.7365
5383.547, 722.9463
5385.476, 728.7575
5387.404, 721.6250
5389.333, 713.0038
5391.261, 724.1795
5393.189, 723.6542
5395.118, 712.2966
5397.046, 701.6876
5398.975, 704.2155
5400.903, 706.2486
5402.832, 702.1521
5404.760, 699.5916
5406.688, 699.0253
5408.617, 699.5800
5410.545, 700.4003
5412.474, 695.2776
5414.402, 705.8289
5416.331, 726.1822
5418.259, 707.9885
5420.188, 705.2185
5422.116, 710.0831
5424.045, 709.7141
5425.973, 705.3292
5427.902, 700.3439
5429.830, 695.0590
5431.759, 682.5660
5433.687, 706.0600
5435.616, 716.8975
5437.544, 696.0093
5439.473, 713.5226
5441.401, 728.5217
5443.330, 728.8313
5445.258, 710.6688
5447.187, 707.4158
5449.115, 704.8152
5451.043, 695.6313
5452.972, 668.7391
5454.900, 683.2443
5456.829, 703.5256
5458.757, 702.2001
5460.686, 694.1234
5462.614, 700.5807
5464.542, 710.8368
5466.471, 703.7896
5468.399, 706.9012
5470.328, 711.3260
5472.256, 713.8576
5474.185, 722.1646
5476.113, 709.8194
5478.042, 705.8376
5479.970, 730.8783
5481.899, 725.5064
5483.827, 711.3832
5485.756, 703.3058
5487.684, 714.6172
5489.613, 701.6575
5491.541, 699.4579
5493.470, 709.9586
5495.398, 699.4732
5497.327, 697.3989
5499.255, 702.7127
5501.184, 710.2458
5503.112, 700.5452
5505.041, 699.9870
5506.969, 703.4552
5508.897, 698.6600
5510.826, 706.6768
5512.754, 716.7412
5514.683, 722.8361
5516.611, 720.7620
5518.540, 711.7142
5520.468, 708.2720
5522.396, 712.8515
5524.325, 713.3238
5526.253, 714.7609
5528.182, 718.7794
5530.110, 725.8042
5532.039, 735.7393
5533.967, 733.2903
5535.896, 730.4026
5537.824, 744.5494
5539.753, 732.5639
5541.681, 721.7474
5543.610, 719.3735
5545.538, 723.3597
5547.467, 725.2585
5549.395, 720.5500
5551.324, 715.7065
5553.252, 737.7580
5555.181, 747.0046
5557.109, 744.9441
5559.038, 735.8956
5560.966, 724.1891
5562.895, 727.8605
5564.823, 726.8018
5566.751, 706.1738
5568.680, 724.2571
5570.608, 726.5231
5572.537, 725.3901
5574.465, 744.4461
5576.394, 727.6016
5578.322, 717.1542
5580.250, 716.1763
5582.179, 709.6062
5584.107, 713.3869
5586.036, 714.3992
5587.964, 714.5687
5589.893, 735.5238
5591.821, 718.3152
5593.750, 723.3523
5595.678, 750.1428
5597.607, 713.1385
5599.535, 707.0863
5601.464, 714.0321
5603.392, 715.6936
5605.321, 699.7316
5607.249, 720.5748
5609.178, 737.1210
5611.106, 725.3829
5613.035, 724.9752
5614.963, 740.9400
5616.892, 743.4654
5618.820, 714.4294
5620.749, 699.5363
5622.677, 726.5631
5624.605, 749.4000
5626.534, 726.2542
5628.462, 715.3868
5630.391, 721.2029
5632.319, 724.8052
5634.248, 710.9887
5636.176, 731.8004
5638.104, 725.2473
5640.033, 712.6154
5641.961, 728.9211
5643.890, 738.8459
5645.818, 731.1732
5647.747, 719.2701
5649.675, 721.3173
5651.604, 715.5515
5653.532, 713.7457
5655.461, 715.3260
5657.389, 714.9135
5659.318, 732.5886
5661.246, 743.0944
5663.175, 736.0402
5665.103, 709.9560
5667.032, 732.8971
5668.960, 754.6846
5670.889, 758.2267
5672.817, 742.3698
5674.746, 742.5065
5676.674, 749.2638
5678.603, 750.7716
5680.531, 737.8806
5682.459, 743.3426
5684.388, 749.0398
5686.316, 748.9781
5688.245, 740.2781
5690.173, 768.6583
5692.102, 783.1786
5694.030, 777.5027
5695.958, 759.5436
5697.887, 749.2227
5699.815, 752.2146
5701.744, 758.2031
5703.672, 757.0609
5705.601, 756.0162
5707.529, 748.9768
5709.458, 739.9882
5711.386, 734.1405
5713.315, 736.5381
5715.243, 737.3463
5717.172, 748.4509
5719.100, 771.7427
5721.029, 754.3976
5722.957, 756.5969
5724.886, 750.2550
5726.814, 725.8072
5728.743, 747.9497
5730.671, 739.7469
5732.600, 742.4372
5734.528, 764.1621
5736.457, 752.7845
5738.385, 747.3440
5740.313, 748.1469
5742.242, 753.0157
5744.170, 761.4059
5746.099, 748.8664
5748.027, 753.5971
5749.956, 768.0567
5751.884, 762.2227
5753.813, 766.1575
5755.741, 753.8748
5757.669, 737.3920
5759.598, 737.2777
5761.526, 747.8523
5763.455, 745.3287
5765.383, 741.7491
5767.312, 749.5433
5769.240, 751.7325
5771.169, 767.2056
5773.097, 780.4771
5775.026, 781.1952
5776.954, 769.7182
5778.883, 772.3992
5780.811, 765.6439
5782.740, 753.7449
5784.668, 770.6804
5786.597, 760.6395
5788.525, 743.4221
5790.454, 733.7429
5792.382, 739.5096
5794.311, 757.1324
5796.239, 759.4489
5798.167, 761.6318
5800.096, 777.4467
5802.024, 773.3494
5803.953, 785.9482
5805.881, 792.1066
5807.810, 783.9052
5809.738, 795.2840
5811.667, 799.1868
5813.595, 784.3326
5815.523, 765.9876
5817.452, 781.8879
5819.380, 788.8943
5821.309, 766.9861
5823.237, 745.1802
5825.166, 756.6885
5827.094, 776.8578
5829.023, 781.3447
5830.951, 788.7634
5832.880, 801.7605
5834.808, 777.9389
5836.737, 788.0703
5838.665, 783.4863
5840.594, 768.7676
5842.522, 783.7841
5844.451, 776.6552
5846.379, 790.8823
5848.308, 799.4082
5850.236, 777.8568
5852.165, 782.8815
5854.093, 772.9562
5856.021, 765.3636
5857.950, 765.4780
5859.878, 755.8859
5861.807, 774.7197
5863.735, 769.3551
5865.664, 756.8421
5867.592, 772.6234
5869.521, 779.0611
5871.449, 800.2878
5873.377, 805.7829
5875.306, 785.4445
5877.234, 772.9308
5879.163, 794.8817
5881.091, 797.3899
5883.020, 788.2854
5884.948, 806.6753
5886.877, 776.0666
5888.805, 802.2050
5890.734, 825.0281
5892.662, 804.1691
5894.591, 776.4009
5896.519, 796.1865
5898.448, 805.3393
5900.376, 800.0964
5902.305, 805.3157
5904.233, 822.0128
5906.162, 811.2731
5908.090, 811.9175
5910.019, 829.8187
5911.947, 796.8308
5913.875, 816.3359
5915.804, 808.9681
5917.732, 794.7531
5919.661, 819.2090
5921.589, 806.6506
5923.518, 811.5593
5925.446, 812.4813
5927.375, 801.6465
5929.303, 798.4151
5931.231, 802.8377
5933.160, 829.3256
5935.088, 843.2347
5937.017, 822.3740
5938.945, 817.7692
5940.874, 812.3245
5942.802, 805.2298
5944.731, 804.1240
5946.659, 816.9650
5948.588, 806.0656
5950.516, 830.0512
5952.445, 834.5483
5954.373, 801.3423
5956.302, 793.6760
5958.230, 821.4594
5960.159, 836.3686
5962.087, 831.4635
5964.016, 818.8117
5965.944, 826.0270
5967.873, 838.4100
5969.801, 840.4074
5971.729, 832.6539
5973.658, 824.2000
5975.586, 806.2131
5977.515, 817.8090
5979.443, 835.4482
5981.372, 841.1279
5983.300, 831.2091
5985.229, 826.2502
5987.157, 826.2166
5989.085, 822.4682
5991.014, 812.0438
5992.942, 803.9495
5994.871, 808.0973
5996.799, 824.0901
5998.728, 837.2853
6000.656, 838.5510
6002.585, 866.8139
6004.513, 836.4601
6006.442, 837.4680
6008.370, 856.2319
6010.299, 831.7488
6012.227, 840.3027
6014.156, 846.7169
6016.084, 851.2338
6018.013, 846.1823
6019.941, 817.8442
6021.870, 809.7339
6023.798, 827.9510
6025.727, 847.0670
6027.655, 854.3722
6029.583, 853.1741
6031.512, 840.2233
6033.440, 842.0453
6035.369, 844.5995
6037.297, 850.1313
6039.226, 887.2390
6041.154, 867.9654
6043.083, 858.0772
6045.011, 866.4061
6046.939, 876.8721
6048.868, 864.9219
6050.796, 869.7762
6052.725, 866.1534
6054.653, 891.5567
6056.582, 946.4860
6058.510, 956.0948
6060.439, 930.7360
6062.367, 904.2260
6064.296, 896.3911
6066.224, 900.3184
6068.153, 879.2560
6070.081, 862.2265
6072.010, 862.2181
6073.938, 863.5219
6075.867, 863.1633
6077.795, 883.6193
6079.724, 878.5463
6081.652, 877.9156
6083.581, 881.3392
6085.509, 883.6010
6087.438, 885.0252
6089.366, 859.8868
6091.294, 867.8953
6093.223, 869.5577
6095.151, 850.7121
6097.080, 845.9337
6099.008, 861.5887
6100.937, 889.9915
6102.865, 890.9296
6104.793, 879.9587
6106.722, 907.0657
6108.650, 888.9581
6110.579, 891.9185
6112.507, 905.5403
6114.436, 906.1912
6116.364, 883.8367
6118.293, 892.4852
6120.221, 870.7354
6122.150, 865.9987
6124.078, 880.7181
6126.007, 891.8371
6127.935, 889.0121
6129.864, 861.2972
6131.792, 847.9993
6133.721, 852.4156
6135.649, 860.4908
6137.578, 854.6113
6139.506, 865.0557
6141.435, 876.3241
6143.363, 878.0258
6145.292, 876.5210
6147.220, 891.3821
6149.148, 923.8485
6151.077, 912.3735
6153.005, 895.7819
6154.934, 893.5830
6156.862, 897.6276
6158.791, 888.7958
6160.719, 881.1179
6162.647, 898.1660
6164.576, 903.6541
6166.504, 879.1494
6168.433, 908.9117
6170.361, 913.6138
6172.290, 930.0995
6174.218, 923.3083
6176.147, 899.1163
6178.075, 924.6036
6180.004, 940.3392
6181.932, 927.5955
6183.861, 919.4671
6185.789, 925.9715
6187.718, 934.4908
6189.646, 899.4948
6191.575, 918.7399
6193.503, 908.2006
6195.432, 910.5979
6197.360, 937.8086
6199.289, 909.8511
6201.217, 925.1550
6203.146, 900.9714
6205.074, 903.0899
6207.002, 926.4965
6208.931, 929.8036
6210.859, 937.9003
6212.788, 902.2699
6214.716, 887.3519
6216.645, 890.7918
6218.573, 894.1996
6220.501, 892.1860
6222.430, 917.7533
6224.358, 931.0771
6226.287, 938.5289
6228.215, 934.7191
6230.144, 925.3701
6232.072, 955.3841
6234.001, 934.8795
6235.929, 933.9785
6237.858, 938.8356
6239.786, 932.3522
6241.715, 920.7203
6243.643, 935.4761
6245.572, 946.1514
6247.500, 914.3363
6249.429, 907.4351
6251.357, 945.8694
6253.286, 962.3075
6255.214, 963.2188
6257.143, 957.6465
6259.071, 944.3779
6261.000, 938.0457
6262.928, 945.4241
6264.856, 947.1670
6266.785, 929.8968
6268.713, 934.2112
6270.642, 945.3260
6272.570, 950.5479
6274.499, 951.4029
6276.427, 966.7699
6278.355, 968.1792
6280.284, 965.0325
6282.212, 963.3339
6284.141, 969.3587
6286.069, 979.7526
6287.998, 935.6687
6289.926, 963.3909
6291.855, 935.3981
6293.783, 912.9053
6295.712, 926.2271
6297.640, 942.1354
6299.569, 949.9471
6301.497, 941.0767
6303.426, 942.2335
6305.354, 941.9064
6307.283, 943.9224
6309.211, 959.6453
6311.140, 949.8842
6313.068, 950.4114
6314.997, 940.7430
6316.925, 946.8828
6318.854, 963.9797
6320.782, 964.7796
6322.710, 973.2502
6324.639, 953.0121
6326.567, 958.2116
6328.496, 953.0591
6330.424, 930.2322
6332.353, 918.0043
6334.281, 940.0988
6336.209, 958.2593
6338.138, 947.5632
6340.066, 946.2310
6341.995, 956.3950
6343.923, 959.7629
6345.852, 967.3310
6347.780, 955.1169
6349.709, 960.5756
6351.637, 983.1626
6353.566, 979.1024
6355.494, 941.2498
6357.423, 935.9707
6359.351, 951.1462
6361.280, 967.9992
6363.208, 978.2149
6365.137, 960.6886
6367.065, 940.7111
6368.994, 973.8680
6370.922, 973.3400
6372.851, 962.1790
6374.779, 972.1411
6376.708, 981.3063
6378.636, 966.9877
6380.564, 939.7975
6382.493, 993.6180
6384.421, 1003.294
6386.350, 997.8201
6388.278, 1002.802
6390.207, 1000.677
6392.135, 976.3672
6394.063, 949.5928
6395.992, 1004.231
6397.920, 984.3361
6399.849, 986.2618
6401.777, 981.3144
6403.706, 975.8408
6405.634, 1009.049
6407.563, 1001.552
6409.491, 969.9924
6411.420, 1003.173
6413.348, 1002.346
6415.277, 981.9240
6417.205, 989.7554
6419.134, 1009.073
6421.062, 1003.423
6422.991, 996.6093
6424.919, 990.4572
6426.848, 1001.774
6428.776, 1009.319
6430.705, 993.9550
6432.633, 1007.053
6434.562, 956.6829
6436.490, 951.2441
6438.418, 949.4059
6440.347, 959.8075
6442.275, 979.3336
6444.204, 979.0220
6446.132, 965.3151
6448.061, 977.0464
6449.989, 977.8698
6451.917, 987.4310
6453.846, 992.6936
6455.774, 989.0307
6457.703, 995.4995
6459.631, 997.2417
6461.560, 958.1943
6463.488, 937.8478
6465.417, 961.0127
6467.345, 979.9369
6469.274, 973.9302
6471.202, 978.7044
6473.131, 974.5383
6475.059, 982.5685
6476.988, 988.9611
6478.916, 982.6711
6480.845, 984.9602
6482.773, 993.3427
6484.702, 979.0552
6486.630, 988.6364
6488.559, 955.8177
6490.487, 937.7893
6492.416, 941.0190
6494.344, 937.4402
6496.272, 933.4248
6498.201, 958.7164
6500.129, 935.2740
6502.058, 974.4094
6503.986, 997.4631
6505.915, 979.4668
6507.843, 969.7850
6509.771, 980.8156
6511.700, 988.1841
6513.628, 1007.876
6515.557, 988.9697
6517.485, 987.3052
6519.414, 986.9675
6521.342, 995.4898
6523.271, 1000.873
6525.199, 994.6985
6527.128, 1008.406
6529.056, 1011.928
6530.985, 1010.118
6532.913, 998.0223
6534.842, 1006.269
6536.770, 1000.132
6538.699, 993.4077
6540.627, 1030.973
6542.556, 991.1392
6544.484, 1000.107
6546.413, 1001.655
##END=



