##NAMES=Natrolite
##RRUFFID=R040022
##IDEAL CHEMISTRY=Na_2_(Si_3_Al_2_)O_10_·2H_2_O
##LOCALITY=Patterson, Passaic County, New Jersey, USA
##OWNER=RRUFF
##SOURCE=University of Arizona Mineral Museum
##DESCRIPTION=White fine fibrous mass
##STATUS=The identification of this mineral has been confirmed by X-ray diffraction and chemical analysis
##URL=https://www.rruff.net/odr/rruff_sample/R040022
##MEASURED CHEMISTRY=(Na_1.87_Ca_0.08_[box]_0.05_)(Si_2.97_Al_2.03_)O_10_·1.95H_2_O ; H_2_O estimated by difference
##DIFFRACTION SAMPLE DESCRIPTION=Powder
##CELL PARAMETERS=a: 18.2955 b: 18.6353 c: 6.5813 alpha: 90 beta: 90 gamma: 90 volume: 2243.8 crystal system: orthorhombic
##FILETYPE=Raman RAW
##RAMAN WAVELENGTH=780

233.6983, 151.0313
235.6267, 151.0354
237.5552, 152.5426
239.4837, 153.2025
241.4121, 152.7952
243.3406, 152.1241
245.2691, 151.9764
247.1975, 151.0490
249.1260, 147.9103
251.0545, 143.6017
252.9829, 140.5854
254.9114, 138.7689
256.8399, 138.2210
258.7683, 139.3139
260.6968, 141.2165
262.6253, 144.3258
264.5537, 147.5280
266.4822, 149.5271
268.4107, 150.6946
270.3391, 152.3158
272.2676, 154.7567
274.1961, 156.1928
276.1245, 155.7457
278.0530, 154.9547
279.9815, 154.1859
281.9099, 153.4168
283.8384, 152.4794
285.7669, 151.5255
287.6953, 151.8371
289.6238, 154.0983
291.5523, 156.5842
293.4807, 159.2467
295.4092, 161.7894
297.3377, 164.5371
299.2661, 166.7614
301.1946, 167.3804
303.1231, 166.3563
305.0515, 165.1991
306.9800, 164.4884
308.9085, 162.8315
310.8369, 159.2354
312.7654, 155.5234
314.6939, 152.6974
316.6223, 150.5812
318.5508, 149.0325
320.4793, 148.0442
322.4077, 147.7478
324.3362, 148.6447
326.2647, 149.3919
328.1931, 150.0709
330.1216, 150.2157
332.0501, 149.1303
333.9785, 147.4163
335.9070, 146.3172
337.8355, 145.9838
339.7639, 145.1884
341.6924, 143.5291
343.6209, 142.4855
345.5493, 142.9868
347.4778, 143.3886
349.4063, 142.4638
351.3347, 140.9519
353.2632, 140.2667
355.1917, 140.5333
357.1201, 140.5708
359.0486, 140.7190
360.9771, 139.5365
362.9055, 135.7916
364.8340, 131.8186
366.7625, 129.0338
368.6909, 126.6367
370.6194, 123.3820
372.5479, 119.3990
374.4763, 116.3897
376.4048, 114.3467
378.3333, 113.6000
380.2617, 115.0784
382.1902, 116.3083
384.1187, 115.7832
386.0471, 115.0911
387.9756, 115.6429
389.9041, 117.2856
391.8326, 119.6477
393.7610, 122.7455
395.6895, 125.8742
397.6180, 128.1285
399.5464, 132.2430
401.4749, 139.7000
403.4034, 148.3432
405.3318, 157.8836
407.2603, 167.3145
409.1888, 174.4494
411.1172, 179.4396
413.0457, 182.9097
414.9742, 184.6891
416.9026, 185.9042
418.8311, 185.7216
420.7596, 186.3120
422.6880, 188.4370
424.6165, 191.8395
426.5450, 196.2514
428.4734, 201.7920
430.4019, 209.0195
432.3304, 218.0135
434.2588, 226.1907
436.1873, 233.3611
438.1158, 239.5910
440.0442, 247.4710
441.9727, 251.2002
443.9012, 247.3868
445.8296, 237.8235
447.7581, 223.0626
449.6866, 204.5308
451.6150, 188.1237
453.5435, 174.1637
455.4720, 162.0770
457.4004, 151.9632
459.3289, 143.3004
461.2574, 135.4026
463.1858, 129.7108
465.1143, 127.8185
467.0428, 127.9692
468.9712, 128.5385
470.8997, 129.4870
472.8282, 130.5128
474.7566, 131.3709
476.6851, 133.3659
478.6136, 136.6192
480.5420, 140.4619
482.4705, 144.5745
484.3990, 149.6961
486.3274, 155.9868
488.2559, 163.5774
490.1844, 172.0174
492.1128, 181.8896
494.0413, 196.4281
495.9698, 216.8026
497.8982, 235.0197
499.8267, 251.1023
501.7552, 265.3784
503.6836, 277.9036
505.6121, 288.3113
507.5406, 295.6806
509.4690, 301.9254
511.3975, 306.8006
513.3260, 312.5643
515.2545, 324.5967
517.1829, 342.8305
519.1114, 363.0635
521.0399, 385.6774
522.9683, 407.2662
524.8968, 427.5384
526.8253, 446.0844
528.7537, 466.4033
530.6822, 480.6090
532.6107, 487.5556
534.5391, 483.5161
536.4676, 460.4830
538.3961, 421.4595
540.3245, 376.6469
542.2530, 326.3549
544.1815, 281.1955
546.1099, 242.1244
548.0384, 209.4189
549.9669, 184.4735
551.8953, 164.4126
553.8238, 149.6345
555.7523, 138.1241
557.6807, 129.3735
559.6092, 122.7681
561.5377, 117.3087
563.4661, 112.7407
565.3946, 108.8110
567.3231, 105.5310
569.2515, 102.9106
571.1800, 101.0357
573.1085, 99.60063
575.0369, 98.80049
576.9654, 98.10083
578.8939, 97.23480
580.8223, 96.47150
582.7508, 95.98006
584.6793, 95.74699
586.6077, 95.88198
588.5362, 96.03523
590.4647, 95.43291
592.3931, 94.08351
594.3216, 93.37653
596.2501, 93.69811
598.1785, 93.66786
600.1070, 93.17987
602.0355, 92.64259
603.9639, 92.04765
605.8924, 91.54794
607.8209, 91.21635
609.7493, 90.84870
611.6778, 90.40417
613.6063, 89.91137
615.5347, 89.33568
617.4632, 88.82259
619.3917, 88.92856
621.3201, 89.75706
623.2486, 89.82039
625.1771, 88.85931
627.1055, 88.60528
629.0340, 89.51250
630.9625, 90.08709
632.8909, 89.89155
634.8194, 89.57457
636.7479, 89.24592
638.6763, 88.81858
640.6048, 88.09580
642.5333, 87.55650
644.4617, 87.93736
646.3902, 88.83414
648.3187, 89.43029
650.2471, 89.79884
652.1756, 89.74728
654.1041, 89.29869
656.0325, 89.28103
657.9610, 89.79999
659.8895, 90.23252
661.8179, 90.14394
663.7464, 90.77824
665.6749, 92.93370
667.6033, 95.14520
669.5318, 96.85027
671.4603, 97.96523
673.3887, 98.01852
675.3172, 97.67999
677.2457, 98.02692
679.1741, 99.02240
681.1026, 100.9902
683.0311, 103.7304
684.9595, 105.0583
686.8880, 104.5936
688.8165, 104.5783
690.7449, 105.2253
692.6734, 106.3183
694.6019, 108.4470
696.5303, 110.2715
698.4588, 111.2375
700.3873, 111.8675
702.3157, 112.6483
704.2442, 112.9362
706.1727, 111.9520
708.1011, 110.6008
710.0296, 109.8699
711.9581, 109.2882
713.8865, 107.8592
715.8150, 105.8140
717.7435, 104.8748
719.6719, 105.3435
721.6004, 105.0186
723.5289, 103.8846
725.4573, 101.9830
727.3858, 98.47863
729.3143, 95.87489
731.2427, 94.77910
733.1712, 93.90871
735.0997, 93.20667
737.0281, 92.47597
738.9566, 91.31239
740.8851, 90.21682
742.8135, 89.73035
744.7420, 89.29343
746.6705, 87.96114
748.5989, 86.46893
750.5274, 86.64726
752.4559, 88.05772
754.3843, 88.22964
756.3128, 87.14268
758.2413, 86.92125
760.1697, 87.64949
762.0982, 87.94128
764.0267, 87.83672
765.9551, 87.20214
767.8836, 85.56554
769.8121, 84.72993
771.7405, 85.56017
773.6690, 86.45150
775.5975, 86.69618
777.5259, 87.11316
779.4544, 88.52238
781.3829, 89.28319
783.3113, 87.91300
785.2398, 86.29823
787.1683, 86.35078
789.0967, 87.11086
791.0252, 87.05723
792.9537, 86.59932
794.8821, 86.82134
796.8106, 87.55641
798.7391, 87.88412
800.6675, 87.83577
802.5960, 88.07931
804.5245, 88.68432
806.4529, 88.71758
808.3814, 87.91035
810.3099, 88.07476
812.2383, 89.81116
814.1668, 91.14977
816.0953, 91.86220
818.0237, 92.11422
819.9522, 91.72193
821.8807, 91.08401
823.8091, 89.84109
825.7376, 89.13957
827.6661, 89.75222
829.5945, 90.52649
831.5230, 90.97844
833.4515, 91.10726
835.3799, 90.73893
837.3084, 90.50846
839.2369, 91.08333
841.1653, 91.72749
843.0938, 91.81966
845.0223, 91.34972
846.9507, 89.94526
848.8792, 88.23302
850.8077, 88.00156
852.7361, 88.90229
854.6646, 88.99446
856.5931, 88.22722
858.5215, 87.78871
860.4500, 87.88488
862.3785, 88.01829
864.3069, 88.07446
866.2354, 87.43306
868.1639, 86.01920
870.0923, 85.00034
872.0208, 84.52872
873.9493, 83.90082
875.8777, 82.71845
877.8062, 82.40670
879.7347, 83.93744
881.6631, 84.27592
883.5916, 82.00480
885.5201, 79.89330
887.4485, 78.91328
889.3770, 78.33781
891.3055, 77.90520
893.2339, 77.63244
895.1624, 77.77193
897.0909, 77.73450
899.0193, 77.30610
900.9478, 76.63234
902.8763, 75.40279
904.8047, 74.43045
906.7332, 74.69650
908.6617, 75.08952
910.5901, 74.27254
912.5186, 73.02968
914.4471, 72.33492
916.3755, 72.14400
918.3040, 72.73548
920.2325, 73.52275
922.1609, 73.19793
924.0894, 72.27052
926.0179, 71.60190
927.9464, 71.25272
929.8748, 71.50434
931.8033, 72.16196
933.7318, 72.83435
935.6602, 73.44141
937.5887, 74.03276
939.5172, 74.52042
941.4456, 74.00215
943.3741, 72.60420
945.3026, 71.64278
947.2310, 71.24088
949.1595, 71.18546
951.0880, 71.31055
953.0164, 72.18281
954.9449, 74.17610
956.8734, 74.74873
958.8018, 73.17837
960.7303, 73.18645
962.6588, 75.58399
964.5872, 77.16525
966.5157, 77.63976
968.4442, 77.78222
970.3726, 77.48565
972.3011, 77.27673
974.2296, 77.20145
976.1580, 77.17020
978.0865, 77.08427
980.0150, 77.34015
981.9434, 78.27782
983.8719, 78.45553
985.8004, 77.39810
987.7288, 76.88269
989.6573, 77.11716
991.5858, 77.38657
993.5142, 77.77025
995.4427, 78.15707
997.3712, 78.47952
999.2996, 78.94066
1001.228, 79.20638
1003.157, 80.19153
1005.085, 82.70490
1007.013, 85.02744
1008.942, 86.81936
1010.870, 87.67608
1012.799, 87.06983
1014.727, 86.24249
1016.656, 85.35540
1018.584, 85.39827
1020.513, 86.78671
1022.441, 88.35659
1024.370, 89.85984
1026.298, 91.90518
1028.227, 94.61787
1030.155, 97.35612
1032.084, 100.5104
1034.012, 103.0454
1035.941, 104.6366
1037.869, 105.2870
1039.797, 105.2269
1041.726, 103.6892
1043.654, 100.0776
1045.583, 96.10252
1047.511, 91.39426
1049.440, 87.07137
1051.368, 83.56460
1053.297, 80.85190
1055.225, 78.90511
1057.154, 77.26031
1059.082, 76.21014
1061.011, 75.03171
1062.939, 73.37584
1064.868, 72.12080
1066.796, 71.11639
1068.724, 70.83235
1070.653, 71.90981
1072.581, 72.51504
1074.510, 72.11938
1076.438, 72.00076
1078.367, 72.76799
1080.295, 72.77155
1082.224, 71.48460
1084.152, 70.44369
1086.081, 69.95930
1088.009, 69.04214
1089.938, 66.99883
1091.866, 66.40459
1093.795, 68.39717
1095.723, 68.59312
1097.651, 66.02229
1099.580, 64.13702
1101.508, 63.31852
1103.437, 62.84991
1105.365, 62.73336
1107.294, 62.59491
1109.222, 62.38847
1111.151, 61.75476
1113.079, 60.69092
1115.008, 60.37761
1116.936, 60.90742
1118.865, 61.16353
1120.793, 60.83678
1122.722, 59.72185
1124.650, 58.27699
1126.578, 58.18459
1128.507, 59.07398
1130.435, 59.12409
1132.364, 58.62285
1134.292, 58.58654
1136.221, 58.77074
1138.149, 58.75825
1140.078, 58.57366
1142.006, 58.09601
1143.935, 57.59005
1145.863, 57.44453
1147.792, 57.41598
1149.720, 57.44557
1151.649, 57.36766
1153.577, 56.72334
1155.505, 56.03868
1157.434, 56.16735
1159.362, 56.42026
1161.291, 55.85606
1163.219, 55.15435
1165.148, 54.88714
1167.076, 54.85383
1169.005, 54.70308
1170.933, 54.96635
1172.862, 56.26865
1174.790, 57.12570
1176.719, 57.04683
1178.647, 56.78437
1180.576, 56.41602
1182.504, 56.41891
1184.432, 56.57375
1186.361, 56.62886
1188.289, 57.28654
1190.218, 57.51048
1192.146, 56.43724
1194.075, 55.95178
1196.003, 56.75787
1197.932, 56.65840
1199.860, 55.22017
1201.789, 54.78111
1203.717, 55.42365
1205.646, 55.89216
1207.574, 56.38832
1209.503, 56.60076
1211.431, 56.21517
1213.359, 56.08989
1215.288, 56.45178
1217.216, 56.87198
1219.145, 57.17173
1221.073, 56.79894
1223.002, 56.00190
1224.930, 55.31617
1226.859, 54.76549
1228.787, 54.24556
1230.716, 54.12661
1232.644, 54.94939
1234.573, 55.60003
1236.501, 55.63298
1238.430, 55.71845
1240.358, 55.64977
1242.286, 55.46496
1244.215, 55.72624
1246.143, 55.68237
1248.072, 54.32286
1250.000, 53.52852
1251.929, 54.41924
1253.857, 55.19417
1255.786, 55.27567
1257.714, 55.11880
1259.643, 54.85760
1261.571, 55.44115
1263.500, 56.55959
1265.428, 56.45975
1267.357, 55.71492
1269.285, 55.55357
1271.214, 55.74509
1273.142, 56.24490
1275.070, 56.60640
1276.999, 56.37025
1278.927, 56.07611
1280.856, 55.87780
1282.784, 55.87919
1284.713, 56.35561
1286.641, 56.23631
1288.570, 54.89864
1290.498, 54.61576
1292.427, 56.08792
1294.355, 56.90471
1296.284, 56.92481
1298.212, 56.96532
1300.141, 56.76011
1302.069, 57.22152
1303.997, 58.36951
1305.926, 58.38320
1307.854, 57.66355
1309.783, 57.29124
1311.711, 57.07822
1313.640, 57.70505
1315.568, 58.68366
1317.497, 58.66747
1319.425, 58.30378
1321.354, 58.32301
1323.282, 58.27449
1325.211, 57.92513
1327.139, 57.93574
1329.068, 58.80299
1330.996, 59.40659
1332.924, 59.15696
1334.853, 58.35589
1336.781, 57.26487
1338.710, 57.16914
1340.638, 57.89314
1342.567, 58.41230
1344.495, 58.84689
1346.424, 58.16855
1348.352, 56.96118
1350.281, 57.37643
1352.209, 58.40931
1354.138, 58.70183
1356.066, 58.82529
1357.995, 59.25912
1359.923, 59.48037
1361.851, 58.92941
1363.780, 58.31566
1365.708, 58.02604
1367.637, 58.19860
1369.565, 58.79273
1371.494, 58.78467
1373.422, 58.20121
1375.351, 58.18576
1377.279, 58.66833
1379.208, 58.52348
1381.136, 57.87865
1383.065, 57.48373
1384.993, 57.52628
1386.922, 58.39144
1388.850, 59.05247
1390.778, 58.24643
1392.707, 57.90142
1394.635, 59.40274
1396.564, 60.31126
1398.492, 60.22176
1400.421, 59.92619
1402.349, 58.67858
1404.278, 58.48030
1406.206, 59.80574
1408.135, 60.08755
1410.063, 59.40090
1411.992, 59.51315
1413.920, 59.92153
1415.849, 60.16766
1417.777, 60.52751
1419.705, 60.68621
1421.634, 60.82789
1423.562, 60.98197
1425.491, 60.51717
1427.419, 59.67646
1429.348, 59.47921
1431.276, 59.60651
1433.205, 59.42120
1435.133, 59.32449
1437.062, 59.24554
1438.990, 59.19957
1440.919, 59.48576
1442.847, 59.59028
1444.776, 59.96841
1446.704, 60.60615
1448.632, 60.25842
1450.561, 59.74702
1452.489, 60.26130
1454.418, 60.30287
1456.346, 59.20459
1458.275, 59.08207
1460.203, 59.58236
1462.132, 59.48842
1464.060, 59.64904
1465.989, 59.74428
1467.917, 59.38581
1469.846, 58.89152
1471.774, 58.72752
1473.703, 59.12077
1475.631, 59.32428
1477.559, 59.33526
1479.488, 58.94598
1481.416, 57.90267
1483.345, 57.49007
1485.273, 57.98500
1487.202, 58.64339
1489.130, 58.71453
1491.059, 57.99173
1492.987, 57.31581
1494.916, 57.03947
1496.844, 57.18367
1498.773, 57.89187
1500.701, 58.06512
1502.630, 56.87891
1504.558, 55.99945
1506.486, 56.39775
1508.415, 57.05280
1510.343, 57.21314
1512.272, 57.00285
1514.200, 56.85612
1516.129, 56.53008
1518.057, 56.29822
1519.986, 56.95904
1521.914, 57.20348
1523.843, 56.05036
1525.771, 55.69838
1527.700, 56.44926
1529.628, 56.40389
1531.557, 55.94019
1533.485, 55.73110
1535.413, 55.66479
1537.342, 55.85210
1539.270, 56.48358
1541.199, 56.84129
1543.127, 56.34404
1545.056, 55.87324
1546.984, 56.57399
1548.913, 58.01479
1550.841, 58.43839
1552.770, 57.76887
1554.698, 57.22787
1556.627, 56.86489
1558.555, 56.13796
1560.484, 55.49162
1562.412, 55.84308
1564.340, 56.41492
1566.269, 56.37663
1568.197, 55.79615
1570.126, 55.00259
1572.054, 55.12957
1573.983, 56.24401
1575.911, 56.04795
1577.840, 54.90940
1579.768, 54.56891
1581.697, 54.88859
1583.625, 55.54048
1585.554, 55.95477
1587.482, 55.72412
1589.411, 55.47428
1591.339, 55.75024
1593.267, 55.86552
1595.196, 55.64100
1597.124, 55.42109
1599.053, 55.36900
1600.981, 55.82420
1602.910, 56.34595
1604.838, 56.48376
1606.767, 56.18445
1608.695, 56.12177
1610.624, 56.27230
1612.552, 56.15334
1614.481, 56.73711
1616.409, 57.35665
1618.338, 56.72730
1620.266, 56.48405
1622.194, 57.61325
1624.123, 58.41236
1626.051, 58.03038
1627.980, 57.16904
1629.908, 56.62062
1631.837, 57.01702
1633.765, 57.40837
1635.694, 57.28368
1637.622, 57.17415
1639.551, 56.50813
1641.479, 55.94973
1643.408, 56.11005
1645.336, 56.13654
1647.265, 55.65377
1649.193, 54.95657
1651.121, 54.72177
1653.050, 55.62896
1654.978, 55.87751
1656.907, 54.66326
1658.835, 53.79656
1660.764, 53.61831
1662.692, 53.98400
1664.621, 54.01514
1666.549, 53.78320
1668.478, 53.68063
1670.406, 52.24014
1672.335, 51.50386
1674.263, 52.70633
1676.192, 53.06705
1678.120, 52.63205
1680.048, 52.60057
1681.977, 52.65793
1683.905, 52.46363
1685.834, 52.09870
1687.762, 51.60941
1689.691, 51.38750
1691.619, 51.76302
1693.548, 52.35810
1695.476, 52.99772
1697.405, 53.37078
1699.333, 52.90124
1701.262, 51.97372
1703.190, 51.61449
1705.119, 51.47110
1707.047, 51.15127
1708.975, 51.41399
1710.904, 51.68717
1712.832, 51.35962
1714.761, 51.15448
1716.689, 51.36340
1718.618, 51.59225
1720.546, 51.33276
1722.475, 50.65658
1724.403, 50.42163
1726.332, 50.86543
1728.260, 51.03983
1730.189, 50.47956
1732.117, 50.15568
1734.046, 50.46061
1735.974, 50.59544
1737.902, 50.24950
1739.831, 50.03405
1741.759, 49.84200
1743.688, 50.04798
1745.616, 51.07320
1747.545, 50.92759
1749.473, 50.38550
1751.402, 50.50698
1753.330, 50.04777
1755.259, 49.33678
1757.187, 49.48577
1759.116, 49.81206
1761.044, 49.27428
1762.973, 48.23947
1764.901, 48.14389
1766.829, 49.15878
1768.758, 49.95951
1770.686, 49.53181
1772.615, 48.88308
1774.543, 48.65603
1776.472, 48.52206
1778.400, 48.34111
1780.329, 47.86940
1782.257, 47.92727
1784.186, 48.48939
1786.114, 48.18641
1788.043, 47.72881
1789.971, 47.85677
1791.900, 48.77567
1793.828, 49.23090
1795.756, 48.31821
1797.685, 47.85767
1799.613, 48.31879
1801.542, 48.05515
1803.470, 46.81162
1805.399, 46.58207
1807.327, 47.47532
1809.256, 46.98110
1811.184, 46.03351
1813.113, 46.17607
1815.041, 46.11581
1816.970, 46.46169
1818.898, 47.42625
1820.827, 47.78807
1822.755, 47.66436
1824.683, 47.48159
1826.612, 47.39088
1828.540, 46.69400
1830.469, 45.15670
1832.397, 44.65319
1834.326, 45.23235
1836.254, 45.73713
1838.183, 45.58837
1840.111, 44.63380
1842.040, 45.06568
1843.968, 46.66415
1845.897, 46.58402
1847.825, 45.46445
1849.754, 44.84223
1851.682, 44.65336
1853.610, 45.24541
1855.539, 45.34575
1857.467, 44.71976
1859.396, 44.50345
1861.324, 44.70836
1863.253, 44.53379
1865.181, 44.23264
1867.110, 43.85970
1869.038, 44.11358
1870.967, 44.88151
1872.895, 44.02550
1874.824, 43.25897
1876.752, 44.10634
1878.681, 44.46183
1880.609, 44.10169
1882.537, 43.90858
1884.466, 43.79772
1886.394, 43.53277
1888.323, 43.40484
1890.251, 43.51239
1892.180, 43.75738
1894.108, 43.96836
1896.037, 43.83491
1897.965, 43.47629
1899.894, 43.03040
1901.822, 42.46746
1903.751, 42.59790
1905.679, 42.92234
1907.608, 42.82210
1909.536, 42.81542
1911.464, 42.66259
1913.393, 42.34746
1915.321, 42.31564
1917.250, 42.12319
1919.178, 41.94883
1921.107, 41.78862
1923.035, 41.63090
1924.964, 41.93227
1926.892, 42.29975
1928.821, 41.77634
1930.749, 40.66001
1932.678, 39.97488
1934.606, 40.11948
1936.535, 40.53847
1938.463, 41.54655
1940.391, 42.42846
1942.320, 41.02612
1944.248, 40.10270
1946.177, 40.91991
1948.105, 40.79285
1950.034, 39.83680
1951.962, 39.92649
1953.891, 40.58405
1955.819, 40.39211
1957.748, 40.45934
1959.676, 41.26873
1961.605, 40.97472
1963.533, 39.82020
1965.462, 39.43441
1967.390, 39.37884
1969.318, 38.54996
1971.247, 37.88763
1973.175, 37.87834
1975.104, 39.25910
1977.032, 40.14243
1978.961, 39.36087
1980.889, 39.22894
1982.818, 39.96536
1984.746, 39.76214
1986.675, 38.85138
1988.603, 38.81816
1990.532, 38.61788
1992.460, 38.01910
1994.389, 38.79760
1996.317, 39.04158
1998.245, 37.45421
2000.174, 37.24958
2002.102, 37.69588
2004.031, 37.23944
2005.959, 37.03472
2007.888, 37.14654
2009.816, 37.47066
2011.745, 38.19242
2013.673, 38.16055
2015.602, 37.69689
2017.530, 37.87856
2019.459, 37.51899
2021.387, 35.96006
2023.316, 36.07763
2025.244, 37.16453
2027.172, 38.12940
2029.101, 38.22991
2031.029, 36.64718
2032.958, 36.07236
2034.886, 36.27374
2036.815, 35.85259
2038.743, 35.88589
2040.672, 36.68254
2042.600, 37.00117
2044.529, 36.95420
2046.457, 36.21418
2048.386, 35.66926
2050.314, 35.89101
2052.243, 35.12548
2054.171, 34.09045
2056.100, 35.93117
2058.028, 37.03790
2059.957, 35.79259
2061.885, 35.47919
2063.813, 35.75029
2065.742, 35.18943
2067.670, 35.04641
2069.599, 35.53852
2071.527, 35.33938
2073.456, 34.88056
2075.384, 34.82632
2077.313, 34.98959
2079.241, 34.81440
2081.170, 34.52328
2083.098, 34.78300
2085.027, 34.23904
2086.955, 33.83781
2088.884, 34.39285
2090.812, 34.33969
2092.740, 33.77797
2094.669, 34.37230
2096.597, 34.48859
2098.526, 33.02449
2100.454, 33.20967
2102.383, 34.04307
2104.311, 33.21121
2106.240, 32.67413
2108.168, 32.92437
2110.097, 32.89634
2112.025, 33.04189
2113.954, 33.89080
2115.882, 34.20325
2117.811, 33.61227
2119.739, 32.87830
2121.667, 32.73184
2123.596, 33.61723
2125.524, 33.60842
2127.453, 32.53218
2129.381, 32.06725
2131.310, 32.02964
2133.238, 32.05918
2135.167, 32.10075
2137.095, 32.39926
2139.024, 32.04218
2140.952, 31.48325
2142.881, 31.58627
2144.809, 31.78319
2146.738, 31.98726
2148.666, 31.64166
2150.594, 31.54180
2152.523, 31.99080
2154.451, 32.28404
2156.380, 31.97619
2158.308, 31.32026
2160.237, 31.45522
2162.165, 32.16643
2164.094, 31.82668
2166.022, 30.66056
2167.951, 29.03009
2169.879, 28.59418
2171.808, 29.73860
2173.736, 30.11216
2175.665, 30.11828
2177.593, 30.27792
2179.521, 30.57798
2181.450, 30.52074
2183.378, 30.27608
2185.307, 30.05914
2187.235, 29.53741
2189.164, 29.43753
2191.092, 29.57560
2193.021, 28.98894
2194.949, 28.07382
2196.878, 27.78850
2198.806, 28.83116
2200.735, 29.56739
2202.663, 29.21518
2204.592, 28.80861
2206.520, 28.49332
2208.448, 27.63694
2210.377, 27.73890
2212.305, 29.61612
2214.234, 29.37165
2216.162, 28.70779
2218.091, 28.94941
2220.019, 28.18646
2221.948, 27.17527
2223.876, 28.06102
2225.805, 28.83434
2227.733, 27.79481
2229.662, 27.73416
2231.590, 28.32421
2233.519, 28.37587
2235.447, 28.12376
2237.375, 27.19945
2239.304, 26.38695
2241.232, 26.19894
2243.161, 27.09153
2245.089, 28.03890
2247.018, 28.73035
2248.946, 28.23035
2250.875, 27.12777
2252.803, 26.58133
2254.732, 27.19214
2256.660, 27.62834
2258.589, 28.24669
2260.517, 28.54656
2262.446, 27.74153
2264.374, 26.87382
2266.302, 26.13847
2268.231, 25.62185
2270.159, 25.63757
2272.088, 25.73182
2274.016, 25.71468
2275.945, 26.19044
2277.873, 26.45754
2279.802, 25.71302
2281.730, 25.71322
2283.659, 26.42187
2285.587, 26.11942
2287.516, 26.17056
2289.444, 26.79122
2291.373, 26.25375
2293.301, 25.40031
2295.229, 24.96453
2297.158, 25.06496
2299.086, 25.46996
2301.015, 24.63418
2302.943, 24.12973
2304.872, 25.22616
2306.800, 25.56693
2308.729, 25.32370
2310.657, 26.45149
2312.586, 27.06462
2314.514, 26.34776
2316.443, 25.02349
2318.371, 23.75038
2320.300, 24.27562
2322.228, 23.91968
2324.156, 23.32985
2326.085, 24.69206
2328.013, 25.54432
2329.942, 25.27558
2331.870, 24.81805
2333.799, 24.48680
2335.727, 24.37706
2337.656, 23.57585
2339.584, 22.76642
2341.513, 23.80725
2343.441, 24.26014
2345.370, 23.49752
2347.298, 22.97493
2349.227, 23.06059
2351.155, 23.66203
2353.083, 22.61540
2355.012, 21.88501
2356.940, 23.27621
2358.869, 23.96576
2360.797, 23.81895
2362.726, 22.64344
2364.654, 22.62208
2366.583, 23.95069
2368.511, 23.50858
2370.440, 22.88011
2372.368, 23.38347
2374.297, 23.30909
2376.225, 22.97474
2378.154, 23.64585
2380.082, 23.44148
2382.010, 22.75879
2383.939, 22.58126
2385.867, 22.29354
2387.796, 21.84609
2389.724, 22.07987
2391.653, 22.17920
2393.581, 21.44328
2395.510, 20.97417
2397.438, 20.97480
2399.367, 22.17889
2401.295, 22.09930
2403.224, 21.33669
2405.152, 22.09435
2407.081, 21.88190
2409.009, 21.26161
2410.938, 21.26261
2412.866, 20.84722
2414.794, 20.01797
2416.723, 21.58196
2418.651, 22.58845
2420.580, 20.03831
2422.508, 19.28544
2424.437, 19.87770
2426.365, 21.43713
2428.294, 21.73375
2430.222, 21.01119
2432.151, 20.57062
2434.079, 20.52333
2436.008, 21.02743
2437.936, 20.82289
2439.865, 20.45833
2441.793, 20.62080
2443.721, 20.28806
2445.650, 19.83967
2447.578, 20.17641
2449.507, 20.07682
2451.435, 20.06320
2453.364, 20.04918
2455.292, 20.57569
2457.221, 21.17024
2459.149, 19.95835
2461.078, 19.61312
2463.006, 19.53671
2464.935, 19.22815
2466.863, 19.47905
2468.792, 19.50246
2470.720, 17.96250
2472.648, 17.38239
2474.577, 17.72782
2476.505, 18.54602
2478.434, 19.07857
2480.362, 18.79477
2482.291, 19.08842
2484.219, 19.40739
2486.148, 19.44882
2488.076, 18.72207
2490.005, 18.02178
2491.933, 18.81451
2493.862, 19.09114
2495.790, 18.92246
2497.719, 19.54903
2499.647, 19.14038
2501.575, 17.93064
2503.504, 19.30230
2505.432, 19.37570
2507.361, 17.85758
2509.289, 18.16611
2511.218, 18.36116
2513.146, 18.13635
2515.075, 17.56468
2517.003, 17.30535
2518.932, 17.47352
2520.860, 17.70561
2522.789, 17.85486
2524.717, 17.21037
2526.646, 17.43928
2528.574, 17.66350
2530.502, 17.40647
2532.431, 17.74098
2534.359, 17.72429
2536.288, 16.42728
2538.216, 16.53371
2540.145, 17.34972
2542.073, 18.28692
2544.002, 17.34045
2545.930, 16.26614
2547.859, 17.79393
2549.787, 17.83902
2551.716, 16.82382
2553.644, 17.49476
2555.573, 17.30616
2557.501, 16.60483
2559.429, 16.56209
2561.358, 16.54545
2563.286, 16.64772
2565.215, 16.78335
2567.143, 17.44495
2569.072, 18.04108
2571.000, 16.37655
2572.929, 15.48714
2574.857, 16.14493
2576.786, 17.45509
2578.714, 17.13854
2580.643, 15.92506
2582.571, 16.35531
2584.500, 16.67561
2586.428, 16.52219
2588.356, 16.65500
2590.285, 16.72900
2592.213, 15.81706
2594.142, 15.31990
2596.070, 15.41150
2597.999, 14.81816
2599.927, 15.05499
2601.856, 15.46389
2603.784, 14.78702
2605.713, 14.89993
2607.641, 15.55641
2609.570, 15.87880
2611.498, 15.60855
2613.427, 15.28907
2615.355, 14.57630
2617.283, 15.44208
2619.212, 15.71388
2621.140, 14.11680
2623.069, 14.14561
2624.997, 14.60232
2626.926, 14.79841
2628.854, 14.55314
2630.783, 14.57202
2632.711, 15.24099
2634.640, 15.32296
2636.568, 14.76472
2638.497, 13.88069
2640.425, 14.28954
2642.354, 14.98132
2644.282, 14.29373
2646.210, 13.27208
2648.139, 13.26189
2650.067, 13.87244
2651.996, 14.02354
2653.924, 14.79526
2655.853, 15.83702
2657.781, 14.05766
2659.710, 13.27400
2661.638, 13.75198
2663.567, 12.90527
2665.495, 12.44632
2667.424, 13.24261
2669.352, 13.73265
2671.281, 14.34138
2673.209, 14.96706
2675.137, 13.99552
2677.066, 13.12989
2678.994, 12.77914
2680.923, 12.05126
2682.851, 11.73562
2684.780, 12.32779
2686.708, 13.74595
2688.637, 14.27381
2690.565, 13.95680
2692.494, 13.98769
2694.422, 13.61553
2696.351, 12.81949
2698.279, 13.25071
2700.208, 13.48665
2702.136, 13.28164
2704.064, 12.98859
2705.993, 11.79128
2707.921, 11.41278
2709.850, 12.93330
2711.778, 13.33527
2713.707, 12.86481
2715.635, 12.86137
2717.564, 12.02705
2719.492, 11.71372
2721.421, 12.41069
2723.349, 12.35437
2725.278, 11.35430
2727.206, 10.58441
2729.135, 10.84539
2731.063, 11.58038
2732.991, 12.36277
2734.920, 13.17636
2736.848, 13.05965
2738.777, 12.04886
2740.705, 11.81805
2742.634, 11.08194
2744.562, 10.87758
2746.491, 12.35557
2748.419, 12.56828
2750.348, 11.87992
2752.276, 12.23507
2754.205, 12.81828
2756.133, 12.40565
2758.062, 11.46184
2759.990, 11.39840
2761.918, 11.82127
2763.847, 11.71503
2765.775, 11.07624
2767.704, 11.84057
2769.632, 12.66453
2771.561, 11.02401
2773.489, 11.07627
2775.418, 11.56790
2777.346, 9.433790
2779.275, 10.39099
2781.203, 11.47070
2783.132, 10.36551
2785.060, 9.739223
2786.989, 9.570553
2788.917, 9.844656
2790.845, 10.53554
2792.774, 10.11073
2794.702, 9.231676
2796.631, 9.843952
2798.559, 9.259762
2800.488, 8.741366
2802.416, 9.604814
2804.345, 9.608812
2806.273, 9.176589
2808.202, 9.541314
2810.130, 10.07375
2812.059, 10.06013
2813.987, 10.08614
2815.916, 10.64637
2817.844, 10.80983
2819.772, 9.950112
2821.701, 9.634069
2823.629, 9.671034
2825.558, 9.932516
2827.486, 10.92633
2829.415, 10.06495
2831.343, 8.937367
2833.272, 9.664840
2835.200, 8.962476
2837.129, 9.001864
2839.057, 10.28742
2840.986, 10.93983
2842.914, 10.05068
2844.843, 9.523404
2846.771, 10.42619
2848.699, 10.35753
2850.628, 10.10083
2852.556, 9.434078
2854.485, 9.874794
2856.413, 9.329906
2858.342, 8.534323
2860.270, 8.611170
2862.199, 9.557436
2864.127, 10.64127
2866.056, 8.833084
2867.984, 9.333068
2869.913, 10.52696
2871.841, 8.526384
2873.770, 9.277282
2875.698, 9.842102
2877.626, 7.908097
2879.555, 8.979837
2881.483, 8.600330
2883.412, 7.561995
2885.340, 9.349072
2887.269, 9.040350
2889.197, 8.485394
2891.126, 7.656541
2893.054, 8.179929
2894.983, 9.734419
2896.911, 10.38597
2898.840, 8.767625
2900.768, 8.207417
2902.697, 8.456277
2904.625, 8.641088
2906.553, 8.095925
2908.482, 7.671905
2910.410, 7.047883
2912.339, 9.014327
2914.267, 9.106479
2916.196, 7.396057
2918.124, 6.659537
2920.053, 7.821322
2921.981, 9.031567
2923.910, 8.102430
2925.838, 8.046573
2927.767, 8.318074
2929.695, 7.575319
2931.624, 7.539358
2933.552, 9.227460
2935.480, 10.49587
2937.409, 8.670038
2939.337, 8.525843
2941.266, 8.120310
2943.194, 6.780810
2945.123, 7.214223
2947.051, 7.240139
2948.980, 7.130553
2950.908, 6.049148
2952.837, 6.144029
2954.765, 6.652624
2956.694, 6.885315
2958.622, 8.289105
2960.551, 8.509577
2962.479, 7.836568
2964.407, 8.245543
2966.336, 7.843230
2968.264, 7.490253
2970.193, 7.450409
2972.121, 7.633694
2974.050, 7.098378
2975.978, 6.683553
2977.907, 7.144614
2979.835, 8.012037
2981.764, 8.076044
2983.692, 7.040221
2985.621, 4.297332
2987.549, 4.977804
2989.478, 6.153270
2991.406, 6.303184
2993.334, 6.134170
2995.263, 5.853904
2997.191, 5.512224
2999.120, 6.933219
3001.048, 6.873645
3002.977, 6.749008
3004.905, 5.923799
3006.834, 7.364867
3008.762, 7.670026
3010.691, 6.122258
3012.619, 6.736496
3014.548, 6.709680
3016.476, 5.508888
3018.405, 4.946705
3020.333, 7.653153
3022.261, 7.406240
3024.190, 5.803048
3026.118, 5.638251
3028.047, 4.986041
3029.975, 4.491846
3031.904, 5.356641
3033.832, 5.461135
3035.761, 5.044380
3037.689, 5.247758
3039.618, 6.174210
3041.546, 4.717369
3043.475, 5.789662
3045.403, 7.856753
3047.332, 6.367407
3049.260, 4.939885
3051.188, 5.626208
3053.117, 6.814391
3055.045, 6.392344
3056.974, 7.108020
3058.902, 7.742579
3060.831, 6.037281
3062.759, 6.259077
3064.688, 4.538474
3066.616, 3.663726
3068.545, 7.002693
3070.473, 5.050224
3072.402, 4.930984
3074.330, 6.447080
3076.259, 4.228290
3078.187, 4.404818
3080.115, 6.142576
3082.044, 7.381640
3083.972, 5.159837
3085.901, 5.592018
3087.829, 6.108273
3089.758, 6.399282
3091.686, 5.751006
3093.615, 4.245745
3095.543, 3.970026
3097.472, 6.029921
3099.400, 5.532832
3101.329, 4.786222
3103.257, 4.415479
3105.186, 4.564895
3107.114, 5.772862
3109.042, 6.096447
3110.971, 4.780892
3112.899, 4.303192
3114.828, 5.181063
3116.756, 5.218894
3118.685, 4.157686
3120.613, 4.719064
3122.542, 5.864881
3124.470, 6.159884
3126.399, 5.235808
3128.327, 4.541574
3130.256, 4.373071
3132.184, 4.951569
3134.113, 5.842124
3136.041, 5.156713
3137.969, 4.642232
3139.898, 4.759755
3141.826, 5.663110
3143.755, 5.165538
3145.683, 4.983928
3147.612, 5.291674
3149.540, 5.657052
3151.469, 5.569346
3153.397, 5.320158
3155.326, 5.639690
3157.254, 5.718347
3159.183, 3.848338
3161.111, 3.411794
3163.040, 4.325565
3164.968, 3.940263
3166.896, 3.890353
3168.825, 4.664271
3170.753, 6.125800
3172.682, 5.803625
3174.610, 5.481150
3176.539, 4.534449
3178.467, 4.099894
3180.396, 4.068765
3182.324, 5.104493
3184.253, 5.788098
3186.181, 4.960101
3188.110, 3.998845
3190.038, 3.944597
3191.967, 4.766829
3193.895, 6.428577
3195.823, 6.183294
3197.752, 5.014919
3199.680, 4.408020
3201.609, 4.396780
3203.537, 4.558973
3205.466, 4.955410
3207.394, 5.113664
3209.323, 4.952878
3211.251, 3.013237
3213.180, 4.644285
3215.108, 5.105641
3217.037, 3.891982
3218.965, 4.280227
3220.894, 5.712328
3222.822, 6.366798
3224.750, 5.301770
3226.679, 6.533185
3228.607, 5.613839
3230.536, 5.421309
3232.464, 5.982916
3234.393, 4.319823
3236.321, 3.324956
3238.250, 3.572469
3240.178, 4.828049
3242.107, 5.449510
3244.035, 5.501995
3245.964, 4.721899
3247.892, 3.817267
3249.821, 4.561340
3251.749, 5.229133
3253.677, 6.115373
3255.606, 5.965063
3257.534, 4.022903
3259.463, 3.005163
3261.391, 4.900826
3263.320, 5.991016
3265.248, 3.922249
3267.177, 6.510554
3269.105, 5.775823
3271.034, 4.051904
3272.962, 3.064767
3274.891, 3.579416
3276.819, 3.742819
3278.748, 3.795066
3280.676, 4.412404
3282.604, 5.667117
3284.533, 3.677442
3286.461, 3.682901
3288.390, 5.626462
3290.318, 6.466504
3292.247, 4.323205
3294.175, 4.322575
3296.104, 5.292867
3298.032, 5.581753
3299.961, 6.650714
3301.889, 5.478868
3303.818, 4.871275
3305.746, 5.972266
3307.675, 3.918612
3309.603, 5.378574
3311.531, 7.384480
3313.460, 7.475881
3315.388, 3.937126
3317.317, 4.862118
3319.245, 4.438937
3321.174, 3.520199
3323.102, 5.113770
3325.031, 4.618072
3326.959, 4.446550
3328.888, 4.350518
3330.816, 4.156205
3332.745, 3.944034
3334.673, 2.205769
3336.602, 1.856250
3338.530, 3.170179
3340.458, 4.562973
3342.387, 7.323184
3344.315, 5.645846
3346.244, 3.243201
3348.172, 3.568410
3350.101, 4.307017
3352.029, 4.949409
3353.958, 5.573495
3355.886, 6.261607
3357.815, 6.548126
3359.743, 4.521622
3361.672, 4.065722
3363.600, 4.629283
3365.529, 4.911787
3367.457, 3.296744
3369.385, 4.877769
3371.314, 5.990407
3373.242, 5.498589
3375.171, 5.131357
3377.099, 7.334586
3379.028, 6.186604
3380.956, 4.049498
3382.885, 4.071900
3384.813, 4.964770
3386.742, 3.856488
3388.670, 4.132121
3390.599, 5.516791
3392.527, 3.939215
3394.456, 3.567804
3396.384, 3.625597
3398.313, 3.437070
3400.241, 3.086161
3402.169, 4.232197
3404.098, 3.680758
3406.026, 3.962035
3407.955, 4.709178
3409.883, 4.270580
3411.812, 3.748910
3413.740, 5.270497
3415.669, 4.868951
3417.597, 2.785230
3419.526, 4.055507
3421.454, 5.042005
3423.383, 4.010669
3425.311, 3.560289
3427.240, 5.045028
3429.168, 4.869799
3431.096, 5.914294
3433.025, 4.908902
3434.953, 3.813079
3436.882, 5.416703
3438.810, 5.029178
3440.739, 2.976166
3442.667, 3.036421
3444.596, 4.248130
3446.524, 2.869818
3448.453, 4.190161
3450.381, 5.343485
3452.310, 4.260208
3454.238, 2.273636
3456.167, 4.461754
3458.095, 7.155649
3460.023, 5.800527
3461.952, 3.972741
3463.880, 4.058558
3465.809, 2.988464
3467.737, 5.567749
3469.666, 5.537612
3471.594, 4.978309
3473.523, 5.732449
3475.451, 2.708325
3477.380, 5.849875
3479.308, 5.734293
3481.237, 3.720953
3483.165, 3.817066
3485.094, 4.287817
3487.022, 3.236666
3488.950, 4.137027
3490.879, 4.824640
3492.807, 3.008381
3494.736, 4.300366
3496.664, 4.477177
3498.593, 3.966725
3500.521, 3.945910
3502.450, 4.741406
3504.378, 3.768590
3506.307, 4.706552
3508.235, 2.783933
3510.164, 0.5030925
3512.092, 1.459952
3514.021, 3.107431
3515.949, 3.191855
3517.877, 4.448082
3519.806, 4.148705
3521.734, 0.8348681
3523.663, 2.920385
3525.591, 3.280728
3527.520, 3.179991
3529.448, 4.203999
3531.377, 5.946213
3533.305, 4.107209
3535.234, 5.279870
3537.162, 6.910296
3539.091, 5.342980
3541.019, 1.937957
3542.948, 4.197181
3544.876, 3.567824
3546.804, 3.359803
3548.733, 2.398707
3550.661, 2.188878
3552.590, 6.121602
3554.518, 4.642514
3556.447, 3.487522
3558.375, 3.841975
3560.304, 4.922532
3562.232, 5.347339
3564.161, 3.484006
3566.089, 2.780718
3568.018, 3.282510
3569.946, 3.112480
3571.875, 1.596904
3573.803, 1.579372
3575.731, 2.060674
3577.660, 2.659496
3579.588, 3.519956
3581.517, 4.625753
3583.445, 5.674225
3585.374, 4.371191
3587.302, 2.469195
3589.231, 4.507617
3591.159, 5.815375
3593.088, 1.352802
3595.016, 4.695691
3596.945, 2.775208
3598.873, 4.693500
3600.802, 6.530926
3602.730, 5.415759
3604.658, 5.735649
3606.587, 6.109784
3608.515, 4.178443
3610.444, 4.999135
3612.372, 5.460502
3614.301, 1.531329
3616.229, 4.916889
3618.158, 5.448703
3620.086, 3.924549
3622.015, 3.947585
3623.943, 4.686129
3625.872, 2.158727
3627.800, 5.433671
3629.729, 3.772525
3631.657, 4.408322
3633.585, 6.517444
3635.514, 6.474050
3637.442, 5.180578
3639.371, 7.302110
3641.299, 4.999464
3643.228, 3.735843
3645.156, 3.931159
3647.085, 2.467185
3649.013, 4.876406
3650.942, 2.290632
3652.870, 2.559548
3654.799, 4.109266
3656.727, 4.811248
3658.656, 5.161931
3660.584, 4.121476
3662.512, 4.775732
3664.441, 2.734321
3666.369, 1.721304
3668.298, 2.749631
3670.226, 1.260483
3672.155, 3.258460
3674.083, 3.867242
3676.012, 3.601074
3677.940, 2.831364
3679.869, 2.256628
3681.797, 3.092015
3683.726, 3.736803
3685.654, 2.531463
3687.583, 2.648141
3689.511, 3.829448
3691.439, 4.299556
3693.368, 3.233257
3695.296, 3.383628
3697.225, 3.384791
3699.153, 4.503294
3701.082, 3.870472
3703.010, 1.750691
3704.939, 2.966398
3706.867, 4.340018
3708.796, 3.036825
3710.724, 2.000394
3712.653, 1.759703
3714.581, 2.090074
3716.510, 3.096879
3718.438, 4.109908
3720.366, 5.382280
3722.295, 5.434039
3724.223, 3.823779
3726.152, 2.192807
3728.080, 2.311351
3730.009, 2.318740
3731.937, 0.7050806
3733.866, 3.044679
3735.794, 3.524546
3737.723, 2.390001
3739.651, 3.059003
3741.580, 4.924392
3743.508, 1.691532
3745.437, 4.281947
3747.365, 2.377824
3749.293, 0.9026176
3751.222, 2.613776
3753.150, 2.450203
3755.079, 4.101482
3757.007, 2.597819
3758.936, 1.756938
3760.864, 1.126866
3762.793, 1.758932
3764.721, 3.718010
3766.650, 2.131852
3768.578, 1.709796
3770.507, 0.3473577
3772.435, 1.090978
3774.364, 2.547181
3776.292, 2.504021
3778.220, 0.9426978
3780.149, 1.720127
3782.077, 0.2817613
3784.006, 2.522645
3785.934, 2.316140
3787.863, 1.265680
3789.791, 2.142743
3791.720, 2.446210
3793.648, 0.6585938
3795.577, 3.221442
3797.505, 3.539729
3799.434, 3.564457
3801.362, 1.982663
3803.291, -0.4808702
3805.219, 2.288500
3807.147, 1.574634
3809.076, 2.767473
3811.004, 2.650188
3812.933, 0.8789674
3814.861, 0.4095039
3816.790, 1.701273
3818.718, 0.8910010
3820.647, 1.180377
3822.575, 0.9099312
3824.504, -1.513738
3826.432, 0.6939038
3828.361, 4.274028
3830.289, 4.402174
3832.218, 2.996516
3834.146, 1.332231
3836.074, 3.227894
3838.003, 2.362108
3839.931, 2.168541
3841.860, 2.003119
3843.788, 1.190719
3845.717, 2.286423
3847.645, 4.245978
3849.574, 1.425221
3851.502, 0.6016143
3853.431, 1.584059
3855.359, 2.132617
3857.288, 1.721873
3859.216, 1.824835
3861.145, 3.988516
3863.073, 3.617786
3865.001, 1.928532
3866.930, 1.748824
3868.858, 2.955525
3870.787, 1.917115
3872.715, -0.4445840
3874.644, 1.578164
3876.572, 4.818326
3878.501, 2.793622
3880.429, 1.350863
3882.358, 0.4137710
3884.286, 1.614383
3886.215, 3.154497
3888.143, 2.221975
3890.072, -0.2608048
3892.000, 0.5758606
3893.928, 2.192594
3895.857, 0.9992834
3897.785, 1.166445
3899.714, 1.360057
3901.642, 1.313219
3903.571, 2.229478
3905.499, 2.246315
3907.428, 2.851812
3909.356, 3.271339
3911.285, 3.634935
3913.213, 3.137173
3915.142, 1.636721
3917.070, 1.034585
3918.999, 2.627927
3920.927, 3.650343
3922.855, -0.5412234
3924.784, 0.5881999
3926.712, 0.7339566
3928.641, 1.399090
3930.569, 1.234682
3932.498, 1.967100
3934.426, 4.300392
3936.355, 4.229640
3938.283, 1.812623
3940.212, 3.959401
3942.140, 2.794677
3944.069, 5.4477990E-02
3945.997, 0.8777927
3947.926, 2.353835
3949.854, 2.842519
3951.782, 3.800950
3953.711, 1.581258
3955.639, 1.042840
3957.568, 2.202701
3959.496, 3.005124
3961.425, 2.816628
3963.353, 4.310958
3965.282, 4.938417
3967.210, 3.340281
3969.139, 2.383329
3971.067, 2.635474
3972.996, 2.292499
3974.924, 3.200598
3976.853, 3.979163
3978.781, 2.063657
3980.709, 0.7985295
3982.638, 0.8623112
3984.566, 1.754367
3986.495, 3.402574
3988.423, 3.276896
3990.352, 1.846019
3992.280, 2.621919
3994.209, 1.721827
3996.137, 2.032770
3998.066, 2.093724
3999.994, 1.637831
4001.923, 2.241909
4003.851, 2.668535
4005.780, 1.753540
4007.708, 0.6096454
4009.636, 0.9825075
4011.565, -0.7346808
4013.493, 1.151096
4015.422, 3.901092
4017.350, 3.380796
4019.279, 3.078672
4021.207, 0.9919922
4023.136, 1.647562
4025.064, 4.803526
4026.993, 3.336156
4028.921, 2.575067
4030.850, 3.050983
4032.778, -1.674801
4034.707, 1.138388
4036.635, 2.500232
4038.563, 3.183313
4040.492, 4.250809
4042.420, 3.826984
4044.349, 2.066127
4046.277, 1.089720
4048.206, -0.6542233
4050.134, 3.275793
4052.063, -1.329586
4053.991, -0.8094500
4055.920, 0.9071717
4057.848, 2.591282
4059.777, 2.068111
4061.705, 2.297058
4063.634, 2.580367
4065.562, -0.1653959
4067.490, 2.181828
4069.419, -0.1343730
4071.347, 5.324883
4073.276, 3.845225
4075.204, -0.4498259
4077.133, 1.603235
4079.061, 2.366726
4080.990, 2.715714
4082.918, 3.172925
4084.847, 2.756395
4086.775, 5.221395
4088.704, 1.847965
4090.632, 3.315205
4092.561, 5.899002
4094.489, 2.771970
4096.417, 2.655389
4098.346, 1.142421
4100.274, 0.6092298
4102.203, 1.435347
4104.131, 2.392341
4106.060, 3.117130
4107.988, 3.241118
4109.917, 4.056056
4111.845, 3.588576
4113.774, 1.787574
4115.702, 0.7582474
4117.631, 3.057208
4119.559, 3.115718
4121.488, 1.851976
4123.416, 0.2006067
4125.345, 0.8381221
4127.273, 2.841447
4129.202, 2.468091
4131.130, 0.2486057
4133.059, -0.9151071
4134.987, 2.235514
4136.916, 6.381482
4138.844, 3.257700
4140.772, 4.387186
4142.701, 2.970075
4144.629, 2.085221
4146.558, 3.499072
4148.486, 2.596936
4150.415, 1.936186
4152.343, 2.993289
4154.271, 2.015833
4156.200, 2.989980
4158.128, 0.3074313
4160.057, -0.6722267
4161.985, 2.240157
4163.914, 4.666808
4165.842, 3.991170
4167.771, 2.957950
4169.699, 1.270346
4171.628, 1.655006
4173.556, 2.097937
4175.485, 2.811184
4177.413, 2.341597
4179.342, -0.5312412
4181.270, 0.7757689
4183.199, 4.094977
4185.127, 2.041844
4187.056, 1.598434
4188.984, 3.948104
4190.913, 2.192158
4192.841, 5.521767
4194.770, 2.764926
4196.698, 1.938185
4198.626, 3.243289
4200.555, 3.215769
4202.483, 2.357445
4204.412, 1.535773
4206.340, 1.964522
4208.269, 3.560502
4210.197, 2.529486
4212.125, 4.324240
4214.054, 3.780019
4215.982, 4.535985
4217.911, 4.688786
4219.839, -1.766452
4221.768, 1.450153
4223.696, 2.255149
4225.625, 1.960256
4227.553, 1.489085
4229.482, 3.433499
4231.410, 3.175917
4233.339, 2.438863
4235.267, 2.241523
4237.196, 0.1060072
4239.124, 1.152605
4241.053, 4.253207
4242.981, -0.6572021
4244.910, 3.048814
4246.838, 3.788001
4248.767, 3.311235
4250.695, 3.393422
4252.624, 4.650107
4254.552, 2.758235
4256.480, 2.434552
4258.409, 3.005204
4260.337, 1.582345
4262.266, 1.909042
4264.194, 0.5235714
4266.123, 1.132728
4268.051, 3.812314
4269.979, 3.409019
4271.908, 3.146631
4273.836, 5.276521
4275.765, 4.385209
4277.693, 2.988634
4279.622, 2.717435
4281.550, 4.044708
4283.479, 1.719414
4285.407, 1.499371
4287.336, 1.287761
4289.264, 5.545131
4291.193, 0.9344095
4293.121, 1.561019
4295.050, 2.454849
4296.978, 2.135316
4298.907, 1.681471
4300.835, 2.777503
4302.764, 2.391502
4304.692, 0.6718275
4306.621, 0.3853227
4308.549, 2.440703
4310.478, 3.509331
4312.406, 2.920838
4314.334, 3.210816
4316.263, 2.426684
4318.191, 2.358176
4320.120, 1.576590
4322.048, 2.477436
4323.977, 2.638953
4325.905, 2.193473
4327.833, 8.3920900E-03
4329.762, 2.897162
4331.690, 3.936354
4333.619, 5.699866
4335.547, 2.486670
4337.476, -0.4112956
##END=



