##NAMES=Nelenite
##RRUFFID=R120148
##IDEAL CHEMISTRY=Mn^2+^_16_As^3+^_3_Si_12_O_36_(OH)_17_
##LOCALITY=Huanggang mine, Inner Mongolia, China
##OWNER=RRUFF
##SOURCE=James Zigras
##DESCRIPTION=Stacks of brown hexagonal plates, associated with sphalerite and calcite
##STATUS=The identification of this mineral is confirmed by single-crystal X-ray diffraction and chemical analysis
##URL=https://www.rruff.net/odr/rruff_sample/R120148
##MEASURED CHEMISTRY=(Mn^2+^_9.44_Fe^2+^_6.02_Mg_0.48_Ca_0.11_)As^3+^_2.95_Si_12_O_36_[(OH)_16.87_Cl_0.08_]
##DIFFRACTION SAMPLE DESCRIPTION=Single crystal, powder profile is calculated
##CELL PARAMETERS=a: 13.412 b: 23.239 c: 7.322 alpha: 90 beta: 105.24 gamma: 90 volume: 2201.8 crystal system: monoclinic
##FILETYPE=Raman RAW
##RAMAN WAVELENGTH=780

7.826855e+001, 9.415750e+001
8.019702e+001, 7.448486e+001
8.212549e+001, 6.710348e+001
8.405396e+001, 7.561427e+001
8.598242e+001, 9.404512e+001
8.791089e+001, 1.152660e+002
8.983936e+001, 1.390233e+002
9.176782e+001, 1.611338e+002
9.369629e+001, 1.743984e+002
9.562476e+001, 1.740063e+002
9.755322e+001, 1.705264e+002
9.948169e+001, 1.657781e+002
1.014102e+002, 1.609524e+002
1.033386e+002, 1.559606e+002
1.052671e+002, 1.520848e+002
1.071956e+002, 1.491626e+002
1.091240e+002, 1.470751e+002
1.110525e+002, 1.459219e+002
1.129810e+002, 1.452347e+002
1.149094e+002, 1.441121e+002
1.168379e+002, 1.424571e+002
1.187664e+002, 1.421020e+002
1.206948e+002, 1.444273e+002
1.226233e+002, 1.465027e+002
1.245518e+002, 1.474575e+002
1.264802e+002, 1.477854e+002
1.284087e+002, 1.484410e+002
1.303372e+002, 1.494155e+002
1.322656e+002, 1.486304e+002
1.341941e+002, 1.446122e+002
1.361226e+002, 1.403942e+002
1.380510e+002, 1.360201e+002
1.399795e+002, 1.321706e+002
1.419080e+002, 1.296051e+002
1.438364e+002, 1.282648e+002
1.457649e+002, 1.268414e+002
1.476934e+002, 1.249185e+002
1.496218e+002, 1.233621e+002
1.515503e+002, 1.222697e+002
1.534788e+002, 1.216418e+002
1.554072e+002, 1.213827e+002
1.573357e+002, 1.215053e+002
1.592642e+002, 1.222491e+002
1.611926e+002, 1.244428e+002
1.631211e+002, 1.260779e+002
1.650496e+002, 1.269210e+002
1.669780e+002, 1.272582e+002
1.689065e+002, 1.271771e+002
1.708350e+002, 1.267600e+002
1.727634e+002, 1.262444e+002
1.746919e+002, 1.252945e+002
1.766204e+002, 1.248776e+002
1.785488e+002, 1.247790e+002
1.804773e+002, 1.254995e+002
1.824058e+002, 1.270198e+002
1.843342e+002, 1.295994e+002
1.862627e+002, 1.338388e+002
1.881912e+002, 1.399782e+002
1.901196e+002, 1.472681e+002
1.920481e+002, 1.556213e+002
1.939766e+002, 1.651983e+002
1.959050e+002, 1.765179e+002
1.978335e+002, 1.888670e+002
1.997620e+002, 2.026507e+002
2.016904e+002, 2.179333e+002
2.036189e+002, 2.294485e+002
2.055474e+002, 2.388818e+002
2.074758e+002, 2.406541e+002
2.094043e+002, 2.303702e+002
2.113328e+002, 2.145541e+002
2.132612e+002, 1.950573e+002
2.151897e+002, 1.734043e+002
2.171182e+002, 1.552969e+002
2.190466e+002, 1.406240e+002
2.209751e+002, 1.288802e+002
2.229036e+002, 1.205181e+002
2.248320e+002, 1.144255e+002
2.267605e+002, 1.105920e+002
2.286890e+002, 1.081342e+002
2.306174e+002, 1.060841e+002
2.325459e+002, 1.044431e+002
2.344744e+002, 1.025693e+002
2.364028e+002, 1.003153e+002
2.383313e+002, 9.828065e+001
2.402598e+002, 9.671896e+001
2.421882e+002, 9.540061e+001
2.441167e+002, 9.414160e+001
2.460452e+002, 9.303220e+001
2.479736e+002, 9.237890e+001
2.499021e+002, 9.218099e+001
2.518306e+002, 9.207990e+001
2.537590e+002, 9.192246e+001
2.556875e+002, 9.198981e+001
2.576160e+002, 9.244580e+001
2.595444e+002, 9.311052e+001
2.614729e+002, 9.368848e+001
2.634014e+002, 9.427724e+001
2.653298e+002, 9.536208e+001
2.672583e+002, 9.707095e+001
2.691868e+002, 9.893063e+001
2.711152e+002, 1.014416e+002
2.730437e+002, 1.033859e+002
2.749722e+002, 1.038762e+002
2.769006e+002, 1.035296e+002
2.788291e+002, 1.034250e+002
2.807576e+002, 1.035212e+002
2.826860e+002, 1.033054e+002
2.846145e+002, 1.025380e+002
2.865430e+002, 1.017669e+002
2.884714e+002, 1.010701e+002
2.903999e+002, 1.004418e+002
2.923284e+002, 9.969221e+001
2.942568e+002, 9.908354e+001
2.961853e+002, 9.914208e+001
2.981138e+002, 9.992833e+001
3.000422e+002, 1.008202e+002
3.019707e+002, 1.012036e+002
3.038992e+002, 1.024392e+002
3.058276e+002, 1.051737e+002
3.077561e+002, 1.085493e+002
3.096846e+002, 1.118867e+002
3.116130e+002, 1.153189e+002
3.135415e+002, 1.191735e+002
3.154700e+002, 1.234873e+002
3.173984e+002, 1.281388e+002
3.193269e+002, 1.330244e+002
3.212554e+002, 1.383316e+002
3.231838e+002, 1.439465e+002
3.251123e+002, 1.501520e+002
3.270408e+002, 1.574724e+002
3.289692e+002, 1.655145e+002
3.308977e+002, 1.733005e+002
3.328262e+002, 1.818440e+002
3.347546e+002, 1.871478e+002
3.366831e+002, 1.896256e+002
3.386116e+002, 1.886132e+002
3.405400e+002, 1.827759e+002
3.424685e+002, 1.743121e+002
3.443970e+002, 1.642685e+002
3.463254e+002, 1.531779e+002
3.482539e+002, 1.427597e+002
3.501824e+002, 1.327482e+002
3.521108e+002, 1.244699e+002
3.540393e+002, 1.183285e+002
3.559678e+002, 1.130238e+002
3.578962e+002, 1.083676e+002
3.598247e+002, 1.042240e+002
3.617532e+002, 1.004167e+002
3.636816e+002, 9.702370e+001
3.656101e+002, 9.424630e+001
3.675386e+002, 9.213042e+001
3.694670e+002, 9.057180e+001
3.713955e+002, 8.965733e+001
3.733240e+002, 8.903320e+001
3.752524e+002, 8.850680e+001
3.771809e+002, 8.840846e+001
3.791094e+002, 8.888535e+001
3.810378e+002, 8.987050e+001
3.829663e+002, 9.131533e+001
3.848948e+002, 9.322641e+001
3.868232e+002, 9.530364e+001
3.887517e+002, 9.749251e+001
3.906802e+002, 1.000597e+002
3.926086e+002, 1.031586e+002
3.945371e+002, 1.064932e+002
3.964656e+002, 1.099186e+002
3.983940e+002, 1.135123e+002
4.003225e+002, 1.174335e+002
4.022510e+002, 1.216003e+002
4.041794e+002, 1.255479e+002
4.061079e+002, 1.292529e+002
4.080364e+002, 1.333547e+002
4.099648e+002, 1.379942e+002
4.118933e+002, 1.428934e+002
4.138218e+002, 1.488954e+002
4.157502e+002, 1.540718e+002
4.176787e+002, 1.577544e+002
4.196072e+002, 1.596615e+002
4.215356e+002, 1.590697e+002
4.234641e+002, 1.561580e+002
4.253926e+002, 1.516676e+002
4.273210e+002, 1.454292e+002
4.292495e+002, 1.388245e+002
4.311780e+002, 1.316620e+002
4.331064e+002, 1.249224e+002
4.350349e+002, 1.188448e+002
4.369634e+002, 1.133655e+002
4.388918e+002, 1.084362e+002
4.408203e+002, 1.041017e+002
4.427488e+002, 1.001657e+002
4.446772e+002, 9.668755e+001
4.466057e+002, 9.471664e+001
4.485342e+002, 9.493874e+001
4.504626e+002, 9.506234e+001
4.523911e+002, 9.459342e+001
4.543196e+002, 9.405711e+001
4.562480e+002, 9.383936e+001
4.581765e+002, 9.349068e+001
4.601050e+002, 9.265008e+001
4.620334e+002, 9.130185e+001
4.639619e+002, 8.917180e+001
4.658904e+002, 8.623093e+001
4.678188e+002, 8.391940e+001
4.697473e+002, 8.266845e+001
4.716758e+002, 8.151630e+001
4.736042e+002, 8.002116e+001
4.755327e+002, 7.903122e+001
4.774612e+002, 7.855852e+001
4.793896e+002, 7.905283e+001
4.813181e+002, 8.109135e+001
4.832466e+002, 8.432625e+001
4.851750e+002, 8.803695e+001
4.871035e+002, 9.215305e+001
4.890320e+002, 9.750649e+001
4.909604e+002, 1.046421e+002
4.928889e+002, 1.122532e+002
4.948174e+002, 1.215661e+002
4.967458e+002, 1.296373e+002
4.986743e+002, 1.362068e+002
5.006028e+002, 1.403162e+002
5.025313e+002, 1.415416e+002
5.044597e+002, 1.398462e+002
5.063882e+002, 1.345523e+002
5.083167e+002, 1.256883e+002
5.102451e+002, 1.162353e+002
5.121736e+002, 1.056240e+002
5.141021e+002, 9.577483e+001
5.160305e+002, 8.631838e+001
5.179590e+002, 7.843044e+001
5.198875e+002, 7.279237e+001
5.218159e+002, 6.838029e+001
5.237444e+002, 6.466418e+001
5.256729e+002, 6.172897e+001
5.276013e+002, 5.994174e+001
5.295298e+002, 5.904973e+001
5.314583e+002, 5.802900e+001
5.333867e+002, 5.683504e+001
5.353152e+002, 5.591510e+001
5.372437e+002, 5.529544e+001
5.391721e+002, 5.485947e+001
5.411006e+002, 5.469516e+001
5.430291e+002, 5.447854e+001
5.449575e+002, 5.391966e+001
5.468860e+002, 5.341603e+001
5.488145e+002, 5.315369e+001
5.507429e+002, 5.313330e+001
5.526714e+002, 5.350291e+001
5.545999e+002, 5.414999e+001
5.565283e+002, 5.435538e+001
5.584568e+002, 5.412246e+001
5.603853e+002, 5.409434e+001
5.623137e+002, 5.437420e+001
5.642422e+002, 5.460967e+001
5.661707e+002, 5.464354e+001
5.680991e+002, 5.474874e+001
5.700276e+002, 5.507383e+001
5.719561e+002, 5.544018e+001
5.738845e+002, 5.560617e+001
5.758130e+002, 5.582359e+001
5.777415e+002, 5.645193e+001
5.796699e+002, 5.745144e+001
5.815984e+002, 5.859741e+001
5.835269e+002, 5.990201e+001
5.854553e+002, 6.154457e+001
5.873838e+002, 6.346304e+001
5.893123e+002, 6.609252e+001
5.912407e+002, 6.910251e+001
5.931692e+002, 7.363449e+001
5.950977e+002, 7.979490e+001
5.970261e+002, 8.769051e+001
5.989546e+002, 9.698194e+001
6.008831e+002, 1.083912e+002
6.028115e+002, 1.237628e+002
6.047400e+002, 1.413751e+002
6.066685e+002, 1.593120e+002
6.085969e+002, 1.765376e+002
6.105254e+002, 1.884166e+002
6.124539e+002, 1.950403e+002
6.143823e+002, 1.925878e+002
6.163108e+002, 1.769340e+002
6.182393e+002, 1.594311e+002
6.201677e+002, 1.391947e+002
6.220962e+002, 1.208495e+002
6.240247e+002, 1.052314e+002
6.259531e+002, 9.272701e+001
6.278816e+002, 8.435234e+001
6.298101e+002, 7.862964e+001
6.317385e+002, 7.434988e+001
6.336670e+002, 7.124361e+001
6.355955e+002, 6.890002e+001
6.375239e+002, 6.729228e+001
6.394524e+002, 6.617929e+001
6.413809e+002, 6.566058e+001
6.433093e+002, 6.526234e+001
6.452378e+002, 6.505759e+001
6.471663e+002, 6.482565e+001
6.490947e+002, 6.452877e+001
6.510232e+002, 6.423844e+001
6.529517e+002, 6.396849e+001
6.548801e+002, 6.371729e+001
6.568086e+002, 6.357442e+001
6.587371e+002, 6.335283e+001
6.606655e+002, 6.285061e+001
6.625940e+002, 6.219398e+001
6.645225e+002, 6.161664e+001
6.664509e+002, 6.108406e+001
6.683794e+002, 6.036987e+001
6.703079e+002, 5.944203e+001
6.722363e+002, 5.868959e+001
6.741648e+002, 5.816335e+001
6.760933e+002, 5.761463e+001
6.780217e+002, 5.703017e+001
6.799502e+002, 5.641161e+001
6.818787e+002, 5.571791e+001
6.838071e+002, 5.507575e+001
6.857356e+002, 5.458454e+001
6.876641e+002, 5.409348e+001
6.895925e+002, 5.339030e+001
6.915210e+002, 5.277808e+001
6.934495e+002, 5.257958e+001
6.953779e+002, 5.263036e+001
6.973064e+002, 5.275019e+001
6.992349e+002, 5.287413e+001
7.011633e+002, 5.260706e+001
7.030918e+002, 5.197880e+001
7.050203e+002, 5.204184e+001
7.069487e+002, 5.285131e+001
7.088772e+002, 5.328702e+001
7.108057e+002, 5.311431e+001
7.127341e+002, 5.327837e+001
7.146626e+002, 5.412069e+001
7.165911e+002, 5.494924e+001
7.185195e+002, 5.543987e+001
7.204480e+002, 5.602393e+001
7.223765e+002, 5.673986e+001
7.243049e+002, 5.774157e+001
7.262334e+002, 5.912152e+001
7.281619e+002, 6.084301e+001
7.300903e+002, 6.306878e+001
7.320188e+002, 6.549277e+001
7.339473e+002, 6.764073e+001
7.358757e+002, 6.952845e+001
7.378042e+002, 7.132520e+001
7.397327e+002, 7.293896e+001
7.416611e+002, 7.395452e+001
7.435896e+002, 7.434556e+001
7.455181e+002, 7.368757e+001
7.474465e+002, 7.179525e+001
7.493750e+002, 6.957653e+001
7.513035e+002, 6.697356e+001
7.532319e+002, 6.446294e+001
7.551604e+002, 6.216953e+001
7.570889e+002, 5.990114e+001
7.590173e+002, 5.734620e+001
7.609458e+002, 5.518105e+001
7.628743e+002, 5.388113e+001
7.648027e+002, 5.288165e+001
7.667312e+002, 5.182542e+001
7.686597e+002, 5.084744e+001
7.705881e+002, 5.014473e+001
7.725166e+002, 4.956086e+001
7.744451e+002, 4.881655e+001
7.763735e+002, 4.805418e+001
7.783020e+002, 4.759234e+001
7.802305e+002, 4.740253e+001
7.821589e+002, 4.736243e+001
7.840874e+002, 4.747711e+001
7.860159e+002, 4.744861e+001
7.879443e+002, 4.714022e+001
7.898728e+002, 4.720295e+001
7.918013e+002, 4.797840e+001
7.937297e+002, 4.845552e+001
7.956582e+002, 4.840417e+001
7.975867e+002, 4.853257e+001
7.995151e+002, 4.903941e+001
8.014436e+002, 4.953062e+001
8.033721e+002, 5.006610e+001
8.053005e+002, 5.025595e+001
8.072290e+002, 4.977720e+001
8.091575e+002, 4.913980e+001
8.110859e+002, 4.864203e+001
8.130144e+002, 4.809057e+001
8.149429e+002, 4.728881e+001
8.168713e+002, 4.643618e+001
8.187998e+002, 4.569269e+001
8.207283e+002, 4.504814e+001
8.226567e+002, 4.454577e+001
8.245852e+002, 4.410429e+001
8.265137e+002, 4.348678e+001
8.284421e+002, 4.277079e+001
8.303706e+002, 4.226184e+001
8.322991e+002, 4.194736e+001
8.342275e+002, 4.177642e+001
8.361560e+002, 4.175739e+001
8.380845e+002, 4.137229e+001
8.400129e+002, 4.058888e+001
8.419414e+002, 4.012840e+001
8.438699e+002, 4.006115e+001
8.457983e+002, 4.008738e+001
8.477268e+002, 4.019917e+001
8.496553e+002, 4.022174e+001
8.515837e+002, 4.009603e+001
8.535122e+002, 3.996969e+001
8.554407e+002, 3.987949e+001
8.573691e+002, 3.978937e+001
8.592976e+002, 3.972966e+001
8.612261e+002, 3.959409e+001
8.631545e+002, 3.928719e+001
8.650830e+002, 3.898750e+001
8.670115e+002, 3.877081e+001
8.689399e+002, 3.857835e+001
8.708684e+002, 3.840462e+001
8.727969e+002, 3.820886e+001
8.747253e+002, 3.790143e+001
8.766538e+002, 3.762238e+001
8.785823e+002, 3.753268e+001
8.805107e+002, 3.752014e+001
8.824392e+002, 3.749796e+001
8.843677e+002, 3.743342e+001
8.862961e+002, 3.720875e+001
8.882246e+002, 3.694804e+001
8.901531e+002, 3.690910e+001
8.920815e+002, 3.699695e+001
8.940100e+002, 3.703401e+001
8.959385e+002, 3.701614e+001
8.978669e+002, 3.691247e+001
8.997954e+002, 3.674853e+001
9.017239e+002, 3.662637e+001
9.036523e+002, 3.655428e+001
9.055808e+002, 3.660145e+001
9.075093e+002, 3.676910e+001
9.094377e+002, 3.685822e+001
9.113662e+002, 3.685461e+001
9.132947e+002, 3.685352e+001
9.152231e+002, 3.688728e+001
9.171516e+002, 3.678418e+001
9.190801e+002, 3.640932e+001
9.210085e+002, 3.626000e+001
9.229370e+002, 3.658055e+001
9.248655e+002, 3.665577e+001
9.267939e+002, 3.622417e+001
9.287224e+002, 3.607518e+001
9.306509e+002, 3.645221e+001
9.325793e+002, 3.669010e+001
9.345078e+002, 3.663416e+001
9.364363e+002, 3.659156e+001
9.383647e+002, 3.660243e+001
9.402932e+002, 3.668005e+001
9.422217e+002, 3.691211e+001
9.441501e+002, 3.700422e+001
9.460786e+002, 3.673584e+001
9.480071e+002, 3.660521e+001
9.499355e+002, 3.686815e+001
9.518640e+002, 3.715394e+001
9.537925e+002, 3.735193e+001
9.557209e+002, 3.745153e+001
9.576494e+002, 3.739476e+001
9.595779e+002, 3.733475e+001
9.615063e+002, 3.734557e+001
9.634348e+002, 3.738311e+001
9.653633e+002, 3.746375e+001
9.672917e+002, 3.751033e+001
9.692202e+002, 3.750028e+001
9.711487e+002, 3.741484e+001
9.730771e+002, 3.704482e+001
9.750056e+002, 3.684164e+001
9.769341e+002, 3.728148e+001
9.788625e+002, 3.780761e+001
9.807910e+002, 3.808179e+001
9.827195e+002, 3.815346e+001
9.846479e+002, 3.778893e+001
9.865764e+002, 3.755659e+001
9.885049e+002, 3.809412e+001
9.904333e+002, 3.888661e+001
9.923618e+002, 3.945692e+001
9.942903e+002, 3.998885e+001
9.962188e+002, 4.073669e+001
9.981472e+002, 4.148600e+001
1.000076e+003, 4.215193e+001
1.002004e+003, 4.253171e+001
1.003933e+003, 4.215098e+001
1.005861e+003, 4.157853e+001
1.007790e+003, 4.125991e+001
1.009718e+003, 4.139591e+001
1.011646e+003, 4.231994e+001
1.013575e+003, 4.377536e+001
1.015503e+003, 4.518695e+001
1.017432e+003, 4.714538e+001
1.019360e+003, 5.047204e+001
1.021289e+003, 5.479673e+001
1.023217e+003, 6.037966e+001
1.025146e+003, 6.596932e+001
1.027074e+003, 7.071612e+001
1.029003e+003, 7.367731e+001
1.030931e+003, 7.348738e+001
1.032860e+003, 7.080962e+001
1.034788e+003, 6.553065e+001
1.036717e+003, 5.919048e+001
1.038645e+003, 5.313270e+001
1.040573e+003, 4.788120e+001
1.042502e+003, 4.427894e+001
1.044430e+003, 4.175554e+001
1.046359e+003, 3.972218e+001
1.048287e+003, 3.820796e+001
1.050216e+003, 3.752269e+001
1.052144e+003, 3.712655e+001
1.054073e+003, 3.629207e+001
1.056001e+003, 3.541910e+001
1.057930e+003, 3.494753e+001
1.059858e+003, 3.475908e+001
1.061787e+003, 3.489359e+001
1.063715e+003, 3.505011e+001
1.065644e+003, 3.488761e+001
1.067572e+003, 3.455561e+001
1.069500e+003, 3.406551e+001
1.071429e+003, 3.364994e+001
1.073357e+003, 3.366702e+001
1.075286e+003, 3.375356e+001
1.077214e+003, 3.348542e+001
1.079143e+003, 3.319971e+001
1.081071e+003, 3.325743e+001
1.083000e+003, 3.338380e+001
1.084928e+003, 3.338758e+001
1.086857e+003, 3.330453e+001
1.088785e+003, 3.306691e+001
1.090714e+003, 3.287373e+001
1.092642e+003, 3.278756e+001
1.094571e+003, 3.290831e+001
1.096499e+003, 3.352108e+001
1.098427e+003, 3.406658e+001
1.100356e+003, 3.413561e+001
1.102284e+003, 3.411895e+001
1.104213e+003, 3.411961e+001
1.106141e+003, 3.425828e+001
1.108070e+003, 3.478140e+001
1.109998e+003, 3.517749e+001
1.111927e+003, 3.526861e+001
1.113855e+003, 3.511792e+001
1.115784e+003, 3.463021e+001
1.117712e+003, 3.409814e+001
1.119641e+003, 3.342035e+001
1.121569e+003, 3.306694e+001
1.123498e+003, 3.344922e+001
1.125426e+003, 3.362307e+001
1.127354e+003, 3.327346e+001
1.129283e+003, 3.286832e+001
1.131211e+003, 3.238010e+001
1.133140e+003, 3.216706e+001
1.135068e+003, 3.244405e+001
1.136997e+003, 3.254661e+001
1.138925e+003, 3.226650e+001
1.140854e+003, 3.219202e+001
1.142782e+003, 3.243673e+001
1.144711e+003, 3.273699e+001
1.146639e+003, 3.311396e+001
1.148568e+003, 3.324799e+001
1.150496e+003, 3.306184e+001
1.152425e+003, 3.313884e+001
1.154353e+003, 3.354394e+001
1.156281e+003, 3.362556e+001
1.158210e+003, 3.335710e+001
1.160138e+003, 3.342091e+001
1.162067e+003, 3.378283e+001
1.163995e+003, 3.356995e+001
1.165924e+003, 3.287621e+001
1.167852e+003, 3.250808e+001
1.169781e+003, 3.238675e+001
1.171709e+003, 3.210680e+001
1.173638e+003, 3.174120e+001
1.175566e+003, 3.148887e+001
1.177495e+003, 3.134581e+001
1.179423e+003, 3.130417e+001
1.181352e+003, 3.136104e+001
1.183280e+003, 3.158897e+001
1.185208e+003, 3.183251e+001
1.187137e+003, 3.188536e+001
1.189065e+003, 3.186505e+001
1.190994e+003, 3.189661e+001
1.192922e+003, 3.188531e+001
1.194851e+003, 3.172677e+001
1.196779e+003, 3.155804e+001
1.198708e+003, 3.147405e+001
1.200636e+003, 3.138273e+001
1.202565e+003, 3.120156e+001
1.204493e+003, 3.109323e+001
1.206422e+003, 3.115347e+001
1.208350e+003, 3.120662e+001
1.210279e+003, 3.118919e+001
1.212207e+003, 3.117949e+001
1.214135e+003, 3.120320e+001
1.216064e+003, 3.118258e+001
1.217992e+003, 3.108922e+001
1.219921e+003, 3.106957e+001
1.221849e+003, 3.114710e+001
1.223778e+003, 3.129328e+001
1.225706e+003, 3.150324e+001
1.227635e+003, 3.145385e+001
1.229563e+003, 3.116635e+001
1.231492e+003, 3.104909e+001
1.233420e+003, 3.108955e+001
1.235349e+003, 3.125014e+001
1.237277e+003, 3.143502e+001
1.239206e+003, 3.127904e+001
1.241134e+003, 3.099944e+001
1.243063e+003, 3.108032e+001
1.244991e+003, 3.125908e+001
1.246919e+003, 3.115069e+001
1.248848e+003, 3.096561e+001
1.250776e+003, 3.090750e+001
1.252705e+003, 3.088056e+001
1.254633e+003, 3.076586e+001
1.256562e+003, 3.073280e+001
1.258490e+003, 3.092222e+001
1.260419e+003, 3.112847e+001
1.262347e+003, 3.134142e+001
1.264276e+003, 3.144396e+001
1.266204e+003, 3.135357e+001
1.268133e+003, 3.127954e+001
1.270061e+003, 3.126472e+001
1.271990e+003, 3.116650e+001
1.273918e+003, 3.094275e+001
1.275846e+003, 3.090354e+001
1.277775e+003, 3.105949e+001
1.279703e+003, 3.110844e+001
1.281632e+003, 3.106999e+001
1.283560e+003, 3.112806e+001
1.285489e+003, 3.124867e+001
1.287417e+003, 3.139274e+001
1.289346e+003, 3.146021e+001
1.291274e+003, 3.114356e+001
1.293203e+003, 3.079450e+001
1.295131e+003, 3.078139e+001
1.297060e+003, 3.090778e+001
1.298988e+003, 3.104898e+001
1.300917e+003, 3.124708e+001
1.302845e+003, 3.162294e+001
1.304773e+003, 3.183725e+001
1.306702e+003, 3.170304e+001
1.308630e+003, 3.156187e+001
1.310559e+003, 3.144803e+001
1.312487e+003, 3.153966e+001
1.314416e+003, 3.192701e+001
1.316344e+003, 3.213624e+001
1.318273e+003, 3.213584e+001
1.320201e+003, 3.212071e+001
1.322130e+003, 3.208927e+001
1.324058e+003, 3.202824e+001
1.325987e+003, 3.195326e+001
1.327915e+003, 3.193691e+001
1.329844e+003, 3.191852e+001
1.331772e+003, 3.173231e+001
1.333700e+003, 3.157507e+001
1.335629e+003, 3.169085e+001
1.337557e+003, 3.184507e+001
1.339486e+003, 3.191231e+001
1.341414e+003, 3.194733e+001
1.343343e+003, 3.193365e+001
1.345271e+003, 3.200693e+001
1.347200e+003, 3.224205e+001
1.349128e+003, 3.227199e+001
1.351057e+003, 3.203035e+001
1.352985e+003, 3.209528e+001
1.354914e+003, 3.245689e+001
1.356842e+003, 3.247286e+001
1.358771e+003, 3.224060e+001
1.360699e+003, 3.219944e+001
1.362627e+003, 3.231379e+001
1.364556e+003, 3.261519e+001
1.366484e+003, 3.290712e+001
1.368413e+003, 3.301109e+001
1.370341e+003, 3.292962e+001
1.372270e+003, 3.238186e+001
1.374198e+003, 3.212305e+001
1.376127e+003, 3.277635e+001
1.378055e+003, 3.319056e+001
1.379984e+003, 3.302332e+001
1.381912e+003, 3.299013e+001
1.383841e+003, 3.316514e+001
1.385769e+003, 3.324415e+001
1.387698e+003, 3.323217e+001
1.389626e+003, 3.337587e+001
1.391554e+003, 3.359724e+001
1.393483e+003, 3.359828e+001
1.395411e+003, 3.353342e+001
1.397340e+003, 3.359855e+001
1.399268e+003, 3.376096e+001
1.401197e+003, 3.413613e+001
1.403125e+003, 3.435654e+001
1.405054e+003, 3.411650e+001
1.406982e+003, 3.391868e+001
1.408911e+003, 3.382113e+001
1.410839e+003, 3.404393e+001
1.412768e+003, 3.479452e+001
1.414696e+003, 3.510954e+001
1.416625e+003, 3.499901e+001
1.418553e+003, 3.506131e+001
1.420481e+003, 3.521735e+001
1.422410e+003, 3.511438e+001
1.424338e+003, 3.500382e+001
1.426267e+003, 3.530013e+001
1.428195e+003, 3.573577e+001
1.430124e+003, 3.624092e+001
1.432052e+003, 3.655804e+001
1.433981e+003, 3.651378e+001
1.435909e+003, 3.649687e+001
1.437838e+003, 3.659214e+001
1.439766e+003, 3.681470e+001
1.441695e+003, 3.716841e+001
1.443623e+003, 3.733795e+001
1.445552e+003, 3.733667e+001
1.447480e+003, 3.722184e+001
1.449408e+003, 3.706014e+001
1.451337e+003, 3.704888e+001
1.453265e+003, 3.697558e+001
1.455194e+003, 3.648940e+001
1.457122e+003, 3.608937e+001
1.459051e+003, 3.611190e+001
1.460979e+003, 3.605553e+001
1.462908e+003, 3.582009e+001
1.464836e+003, 3.544002e+001
1.466765e+003, 3.493913e+001
1.468693e+003, 3.496754e+001
1.470622e+003, 3.536658e+001
1.472550e+003, 3.530735e+001
1.474479e+003, 3.499078e+001
1.476407e+003, 3.469122e+001
1.478335e+003, 3.443222e+001
1.480264e+003, 3.426783e+001
1.482192e+003, 3.409323e+001
1.484121e+003, 3.382898e+001
1.486049e+003, 3.360450e+001
1.487978e+003, 3.344198e+001
1.489906e+003, 3.330401e+001
1.491835e+003, 3.318908e+001
1.493763e+003, 3.311219e+001
1.495692e+003, 3.306300e+001
1.497620e+003, 3.306542e+001
1.499549e+003, 3.300938e+001
1.501477e+003, 3.271934e+001
1.503406e+003, 3.238668e+001
1.505334e+003, 3.203372e+001
1.507262e+003, 3.187191e+001
1.509191e+003, 3.218601e+001
1.511119e+003, 3.213764e+001
1.513048e+003, 3.160353e+001
1.514976e+003, 3.126699e+001
1.516905e+003, 3.111242e+001
1.518833e+003, 3.107626e+001
1.520762e+003, 3.112441e+001
1.522690e+003, 3.128402e+001
1.524619e+003, 3.137056e+001
1.526547e+003, 3.123392e+001
1.528476e+003, 3.105511e+001
1.530404e+003, 3.088120e+001
1.532333e+003, 3.073789e+001
1.534261e+003, 3.062833e+001
1.536189e+003, 3.060918e+001
1.538118e+003, 3.065026e+001
1.540046e+003, 3.055725e+001
1.541975e+003, 3.042899e+001
1.543903e+003, 3.040298e+001
1.545832e+003, 3.046465e+001
1.547760e+003, 3.076249e+001
1.549689e+003, 3.073188e+001
1.551617e+003, 3.011536e+001
1.553546e+003, 2.977408e+001
1.555474e+003, 2.981602e+001
1.557403e+003, 2.972741e+001
1.559331e+003, 2.965538e+001
1.561260e+003, 3.054222e+001
1.563188e+003, 3.139119e+001
1.565116e+003, 3.061843e+001
1.567045e+003, 2.967050e+001
1.568973e+003, 2.925286e+001
1.570902e+003, 2.922909e+001
1.572830e+003, 2.967495e+001
1.574759e+003, 2.960924e+001
1.576687e+003, 2.907883e+001
1.578616e+003, 2.915738e+001
1.580544e+003, 2.949420e+001
1.582473e+003, 2.931488e+001
1.584401e+003, 2.900656e+001
1.586330e+003, 2.886352e+001
1.588258e+003, 2.879812e+001
1.590187e+003, 2.875061e+001
1.592115e+003, 2.887221e+001
1.594043e+003, 2.918077e+001
1.595972e+003, 2.946206e+001
1.597900e+003, 2.963156e+001
1.599829e+003, 2.931564e+001
1.601757e+003, 2.888243e+001
1.603686e+003, 2.878657e+001
1.605614e+003, 2.863418e+001
1.607543e+003, 2.807261e+001
1.609471e+003, 2.776431e+001
1.611400e+003, 2.791244e+001
1.613328e+003, 2.779056e+001
1.615257e+003, 2.748389e+001
1.617185e+003, 2.759507e+001
1.619114e+003, 2.778099e+001
1.621042e+003, 2.747787e+001
1.622970e+003, 2.722964e+001
1.624899e+003, 2.737072e+001
1.626827e+003, 2.746061e+001
1.628756e+003, 2.739216e+001
1.630684e+003, 2.728470e+001
1.632613e+003, 2.715721e+001
1.634541e+003, 2.711197e+001
1.636470e+003, 2.709551e+001
1.638398e+003, 2.698506e+001
1.640327e+003, 2.695090e+001
1.642255e+003, 2.713250e+001
1.644184e+003, 2.718715e+001
1.646112e+003, 2.703461e+001
1.648041e+003, 2.690597e+001
1.649969e+003, 2.677654e+001
1.651897e+003, 2.631348e+001
1.653826e+003, 2.589460e+001
1.655754e+003, 2.620168e+001
1.657683e+003, 2.647429e+001
1.659611e+003, 2.636923e+001
1.661540e+003, 2.620771e+001
1.663468e+003, 2.604090e+001
1.665397e+003, 2.587470e+001
1.667325e+003, 2.571568e+001
1.669254e+003, 2.551694e+001
1.671182e+003, 2.541605e+001
1.673111e+003, 2.567056e+001
1.675039e+003, 2.586915e+001
1.676968e+003, 2.587521e+001
1.678896e+003, 2.571942e+001
1.680824e+003, 2.543337e+001
1.682753e+003, 2.545737e+001
1.684681e+003, 2.563084e+001
1.686610e+003, 2.563604e+001
1.688538e+003, 2.556435e+001
1.690467e+003, 2.547155e+001
1.692395e+003, 2.535997e+001
1.694324e+003, 2.526557e+001
1.696252e+003, 2.489520e+001
1.698181e+003, 2.436400e+001
1.700109e+003, 2.444641e+001
1.702038e+003, 2.470668e+001
1.703966e+003, 2.457756e+001
1.705895e+003, 2.449200e+001
1.707823e+003, 2.473283e+001
1.709751e+003, 2.484374e+001
1.711680e+003, 2.478177e+001
1.713608e+003, 2.480599e+001
1.715537e+003, 2.490315e+001
1.717465e+003, 2.514270e+001
1.719394e+003, 2.526064e+001
1.721322e+003, 2.497023e+001
1.723251e+003, 2.489526e+001
1.725179e+003, 2.526080e+001
1.727108e+003, 2.537116e+001
1.729036e+003, 2.526311e+001
1.730965e+003, 2.514176e+001
1.732893e+003, 2.497411e+001
1.734822e+003, 2.474498e+001
1.736750e+003, 2.439087e+001
1.738678e+003, 2.383628e+001
1.740607e+003, 2.363306e+001
1.742535e+003, 2.377736e+001
1.744464e+003, 2.387565e+001
1.746392e+003, 2.386866e+001
1.748321e+003, 2.352392e+001
1.750249e+003, 2.332753e+001
1.752178e+003, 2.350688e+001
1.754106e+003, 2.356122e+001
1.756035e+003, 2.344684e+001
1.757963e+003, 2.346682e+001
1.759892e+003, 2.350742e+001
1.761820e+003, 2.336613e+001
1.763749e+003, 2.314028e+001
1.765677e+003, 2.276691e+001
1.767605e+003, 2.278638e+001
1.769534e+003, 2.320424e+001
1.771462e+003, 2.303778e+001
1.773391e+003, 2.261425e+001
1.775319e+003, 2.264222e+001
1.777248e+003, 2.269163e+001
1.779176e+003, 2.242064e+001
1.781105e+003, 2.228897e+001
1.783033e+003, 2.234006e+001
1.784962e+003, 2.229166e+001
1.786890e+003, 2.214991e+001
1.788819e+003, 2.180075e+001
1.790747e+003, 2.165178e+001
1.792676e+003, 2.225852e+001
1.794604e+003, 2.238508e+001
1.796532e+003, 2.186736e+001
1.798461e+003, 2.163307e+001
1.800389e+003, 2.160587e+001
1.802318e+003, 2.169442e+001
1.804246e+003, 2.174305e+001
1.806175e+003, 2.167734e+001
1.808103e+003, 2.149318e+001
1.810032e+003, 2.118941e+001
1.811960e+003, 2.103713e+001
1.813889e+003, 2.099914e+001
1.815817e+003, 2.102736e+001
1.817746e+003, 2.110925e+001
1.819674e+003, 2.126961e+001
1.821603e+003, 2.136400e+001
1.823531e+003, 2.136326e+001
1.825459e+003, 2.100032e+001
1.827388e+003, 2.060710e+001
1.829316e+003, 2.079589e+001
1.831245e+003, 2.089933e+001
1.833173e+003, 2.067789e+001
1.835102e+003, 2.059601e+001
1.837030e+003, 2.064743e+001
1.838959e+003, 2.046116e+001
1.840887e+003, 2.029204e+001
1.842816e+003, 2.057299e+001
1.844744e+003, 2.057448e+001
1.846673e+003, 2.011033e+001
1.848601e+003, 2.017459e+001
1.850530e+003, 2.053162e+001
1.852458e+003, 2.025122e+001
1.854386e+003, 1.989001e+001
1.856315e+003, 1.990972e+001
1.858243e+003, 1.983743e+001
1.860172e+003, 1.963079e+001
1.862100e+003, 1.965224e+001
1.864029e+003, 1.976199e+001
1.865957e+003, 1.966982e+001
1.867886e+003, 1.962866e+001
1.869814e+003, 1.979951e+001
1.871743e+003, 1.986969e+001
1.873671e+003, 1.983914e+001
1.875600e+003, 1.980968e+001
1.877528e+003, 1.977407e+001
1.879457e+003, 1.977788e+001
1.881385e+003, 1.961954e+001
1.883313e+003, 1.918488e+001
1.885242e+003, 1.931923e+001
1.887170e+003, 1.968524e+001
1.889099e+003, 1.937198e+001
1.891027e+003, 1.903788e+001
1.892956e+003, 1.907807e+001
1.894884e+003, 1.916545e+001
1.896813e+003, 1.925897e+001
1.898741e+003, 1.918947e+001
1.900670e+003, 1.902824e+001
1.902598e+003, 1.881095e+001
1.904527e+003, 1.865456e+001
1.906455e+003, 1.859422e+001
1.908384e+003, 1.869349e+001
1.910312e+003, 1.883808e+001
1.912240e+003, 1.861362e+001
1.914169e+003, 1.854177e+001
1.916097e+003, 1.897187e+001
1.918026e+003, 1.897953e+001
1.919954e+003, 1.856295e+001
1.921883e+003, 1.851590e+001
1.923811e+003, 1.860842e+001
1.925740e+003, 1.865929e+001
1.927668e+003, 1.862938e+001
1.929597e+003, 1.851088e+001
1.931525e+003, 1.840911e+001
1.933454e+003, 1.833463e+001
1.935382e+003, 1.832330e+001
1.937311e+003, 1.829884e+001
1.939239e+003, 1.823653e+001
1.941167e+003, 1.811175e+001
1.943096e+003, 1.799551e+001
1.945024e+003, 1.819365e+001
1.946953e+003, 1.836009e+001
1.948881e+003, 1.823864e+001
1.950810e+003, 1.800928e+001
1.952738e+003, 1.773260e+001
1.954667e+003, 1.769748e+001
1.956595e+003, 1.777619e+001
1.958524e+003, 1.789728e+001
1.960452e+003, 1.794077e+001
1.962381e+003, 1.788779e+001
1.964309e+003, 1.778543e+001
1.966238e+003, 1.764979e+001
1.968166e+003, 1.744382e+001
1.970094e+003, 1.735415e+001
1.972023e+003, 1.754025e+001
1.973951e+003, 1.728049e+001
1.975880e+003, 1.686460e+001
1.977808e+003, 1.718235e+001
1.979737e+003, 1.742556e+001
1.981665e+003, 1.707998e+001
1.983594e+003, 1.682792e+001
1.985522e+003, 1.670745e+001
1.987451e+003, 1.685841e+001
1.989379e+003, 1.696343e+001
1.991308e+003, 1.677053e+001
1.993236e+003, 1.672951e+001
1.995165e+003, 1.683653e+001
1.997093e+003, 1.659310e+001
1.999021e+003, 1.630292e+001
2.000950e+003, 1.615628e+001
2.002878e+003, 1.628206e+001
2.004807e+003, 1.666465e+001
2.006735e+003, 1.654889e+001
2.008664e+003, 1.627722e+001
2.010592e+003, 1.622027e+001
2.012521e+003, 1.611794e+001
2.014449e+003, 1.592698e+001
2.016378e+003, 1.589630e+001
2.018306e+003, 1.591922e+001
2.020235e+003, 1.587421e+001
2.022163e+003, 1.575930e+001
2.024092e+003, 1.557239e+001
2.026020e+003, 1.517668e+001
2.027948e+003, 1.484060e+001
2.029877e+003, 1.513850e+001
2.031805e+003, 1.520778e+001
2.033734e+003, 1.485724e+001
2.035662e+003, 1.489285e+001
2.037591e+003, 1.508541e+001
2.039519e+003, 1.504294e+001
2.041448e+003, 1.493915e+001
2.043376e+003, 1.482213e+001
2.045305e+003, 1.475300e+001
2.047233e+003, 1.466600e+001
2.049162e+003, 1.437950e+001
2.051090e+003, 1.422017e+001
2.053019e+003, 1.430016e+001
2.054947e+003, 1.426201e+001
2.056875e+003, 1.417053e+001
2.058804e+003, 1.417308e+001
2.060732e+003, 1.409450e+001
2.062661e+003, 1.383863e+001
2.064589e+003, 1.381346e+001
2.066518e+003, 1.391195e+001
2.068446e+003, 1.376750e+001
2.070375e+003, 1.429291e+001
2.072303e+003, 1.599062e+001
2.074232e+003, 1.580191e+001
2.076160e+003, 1.475249e+001
2.078089e+003, 1.410671e+001
2.080017e+003, 1.362316e+001
2.081946e+003, 1.324669e+001
2.083874e+003, 1.324247e+001
2.085802e+003, 1.333305e+001
2.087731e+003, 1.314891e+001
2.089659e+003, 1.312031e+001
2.091588e+003, 1.331987e+001
2.093516e+003, 1.313661e+001
2.095445e+003, 1.288019e+001
2.097373e+003, 1.286808e+001
2.099302e+003, 1.283286e+001
2.101230e+003, 1.273142e+001
2.103159e+003, 1.252711e+001
2.105087e+003, 1.245047e+001
2.107016e+003, 1.276895e+001
2.108944e+003, 1.281017e+001
2.110873e+003, 1.257257e+001
2.112801e+003, 1.238504e+001
2.114729e+003, 1.232888e+001
2.116658e+003, 1.250259e+001
2.118586e+003, 1.245243e+001
2.120515e+003, 1.227241e+001
2.122443e+003, 1.236063e+001
2.124372e+003, 1.238739e+001
2.126300e+003, 1.219357e+001
2.128229e+003, 1.213755e+001
2.130157e+003, 1.215711e+001
2.132086e+003, 1.211929e+001
2.134014e+003, 1.207226e+001
2.135943e+003, 1.203277e+001
2.137871e+003, 1.180687e+001
2.139800e+003, 1.163973e+001
2.141728e+003, 1.199774e+001
2.143656e+003, 1.198974e+001
2.145585e+003, 1.153988e+001
2.147513e+003, 1.140040e+001
2.149442e+003, 1.147487e+001
2.151370e+003, 1.183916e+001
2.153299e+003, 1.176598e+001
2.155227e+003, 1.136860e+001
2.157156e+003, 1.127431e+001
2.159084e+003, 1.131640e+001
2.161013e+003, 1.146754e+001
2.162941e+003, 1.134097e+001
2.164870e+003, 1.112422e+001
2.166798e+003, 1.125741e+001
2.168727e+003, 1.126461e+001
2.170655e+003, 1.102516e+001
2.172583e+003, 1.127695e+001
2.174512e+003, 1.153143e+001
2.176440e+003, 1.125892e+001
2.178369e+003, 1.103132e+001
2.180297e+003, 1.092507e+001
2.182226e+003, 1.086045e+001
2.184154e+003, 1.079259e+001
2.186083e+003, 1.068894e+001
2.188011e+003, 1.074386e+001
2.189940e+003, 1.085684e+001
2.191868e+003, 1.080719e+001
2.193797e+003, 1.068553e+001
2.195725e+003, 1.052839e+001
2.197654e+003, 1.054259e+001
2.199582e+003, 1.058849e+001
2.201510e+003, 1.050464e+001
2.203439e+003, 1.042078e+001
2.205367e+003, 1.038426e+001
2.207296e+003, 1.063156e+001
2.209224e+003, 1.068051e+001
2.211153e+003, 1.021509e+001
2.213081e+003, 1.019113e+001
2.215010e+003, 1.037175e+001
2.216938e+003, 1.038592e+001
2.218867e+003, 1.030494e+001
2.220795e+003, 1.015835e+001
2.222724e+003, 1.000946e+001
2.224652e+003, 9.974966e+000
2.226581e+003, 1.023503e+001
2.228509e+003, 1.023695e+001
2.230438e+003, 1.014351e+001
2.232366e+003, 1.045689e+001
2.234294e+003, 1.067015e+001
2.236223e+003, 1.062364e+001
2.238151e+003, 1.049279e+001
2.240080e+003, 1.041087e+001
2.242008e+003, 1.048357e+001
2.243937e+003, 1.065889e+001
2.245865e+003, 1.083877e+001
2.247794e+003, 1.071314e+001
2.249722e+003, 1.055510e+001
2.251651e+003, 1.045031e+001
2.253579e+003, 1.020658e+001
2.255508e+003, 9.947218e+000
2.257436e+003, 9.678768e+000
2.259365e+003, 1.033945e+001
2.261293e+003, 1.142644e+001
2.263221e+003, 1.065860e+001
2.265150e+003, 9.875311e+000
2.267078e+003, 9.693627e+000
2.269007e+003, 9.639874e+000
2.270935e+003, 9.617884e+000
2.272864e+003, 9.577328e+000
2.274792e+003, 9.449698e+000
2.276721e+003, 9.312829e+000
2.278649e+003, 9.513791e+000
2.280578e+003, 9.515787e+000
2.282506e+003, 9.169811e+000
2.284435e+003, 9.094524e+000
2.286363e+003, 9.177379e+000
2.288292e+003, 9.428915e+000
2.290220e+003, 9.312459e+000
2.292148e+003, 8.994822e+000
2.294077e+003, 8.996393e+000
2.296005e+003, 8.982400e+000
2.297934e+003, 8.858709e+000
2.299862e+003, 8.932819e+000
2.301791e+003, 8.972506e+000
2.303719e+003, 8.721163e+000
2.305648e+003, 8.768506e+000
2.307576e+003, 8.873379e+000
2.309505e+003, 8.458935e+000
2.311433e+003, 8.181627e+000
2.313362e+003, 8.179960e+000
2.315290e+003, 8.515498e+000
2.317219e+003, 8.765371e+000
2.319147e+003, 8.703943e+000
2.321075e+003, 8.554247e+000
2.323004e+003, 8.426542e+000
2.324932e+003, 8.435092e+000
2.326861e+003, 8.517237e+000
2.328789e+003, 8.611704e+000
2.330718e+003, 8.509304e+000
2.332646e+003, 8.470627e+000
2.334575e+003, 8.554800e+000
2.336503e+003, 8.410083e+000
2.338432e+003, 8.261946e+000
2.340360e+003, 8.282409e+000
2.342289e+003, 8.206721e+000
2.344217e+003, 8.121669e+000
2.346146e+003, 8.299101e+000
2.348074e+003, 8.225981e+000
2.350002e+003, 7.959429e+000
2.351931e+003, 8.112200e+000
2.353859e+003, 8.184508e+000
2.355788e+003, 8.009540e+000
2.357716e+003, 8.037211e+000
2.359645e+003, 8.091449e+000
2.361573e+003, 7.996100e+000
2.363502e+003, 7.913499e+000
2.365430e+003, 7.861855e+000
2.367359e+003, 7.860620e+000
2.369287e+003, 7.890232e+000
2.371216e+003, 7.913459e+000
2.373144e+003, 7.668793e+000
2.375073e+003, 7.676848e+000
2.377001e+003, 8.172835e+000
2.378929e+003, 8.166459e+000
2.380858e+003, 7.956362e+000
2.382786e+003, 7.697090e+000
2.384715e+003, 7.689818e+000
2.386643e+003, 7.813732e+000
2.388572e+003, 7.931537e+000
2.390500e+003, 7.865446e+000
2.392429e+003, 7.677767e+000
2.394357e+003, 7.569932e+000
2.396286e+003, 7.643296e+000
2.398214e+003, 7.883193e+000
2.400143e+003, 7.758380e+000
2.402071e+003, 7.551904e+000
2.404000e+003, 7.401931e+000
2.405928e+003, 7.395553e+000
2.407856e+003, 7.507541e+000
2.409785e+003, 7.760110e+000
2.411713e+003, 7.611432e+000
2.413642e+003, 7.306148e+000
2.415570e+003, 7.386052e+000
2.417499e+003, 7.312097e+000
2.419427e+003, 7.134047e+000
2.421356e+003, 7.315106e+000
2.423284e+003, 7.350933e+000
2.425213e+003, 7.177330e+000
2.427141e+003, 7.269063e+000
2.429070e+003, 7.318532e+000
2.430998e+003, 7.183623e+000
2.432927e+003, 7.007408e+000
2.434855e+003, 6.932245e+000
2.436783e+003, 7.180950e+000
2.438712e+003, 7.048094e+000
2.440640e+003, 6.795517e+000
2.442569e+003, 6.798688e+000
2.444497e+003, 6.846524e+000
2.446426e+003, 6.885386e+000
2.448354e+003, 6.852626e+000
2.450283e+003, 6.746340e+000
2.452211e+003, 6.668272e+000
2.454140e+003, 7.282974e+000
2.456068e+003, 7.477207e+000
2.457997e+003, 6.980631e+000
2.459925e+003, 7.040633e+000
2.461854e+003, 6.973775e+000
2.463782e+003, 6.429908e+000
2.465710e+003, 6.412768e+000
2.467639e+003, 6.578657e+000
2.469567e+003, 6.696462e+000
2.471496e+003, 6.557120e+000
2.473424e+003, 6.491021e+000
2.475353e+003, 6.885758e+000
2.477281e+003, 6.824677e+000
2.479210e+003, 6.504941e+000
2.481138e+003, 6.298137e+000
2.483067e+003, 6.179726e+000
2.484995e+003, 6.140961e+000
2.486924e+003, 6.184927e+000
2.488852e+003, 6.269684e+000
2.490781e+003, 6.366878e+000
2.492709e+003, 6.447206e+000
2.494637e+003, 6.387988e+000
2.496566e+003, 6.210146e+000
2.498494e+003, 6.121080e+000
2.500423e+003, 6.092543e+000
2.502351e+003, 6.106226e+000
2.504280e+003, 6.133189e+000
2.506208e+003, 6.202587e+000
2.508137e+003, 6.330237e+000
2.510065e+003, 6.257059e+000
2.511994e+003, 6.210617e+000
2.513922e+003, 6.399579e+000
2.515851e+003, 6.209434e+000
2.517779e+003, 5.981138e+000
2.519708e+003, 6.065394e+000
2.521636e+003, 5.890313e+000
2.523564e+003, 5.777375e+000
2.525493e+003, 6.114511e+000
2.527421e+003, 6.239884e+000
2.529350e+003, 6.206414e+000
2.531278e+003, 6.147529e+000
2.533207e+003, 5.919824e+000
2.535135e+003, 5.709031e+000
2.537064e+003, 5.842857e+000
2.538992e+003, 5.831553e+000
2.540921e+003, 5.729538e+000
2.542849e+003, 5.774577e+000
2.544778e+003, 5.734068e+000
2.546706e+003, 5.636571e+000
2.548635e+003, 5.641060e+000
2.550563e+003, 5.652064e+000
2.552491e+003, 5.669596e+000
2.554420e+003, 5.762128e+000
2.556348e+003, 5.799424e+000
2.558277e+003, 5.773021e+000
2.560205e+003, 5.743165e+000
2.562134e+003, 5.688805e+000
2.564062e+003, 5.617864e+000
2.565991e+003, 5.555136e+000
2.567919e+003, 5.555318e+000
2.569848e+003, 5.603103e+000
2.571776e+003, 5.629237e+000
2.573705e+003, 5.534403e+000
2.575633e+003, 5.365526e+000
2.577562e+003, 5.474598e+000
2.579490e+003, 5.450868e+000
2.581418e+003, 5.253801e+000
2.583347e+003, 5.309236e+000
2.585275e+003, 5.337954e+000
2.587204e+003, 5.274666e+000
2.589132e+003, 5.263076e+000
2.591061e+003, 5.225098e+000
2.592989e+003, 5.143084e+000
2.594918e+003, 5.059199e+000
2.596846e+003, 4.967765e+000
2.598775e+003, 4.886679e+000
2.600703e+003, 4.991015e+000
2.602632e+003, 5.145422e+000
2.604560e+003, 5.269711e+000
2.606489e+003, 5.015806e+000
2.608417e+003, 4.934613e+000
2.610345e+003, 5.097144e+000
2.612274e+003, 4.826187e+000
2.614202e+003, 4.745339e+000
2.616131e+003, 4.947642e+000
2.618059e+003, 4.941233e+000
2.619988e+003, 4.955848e+000
2.621916e+003, 5.018408e+000
2.623845e+003, 4.959398e+000
2.625773e+003, 4.910628e+000
2.627702e+003, 4.871523e+000
2.629630e+003, 4.677156e+000
2.631559e+003, 4.591069e+000
2.633487e+003, 4.642196e+000
2.635416e+003, 4.764562e+000
2.637344e+003, 4.810541e+000
2.639272e+003, 4.794636e+000
2.641201e+003, 4.871566e+000
2.643129e+003, 4.746880e+000
2.645058e+003, 4.539382e+000
2.646986e+003, 4.634809e+000
2.648915e+003, 4.683795e+000
2.650843e+003, 4.679598e+000
2.652772e+003, 4.757854e+000
2.654700e+003, 4.557628e+000
2.656629e+003, 4.335486e+000
2.658557e+003, 4.583651e+000
2.660486e+003, 4.604928e+000
2.662414e+003, 4.481202e+000
2.664343e+003, 4.396718e+000
2.666271e+003, 4.297766e+000
2.668199e+003, 4.246576e+000
2.670128e+003, 4.310507e+000
2.672056e+003, 4.300275e+000
2.673985e+003, 4.210570e+000
2.675913e+003, 4.051733e+000
2.677842e+003, 4.197791e+000
2.679770e+003, 4.304454e+000
2.681699e+003, 4.178239e+000
2.683627e+003, 4.134739e+000
2.685556e+003, 4.066945e+000
2.687484e+003, 3.946320e+000
2.689413e+003, 4.037005e+000
2.691341e+003, 4.109372e+000
2.693270e+003, 4.107167e+000
2.695198e+003, 4.290349e+000
2.697126e+003, 4.119753e+000
2.699055e+003, 3.685060e+000
2.700983e+003, 3.758851e+000
2.702912e+003, 4.002367e+000
2.704840e+003, 4.182653e+000
2.706769e+003, 3.906487e+000
2.708697e+003, 3.641577e+000
2.710626e+003, 3.618561e+000
2.712554e+003, 4.345523e+000
2.714483e+003, 3.932767e+000
2.716411e+003, 3.336017e+000
2.718340e+003, 3.973355e+000
2.720268e+003, 4.190298e+000
2.722197e+003, 4.088315e+000
2.724125e+003, 3.746074e+000
2.726053e+003, 3.855189e+000
2.727982e+003, 3.912769e+000
2.729910e+003, 3.655509e+000
2.731839e+003, 3.770554e+000
2.733767e+003, 3.738489e+000
2.735696e+003, 3.471361e+000
2.737624e+003, 3.630416e+000
2.739553e+003, 3.631198e+000
2.741481e+003, 3.482420e+000
2.743410e+003, 3.600162e+000
2.745338e+003, 3.754103e+000
2.747267e+003, 3.808271e+000
2.749195e+003, 3.559481e+000
2.751124e+003, 3.562396e+000
2.753052e+003, 3.668247e+000
2.754980e+003, 3.704172e+000
2.756909e+003, 3.609151e+000
2.758837e+003, 3.491550e+000
2.760766e+003, 3.413530e+000
2.762694e+003, 3.383037e+000
2.764623e+003, 3.412402e+000
2.766551e+003, 3.457036e+000
2.768480e+003, 3.260982e+000
2.770408e+003, 3.263052e+000
2.772337e+003, 3.426874e+000
2.774265e+003, 3.501001e+000
2.776194e+003, 3.439494e+000
2.778122e+003, 3.328126e+000
2.780051e+003, 3.250829e+000
2.781979e+003, 3.388527e+000
2.783907e+003, 3.446069e+000
2.785836e+003, 3.173424e+000
2.787764e+003, 3.104296e+000
2.789693e+003, 3.097051e+000
2.791621e+003, 3.095900e+000
2.793550e+003, 3.155125e+000
2.795478e+003, 3.141196e+000
2.797407e+003, 3.084624e+000
2.799335e+003, 3.135919e+000
2.801264e+003, 3.081546e+000
2.803192e+003, 3.022794e+000
2.805121e+003, 3.093872e+000
2.807049e+003, 3.155702e+000
2.808978e+003, 3.219574e+000
2.810906e+003, 3.275936e+000
2.812834e+003, 3.062498e+000
2.814763e+003, 2.914041e+000
2.816691e+003, 2.910140e+000
2.818620e+003, 2.892122e+000
2.820548e+003, 3.021488e+000
2.822477e+003, 3.179921e+000
2.824405e+003, 3.121657e+000
2.826334e+003, 3.008941e+000
2.828262e+003, 2.977319e+000
2.830191e+003, 3.119005e+000
2.832119e+003, 3.131112e+000
2.834048e+003, 3.125199e+000
2.835976e+003, 3.122516e+000
2.837905e+003, 2.985148e+000
2.839833e+003, 2.919232e+000
2.841761e+003, 2.935402e+000
2.843690e+003, 3.008680e+000
2.845618e+003, 2.985558e+000
2.847547e+003, 2.923699e+000
2.849475e+003, 2.878474e+000
2.851404e+003, 2.849103e+000
2.853332e+003, 2.667871e+000
2.855261e+003, 2.412105e+000
2.857189e+003, 2.826373e+000
2.859118e+003, 2.817844e+000
2.861046e+003, 2.540894e+000
2.862975e+003, 2.452562e+000
2.864903e+003, 2.648681e+000
2.866832e+003, 2.792443e+000
2.868760e+003, 2.720243e+000
2.870688e+003, 2.783364e+000
2.872617e+003, 2.789069e+000
2.874545e+003, 2.730778e+000
2.876474e+003, 2.793269e+000
2.878402e+003, 2.757084e+000
2.880331e+003, 2.670897e+000
2.882259e+003, 2.607956e+000
2.884188e+003, 2.708108e+000
2.886116e+003, 2.762258e+000
2.888045e+003, 2.696044e+000
2.889973e+003, 2.554663e+000
2.891902e+003, 2.469292e+000
2.893830e+003, 2.471095e+000
2.895759e+003, 2.590524e+000
2.897687e+003, 2.658823e+000
2.899615e+003, 2.693527e+000
2.901544e+003, 2.712076e+000
2.903472e+003, 2.708503e+000
2.905401e+003, 2.767924e+000
2.907329e+003, 2.833658e+000
2.909258e+003, 2.730740e+000
2.911186e+003, 2.715008e+000
2.913115e+003, 2.696454e+000
2.915043e+003, 2.591523e+000
2.916972e+003, 2.789849e+000
2.918900e+003, 2.840410e+000
2.920829e+003, 2.720584e+000
2.922757e+003, 2.779426e+000
2.924686e+003, 2.889149e+000
2.926614e+003, 2.941121e+000
2.928542e+003, 2.872882e+000
2.930471e+003, 2.853700e+000
2.932399e+003, 2.886413e+000
2.934328e+003, 2.918679e+000
2.936256e+003, 2.745730e+000
2.938185e+003, 2.825011e+000
2.940113e+003, 3.002607e+000
2.942042e+003, 3.084805e+000
2.943970e+003, 2.864553e+000
2.945899e+003, 2.870124e+000
2.947827e+003, 3.083835e+000
2.949756e+003, 2.988371e+000
2.951684e+003, 2.861779e+000
2.953613e+003, 2.758958e+000
2.955541e+003, 2.692337e+000
2.957469e+003, 2.778369e+000
2.959398e+003, 2.778965e+000
2.961326e+003, 2.663408e+000
2.963255e+003, 2.520530e+000
2.965183e+003, 2.467632e+000
2.967112e+003, 2.427021e+000
2.969040e+003, 2.330132e+000
2.970969e+003, 2.175457e+000
2.972897e+003, 2.106433e+000
2.974826e+003, 2.119904e+000
2.976754e+003, 2.138572e+000
2.978683e+003, 2.220699e+000
2.980611e+003, 2.240499e+000
2.982540e+003, 2.144045e+000
2.984468e+003, 2.056526e+000
2.986396e+003, 2.095369e+000
2.988325e+003, 2.183917e+000
2.990253e+003, 2.195432e+000
2.992182e+003, 2.153725e+000
2.994110e+003, 2.055046e+000
2.996039e+003, 1.962461e+000
2.997967e+003, 2.127614e+000
2.999896e+003, 2.109854e+000
3.001824e+003, 2.020189e+000
3.003753e+003, 2.004077e+000
3.005681e+003, 2.040740e+000
3.007610e+003, 1.857636e+000
3.009538e+003, 1.617901e+000
3.011467e+003, 1.804129e+000
3.013395e+003, 1.770399e+000
3.015323e+003, 1.691972e+000
3.017252e+003, 1.672720e+000
3.019180e+003, 1.582478e+000
3.021109e+003, 1.659373e+000
3.023037e+003, 1.792086e+000
3.024966e+003, 1.832561e+000
3.026894e+003, 1.787500e+000
3.028823e+003, 1.754640e+000
3.030751e+003, 1.777878e+000
3.032680e+003, 1.875084e+000
3.034608e+003, 2.222019e+000
3.036537e+003, 2.273026e+000
3.038465e+003, 1.859761e+000
3.040394e+003, 1.668688e+000
3.042322e+003, 1.538824e+000
3.044250e+003, 1.470838e+000
3.046179e+003, 1.487116e+000
3.048107e+003, 1.602586e+000
3.050036e+003, 1.748049e+000
3.051964e+003, 1.807174e+000
3.053893e+003, 1.613305e+000
3.055821e+003, 1.361255e+000
3.057750e+003, 1.298926e+000
3.059678e+003, 1.432603e+000
3.061607e+003, 1.540825e+000
3.063535e+003, 1.575006e+000
3.065464e+003, 1.520341e+000
3.067392e+003, 1.403383e+000
3.069321e+003, 1.515304e+000
3.071249e+003, 1.625598e+000
3.073177e+003, 1.637812e+000
3.075106e+003, 1.485874e+000
3.077034e+003, 1.397223e+000
3.078963e+003, 1.352984e+000
3.080891e+003, 1.338851e+000
3.082820e+003, 1.343459e+000
3.084748e+003, 1.302187e+000
3.086677e+003, 1.334402e+000
3.088605e+003, 1.422126e+000
3.090534e+003, 1.380439e+000
3.092462e+003, 1.346890e+000
3.094391e+003, 1.345147e+000
3.096319e+003, 1.355916e+000
3.098248e+003, 1.273150e+000
3.100176e+003, 1.137388e+000
3.102104e+003, 1.122724e+000
3.104033e+003, 1.285187e+000
3.105961e+003, 1.216591e+000
3.107890e+003, 1.281904e+000
3.109818e+003, 1.316472e+000
3.111747e+003, 1.115448e+000
3.113675e+003, 1.200991e+000
3.115604e+003, 1.195940e+000
3.117532e+003, 1.148818e+000
3.119461e+003, 1.279934e+000
3.121389e+003, 1.175924e+000
3.123318e+003, 1.101780e+000
3.125246e+003, 1.085349e+000
3.127175e+003, 1.007409e+000
3.129103e+003, 1.203363e+000
3.131031e+003, 1.313911e+000
3.132960e+003, 1.275575e+000
3.134888e+003, 1.253464e+000
3.136817e+003, 1.155621e+000
3.138745e+003, 1.063375e+000
3.140674e+003, 1.016052e+000
3.142602e+003, 1.011423e+000
3.144531e+003, 9.837878e-001
3.146459e+003, 1.015951e+000
3.148388e+003, 1.105025e+000
3.150316e+003, 1.116161e+000
3.152245e+003, 9.869065e-001
3.154173e+003, 1.013877e+000
3.156102e+003, 1.213018e+000
3.158030e+003, 1.073394e+000
3.159958e+003, 1.113962e+000
3.161887e+003, 1.088623e+000
3.163815e+003, 9.469945e-001
3.165744e+003, 1.094902e+000
3.167672e+003, 1.198736e+000
3.169601e+003, 1.211409e+000
3.171529e+003, 1.140352e+000
3.173458e+003, 9.875067e-001
3.175386e+003, 9.662278e-001
3.177315e+003, 9.877402e-001
3.179243e+003, 9.965584e-001
3.181172e+003, 1.071466e+000
3.183100e+003, 1.082937e+000
3.185029e+003, 9.896975e-001
3.186957e+003, 8.592922e-001
3.188885e+003, 1.013921e+000
3.190814e+003, 9.959306e-001
3.192742e+003, 9.548746e-001
3.194671e+003, 9.703378e-001
3.196599e+003, 9.109485e-001
3.198528e+003, 1.021276e+000
3.200456e+003, 1.096582e+000
3.202385e+003, 1.041064e+000
3.204313e+003, 9.072433e-001
3.206242e+003, 8.061638e-001
3.208170e+003, 8.350398e-001
3.210099e+003, 9.556801e-001
3.212027e+003, 9.970639e-001
3.213956e+003, 1.150772e+000
3.215884e+003, 1.016695e+000
3.217813e+003, 7.172819e-001
3.219741e+003, 7.724850e-001
3.221669e+003, 7.592983e-001
3.223598e+003, 8.157890e-001
3.225526e+003, 8.971340e-001
3.227455e+003, 8.441387e-001
3.229383e+003, 1.005282e+000
3.231312e+003, 1.026897e+000
3.233240e+003, 9.588301e-001
3.235169e+003, 9.646877e-001
3.237097e+003, 8.618010e-001
3.239026e+003, 7.217250e-001
3.240954e+003, 6.573147e-001
3.242883e+003, 7.227178e-001
3.244811e+003, 6.107131e-001
3.246740e+003, 7.885854e-001
3.248668e+003, 9.230001e-001
3.250596e+003, 8.212945e-001
3.252525e+003, 7.979609e-001
3.254453e+003, 8.151060e-001
3.256382e+003, 8.792340e-001
3.258310e+003, 9.614395e-001
3.260239e+003, 9.836259e-001
3.262167e+003, 9.931465e-001
3.264096e+003, 8.327008e-001
3.266024e+003, 6.785247e-001
3.267953e+003, 8.772915e-001
3.269881e+003, 7.476278e-001
3.271810e+003, 7.882071e-001
3.273738e+003, 9.276120e-001
3.275667e+003, 9.459736e-001
3.277595e+003, 7.931793e-001
3.279523e+003, 7.726161e-001
3.281452e+003, 7.463685e-001
3.283380e+003, 6.616498e-001
3.285309e+003, 9.002016e-001
3.287237e+003, 1.024665e+000
3.289166e+003, 1.020004e+000
3.291094e+003, 9.369709e-001
3.293023e+003, 8.373027e-001
3.294951e+003, 7.924616e-001
3.296880e+003, 8.154574e-001
3.298808e+003, 8.568195e-001
3.300737e+003, 8.609454e-001
3.302665e+003, 8.187807e-001
3.304594e+003, 8.675649e-001
3.306522e+003, 9.396880e-001
3.308450e+003, 9.541581e-001
3.310379e+003, 8.124942e-001
3.312307e+003, 8.627543e-001
3.314236e+003, 8.920451e-001
3.316164e+003, 8.883218e-001
3.318093e+003, 9.923072e-001
3.320021e+003, 8.735113e-001
3.321950e+003, 8.097451e-001
3.323878e+003, 8.726870e-001
3.325807e+003, 1.012107e+000
3.327735e+003, 9.594281e-001
3.329664e+003, 8.602953e-001
3.331592e+003, 9.129470e-001
3.333521e+003, 1.049225e+000
3.335449e+003, 9.179484e-001
3.337377e+003, 1.021533e+000
3.339306e+003, 9.464981e-001
3.341234e+003, 8.014754e-001
3.343163e+003, 8.141364e-001
3.345091e+003, 1.079336e+000
3.347020e+003, 1.007604e+000
3.348948e+003, 8.597102e-001
3.350877e+003, 8.467696e-001
3.352805e+003, 9.994245e-001
3.354734e+003, 9.119250e-001
3.356662e+003, 9.484299e-001
3.358591e+003, 9.785058e-001
3.360519e+003, 8.442382e-001
3.362448e+003, 9.302357e-001
3.364376e+003, 1.025412e+000
3.366304e+003, 1.077166e+000
3.368233e+003, 1.063787e+000
3.370161e+003, 9.642977e-001
3.372090e+003, 8.430252e-001
3.374018e+003, 9.457827e-001
3.375947e+003, 1.037397e+000
3.377875e+003, 9.445913e-001
3.379804e+003, 9.451274e-001
3.381732e+003, 8.370026e-001
3.383661e+003, 8.142072e-001
3.385589e+003, 8.966721e-001
3.387518e+003, 9.993009e-001
3.389446e+003, 9.107224e-001
3.391375e+003, 1.080202e+000
3.393303e+003, 1.109764e+000
3.395231e+003, 8.968972e-001
3.397160e+003, 8.218464e-001
3.399088e+003, 8.735367e-001
3.401017e+003, 7.856138e-001
3.402945e+003, 7.437237e-001
3.404874e+003, 8.677815e-001
3.406802e+003, 7.952826e-001
3.408731e+003, 8.064645e-001
3.410659e+003, 7.942747e-001
3.412588e+003, 7.919336e-001
3.414516e+003, 8.532245e-001
3.416445e+003, 6.357908e-001
3.418373e+003, 8.120750e-001
3.420302e+003, 1.007589e+000
3.422230e+003, 9.745463e-001
3.424158e+003, 6.714039e-001
3.426087e+003, 9.464431e-001
3.428015e+003, 1.094714e+000
3.429944e+003, 8.934399e-001
3.431872e+003, 5.739285e-001
3.433801e+003, 7.905876e-001
3.435729e+003, 7.986987e-001
3.437658e+003, 4.427191e-001
3.439586e+003, 3.661256e-001
3.441515e+003, 7.499021e-001
3.443443e+003, 6.930987e-001
3.445372e+003, 7.486579e-001
3.447300e+003, 7.155591e-001
3.449229e+003, 6.394780e-001
3.451157e+003, 6.360357e-001
3.453085e+003, 7.531675e-001
3.455014e+003, 7.023397e-001
3.456942e+003, 6.689557e-001
##END=



