##NAMES=Neptunite
##RRUFFID=R060628
##IDEAL CHEMISTRY=KNa_2_LiFe^2+^_2_Ti_2_Si_8_O_24_
##LOCALITY=California, USA
##OWNER=RRUFF
##SOURCE=Gemological Institute of America
##DESCRIPTION=Black gemstone fragment
##STATUS=The identification of this mineral is confirmed by single-crystal X-ray diffraction and chemical analysis
##URL=https://www.rruff.net/odr/rruff_sample/R060628
##MEASURED CHEMISTRY=(K_0.88_Na_0.12_)Na_2.00_Li_1.00_(Fe^2+^_1.42_Mg_0.39_Mn_0.19_)Ti_2.00_Si_8.00_O_24_ ; Li not measured but estimated by difference and stoichiometry
##DIFFRACTION SAMPLE DESCRIPTION=Single crystal, powder profile is calculated
##CELL PARAMETERS=a: 16.441 b: 12.488 c: 9.983 alpha: 90 beta: 115.577 gamma: 90 volume: 1848.8 crystal system: monoclinic
##FILETYPE=Raman RAW
##RAMAN WAVELENGTH=532

9.839966e+001, 0.000000e+000
1.003281e+002, 3.643459e+002
1.022566e+002, 3.505199e+002
1.041851e+002, 3.470344e+002
1.061135e+002, 3.614343e+002
1.080420e+002, 3.998999e+002
1.099705e+002, 4.382775e+002
1.118989e+002, 4.756819e+002
1.138274e+002, 5.130712e+002
1.157559e+002, 5.491714e+002
1.176843e+002, 5.825131e+002
1.196128e+002, 6.193552e+002
1.215413e+002, 6.619003e+002
1.234697e+002, 7.099832e+002
1.253982e+002, 7.629080e+002
1.273267e+002, 8.310938e+002
1.292551e+002, 9.075043e+002
1.311836e+002, 9.601194e+002
1.331121e+002, 9.804626e+002
1.350405e+002, 9.798026e+002
1.369690e+002, 9.659775e+002
1.388975e+002, 9.234612e+002
1.408259e+002, 8.858965e+002
1.427544e+002, 8.568926e+002
1.446829e+002, 8.375682e+002
1.466113e+002, 8.277552e+002
1.485398e+002, 8.310906e+002
1.504683e+002, 8.444154e+002
1.523967e+002, 8.664551e+002
1.543252e+002, 9.161254e+002
1.562537e+002, 9.571611e+002
1.581821e+002, 9.772538e+002
1.601106e+002, 9.778685e+002
1.620391e+002, 9.749933e+002
1.639675e+002, 9.645941e+002
1.658960e+002, 9.532250e+002
1.678245e+002, 9.529212e+002
1.697529e+002, 9.698929e+002
1.716814e+002, 9.886088e+002
1.736099e+002, 1.004089e+003
1.755383e+002, 1.018024e+003
1.774668e+002, 1.021690e+003
1.793953e+002, 1.007868e+003
1.813237e+002, 9.838466e+002
1.832522e+002, 9.663357e+002
1.851807e+002, 9.620035e+002
1.871091e+002, 9.586725e+002
1.890376e+002, 9.508155e+002
1.909661e+002, 9.348561e+002
1.928945e+002, 9.203412e+002
1.948230e+002, 9.061542e+002
1.967515e+002, 8.937941e+002
1.986799e+002, 8.867560e+002
2.006084e+002, 8.872240e+002
2.025369e+002, 8.919361e+002
2.044653e+002, 9.023484e+002
2.063938e+002, 9.227398e+002
2.083223e+002, 9.351934e+002
2.102507e+002, 9.323463e+002
2.121792e+002, 9.165560e+002
2.141077e+002, 9.001173e+002
2.160361e+002, 8.800551e+002
2.179646e+002, 8.614437e+002
2.198931e+002, 8.478141e+002
2.218215e+002, 8.394384e+002
2.237500e+002, 8.339413e+002
2.256785e+002, 8.306830e+002
2.276069e+002, 8.296631e+002
2.295354e+002, 8.300541e+002
2.314639e+002, 8.330749e+002
2.333923e+002, 8.365836e+002
2.353208e+002, 8.395311e+002
2.372493e+002, 8.427219e+002
2.391777e+002, 8.437181e+002
2.411062e+002, 8.419816e+002
2.430347e+002, 8.374127e+002
2.449631e+002, 8.318057e+002
2.468916e+002, 8.236835e+002
2.488201e+002, 8.155966e+002
2.507485e+002, 8.093395e+002
2.526770e+002, 8.080915e+002
2.546055e+002, 8.048194e+002
2.565339e+002, 7.972820e+002
2.584624e+002, 7.864022e+002
2.603909e+002, 7.768651e+002
2.623193e+002, 7.688642e+002
2.642478e+002, 7.625702e+002
2.661763e+002, 7.581646e+002
2.681047e+002, 7.540218e+002
2.700332e+002, 7.538963e+002
2.719617e+002, 7.600786e+002
2.738901e+002, 7.712004e+002
2.758186e+002, 7.832588e+002
2.777471e+002, 7.963104e+002
2.796755e+002, 8.099550e+002
2.816040e+002, 8.242904e+002
2.835325e+002, 8.401708e+002
2.854609e+002, 8.548631e+002
2.873894e+002, 8.678342e+002
2.893179e+002, 8.792776e+002
2.912463e+002, 8.888542e+002
2.931748e+002, 8.950663e+002
2.951033e+002, 9.005169e+002
2.970317e+002, 9.074801e+002
2.989602e+002, 9.169880e+002
3.008887e+002, 9.230447e+002
3.028171e+002, 9.224027e+002
3.047456e+002, 9.166697e+002
3.066741e+002, 9.122374e+002
3.086025e+002, 9.084386e+002
3.105310e+002, 9.062567e+002
3.124595e+002, 9.081441e+002
3.143879e+002, 9.158441e+002
3.163164e+002, 9.172652e+002
3.182449e+002, 9.072715e+002
3.201733e+002, 8.898265e+002
3.221018e+002, 8.745332e+002
3.240303e+002, 8.608366e+002
3.259587e+002, 8.497062e+002
3.278872e+002, 8.417341e+002
3.298157e+002, 8.372648e+002
3.317441e+002, 8.339346e+002
3.336726e+002, 8.306797e+002
3.356011e+002, 8.286007e+002
3.375295e+002, 8.294324e+002
3.394580e+002, 8.340511e+002
3.413865e+002, 8.396197e+002
3.433149e+002, 8.461091e+002
3.452434e+002, 8.545917e+002
3.471719e+002, 8.579068e+002
3.491003e+002, 8.554093e+002
3.510288e+002, 8.484797e+002
3.529573e+002, 8.382043e+002
3.548857e+002, 8.235673e+002
3.568142e+002, 8.086964e+002
3.587427e+002, 7.947391e+002
3.606711e+002, 7.817997e+002
3.625996e+002, 7.691666e+002
3.645281e+002, 7.585318e+002
3.664565e+002, 7.469900e+002
3.683850e+002, 7.320541e+002
3.703135e+002, 7.119826e+002
3.722419e+002, 6.947246e+002
3.741704e+002, 6.815886e+002
3.760989e+002, 6.720959e+002
3.780273e+002, 6.644196e+002
3.799558e+002, 6.583058e+002
3.818843e+002, 6.541757e+002
3.838127e+002, 6.524407e+002
3.857412e+002, 6.535433e+002
3.876697e+002, 6.547924e+002
3.895981e+002, 6.567183e+002
3.915266e+002, 6.583386e+002
3.934551e+002, 6.582653e+002
3.953835e+002, 6.561193e+002
3.973120e+002, 6.531147e+002
3.992405e+002, 6.497571e+002
4.011689e+002, 6.460786e+002
4.030974e+002, 6.411895e+002
4.050259e+002, 6.327195e+002
4.069543e+002, 6.248865e+002
4.088828e+002, 6.210780e+002
4.108113e+002, 6.219097e+002
4.127397e+002, 6.230517e+002
4.146682e+002, 6.243192e+002
4.165967e+002, 6.253197e+002
4.185251e+002, 6.245089e+002
4.204536e+002, 6.209071e+002
4.223821e+002, 6.167809e+002
4.243105e+002, 6.128923e+002
4.262390e+002, 6.092148e+002
4.281675e+002, 6.051783e+002
4.300959e+002, 6.004875e+002
4.320244e+002, 5.954371e+002
4.339529e+002, 5.902276e+002
4.358813e+002, 5.845528e+002
4.378098e+002, 5.792396e+002
4.397383e+002, 5.749026e+002
4.416667e+002, 5.711954e+002
4.435952e+002, 5.668895e+002
4.455237e+002, 5.610558e+002
4.474521e+002, 5.553096e+002
4.493806e+002, 5.500969e+002
4.513091e+002, 5.453015e+002
4.532375e+002, 5.418440e+002
4.551660e+002, 5.409465e+002
4.570945e+002, 5.411474e+002
4.590229e+002, 5.407672e+002
4.609514e+002, 5.377916e+002
4.628799e+002, 5.363749e+002
4.648083e+002, 5.373821e+002
4.667368e+002, 5.406839e+002
4.686653e+002, 5.449278e+002
4.705938e+002, 5.494765e+002
4.725222e+002, 5.556974e+002
4.744507e+002, 5.642361e+002
4.763792e+002, 5.759825e+002
4.783076e+002, 5.889221e+002
4.802361e+002, 6.035418e+002
4.821646e+002, 6.192484e+002
4.840930e+002, 6.357047e+002
4.860215e+002, 6.548904e+002
4.879500e+002, 6.706725e+002
4.898784e+002, 6.822119e+002
4.918069e+002, 6.892284e+002
4.937354e+002, 6.907516e+002
4.956638e+002, 6.856071e+002
4.975923e+002, 6.763509e+002
4.995208e+002, 6.633926e+002
5.014492e+002, 6.462413e+002
5.033777e+002, 6.300055e+002
5.053062e+002, 6.140258e+002
5.072346e+002, 5.999031e+002
5.091631e+002, 5.904557e+002
5.110916e+002, 5.862575e+002
5.130200e+002, 5.848370e+002
5.149485e+002, 5.872148e+002
5.168770e+002, 5.922512e+002
5.188054e+002, 5.965749e+002
5.207339e+002, 5.968925e+002
5.226624e+002, 5.990673e+002
5.245908e+002, 6.054299e+002
5.265193e+002, 6.162468e+002
5.284478e+002, 6.300579e+002
5.303762e+002, 6.484951e+002
5.323047e+002, 6.690379e+002
5.342332e+002, 6.891940e+002
5.361616e+002, 7.075901e+002
5.380901e+002, 7.280266e+002
5.400186e+002, 7.538251e+002
5.419470e+002, 7.820414e+002
5.438755e+002, 8.046327e+002
5.458040e+002, 8.200298e+002
5.477324e+002, 8.327634e+002
5.496609e+002, 8.448760e+002
5.515894e+002, 8.566672e+002
5.535178e+002, 8.664380e+002
5.554463e+002, 8.763013e+002
5.573748e+002, 8.830328e+002
5.593032e+002, 8.842691e+002
5.612317e+002, 8.806415e+002
5.631602e+002, 8.710424e+002
5.650886e+002, 8.511797e+002
5.670171e+002, 8.263118e+002
5.689456e+002, 8.023195e+002
5.708740e+002, 7.781135e+002
5.728025e+002, 7.560285e+002
5.747310e+002, 7.355757e+002
5.766594e+002, 7.177294e+002
5.785879e+002, 7.045040e+002
5.805164e+002, 6.978505e+002
5.824448e+002, 6.940287e+002
5.843733e+002, 6.924003e+002
5.863018e+002, 6.937856e+002
5.882302e+002, 6.923258e+002
5.901587e+002, 6.868838e+002
5.920872e+002, 6.795914e+002
5.940156e+002, 6.720880e+002
5.959441e+002, 6.646859e+002
5.978726e+002, 6.553048e+002
5.998010e+002, 6.419514e+002
6.017295e+002, 6.269797e+002
6.036580e+002, 6.131724e+002
6.055864e+002, 5.989084e+002
6.075149e+002, 5.879011e+002
6.094434e+002, 5.824307e+002
6.113718e+002, 5.806375e+002
6.133003e+002, 5.786194e+002
6.152288e+002, 5.754885e+002
6.171572e+002, 5.730731e+002
6.190857e+002, 5.716428e+002
6.210142e+002, 5.712844e+002
6.229426e+002, 5.728889e+002
6.248711e+002, 5.774861e+002
6.267996e+002, 5.830994e+002
6.287280e+002, 5.887937e+002
6.306565e+002, 5.945553e+002
6.325850e+002, 6.005652e+002
6.345134e+002, 6.067516e+002
6.364419e+002, 6.132624e+002
6.383704e+002, 6.200867e+002
6.402988e+002, 6.267145e+002
6.422273e+002, 6.348692e+002
6.441558e+002, 6.453565e+002
6.460842e+002, 6.573672e+002
6.480127e+002, 6.699095e+002
6.499412e+002, 6.837808e+002
6.518696e+002, 6.966606e+002
6.537981e+002, 7.079389e+002
6.557266e+002, 7.178301e+002
6.576550e+002, 7.273672e+002
6.595835e+002, 7.372455e+002
6.615120e+002, 7.460900e+002
6.634404e+002, 7.533725e+002
6.653689e+002, 7.593061e+002
6.672974e+002, 7.643840e+002
6.692258e+002, 7.665013e+002
6.711543e+002, 7.696353e+002
6.730828e+002, 7.758445e+002
6.750112e+002, 7.856854e+002
6.769397e+002, 7.944649e+002
6.788682e+002, 7.990356e+002
6.807966e+002, 8.047539e+002
6.827251e+002, 8.150955e+002
6.846536e+002, 8.312052e+002
6.865820e+002, 8.468998e+002
6.885105e+002, 8.605692e+002
6.904390e+002, 8.740634e+002
6.923674e+002, 8.899031e+002
6.942959e+002, 9.096937e+002
6.962244e+002, 9.271707e+002
6.981528e+002, 9.440961e+002
7.000813e+002, 9.568744e+002
7.020098e+002, 9.605311e+002
7.039382e+002, 9.510976e+002
7.058667e+002, 9.384893e+002
7.077952e+002, 9.218761e+002
7.097236e+002, 9.034894e+002
7.116521e+002, 8.891453e+002
7.135806e+002, 8.791751e+002
7.155090e+002, 8.719221e+002
7.174375e+002, 8.678328e+002
7.193660e+002, 8.660801e+002
7.212944e+002, 8.646335e+002
7.232229e+002, 8.669043e+002
7.251514e+002, 8.655755e+002
7.270798e+002, 8.562372e+002
7.290083e+002, 8.394836e+002
7.309368e+002, 8.271389e+002
7.328652e+002, 8.211612e+002
7.347937e+002, 8.173867e+002
7.367222e+002, 8.133721e+002
7.386506e+002, 8.091638e+002
7.405791e+002, 8.081796e+002
7.425076e+002, 8.126925e+002
7.444360e+002, 8.187764e+002
7.463645e+002, 8.248505e+002
7.482930e+002, 8.309426e+002
7.502214e+002, 8.371087e+002
7.521499e+002, 8.436409e+002
7.540784e+002, 8.500598e+002
7.560068e+002, 8.557333e+002
7.579353e+002, 8.603281e+002
7.598638e+002, 8.666840e+002
7.617922e+002, 8.763525e+002
7.637207e+002, 8.869922e+002
7.656492e+002, 8.968906e+002
7.675776e+002, 9.056617e+002
7.695061e+002, 9.148048e+002
7.714346e+002, 9.266068e+002
7.733630e+002, 9.371143e+002
7.752915e+002, 9.429082e+002
7.772200e+002, 9.423018e+002
7.791484e+002, 9.427562e+002
7.810769e+002, 9.439889e+002
7.830054e+002, 9.475120e+002
7.849338e+002, 9.551762e+002
7.868623e+002, 9.673509e+002
7.887908e+002, 9.828521e+002
7.907192e+002, 1.001080e+003
7.926477e+002, 1.023265e+003
7.945762e+002, 1.048722e+003
7.965046e+002, 1.074783e+003
7.984331e+002, 1.112825e+003
8.003616e+002, 1.159488e+003
8.022900e+002, 1.219837e+003
8.042185e+002, 1.299815e+003
8.061470e+002, 1.384762e+003
8.080754e+002, 1.515938e+003
8.100039e+002, 1.681594e+003
8.119324e+002, 1.909745e+003
8.138608e+002, 2.222631e+003
8.157893e+002, 2.623405e+003
8.177178e+002, 3.106928e+003
8.196462e+002, 3.743853e+003
8.215747e+002, 4.432750e+003
8.235032e+002, 5.020606e+003
8.254316e+002, 5.536524e+003
8.273601e+002, 5.909997e+003
8.292886e+002, 6.074413e+003
8.312170e+002, 6.104310e+003
8.331455e+002, 6.127100e+003
8.350740e+002, 6.175271e+003
8.370024e+002, 6.116117e+003
8.389309e+002, 5.924826e+003
8.408594e+002, 5.610838e+003
8.427878e+002, 5.177280e+003
8.447163e+002, 4.479522e+003
8.466448e+002, 3.843145e+003
8.485732e+002, 3.265135e+003
8.505017e+002, 2.767508e+003
8.524302e+002, 2.372728e+003
8.543586e+002, 2.088087e+003
8.562871e+002, 1.867960e+003
8.582156e+002, 1.720726e+003
8.601440e+002, 1.621168e+003
8.620725e+002, 1.543905e+003
8.640010e+002, 1.501032e+003
8.659294e+002, 1.464506e+003
8.678579e+002, 1.436055e+003
8.697864e+002, 1.411783e+003
8.717148e+002, 1.387002e+003
8.736433e+002, 1.361563e+003
8.755718e+002, 1.336145e+003
8.775002e+002, 1.310754e+003
8.794287e+002, 1.285594e+003
8.813572e+002, 1.260711e+003
8.832856e+002, 1.235325e+003
8.852141e+002, 1.212525e+003
8.871426e+002, 1.192139e+003
8.890710e+002, 1.174571e+003
8.909995e+002, 1.160945e+003
8.929280e+002, 1.151811e+003
8.948564e+002, 1.142960e+003
8.967849e+002, 1.134628e+003
8.987134e+002, 1.125708e+003
9.006418e+002, 1.115346e+003
9.025703e+002, 1.103321e+003
9.044988e+002, 1.090802e+003
9.064272e+002, 1.079137e+003
9.083557e+002, 1.065926e+003
9.102842e+002, 1.048795e+003
9.122126e+002, 1.026374e+003
9.141411e+002, 1.006161e+003
9.160696e+002, 9.888011e+002
9.179980e+002, 9.732705e+002
9.199265e+002, 9.580557e+002
9.218550e+002, 9.434465e+002
9.237834e+002, 9.338130e+002
9.257119e+002, 9.286370e+002
9.276404e+002, 9.304737e+002
9.295688e+002, 9.412363e+002
9.314973e+002, 9.611132e+002
9.334258e+002, 9.852794e+002
9.353542e+002, 1.017657e+003
9.372827e+002, 1.049652e+003
9.392112e+002, 1.081177e+003
9.411396e+002, 1.109839e+003
9.430681e+002, 1.128730e+003
9.449966e+002, 1.135685e+003
9.469250e+002, 1.134915e+003
9.488535e+002, 1.123401e+003
9.507820e+002, 1.105557e+003
9.527104e+002, 1.094407e+003
9.546389e+002, 1.097123e+003
9.565674e+002, 1.097927e+003
9.584958e+002, 1.094986e+003
9.604243e+002, 1.089099e+003
9.623528e+002, 1.081196e+003
9.642813e+002, 1.070526e+003
9.662097e+002, 1.061187e+003
9.681382e+002, 1.052790e+003
9.700667e+002, 1.047376e+003
9.719951e+002, 1.046782e+003
9.739236e+002, 1.050871e+003
9.758521e+002, 1.060515e+003
9.777805e+002, 1.078110e+003
9.797090e+002, 1.098639e+003
9.816375e+002, 1.118255e+003
9.835659e+002, 1.136347e+003
9.854944e+002, 1.156472e+003
9.874229e+002, 1.177249e+003
9.893513e+002, 1.201441e+003
9.912798e+002, 1.231898e+003
9.932083e+002, 1.267677e+003
9.951367e+002, 1.303606e+003
9.970652e+002, 1.341419e+003
9.989937e+002, 1.376795e+003
1.000922e+003, 1.408727e+003
1.002851e+003, 1.437246e+003
1.004779e+003, 1.461378e+003
1.006708e+003, 1.482172e+003
1.008636e+003, 1.497423e+003
1.010564e+003, 1.506237e+003
1.012493e+003, 1.508612e+003
1.014421e+003, 1.505975e+003
1.016350e+003, 1.498727e+003
1.018278e+003, 1.485074e+003
1.020207e+003, 1.466826e+003
1.022135e+003, 1.440281e+003
1.024064e+003, 1.399625e+003
1.025992e+003, 1.338191e+003
1.027921e+003, 1.281256e+003
1.029849e+003, 1.227807e+003
1.031778e+003, 1.180426e+003
1.033706e+003, 1.141304e+003
1.035635e+003, 1.110749e+003
1.037563e+003, 1.084697e+003
1.039491e+003, 1.064535e+003
1.041420e+003, 1.046935e+003
1.043348e+003, 1.030305e+003
1.045277e+003, 1.014852e+003
1.047205e+003, 1.002191e+003
1.049134e+003, 9.942543e+002
1.051062e+003, 9.861187e+002
1.052991e+003, 9.754998e+002
1.054919e+003, 9.643279e+002
1.056848e+003, 9.560026e+002
1.058776e+003, 9.508333e+002
1.060705e+003, 9.484400e+002
1.062633e+003, 9.516458e+002
1.064562e+003, 9.558107e+002
1.066490e+003, 9.566160e+002
1.068418e+003, 9.540886e+002
1.070347e+003, 9.497454e+002
1.072275e+003, 9.415223e+002
1.074204e+003, 9.339727e+002
1.076132e+003, 9.294789e+002
1.078061e+003, 9.279915e+002
1.079989e+003, 9.271015e+002
1.081918e+003, 9.298250e+002
1.083846e+003, 9.296286e+002
1.085775e+003, 9.271303e+002
1.087703e+003, 9.204990e+002
1.089632e+003, 9.040436e+002
1.091560e+003, 8.752435e+002
1.093489e+003, 8.455614e+002
1.095417e+003, 8.153475e+002
1.097345e+003, 7.866408e+002
1.099274e+003, 7.605069e+002
1.101202e+003, 7.368723e+002
1.103131e+003, 7.171588e+002
1.105059e+003, 7.023903e+002
1.106988e+003, 6.910109e+002
1.108916e+003, 6.823074e+002
1.110845e+003, 6.762774e+002
1.112773e+003, 6.737061e+002
1.114702e+003, 6.756589e+002
1.116630e+003, 6.793828e+002
1.118559e+003, 6.853240e+002
1.120487e+003, 6.923655e+002
1.122416e+003, 6.987466e+002
1.124344e+003, 7.045667e+002
1.126272e+003, 7.094320e+002
1.128201e+003, 7.124896e+002
1.130129e+003, 7.152832e+002
1.132058e+003, 7.197194e+002
1.133986e+003, 7.259117e+002
1.135915e+003, 7.290269e+002
1.137843e+003, 7.269617e+002
1.139772e+003, 7.234580e+002
1.141700e+003, 7.194343e+002
1.143629e+003, 7.148496e+002
1.145557e+003, 7.095906e+002
1.147486e+003, 7.041218e+002
1.149414e+003, 6.972781e+002
1.151343e+003, 6.874142e+002
1.153271e+003, 6.770254e+002
1.155199e+003, 6.689828e+002
1.157128e+003, 6.632850e+002
1.159056e+003, 6.571100e+002
1.160985e+003, 6.488764e+002
1.162913e+003, 6.415977e+002
1.164842e+003, 6.371036e+002
1.166770e+003, 6.349548e+002
1.168699e+003, 6.322946e+002
1.170627e+003, 6.281135e+002
1.172556e+003, 6.250609e+002
1.174484e+003, 6.241844e+002
1.176413e+003, 6.243397e+002
1.178341e+003, 6.242120e+002
1.180270e+003, 6.238700e+002
1.182198e+003, 6.227174e+002
1.184126e+003, 6.198983e+002
1.186055e+003, 6.169295e+002
1.187983e+003, 6.147493e+002
1.189912e+003, 6.130865e+002
1.191840e+003, 6.109906e+002
1.193769e+003, 6.082220e+002
1.195697e+003, 6.056744e+002
1.197626e+003, 6.039883e+002
1.199554e+003, 6.026423e+002
1.201483e+003, 6.009587e+002
1.203411e+003, 5.987479e+002
1.205340e+003, 5.971620e+002
1.207268e+003, 5.967903e+002
1.209197e+003, 5.964335e+002
1.211125e+003, 5.950272e+002
1.213053e+003, 5.928377e+002
1.214982e+003, 5.921396e+002
1.216910e+003, 5.943510e+002
1.218839e+003, 5.952504e+002
1.220767e+003, 5.921296e+002
1.222696e+003, 5.884266e+002
1.224624e+003, 5.882137e+002
1.226553e+003, 5.915114e+002
1.228481e+003, 5.945115e+002
1.230410e+003, 5.978547e+002
1.232338e+003, 5.992637e+002
1.234267e+003, 5.965028e+002
1.236195e+003, 5.910605e+002
1.238124e+003, 5.879414e+002
1.240052e+003, 5.882115e+002
1.241980e+003, 5.885462e+002
1.243909e+003, 5.882395e+002
1.245837e+003, 5.879313e+002
1.247766e+003, 5.883832e+002
1.249694e+003, 5.897477e+002
1.251623e+003, 5.901399e+002
1.253551e+003, 5.891990e+002
1.255480e+003, 5.878463e+002
1.257408e+003, 5.856432e+002
1.259337e+003, 5.834465e+002
1.261265e+003, 5.829156e+002
1.263194e+003, 5.843527e+002
1.265122e+003, 5.849169e+002
1.267051e+003, 5.832736e+002
1.268979e+003, 5.814898e+002
1.270907e+003, 5.809333e+002
1.272836e+003, 5.813119e+002
1.274764e+003, 5.809933e+002
1.276693e+003, 5.791523e+002
1.278621e+003, 5.782206e+002
1.280550e+003, 5.796073e+002
1.282478e+003, 5.814002e+002
1.284407e+003, 5.815131e+002
1.286335e+003, 5.794164e+002
1.288264e+003, 5.786279e+002
1.290192e+003, 5.810541e+002
1.292121e+003, 5.823710e+002
1.294049e+003, 5.801229e+002
1.295978e+003, 5.762278e+002
1.297906e+003, 5.743214e+002
1.299834e+003, 5.746628e+002
1.301763e+003, 5.750226e+002
1.303691e+003, 5.751132e+002
1.305620e+003, 5.750628e+002
1.307548e+003, 5.749003e+002
1.309477e+003, 5.746678e+002
1.311405e+003, 5.745880e+002
1.313334e+003, 5.750032e+002
1.315262e+003, 5.746361e+002
1.317191e+003, 5.717789e+002
1.319119e+003, 5.691774e+002
1.321048e+003, 5.691226e+002
1.322976e+003, 5.717755e+002
1.324905e+003, 5.736412e+002
1.326833e+003, 5.745646e+002
1.328761e+003, 5.747926e+002
1.330690e+003, 5.739891e+002
1.332618e+003, 5.726953e+002
1.334547e+003, 5.713215e+002
1.336475e+003, 5.696151e+002
1.338404e+003, 5.693427e+002
1.340332e+003, 5.714958e+002
1.342261e+003, 5.739651e+002
1.344189e+003, 5.758073e+002
1.346118e+003, 5.775787e+002
1.348046e+003, 5.803856e+002
1.349975e+003, 5.843846e+002
1.351903e+003, 5.877490e+002
1.353832e+003, 5.895061e+002
1.355760e+003, 5.913799e+002
1.357688e+003, 5.947018e+002
1.359617e+003, 5.987920e+002
1.361545e+003, 6.017126e+002
1.363474e+003, 6.027955e+002
1.365402e+003, 6.048849e+002
1.367331e+003, 6.102190e+002
1.369259e+003, 6.150530e+002
1.371188e+003, 6.166031e+002
1.373116e+003, 6.155338e+002
1.375045e+003, 6.163622e+002
1.376973e+003, 6.219869e+002
1.378902e+003, 6.251819e+002
1.380830e+003, 6.235280e+002
1.382759e+003, 6.209784e+002
1.384687e+003, 6.204242e+002
1.386615e+003, 6.217648e+002
1.388544e+003, 6.232302e+002
1.390472e+003, 6.248876e+002
1.392401e+003, 6.265529e+002
1.394329e+003, 6.282170e+002
1.396258e+003, 6.298338e+002
1.398186e+003, 6.315995e+002
1.400115e+003, 6.333558e+002
1.402043e+003, 6.339611e+002
1.403972e+003, 6.326912e+002
1.405900e+003, 6.317893e+002
1.407829e+003, 6.326729e+002
1.409757e+003, 6.337795e+002
1.411686e+003, 6.338223e+002
1.413614e+003, 6.328635e+002
1.415542e+003, 6.315125e+002
1.417471e+003, 6.303205e+002
1.419399e+003, 6.277697e+002
1.421328e+003, 6.218551e+002
1.423256e+003, 6.154905e+002
1.425185e+003, 6.118378e+002
1.427113e+003, 6.113349e+002
1.429042e+003, 6.091416e+002
1.430970e+003, 6.036611e+002
1.432899e+003, 5.984911e+002
1.434827e+003, 5.939207e+002
1.436756e+003, 5.902847e+002
1.438684e+003, 5.882209e+002
1.440613e+003, 5.879575e+002
1.442541e+003, 5.874338e+002
1.444469e+003, 5.855245e+002
1.446398e+003, 5.849476e+002
1.448326e+003, 5.874257e+002
1.450255e+003, 5.905881e+002
1.452183e+003, 5.916334e+002
1.454112e+003, 5.906146e+002
1.456040e+003, 5.908038e+002
1.457969e+003, 5.931208e+002
1.459897e+003, 5.948656e+002
1.461826e+003, 5.946935e+002
1.463754e+003, 5.940473e+002
1.465683e+003, 5.937762e+002
1.467611e+003, 5.940834e+002
1.469540e+003, 5.963517e+002
1.471468e+003, 6.015051e+002
1.473396e+003, 6.064464e+002
1.475325e+003, 6.102463e+002
1.477253e+003, 6.133643e+002
1.479182e+003, 6.159378e+002
1.481110e+003, 6.180568e+002
1.483039e+003, 6.203977e+002
1.484967e+003, 6.233289e+002
1.486896e+003, 6.255546e+002
1.488824e+003, 6.257269e+002
1.490753e+003, 6.261007e+002
1.492681e+003, 6.283846e+002
1.494610e+003, 6.321609e+002
1.496538e+003, 6.351539e+002
1.498467e+003, 6.374667e+002
1.500395e+003, 6.386965e+002
1.502323e+003, 6.376263e+002
1.504252e+003, 6.367599e+002
1.506180e+003, 6.374034e+002
1.508109e+003, 6.392526e+002
1.510037e+003, 6.415475e+002
1.511966e+003, 6.451642e+002
1.513894e+003, 6.473930e+002
1.515823e+003, 6.474005e+002
1.517751e+003, 6.471160e+002
1.519680e+003, 6.471931e+002
1.521608e+003, 6.475273e+002
1.523537e+003, 6.479168e+002
1.525465e+003, 6.483099e+002
1.527394e+003, 6.489202e+002
1.529322e+003, 6.499910e+002
1.531250e+003, 6.509116e+002
1.533179e+003, 6.518104e+002
1.535107e+003, 6.522458e+002
1.537036e+003, 6.515668e+002
1.538964e+003, 6.498544e+002
1.540893e+003, 6.478668e+002
1.542821e+003, 6.446507e+002
1.544750e+003, 6.434623e+002
1.546678e+003, 6.467059e+002
1.548607e+003, 6.510262e+002
1.550535e+003, 6.533411e+002
1.552464e+003, 6.546219e+002
1.554392e+003, 6.585858e+002
1.556321e+003, 6.664680e+002
1.558249e+003, 6.715500e+002
1.560177e+003, 6.711943e+002
1.562106e+003, 6.692376e+002
1.564034e+003, 6.668304e+002
1.565963e+003, 6.647399e+002
1.567891e+003, 6.644694e+002
1.569820e+003, 6.661373e+002
1.571748e+003, 6.678753e+002
1.573677e+003, 6.690531e+002
1.575605e+003, 6.708190e+002
1.577534e+003, 6.748637e+002
1.579462e+003, 6.787053e+002
1.581391e+003, 6.791943e+002
1.583319e+003, 6.766760e+002
1.585248e+003, 6.758868e+002
1.587176e+003, 6.777071e+002
1.589104e+003, 6.797288e+002
1.591033e+003, 6.815428e+002
1.592961e+003, 6.832755e+002
1.594890e+003, 6.850506e+002
1.596818e+003, 6.867927e+002
1.598747e+003, 6.882474e+002
1.600675e+003, 6.893427e+002
1.602604e+003, 6.904789e+002
1.604532e+003, 6.916073e+002
1.606461e+003, 6.930537e+002
1.608389e+003, 6.946375e+002
1.610318e+003, 6.968978e+002
1.612246e+003, 7.004425e+002
1.614175e+003, 7.052845e+002
1.616103e+003, 7.111408e+002
1.618031e+003, 7.169296e+002
1.619960e+003, 7.253480e+002
1.621888e+003, 7.360803e+002
1.623817e+003, 7.498358e+002
1.625745e+003, 7.665508e+002
1.627674e+003, 7.866618e+002
1.629602e+003, 8.117257e+002
1.631531e+003, 8.424930e+002
1.633459e+003, 8.765846e+002
1.635388e+003, 9.171874e+002
1.637316e+003, 9.572628e+002
1.639245e+003, 9.944244e+002
1.641173e+003, 1.030643e+003
1.643102e+003, 1.069419e+003
1.645030e+003, 1.110381e+003
1.646958e+003, 1.144646e+003
1.648887e+003, 1.170128e+003
1.650815e+003, 1.191646e+003
1.652744e+003, 1.211282e+003
1.654672e+003, 1.224677e+003
1.656601e+003, 1.228701e+003
1.658529e+003, 1.225413e+003
1.660458e+003, 1.218973e+003
1.662386e+003, 1.210125e+003
1.664315e+003, 1.193392e+003
1.666243e+003, 1.165644e+003
1.668172e+003, 1.135057e+003
1.670100e+003, 1.101292e+003
1.672029e+003, 1.066901e+003
1.673957e+003, 1.033623e+003
1.675885e+003, 1.001363e+003
1.677814e+003, 9.695212e+002
1.679742e+003, 9.369921e+002
1.681671e+003, 9.082502e+002
1.683599e+003, 8.822584e+002
1.685528e+003, 8.615518e+002
1.687456e+003, 8.487942e+002
1.689385e+003, 8.401774e+002
1.691313e+003, 8.322772e+002
1.693242e+003, 8.252598e+002
1.695170e+003, 8.204645e+002
1.697099e+003, 8.186334e+002
1.699027e+003, 8.173909e+002
1.700956e+003, 8.174615e+002
1.702884e+003, 8.171973e+002
1.704813e+003, 8.156205e+002
1.706741e+003, 8.137067e+002
1.708669e+003, 8.127648e+002
1.710598e+003, 8.127529e+002
1.712526e+003, 8.122299e+002
1.714455e+003, 8.111202e+002
1.716383e+003, 8.096695e+002
1.718312e+003, 8.071871e+002
1.720240e+003, 8.051364e+002
1.722169e+003, 8.044681e+002
1.724097e+003, 8.043248e+002
1.726026e+003, 8.030480e+002
1.727954e+003, 8.005560e+002
1.729883e+003, 8.004115e+002
1.731811e+003, 8.057211e+002
1.733740e+003, 8.081285e+002
1.735668e+003, 8.054805e+002
1.737596e+003, 8.019714e+002
1.739525e+003, 7.992675e+002
1.741453e+003, 7.972712e+002
1.743382e+003, 7.959162e+002
1.745310e+003, 7.952775e+002
1.747239e+003, 7.946400e+002
1.749167e+003, 7.933069e+002
1.751096e+003, 7.929242e+002
1.753024e+003, 7.932020e+002
1.754953e+003, 7.945560e+002
1.756881e+003, 7.968276e+002
1.758810e+003, 8.003475e+002
1.760738e+003, 8.062368e+002
1.762667e+003, 8.144915e+002
1.764595e+003, 8.213121e+002
1.766523e+003, 8.264600e+002
1.768452e+003, 8.307667e+002
1.770380e+003, 8.338672e+002
1.772309e+003, 8.367961e+002
1.774237e+003, 8.398007e+002
1.776166e+003, 8.429504e+002
1.778094e+003, 8.466853e+002
1.780023e+003, 8.508243e+002
1.781951e+003, 8.532582e+002
1.783880e+003, 8.530770e+002
1.785808e+003, 8.531782e+002
1.787737e+003, 8.534929e+002
1.789665e+003, 8.543616e+002
1.791594e+003, 8.563306e+002
1.793522e+003, 8.585089e+002
1.795450e+003, 8.596017e+002
1.797379e+003, 8.600682e+002
1.799307e+003, 8.621223e+002
1.801236e+003, 8.657272e+002
1.803164e+003, 8.711768e+002
1.805093e+003, 8.796222e+002
1.807021e+003, 8.882537e+002
1.808950e+003, 8.960895e+002
1.810878e+003, 9.042764e+002
1.812807e+003, 9.130961e+002
1.814735e+003, 9.230430e+002
1.816664e+003, 9.360640e+002
1.818592e+003, 9.523684e+002
1.820521e+003, 9.658688e+002
1.822449e+003, 9.746806e+002
1.824377e+003, 9.843600e+002
1.826306e+003, 9.993239e+002
1.828234e+003, 1.011299e+003
1.830163e+003, 1.013819e+003
1.832091e+003, 1.012429e+003
1.834020e+003, 1.015402e+003
1.835948e+003, 1.021479e+003
1.837877e+003, 1.022265e+003
1.839805e+003, 1.016529e+003
1.841734e+003, 1.010967e+003
1.843662e+003, 1.006818e+003
1.845591e+003, 1.003046e+003
1.847519e+003, 9.991550e+002
1.849448e+003, 9.954404e+002
1.851376e+003, 9.918213e+002
1.853304e+003, 9.886476e+002
1.855233e+003, 9.873178e+002
1.857161e+003, 9.878986e+002
1.859090e+003, 9.867039e+002
1.861018e+003, 9.825696e+002
1.862947e+003, 9.791458e+002
1.864875e+003, 9.765754e+002
1.866804e+003, 9.760024e+002
1.868732e+003, 9.798710e+002
1.870661e+003, 9.847411e+002
1.872589e+003, 9.851210e+002
1.874518e+003, 9.818757e+002
1.876446e+003, 9.822901e+002
1.878375e+003, 9.874999e+002
1.880303e+003, 9.915242e+002
1.882231e+003, 9.939863e+002
1.884160e+003, 9.951863e+002
1.886088e+003, 9.955048e+002
1.888017e+003, 9.946063e+002
1.889945e+003, 9.923586e+002
1.891874e+003, 9.889551e+002
1.893802e+003, 9.839802e+002
1.895731e+003, 9.773904e+002
1.897659e+003, 9.735087e+002
1.899588e+003, 9.750402e+002
1.901516e+003, 9.735183e+002
1.903445e+003, 9.654495e+002
1.905373e+003, 9.581254e+002
1.907302e+003, 9.548381e+002
1.909230e+003, 9.518911e+002
1.911158e+003, 9.460112e+002
1.913087e+003, 9.384930e+002
1.915015e+003, 9.326660e+002
1.916944e+003, 9.286683e+002
1.918872e+003, 9.224289e+002
1.920801e+003, 9.130660e+002
1.922729e+003, 9.038677e+002
1.924658e+003, 8.946301e+002
1.926586e+003, 8.869080e+002
1.928515e+003, 8.830611e+002
1.930443e+003, 8.793344e+002
1.932372e+003, 8.715676e+002
1.934300e+003, 8.623170e+002
1.936229e+003, 8.570372e+002
1.938157e+003, 8.555381e+002
1.940085e+003, 8.532138e+002
1.942014e+003, 8.489951e+002
1.943942e+003, 8.470441e+002
1.945871e+003, 8.492606e+002
1.947799e+003, 8.521805e+002
1.949728e+003, 8.545035e+002
1.951656e+003, 8.569205e+002
1.953585e+003, 8.597401e+002
1.955513e+003, 8.631868e+002
1.957442e+003, 8.677802e+002
1.959370e+003, 8.735685e+002
1.961299e+003, 8.798069e+002
1.963227e+003, 8.877725e+002
1.965156e+003, 8.937518e+002
1.967084e+003, 8.970096e+002
1.969012e+003, 8.990918e+002
1.970941e+003, 8.995559e+002
1.972869e+003, 8.996985e+002
1.974798e+003, 9.021027e+002
1.976726e+003, 9.036539e+002
1.978655e+003, 8.979025e+002
1.980583e+003, 8.857639e+002
1.982512e+003, 8.790049e+002
1.984440e+003, 8.785968e+002
1.986369e+003, 8.780468e+002
1.988297e+003, 8.773043e+002
1.990226e+003, 8.750218e+002
1.992154e+003, 8.692420e+002
1.994083e+003, 8.640410e+002
1.996011e+003, 8.626373e+002
1.997939e+003, 8.619395e+002
1.999868e+003, 8.577526e+002
2.001796e+003, 8.520413e+002
2.003725e+003, 8.504758e+002
2.005653e+003, 8.530772e+002
2.007582e+003, 8.536218e+002
2.009510e+003, 8.508602e+002
2.011439e+003, 8.489050e+002
2.013367e+003, 8.486884e+002
2.015296e+003, 8.489192e+002
2.017224e+003, 8.490498e+002
2.019153e+003, 8.494522e+002
2.021081e+003, 8.508527e+002
2.023010e+003, 8.523376e+002
2.024938e+003, 8.525997e+002
2.026866e+003, 8.517615e+002
2.028795e+003, 8.503801e+002
2.030723e+003, 8.484519e+002
2.032652e+003, 8.465983e+002
2.034580e+003, 8.442922e+002
2.036509e+003, 8.437009e+002
2.038437e+003, 8.464143e+002
2.040366e+003, 8.489636e+002
2.042294e+003, 8.494496e+002
2.044223e+003, 8.494064e+002
2.046151e+003, 8.497311e+002
2.048080e+003, 8.503871e+002
2.050008e+003, 8.522020e+002
2.051937e+003, 8.545504e+002
2.053865e+003, 8.534487e+002
2.055793e+003, 8.482314e+002
2.057722e+003, 8.453354e+002
2.059650e+003, 8.466338e+002
2.061579e+003, 8.477483e+002
2.063507e+003, 8.466960e+002
2.065436e+003, 8.466195e+002
2.067364e+003, 8.504319e+002
2.069293e+003, 8.539017e+002
2.071221e+003, 8.530295e+002
2.073150e+003, 8.497222e+002
2.075078e+003, 8.467970e+002
2.077007e+003, 8.444125e+002
2.078935e+003, 8.444896e+002
2.080864e+003, 8.477128e+002
2.082792e+003, 8.485388e+002
2.084720e+003, 8.460964e+002
2.086649e+003, 8.430616e+002
2.088577e+003, 8.393969e+002
2.090506e+003, 8.365182e+002
2.092434e+003, 8.354993e+002
2.094363e+003, 8.349339e+002
2.096291e+003, 8.330773e+002
2.098220e+003, 8.314913e+002
2.100148e+003, 8.329454e+002
2.102077e+003, 8.362355e+002
2.104005e+003, 8.375018e+002
2.105934e+003, 8.366041e+002
2.107862e+003, 8.342167e+002
2.109791e+003, 8.289987e+002
2.111719e+003, 8.250057e+002
2.113647e+003, 8.232682e+002
2.115576e+003, 8.216494e+002
2.117504e+003, 8.198908e+002
2.119433e+003, 8.183123e+002
2.121361e+003, 8.172197e+002
2.123290e+003, 8.163033e+002
2.125218e+003, 8.153120e+002
2.127147e+003, 8.142026e+002
2.129075e+003, 8.123021e+002
2.131004e+003, 8.100816e+002
2.132932e+003, 8.104006e+002
2.134861e+003, 8.133962e+002
2.136789e+003, 8.149269e+002
2.138718e+003, 8.142101e+002
2.140646e+003, 8.131794e+002
2.142574e+003, 8.118030e+002
2.144503e+003, 8.107758e+002
2.146431e+003, 8.108605e+002
2.148360e+003, 8.107281e+002
2.150288e+003, 8.095986e+002
2.152217e+003, 8.079949e+002
2.154145e+003, 8.062864e+002
2.156074e+003, 8.045379e+002
2.158002e+003, 8.029186e+002
2.159931e+003, 8.013505e+002
2.161859e+003, 7.989592e+002
2.163788e+003, 7.956392e+002
2.165716e+003, 7.951135e+002
2.167645e+003, 7.985012e+002
2.169573e+003, 8.006932e+002
2.171501e+003, 8.002087e+002
2.173430e+003, 7.996477e+002
2.175358e+003, 8.001672e+002
2.177287e+003, 8.005280e+002
2.179215e+003, 7.997000e+002
2.181144e+003, 7.988792e+002
2.183072e+003, 7.987520e+002
2.185001e+003, 7.994308e+002
2.186929e+003, 8.018037e+002
2.188858e+003, 8.051115e+002
2.190786e+003, 8.061271e+002
2.192715e+003, 8.048174e+002
2.194643e+003, 8.032856e+002
2.196572e+003, 8.014957e+002
2.198500e+003, 8.009040e+002
2.200428e+003, 8.023883e+002
2.202357e+003, 8.028393e+002
2.204285e+003, 8.007214e+002
2.206214e+003, 7.988203e+002
2.208142e+003, 7.977944e+002
2.210071e+003, 7.977834e+002
2.211999e+003, 7.998524e+002
2.213928e+003, 8.020221e+002
2.215856e+003, 8.022792e+002
2.217785e+003, 8.013273e+002
2.219713e+003, 8.000624e+002
2.221642e+003, 7.987348e+002
2.223570e+003, 7.987927e+002
2.225499e+003, 8.002346e+002
2.227427e+003, 8.009820e+002
2.229355e+003, 8.008976e+002
2.231284e+003, 7.996705e+002
2.233212e+003, 7.964501e+002
2.235141e+003, 7.945494e+002
2.237069e+003, 7.959431e+002
2.238998e+003, 7.966893e+002
2.240926e+003, 7.951967e+002
2.242855e+003, 7.931119e+002
2.244783e+003, 7.913435e+002
2.246712e+003, 7.895157e+002
2.248640e+003, 7.868114e+002
2.250569e+003, 7.842448e+002
2.252497e+003, 7.840038e+002
2.254426e+003, 7.849877e+002
2.256354e+003, 7.829999e+002
2.258282e+003, 7.786411e+002
2.260211e+003, 7.766508e+002
2.262139e+003, 7.771906e+002
2.264068e+003, 7.785883e+002
2.265996e+003, 7.810331e+002
2.267925e+003, 7.825760e+002
2.269853e+003, 7.825618e+002
2.271782e+003, 7.821981e+002
2.273710e+003, 7.801683e+002
2.275639e+003, 7.801110e+002
2.277567e+003, 7.861270e+002
2.279496e+003, 7.909435e+002
2.281424e+003, 7.882933e+002
2.283353e+003, 7.848407e+002
2.285281e+003, 7.877071e+002
2.287209e+003, 7.924322e+002
2.289138e+003, 7.921650e+002
2.291066e+003, 7.891070e+002
2.292995e+003, 7.884979e+002
2.294923e+003, 7.900687e+002
2.296852e+003, 7.913561e+002
2.298780e+003, 7.923973e+002
2.300709e+003, 7.929740e+002
2.302637e+003, 7.919562e+002
2.304566e+003, 7.931671e+002
2.306494e+003, 7.982260e+002
2.308423e+003, 8.015527e+002
2.310351e+003, 8.015399e+002
2.312280e+003, 8.013418e+002
2.314208e+003, 8.011414e+002
2.316136e+003, 8.022324e+002
2.318065e+003, 8.058284e+002
2.319993e+003, 8.103022e+002
2.321922e+003, 8.128572e+002
2.323850e+003, 8.174939e+002
2.325779e+003, 8.287834e+002
2.327707e+003, 8.443687e+002
2.329636e+003, 8.664537e+002
2.331564e+003, 8.881678e+002
2.333493e+003, 8.861490e+002
2.335421e+003, 8.637958e+002
2.337350e+003, 8.463087e+002
2.339278e+003, 8.338014e+002
2.341207e+003, 8.237858e+002
2.343135e+003, 8.161019e+002
2.345063e+003, 8.120349e+002
2.346992e+003, 8.137643e+002
2.348920e+003, 8.131043e+002
2.350849e+003, 8.062989e+002
2.352777e+003, 8.014366e+002
2.354706e+003, 8.008738e+002
2.356634e+003, 8.006673e+002
2.358563e+003, 7.991888e+002
2.360491e+003, 7.982686e+002
2.362420e+003, 7.984879e+002
2.364348e+003, 7.996879e+002
2.366277e+003, 8.025958e+002
2.368205e+003, 8.056677e+002
2.370134e+003, 8.076931e+002
2.372062e+003, 8.088352e+002
2.373990e+003, 8.093340e+002
2.375919e+003, 8.091373e+002
2.377847e+003, 8.071080e+002
2.379776e+003, 8.041227e+002
2.381704e+003, 8.057676e+002
2.383633e+003, 8.116385e+002
2.385561e+003, 8.138302e+002
2.387490e+003, 8.121510e+002
2.389418e+003, 8.130444e+002
2.391347e+003, 8.174439e+002
2.393275e+003, 8.208588e+002
2.395204e+003, 8.223111e+002
2.397132e+003, 8.236543e+002
2.399061e+003, 8.246573e+002
2.400989e+003, 8.262252e+002
2.402917e+003, 8.289871e+002
2.404846e+003, 8.315637e+002
2.406774e+003, 8.333478e+002
2.408703e+003, 8.354672e+002
2.410631e+003, 8.389618e+002
2.412560e+003, 8.422717e+002
2.414488e+003, 8.448708e+002
2.416417e+003, 8.464614e+002
2.418345e+003, 8.456514e+002
2.420274e+003, 8.447554e+002
2.422202e+003, 8.455703e+002
2.424131e+003, 8.485203e+002
2.426059e+003, 8.565350e+002
2.427988e+003, 8.662618e+002
2.429916e+003, 8.681829e+002
2.431844e+003, 8.651716e+002
2.433773e+003, 8.668326e+002
2.435701e+003, 8.725792e+002
2.437630e+003, 8.777023e+002
2.439558e+003, 8.820770e+002
2.441487e+003, 8.863414e+002
2.443415e+003, 8.898865e+002
2.445344e+003, 8.963027e+002
2.447272e+003, 9.067064e+002
2.449201e+003, 9.153947e+002
2.451129e+003, 9.216260e+002
2.453058e+003, 9.277817e+002
2.454986e+003, 9.347233e+002
2.456915e+003, 9.400237e+002
2.458843e+003, 9.414388e+002
2.460771e+003, 9.442483e+002
2.462700e+003, 9.516310e+002
2.464628e+003, 9.579658e+002
2.466557e+003, 9.616828e+002
2.468485e+003, 9.635609e+002
2.470414e+003, 9.626342e+002
2.472342e+003, 9.616462e+002
2.474271e+003, 9.627816e+002
2.476199e+003, 9.635005e+002
2.478128e+003, 9.609349e+002
2.480056e+003, 9.581176e+002
2.481985e+003, 9.599387e+002
2.483913e+003, 9.613365e+002
2.485842e+003, 9.539734e+002
2.487770e+003, 9.434254e+002
2.489698e+003, 9.394557e+002
2.491627e+003, 9.389324e+002
2.493555e+003, 9.355102e+002
2.495484e+003, 9.298112e+002
2.497412e+003, 9.227874e+002
2.499341e+003, 9.149894e+002
2.501269e+003, 9.084738e+002
2.503198e+003, 9.032291e+002
2.505126e+003, 8.991844e+002
2.507055e+003, 8.963596e+002
2.508983e+003, 8.936954e+002
2.510912e+003, 8.911339e+002
2.512840e+003, 8.892579e+002
2.514769e+003, 8.881062e+002
2.516697e+003, 8.874142e+002
2.518625e+003, 8.873315e+002
2.520554e+003, 8.870968e+002
2.522482e+003, 8.858446e+002
2.524411e+003, 8.862066e+002
2.526339e+003, 8.894420e+002
2.528268e+003, 8.912923e+002
2.530196e+003, 8.908877e+002
2.532125e+003, 8.901478e+002
2.534053e+003, 8.890827e+002
2.535982e+003, 8.887444e+002
2.537910e+003, 8.899883e+002
2.539839e+003, 8.910889e+002
2.541767e+003, 8.912280e+002
2.543696e+003, 8.915490e+002
2.545624e+003, 8.928963e+002
2.547552e+003, 8.938152e+002
2.549481e+003, 8.931839e+002
2.551409e+003, 8.929983e+002
2.553338e+003, 8.949277e+002
2.555266e+003, 8.969631e+002
2.557195e+003, 8.980870e+002
2.559123e+003, 8.986583e+002
2.561052e+003, 8.972968e+002
2.562980e+003, 8.973358e+002
2.564909e+003, 9.045836e+002
2.566837e+003, 9.113072e+002
2.568766e+003, 9.079700e+002
2.570694e+003, 9.024640e+002
2.572623e+003, 9.034847e+002
2.574551e+003, 9.066423e+002
2.576479e+003, 9.052933e+002
2.578408e+003, 9.032708e+002
2.580336e+003, 9.077315e+002
2.582265e+003, 9.150089e+002
2.584193e+003, 9.180181e+002
2.586122e+003, 9.188782e+002
2.588050e+003, 9.223694e+002
2.589979e+003, 9.267496e+002
2.591907e+003, 9.275920e+002
2.593836e+003, 9.261134e+002
2.595764e+003, 9.261575e+002
2.597693e+003, 9.273795e+002
2.599621e+003, 9.285594e+002
2.601550e+003, 9.296971e+002
2.603478e+003, 9.302263e+002
2.605406e+003, 9.306149e+002
2.607335e+003, 9.337781e+002
2.609263e+003, 9.392249e+002
2.611192e+003, 9.405630e+002
2.613120e+003, 9.379361e+002
2.615049e+003, 9.397903e+002
2.616977e+003, 9.460682e+002
2.618906e+003, 9.479512e+002
2.620834e+003, 9.456801e+002
2.622763e+003, 9.474636e+002
2.624691e+003, 9.538161e+002
2.626620e+003, 9.579454e+002
2.628548e+003, 9.592081e+002
2.630477e+003, 9.610096e+002
2.632405e+003, 9.631799e+002
2.634333e+003, 9.679172e+002
2.636262e+003, 9.755684e+002
2.638190e+003, 9.810290e+002
2.640119e+003, 9.836321e+002
2.642047e+003, 9.867255e+002
2.643976e+003, 9.911531e+002
2.645904e+003, 9.939644e+002
2.647833e+003, 9.950745e+002
2.649761e+003, 9.944104e+002
2.651690e+003, 9.914501e+002
2.653618e+003, 9.909302e+002
2.655547e+003, 9.938514e+002
2.657475e+003, 9.962100e+002
2.659404e+003, 9.975226e+002
2.661332e+003, 9.976412e+002
2.663260e+003, 9.947939e+002
2.665189e+003, 9.952487e+002
2.667117e+003, 1.000416e+003
2.669046e+003, 1.003626e+003
2.670974e+003, 1.004062e+003
2.672903e+003, 1.002224e+003
2.674831e+003, 9.968355e+002
2.676760e+003, 9.933234e+002
2.678688e+003, 9.937595e+002
2.680617e+003, 9.930132e+002
2.682545e+003, 9.899738e+002
2.684474e+003, 9.892366e+002
2.686402e+003, 9.920452e+002
2.688331e+003, 9.947097e+002
2.690259e+003, 9.965674e+002
2.692188e+003, 9.981970e+002
2.694116e+003, 9.996630e+002
2.696044e+003, 1.000953e+003
2.697973e+003, 1.002266e+003
2.699901e+003, 1.002236e+003
2.701830e+003, 9.999485e+002
2.703758e+003, 9.990082e+002
2.705687e+003, 1.000348e+003
2.707615e+003, 1.002403e+003
2.709544e+003, 1.006634e+003
2.711472e+003, 1.007817e+003
2.713401e+003, 1.004401e+003
2.715329e+003, 1.002485e+003
2.717258e+003, 1.003584e+003
2.719186e+003, 1.003671e+003
2.721115e+003, 1.001486e+003
2.723043e+003, 9.998343e+002
2.724971e+003, 9.992621e+002
2.726900e+003, 9.990566e+002
2.728828e+003, 9.993362e+002
2.730757e+003, 9.995891e+002
2.732685e+003, 1.000238e+003
2.734614e+003, 9.977070e+002
2.736542e+003, 9.886393e+002
2.738471e+003, 9.834843e+002
2.740399e+003, 9.842132e+002
2.742328e+003, 9.851754e+002
2.744256e+003, 9.864664e+002
2.746185e+003, 9.857361e+002
2.748113e+003, 9.823279e+002
2.750042e+003, 9.794885e+002
2.751970e+003, 9.778239e+002
2.753898e+003, 9.762875e+002
2.755827e+003, 9.746231e+002
2.757755e+003, 9.742988e+002
2.759684e+003, 9.756189e+002
2.761612e+003, 9.755344e+002
2.763541e+003, 9.733414e+002
2.765469e+003, 9.733183e+002
2.767398e+003, 9.763143e+002
2.769326e+003, 9.793105e+002
2.771255e+003, 9.825367e+002
2.773183e+003, 9.821182e+002
2.775112e+003, 9.778737e+002
2.777040e+003, 9.773156e+002
2.778969e+003, 9.812590e+002
2.780897e+003, 9.850483e+002
2.782825e+003, 9.888223e+002
2.784754e+003, 9.894108e+002
2.786682e+003, 9.871170e+002
2.788611e+003, 9.889594e+002
2.790539e+003, 9.943220e+002
2.792468e+003, 9.948419e+002
2.794396e+003, 9.909600e+002
2.796325e+003, 9.887151e+002
2.798253e+003, 9.880467e+002
2.800182e+003, 9.890583e+002
2.802110e+003, 9.911105e+002
2.804039e+003, 9.910131e+002
2.805967e+003, 9.896006e+002
2.807896e+003, 9.909471e+002
2.809824e+003, 9.935187e+002
2.811752e+003, 9.907984e+002
2.813681e+003, 9.856314e+002
2.815609e+003, 9.871736e+002
2.817538e+003, 9.915283e+002
2.819466e+003, 9.899500e+002
2.821395e+003, 9.862174e+002
2.823323e+003, 9.881483e+002
2.825252e+003, 9.919366e+002
2.827180e+003, 9.911010e+002
2.829109e+003, 9.883588e+002
2.831037e+003, 9.871248e+002
2.832966e+003, 9.863168e+002
2.834894e+003, 9.838464e+002
2.836823e+003, 9.822040e+002
2.838751e+003, 9.858576e+002
2.840679e+003, 9.893699e+002
2.842608e+003, 9.866172e+002
2.844536e+003, 9.838854e+002
2.846465e+003, 9.869648e+002
2.848393e+003, 9.899723e+002
2.850322e+003, 9.873314e+002
2.852250e+003, 9.858485e+002
2.854179e+003, 9.911091e+002
2.856107e+003, 9.951896e+002
2.858036e+003, 9.934869e+002
2.859964e+003, 9.918239e+002
2.861893e+003, 9.936258e+002
2.863821e+003, 9.940469e+002
2.865750e+003, 9.890297e+002
2.867678e+003, 9.881255e+002
2.869606e+003, 9.960330e+002
2.871535e+003, 9.998007e+002
2.873463e+003, 9.922178e+002
2.875392e+003, 9.888701e+002
2.877320e+003, 9.946531e+002
2.879249e+003, 9.971815e+002
2.881177e+003, 9.950145e+002
2.883106e+003, 9.939047e+002
2.885034e+003, 9.946655e+002
2.886963e+003, 9.957326e+002
2.888891e+003, 9.969544e+002
2.890820e+003, 9.976591e+002
2.892748e+003, 9.977688e+002
2.894677e+003, 1.000668e+003
2.896605e+003, 1.005901e+003
2.898533e+003, 1.007034e+003
2.900462e+003, 1.004640e+003
2.902390e+003, 1.003187e+003
2.904319e+003, 1.002404e+003
2.906247e+003, 1.000372e+003
2.908176e+003, 9.980605e+002
2.910104e+003, 9.979935e+002
2.912033e+003, 9.991956e+002
2.913961e+003, 9.998898e+002
2.915890e+003, 1.000515e+003
2.917818e+003, 1.002724e+003
2.919747e+003, 1.004237e+003
2.921675e+003, 1.001816e+003
2.923604e+003, 9.986479e+002
2.925532e+003, 9.973065e+002
2.927460e+003, 9.969449e+002
2.929389e+003, 9.973680e+002
2.931317e+003, 9.980015e+002
2.933246e+003, 9.993123e+002
2.935174e+003, 9.995056e+002
2.937103e+003, 9.959025e+002
2.939031e+003, 9.942510e+002
2.940960e+003, 9.978847e+002
2.942888e+003, 9.996800e+002
2.944817e+003, 9.974190e+002
2.946745e+003, 9.957642e+002
2.948674e+003, 9.962418e+002
2.950602e+003, 9.963945e+002
2.952531e+003, 9.957811e+002
2.954459e+003, 9.969765e+002
2.956387e+003, 1.000210e+003
2.958316e+003, 1.001188e+003
2.960244e+003, 9.993618e+002
2.962173e+003, 9.979891e+002
2.964101e+003, 9.970918e+002
2.966030e+003, 9.990182e+002
2.967958e+003, 1.002422e+003
2.969887e+003, 1.001724e+003
2.971815e+003, 9.987963e+002
2.973744e+003, 9.979709e+002
2.975672e+003, 9.979197e+002
2.977601e+003, 9.948290e+002
2.979529e+003, 9.923514e+002
2.981458e+003, 9.960091e+002
2.983386e+003, 1.000079e+003
2.985314e+003, 9.981497e+002
2.987243e+003, 9.962532e+002
2.989171e+003, 1.000074e+003
2.991100e+003, 1.002595e+003
2.993028e+003, 9.993060e+002
2.994957e+003, 9.968748e+002
2.996885e+003, 9.988121e+002
2.998814e+003, 1.000080e+003
3.000742e+003, 9.997754e+002
3.002671e+003, 9.989835e+002
3.004599e+003, 9.977350e+002
3.006528e+003, 9.970614e+002
3.008456e+003, 9.975392e+002
3.010385e+003, 9.964845e+002
3.012313e+003, 9.938951e+002
3.014241e+003, 9.930524e+002
3.016170e+003, 9.938873e+002
3.018098e+003, 9.959970e+002
3.020027e+003, 9.985768e+002
3.021955e+003, 9.984892e+002
3.023884e+003, 9.971765e+002
3.025812e+003, 9.978146e+002
3.027741e+003, 9.992675e+002
3.029669e+003, 1.000376e+003
3.031598e+003, 1.001237e+003
3.033526e+003, 1.002276e+003
3.035455e+003, 1.002428e+003
3.037383e+003, 1.000190e+003
3.039312e+003, 9.982518e+002
3.041240e+003, 9.988376e+002
3.043168e+003, 9.982785e+002
3.045097e+003, 9.951364e+002
3.047025e+003, 9.925712e+002
3.048954e+003, 9.909764e+002
3.050882e+003, 9.912178e+002
3.052811e+003, 9.943495e+002
3.054739e+003, 9.958701e+002
3.056668e+003, 9.957054e+002
3.058596e+003, 9.952112e+002
3.060525e+003, 9.945103e+002
3.062453e+003, 9.945342e+002
3.064382e+003, 9.948657e+002
3.066310e+003, 9.936826e+002
3.068239e+003, 9.921833e+002
3.070167e+003, 9.926207e+002
3.072095e+003, 9.937768e+002
3.074024e+003, 9.948113e+002
3.075952e+003, 9.952303e+002
3.077881e+003, 9.945731e+002
3.079809e+003, 9.930809e+002
3.081738e+003, 9.899508e+002
3.083666e+003, 9.879337e+002
3.085595e+003, 9.885021e+002
3.087523e+003, 9.898973e+002
3.089452e+003, 9.922652e+002
3.091380e+003, 9.941041e+002
3.093309e+003, 9.951193e+002
3.095237e+003, 9.960390e+002
3.097166e+003, 9.967228e+002
3.099094e+003, 9.977022e+002
3.101022e+003, 9.988625e+002
3.102951e+003, 1.001055e+003
3.104879e+003, 1.002843e+003
3.106808e+003, 9.997308e+002
3.108736e+003, 9.958283e+002
3.110665e+003, 9.974926e+002
3.112593e+003, 1.000286e+003
3.114522e+003, 1.001209e+003
3.116450e+003, 1.001427e+003
3.118379e+003, 1.001228e+003
3.120307e+003, 1.000976e+003
3.122236e+003, 1.000504e+003
3.124164e+003, 1.000738e+003
3.126093e+003, 1.001993e+003
3.128021e+003, 1.003440e+003
3.129949e+003, 1.004871e+003
3.131878e+003, 1.008210e+003
3.133806e+003, 1.012765e+003
3.135735e+003, 1.011573e+003
3.137663e+003, 1.007062e+003
3.139592e+003, 1.008943e+003
3.141520e+003, 1.013032e+003
3.143449e+003, 1.011875e+003
3.145377e+003, 1.009106e+003
3.147306e+003, 1.006986e+003
3.149234e+003, 1.006573e+003
3.151163e+003, 1.010174e+003
3.153091e+003, 1.012262e+003
3.155020e+003, 1.009738e+003
3.156948e+003, 1.008133e+003
3.158876e+003, 1.009085e+003
3.160805e+003, 1.009779e+003
3.162733e+003, 1.010068e+003
3.164662e+003, 1.011500e+003
3.166590e+003, 1.014072e+003
3.168519e+003, 1.016452e+003
3.170447e+003, 1.018606e+003
3.172376e+003, 1.021663e+003
3.174304e+003, 1.023136e+003
3.176233e+003, 1.016050e+003
3.178161e+003, 1.009951e+003
3.180090e+003, 1.017053e+003
3.182018e+003, 1.023282e+003
3.183947e+003, 1.020549e+003
3.185875e+003, 1.018334e+003
3.187803e+003, 1.019893e+003
3.189732e+003, 1.022668e+003
3.191660e+003, 1.026778e+003
3.193589e+003, 1.029340e+003
3.195517e+003, 1.030080e+003
3.197446e+003, 1.029573e+003
3.199374e+003, 1.028190e+003
3.201303e+003, 1.027189e+003
3.203231e+003, 1.027296e+003
3.205160e+003, 1.031247e+003
3.207088e+003, 1.035011e+003
3.209017e+003, 1.033053e+003
3.210945e+003, 1.031508e+003
3.212874e+003, 1.033962e+003
3.214802e+003, 1.036687e+003
3.216730e+003, 1.037899e+003
3.218659e+003, 1.039878e+003
3.220587e+003, 1.042929e+003
3.222516e+003, 1.043655e+003
3.224444e+003, 1.041730e+003
3.226373e+003, 1.040085e+003
3.228301e+003, 1.039188e+003
3.230230e+003, 1.041419e+003
3.232158e+003, 1.045091e+003
3.234087e+003, 1.048397e+003
3.236015e+003, 1.050515e+003
3.237944e+003, 1.048276e+003
3.239872e+003, 1.048417e+003
3.241801e+003, 1.055626e+003
3.243729e+003, 1.060894e+003
3.245657e+003, 1.060663e+003
3.247586e+003, 1.059478e+003
3.249514e+003, 1.057480e+003
3.251443e+003, 1.057254e+003
3.253371e+003, 1.058891e+003
3.255300e+003, 1.062340e+003
3.257228e+003, 1.065953e+003
3.259157e+003, 1.064488e+003
3.261085e+003, 1.061907e+003
3.263014e+003, 1.062025e+003
3.264942e+003, 1.063165e+003
3.266871e+003, 1.064729e+003
3.268799e+003, 1.066134e+003
3.270728e+003, 1.067113e+003
3.272656e+003, 1.068020e+003
3.274584e+003, 1.068728e+003
3.276513e+003, 1.070366e+003
3.278441e+003, 1.072614e+003
3.280370e+003, 1.073128e+003
3.282298e+003, 1.072262e+003
3.284227e+003, 1.070575e+003
3.286155e+003, 1.068362e+003
3.288084e+003, 1.064421e+003
3.290012e+003, 1.062471e+003
3.291941e+003, 1.066689e+003
3.293869e+003, 1.070041e+003
3.295798e+003, 1.071193e+003
3.297726e+003, 1.069140e+003
3.299655e+003, 1.062299e+003
3.301583e+003, 1.061576e+003
3.303511e+003, 1.065954e+003
3.305440e+003, 1.065511e+003
3.307368e+003, 1.062443e+003
3.309297e+003, 1.060543e+003
3.311225e+003, 1.059642e+003
3.313154e+003, 1.059828e+003
3.315082e+003, 1.060675e+003
3.317011e+003, 1.063399e+003
3.318939e+003, 1.063873e+003
3.320868e+003, 1.060239e+003
3.322796e+003, 1.059799e+003
3.324725e+003, 1.063013e+003
3.326653e+003, 1.065144e+003
3.328582e+003, 1.065972e+003
3.330510e+003, 1.064942e+003
3.332438e+003, 1.062976e+003
3.334367e+003, 1.060446e+003
3.336295e+003, 1.059222e+003
3.338224e+003, 1.062011e+003
3.340152e+003, 1.064238e+003
3.342081e+003, 1.063927e+003
3.344009e+003, 1.065388e+003
3.345938e+003, 1.070279e+003
3.347866e+003, 1.070768e+003
3.349795e+003, 1.068024e+003
3.351723e+003, 1.069157e+003
3.353652e+003, 1.072081e+003
3.355580e+003, 1.072698e+003
3.357509e+003, 1.072922e+003
3.359437e+003, 1.073841e+003
3.361365e+003, 1.075658e+003
3.363294e+003, 1.079174e+003
3.365222e+003, 1.081531e+003
3.367151e+003, 1.082169e+003
3.369079e+003, 1.083146e+003
3.371008e+003, 1.084732e+003
3.372936e+003, 1.090253e+003
3.374865e+003, 1.096115e+003
3.376793e+003, 1.092688e+003
3.378722e+003, 1.088168e+003
3.380650e+003, 1.091972e+003
3.382579e+003, 1.093803e+003
3.384507e+003, 1.088335e+003
3.386436e+003, 1.085835e+003
3.388364e+003, 1.089802e+003
3.390292e+003, 1.092888e+003
3.392221e+003, 1.095163e+003
3.394149e+003, 1.097033e+003
3.396078e+003, 1.098691e+003
3.398006e+003, 1.100622e+003
3.399935e+003, 1.102255e+003
3.401863e+003, 1.103014e+003
3.403792e+003, 1.103598e+003
3.405720e+003, 1.103911e+003
3.407649e+003, 1.105000e+003
3.409577e+003, 1.106980e+003
3.411506e+003, 1.108803e+003
3.413434e+003, 1.110344e+003
3.415363e+003, 1.110400e+003
3.417291e+003, 1.110719e+003
3.419219e+003, 1.114600e+003
3.421148e+003, 1.118708e+003
3.423076e+003, 1.120492e+003
3.425005e+003, 1.121877e+003
3.426933e+003, 1.123072e+003
3.428862e+003, 1.125572e+003
3.430790e+003, 1.129858e+003
3.432719e+003, 1.130222e+003
3.434647e+003, 1.128956e+003
3.436576e+003, 1.133551e+003
3.438504e+003, 1.138506e+003
3.440433e+003, 1.135754e+003
3.442361e+003, 1.133593e+003
3.444290e+003, 1.135701e+003
3.446218e+003, 1.138855e+003
3.448146e+003, 1.143020e+003
3.450075e+003, 1.142895e+003
3.452003e+003, 1.139454e+003
3.453932e+003, 1.139474e+003
3.455860e+003, 1.141703e+003
3.457789e+003, 1.145133e+003
3.459717e+003, 1.148170e+003
3.461646e+003, 1.150125e+003
3.463574e+003, 1.151083e+003
3.465503e+003, 1.151097e+003
3.467431e+003, 1.150402e+003
3.469360e+003, 1.148982e+003
3.471288e+003, 1.148453e+003
3.473217e+003, 1.148514e+003
3.475145e+003, 1.147964e+003
3.477073e+003, 1.148667e+003
3.479002e+003, 1.155268e+003
3.480930e+003, 1.157842e+003
3.482859e+003, 1.151817e+003
3.484787e+003, 1.150493e+003
3.486716e+003, 1.156375e+003
3.488644e+003, 1.161482e+003
3.490573e+003, 1.165031e+003
3.492501e+003, 1.163907e+003
3.494430e+003, 1.161518e+003
3.496358e+003, 1.161632e+003
3.498287e+003, 1.161672e+003
3.500215e+003, 1.160288e+003
3.502144e+003, 1.160870e+003
3.504072e+003, 1.164468e+003
3.506000e+003, 1.164973e+003
3.507929e+003, 1.162658e+003
3.509857e+003, 1.155885e+003
3.511786e+003, 1.151643e+003
3.513714e+003, 1.162540e+003
3.515643e+003, 1.170923e+003
3.517571e+003, 1.164982e+003
3.519500e+003, 1.164557e+003
3.521428e+003, 1.171703e+003
3.523357e+003, 1.170776e+003
3.525285e+003, 1.164876e+003
3.527214e+003, 1.167971e+003
3.529142e+003, 1.172893e+003
3.531071e+003, 1.171598e+003
3.532999e+003, 1.169848e+003
3.534927e+003, 1.168750e+003
3.536856e+003, 1.173031e+003
3.538784e+003, 1.183086e+003
3.540713e+003, 1.182390e+003
3.542641e+003, 1.175275e+003
3.544570e+003, 1.177597e+003
3.546498e+003, 1.181385e+003
3.548427e+003, 1.178821e+003
3.550355e+003, 1.175712e+003
3.552284e+003, 1.173787e+003
3.554212e+003, 1.172087e+003
3.556141e+003, 1.170543e+003
3.558069e+003, 1.170302e+003
3.559998e+003, 1.170897e+003
3.561926e+003, 1.170217e+003
3.563854e+003, 1.171054e+003
3.565783e+003, 1.177849e+003
3.567711e+003, 1.182152e+003
3.569640e+003, 1.180956e+003
3.571568e+003, 1.183334e+003
3.573497e+003, 1.189053e+003
3.575425e+003, 1.187656e+003
3.577354e+003, 1.183113e+003
3.579282e+003, 1.180309e+003
3.581211e+003, 1.179668e+003
3.583139e+003, 1.182307e+003
3.585068e+003, 1.183969e+003
3.586996e+003, 1.183002e+003
3.588925e+003, 1.184590e+003
3.590853e+003, 1.188107e+003
3.592781e+003, 1.192973e+003
3.594710e+003, 1.196441e+003
3.596638e+003, 1.193412e+003
3.598567e+003, 1.191846e+003
3.600495e+003, 1.195836e+003
3.602424e+003, 1.198203e+003
3.604352e+003, 1.198623e+003
3.606281e+003, 1.196535e+003
3.608209e+003, 1.194668e+003
3.610138e+003, 1.199760e+003
3.612066e+003, 1.204810e+003
3.613995e+003, 1.205236e+003
3.615923e+003, 1.205826e+003
3.617852e+003, 1.207948e+003
3.619780e+003, 1.207665e+003
3.621708e+003, 1.205662e+003
3.623637e+003, 1.203600e+003
3.625565e+003, 1.203598e+003
3.627494e+003, 1.209788e+003
3.629422e+003, 1.214026e+003
3.631351e+003, 1.210042e+003
3.633279e+003, 1.212335e+003
3.635208e+003, 1.220177e+003
3.637136e+003, 1.223534e+003
3.639065e+003, 1.223641e+003
3.640993e+003, 1.220610e+003
3.642922e+003, 1.218798e+003
3.644850e+003, 1.223141e+003
3.646779e+003, 1.221340e+003
3.648707e+003, 1.212358e+003
3.650635e+003, 1.216353e+003
3.652564e+003, 1.227468e+003
3.654492e+003, 1.231155e+003
3.656421e+003, 1.231464e+003
3.658349e+003, 1.229922e+003
3.660278e+003, 1.229516e+003
3.662206e+003, 1.231002e+003
3.664135e+003, 1.230333e+003
3.666063e+003, 1.228766e+003
3.667992e+003, 1.234587e+003
3.669920e+003, 1.239211e+003
3.671849e+003, 1.231076e+003
3.673777e+003, 1.226832e+003
3.675706e+003, 1.232707e+003
3.677634e+003, 1.235595e+003
3.679563e+003, 1.235253e+003
3.681491e+003, 1.236583e+003
3.683419e+003, 1.237549e+003
3.685348e+003, 1.232779e+003
3.687276e+003, 1.232338e+003
3.689205e+003, 1.243493e+003
3.691133e+003, 1.247815e+003
3.693062e+003, 1.244500e+003
3.694990e+003, 1.239877e+003
3.696919e+003, 1.236511e+003
3.698847e+003, 1.239327e+003
3.700776e+003, 1.242760e+003
3.702704e+003, 1.244923e+003
3.704633e+003, 1.243907e+003
3.706561e+003, 1.240280e+003
3.708490e+003, 1.244952e+003
3.710418e+003, 1.251889e+003
3.712346e+003, 1.250259e+003
3.714275e+003, 1.246660e+003
3.716203e+003, 1.241990e+003
3.718132e+003, 1.243150e+003
3.720060e+003, 1.250194e+003
3.721989e+003, 1.255227e+003
3.723917e+003, 1.258609e+003
3.725846e+003, 1.261336e+003
3.727774e+003, 1.262710e+003
3.729703e+003, 1.262424e+003
3.731631e+003, 1.258268e+003
3.733560e+003, 1.251035e+003
3.735488e+003, 1.256500e+003
3.737417e+003, 1.266677e+003
3.739345e+003, 1.268125e+003
3.741273e+003, 1.266170e+003
3.743202e+003, 1.262385e+003
3.745130e+003, 1.257793e+003
3.747059e+003, 1.253238e+003
3.748987e+003, 1.256003e+003
3.750916e+003, 1.261072e+003
3.752844e+003, 1.258891e+003
3.754773e+003, 1.257915e+003
3.756701e+003, 1.263750e+003
3.758630e+003, 1.266546e+003
3.760558e+003, 1.266498e+003
3.762487e+003, 1.271304e+003
3.764415e+003, 1.275750e+003
3.766344e+003, 1.270668e+003
3.768272e+003, 1.266770e+003
3.770200e+003, 1.271184e+003
3.772129e+003, 1.269302e+003
3.774057e+003, 1.263640e+003
3.775986e+003, 1.270345e+003
3.777914e+003, 1.278379e+003
3.779843e+003, 1.273661e+003
3.781771e+003, 1.270865e+003
3.783700e+003, 1.275465e+003
3.785628e+003, 1.280722e+003
3.787557e+003, 1.285034e+003
3.789485e+003, 1.283053e+003
3.791414e+003, 1.279732e+003
3.793342e+003, 1.277626e+003
3.795271e+003, 1.280699e+003
3.797199e+003, 1.292223e+003
3.799127e+003, 1.289955e+003
3.801056e+003, 1.280863e+003
3.802984e+003, 1.280924e+003
3.804913e+003, 1.282880e+003
3.806841e+003, 1.283142e+003
3.808770e+003, 1.282230e+003
3.810698e+003, 1.280209e+003
3.812627e+003, 1.280166e+003
3.814555e+003, 1.281144e+003
3.816484e+003, 1.281243e+003
3.818412e+003, 1.282832e+003
3.820341e+003, 1.287387e+003
3.822269e+003, 1.288987e+003
3.824198e+003, 1.287940e+003
3.826126e+003, 1.288930e+003
3.828054e+003, 1.289727e+003
3.829983e+003, 1.287710e+003
3.831911e+003, 1.285876e+003
3.833840e+003, 1.284821e+003
3.835768e+003, 1.285186e+003
3.837697e+003, 1.286695e+003
3.839625e+003, 1.289240e+003
3.841554e+003, 1.291457e+003
3.843482e+003, 1.292805e+003
3.845411e+003, 1.291758e+003
3.847339e+003, 1.288500e+003
3.849268e+003, 1.290750e+003
3.851196e+003, 1.294001e+003
3.853125e+003, 1.291503e+003
3.855053e+003, 1.290331e+003
3.856981e+003, 1.292596e+003
3.858910e+003, 1.296315e+003
3.860838e+003, 1.299955e+003
3.862767e+003, 1.298237e+003
3.864695e+003, 1.295080e+003
3.866624e+003, 1.292409e+003
3.868552e+003, 1.290981e+003
3.870481e+003, 1.291116e+003
3.872409e+003, 1.298747e+003
3.874338e+003, 1.307342e+003
3.876266e+003, 1.304605e+003
3.878195e+003, 1.303368e+003
3.880123e+003, 1.311385e+003
3.882052e+003, 1.312214e+003
3.883980e+003, 1.308040e+003
3.885908e+003, 1.307873e+003
3.887837e+003, 1.308666e+003
3.889765e+003, 1.308435e+003
3.891694e+003, 1.307646e+003
3.893622e+003, 1.306435e+003
3.895551e+003, 1.307925e+003
3.897479e+003, 1.310481e+003
3.899408e+003, 1.312082e+003
3.901336e+003, 1.313032e+003
3.903265e+003, 1.313023e+003
3.905193e+003, 1.315802e+003
3.907122e+003, 1.319628e+003
3.909050e+003, 1.317977e+003
3.910979e+003, 1.316302e+003
3.912907e+003, 1.317802e+003
3.914835e+003, 1.321246e+003
3.916764e+003, 1.325945e+003
3.918692e+003, 1.324838e+003
3.920621e+003, 1.322873e+003
3.922549e+003, 1.326310e+003
3.924478e+003, 1.328789e+003
3.926406e+003, 1.329141e+003
3.928335e+003, 1.327862e+003
3.930263e+003, 1.326645e+003
3.932192e+003, 1.329781e+003
3.934120e+003, 1.331677e+003
3.936049e+003, 1.328092e+003
3.937977e+003, 1.329131e+003
3.939906e+003, 1.333571e+003
3.941834e+003, 1.335417e+003
3.943762e+003, 1.336137e+003
3.945691e+003, 1.336282e+003
3.947619e+003, 1.337922e+003
3.949548e+003, 1.340994e+003
3.951476e+003, 1.341884e+003
3.953405e+003, 1.342724e+003
3.955333e+003, 1.346794e+003
3.957262e+003, 1.349559e+003
3.959190e+003, 1.349604e+003
3.961119e+003, 1.350737e+003
3.963047e+003, 1.351924e+003
3.964976e+003, 1.350055e+003
3.966904e+003, 1.350808e+003
3.968833e+003, 1.356542e+003
3.970761e+003, 1.357974e+003
3.972689e+003, 1.355961e+003
3.974618e+003, 1.354557e+003
3.976546e+003, 1.352477e+003
3.978475e+003, 1.347980e+003
3.980403e+003, 1.347137e+003
3.982332e+003, 1.349641e+003
3.984260e+003, 1.349426e+003
3.986189e+003, 1.351166e+003
3.988117e+003, 1.362381e+003
3.990046e+003, 1.364722e+003
3.991974e+003, 1.357989e+003
3.993903e+003, 1.357979e+003
3.995831e+003, 1.361437e+003
3.997760e+003, 1.366083e+003
3.999688e+003, 1.368186e+003
4.001616e+003, 1.366538e+003
4.003545e+003, 1.366888e+003
4.005473e+003, 1.367787e+003
4.007402e+003, 1.367338e+003
4.009330e+003, 1.365633e+003
4.011259e+003, 1.362244e+003
4.013187e+003, 1.366110e+003
4.015116e+003, 1.373574e+003
4.017044e+003, 1.378282e+003
4.018973e+003, 1.380459e+003
4.020901e+003, 1.380029e+003
4.022830e+003, 1.379531e+003
4.024758e+003, 1.379423e+003
4.026687e+003, 1.381502e+003
4.028615e+003, 1.382588e+003
4.030543e+003, 1.380250e+003
4.032472e+003, 1.380055e+003
4.034400e+003, 1.381805e+003
4.036329e+003, 1.384757e+003
4.038257e+003, 1.386704e+003
4.040186e+003, 1.386754e+003
4.042114e+003, 1.381191e+003
4.044043e+003, 1.374395e+003
4.045971e+003, 1.387880e+003
4.047900e+003, 1.401266e+003
4.049828e+003, 1.402161e+003
4.051757e+003, 1.398516e+003
4.053685e+003, 1.392975e+003
4.055614e+003, 1.395928e+003
4.057542e+003, 1.399206e+003
4.059470e+003, 1.394506e+003
4.061399e+003, 1.396356e+003
4.063327e+003, 1.404075e+003
4.065256e+003, 1.404181e+003
4.067184e+003, 1.402352e+003
4.069113e+003, 1.402836e+003
4.071041e+003, 1.403273e+003
4.072970e+003, 1.403550e+003
4.074898e+003, 1.404826e+003
4.076827e+003, 1.406158e+003
4.078755e+003, 1.407206e+003
4.080684e+003, 1.405850e+003
4.082612e+003, 1.402613e+003
4.084541e+003, 1.405056e+003
4.086469e+003, 1.407493e+003
4.088397e+003, 1.404246e+003
4.090326e+003, 1.404561e+003
4.092254e+003, 1.408943e+003
4.094183e+003, 1.412638e+003
4.096111e+003, 1.415000e+003
4.098040e+003, 1.414561e+003
4.099968e+003, 1.414972e+003
4.101896e+003, 1.416107e+003
4.103825e+003, 1.414401e+003
4.105754e+003, 1.413848e+003
4.107682e+003, 1.417754e+003
4.109610e+003, 1.423061e+003
4.111539e+003, 1.427703e+003
4.113468e+003, 1.421876e+003
4.115396e+003, 1.415672e+003
4.117324e+003, 1.415102e+003
4.119253e+003, 1.419067e+003
4.121182e+003, 1.425146e+003
4.123110e+003, 1.421160e+003
4.125038e+003, 1.417930e+003
4.126967e+003, 1.421816e+003
4.128896e+003, 1.428472e+003
4.130824e+003, 1.436053e+003
4.132752e+003, 1.439119e+003
4.134681e+003, 1.441675e+003
4.136609e+003, 1.447326e+003
4.138538e+003, 1.446578e+003
4.140466e+003, 1.443292e+003
4.142395e+003, 1.449567e+003
4.144323e+003, 1.453952e+003
4.146251e+003, 1.451095e+003
4.148180e+003, 1.452039e+003
4.150108e+003, 1.454620e+003
4.152037e+003, 1.453008e+003
4.153965e+003, 1.453262e+003
4.155894e+003, 1.457107e+003
4.157822e+003, 1.454601e+003
4.159751e+003, 1.452221e+003
4.161679e+003, 1.463073e+003
4.163607e+003, 1.469003e+003
4.165536e+003, 1.466500e+003
4.167465e+003, 1.468886e+003
4.169393e+003, 1.473010e+003
4.171321e+003, 1.475365e+003
4.173250e+003, 1.478337e+003
4.175179e+003, 1.482156e+003
4.177107e+003, 1.480882e+003
4.179035e+003, 1.478857e+003
4.180964e+003, 1.478552e+003
4.182893e+003, 1.482426e+003
4.184821e+003, 1.489437e+003
4.186749e+003, 1.494960e+003
4.188678e+003, 1.497146e+003
4.190606e+003, 1.491266e+003
4.192535e+003, 1.494299e+003
4.194463e+003, 1.501316e+003
4.196392e+003, 1.494727e+003
4.198320e+003, 1.492872e+003
4.200249e+003, 1.505676e+003
4.202177e+003, 1.505063e+003
4.204105e+003, 1.499797e+003
4.206034e+003, 1.506045e+003
4.207962e+003, 1.510111e+003
4.209891e+003, 1.508979e+003
4.211819e+003, 1.506717e+003
4.213748e+003, 1.506612e+003
4.215676e+003, 1.513029e+003
4.217604e+003, 1.518214e+003
4.219533e+003, 1.521009e+003
4.221462e+003, 1.519859e+003
4.223390e+003, 1.520390e+003
4.225318e+003, 1.527077e+003
4.227247e+003, 1.528817e+003
4.229176e+003, 1.527442e+003
4.231104e+003, 1.530438e+003
4.233032e+003, 1.533713e+003
4.234961e+003, 1.535640e+003
4.236890e+003, 1.535612e+003
4.238818e+003, 1.536258e+003
4.240746e+003, 1.541950e+003
4.242675e+003, 1.545576e+003
##END=



