##NAMES=Newberyite
##RRUFFID=R050513
##IDEAL CHEMISTRY=Mg(PO_3_OH)·3H_2_O
##LOCALITY=Australia
##OWNER=RRUFF
##SOURCE=American Museum of Natural History
##DESCRIPTION=An aggregate of beige fragments
##STATUS=The identification of this mineral has been confirmed by X-ray diffraction and chemical analysis
##URL=https://www.rruff.net/odr/rruff_sample/R050513
##MEASURED CHEMISTRY=(Mg_0.98_Mn_0.01_Ca_0.01_)(P_1.00_O_3_OH)·3H_2_O
##DIFFRACTION SAMPLE DESCRIPTION=Powder
##CELL PARAMETERS=a: 10.2096 b: 10.6781 c: 10.0096 alpha: 90 beta: 90 gamma: 90 volume: 1091.26 crystal system: orthorhombic
##FILETYPE=Raman Processed
##RAMAN WAVELENGTH=532

195.2132, 4855.271
197.1417, 4866.590
199.0701, 4877.224
200.9986, 4887.172
202.9271, 4896.282
204.8555, 4908.866
206.7840, 4928.485
208.7125, 4950.364
210.6409, 4968.160
212.5694, 4978.218
214.4979, 4992.294
216.4263, 5014.884
218.3548, 5046.919
220.2833, 5075.691
222.2117, 5096.072
224.1402, 5115.592
226.0687, 5140.557
227.9971, 5174.194
229.9256, 5207.022
231.8541, 5236.270
233.7825, 5261.685
235.7110, 5288.068
237.6395, 5317.328
239.5679, 5346.971
241.4964, 5375.105
243.4249, 5397.949
245.3533, 5424.779
247.2818, 5459.210
249.2103, 5499.358
251.1387, 5538.009
253.0672, 5576.019
254.9957, 5610.888
256.9242, 5639.680
258.8526, 5657.003
260.7811, 5677.187
262.7096, 5702.906
264.6380, 5732.207
266.5665, 5761.340
268.4950, 5790.068
270.4234, 5818.053
272.3519, 5845.239
274.2804, 5871.926
276.2088, 5898.005
278.1373, 5925.823
280.0658, 5953.647
281.9942, 5976.706
283.9227, 5991.220
285.8512, 6005.806
287.7796, 6022.694
289.7081, 6041.347
291.6366, 6062.873
293.5650, 6090.150
295.4935, 6118.647
297.4220, 6142.217
299.3504, 6160.208
301.2789, 6176.102
303.2074, 6190.557
305.1358, 6203.844
307.0643, 6219.159
308.9928, 6235.409
310.9212, 6254.545
312.8497, 6278.846
314.7782, 6307.210
316.7066, 6339.857
318.6351, 6379.565
320.5636, 6425.281
322.4920, 6462.692
324.4205, 6485.875
326.3490, 6505.147
328.2774, 6529.228
330.2059, 6563.216
332.1344, 6580.784
334.0628, 6569.177
335.9913, 6544.184
337.9198, 6536.493
339.8482, 6553.095
341.7767, 6573.771
343.7052, 6589.583
345.6336, 6598.962
347.5621, 6617.179
349.4906, 6646.090
351.4190, 6678.995
353.3475, 6712.271
355.2760, 6745.898
357.2044, 6776.337
359.1329, 6801.499
361.0614, 6823.167
362.9898, 6846.688
364.9183, 6873.195
366.8468, 6900.577
368.7752, 6928.480
370.7037, 6956.991
372.6322, 6984.936
374.5606, 7009.352
376.4891, 7035.591
378.4176, 7070.008
380.3460, 7114.893
382.2745, 7161.476
384.2030, 7205.212
386.1314, 7245.526
388.0599, 7289.083
389.9884, 7338.307
391.9168, 7390.501
393.8453, 7441.502
395.7738, 7491.813
397.7022, 7531.491
399.6307, 7560.026
401.5592, 7581.374
403.4876, 7591.486
405.4161, 7588.444
407.3446, 7574.656
409.2730, 7556.702
411.2015, 7534.466
413.1300, 7509.530
415.0584, 7478.810
416.9869, 7451.026
418.9154, 7429.869
420.8438, 7415.063
422.7723, 7402.510
424.7008, 7390.647
426.6292, 7378.731
428.5577, 7368.229
430.4862, 7361.601
432.4146, 7353.853
434.3431, 7339.595
436.2716, 7320.758
438.2000, 7310.385
440.1285, 7318.352
442.0570, 7331.767
443.9854, 7345.208
445.9139, 7359.641
447.8424, 7375.016
449.7708, 7385.158
451.6993, 7391.440
453.6278, 7400.781
455.5562, 7416.015
457.4847, 7434.859
459.4132, 7454.390
461.3416, 7476.819
463.2701, 7505.949
465.1986, 7546.897
467.1270, 7581.667
469.0555, 7608.807
470.9840, 7625.471
472.9124, 7649.409
474.8409, 7678.461
476.7694, 7707.973
478.6978, 7739.175
480.6263, 7774.500
482.5548, 7816.673
484.4832, 7858.855
486.4117, 7900.320
488.3402, 7946.654
490.2686, 8000.521
492.1971, 8063.169
494.1256, 8131.295
496.0540, 8201.859
497.9825, 8261.975
499.9110, 8309.572
501.8394, 8353.674
503.7679, 8393.844
505.6964, 8426.497
507.6248, 8456.760
509.5533, 8497.053
511.4818, 8547.354
513.4103, 8602.240
515.3387, 8669.432
517.2672, 8728.829
519.1957, 8768.210
521.1241, 8791.373
523.0526, 8813.583
524.9811, 8838.914
526.9095, 8852.693
528.8380, 8853.135
530.7665, 8838.841
532.6949, 8819.300
534.6234, 8796.271
536.5519, 8773.139
538.4803, 8753.264
540.4088, 8738.563
542.3373, 8725.403
544.2657, 8701.858
546.1942, 8669.677
548.1227, 8637.645
550.0511, 8614.711
551.9796, 8598.669
553.9081, 8585.115
555.8365, 8572.447
557.7650, 8561.688
559.6935, 8551.418
561.6219, 8545.848
563.5504, 8547.068
565.4789, 8554.064
567.4073, 8559.748
569.3358, 8560.839
571.2643, 8558.004
573.1927, 8554.331
575.1212, 8553.116
577.0497, 8554.735
578.9781, 8557.335
580.9066, 8563.767
582.8351, 8576.290
584.7635, 8594.256
586.6920, 8614.117
588.6205, 8631.087
590.5490, 8648.524
592.4774, 8671.705
594.4059, 8716.854
596.3344, 8756.039
598.2628, 8767.651
600.1913, 8760.572
602.1198, 8760.306
604.0482, 8788.521
605.9767, 8820.090
607.9052, 8843.644
609.8336, 8856.393
611.7621, 8870.893
613.6906, 8892.960
615.6190, 8908.162
617.5475, 8909.686
619.4760, 8904.720
621.4044, 8923.052
623.3329, 8958.202
625.2614, 8988.900
627.1898, 9004.821
629.1183, 9024.444
631.0468, 9054.793
632.9752, 9086.653
634.9037, 9112.920
636.8322, 9132.171
638.7606, 9149.104
640.6891, 9171.760
642.6176, 9199.076
644.5460, 9222.404
646.4745, 9232.686
648.4030, 9239.392
650.3314, 9251.704
652.2599, 9272.670
654.1884, 9296.447
656.1168, 9317.093
658.0453, 9327.421
659.9738, 9343.594
661.9022, 9371.428
663.8307, 9402.839
665.7592, 9425.295
667.6876, 9436.289
669.6161, 9446.023
671.5446, 9458.934
673.4730, 9477.114
675.4015, 9497.313
677.3300, 9515.553
679.2584, 9537.025
681.1869, 9566.222
683.1154, 9600.514
685.0438, 9633.758
686.9723, 9661.521
688.9008, 9684.196
690.8292, 9700.463
692.7577, 9713.636
694.6862, 9729.662
696.6146, 9750.768
698.5431, 9767.771
700.4716, 9773.294
702.4000, 9773.525
704.3285, 9785.323
706.2570, 9813.578
708.1854, 9846.455
710.1139, 9879.225
712.0424, 9911.798
713.9708, 9941.770
715.8993, 9966.326
717.8278, 9984.491
719.7562, 9993.011
721.6847, 9998.601
723.6132, 10010.96
725.5416, 10032.65
727.4701, 10051.05
729.3986, 10057.16
731.3270, 10056.67
733.2555, 10061.28
735.1840, 10076.52
737.1124, 10094.56
739.0409, 10111.18
740.9694, 10120.83
742.8978, 10134.60
744.8263, 10156.76
746.7548, 10182.96
748.6832, 10205.73
750.6117, 10223.41
752.5402, 10243.69
754.4686, 10272.46
756.3971, 10300.54
758.3256, 10321.19
760.2540, 10331.22
762.1825, 10343.96
764.1110, 10362.74
766.0394, 10382.53
767.9679, 10395.75
769.8964, 10403.30
771.8248, 10415.42
773.7533, 10441.11
775.6818, 10466.34
777.6102, 10486.29
779.5387, 10497.15
781.4672, 10508.82
783.3956, 10521.40
785.3241, 10542.54
787.2526, 10576.02
789.1810, 10613.60
791.1095, 10642.69
793.0380, 10656.25
794.9664, 10668.86
796.8949, 10680.74
798.8234, 10687.94
800.7518, 10699.31
802.6803, 10718.48
804.6088, 10741.10
806.5372, 10762.87
808.4657, 10781.12
810.3942, 10800.91
812.3226, 10826.65
814.2511, 10855.40
816.1796, 10881.84
818.1080, 10904.61
820.0365, 10923.73
821.9650, 10932.06
823.8934, 10941.58
825.8219, 10962.39
827.7504, 10995.58
829.6788, 11026.75
831.6073, 11051.05
833.5358, 11072.46
835.4642, 11096.66
837.3927, 11127.33
839.3212, 11155.88
841.2496, 11180.71
843.1781, 11204.83
845.1066, 11229.39
847.0350, 11255.19
848.9635, 11285.22
850.8920, 11322.09
852.8204, 11359.61
854.7489, 11393.58
856.6774, 11421.40
858.6058, 11454.22
860.5343, 11496.24
862.4628, 11537.58
864.3912, 11573.87
866.3197, 11606.90
868.2482, 11638.19
870.1766, 11663.61
872.1051, 11697.41
874.0336, 11747.94
875.9620, 11812.43
877.8905, 11877.67
879.8190, 11938.38
881.7474, 12006.64
883.6759, 12088.21
885.6044, 12177.12
887.5328, 12264.71
889.4613, 12356.46
891.3898, 12428.21
893.3182, 12472.57
895.2467, 12493.70
897.1752, 12498.86
899.1036, 12484.70
901.0321, 12460.81
902.9606, 12421.26
904.8890, 12376.94
906.8175, 12341.27
908.7460, 12314.69
910.6744, 12290.10
912.6029, 12261.64
914.5314, 12238.01
916.4598, 12223.03
918.3883, 12215.88
920.3168, 12214.30
922.2452, 12217.55
924.1737, 12225.21
926.1022, 12240.38
928.0306, 12266.67
929.9591, 12292.59
931.8876, 12312.67
933.8160, 12334.76
935.7445, 12366.81
937.6730, 12409.12
939.6014, 12453.29
941.5299, 12498.31
943.4584, 12548.28
945.3868, 12600.35
947.3153, 12657.01
949.2438, 12718.50
951.1722, 12777.98
953.1007, 12844.61
955.0292, 12924.71
956.9576, 13014.87
958.8861, 13111.88
960.8146, 13211.47
962.7430, 13327.93
964.6715, 13453.03
966.6000, 13600.06
968.5284, 13791.04
970.4569, 14025.27
972.3854, 14309.63
974.3138, 14663.98
976.2423, 15051.97
978.1708, 15469.97
980.0992, 15937.06
982.0277, 16286.80
983.9562, 16498.39
985.8846, 16583.46
987.8131, 16492.95
989.7416, 16195.56
991.6700, 15839.21
993.5985, 15387.23
995.5270, 14933.33
997.4554, 14543.56
999.3839, 14235.17
1001.312, 13993.70
1003.241, 13827.73
1005.169, 13697.36
1007.098, 13599.75
1009.026, 13533.30
1010.955, 13480.55
1012.883, 13445.47
1014.812, 13417.59
1016.740, 13390.72
1018.669, 13372.00
1020.597, 13363.21
1022.526, 13364.02
1024.454, 13367.45
1026.382, 13368.57
1028.311, 13367.73
1030.239, 13377.63
1032.168, 13404.11
1034.096, 13431.02
1036.025, 13451.45
1037.953, 13471.22
1039.882, 13496.43
1041.810, 13533.48
1043.739, 13582.44
1045.667, 13640.76
1047.596, 13701.71
1049.524, 13769.21
1051.453, 13842.09
1053.381, 13901.69
1055.309, 13943.04
1057.238, 13964.74
1059.166, 13961.47
1061.095, 13947.61
1063.023, 13925.94
1064.952, 13892.41
1066.880, 13857.41
1068.809, 13823.29
1070.737, 13796.21
1072.666, 13780.51
1074.594, 13775.41
1076.523, 13774.29
1078.451, 13773.11
1080.380, 13773.25
1082.308, 13778.78
1084.236, 13798.74
1086.165, 13822.71
1088.093, 13845.77
1090.022, 13863.06
1091.950, 13873.32
1093.879, 13882.64
1095.807, 13896.82
1097.736, 13917.22
1099.664, 13942.45
1101.593, 13970.39
1103.521, 13992.94
1105.450, 14008.93
1107.378, 14029.76
1109.307, 14046.15
1111.235, 14055.83
1113.163, 14071.72
1115.092, 14104.85
1117.020, 14135.69
1118.949, 14160.70
1120.877, 14202.68
1122.806, 14253.42
1124.734, 14299.48
1126.663, 14335.29
1128.591, 14380.14
1130.520, 14441.97
1132.448, 14500.98
1134.377, 14547.59
1136.305, 14587.67
1138.234, 14637.30
1140.162, 14697.31
1142.090, 14747.24
1144.019, 14789.09
1145.947, 14837.67
1147.876, 14897.89
1149.804, 14958.35
1151.733, 15015.36
1153.661, 15075.53
1155.590, 15117.79
1157.518, 15135.53
1159.447, 15136.13
1161.375, 15132.18
1163.304, 15114.22
1165.232, 15099.36
1167.161, 15096.60
1169.089, 15101.96
1171.017, 15107.10
1172.946, 15107.78
1174.874, 15115.13
1176.803, 15133.83
1178.731, 15149.40
1180.660, 15155.21
1182.588, 15153.96
1184.517, 15149.79
1186.445, 15143.70
1188.374, 15145.46
1190.302, 15153.54
1192.231, 15163.84
1194.159, 15175.63
1196.088, 15193.69
1198.016, 15218.28
1199.944, 15251.32
1201.873, 15279.60
1203.801, 15291.02
1205.730, 15291.72
1207.658, 15309.89
1209.587, 15353.32
1211.515, 15390.94
1213.444, 15409.15
1215.372, 15422.74
1217.301, 15449.40
1219.229, 15491.64
1221.158, 15525.89
1223.086, 15530.57
1225.015, 15532.90
1226.943, 15553.51
1228.871, 15590.06
1230.800, 15623.15
1232.728, 15647.29
1234.657, 15679.96
1236.585, 15721.09
1238.514, 15768.17
1240.442, 15817.40
1242.371, 15865.41
1244.299, 15902.76
1246.228, 15929.36
1248.156, 15951.72
1250.085, 15964.08
1252.013, 15971.24
1253.942, 15985.69
1255.870, 16012.20
1257.798, 16029.59
1259.727, 16041.03
1261.655, 16055.28
1263.584, 16067.71
1265.512, 16076.44
1267.441, 16093.77
1269.369, 16123.19
1271.298, 16160.68
1273.226, 16203.35
1275.155, 16245.84
1277.083, 16288.72
1279.012, 16335.16
1280.940, 16373.17
1282.869, 16391.33
1284.797, 16409.73
1286.725, 16440.29
1288.654, 16477.56
1290.582, 16504.30
1292.511, 16516.39
1294.439, 16526.16
1296.368, 16546.15
1298.296, 16565.11
1300.225, 16569.06
1302.153, 16560.61
1304.082, 16569.92
1306.010, 16611.03
1307.939, 16650.07
1309.867, 16676.65
1311.796, 16697.88
1313.724, 16724.88
1315.652, 16762.39
1317.581, 16792.22
1319.509, 16798.67
1321.438, 16812.34
1323.366, 16854.60
1325.295, 16916.42
1327.223, 16964.12
1329.152, 16991.64
1331.080, 17010.69
1333.009, 17022.61
1334.937, 17034.66
1336.866, 17047.83
1338.794, 17067.31
1340.723, 17095.83
1342.651, 17134.10
1344.579, 17161.31
1346.508, 17177.69
1348.436, 17196.65
1350.365, 17217.89
1352.293, 17238.66
1354.222, 17252.05
1356.150, 17252.00
1358.079, 17267.65
1360.007, 17304.07
1361.936, 17346.74
1363.864, 17388.25
1365.793, 17427.85
1367.721, 17476.53
1369.650, 17540.97
1371.578, 17599.72
1373.506, 17638.01
1375.435, 17659.80
1377.363, 17685.04
1379.292, 17718.66
1381.220, 17742.70
1383.149, 17741.64
1385.077, 17744.69
1387.006, 17783.41
1388.934, 17840.42
1390.863, 17872.79
1392.791, 17874.07
1394.720, 17882.17
1396.648, 17905.99
1398.577, 17939.79
1400.505, 17976.60
1402.433, 18014.25
1404.362, 18057.34
1406.290, 18114.22
1408.219, 18153.29
1410.147, 18143.32
1412.076, 18140.58
1414.004, 18187.60
1415.933, 18267.36
1417.861, 18319.96
1419.790, 18318.70
1421.718, 18336.36
1423.647, 18389.44
1425.575, 18441.07
1427.504, 18464.82
1429.432, 18471.10
1431.360, 18503.64
1433.289, 18576.64
1435.217, 18633.24
1437.146, 18656.60
1439.074, 18669.40
1441.003, 18686.44
1442.931, 18707.62
1444.860, 18722.60
1446.788, 18726.63
1448.717, 18747.00
1450.645, 18807.40
1452.574, 18866.59
1454.502, 18891.15
1456.431, 18893.68
1458.359, 18904.53
1460.287, 18923.85
1462.216, 18952.63
1464.144, 19003.03
1466.073, 19049.37
1468.001, 19077.61
1469.930, 19095.77
1471.858, 19122.31
1473.787, 19160.69
1475.715, 19200.19
1477.644, 19236.57
1479.572, 19275.04
1481.501, 19319.18
1483.429, 19364.12
1485.358, 19399.21
1487.286, 19416.19
1489.214, 19435.30
1491.143, 19456.29
1493.071, 19479.24
1495.000, 19510.02
1496.928, 19544.07
1498.857, 19573.85
1500.785, 19602.48
1502.714, 19627.47
1504.642, 19639.27
1506.571, 19661.88
1508.499, 19711.85
1510.428, 19769.29
1512.356, 19802.56
1514.285, 19809.33
1516.213, 19829.40
1518.141, 19869.92
1520.070, 19910.68
1521.998, 19952.66
1523.927, 19989.22
1525.855, 20010.28
1527.784, 20020.23
1529.712, 20038.30
1531.641, 20068.72
1533.569, 20100.94
1535.498, 20128.44
1537.426, 20160.36
1539.355, 20206.12
1541.283, 20258.80
1543.212, 20301.49
1545.140, 20332.87
1547.068, 20360.89
1548.997, 20378.21
1550.925, 20402.43
1552.854, 20451.88
1554.782, 20510.79
1556.711, 20545.66
1558.639, 20552.37
1560.568, 20564.55
1562.496, 20593.58
1564.425, 20616.59
1566.353, 20616.71
1568.282, 20617.76
1570.210, 20648.42
1572.139, 20711.67
1574.067, 20775.66
1575.995, 20845.13
1577.924, 20905.16
1579.852, 20939.45
1581.781, 20971.50
1583.709, 21021.10
1585.638, 21081.64
1587.566, 21125.39
1589.495, 21142.64
1591.423, 21164.79
1593.352, 21199.44
1595.280, 21237.46
1597.209, 21271.65
1599.137, 21308.86
1601.066, 21363.06
1602.994, 21438.19
1604.922, 21492.03
1606.851, 21506.78
1608.779, 21518.83
1610.708, 21535.83
1612.636, 21552.22
1614.565, 21563.62
1616.493, 21574.35
1618.422, 21596.13
1620.350, 21636.24
1622.279, 21680.99
1624.207, 21725.30
1626.136, 21779.09
1628.064, 21848.98
1629.993, 21924.37
1631.921, 21991.99
1633.849, 22049.03
1635.778, 22088.66
1637.706, 22092.56
1639.635, 22110.32
1641.563, 22171.66
1643.492, 22236.50
1645.420, 22275.71
1647.349, 22296.88
1649.277, 22317.13
1651.206, 22333.46
1653.134, 22358.31
1655.063, 22390.00
1656.991, 22430.01
1658.920, 22492.02
1660.848, 22554.11
1662.776, 22588.22
1664.705, 22599.18
1666.633, 22622.36
1668.562, 22661.46
1670.490, 22704.15
1672.419, 22743.57
1674.347, 22786.22
1676.276, 22836.44
1678.204, 22885.89
1680.133, 22923.94
1682.061, 22950.24
1683.990, 22963.17
1685.918, 22960.23
1687.847, 22957.27
1689.775, 22965.62
1691.703, 22974.64
1693.632, 22971.26
1695.560, 22965.84
1697.489, 22985.15
1699.417, 23031.54
1701.346, 23064.49
1703.274, 23068.93
1705.203, 23077.41
1707.131, 23101.30
1709.060, 23132.94
1710.988, 23169.28
1712.917, 23207.84
1714.845, 23238.20
1716.774, 23255.94
1718.702, 23282.27
1720.630, 23322.93
1722.559, 23362.70
1724.487, 23393.64
1726.416, 23423.06
1728.344, 23466.39
1730.273, 23517.21
1732.201, 23540.33
1734.130, 23528.93
1736.058, 23529.82
1737.987, 23555.39
1739.915, 23586.53
1741.844, 23625.76
1743.772, 23659.97
1745.701, 23663.68
1747.629, 23648.29
1749.557, 23677.15
1751.486, 23766.26
1753.414, 23837.63
1755.343, 23869.35
1757.271, 23899.23
1759.200, 23942.90
1761.128, 23984.61
1763.057, 23998.67
1764.985, 23994.88
1766.914, 24028.83
1768.842, 24123.71
1770.771, 24186.08
1772.699, 24186.62
1774.628, 24193.50
1776.556, 24227.63
1778.484, 24274.13
1780.413, 24323.60
1782.341, 24370.81
1784.270, 24403.52
1786.198, 24416.20
1788.127, 24422.24
1790.055, 24412.94
1791.984, 24413.90
1793.912, 24444.90
1795.841, 24483.03
1797.769, 24509.57
1799.698, 24534.87
1801.626, 24581.24
1803.555, 24652.16
1805.483, 24714.35
1807.411, 24752.95
1809.340, 24792.54
1811.268, 24830.47
1813.197, 24868.29
1815.125, 24914.91
1817.054, 24958.78
1818.982, 24978.69
1820.911, 24976.40
1822.839, 24992.95
1824.768, 25039.44
1826.696, 25084.71
1828.625, 25130.39
1830.553, 25166.91
1832.482, 25180.73
1834.410, 25188.89
1836.339, 25205.22
1838.267, 25229.08
1840.195, 25263.84
1842.124, 25312.75
1844.052, 25353.74
1845.981, 25378.96
1847.909, 25412.58
1849.838, 25478.30
1851.766, 25537.65
1853.695, 25557.61
1855.623, 25558.76
1857.552, 25574.64
1859.480, 25603.32
1861.409, 25634.86
1863.337, 25668.26
1865.266, 25705.77
1867.194, 25758.63
1869.122, 25799.46
1871.051, 25791.64
1872.979, 25786.56
1874.908, 25852.75
1876.836, 25958.15
1878.765, 26006.07
1880.693, 25990.85
1882.622, 25988.14
1884.550, 26013.08
1886.479, 26031.92
1888.407, 26018.92
1890.336, 26019.35
1892.264, 26076.66
1894.193, 26150.57
1896.121, 26181.66
1898.049, 26177.46
1899.978, 26194.20
1901.906, 26239.89
1903.835, 26285.94
1905.763, 26331.05
1907.692, 26374.69
1909.620, 26411.80
1911.549, 26450.53
1913.477, 26501.16
1915.406, 26554.34
1917.334, 26592.91
1919.263, 26617.93
1921.191, 26650.76
1923.120, 26696.06
1925.048, 26734.55
1926.976, 26758.40
1928.905, 26784.34
1930.833, 26816.33
1932.762, 26851.46
1934.690, 26898.30
1936.619, 26940.52
1938.547, 26941.40
1940.476, 26910.58
1942.404, 26911.92
1944.333, 26954.62
1946.261, 26996.37
1948.190, 27035.98
1950.118, 27067.83
1952.047, 27085.48
1953.975, 27101.62
1955.904, 27113.94
1957.832, 27133.78
1959.760, 27181.45
1961.689, 27251.49
1963.617, 27317.69
1965.546, 27383.28
1967.474, 27428.56
1969.403, 27434.65
1971.331, 27448.53
1973.260, 27487.02
1975.188, 27527.14
1977.117, 27556.81
1979.045, 27581.36
1980.974, 27607.93
1982.902, 27634.31
1984.831, 27650.62
1986.759, 27654.80
1988.688, 27666.72
1990.616, 27686.84
1992.544, 27721.63
1994.473, 27781.96
1996.401, 27845.15
1998.330, 27901.88
2000.258, 27956.80
2002.187, 28012.83
2004.115, 28066.35
2006.044, 28111.60
2007.972, 28147.16
2009.901, 28175.36
2011.829, 28194.20
2013.758, 28217.43
2015.686, 28253.88
2017.615, 28289.38
2019.543, 28323.03
2021.471, 28358.41
2023.400, 28395.26
2025.328, 28438.11
2027.257, 28491.08
2029.185, 28551.17
2031.114, 28614.60
2033.042, 28681.16
2034.971, 28724.44
2036.899, 28732.79
2038.828, 28738.42
2040.756, 28747.03
2042.685, 28753.31
2044.613, 28761.13
2046.542, 28769.04
2048.470, 28770.52
2050.398, 28781.47
2052.327, 28830.43
2054.255, 28903.71
2056.184, 28950.96
2058.112, 28968.86
2060.041, 29003.47
2061.969, 29060.65
2063.898, 29116.06
2065.826, 29172.70
2067.755, 29213.96
2069.683, 29215.97
2071.612, 29224.75
2073.540, 29290.52
2075.469, 29368.82
2077.397, 29390.77
2079.325, 29371.67
2081.254, 29374.78
2083.182, 29401.49
2085.111, 29438.06
2087.039, 29489.36
2088.968, 29533.19
2090.896, 29568.17
2092.825, 29592.17
2094.753, 29593.42
2096.682, 29597.45
2098.610, 29617.58
2100.539, 29647.53
2102.467, 29691.96
2104.396, 29737.89
2106.324, 29750.30
2108.252, 29731.88
2110.181, 29734.17
2112.109, 29766.44
2114.038, 29797.23
2115.966, 29838.23
2117.895, 29863.07
2119.823, 29843.31
2121.752, 29843.51
2123.680, 29890.49
2125.609, 29960.09
2127.537, 30051.68
2129.466, 30139.62
2131.394, 30179.64
2133.323, 30184.92
2135.251, 30202.74
2137.179, 30232.32
2139.108, 30255.03
2141.036, 30269.31
2142.965, 30285.87
2144.893, 30310.49
2146.822, 30335.10
2148.750, 30355.00
2150.679, 30382.14
2152.607, 30431.85
2154.536, 30482.02
2156.464, 30511.68
2158.393, 30532.99
2160.321, 30560.43
2162.250, 30594.77
2164.178, 30643.13
2166.106, 30704.10
2168.035, 30759.71
2169.963, 30807.74
2171.892, 30853.38
2173.820, 30893.03
2175.749, 30941.47
2177.677, 31013.99
2179.606, 31078.98
2181.534, 31125.91
2183.463, 31157.96
2185.391, 31166.57
2187.320, 31169.03
2189.248, 31185.03
2191.177, 31211.97
2193.105, 31249.77
2195.033, 31296.70
2196.962, 31313.48
2198.890, 31298.36
2200.819, 31289.01
2202.747, 31292.13
2204.676, 31302.11
2206.604, 31320.22
2208.533, 31350.21
2210.461, 31396.25
2212.390, 31452.41
2214.318, 31515.49
2216.247, 31581.46
2218.175, 31645.79
2220.104, 31704.18
2222.032, 31750.83
2223.960, 31787.20
2225.889, 31822.64
2227.817, 31858.62
2229.746, 31892.46
2231.674, 31927.37
2233.603, 31966.31
2235.531, 32016.44
2237.460, 32044.53
2239.388, 32018.54
2241.317, 32024.67
2243.245, 32117.16
2245.174, 32202.77
2247.102, 32233.98
2249.031, 32252.63
2250.959, 32291.56
2252.887, 32333.39
2254.816, 32348.67
2256.744, 32357.10
2258.673, 32410.63
2260.601, 32493.23
2262.530, 32523.08
2264.458, 32502.90
2266.387, 32524.05
2268.315, 32600.88
2270.244, 32650.87
2272.172, 32654.63
2274.101, 32664.28
2276.029, 32680.79
2277.958, 32721.50
2279.886, 32815.31
2281.814, 32899.65
2283.743, 32945.49
2285.671, 32968.82
2287.600, 32954.69
2289.528, 32943.78
2291.457, 32988.66
2293.385, 33062.24
2295.314, 33129.96
2297.242, 33186.44
2299.171, 33204.85
2301.099, 33186.13
2303.028, 33193.55
2304.956, 33239.04
2306.885, 33267.77
2308.813, 33271.12
2310.741, 33286.34
2312.670, 33316.81
2314.598, 33362.38
2316.527, 33435.05
2318.455, 33496.56
2320.384, 33528.55
2322.312, 33547.48
2324.241, 33545.77
2326.169, 33551.60
2328.098, 33591.48
2330.026, 33646.40
2331.955, 33704.32
2333.883, 33754.65
2335.812, 33771.46
2337.740, 33764.39
2339.668, 33769.67
2341.597, 33788.84
2343.525, 33837.70
2345.454, 33918.17
2347.382, 33956.54
2349.311, 33937.40
2351.239, 33933.77
2353.168, 33959.15
2355.096, 33986.71
2357.025, 34011.25
2358.953, 34038.81
2360.882, 34070.48
2362.810, 34104.44
2364.739, 34140.08
2366.667, 34178.17
2368.595, 34218.55
2370.524, 34259.79
2372.452, 34300.74
2374.381, 34339.19
2376.309, 34386.50
2378.238, 34422.21
2380.166, 34391.65
2382.095, 34331.83
2384.023, 34347.66
2385.952, 34429.30
2387.880, 34502.52
2389.809, 34568.07
2391.737, 34643.71
2393.666, 34728.88
2395.594, 34775.16
2397.522, 34766.04
2399.451, 34755.85
2401.379, 34730.22
2403.308, 34735.93
2405.236, 34796.42
2407.165, 34852.12
2409.093, 34899.74
2411.022, 34934.86
2412.950, 34952.95
2414.879, 34968.61
2416.807, 34983.73
2418.736, 35007.57
2420.664, 35056.72
2422.593, 35104.36
2424.521, 35113.91
2426.449, 35120.09
2428.378, 35161.63
2430.306, 35224.46
2432.235, 35296.77
2434.163, 35369.12
2436.092, 35426.95
2438.020, 35467.35
2439.949, 35474.82
2441.877, 35456.50
2443.806, 35449.34
2445.734, 35454.11
2447.663, 35505.41
2449.591, 35614.90
2451.520, 35690.30
2453.448, 35721.11
2455.376, 35746.55
2457.305, 35761.37
2459.233, 35796.07
2461.162, 35874.41
2463.090, 35925.18
2465.019, 35920.20
2466.947, 35924.75
2468.876, 35973.02
2470.804, 36013.91
2472.733, 36025.52
2474.661, 36040.90
2476.590, 36067.52
2478.518, 36096.02
2480.447, 36111.59
2482.375, 36128.56
2484.303, 36163.85
2486.232, 36200.51
2488.160, 36226.66
2490.089, 36252.61
2492.017, 36291.29
2493.946, 36339.53
2495.874, 36391.53
2497.803, 36446.76
2499.731, 36504.34
2501.660, 36559.01
2503.588, 36599.64
2505.517, 36626.89
2507.445, 36648.92
2509.374, 36666.57
2511.302, 36710.22
2513.230, 36773.08
2515.159, 36762.02
2517.087, 36685.27
2519.016, 36682.48
2520.944, 36774.37
2522.873, 36815.62
2524.801, 36770.92
2526.730, 36793.93
2528.658, 36912.99
2530.587, 36985.21
2532.515, 36982.19
2534.444, 37005.00
2536.372, 37077.68
2538.301, 37121.33
2540.229, 37097.95
2542.157, 37093.28
2544.086, 37153.75
2546.014, 37195.72
2547.943, 37194.66
2549.871, 37199.55
2551.800, 37213.46
2553.728, 37253.16
2555.657, 37338.49
2557.585, 37419.70
2559.514, 37473.87
2561.442, 37512.85
2563.371, 37524.71
2565.299, 37546.82
2567.228, 37634.68
2569.156, 37699.01
2571.084, 37664.24
2573.013, 37618.66
2574.941, 37617.67
2576.870, 37644.33
2578.798, 37698.35
2580.727, 37758.20
2582.655, 37814.93
2584.584, 37855.59
2586.512, 37846.25
2588.441, 37829.53
2590.369, 37854.45
2592.298, 37903.60
2594.226, 37963.78
2596.155, 38021.71
2598.083, 38053.04
2600.011, 38069.52
2601.940, 38090.91
2603.868, 38121.55
2605.797, 38168.02
2607.725, 38231.82
2609.654, 38329.02
2611.582, 38437.69
2613.511, 38479.10
2615.439, 38475.01
2617.368, 38532.84
2619.296, 38630.91
2621.225, 38654.29
2623.153, 38624.91
2625.082, 38651.80
2627.010, 38724.82
2628.938, 38760.33
2630.867, 38764.34
2632.795, 38773.68
2634.724, 38791.42
2636.652, 38771.42
2638.581, 38723.53
2640.509, 38746.77
2642.438, 38838.37
2644.366, 38923.83
2646.295, 38996.82
2648.223, 39019.39
2650.152, 38978.82
2652.080, 38992.07
2654.009, 39061.32
2655.937, 39110.30
2657.865, 39139.02
2659.794, 39144.02
2661.722, 39119.50
2663.651, 39143.65
2665.579, 39225.08
2667.508, 39300.80
2669.436, 39367.55
2671.365, 39400.88
2673.293, 39395.64
2675.222, 39416.52
2677.150, 39480.62
2679.079, 39512.37
2681.007, 39498.19
2682.936, 39515.18
2684.864, 39567.85
2686.792, 39622.84
2688.721, 39676.51
2690.649, 39734.73
2692.578, 39799.49
2694.506, 39849.35
2696.435, 39874.83
2698.363, 39915.55
2700.292, 39975.74
2702.220, 40023.84
2704.149, 40056.11
2706.077, 40108.49
2708.006, 40195.76
2709.934, 40231.58
2711.863, 40173.85
2713.791, 40204.37
2715.719, 40337.12
2717.648, 40417.15
2719.576, 40430.35
2721.505, 40438.84
2723.433, 40448.92
2725.362, 40454.21
2727.290, 40451.19
2729.219, 40475.66
2731.147, 40532.08
2733.076, 40580.75
2735.004, 40618.67
2736.933, 40683.23
2738.861, 40785.35
2740.790, 40838.99
2742.718, 40833.28
2744.646, 40838.19
2746.575, 40854.88
2748.503, 40868.57
2750.432, 40879.85
2752.360, 40937.81
2754.289, 41046.39
2756.217, 41090.55
2758.146, 41062.59
2760.074, 41057.40
2762.003, 41072.36
2763.931, 41096.49
2765.860, 41129.84
2767.788, 41148.63
2769.717, 41158.63
2771.645, 41191.96
2773.573, 41245.63
2775.502, 41270.03
2777.430, 41273.09
2779.359, 41310.54
2781.287, 41362.53
2783.216, 41322.91
2785.144, 41230.68
2787.073, 41270.86
2789.001, 41397.39
2790.930, 41435.89
2792.858, 41428.13
2794.787, 41469.43
2796.715, 41541.53
2798.644, 41610.05
2800.572, 41670.84
2802.500, 41723.62
2804.429, 41762.16
2806.357, 41767.55
2808.286, 41768.38
2810.214, 41828.58
2812.143, 41893.26
2814.071, 41857.68
2816.000, 41808.66
2817.928, 41847.62
2819.857, 41922.93
2821.785, 42007.41
2823.714, 42073.46
2825.642, 42082.51
2827.571, 42076.03
2829.499, 42083.22
2831.427, 42100.03
2833.356, 42141.96
2835.284, 42174.98
2837.213, 42157.19
2839.141, 42161.20
2841.070, 42253.81
2842.998, 42330.77
2844.927, 42329.71
2846.855, 42345.17
2848.784, 42437.42
2850.712, 42510.99
2852.641, 42529.73
2854.569, 42534.68
2856.498, 42525.43
2858.426, 42528.02
2860.354, 42551.73
2862.283, 42580.05
2864.211, 42627.68
2866.140, 42643.23
2868.068, 42613.15
2869.997, 42609.26
2871.925, 42641.75
2873.854, 42669.57
2875.782, 42684.79
2877.711, 42713.58
2879.639, 42757.49
2881.568, 42774.87
2883.496, 42765.53
2885.425, 42747.64
2887.353, 42728.18
2889.281, 42758.27
2891.210, 42827.20
2893.138, 42851.73
2895.067, 42851.94
2896.995, 42892.08
2898.924, 42951.92
2900.852, 42986.45
2902.781, 43007.20
2904.709, 43043.24
2906.638, 43073.11
2908.566, 43054.31
2910.495, 43035.32
2912.423, 43073.00
2914.352, 43128.16
2916.280, 43172.25
2918.208, 43211.77
2920.137, 43244.18
2922.065, 43272.26
2923.994, 43295.45
2925.922, 43307.34
2927.851, 43300.65
2929.779, 43292.15
2931.708, 43291.82
2933.636, 43294.34
2935.565, 43300.60
2937.493, 43320.17
2939.422, 43358.55
2941.350, 43399.99
2943.279, 43440.88
2945.207, 43465.45
2947.135, 43468.42
2949.064, 43480.01
2950.992, 43504.00
2952.921, 43513.82
2954.849, 43515.71
2956.778, 43539.59
2958.706, 43579.36
2960.635, 43589.61
2962.563, 43591.77
2964.492, 43643.84
2966.420, 43711.90
2968.349, 43726.45
2970.277, 43725.28
2972.206, 43752.38
2974.134, 43787.86
2976.063, 43839.95
2977.991, 43868.29
2979.919, 43820.54
2981.848, 43795.15
2983.776, 43867.45
2985.705, 43919.73
2987.633, 43850.88
2989.562, 43849.46
2991.490, 43972.92
2993.419, 44054.46
2995.347, 44056.22
2997.276, 44059.36
2999.204, 44089.21
3001.133, 44089.59
3003.061, 44064.74
3004.990, 44066.94
3006.918, 44098.22
3008.846, 44153.09
3010.775, 44220.58
3012.703, 44261.03
3014.632, 44288.39
3016.560, 44353.47
3018.489, 44424.57
3020.417, 44461.60
3022.346, 44481.53
3024.274, 44503.20
3026.203, 44516.16
3028.131, 44503.01
3030.060, 44494.34
3031.988, 44496.58
3033.917, 44517.47
3035.845, 44566.40
3037.773, 44613.47
3039.702, 44655.42
3041.630, 44692.85
3043.559, 44741.06
3045.487, 44735.23
3047.416, 44669.12
3049.344, 44676.92
3051.273, 44751.09
3053.201, 44785.33
3055.130, 44785.62
3057.058, 44775.74
3058.987, 44770.46
3060.915, 44824.05
3062.844, 44888.63
3064.772, 44907.20
3066.700, 44905.73
3068.629, 44894.78
3070.557, 44890.60
3072.486, 44892.96
3074.414, 44912.77
3076.343, 44970.65
3078.271, 45011.15
3080.200, 45028.23
3082.128, 45017.52
3084.057, 44973.38
3085.985, 44982.01
3087.914, 45064.07
3089.842, 45073.12
3091.771, 45024.71
3093.699, 45073.69
3095.627, 45173.53
3097.556, 45177.61
3099.484, 45142.63
3101.413, 45181.02
3103.341, 45224.13
3105.270, 45199.79
3107.198, 45161.37
3109.127, 45134.41
3111.055, 45128.68
3112.984, 45165.11
3114.912, 45190.20
3116.841, 45190.20
3118.769, 45187.32
3120.698, 45180.50
3122.626, 45187.63
3124.554, 45206.68
3126.483, 45222.29
3128.411, 45236.61
3130.340, 45273.83
3132.268, 45332.29
3134.197, 45445.15
3136.125, 45535.30
3138.054, 45455.54
3139.982, 45372.71
3141.911, 45466.32
3143.839, 45547.22
3145.768, 45515.24
3147.696, 45498.38
3149.625, 45573.24
3151.553, 45617.41
3153.481, 45618.90
3155.410, 45619.01
3157.338, 45620.63
3159.267, 45673.09
3161.195, 45763.48
3163.124, 45825.65
3165.052, 45864.98
3166.981, 45893.85
3168.909, 45920.41
3170.838, 45956.00
3172.766, 45999.16
3174.695, 46063.35
3176.623, 46111.18
3178.552, 46106.58
3180.480, 46117.42
3182.408, 46153.54
3184.337, 46216.63
3186.265, 46308.41
3188.194, 46347.94
3190.122, 46335.63
3192.051, 46349.63
3193.979, 46382.60
3195.908, 46394.85
3197.836, 46418.02
3199.765, 46504.42
3201.693, 46609.39
3203.622, 46679.27
3205.550, 46765.01
3207.479, 46916.51
3209.407, 47003.88
3211.335, 46959.89
3213.264, 46928.65
3215.192, 46924.22
3217.121, 46974.66
3219.049, 47080.95
3220.978, 47104.74
3222.906, 47096.67
3224.835, 47201.45
3226.763, 47348.13
3228.692, 47438.48
3230.620, 47531.02
3232.549, 47674.38
3234.477, 47811.63
3236.406, 47922.71
3238.334, 48021.16
3240.262, 48108.93
3242.191, 48207.16
3244.119, 48319.09
3246.048, 48459.34
3247.976, 48616.30
3249.905, 48741.05
3251.833, 48846.35
3253.762, 48948.02
3255.690, 49055.80
3257.619, 49201.58
3259.547, 49327.10
3261.476, 49414.88
3263.404, 49465.14
3265.333, 49444.32
3267.261, 49503.08
3269.189, 49658.55
3271.118, 49755.92
3273.046, 49794.64
3274.975, 49808.71
3276.903, 49800.89
3278.832, 49773.50
3280.760, 49733.43
3282.689, 49669.53
3284.617, 49626.59
3286.546, 49651.60
3288.474, 49646.01
3290.403, 49582.69
3292.331, 49513.18
3294.260, 49443.07
3296.188, 49345.53
3298.116, 49231.20
3300.045, 49149.05
3301.973, 49088.41
3303.902, 49047.20
3305.830, 48995.31
3307.759, 48893.65
3309.687, 48802.59
3311.616, 48757.43
3313.544, 48718.63
3315.473, 48687.80
3317.401, 48613.30
3319.330, 48499.48
3321.258, 48471.68
3323.187, 48503.70
3325.115, 48536.13
3327.043, 48554.85
3328.972, 48549.96
3330.900, 48522.82
3332.829, 48468.57
3334.757, 48410.21
3336.686, 48351.11
3338.614, 48294.27
3340.543, 48227.24
3342.471, 48277.22
3344.400, 48397.69
3346.328, 48414.77
3348.257, 48385.02
3350.185, 48401.15
3352.114, 48414.80
3354.042, 48386.87
3355.970, 48364.90
3357.899, 48373.55
3359.827, 48368.73
3361.756, 48344.68
3363.684, 48389.76
3365.613, 48494.01
3367.541, 48617.82
3369.470, 48717.93
3371.398, 48709.42
3373.327, 48667.21
3375.255, 48627.04
3377.184, 48615.70
3379.112, 48646.20
3381.041, 48704.10
3382.969, 48809.66
3384.897, 48808.29
3386.826, 48728.61
3388.754, 48699.40
3390.683, 48693.01
3392.611, 48683.86
3394.540, 48649.90
3396.468, 48567.32
3398.397, 48492.70
3400.325, 48444.32
3402.254, 48436.97
3404.182, 48471.18
3406.111, 48460.82
3408.039, 48419.69
3409.968, 48432.52
3411.896, 48438.46
3413.824, 48362.57
3415.753, 48262.09
3417.681, 48157.11
3419.610, 48067.02
3421.538, 47989.99
3423.467, 47980.60
3425.395, 48036.59
3427.324, 48085.63
3429.252, 48103.15
3431.181, 47993.20
3433.109, 47896.54
3435.038, 47986.59
3436.966, 48063.22
3438.895, 48060.59
3440.823, 48033.54
3442.751, 47991.07
3444.680, 47919.20
3446.608, 47848.03
3448.537, 47884.00
3450.465, 47972.09
3452.394, 48039.87
3454.322, 48112.25
3456.251, 48202.55
3458.179, 48275.55
3460.108, 48313.38
3462.036, 48379.70
3463.965, 48473.62
3465.893, 48558.69
3467.822, 48627.97
3469.750, 48633.12
3471.678, 48663.09
3473.607, 48804.20
3475.535, 48938.81
3477.464, 49043.85
3479.392, 49074.07
3481.321, 49023.31
3483.249, 49015.88
3485.178, 49009.33
3487.106, 48891.09
3489.035, 48744.98
3490.963, 48640.90
3492.892, 48535.52
3494.820, 48417.91
3496.749, 48299.33
3498.677, 48181.43
3500.605, 48080.27
3502.534, 47992.90
3504.462, 47903.42
3506.391, 47828.24
3508.319, 47799.26
3510.248, 47756.14
3512.176, 47667.70
3514.105, 47614.24
3516.033, 47603.55
3517.962, 47530.75
3519.890, 47422.61
3521.819, 47318.71
3523.747, 47252.41
3525.676, 47284.68
3527.604, 47278.28
3529.532, 47132.28
3531.461, 47055.91
3533.389, 47045.98
3535.318, 46989.75
3537.246, 46907.09
3539.175, 46837.20
3541.103, 46781.57
3543.032, 46756.10
3544.960, 46716.09
3546.889, 46637.02
3548.817, 46611.53
3550.746, 46635.85
3552.674, 46639.35
3554.603, 46627.60
3556.531, 46612.24
3558.459, 46593.25
3560.388, 46583.45
3562.316, 46543.68
3564.245, 46464.62
3566.173, 46456.84
3568.102, 46499.76
3570.030, 46475.10
3571.959, 46424.78
3573.887, 46386.68
3575.816, 46371.10
3577.744, 46413.31
3579.673, 46379.41
3581.601, 46253.96
3583.530, 46181.60
3585.458, 46155.39
3587.386, 46157.31
3589.315, 46166.62
3591.243, 46167.24
3593.172, 46154.95
3595.100, 46119.73
3597.029, 46119.87
3598.957, 46148.76
3600.886, 46151.93
3602.814, 46131.63
3604.743, 46071.68
3606.671, 46032.09
3608.600, 46055.49
3610.528, 46047.69
3612.457, 45995.31
3614.385, 45970.88
3616.313, 45964.01
3618.242, 45935.55
3620.170, 45912.48
3622.099, 45916.18
3624.027, 45914.12
3625.956, 45888.81
3627.884, 45863.83
3629.813, 45841.24
3631.741, 45855.75
3633.670, 45877.61
3635.598, 45886.10
3637.527, 45875.43
3639.455, 45845.16
3641.384, 45797.72
3643.312, 45733.76
3645.240, 45703.32
3647.169, 45687.68
3649.097, 45657.27
3651.026, 45630.21
3652.954, 45613.27
3654.883, 45626.50
3656.811, 45684.58
3658.740, 45650.43
3660.668, 45575.00
3662.597, 45576.82
3664.525, 45591.99
3666.454, 45567.88
3668.382, 45565.95
3670.311, 45624.24
3672.239, 45591.54
3674.167, 45509.70
3676.096, 45509.02
3678.024, 45528.88
3679.953, 45505.13
3681.881, 45496.48
3683.810, 45526.32
3685.738, 45506.31
3687.667, 45453.49
3689.595, 45464.16
3691.524, 45498.69
3693.452, 45546.89
3695.381, 45543.16
3697.309, 45447.30
3699.238, 45417.73
3701.166, 45446.96
3703.094, 45439.98
3705.023, 45424.98
3706.951, 45437.59
3708.880, 45442.36
3710.808, 45430.31
3712.737, 45392.41
3714.665, 45333.35
3716.594, 45258.24
3718.522, 45207.69
3720.451, 45261.27
3722.379, 45294.73
3724.308, 45266.46
3726.236, 45234.46
3728.165, 45205.45
3730.093, 45194.21
3732.021, 45178.25
3733.950, 45106.37
3735.878, 45074.55
3737.807, 45117.60
3739.735, 45114.82
3741.664, 45068.11
3743.592, 45039.72
3745.521, 45027.41
3747.449, 45048.50
3749.378, 45051.14
3751.306, 45021.81
3753.235, 44986.25
3755.163, 44952.71
3757.092, 44968.20
3759.020, 44975.52
3760.948, 44896.41
3762.877, 44866.25
3764.805, 44915.40
3766.734, 44896.53
3768.662, 44832.29
3770.591, 44814.30
3772.519, 44799.63
3774.448, 44762.29
3776.376, 44714.71
3778.305, 44662.28
3780.233, 44627.65
3782.162, 44604.61
3784.090, 44558.27
3786.019, 44541.40
3787.947, 44614.98
3789.875, 44635.92
3791.804, 44597.26
3793.732, 44570.77
3795.661, 44549.07
3797.589, 44505.67
3799.518, 44502.88
3801.446, 44592.39
3803.375, 44639.52
3805.303, 44641.14
3807.232, 44596.30
3809.160, 44570.20
3811.089, 44643.51
3813.017, 44679.24
3814.946, 44641.51
3816.874, 44589.21
3818.802, 44536.48
3820.731, 44518.10
3822.659, 44493.77
3824.588, 44427.51
3826.516, 44396.36
3828.445, 44404.86
3830.373, 44433.12
3832.302, 44454.15
3834.230, 44429.14
3836.159, 44387.26
3838.087, 44329.02
3840.016, 44340.29
3841.944, 44389.15
3843.873, 44292.29
3845.801, 44203.15
3847.729, 44270.71
3849.658, 44330.12
3851.586, 44354.91
3853.515, 44260.88
3855.443, 44145.20
3857.372, 44176.91
3859.300, 44236.82
3861.229, 44288.03
3863.157, 44255.81
3865.086, 44157.70
3867.014, 44116.90
3868.943, 44078.09
3870.871, 43986.76
3872.800, 43908.22
3874.728, 43859.55
3876.656, 43858.66
3878.585, 43884.43
3880.513, 43906.21
3882.442, 43955.81
3884.370, 44089.59
3886.299, 44090.92
3888.227, 44010.09
3890.156, 44088.27
3892.084, 44158.70
3894.013, 44068.42
3895.941, 44022.68
3897.870, 44066.21
3899.798, 44029.96
3901.727, 43975.23
3903.655, 44011.50
3905.583, 44035.02
3907.512, 43999.39
3909.440, 44007.88
3911.369, 44036.96
3913.297, 44000.91
3915.226, 43965.86
3917.154, 43967.54
3919.083, 43940.65
3921.011, 43885.11
3922.940, 43871.62
3924.868, 43879.42
3926.797, 43894.23
3928.725, 43878.46
3930.654, 43834.19
3932.582, 43822.85
3934.510, 43842.20
3936.439, 43910.68
3938.367, 43927.21
3940.296, 43836.60
3942.224, 43829.19
3944.153, 43864.66
3946.081, 43856.20
3948.010, 43824.48
3949.938, 43765.46
3951.867, 43726.80
3953.795, 43719.37
3955.724, 43777.67
3957.652, 43824.19
3959.581, 43770.04
3961.509, 43735.26
3963.438, 43735.02
3965.366, 43711.02
3967.294, 43698.45
3969.223, 43726.01
3971.151, 43733.35
3973.080, 43716.33
3975.008, 43705.22
3976.937, 43689.40
3978.865, 43625.05
3980.794, 43591.52
3982.722, 43623.89
3984.651, 43653.48
3986.579, 43668.71
3988.508, 43638.69
3990.436, 43616.35
3992.365, 43639.23
3994.293, 43602.07
3996.221, 43528.77
3998.150, 43546.54
4000.078, 43582.80
4002.007, 43586.28
4003.935, 43612.36
4005.864, 43659.27
4007.792, 43653.34
4009.721, 43621.76
4011.649, 43562.59
4013.578, 43559.88
4015.506, 43618.18
4017.435, 43644.35
4019.363, 43640.52
4021.292, 43586.33
4023.220, 43544.34
4025.148, 43526.36
4027.077, 43549.65
4029.005, 43585.47
4030.934, 43553.45
4032.862, 43492.91
4034.791, 43434.85
4036.719, 43423.71
4038.648, 43446.39
4040.576, 43470.79
4042.505, 43476.23
4044.433, 43445.68
4046.362, 43428.61
4048.290, 43426.84
4050.219, 43436.41
4052.147, 43421.49
4054.075, 43357.75
4056.004, 43349.90
4057.932, 43369.83
4059.861, 43362.70
4061.789, 43350.34
4063.718, 43319.66
4065.646, 43275.03
4067.575, 43241.88
4069.503, 43188.91
4071.432, 43140.89
4073.360, 43126.37
4075.289, 43124.26
4077.217, 43128.59
4079.146, 43035.84
4081.074, 42973.66
4083.002, 43040.78
4084.931, 43062.09
4086.859, 43038.03
4088.788, 43010.54
4090.716, 42972.77
4092.645, 42959.57
4094.573, 42904.84
4096.502, 42811.92
4098.430, 42804.69
4100.359, 42799.58
4102.287, 42751.90
4104.216, 42740.63
4106.144, 42728.29
4108.073, 42682.76
4110.001, 42681.87
4111.930, 42679.57
4113.858, 42641.51
4115.787, 42636.39
4117.715, 42613.59
4119.644, 42594.13
4121.572, 42604.25
4123.500, 42616.80
4125.429, 42603.37
4127.357, 42535.95
4129.286, 42480.60
4131.214, 42471.25
4133.143, 42485.29
4135.071, 42496.15
4137.000, 42455.70
4138.928, 42403.51
4140.856, 42387.52
4142.785, 42373.82
4144.713, 42393.46
4146.642, 42419.82
4148.570, 42401.26
4150.499, 42355.68
4152.427, 42312.39
4154.356, 42291.70
4156.284, 42272.50
4158.213, 42232.52
4160.141, 42211.82
4162.070, 42194.47
4163.998, 42186.61
4165.927, 42162.74
4167.855, 42112.69
4169.784, 42120.55
4171.712, 42154.80
4173.641, 42178.10
4175.569, 42165.27
4177.498, 42117.61
4179.426, 42007.79
4181.354, 41911.50
4183.283, 41908.29
4185.211, 41876.07
4187.140, 41832.83
4189.068, 41879.55
4190.997, 41912.10
4192.925, 41811.40
4194.854, 41732.77
4196.782, 41696.53
4198.710, 41704.05
4200.639, 41702.29
4202.567, 41630.74
4204.496, 41594.88
4206.424, 41609.88
4208.353, 41583.64
4210.281, 41559.10
4212.210, 41577.81
4214.138, 41579.61
4216.067, 41567.30
4217.995, 41576.91
4219.924, 41572.74
4221.852, 41531.95
4223.781, 41465.42
4225.709, 41381.60
4227.638, 41294.32
4229.566, 41259.00
4231.495, 41300.68
4233.423, 41311.24
4235.352, 41286.88
4237.280, 41199.13
4239.208, 41127.75
4241.137, 41091.50
4243.065, 41093.29
4244.994, 41113.06
4246.922, 41138.79
4248.851, 41109.48
4250.779, 41021.03
4252.708, 41051.60
4254.636, 41078.59
4256.564, 40979.42
4258.493, 40926.46
4260.421, 40920.98
4262.350, 40853.60
4264.278, 40771.99
4266.207, 40689.67
4268.135, 40696.23
4270.064, 40747.59
4271.992, 40707.45
4273.921, 40647.20
4275.849, 40580.99
4277.778, 40591.68
4279.706, 40614.46
4281.635, 40540.07
4283.563, 40458.60
4285.492, 40390.83
4287.420, 40369.54
4289.349, 40342.59
4291.277, 40247.71
4293.206, 40187.52
4295.134, 40167.97
4297.063, 40167.40
4298.991, 40153.20
4300.919, 40100.59
4302.848, 40069.63
4304.776, 40051.85
4306.705, 40017.09
4308.633, 39996.64
4310.562, 40002.10
4312.490, 39976.99
4314.418, 39931.10
4316.347, 39859.93
4318.275, 39839.86
4320.204, 39868.82
4322.132, 39803.76
4324.061, 39702.29
4325.989, 39574.14
4327.918, 39607.76
4329.846, 39719.79
4331.775, 39681.52
4333.703, 39621.57
4335.632, 39582.28
4337.560, 39557.08
4339.489, 39519.37
4341.417, 39411.99
4343.346, 39393.89
4345.274, 39452.57
4347.203, 39407.10
4349.131, 39333.14
4351.060, 39262.59
4352.988, 39248.18
4354.917, 39257.85
4356.845, 39238.14
4358.773, 39191.59
4360.702, 39125.60
4362.630, 39038.65
4364.559, 38971.50
4366.487, 38964.21
4368.416, 38955.99
4370.344, 38943.89
4372.272, 38969.38
4374.201, 38962.37
4376.129, 38879.72
4378.058, 38816.21
4379.986, 38765.36
4381.915, 38727.89
4383.843, 38665.96
4385.772, 38581.96
4387.700, 38538.66
4389.629, 38529.32
4391.557, 38569.05
4393.486, 38515.09
4395.414, 38419.52
4397.343, 38387.61
4399.271, 38368.33
4401.200, 38348.42
4403.128, 38345.38
4405.057, 38308.32
4406.985, 38185.18
4408.914, 38172.49
4410.842, 38214.80
4412.771, 38136.91
4414.699, 38070.51
4416.627, 38047.40
4418.556, 38019.37
4420.484, 38005.46
4422.413, 38052.96
4424.341, 37986.02
4426.270, 37852.95
4428.198, 37817.98
4430.126, 37784.43
4432.055, 37722.49
4433.983, 37674.05
4435.912, 37626.05
4437.840, 37550.34
4439.769, 37532.67
4441.697, 37551.15
4443.626, 37541.73
4445.554, 37501.02
4447.483, 37430.46
4449.411, 37389.15
4451.340, 37361.58
4453.268, 37330.32
4455.197, 37329.67
4457.125, 37338.08
4459.054, 37301.53
4460.982, 37258.52
4462.911, 37224.42
4464.839, 37228.50
4466.768, 37237.61
4468.696, 37224.55
4470.625, 37188.67
4472.553, 37125.26
4474.481, 37013.60
4476.410, 36932.27
4478.338, 36895.34
4480.267, 36808.25
4482.195, 36722.05
4484.124, 36662.35
4486.052, 36625.54
4487.980, 36588.77
4489.909, 36509.74
4491.837, 36470.14
4493.766, 36470.80
4495.694, 36472.05
4497.623, 36450.16
4499.551, 36391.73
4501.480, 36320.55
4503.408, 36276.52
4505.337, 36323.83
4507.265, 36339.36
4509.194, 36312.04
4511.122, 36230.37
4513.051, 36155.36
4514.979, 36103.11
4516.908, 36003.04
4518.836, 35930.28
4520.765, 35931.69
4522.693, 35943.52
4524.622, 35931.94
4526.550, 35835.53
4528.479, 35783.51
4530.407, 35775.68
4532.335, 35722.64
4534.264, 35673.48
4536.192, 35646.96
4538.121, 35642.68
4540.049, 35610.04
4541.978, 35498.64
4543.906, 35432.17
4545.834, 35403.88
4547.763, 35397.60
4549.691, 35359.70
4551.620, 35291.18
4553.548, 35246.75
4555.477, 35202.40
4557.405, 35144.18
4559.334, 35123.29
4561.262, 35101.72
4563.191, 35034.21
4565.119, 35014.11
4567.048, 35021.52
4568.976, 35016.12
4570.905, 34974.57
4572.833, 34905.24
4574.762, 34867.92
4576.690, 34821.88
4578.619, 34748.20
4580.547, 34670.67
4582.476, 34610.88
4584.404, 34596.09
4586.333, 34578.75
4588.261, 34555.76
4590.189, 34519.82
4592.118, 34482.07
4594.046, 34457.18
4595.975, 34534.35
4597.903, 34529.39
4599.832, 34383.60
4601.760, 34376.75
4603.688, 34382.19
4605.617, 34316.77
4607.545, 34267.79
4609.474, 34220.40
4611.402, 34147.88
4613.331, 34092.15
4615.259, 34064.93
4617.188, 34096.58
4619.116, 34103.74
4621.045, 34070.79
4622.973, 34041.95
4624.902, 33971.95
4626.830, 33838.64
4628.759, 33815.46
4630.687, 33806.91
4632.616, 33751.12
4634.544, 33647.50
4636.473, 33553.17
4638.401, 33548.60
4640.330, 33534.86
4642.258, 33500.45
4644.187, 33434.10
4646.115, 33377.25
4648.043, 33342.30
4649.972, 33374.88
4651.900, 33368.30
4653.829, 33290.49
4655.757, 33222.40
4657.686, 33184.82
4659.614, 33214.25
4661.542, 33169.71
4663.471, 33099.97
4665.399, 33061.39
4667.328, 32986.48
4669.256, 32905.44
4671.185, 32879.47
4673.113, 32840.93
4675.042, 32803.35
4676.970, 32879.64
4678.899, 32882.29
4680.827, 32778.29
4682.756, 32695.40
4684.684, 32640.90
4686.613, 32614.78
4688.541, 32610.42
4690.470, 32600.87
4692.398, 32581.45
4694.327, 32462.09
4696.255, 32342.00
4698.184, 32325.53
4700.112, 32279.68
4702.041, 32216.83
4703.969, 32175.52
4705.897, 32107.34
4707.826, 32037.16
4709.754, 32056.39
4711.683, 32047.96
4713.611, 32001.77
4715.540, 31964.80
4717.468, 31923.33
4719.396, 31876.10
4721.325, 31853.45
4723.253, 31822.34
4725.182, 31767.13
4727.110, 31716.86
4729.039, 31648.86
4730.967, 31549.95
4732.896, 31535.29
4734.824, 31533.20
4736.753, 31473.61
4738.681, 31438.62
4740.610, 31398.49
4742.538, 31292.93
4744.467, 31307.90
4746.395, 31354.64
4748.324, 31245.07
4750.252, 31192.16
4752.181, 31194.53
4754.109, 31202.50
4756.038, 31176.13
4757.966, 31119.46
4759.895, 31061.84
4761.823, 31009.61
4763.751, 30965.95
4765.680, 30940.90
4767.608, 30908.07
4769.537, 30857.19
4771.465, 30766.18
4773.394, 30719.11
4775.322, 30736.70
4777.250, 30712.22
4779.179, 30658.81
4781.107, 30582.23
4783.036, 30524.00
4784.964, 30488.54
4786.893, 30479.10
4788.821, 30398.82
4790.750, 30322.73
4792.678, 30330.72
4794.607, 30320.79
4796.535, 30283.21
4798.464, 30202.92
4800.392, 30167.46
4802.321, 30140.15
4804.249, 30068.88
4806.178, 30012.35
4808.106, 29964.61
4810.035, 29902.80
4811.963, 29910.86
4813.892, 29941.05
4815.820, 29904.39
4817.749, 29858.63
4819.677, 29815.04
4821.605, 29775.38
4823.534, 29770.08
4825.462, 29769.20
4827.391, 29687.63
4829.319, 29644.31
4831.248, 29636.89
4833.176, 29611.86
4835.104, 29572.71
4837.033, 29530.38
4838.961, 29524.25
4840.890, 29479.04
4842.818, 29404.65
4844.747, 29405.72
4846.675, 29349.16
4848.604, 29252.19
4850.532, 29307.93
4852.461, 29271.54
4854.389, 29132.90
4856.318, 29093.88
4858.246, 29064.11
4860.175, 29019.82
4862.103, 28937.82
4864.032, 28904.39
4865.960, 28917.69
4867.889, 28858.06
4869.817, 28794.24
4871.746, 28741.20
4873.674, 28675.40
4875.603, 28638.80
4877.531, 28631.45
4879.459, 28595.06
4881.388, 28541.17
4883.316, 28483.79
4885.245, 28471.54
4887.173, 28463.72
4889.102, 28443.23
4891.030, 28386.22
4892.958, 28313.38
4894.887, 28232.56
4896.815, 28124.17
4898.744, 28094.40
4900.672, 28134.05
4902.601, 28083.87
4904.529, 28047.16
4906.458, 28030.90
4908.386, 27977.20
4910.315, 27911.88
4912.243, 27853.35
4914.172, 27851.74
4916.100, 27850.38
4918.029, 27841.78
4919.957, 27859.18
4921.886, 27795.22
4923.814, 27683.18
4925.743, 27661.29
4927.671, 27619.09
4929.600, 27558.79
4931.528, 27531.24
4933.457, 27469.56
4935.385, 27397.68
4937.313, 27375.15
4939.242, 27363.48
4941.170, 27347.10
4943.099, 27306.79
4945.027, 27267.11
4946.956, 27233.87
4948.884, 27217.36
4950.813, 27180.37
4952.741, 27128.33
4954.669, 27066.00
4956.598, 27057.42
4958.526, 27048.39
4960.455, 26978.48
4962.383, 26912.68
4964.312, 26860.47
4966.240, 26826.55
4968.169, 26798.24
4970.097, 26768.95
4972.026, 26735.85
4973.954, 26669.17
4975.883, 26612.82
4977.811, 26588.41
4979.740, 26598.49
4981.668, 26558.08
4983.597, 26452.14
4985.525, 26392.07
4987.454, 26392.15
4989.382, 26425.79
4991.311, 26262.20
4993.239, 26191.28
4995.167, 26229.68
4997.096, 26170.30
4999.024, 26132.50
5000.953, 26114.33
5002.881, 26052.56
5004.810, 26032.66
5006.738, 26030.19
5008.667, 25992.99
5010.595, 25896.82
5012.523, 25811.02
5014.452, 25843.50
5016.380, 25802.90
5018.309, 25726.98
5020.237, 25652.21
5022.166, 25601.48
5024.094, 25584.22
5026.023, 25601.77
5027.951, 25570.39
5029.880, 25509.98
5031.808, 25432.41
5033.737, 25384.65
5035.665, 25340.88
5037.594, 25293.95
5039.522, 25254.49
5041.451, 25185.93
5043.379, 25105.23
5045.308, 25083.28
5047.236, 25046.58
5049.165, 25009.40
5051.093, 25014.80
5053.021, 25000.38
5054.950, 24954.13
5056.878, 24852.37
5058.807, 24813.93
5060.735, 24796.76
5062.664, 24773.39
5064.592, 24721.54
5066.521, 24658.51
5068.449, 24594.82
5070.377, 24554.15
5072.306, 24515.80
5074.234, 24475.50
5076.163, 24443.73
5078.091, 24457.34
5080.020, 24473.14
5081.948, 24355.27
5083.877, 24310.55
5085.805, 24299.30
5087.734, 24235.42
5089.662, 24211.49
5091.591, 24209.01
5093.519, 24208.86
5095.448, 24121.07
5097.376, 24051.50
5099.305, 24047.98
5101.233, 24019.58
5103.162, 24012.64
5105.090, 24025.21
5107.019, 23996.08
5108.947, 23943.49
5110.875, 23881.21
5112.804, 23818.90
5114.732, 23782.79
5116.661, 23747.90
5118.589, 23688.75
5120.518, 23645.62
5122.446, 23628.18
5124.375, 23633.87
5126.303, 23599.79
5128.231, 23563.39
5130.160, 23534.18
5132.088, 23506.83
5134.017, 23431.05
5135.945, 23337.39
5137.874, 23297.62
5139.802, 23287.08
5141.731, 23278.16
5143.659, 23237.20
5145.588, 23270.66
5147.516, 23261.72
5149.445, 23157.45
5151.373, 23129.05
5153.302, 23094.39
5155.230, 23043.69
5157.159, 23028.80
5159.087, 23024.76
5161.016, 23012.07
5162.944, 22960.99
5164.873, 22941.78
5166.801, 22926.12
5168.729, 22887.71
5170.658, 22837.63
5172.586, 22796.86
5174.515, 22771.63
5176.443, 22741.68
5178.372, 22717.58
5180.300, 22681.62
5182.229, 22580.92
5184.157, 22523.85
5186.085, 22498.95
5188.014, 22483.85
5189.942, 22479.91
5191.871, 22452.78
5193.799, 22392.42
5195.728, 22342.82
5197.656, 22342.43
5199.585, 22352.20
5201.513, 22251.64
5203.442, 22202.00
5205.370, 22185.12
5207.299, 22162.68
5209.227, 22175.66
5211.156, 22167.47
5213.084, 22112.75
5215.013, 22019.44
5216.941, 21960.21
5218.870, 21929.82
5220.798, 21885.13
5222.727, 21847.74
5224.655, 21811.79
5226.583, 21766.98
5228.512, 21756.15
5230.440, 21743.90
5232.369, 21714.10
5234.297, 21659.48
5236.226, 21641.88
5238.154, 21628.35
5240.083, 21530.52
5242.011, 21473.41
5243.939, 21440.13
5245.868, 21413.47
5247.796, 21402.60
5249.725, 21365.75
5251.653, 21310.49
5253.582, 21312.06
5255.510, 21272.93
5257.439, 21209.02
5259.367, 21148.85
5261.296, 21144.95
5263.224, 21115.21
5265.153, 21046.40
5267.081, 21135.94
5269.010, 21095.22
5270.938, 20959.07
5272.867, 20887.38
5274.795, 20853.30
5276.724, 20821.35
5278.652, 20771.15
5280.581, 20827.83
5282.509, 20791.34
5284.438, 20684.64
5286.366, 20728.34
5288.294, 20699.59
5290.223, 20656.86
5292.151, 20688.32
5294.080, 20629.16
5296.008, 20556.75
5297.937, 20501.51
5299.865, 20468.84
5301.793, 20429.10
5303.722, 20379.80
5305.650, 20321.59
5307.579, 20305.82
5309.507, 20298.07
5311.436, 20274.16
5313.364, 20180.14
5315.293, 20135.58
5317.221, 20120.83
5319.150, 20085.23
5321.078, 20027.55
5323.007, 20002.31
5324.935, 20018.00
5326.864, 19950.84
5328.792, 19910.53
5330.721, 19883.65
5332.649, 19821.55
5334.578, 19731.64
5336.506, 19709.67
5338.435, 19763.29
5340.363, 19697.00
5342.292, 19623.72
5344.220, 19572.73
5346.148, 19558.34
5348.077, 19516.63
5350.005, 19490.27
5351.934, 19491.85
5353.862, 19492.10
5355.791, 19438.52
5357.719, 19371.32
5359.647, 19351.53
5361.576, 19220.88
5363.504, 19175.11
5365.433, 19247.35
5367.361, 19176.38
5369.290, 19135.29
5371.218, 19112.53
5373.147, 19067.47
5375.075, 18994.79
5377.004, 18955.66
5378.932, 18946.18
5380.861, 18889.81
5382.789, 18835.99
5384.718, 18803.01
5386.646, 18800.75
5388.575, 18754.94
5390.503, 18733.81
5392.432, 18735.93
5394.360, 18724.31
5396.289, 18696.25
5398.217, 18655.61
5400.146, 18605.77
5402.074, 18535.46
5404.002, 18488.94
5405.931, 18457.89
5407.859, 18415.73
5409.788, 18384.34
5411.716, 18362.51
5413.645, 18346.01
5415.573, 18331.51
5417.501, 18279.90
5419.430, 18220.19
5421.358, 18180.91
5423.287, 18164.13
5425.215, 18118.89
5427.144, 18051.10
5429.072, 17998.27
5431.001, 17974.17
5432.929, 17938.89
5434.858, 17880.92
5436.786, 17848.71
5438.715, 17848.73
5440.643, 17842.57
5442.572, 17791.48
5444.500, 17757.21
5446.429, 17703.11
5448.357, 17648.40
5450.286, 17672.22
5452.214, 17667.22
5454.143, 17633.05
5456.071, 17582.49
5458.000, 17550.91
5459.928, 17468.09
5461.856, 17393.42
5463.785, 17397.74
5465.713, 17372.67
5467.642, 17334.43
5469.570, 17302.84
5471.499, 17311.32
5473.427, 17279.59
5475.355, 17232.55
5477.284, 17189.36
5479.212, 17163.14
5481.141, 17129.55
5483.069, 17082.18
5484.998, 17019.81
5486.926, 16986.49
5488.855, 16966.57
5490.783, 16943.44
5492.712, 16899.81
5494.640, 16873.91
5496.569, 16816.62
5498.497, 16734.50
5500.426, 16688.39
5502.354, 16693.98
5504.283, 16703.34
5506.211, 16687.74
5508.140, 16665.84
5510.068, 16605.39
5511.997, 16542.50
5513.925, 16515.92
5515.854, 16515.15
5517.782, 16478.23
5519.710, 16429.02
5521.639, 16424.47
5523.567, 16385.79
5525.496, 16347.21
5527.424, 16310.35
5529.353, 16238.47
5531.281, 16191.26
5533.209, 16164.88
5535.138, 16155.92
5537.066, 16193.39
5538.995, 16147.34
5540.923, 16089.02
5542.852, 16074.76
5544.780, 15978.35
5546.709, 15958.29
5548.637, 15949.57
5550.566, 15865.10
5552.494, 15859.58
5554.423, 15825.45
5556.351, 15767.89
5558.280, 15737.88
5560.208, 15722.83
5562.137, 15683.02
5564.065, 15633.79
5565.994, 15636.95
5567.922, 15595.96
5569.851, 15580.08
5571.779, 15583.16
5573.708, 15500.45
5575.636, 15489.39
5577.564, 15473.19
5579.493, 15418.99
5581.421, 15408.01
5583.350, 15341.28
5585.278, 15273.67
5587.207, 15245.34
5589.135, 15252.26
5591.063, 15217.59
5592.992, 15185.42
5594.920, 15186.71
5596.849, 15102.17
5598.777, 15049.07
5600.706, 15009.35
5602.634, 14952.98
5604.563, 14939.39
5606.491, 14916.16
5608.420, 14899.42
5610.348, 14914.50
5612.277, 14807.72
5614.205, 14780.94
5616.134, 14807.63
5618.062, 14796.83
5619.991, 14743.13
5621.919, 14687.01
5623.848, 14649.21
5625.776, 14638.17
5627.705, 14576.38
5629.633, 14539.74
5631.562, 14511.46
5633.490, 14441.98
5635.418, 14450.37
5637.347, 14436.65
5639.275, 14386.33
5641.204, 14317.99
5643.132, 14315.25
5645.061, 14301.99
5646.989, 14267.19
5648.917, 14231.77
5650.846, 14185.92
5652.774, 14144.16
5654.703, 14116.13
5656.631, 14107.19
5658.560, 14059.10
5660.488, 13989.57
5662.417, 13935.91
5664.345, 13935.72
5666.274, 13937.83
5668.202, 13931.75
5670.131, 13922.60
5672.059, 13925.82
5673.988, 13873.19
5675.916, 13838.72
5677.845, 13817.13
5679.773, 13775.79
5681.702, 13761.75
5683.630, 13694.58
5685.559, 13631.88
5687.487, 13645.00
5689.416, 13593.68
5691.344, 13584.22
5693.272, 13576.09
5695.201, 13517.66
5697.129, 13484.34
5699.058, 13483.76
5700.986, 13474.67
5702.915, 13428.28
5704.843, 13377.67
5706.771, 13333.63
5708.700, 13299.40
5710.628, 13278.78
5712.557, 13305.81
5714.485, 13277.85
5716.414, 13218.66
5718.342, 13164.35
5720.271, 13157.39
5722.199, 13096.84
5724.128, 13054.24
5726.056, 13046.41
5727.985, 13020.82
5729.913, 12966.49
5731.842, 12948.55
5733.770, 12945.20
5735.699, 12861.44
5737.627, 12848.38
5739.556, 12838.12
5741.484, 12812.08
5743.413, 12777.26
5745.341, 12717.56
5747.270, 12705.39
5749.198, 12685.34
5751.126, 12606.14
5753.055, 12636.83
5754.983, 12643.95
5756.912, 12602.61
5758.840, 12539.02
5760.769, 12564.70
5762.697, 12496.38
5764.625, 12451.38
5766.554, 12453.62
5768.482, 12374.61
5770.411, 12371.22
5772.339, 12364.78
5774.268, 12338.80
5776.196, 12322.96
5778.125, 12280.16
5780.053, 12271.40
5781.982, 12264.13
5783.910, 12211.76
5785.839, 12149.65
5787.767, 12062.50
5789.696, 12034.02
5791.624, 12074.33
5793.553, 11995.18
5795.481, 12006.93
5797.410, 11993.02
5799.338, 11930.10
5801.267, 11898.91
5803.195, 11917.51
5805.124, 11906.58
5807.052, 11860.59
5808.980, 11804.22
5810.909, 11766.02
5812.837, 11757.05
5814.766, 11747.29
5816.694, 11718.39
5818.623, 11694.74
5820.551, 11629.73
5822.479, 11616.25
5824.408, 11637.83
5826.336, 11571.14
5828.265, 11513.46
5830.193, 11489.35
5832.122, 11460.57
5834.050, 11391.15
5835.979, 11386.86
5837.907, 11397.34
5839.836, 11401.37
5841.764, 11386.08
5843.693, 11338.38
5845.621, 11299.54
5847.550, 11280.80
5849.478, 11273.05
5851.407, 11259.64
5853.335, 11198.96
5855.264, 11192.27
5857.192, 11174.65
5859.121, 11108.95
5861.049, 11095.82
5862.978, 11065.48
5864.906, 11033.63
5866.834, 11013.58
5868.763, 11012.48
5870.691, 11000.88
5872.620, 10981.19
5874.548, 10940.62
5876.477, 10886.03
5878.405, 10908.10
5880.333, 10874.54
5882.262, 10853.47
5884.190, 10840.69
5886.119, 10777.37
5888.047, 10757.91
5889.976, 10757.39
5891.904, 10744.35
5893.833, 10711.25
5895.761, 10702.92
5897.690, 10664.21
5899.618, 10627.72
5901.547, 10595.73
5903.475, 10553.62
5905.404, 10533.86
5907.332, 10495.11
5909.261, 10464.97
5911.189, 10458.14
5913.118, 10452.28
5915.046, 10437.82
5916.975, 10399.79
5918.903, 10370.08
5920.832, 10375.51
5922.760, 10299.46
5924.688, 10306.03
5926.617, 10309.09
5928.545, 10276.83
5930.474, 10263.18
5932.402, 10217.50
5934.331, 10183.93
5936.259, 10149.47
5938.188, 10105.57
5940.116, 10096.52
5942.044, 10084.30
5943.973, 10045.54
5945.901, 10004.56
5947.830, 9996.129
5949.758, 9951.588
5951.687, 9914.958
5953.615, 9905.434
5955.544, 9903.896
5957.472, 9867.044
5959.401, 9816.627
5961.329, 9812.688
5963.258, 9815.572
5965.186, 9784.470
5967.115, 9717.385
5969.043, 9699.473
5970.972, 9672.929
5972.900, 9639.717
5974.829, 9619.739
5976.757, 9603.011
5978.686, 9580.416
5980.614, 9549.920
5982.542, 9539.145
5984.471, 9568.822
5986.399, 9519.349
5988.328, 9461.281
5990.256, 9439.450
5992.185, 9426.154
5994.113, 9353.007
5996.042, 9343.019
5997.970, 9336.344
5999.898, 9317.045
6001.827, 9295.049
6003.755, 9300.322
6005.684, 9222.519
6007.612, 9200.620
6009.541, 9200.230
6011.469, 9177.965
6013.398, 9160.184
6015.326, 9123.612
6017.255, 9076.344
6019.183, 9054.815
6021.112, 9068.121
6023.040, 9045.541
6024.969, 9033.268
6026.897, 8996.528
6028.826, 8964.593
6030.754, 8964.831
6032.683, 8950.548
6034.611, 8931.495
6036.540, 8888.719
6038.468, 8849.627
6040.396, 8840.123
6042.325, 8813.373
6044.253, 8804.192
6046.182, 8796.072
6048.110, 8772.227
6050.039, 8728.215
6051.967, 8688.358
6053.896, 8704.854
6055.824, 8677.627
6057.752, 8629.035
6059.681, 8616.213
6061.609, 8626.498
6063.538, 8542.313
6065.466, 8523.053
6067.395, 8545.845
6069.323, 8530.252
6071.252, 8475.378
6073.180, 8491.686
6075.109, 8469.674
6077.037, 8415.389
6078.966, 8377.433
6080.894, 8382.920
6082.823, 8396.605
6084.751, 8332.307
6086.680, 8281.447
6088.608, 8302.968
6090.537, 8285.981
6092.465, 8245.017
6094.394, 8194.481
6096.322, 8192.686
6098.250, 8218.660
6100.179, 8136.534
6102.107, 8145.179
6104.036, 8129.348
6105.964, 8112.788
6107.893, 8103.931
6109.821, 8064.569
6111.750, 8027.207
6113.678, 8006.715
6115.606, 7987.833
6117.535, 7965.849
6119.463, 7944.837
6121.392, 7914.054
6123.320, 7888.866
6125.249, 7869.444
6127.177, 7850.919
6129.106, 7827.880
6131.034, 7795.971
6132.963, 7782.990
6134.891, 7754.319
6136.820, 7725.870
6138.748, 7715.749
6140.677, 7711.205
6142.605, 7688.233
6144.534, 7638.435
6146.462, 7619.015
6148.391, 7623.506
6150.319, 7590.913
6152.248, 7608.633
6154.176, 7592.076
6156.104, 7549.470
6158.033, 7523.755
6159.961, 7535.386
6161.890, 7491.045
6163.818, 7472.502
6165.747, 7468.011
6167.675, 7448.126
6169.604, 7408.909
6171.532, 7382.406
6173.460, 7377.598
6175.389, 7349.637
6177.317, 7334.408
6179.246, 7331.789
6181.174, 7313.039
6183.103, 7296.665
6185.031, 7258.803
6186.960, 7219.005
6188.888, 7203.208
6190.817, 7202.026
6192.745, 7147.868
6194.674, 7156.617
6196.602, 7115.190
6198.531, 7079.909
6200.459, 7079.276
6202.388, 7089.213
6204.316, 7036.638
6206.245, 7053.878
6208.173, 7025.017
6210.102, 6979.999
6212.030, 6959.485
6213.958, 6932.271
6215.887, 6932.696
6217.815, 6921.244
6219.744, 6925.501
6221.672, 6924.289
6223.601, 6888.083
6225.529, 6865.647
6227.458, 6823.505
6229.386, 6828.499
6231.314, 6805.524
6233.243, 6758.797
6235.171, 6774.785
6237.100, 6765.829
6239.028, 6764.881
6240.957, 6708.731
6242.885, 6656.737
6244.814, 6641.397
6246.742, 6597.025
6248.671, 6616.929
6250.599, 6628.836
6252.528, 6604.232
6254.456, 6571.907
6256.385, 6562.343
6258.313, 6563.784
6260.242, 6506.438
6262.170, 6514.774
6264.099, 6504.890
6266.027, 6483.111
6267.956, 6494.964
6269.884, 6451.413
6271.813, 6429.800
6273.741, 6424.134
6275.669, 6400.320
6277.598, 6372.790
6279.526, 6371.189
6281.455, 6339.417
6283.383, 6330.325
6285.312, 6301.419
6287.240, 6276.262
6289.168, 6268.110
6291.097, 6263.948
6293.025, 6257.442
6294.954, 6241.207
6296.882, 6210.466
6298.811, 6196.073
6300.739, 6183.344
6302.668, 6131.246
6304.596, 6153.063
6306.525, 6137.590
6308.453, 6096.230
6310.382, 6066.998
6312.310, 6062.893
6314.239, 6070.553
6316.167, 6050.198
6318.096, 6042.135
6320.024, 6012.608
6321.953, 6005.757
6323.881, 5996.468
6325.810, 5932.958
6327.738, 5906.661
6329.667, 5885.193
6331.595, 5900.475
6333.523, 5889.657
6335.452, 5860.874
6337.380, 5854.425
6339.309, 5835.771
6341.237, 5782.548
6343.166, 5785.173
6345.094, 5774.671
6347.022, 5757.073
6348.951, 5750.413
6350.879, 5700.631
6352.808, 5733.998
6354.736, 5696.060
6356.665, 5692.828
6358.593, 5688.961
6360.522, 5652.459
6362.450, 5643.572
6364.379, 5654.892
6366.307, 5616.433
6368.236, 5576.546
6370.164, 5568.515
6372.093, 5570.121
6374.021, 5544.091
6375.950, 5518.877
6377.878, 5505.976
6379.807, 5493.888
6381.735, 5477.387
6383.664, 5463.787
6385.592, 5450.505
6387.521, 5417.889
6389.449, 5425.465
6391.377, 5411.974
6393.306, 5367.393
6395.234, 5351.129
6397.163, 5359.549
6399.091, 5337.824
6401.020, 5311.124
6402.948, 5290.825
6404.876, 5287.972
6406.805, 5291.565
6408.733, 5275.390
6410.662, 5243.505
6412.590, 5243.902
6414.519, 5224.949
6416.447, 5227.300
6418.376, 5217.735
6420.304, 5202.938
6422.233, 5177.232
6424.161, 5140.069
6426.090, 5161.926
6428.018, 5115.486
6429.947, 5135.292
6431.875, 5109.886
6433.804, 5071.235
6435.732, 5071.929
6437.661, 5086.401
6439.589, 5035.571
6441.518, 5044.023
6443.446, 5034.905
6445.375, 5009.692
6447.303, 4993.184
6449.231, 4984.216
6451.160, 4960.409
6453.088, 4955.333
6455.017, 4964.706
6456.945, 4939.178
6458.874, 4908.010
6460.802, 4892.755
6462.730, 4891.159
6464.659, 4891.778
6466.587, 4869.233
6468.516, 4866.664
6470.444, 4817.830
6472.373, 4794.954
6474.301, 4804.666
6476.230, 4803.366
6478.158, 4772.391
6480.087, 4753.313
6482.015, 4775.035
6483.944, 4770.382
6485.872, 4725.376
6487.801, 4698.524
6489.729, 4700.720
6491.658, 4677.513
6493.586, 4690.536
6495.515, 4698.930
6497.443, 4679.651
6499.372, 4640.621
6501.300, 4617.462
6503.229, 4615.055
6505.157, 4604.179
6507.085, 4571.369
6509.014, 4595.523
6510.942, 4589.671
6512.871, 4550.153
6514.799, 4520.774
6516.728, 4517.294
6518.656, 4514.856
6520.584, 4477.352
6522.513, 4459.258
6524.441, 4450.579
6526.370, 4458.458
6528.298, 4444.321
6530.227, 4438.176
6532.155, 4442.052
6534.084, 4395.229
6536.012, 4376.131
6537.941, 4360.224
6539.869, 4350.518
6541.798, 4364.247
6543.726, 4359.699
6545.655, 4334.802
6547.583, 4321.780
6549.512, 4315.428
6551.440, 4302.644
6553.369, 4320.208
6555.297, 4288.683
6557.226, 4256.989
6559.154, 4249.804
6561.083, 4249.220
6563.011, 4235.526
6564.939, 4201.991
6566.868, 4208.642
6568.796, 4181.096
6570.725, 4190.537
6572.653, 4197.571
6574.582, 4186.350
6576.510, 4179.606
6578.438, 4181.685
6580.367, 4144.953
6582.295, 4138.266
6584.224, 4133.478
6586.152, 4104.257
6588.081, 4092.015
6590.009, 4098.085
6591.938, 4089.908
6593.866, 4061.606
6595.795, 4080.291
6597.723, 4046.262
6599.652, 4043.913
6601.580, 3998.226
6603.509, 3973.157
6605.437, 3993.702
6607.366, 4006.139
6609.294, 3968.339
6611.223, 3984.157
6613.151, 3950.836
6615.080, 3913.121
6617.008, 3922.339
6618.937, 3912.014
6620.865, 3906.167
6622.793, 3907.488
6624.722, 3877.878
6626.650, 3887.441
6628.579, 3869.999
6630.507, 3872.175
##END=



