##NAMES=Neyite
##RRUFFID=R100116
##IDEAL CHEMISTRY=Ag_2_Cu_6_Pb_25_Bi_26_S_68_
##LOCALITY=Southwest end of pit, British Columbia Molybdenum mine, Kitsault, British Columbia, Canada
##OWNER=RRUFF
##SOURCE=Robert Woodside
##DESCRIPTION=Unconsolidated lead-gray elongated crystals with stepped surfaces
##STATUS=The identification of this mineral has been confirmed only by single crystal X-ray diffraction
##URL=https://www.rruff.net/odr/rruff_sample/R100116
##DIFFRACTION SAMPLE DESCRIPTION=Single crystal, powder profile is calculated
##CELL PARAMETERS=a: 37.487 b: 4.057 c: 43.499 alpha: 90 beta: 108.74 gamma: 90 volume: 6265 crystal system: monoclinic
##FILETYPE=Raman RAW
##RAMAN WAVELENGTH=532

132.5938, 13.75822
134.5222, 14.72290
136.4507, 16.11527
138.3792, 17.46991
140.3076, 19.37335
142.2361, 22.57234
144.1646, 27.64205
146.0930, 33.17300
148.0215, 38.53132
149.9500, 43.42101
151.8784, 48.91639
153.8069, 55.70281
155.7354, 63.00993
157.6638, 69.62959
159.5923, 74.51945
161.5208, 79.42741
163.4492, 85.05334
165.3777, 91.45985
167.3062, 97.74755
169.2346, 103.8386
171.1631, 107.3798
173.0916, 107.3046
175.0201, 106.1814
176.9485, 105.3070
178.8770, 105.2963
180.8055, 106.2480
182.7339, 106.6323
184.6624, 106.1934
186.5909, 105.2914
188.5193, 104.6226
190.4478, 104.0765
192.3763, 103.7305
194.3047, 103.6388
196.2332, 103.9684
198.1617, 104.2482
200.0901, 104.5405
202.0186, 104.7073
203.9471, 104.6016
205.8755, 103.7730
207.8040, 103.1764
209.7325, 103.3678
211.6609, 104.7828
213.5894, 105.6394
215.5179, 105.0952
217.4463, 103.8323
219.3748, 103.1957
221.3033, 103.7912
223.2317, 104.5422
225.1602, 105.0919
227.0887, 105.4386
229.0171, 105.5683
230.9456, 105.2867
232.8741, 104.8475
234.8025, 104.6756
236.7310, 104.9598
238.6595, 105.1933
240.5879, 105.2707
242.5164, 105.2257
244.4449, 104.9627
246.3733, 104.3855
248.3018, 103.6616
250.2303, 103.0316
252.1587, 102.5104
254.0872, 102.1076
256.0157, 101.8445
257.9441, 101.7927
259.8726, 101.4974
261.8011, 100.7887
263.7295, 99.88042
265.6580, 99.00668
267.5865, 98.17802
269.5149, 97.43239
271.4434, 96.86799
273.3719, 96.47783
275.3003, 95.86781
277.2288, 94.73545
279.1573, 93.56522
281.0857, 92.69162
283.0142, 92.48760
284.9427, 92.07335
286.8711, 91.22604
288.7996, 90.05616
290.7281, 88.95471
292.6565, 87.99705
294.5850, 87.07808
296.5135, 86.16165
298.4419, 85.27637
300.3704, 84.39770
302.2989, 83.56910
304.2273, 82.75952
306.1558, 81.96843
308.0843, 81.19980
310.0127, 80.54893
311.9412, 79.97019
313.8697, 79.40789
315.7981, 78.91399
317.7266, 78.78999
319.6551, 78.82065
321.5835, 78.75587
323.5120, 78.19205
325.4405, 77.68297
327.3689, 77.50743
329.2974, 77.58617
331.2259, 77.50493
333.1544, 76.84095
335.0828, 76.15435
337.0113, 75.77271
338.9398, 75.84885
340.8682, 75.86507
342.7967, 75.80014
344.7252, 75.71679
346.6536, 75.69302
348.5821, 75.47542
350.5106, 75.30685
352.4390, 75.37289
354.3675, 75.68906
356.2960, 75.84425
358.2244, 75.65113
360.1529, 75.29893
362.0814, 74.92568
364.0098, 74.40999
365.9383, 74.17573
367.8668, 74.51470
369.7952, 75.21279
371.7237, 75.69821
373.6522, 75.52025
375.5806, 75.23643
377.5091, 75.07310
379.4376, 75.16158
381.3660, 75.40303
383.2945, 75.84293
385.2230, 76.23704
387.1514, 76.33475
389.0799, 76.04349
391.0084, 75.77975
392.9368, 75.48203
394.8653, 75.11797
396.7938, 74.86570
398.7222, 75.12803
400.6507, 75.58967
402.5792, 76.07113
404.5076, 76.15932
406.4361, 76.00874
408.3646, 75.62488
410.2930, 75.35514
412.2215, 75.45988
414.1500, 76.12106
416.0784, 76.64574
418.0069, 76.76714
419.9354, 76.44693
421.8638, 76.26627
423.7923, 76.48805
425.7208, 76.83723
427.6492, 77.11216
429.5777, 77.18443
431.5062, 77.31730
433.4346, 77.57596
435.3631, 77.73158
437.2916, 77.44402
439.2200, 76.85737
441.1485, 76.49097
443.0770, 76.43871
445.0054, 76.54424
446.9339, 76.69529
448.8624, 77.02170
450.7908, 77.38695
452.7193, 77.69071
454.6478, 77.91081
456.5762, 78.18265
458.5047, 78.52088
460.4332, 78.81352
462.3616, 78.92310
464.2901, 78.94868
466.2186, 79.00222
468.1470, 79.07668
470.0755, 79.17900
472.0040, 79.46258
473.9324, 80.10691
475.8609, 80.58372
477.7894, 80.54627
479.7178, 80.16163
481.6463, 79.88756
483.5748, 79.67638
485.5032, 79.56695
487.4317, 79.64388
489.3602, 80.37162
491.2886, 80.89627
493.2171, 81.07080
495.1456, 81.00798
497.0740, 80.98275
499.0025, 80.96416
500.9310, 80.92770
502.8594, 80.85596
504.7879, 80.73031
506.7164, 80.62573
508.6448, 80.56539
510.5733, 80.66413
512.5018, 80.96369
514.4302, 81.52296
516.3587, 81.97609
518.2872, 82.21078
520.2156, 82.21935
522.1441, 82.05241
524.0726, 81.81426
526.0010, 81.71306
527.9295, 81.98088
529.8580, 82.31364
531.7864, 82.24353
533.7149, 81.41035
535.6434, 80.91692
537.5718, 81.31756
539.5003, 82.26796
541.4288, 82.93322
543.3572, 82.92763
545.2857, 82.80251
547.2142, 82.87662
549.1426, 83.40427
551.0711, 83.63180
552.9996, 83.26253
554.9280, 82.91073
556.8565, 83.04527
558.7850, 83.62430
560.7134, 84.05617
562.6419, 84.23891
564.5704, 84.44860
566.4988, 84.74960
568.4273, 84.94283
570.3558, 84.93111
572.2842, 84.47582
574.2127, 84.10757
576.1412, 84.07864
578.0696, 84.47326
579.9981, 85.05499
581.9266, 86.06561
583.8550, 87.12685
585.7835, 87.68218
587.7120, 87.35353
589.6404, 87.09475
591.5689, 87.27431
593.4974, 87.72481
595.4258, 87.78481
597.3543, 87.12962
599.2828, 86.48284
601.2112, 86.34478
603.1397, 86.78064
605.0682, 87.17873
606.9966, 87.51069
608.9251, 87.64892
610.8536, 87.49859
612.7820, 86.89607
614.7105, 86.52769
616.6390, 86.62009
618.5674, 86.94765
620.4959, 87.27783
622.4244, 87.60815
624.3528, 87.93242
626.2813, 88.28876
628.2098, 88.77235
630.1382, 89.09966
632.0667, 88.99052
633.9952, 88.94460
635.9236, 89.32788
637.8521, 90.15420
639.7806, 90.64144
641.7090, 90.35555
643.6375, 90.00033
645.5660, 89.99965
647.4944, 90.35720
649.4229, 90.65710
651.3514, 90.81712
653.2798, 90.98723
655.2083, 91.23963
657.1368, 91.59454
659.0652, 91.87282
660.9937, 92.06393
662.9222, 92.20199
664.8506, 92.24180
666.7791, 92.16225
668.7076, 92.18456
670.6360, 92.42188
672.5645, 92.74104
674.4930, 93.07322
676.4214, 93.60765
678.3499, 93.93808
680.2784, 93.83760
682.2068, 93.56595
684.1353, 93.56665
686.0638, 93.96510
687.9922, 94.37572
689.9207, 94.69839
691.8492, 94.93564
693.7776, 95.10295
695.7061, 95.14250
697.6346, 95.15881
699.5630, 95.12336
701.4915, 95.06747
703.4200, 95.11961
705.3484, 95.32835
707.2769, 95.62273
709.2054, 96.04063
711.1339, 96.63689
713.0623, 97.01404
714.9908, 96.98625
716.9193, 96.91118
718.8477, 97.00068
720.7762, 97.24834
722.7047, 97.55545
724.6331, 97.88905
726.5616, 98.28134
728.4901, 98.79826
730.4185, 99.59828
732.3470, 100.0796
734.2755, 99.93784
736.2039, 99.66901
738.1324, 99.74992
740.0609, 100.2496
741.9893, 100.6437
743.9178, 100.7894
745.8463, 100.7936
747.7747, 100.6799
749.7032, 100.3650
751.6317, 100.4947
753.5601, 101.4274
755.4886, 102.5349
757.4171, 103.4323
759.3455, 104.1392
761.2740, 104.6093
763.2025, 104.5832
765.1309, 104.3942
767.0594, 104.4911
768.9879, 105.1764
770.9163, 105.5987
772.8448, 105.4837
774.7733, 105.1223
776.7017, 104.8080
778.6302, 104.4625
780.5587, 104.2558
782.4871, 104.1601
784.4156, 104.4635
786.3441, 105.3736
788.2725, 107.0525
790.2010, 107.9329
792.1295, 107.0546
794.0579, 105.8391
795.9864, 105.6360
797.9149, 106.8317
799.8433, 107.6676
801.7718, 107.4755
803.7003, 107.0296
805.6287, 107.2756
807.5572, 108.3984
809.4857, 109.2271
811.4141, 109.4159
813.3426, 109.3148
815.2711, 109.1909
817.1995, 109.0009
819.1280, 108.8877
821.0565, 108.9171
822.9849, 109.0123
824.9134, 109.2835
826.8419, 109.8375
828.7703, 110.3551
830.6988, 110.7007
832.6273, 111.0077
834.5557, 111.3323
836.4842, 111.5493
838.4127, 111.7432
840.3411, 111.9679
842.2696, 112.5024
844.1981, 113.1374
846.1265, 113.4884
848.0550, 113.5814
849.9835, 113.5309
851.9119, 113.6004
853.8404, 113.3364
855.7689, 112.7092
857.6973, 112.4855
859.6258, 113.4858
861.5543, 114.2077
863.4827, 113.9062
865.4112, 112.9288
867.3397, 112.4288
869.2681, 112.6568
871.1966, 112.8961
873.1251, 112.7668
875.0535, 112.5237
876.9820, 112.4385
878.9105, 112.6500
880.8389, 112.9262
882.7674, 113.1671
884.6959, 113.0510
886.6243, 112.7459
888.5528, 112.3161
890.4813, 112.0759
892.4097, 112.1624
894.3382, 112.3411
896.2667, 112.4339
898.1951, 112.4739
900.1236, 112.8048
902.0521, 113.0771
903.9805, 113.0585
905.9090, 113.2332
907.8375, 113.6977
909.7659, 113.7954
911.6944, 113.1164
913.6229, 111.9279
915.5513, 111.1696
917.4798, 111.1937
919.4083, 111.7126
921.3367, 112.2079
923.2652, 112.2577
925.1937, 112.4252
927.1221, 112.7941
929.0506, 113.1403
930.9791, 113.4061
932.9075, 113.9008
934.8360, 114.0216
936.7645, 113.5169
938.6929, 113.0107
940.6214, 113.0895
942.5499, 113.5320
944.4783, 113.7826
946.4068, 114.1362
948.3353, 114.5095
950.2637, 114.6324
952.1922, 114.2967
954.1207, 114.2497
956.0491, 114.9249
957.9776, 115.5642
959.9061, 115.7446
961.8345, 115.3270
963.7630, 115.0112
965.6915, 115.0902
967.6199, 115.2262
969.5484, 115.3906
971.4769, 115.6359
973.4053, 115.8369
975.3338, 115.7447
977.2623, 115.5722
979.1907, 115.5300
981.1192, 115.7578
983.0477, 116.2548
984.9761, 116.6627
986.9046, 116.9809
988.8331, 117.3389
990.7615, 117.8006
992.6900, 118.3167
994.6185, 118.6407
996.5469, 118.7432
998.4754, 118.9479
1000.404, 119.1700
1002.332, 119.1346
1004.261, 118.5353
1006.189, 117.9969
1008.118, 118.4148
1010.046, 119.3764
1011.975, 120.2608
1013.903, 120.3480
1015.832, 120.1267
1017.760, 120.3173
1019.689, 120.5663
1021.617, 120.6803
1023.545, 120.7764
1025.474, 121.0627
1027.402, 121.1723
1029.331, 120.8162
1031.259, 120.4718
1033.188, 120.5207
1035.116, 121.0951
1037.045, 121.4565
1038.973, 120.9557
1040.902, 120.4022
1042.830, 120.5969
1044.759, 121.5197
1046.687, 122.2769
1048.616, 122.2144
1050.544, 121.9977
1052.473, 122.2422
1054.401, 122.7884
1056.329, 123.3026
1058.258, 123.5812
1060.186, 123.9772
1062.115, 124.2752
1064.043, 124.4028
1065.972, 124.4769
1067.900, 124.6274
1069.829, 124.4722
1071.757, 124.2429
1073.686, 124.0922
1075.614, 123.9045
1077.543, 123.8900
1079.471, 124.5025
1081.400, 125.3804
1083.328, 125.9007
1085.256, 126.1621
1087.185, 126.1301
1089.113, 125.6487
1091.042, 124.9998
1092.970, 124.5768
1094.899, 124.7294
1096.827, 125.0937
1098.756, 125.3857
1100.684, 125.6273
1102.613, 126.2403
1104.541, 126.7169
1106.470, 126.5536
1108.398, 126.2391
1110.327, 126.2638
1112.255, 126.6199
1114.183, 126.7730
1116.112, 126.9354
1118.040, 127.1861
1119.969, 127.3235
1121.897, 127.2372
1123.826, 127.2655
1125.754, 127.7436
1127.683, 128.0757
1129.611, 128.0550
1131.540, 128.0692
1133.468, 128.1920
1135.397, 127.9906
1137.325, 127.5735
1139.254, 128.2987
1141.182, 129.4277
1143.110, 129.8100
1145.039, 129.0942
1146.967, 128.9045
1148.896, 129.5771
1150.824, 130.1041
1152.753, 130.3953
1154.681, 130.6266
1156.610, 130.8642
1158.538, 130.8426
1160.467, 130.8554
1162.395, 131.1681
1164.324, 131.7128
1166.252, 132.0048
1168.181, 131.8110
1170.109, 131.4029
1172.037, 131.2867
1173.966, 131.7876
1175.894, 132.2664
1177.823, 132.5126
1179.751, 132.6379
1181.680, 132.9638
1183.608, 133.1507
1185.537, 133.2997
1187.465, 133.6117
1189.394, 133.5803
1191.322, 133.7967
1193.251, 133.9358
1195.179, 133.9769
1197.108, 134.2718
1199.036, 134.4675
1200.964, 134.4581
1202.893, 134.3957
1204.821, 134.3613
1206.750, 134.4994
1208.678, 134.8351
1210.607, 135.2983
1212.535, 135.8120
1214.464, 136.3798
1216.392, 136.8442
1218.321, 137.1663
1220.249, 137.6128
1222.178, 138.0662
1224.106, 138.4044
1226.035, 138.4311
1227.963, 137.9123
1229.891, 137.4760
1231.820, 137.7352
1233.748, 138.6908
1235.677, 139.3341
1237.605, 139.6045
1239.534, 139.6588
1241.462, 139.2578
1243.391, 139.0093
1245.319, 139.5297
1247.248, 140.7028
1249.176, 141.5770
1251.105, 141.9917
1253.033, 142.1867
1254.962, 142.0150
1256.890, 141.7808
1258.818, 141.8508
1260.747, 142.2666
1262.675, 142.7062
1264.604, 143.0027
1266.532, 143.5857
1268.461, 144.9141
1270.389, 146.3493
1272.318, 146.8182
1274.246, 146.1096
1276.175, 145.4796
1278.103, 145.1452
1280.032, 145.0646
1281.960, 145.2968
1283.889, 145.8184
1285.817, 146.3139
1287.745, 146.8981
1289.674, 147.2955
1291.602, 147.4425
1293.531, 147.2796
1295.459, 146.7499
1297.388, 145.7267
1299.316, 145.7973
1301.245, 147.9323
1303.173, 149.7449
1305.102, 150.4742
1307.030, 150.5722
1308.959, 150.5637
1310.887, 150.3374
1312.816, 150.3148
1314.744, 150.7709
1316.672, 151.2682
1318.601, 151.4270
1320.529, 151.4829
1322.458, 151.9249
1324.386, 152.9519
1326.315, 153.6433
1328.243, 153.4085
1330.172, 153.1371
1332.100, 153.4454
1334.029, 154.3396
1335.957, 155.0025
1337.886, 155.2167
1339.814, 155.4019
1341.743, 155.3821
1343.671, 155.5440
1345.599, 156.4904
1347.528, 158.4369
1349.456, 159.3813
1351.385, 158.5538
1353.313, 157.7217
1355.242, 157.3878
1357.170, 157.4091
1359.099, 157.6390
1361.027, 158.1047
1362.956, 158.3809
1364.884, 158.1596
1366.813, 158.0862
1368.741, 158.6867
1370.670, 159.5699
1372.598, 159.9893
1374.526, 159.8284
1376.455, 159.7454
1378.383, 159.7937
1380.312, 160.0143
1382.240, 160.6624
1384.169, 161.5354
1386.097, 161.8786
1388.026, 161.2603
1389.954, 160.9128
1391.883, 161.0025
1393.811, 161.2580
1395.740, 161.5849
1397.668, 161.9585
1399.597, 162.2386
1401.525, 162.3506
1403.453, 162.5746
1405.382, 163.1516
1407.310, 163.6686
1409.239, 163.8543
1411.167, 163.7522
1413.096, 163.5180
1415.024, 163.0285
1416.953, 163.0738
1418.881, 164.3416
1420.810, 165.6186
1422.738, 165.9562
1424.667, 165.7048
1426.595, 165.9780
1428.524, 167.0494
1430.452, 167.8809
1432.380, 168.0582
1434.309, 168.0339
1436.237, 168.1032
1438.166, 168.2380
1440.094, 168.2423
1442.023, 167.9751
1443.951, 167.8669
1445.880, 168.2090
1447.808, 168.5831
1449.737, 168.4031
1451.665, 168.9758
1453.594, 167.7976
1455.522, 169.5656
1457.451, 170.6631
1459.379, 170.5517
1461.307, 170.0410
1463.236, 169.4782
1465.164, 169.0540
1467.093, 169.1415
1469.021, 169.8261
1470.950, 170.5050
1472.878, 171.2215
1474.807, 171.7679
1476.735, 171.6568
1478.664, 171.4197
1480.592, 172.3229
1482.521, 174.6779
1484.449, 176.1706
1486.378, 175.5695
1488.306, 174.7979
1490.234, 175.0659
1492.163, 176.0575
1494.091, 176.8663
1496.020, 177.3672
1497.948, 177.7370
1499.877, 178.1734
1501.805, 178.3563
1503.734, 177.9430
1505.662, 177.3061
1507.591, 176.9753
1509.519, 176.9678
1511.448, 177.3931
1513.376, 178.6689
1515.305, 179.6948
1517.233, 180.0486
1519.161, 180.0880
1521.090, 180.0626
1523.018, 179.8166
1524.947, 180.0628
1526.875, 181.2884
1528.804, 182.3263
1530.732, 183.1026
1532.661, 183.5121
1534.589, 183.1323
1536.518, 181.9885
1538.446, 181.8127
1540.375, 183.7052
1542.303, 185.0665
1544.232, 185.3262
1546.160, 185.4044
1548.089, 185.9903
1550.017, 186.8719
1551.945, 187.2937
1553.874, 186.9716
1555.802, 186.7840
1557.731, 187.1161
1559.659, 187.3895
1561.588, 187.2996
1563.516, 187.0020
1565.445, 186.5407
1567.373, 185.8480
1569.302, 186.0521
1571.230, 187.8338
1573.159, 189.4126
1575.087, 190.2162
1577.016, 190.4784
1578.944, 190.0733
1580.872, 189.2953
1582.801, 189.3306
1584.729, 190.4375
1586.658, 191.1915
1588.586, 191.0631
1590.515, 190.8518
1592.443, 191.0944
1594.372, 191.4687
1596.300, 191.3692
1598.229, 190.7936
1600.157, 190.9068
1602.086, 192.4016
1604.014, 193.5163
1605.943, 193.0661
1607.871, 192.3069
1609.799, 192.6203
1611.728, 193.7982
1613.656, 194.3984
1615.585, 194.2395
1617.513, 193.9076
1619.442, 193.3204
1621.370, 192.7815
1623.299, 192.3506
1625.227, 192.1222
1627.156, 192.4445
1629.084, 193.4322
1631.013, 193.8633
1632.941, 193.0117
1634.870, 192.5473
1636.798, 193.3307
1638.726, 194.5204
1640.655, 195.4341
1642.583, 196.0781
1644.512, 196.3436
1646.440, 195.9673
1648.369, 195.9422
1650.297, 196.9208
1652.226, 197.7554
1654.154, 197.6759
1656.083, 197.2598
1658.011, 197.6586
1659.940, 199.0751
1661.868, 199.5629
1663.797, 198.2047
1665.725, 197.3628
1667.653, 197.7628
1669.582, 198.5415
1671.510, 199.3749
1673.439, 200.1010
1675.367, 200.0431
1677.296, 198.7690
1679.224, 198.2957
1681.153, 199.7323
1683.081, 200.7114
1685.010, 200.1185
1686.938, 199.2485
1688.867, 199.3473
1690.795, 200.3109
1692.724, 201.2681
1694.652, 202.4540
1696.580, 203.0538
1698.509, 202.4778
1700.437, 201.9385
1702.366, 201.5693
1704.294, 201.6402
1706.223, 202.8383
1708.151, 205.1421
1710.080, 206.1474
1712.008, 204.9366
1713.937, 204.3424
1715.865, 205.3607
1717.794, 206.2517
1719.722, 205.9652
1721.651, 205.2892
1723.579, 205.4324
1725.507, 206.4680
1727.436, 207.1802
1729.364, 207.3758
1731.293, 207.6296
1733.221, 208.3560
1735.150, 208.7658
1737.078, 207.9915
1739.007, 206.9412
1740.935, 207.2318
1742.864, 209.0226
1744.792, 210.0493
1746.721, 209.8753
1748.649, 209.8328
1750.578, 210.1646
1752.506, 210.5964
1754.434, 211.0747
1756.363, 211.4908
1758.291, 211.6473
1760.220, 211.5347
1762.148, 211.5997
1764.077, 212.0899
1766.005, 212.2310
1767.934, 211.3285
1769.862, 210.8326
1771.791, 211.7107
1773.719, 213.1661
1775.648, 214.2011
1777.576, 214.8201
1779.505, 215.1947
1781.433, 215.1863
1783.361, 215.2883
1785.290, 215.6297
1787.218, 215.9828
1789.147, 216.1532
1791.075, 216.3842
1793.004, 217.1572
1794.932, 217.2419
1796.861, 218.5998
1798.789, 217.8975
1800.718, 217.6609
1802.646, 218.1187
1804.575, 219.0501
1806.503, 221.0838
1808.432, 222.8233
1810.360, 222.9972
1812.288, 222.1003
1814.217, 221.2305
1816.145, 220.4222
1818.074, 220.0574
1820.002, 220.3671
1821.931, 220.7037
1823.859, 220.6577
1825.788, 220.7915
1827.716, 221.8698
1829.645, 223.1436
1831.573, 222.9490
1833.502, 221.5303
1835.430, 222.0791
1837.359, 225.7274
1839.287, 228.0280
1841.215, 227.1969
1843.144, 225.9050
1845.072, 224.7993
1847.001, 224.1530
1848.929, 224.4560
1850.858, 225.5020
1852.786, 226.4068
1854.715, 227.2223
1856.643, 227.7868
1858.572, 228.1352
1860.500, 228.2139
1862.429, 227.4501
1864.357, 227.0341
1866.286, 228.1348
1868.214, 229.9104
1870.142, 230.8346
1872.071, 230.8642
1873.999, 231.0566
1875.928, 231.5327
1877.856, 231.8972
1879.785, 231.9201
1881.713, 232.0980
1883.642, 232.7390
1885.570, 233.4747
1887.499, 234.1174
1889.427, 234.6017
1891.356, 234.6362
1893.284, 234.1646
1895.213, 233.9054
1897.141, 234.0587
1899.069, 234.0054
1900.998, 233.2259
1902.926, 232.7983
1904.855, 233.4259
1906.783, 234.4595
1908.712, 235.2767
1910.640, 235.9472
1912.569, 236.6435
1914.497, 237.3301
1916.426, 238.4000
1918.354, 240.1937
1920.283, 241.3263
1922.211, 240.9881
1924.140, 240.4174
1926.068, 240.2455
1927.996, 240.2794
1929.925, 240.2947
1931.853, 240.3561
1933.782, 240.7184
1935.710, 241.4860
1937.639, 241.8726
1939.567, 241.5681
1941.496, 241.3613
1943.424, 241.6113
1945.353, 241.7304
1947.281, 241.0243
1949.210, 240.3407
1951.138, 240.8125
1953.067, 242.1371
1954.995, 243.1078
1956.923, 243.6310
1958.852, 244.1277
1960.780, 244.8036
1962.709, 245.0524
1964.637, 244.1095
1966.566, 243.6158
1968.494, 244.5056
1970.423, 245.8525
1972.351, 247.0278
1974.280, 247.9444
1976.208, 248.2870
1978.137, 248.0771
1980.065, 247.8302
1981.994, 247.4402
1983.922, 247.7909
1985.850, 249.7370
1987.779, 251.1723
1989.707, 250.6147
1991.636, 249.8643
1993.564, 250.2614
1995.493, 251.2798
1997.421, 252.2019
1999.350, 252.9970
2001.278, 253.4791
2003.207, 253.6555
2005.135, 253.5359
2007.064, 252.5466
2008.992, 252.2039
2010.921, 253.2409
2012.849, 254.4187
2014.777, 255.4398
2016.706, 256.0484
2018.634, 255.4624
2020.563, 256.2849
2022.491, 256.6944
2024.420, 256.6595
2026.348, 257.7441
2028.277, 257.6453
2030.205, 257.5336
2032.134, 257.5175
2034.062, 257.7467
2035.991, 258.5612
2037.919, 259.3468
2039.848, 259.6532
2041.776, 259.7750
2043.704, 259.9685
2045.633, 260.2610
2047.561, 260.8792
2049.490, 261.8549
2051.418, 262.0975
2053.347, 260.4397
2055.275, 260.4403
2057.204, 264.8653
2059.132, 267.5192
2061.061, 265.1907
2062.989, 262.2621
2064.918, 261.2679
2066.846, 261.5498
2068.775, 262.5373
2070.703, 264.0648
2072.632, 265.4984
2074.560, 266.8434
2076.489, 267.3621
2078.417, 266.7605
2080.345, 266.4305
2082.274, 266.7690
2084.202, 267.0165
2086.131, 266.1582
2088.059, 265.9965
2089.988, 268.7170
2091.916, 271.7617
2093.845, 271.9184
2095.773, 270.2565
2097.702, 269.4839
2099.630, 269.6272
2101.559, 270.2154
2103.487, 271.6989
2105.416, 272.6855
2107.344, 272.8027
2109.272, 273.0695
2111.201, 274.1486
2113.129, 274.7268
2115.058, 273.4566
2116.986, 272.3131
2118.915, 273.1710
2120.843, 274.8693
2122.772, 275.6765
2124.700, 275.7986
2126.629, 275.9932
2128.557, 276.2852
2130.486, 276.3165
2132.414, 275.7751
2134.343, 275.9488
2136.271, 277.9737
2138.199, 279.3138
2140.128, 278.6828
2142.056, 278.1001
2143.985, 278.7835
2145.913, 279.8129
2147.842, 280.3790
2149.770, 280.6434
2151.699, 280.7397
2153.627, 280.7771
2155.556, 281.6830
2157.484, 281.8779
2159.413, 282.1120
2161.341, 283.1071
2163.270, 282.6763
2165.198, 283.6304
2167.126, 284.4351
2169.055, 284.2960
2170.983, 284.3217
2172.912, 285.6522
2174.840, 286.7997
2176.769, 285.9711
2178.697, 284.4588
2180.626, 284.4864
2182.554, 285.6747
2184.483, 286.1978
2186.411, 286.0382
2188.340, 286.3817
2190.268, 287.3441
2192.197, 288.1051
2194.125, 288.4125
2196.053, 289.0054
2197.982, 290.6289
2199.910, 291.7077
2201.839, 291.1259
2203.767, 290.3999
2205.696, 290.2923
2207.624, 290.7021
2209.553, 291.8308
2211.481, 293.2113
2213.410, 293.7467
2215.338, 293.5621
2217.267, 293.9493
2219.195, 294.9553
2221.124, 295.0230
2223.052, 293.8077
2224.980, 293.6194
2226.909, 295.3233
2228.837, 296.5862
2230.766, 296.3351
2232.694, 296.1939
2234.623, 296.9532
2236.551, 297.8080
2238.480, 298.1717
2240.408, 298.4594
2242.337, 299.1757
2244.265, 300.0701
2246.194, 300.8992
2248.122, 301.5065
2250.051, 300.7322
2251.979, 298.7445
2253.907, 298.3932
2255.836, 299.9696
2257.764, 301.2453
2259.693, 301.8734
2261.621, 302.5070
2263.550, 303.4198
2265.478, 304.1550
2267.407, 304.6505
2269.335, 304.8540
2271.264, 304.5664
2273.192, 304.1544
2275.121, 302.9694
2277.049, 302.6010
2278.978, 306.4100
2280.906, 305.7102
2282.834, 306.5095
2284.763, 308.1014
2286.691, 307.1777
2288.620, 308.7147
2290.548, 309.9879
2292.477, 310.9725
2294.405, 311.3190
2296.334, 310.1388
2298.262, 309.9066
2300.191, 311.4156
2302.119, 312.6899
2304.048, 313.6079
2305.976, 313.9031
2307.905, 312.8843
2309.833, 312.0287
2311.761, 312.1448
2313.690, 312.8629
2315.618, 314.3267
2317.547, 315.8491
2319.475, 316.0689
2321.404, 317.7699
2323.332, 317.2559
2325.261, 320.1090
2327.189, 321.9524
2329.118, 322.7780
2331.046, 322.4285
2332.975, 320.7393
2334.903, 319.8956
2336.832, 320.1994
2338.760, 321.0079
2340.688, 322.8286
2342.617, 323.6926
2344.545, 322.1366
2346.474, 321.0632
2348.402, 321.9452
2350.331, 322.7314
2352.259, 322.0390
2354.188, 321.3755
2356.116, 321.9839
2358.045, 322.9286
2359.973, 322.9401
2361.902, 322.9452
2363.830, 324.7486
2365.759, 327.3531
2367.687, 328.1813
2369.615, 327.5776
2371.544, 327.6730
2373.472, 328.5190
2375.401, 329.2984
2377.329, 330.1319
2379.258, 329.9775
2381.186, 328.5009
2383.115, 327.9427
2385.043, 328.8702
2386.972, 329.6352
2388.900, 329.5372
2390.829, 329.8489
2392.757, 331.4918
2394.686, 332.7504
2396.614, 332.8950
2398.542, 332.7491
2400.471, 332.4253
2402.399, 332.3454
2404.328, 332.7915
2406.256, 333.6084
2408.185, 334.8565
2410.113, 336.1900
2412.042, 337.1760
2413.970, 337.9088
2415.899, 338.5062
2417.827, 339.0519
2419.756, 339.9340
2421.684, 341.1025
2423.613, 341.8998
2425.541, 342.3431
2427.469, 342.6045
2429.398, 342.6750
2431.326, 343.0648
2433.255, 343.8696
2435.183, 344.7122
2437.112, 346.0417
2439.040, 346.4229
2440.969, 344.9356
2442.897, 344.0044
2444.826, 344.0901
2446.754, 344.4240
2448.683, 344.8501
2450.611, 345.3765
2452.540, 346.0062
2454.468, 346.6751
2456.396, 347.3331
2458.325, 347.9684
2460.253, 348.5175
2462.182, 349.1039
2464.110, 350.2078
2466.039, 351.1313
2467.967, 350.8026
2469.896, 350.1818
2471.824, 350.6849
2473.753, 350.7853
2475.681, 352.1258
2477.610, 352.2336
2479.538, 353.2190
2481.467, 354.8986
2483.395, 356.9445
2485.323, 359.2038
2487.252, 359.4951
2489.180, 357.9964
2491.109, 357.5322
2493.037, 358.3078
2494.966, 358.4262
2496.894, 357.4926
2498.823, 357.4105
2500.751, 358.7272
2502.680, 359.9305
2504.608, 361.2014
2506.537, 361.6945
2508.465, 360.9561
2510.394, 360.6076
2512.322, 361.1969
2514.250, 361.6610
2516.179, 361.5368
2518.107, 361.4099
2520.036, 360.9811
2521.964, 361.2383
2523.893, 363.2060
2525.821, 364.9923
2527.750, 365.7803
2529.678, 366.3751
2531.607, 367.5432
2533.535, 368.3062
2535.464, 367.4257
2537.392, 366.5574
2539.321, 367.1201
2541.249, 368.2243
2543.177, 369.1124
2545.106, 369.9690
2547.034, 371.3863
2548.963, 372.5322
2550.891, 372.1457
2552.820, 371.0228
2554.748, 370.0119
2556.677, 369.4579
2558.605, 370.2908
2560.534, 372.0605
2562.462, 373.7135
2564.391, 375.2091
2566.319, 376.4189
2568.248, 377.3240
2570.176, 377.7356
2572.104, 377.7747
2574.033, 378.2207
2575.961, 379.0799
2577.890, 380.8637
2579.818, 380.5265
2581.747, 383.5453
2583.675, 381.1368
2585.604, 380.5672
2587.532, 382.1684
2589.461, 383.1932
2591.389, 383.2138
2593.318, 384.4123
2595.246, 387.5620
2597.175, 387.8809
2599.103, 384.5983
2601.031, 383.7236
2602.960, 386.3551
2604.888, 388.1185
2606.817, 387.8275
2608.745, 388.3482
2610.674, 390.5096
2612.602, 392.2204
2614.531, 393.2918
2616.459, 394.1229
2618.388, 394.6940
2620.316, 395.2376
2622.245, 395.8288
2624.173, 396.3448
2626.102, 397.2032
2628.030, 397.2694
2629.958, 395.8385
2631.887, 394.8974
2633.815, 394.8205
2635.744, 395.2940
2637.672, 396.2889
2639.601, 397.5893
2641.529, 399.2350
2643.458, 400.9037
2645.386, 402.9220
2647.315, 404.2532
2649.243, 404.7767
2651.172, 404.3104
2653.100, 401.4722
2655.029, 400.1686
2656.957, 403.1117
2658.885, 406.1886
2660.814, 408.2096
2662.742, 409.4275
2664.671, 409.3184
2666.599, 409.5160
2668.528, 411.3858
2670.456, 412.4915
2672.385, 410.3886
2674.313, 409.0920
2676.242, 411.7852
2678.170, 413.7882
2680.099, 411.9145
2682.027, 410.5808
2683.956, 412.2306
2685.884, 414.2046
2687.813, 415.5417
2689.741, 416.2310
2691.669, 415.2769
2693.598, 414.9962
2695.526, 417.2242
2697.455, 419.3657
2699.383, 420.3276
2701.312, 420.6488
2703.240, 420.0771
2705.169, 419.7487
2707.097, 420.5407
2709.026, 421.4663
2710.954, 422.4789
2712.883, 422.9015
2714.811, 421.4862
2716.740, 420.8985
2718.668, 423.4900
2720.596, 425.8752
2722.525, 425.8947
2724.453, 425.7519
2726.382, 426.5137
2728.310, 427.2824
2730.239, 427.8821
2732.167, 428.1437
2734.096, 427.2570
2736.024, 427.2222
2737.953, 429.6309
2739.881, 432.0485
2741.810, 433.1226
2743.738, 434.7037
2745.667, 438.9111
2747.595, 441.2914
2749.523, 438.1760
2751.452, 435.6149
2753.380, 436.1789
2755.309, 437.2794
2757.237, 438.8081
2759.166, 439.5260
2761.094, 437.9228
2763.023, 437.4594
2764.951, 440.4663
2766.880, 442.6600
2768.808, 442.3895
2770.737, 442.3912
2772.665, 443.5112
2774.594, 444.1722
2776.522, 443.5695
2778.450, 443.1700
2780.379, 443.3535
2782.307, 443.8713
2784.236, 444.8497
2786.164, 446.0065
2788.093, 447.4293
2790.021, 448.6534
2791.950, 449.4967
2793.878, 450.1078
2795.807, 450.0575
2797.735, 450.7816
2799.664, 452.5973
2801.592, 453.1926
2803.521, 451.8969
2805.449, 451.5884
2807.377, 453.2820
2809.306, 454.1357
2811.234, 454.1537
2813.163, 453.6064
2815.091, 452.4569
2817.020, 455.7426
2818.948, 464.5635
2820.877, 467.7778
2822.805, 464.8890
2824.734, 462.5410
2826.662, 460.8089
2828.591, 460.5340
2830.519, 461.7828
2832.448, 465.1541
2834.376, 469.9411
2836.304, 471.5111
2838.233, 470.3261
2840.161, 467.5494
2842.090, 464.3060
2844.018, 464.1892
2845.947, 463.2647
2847.875, 465.6270
2849.804, 464.9677
2851.732, 467.4793
2853.661, 470.5709
2855.589, 469.0332
2857.518, 471.9240
2859.446, 469.6534
2861.375, 473.3828
2863.303, 472.0506
2865.231, 469.9132
2867.160, 470.8298
2869.088, 472.6728
2871.017, 473.6371
2872.945, 475.1513
2874.874, 479.4053
2876.802, 482.5992
2878.731, 481.9535
2880.659, 481.1866
2882.588, 481.7089
2884.516, 482.9192
2886.445, 485.7177
2888.373, 487.2157
2890.302, 486.0947
2892.230, 485.4035
2894.158, 485.9453
2896.087, 486.4398
2898.015, 486.3316
2899.944, 486.7529
2901.872, 487.9134
2903.801, 488.9695
2905.729, 489.8758
2907.658, 490.3849
2909.586, 491.3345
2911.515, 491.1750
2913.443, 492.9251
2915.372, 494.2289
2917.300, 495.2285
2919.229, 497.2211
2921.157, 499.7365
2923.085, 499.9994
2925.014, 498.9068
2926.942, 499.6682
2928.871, 501.4725
2930.799, 502.9889
2932.728, 503.9487
2934.656, 503.6922
2936.585, 503.0547
2938.513, 503.0083
2940.442, 503.3211
2942.370, 503.9431
2944.299, 504.5989
2946.227, 504.3305
2948.156, 504.9712
2950.084, 508.9576
2952.012, 511.5506
2953.941, 510.0815
2955.869, 509.2001
2957.798, 510.8271
2959.726, 512.8778
2961.655, 515.9567
2963.583, 517.1959
2965.512, 516.0041
2967.440, 515.2643
2969.369, 515.3367
2971.297, 516.1298
2973.226, 517.8529
2975.154, 517.7324
2977.083, 519.6606
2979.011, 517.7803
2980.939, 521.8889
2982.868, 522.9891
2984.796, 522.0581
2986.725, 521.9637
2988.653, 522.3198
2990.582, 522.1362
2992.510, 522.1932
2994.439, 524.1138
2996.367, 526.0623
2998.296, 525.6710
3000.224, 525.3567
3002.153, 527.0997
3004.081, 528.6287
3006.010, 528.2268
3007.938, 528.2026
3009.866, 529.4983
3011.795, 530.8840
3013.723, 532.4329
3015.652, 532.9293
3017.580, 534.2024
3019.509, 535.5103
3021.437, 535.6340
3023.366, 537.7943
3025.294, 537.8138
3027.223, 537.9645
3029.151, 538.2639
3031.080, 538.3588
3033.008, 538.5324
3034.937, 540.3422
3036.865, 540.6116
3038.793, 542.7751
3040.722, 542.4188
3042.650, 543.7245
3044.579, 544.6194
3046.507, 541.9177
3048.436, 540.7479
3050.364, 546.5068
3052.293, 550.5774
3054.221, 547.9523
3056.150, 546.8835
3058.078, 549.5507
3060.007, 551.6673
3061.935, 551.7556
3063.864, 553.2141
3065.792, 556.3693
3067.720, 556.6601
3069.649, 554.3915
3071.577, 554.5699
3073.506, 556.5518
3075.434, 557.3082
3077.363, 557.2161
3079.291, 556.3153
3081.220, 556.0391
3083.148, 559.1930
3085.077, 562.6591
3087.005, 563.3658
3088.934, 563.7558
3090.862, 565.1094
3092.791, 566.3546
3094.719, 567.4985
3096.647, 567.2324
3098.576, 564.6722
3100.504, 563.8698
3102.433, 565.6674
3104.361, 567.1638
3106.290, 568.2712
3108.218, 568.4374
3110.147, 567.9984
3112.075, 568.3512
3114.004, 569.4789
3115.932, 572.0430
3117.861, 574.6061
3119.789, 574.6053
3121.718, 574.0497
3123.646, 574.3611
3125.574, 575.0856
3127.503, 576.4735
3129.431, 577.3527
3131.360, 576.9767
3133.288, 577.8057
3135.217, 581.0399
3137.145, 583.9312
3139.074, 586.4905
3141.002, 586.4705
3142.931, 587.6437
3144.859, 584.9682
3146.788, 587.3351
3148.716, 587.5455
3150.645, 587.0414
3152.573, 588.6937
3154.501, 590.4750
3156.430, 590.3737
3158.358, 589.8685
3160.287, 589.5746
3162.215, 589.7136
3164.144, 590.4127
3166.072, 591.4832
3168.001, 593.0703
3169.929, 594.4912
3171.858, 595.6946
3173.786, 595.6526
3175.715, 596.8531
3177.643, 595.6364
3179.572, 597.6627
3181.500, 597.5561
3183.428, 596.7720
3185.357, 596.9685
3187.285, 597.6670
3189.214, 598.5685
3191.142, 599.7246
3193.071, 601.3197
3194.999, 602.7377
3196.928, 604.3127
3198.856, 604.8201
3200.785, 607.4811
3202.713, 609.5834
3204.642, 610.9096
3206.570, 610.7898
3208.499, 611.4377
3210.427, 610.1550
3212.355, 610.7789
3214.284, 609.6127
3216.212, 608.7852
3218.141, 610.6101
3220.069, 612.6337
3221.998, 613.7640
3223.926, 615.0126
3225.855, 616.9207
3227.783, 618.3871
3229.712, 619.3880
3231.640, 619.4402
3233.569, 618.6992
3235.497, 618.5120
3237.426, 618.8612
3239.354, 619.5143
3241.282, 620.8517
3243.211, 623.8080
3245.139, 626.8531
3247.068, 629.6866
3248.996, 630.7025
3250.925, 628.1912
3252.853, 627.6914
3254.782, 631.5018
3256.710, 633.2387
3258.639, 632.9508
3260.567, 632.8627
3262.496, 633.1429
3264.424, 634.5521
3266.353, 636.2101
3268.281, 636.9941
3270.209, 637.0865
3272.138, 635.7709
3274.066, 635.3215
3275.995, 636.7657
3277.923, 638.5779
3279.852, 640.5512
3281.780, 642.2054
3283.709, 643.5057
3285.637, 644.1882
3287.566, 644.7291
3289.494, 647.1121
3291.423, 647.8224
3293.351, 650.3612
3295.280, 650.6145
3297.208, 652.2908
3299.136, 653.8403
3301.065, 654.7559
3302.993, 654.8253
3304.922, 653.7575
3306.850, 655.1836
3308.779, 655.7150
3310.707, 659.7499
3312.636, 658.1057
3314.564, 658.4746
3316.493, 659.2399
3318.421, 657.4451
3320.350, 657.1970
3322.278, 662.3268
3324.207, 665.7463
3326.135, 663.2995
3328.063, 662.9343
3329.992, 665.1251
3331.920, 667.2327
3333.849, 668.9857
3335.777, 669.9214
3337.706, 670.3847
3339.634, 670.7377
3341.563, 671.4319
3343.491, 673.3049
3345.420, 674.8041
3347.348, 675.1249
3349.277, 675.6245
3351.205, 676.5090
3353.134, 677.6395
3355.062, 678.9019
3356.990, 678.0367
3358.919, 676.4109
3360.847, 677.0194
3362.776, 678.2815
3364.704, 678.3956
3366.633, 678.9404
3368.561, 680.6094
3370.490, 682.8376
3372.418, 685.7448
3374.347, 687.3607
3376.275, 689.7904
3378.204, 690.1863
3380.132, 693.3151
3382.061, 694.1364
3383.989, 694.2651
3385.917, 695.7910
3387.846, 696.3819
3389.774, 696.7355
3391.703, 697.2521
3393.631, 696.7571
3395.560, 697.8537
3397.488, 698.2369
3399.417, 697.5941
3401.345, 699.7697
3403.274, 700.8892
3405.202, 701.7737
3407.131, 703.5269
3409.059, 704.6283
3410.988, 704.2617
3412.916, 703.6730
3414.844, 702.7349
3416.773, 704.2381
3418.701, 707.5671
3420.630, 709.4139
3422.558, 710.3876
3424.487, 711.4577
3426.415, 712.2897
3428.344, 712.2200
3430.272, 712.7709
3432.201, 714.6355
3434.129, 715.4600
3436.058, 716.9133
3437.986, 718.6217
3439.915, 719.7891
3441.843, 721.9091
3443.771, 723.3317
3445.700, 724.6838
3447.628, 724.5735
3449.557, 721.4758
3451.485, 720.3805
3453.414, 722.7018
3455.342, 725.3765
3457.271, 728.1801
3459.199, 730.3409
3461.128, 731.8932
3463.056, 733.0718
3464.985, 733.3272
3466.913, 734.7043
3468.842, 731.1828
3470.770, 735.4023
3472.698, 736.1683
3474.627, 733.9872
3476.555, 736.1642
3478.484, 736.4005
3480.412, 739.8934
3482.341, 738.8997
3484.269, 739.3985
3486.198, 740.9210
3488.126, 744.1387
3490.055, 745.9261
3491.983, 746.1552
3493.912, 745.9014
3495.840, 745.5302
3497.769, 745.9540
3499.697, 746.5002
3501.625, 745.9586
3503.554, 746.3902
3505.482, 748.7723
3507.411, 750.4449
3509.339, 750.9719
3511.268, 751.1067
3513.196, 751.5322
3515.125, 755.0845
3517.053, 759.0656
3518.982, 761.4937
3520.910, 761.9263
3522.839, 764.4520
3524.767, 765.8291
3526.696, 766.1758
3528.624, 768.2062
3530.552, 767.3298
3532.481, 766.5193
3534.409, 765.9275
3536.338, 765.3005
3538.266, 766.1656
3540.195, 770.1365
3542.123, 772.9099
3544.052, 774.2945
3545.980, 775.4226
3547.909, 776.2453
3549.837, 775.7066
3551.766, 776.1844
3553.694, 781.0048
3555.623, 783.2472
3557.551, 779.3070
3559.479, 776.8295
3561.408, 776.2526
3563.336, 779.4761
3565.265, 783.2678
3567.193, 780.2693
3569.122, 777.3873
3571.050, 778.7968
3572.979, 781.3826
3574.907, 784.6652
3576.836, 788.4641
3578.764, 792.1609
3580.693, 792.0681
3582.621, 791.3689
3584.550, 794.6790
3586.478, 796.8801
3588.406, 794.1769
3590.335, 794.9910
3592.263, 799.9774
3594.192, 800.1740
3596.120, 797.6542
3598.049, 797.7489
3599.977, 799.3695
3601.906, 802.7706
3603.834, 805.5611
3605.763, 807.1995
3607.691, 808.9454
3609.620, 810.6396
3611.548, 809.7002
3613.477, 811.3458
3615.405, 810.4011
3617.333, 812.2328
3619.262, 812.5464
3621.190, 812.0853
3623.119, 810.8286
3625.047, 812.4773
3626.976, 815.7982
3628.904, 818.7482
3630.833, 820.4033
3632.761, 818.6985
3634.690, 818.4151
3636.618, 820.7537
3638.547, 823.4152
3640.475, 825.7276
3642.404, 823.2828
3644.332, 820.3278
3646.260, 820.5971
3648.189, 823.6218
3650.117, 829.7861
3652.046, 835.4833
3653.974, 840.2128
3655.903, 841.4294
3657.831, 840.5461
3659.760, 838.4445
3661.688, 837.8251
3663.617, 840.6208
3665.545, 841.8285
3667.474, 840.6337
3669.402, 840.5229
3671.331, 840.9835
3673.259, 840.3289
3675.188, 840.4753
3677.116, 842.6471
3679.044, 845.5194
3680.973, 845.8094
3682.901, 849.5215
3684.830, 847.7407
3686.758, 848.2661
3688.687, 849.1030
3690.615, 848.0699
3692.544, 848.4678
3694.472, 851.5534
3696.401, 853.3489
3698.329, 854.4541
3700.258, 857.6964
3702.186, 861.1465
3704.115, 863.6781
3706.043, 864.1581
3707.971, 864.9192
3709.900, 861.6182
3711.828, 863.6965
3713.757, 862.8145
3715.685, 861.8162
3717.614, 864.1928
3719.542, 866.0411
3721.471, 866.1336
3723.399, 867.1484
3725.328, 868.8812
3727.256, 870.0408
3729.185, 870.6239
3731.113, 870.0605
3733.042, 869.9348
3734.970, 870.7061
3736.898, 871.2483
3738.827, 871.7690
3740.755, 874.4032
3742.684, 876.6248
3744.612, 874.9677
3746.541, 874.3073
3748.469, 875.7997
3750.398, 878.1301
3752.326, 881.1197
3754.255, 886.4090
3756.183, 889.5324
3758.112, 884.1795
3760.040, 880.3174
3761.969, 879.9278
3763.897, 882.0355
3765.825, 885.5362
3767.754, 887.7853
3769.682, 888.9388
3771.611, 887.9384
3773.539, 888.2692
3775.468, 890.4637
3777.396, 893.8005
3779.325, 897.5331
3781.253, 900.5975
3783.182, 902.4766
3785.110, 902.6812
3787.039, 901.7515
3788.967, 899.7528
3790.896, 897.6393
3792.824, 896.4972
3794.752, 899.1268
3796.681, 900.6978
3798.609, 898.2250
3800.538, 900.2880
3802.466, 906.4383
3804.395, 908.9185
3806.323, 909.0469
3808.252, 906.7972
3810.180, 906.3826
3812.109, 908.8538
3814.037, 912.3956
3815.966, 915.7434
3817.894, 914.4681
3819.823, 912.8798
3821.751, 914.7756
3823.679, 915.6163
3825.608, 915.0422
3827.536, 916.7747
3829.465, 920.0019
3831.393, 924.2359
3833.322, 927.0869
3835.250, 926.2158
3837.179, 926.3725
3839.107, 927.4460
3841.036, 928.5058
3842.964, 928.9909
3844.893, 929.0045
3846.821, 926.6130
3848.750, 919.3442
3850.678, 920.0315
3852.606, 926.2491
3854.535, 934.7462
3856.463, 938.4964
3858.392, 931.7280
3860.320, 929.8364
3862.249, 934.5693
3864.177, 938.8680
3866.106, 941.0588
3868.034, 936.1618
3869.963, 934.7784
3871.891, 940.1202
3873.820, 943.0472
3875.748, 943.1446
3877.677, 942.4631
3879.605, 942.1602
3881.533, 943.3388
3883.462, 944.0893
3885.390, 944.4083
3887.319, 945.6722
3889.247, 946.8011
3891.176, 946.3558
3893.104, 946.0705
3895.033, 946.4203
3896.961, 948.3959
3898.890, 950.3231
3900.818, 947.5336
3902.747, 944.9138
3904.675, 945.9025
3906.604, 946.5165
3908.532, 945.8567
3910.460, 945.2921
3912.389, 946.8358
3914.317, 952.1055
3916.246, 954.8356
3918.174, 953.3011
3920.103, 952.4903
3922.031, 951.9170
3923.960, 948.2057
3925.888, 946.7722
3927.817, 950.3086
3929.745, 953.3994
3931.674, 955.5212
3933.602, 957.7592
3935.531, 959.6909
3937.459, 959.9617
3939.387, 961.5897
3941.316, 960.4550
3943.244, 958.2640
3945.173, 957.5317
3947.101, 960.6033
3949.030, 961.3474
3950.958, 959.2568
3952.887, 957.1565
3954.815, 956.2369
3956.744, 957.7628
3958.672, 959.1891
3960.601, 961.0985
3962.529, 961.2161
3964.458, 960.0964
3966.386, 960.2491
3968.314, 961.0283
3970.243, 961.2094
3972.171, 962.0133
3974.100, 962.6214
3976.028, 963.4208
3977.957, 963.9084
3979.885, 964.5676
3981.814, 964.9923
3983.742, 965.5969
3985.671, 966.2062
3987.599, 966.9064
3989.528, 967.5284
3991.456, 967.5277
3993.385, 966.7173
3995.313, 967.6432
3997.241, 968.8836
3999.170, 966.9002
4001.098, 965.9791
4003.027, 967.9600
4004.955, 968.9355
4006.884, 969.6581
4008.812, 972.9949
4010.741, 975.0298
4012.669, 974.5664
4014.598, 973.3790
4016.526, 972.0774
4018.455, 972.2024
4020.383, 972.7172
4022.312, 973.3636
4024.240, 974.1368
4026.168, 974.8767
4028.097, 974.8978
4030.025, 974.8002
4031.954, 974.7775
4033.882, 975.5358
4035.811, 976.9609
4037.739, 978.1648
4039.668, 978.6683
4041.596, 979.6838
4043.525, 977.3297
4045.453, 980.8677
4047.382, 982.8259
4049.310, 983.2393
4051.239, 980.4528
4053.167, 977.5085
4055.095, 975.3895
4057.024, 978.7746
4058.952, 982.8274
4060.881, 981.2315
4062.809, 980.4561
4064.738, 981.2752
4066.666, 981.0609
4068.595, 981.0557
4070.523, 983.1869
4072.452, 984.2405
4074.380, 982.6275
4076.309, 982.9791
4078.237, 985.1093
4080.166, 984.6389
4082.094, 983.0601
4084.022, 982.1058
4085.951, 983.0678
4087.879, 984.8300
4089.808, 985.2864
4091.736, 986.3707
4093.665, 986.5808
4095.593, 986.9523
4097.522, 987.0993
4099.450, 987.6368
4101.379, 989.1535
4103.307, 990.3569
4105.236, 990.8219
4107.164, 990.2738
4109.093, 988.1326
4111.021, 987.7926
4112.950, 990.0529
4114.878, 992.1324
4116.807, 993.8464
4118.735, 993.3765
4120.664, 991.7771
4122.592, 989.6371
4124.521, 988.9022
4126.449, 989.5800
4128.377, 989.7205
4130.306, 990.4855
4132.234, 994.4636
4134.163, 997.3023
4136.091, 998.7517
4138.020, 997.2086
4139.948, 993.8132
4141.876, 992.8289
4143.805, 992.6854
4145.733, 992.1133
4147.662, 992.7742
4149.590, 994.1143
4151.519, 994.9337
4153.447, 995.2423
4155.376, 996.1247
4157.304, 999.2732
4159.233, 1002.677
4161.161, 1004.524
4163.090, 1002.579
4165.018, 996.5640
4166.947, 995.7410
4168.875, 998.1234
4170.804, 999.3046
4172.732, 1000.841
4174.661, 1002.902
4176.589, 1000.819
4178.518, 999.1413
4180.446, 1002.790
4182.375, 1003.383
4184.303, 999.4089
4186.231, 1001.481
4188.160, 1003.741
4190.088, 1000.366
4192.017, 999.6821
4193.945, 1001.635
4195.874, 999.8997
4197.802, 1000.941
4199.730, 999.7401
4201.659, 1001.536
4203.587, 1001.536
4205.516, 1001.184
4207.444, 1001.267
4209.373, 1001.314
4211.301, 1004.418
4213.230, 1002.031
4215.158, 1003.168
4217.087, 1004.537
4219.015, 1002.273
4220.944, 1001.554
4222.872, 1003.581
4224.801, 1002.018
4226.729, 1002.300
4228.658, 1002.928
4230.586, 1002.718
4232.515, 1005.703
4234.443, 1008.597
4236.372, 1008.703
4238.300, 1008.884
4240.229, 1009.166
4242.157, 1006.514
4244.085, 1007.334
4246.014, 1006.489
4247.942, 1004.187
4249.871, 1005.726
4251.799, 1008.280
4253.728, 1008.556
4255.656, 1010.824
4257.584, 1014.832
4259.513, 1011.408
4261.441, 1007.389
4263.370, 1008.160
4265.298, 1010.471
4267.227, 1013.255
4269.155, 1012.326
4271.084, 1012.479
4273.012, 1017.669
4274.941, 1019.803
4276.869, 1019.743
4278.798, 1018.349
4280.726, 1018.173
4282.655, 1020.134
4284.583, 1022.354
4286.512, 1023.424
4288.440, 1023.998
4290.369, 1020.021
4292.297, 1024.282
4294.226, 1024.634
4296.154, 1025.295
4298.083, 1031.615
4300.011, 1030.739
4301.939, 1032.781
4303.868, 1030.183
4305.796, 1033.767
4307.725, 1030.932
4309.653, 1030.137
4311.582, 1031.178
4313.510, 1034.770
4315.438, 1037.129
4317.367, 1037.519
4319.295, 1039.654
4321.224, 1041.885
4323.152, 1043.221
4325.081, 1041.260
4327.009, 1037.608
4328.938, 1040.423
4330.866, 1044.225
4332.795, 1046.926
4334.723, 1049.096
4336.652, 1050.863
4338.580, 1052.859
4340.509, 1051.823
4342.437, 1054.516
4344.366, 1051.859
4346.294, 1056.975
4348.223, 1056.686
4350.151, 1055.571
4352.080, 1054.313
4354.008, 1053.378
4355.937, 1052.250
4357.865, 1050.835
4359.793, 1049.447
4361.722, 1050.327
4363.650, 1051.084
4365.579, 1052.590
4367.507, 1056.246
4369.436, 1058.841
4371.364, 1064.497
4373.292, 1071.456
4375.221, 1073.750
4377.149, 1072.559
4379.078, 1070.143
4381.006, 1068.629
4382.935, 1068.637
4384.863, 1068.405
4386.792, 1069.234
4388.720, 1069.655
4390.649, 1069.233
4392.577, 1071.357
4394.506, 1070.039
4396.434, 1070.859
4398.363, 1070.845
4400.291, 1073.191
4402.220, 1070.747
4404.148, 1072.238
4406.077, 1073.000
4408.005, 1073.015
4409.934, 1075.037
4411.862, 1076.021
4413.791, 1074.837
4415.719, 1077.286
4417.647, 1079.620
4419.576, 1075.779
4421.504, 1077.510
4423.433, 1083.268
4425.361, 1079.180
4427.290, 1076.855
4429.218, 1081.341
4431.146, 1081.397
4433.075, 1080.546
4435.003, 1085.299
4436.932, 1086.064
4438.860, 1083.133
4440.789, 1084.365
4442.717, 1084.897
4444.646, 1080.907
4446.574, 1084.589
4448.503, 1090.044
4450.431, 1089.147
4452.360, 1091.498
4454.288, 1096.618
4456.217, 1096.646
4458.145, 1095.196
4460.074, 1093.618
4462.002, 1093.630
4463.931, 1095.333
4465.859, 1099.442
4467.788, 1102.363
4469.716, 1103.778
4471.645, 1103.747
4473.573, 1103.712
4475.501, 1104.170
4477.430, 1104.350
4479.358, 1102.990
4481.287, 1104.083
4483.215, 1105.772
4485.144, 1105.245
4487.072, 1109.187
4489.000, 1110.199
4490.929, 1108.520
4492.857, 1103.883
4494.786, 1101.748
4496.714, 1105.547
4498.643, 1109.105
4500.571, 1111.047
4502.500, 1109.278
4504.428, 1108.262
4506.357, 1108.646
4508.285, 1109.636
4510.214, 1111.721
4512.142, 1115.570
4514.071, 1115.749
4515.999, 1115.705
4517.928, 1120.047
4519.856, 1118.656
4521.785, 1114.144
4523.713, 1114.938
4525.642, 1116.599
4527.570, 1118.070
4529.499, 1119.296
4531.427, 1121.341
4533.355, 1125.503
4535.284, 1121.978
4537.212, 1118.234
4539.141, 1127.791
4541.069, 1131.330
4542.998, 1128.990
4544.926, 1127.858
4546.854, 1128.936
4548.783, 1132.150
4550.711, 1131.711
4552.640, 1130.859
4554.568, 1132.012
4556.497, 1129.360
4558.425, 1126.710
4560.354, 1131.476
4562.282, 1132.367
4564.211, 1129.729
4566.139, 1130.219
4568.068, 1131.401
4569.996, 1132.547
4571.925, 1135.489
4573.853, 1136.473
4575.782, 1138.190
4577.710, 1136.088
4579.639, 1141.309
4581.567, 1139.212
4583.496, 1141.003
4585.424, 1145.523
4587.353, 1145.089
4589.281, 1144.935
4591.209, 1146.363
4593.138, 1146.335
4595.066, 1146.432
4596.995, 1147.479
4598.923, 1144.300
4600.852, 1141.445
4602.780, 1143.952
4604.708, 1147.083
4606.637, 1149.093
4608.565, 1147.204
4610.494, 1143.469
4612.422, 1139.802
4614.351, 1146.090
4616.279, 1149.891
4618.208, 1147.637
4620.136, 1147.766
4622.065, 1147.668
4623.993, 1144.828
4625.922, 1144.899
4627.850, 1147.324
4629.779, 1146.799
4631.707, 1148.354
4633.636, 1150.227
4635.564, 1151.668
4637.493, 1155.419
4639.421, 1159.520
4641.350, 1156.818
4643.278, 1153.731
4645.207, 1152.690
4647.135, 1154.409
4649.063, 1157.237
4650.992, 1160.346
4652.920, 1161.512
4654.849, 1160.907
4656.777, 1158.583
4658.706, 1156.331
4660.634, 1154.920
4662.563, 1154.656
4664.491, 1157.544
4666.419, 1161.690
4668.348, 1157.223
4670.276, 1158.742
4672.205, 1167.670
4674.133, 1166.952
4676.062, 1164.190
4677.990, 1162.812
4679.919, 1165.315
4681.847, 1165.429
4683.776, 1156.708
4685.704, 1156.979
4687.633, 1161.861
4689.561, 1167.416
4691.490, 1167.029
4693.418, 1170.180
4695.347, 1170.103
4697.275, 1171.628
4699.204, 1169.638
4701.132, 1169.482
4703.061, 1167.407
4704.989, 1163.616
4706.917, 1164.318
4708.846, 1164.814
4710.774, 1163.834
4712.703, 1165.081
4714.631, 1167.343
4716.560, 1169.865
4718.488, 1174.037
4720.417, 1176.283
4722.345, 1173.995
4724.273, 1171.318
4726.202, 1170.485
4728.130, 1169.591
4730.059, 1168.078
4731.987, 1170.007
4733.916, 1167.640
4735.844, 1169.045
4737.773, 1172.402
4739.701, 1174.688
4741.630, 1174.228
4743.558, 1172.167
4745.487, 1173.506
4747.415, 1174.495
4749.344, 1174.716
4751.272, 1178.017
4753.201, 1177.421
4755.129, 1171.736
4757.058, 1171.916
4758.986, 1173.246
4760.915, 1173.601
4762.843, 1175.456
4764.771, 1175.751
4766.700, 1173.050
4768.628, 1178.951
4770.557, 1184.705
4772.485, 1182.514
4774.414, 1179.820
4776.342, 1179.090
4778.271, 1182.780
4780.199, 1184.632
4782.127, 1184.840
4784.056, 1183.004
4785.984, 1185.963
4787.913, 1189.469
4789.841, 1186.361
4791.770, 1183.604
4793.698, 1182.805
4795.627, 1186.673
4797.555, 1187.262
4799.484, 1185.085
4801.412, 1183.281
4803.341, 1180.476
4805.269, 1177.536
4807.198, 1177.471
4809.126, 1178.928
4811.055, 1181.176
4812.983, 1182.404
4814.912, 1184.460
4816.840, 1187.096
4818.769, 1187.870
4820.697, 1186.873
4822.625, 1185.088
4824.554, 1189.642
4826.482, 1190.935
4828.411, 1187.671
4830.339, 1189.240
4832.268, 1190.293
4834.196, 1189.059
4836.125, 1189.132
4838.053, 1188.125
4839.981, 1185.797
4841.910, 1188.761
4843.838, 1189.880
4845.767, 1186.319
4847.695, 1183.970
4849.624, 1183.723
4851.552, 1185.675
4853.481, 1186.293
4855.409, 1187.326
4857.338, 1189.644
4859.266, 1187.114
4861.195, 1185.176
4863.123, 1186.323
4865.052, 1192.044
4866.980, 1194.330
4868.909, 1188.878
4870.837, 1184.823
4872.766, 1184.218
4874.694, 1182.392
4876.623, 1184.593
4878.551, 1183.665
4880.479, 1189.503
4882.408, 1192.489
4884.336, 1192.565
4886.265, 1190.059
4888.193, 1188.850
4890.122, 1190.362
4892.050, 1189.058
4893.979, 1191.657
4895.907, 1188.490
4897.835, 1189.757
4899.764, 1187.821
4901.692, 1185.698
4903.621, 1184.894
4905.549, 1188.770
4907.478, 1191.236
4909.406, 1190.593
4911.335, 1194.581
4913.263, 1197.201
4915.192, 1196.122
4917.120, 1192.873
4919.049, 1191.147
4920.977, 1188.950
4922.906, 1187.910
4924.834, 1184.839
4926.763, 1183.986
4928.691, 1182.762
4930.620, 1187.642
4932.548, 1183.623
4934.477, 1187.486
4936.405, 1189.990
4938.333, 1189.860
4940.262, 1189.917
4942.190, 1191.083
4944.119, 1193.305
4946.047, 1196.236
4947.976, 1198.399
4949.904, 1198.714
4951.833, 1194.739
4953.761, 1191.191
4955.689, 1188.975
4957.618, 1188.199
4959.546, 1188.810
4961.475, 1190.214
4963.403, 1192.491
4965.332, 1192.480
4967.260, 1186.936
4969.189, 1192.777
4971.117, 1192.104
4973.046, 1191.095
4974.974, 1197.510
4976.903, 1197.655
4978.831, 1194.989
4980.760, 1192.872
4982.688, 1192.244
4984.617, 1193.398
4986.545, 1196.239
4988.474, 1192.433
4990.402, 1189.834
4992.331, 1192.574
4994.259, 1189.864
4996.188, 1188.209
4998.116, 1190.093
5000.044, 1196.125
5001.973, 1198.222
5003.901, 1195.326
5005.830, 1192.101
5007.758, 1192.517
5009.687, 1196.252
5011.615, 1202.585
5013.543, 1194.515
5015.472, 1181.900
5017.400, 1190.177
5019.329, 1190.737
5021.257, 1187.499
5023.186, 1190.156
5025.114, 1186.698
5027.043, 1182.941
5028.971, 1185.081
5030.900, 1187.168
5032.828, 1189.894
5034.757, 1194.641
5036.685, 1190.063
5038.614, 1187.795
5040.542, 1191.752
5042.471, 1193.225
5044.399, 1194.944
5046.328, 1196.803
5048.256, 1193.344
5050.185, 1189.437
5052.113, 1186.653
5054.042, 1186.172
5055.970, 1185.251
5057.898, 1184.539
5059.827, 1185.933
5061.755, 1185.880
5063.684, 1186.681
5065.612, 1191.351
5067.541, 1187.787
5069.469, 1184.837
5071.397, 1188.203
5073.326, 1189.978
5075.254, 1189.794
5077.183, 1188.307
5079.111, 1193.171
5081.040, 1195.186
5082.968, 1193.022
5084.897, 1188.492
5086.825, 1187.763
5088.754, 1189.537
5090.682, 1190.183
5092.611, 1189.354
5094.539, 1188.750
5096.468, 1190.119
5098.396, 1188.760
5100.325, 1188.215
5102.253, 1188.474
5104.182, 1187.631
5106.110, 1189.638
5108.039, 1193.240
5109.967, 1199.361
5111.896, 1199.183
5113.824, 1196.135
5115.752, 1204.405
5117.681, 1207.180
5119.609, 1204.785
5121.538, 1199.981
5123.466, 1200.998
5125.395, 1197.893
5127.323, 1197.623
5129.251, 1195.004
5131.180, 1190.962
5133.108, 1189.707
5135.037, 1191.928
5136.965, 1189.387
5138.894, 1189.655
5140.822, 1188.029
5142.751, 1189.157
5144.679, 1188.780
5146.608, 1189.971
5148.536, 1189.731
5150.465, 1190.527
5152.393, 1189.555
5154.322, 1191.010
5156.250, 1191.295
5158.179, 1189.360
5160.107, 1198.013
5162.036, 1198.526
5163.964, 1191.846
5165.893, 1184.940
5167.821, 1183.977
5169.750, 1185.142
5171.678, 1184.468
5173.606, 1184.734
5175.535, 1183.859
5177.463, 1181.284
5179.392, 1181.073
5181.320, 1184.650
5183.249, 1189.170
5185.177, 1186.550
5187.105, 1182.559
5189.034, 1181.983
5190.962, 1189.267
5192.891, 1196.750
5194.819, 1199.703
5196.748, 1196.210
5198.676, 1188.328
5200.605, 1183.985
5202.533, 1183.901
5204.462, 1184.531
5206.390, 1185.604
5208.319, 1187.214
5210.247, 1191.223
5212.176, 1184.764
5214.104, 1179.503
5216.033, 1181.061
5217.961, 1186.515
5219.890, 1189.351
5221.818, 1187.671
5223.747, 1179.205
5225.675, 1173.648
5227.604, 1173.420
5229.532, 1181.055
5231.460, 1182.405
5233.389, 1183.489
5235.317, 1185.682
5237.246, 1180.852
5239.174, 1178.891
5241.103, 1179.283
5243.031, 1177.018
5244.959, 1179.344
5246.888, 1180.639
5248.816, 1176.890
5250.745, 1173.107
5252.673, 1171.138
5254.602, 1171.325
5256.530, 1174.061
5258.459, 1174.037
5260.387, 1173.107
5262.316, 1174.487
5264.244, 1173.820
5266.173, 1174.512
5268.101, 1176.787
5270.030, 1171.516
5271.958, 1167.625
5273.887, 1166.807
5275.815, 1169.389
5277.744, 1170.989
5279.672, 1170.206
5281.601, 1166.620
5283.529, 1166.998
5285.458, 1169.391
5287.386, 1171.729
5289.314, 1170.423
5291.243, 1167.843
5293.171, 1166.006
5295.100, 1166.415
5297.028, 1168.217
5298.957, 1169.076
5300.885, 1168.403
5302.813, 1166.532
5304.742, 1166.409
5306.670, 1167.438
5308.599, 1168.811
5310.527, 1166.185
5312.456, 1164.983
5314.384, 1166.668
5316.313, 1167.685
5318.241, 1169.455
5320.170, 1170.956
5322.098, 1170.933
5324.027, 1162.837
5325.955, 1156.340
5327.884, 1154.882
5329.812, 1152.583
5331.741, 1151.274
5333.669, 1152.130
5335.598, 1156.640
5337.526, 1147.554
5339.455, 1143.961
5341.383, 1150.604
5343.312, 1151.760
5345.240, 1153.204
5347.168, 1153.329
5349.097, 1147.877
5351.025, 1146.906
5352.954, 1149.781
5354.882, 1153.901
5356.811, 1150.466
5358.739, 1144.654
5360.667, 1140.776
5362.596, 1142.114
5364.524, 1140.893
5366.453, 1141.998
5368.381, 1141.230
5370.310, 1139.409
5372.238, 1138.654
5374.167, 1138.535
5376.095, 1134.788
5378.024, 1134.342
5379.952, 1135.246
5381.881, 1135.446
5383.809, 1131.293
5385.738, 1130.277
5387.666, 1130.974
5389.595, 1131.957
5391.523, 1132.517
5393.452, 1132.377
5395.380, 1130.945
5397.309, 1130.660
5399.237, 1127.775
5401.166, 1127.377
5403.094, 1124.947
5405.022, 1124.802
5406.951, 1123.826
5408.879, 1121.271
5410.808, 1116.291
5412.736, 1109.901
5414.665, 1114.559
5416.593, 1125.219
5418.521, 1121.654
5420.450, 1116.022
5422.378, 1112.688
5424.307, 1113.335
5426.235, 1115.816
5428.164, 1116.497
5430.092, 1116.136
5432.021, 1116.968
5433.949, 1118.238
5435.878, 1117.742
5437.806, 1115.493
5439.735, 1113.835
5441.663, 1112.047
5443.592, 1110.263
5445.520, 1108.647
5447.449, 1108.613
5449.377, 1104.448
5451.306, 1100.555
5453.234, 1105.872
5455.163, 1102.723
5457.091, 1097.314
5459.020, 1094.155
5460.948, 1097.977
5462.876, 1102.118
5464.805, 1101.314
5466.733, 1093.113
5468.662, 1087.959
5470.590, 1092.384
5472.519, 1098.354
5474.447, 1093.397
5476.375, 1092.547
5478.304, 1093.082
5480.232, 1092.613
5482.161, 1088.107
5484.089, 1086.438
5486.018, 1088.655
5487.946, 1086.653
5489.875, 1088.404
5491.803, 1087.117
5493.732, 1088.146
5495.660, 1087.974
5497.589, 1090.974
5499.517, 1088.582
5501.446, 1089.335
5503.374, 1084.741
5505.303, 1086.853
5507.231, 1085.972
5509.160, 1081.386
5511.088, 1073.928
5513.017, 1074.092
5514.945, 1075.192
5516.874, 1073.782
5518.802, 1078.864
5520.730, 1084.442
5522.659, 1087.603
5524.587, 1086.582
5526.516, 1077.805
5528.444, 1072.792
5530.373, 1071.459
5532.301, 1069.993
5534.229, 1068.349
5536.158, 1065.745
5538.086, 1064.367
5540.015, 1060.812
5541.943, 1059.763
5543.872, 1059.125
5545.800, 1054.592
5547.729, 1059.625
5549.657, 1067.957
5551.586, 1069.017
5553.514, 1060.384
5555.443, 1060.387
5557.371, 1055.413
5559.300, 1050.290
5561.228, 1050.330
5563.157, 1049.001
5565.085, 1047.191
5567.014, 1047.471
5568.942, 1046.284
5570.871, 1047.775
5572.799, 1044.506
5574.728, 1045.597
5576.656, 1043.154
5578.584, 1046.222
5580.513, 1041.710
5582.441, 1040.366
5584.370, 1038.082
5586.298, 1035.550
5588.227, 1034.091
5590.155, 1033.520
5592.083, 1030.511
5594.012, 1033.513
5595.940, 1031.990
5597.869, 1032.762
5599.797, 1032.132
5601.726, 1033.929
5603.654, 1034.151
5605.583, 1033.673
5607.511, 1027.526
5609.440, 1023.352
5611.368, 1021.995
5613.297, 1022.269
5615.225, 1016.904
5617.154, 1019.317
5619.082, 1022.391
5621.011, 1021.360
5622.939, 1021.443
5624.868, 1017.785
5626.796, 1013.538
5628.725, 1011.126
5630.653, 1008.014
5632.582, 1011.372
5634.510, 1014.683
5636.438, 1012.882
5638.367, 1007.239
5640.295, 1007.535
5642.224, 1009.044
5644.152, 1007.693
5646.081, 1007.303
5648.009, 1006.351
5649.938, 1006.860
5651.866, 1004.012
5653.794, 1001.444
5655.723, 998.8152
5657.651, 998.5564
5659.580, 996.7477
5661.508, 990.8242
5663.437, 992.0420
5665.365, 991.8848
5667.294, 985.7930
5669.222, 990.6675
5671.151, 990.5480
5673.079, 992.9490
5675.008, 1000.400
5676.936, 991.0198
5678.865, 986.7250
5680.793, 987.4400
5682.722, 989.1389
5684.650, 983.4783
5686.579, 983.9903
5688.507, 989.0084
5690.436, 993.4373
5692.364, 987.5608
5694.292, 984.5286
5696.221, 982.1553
5698.149, 980.2556
5700.078, 985.1647
5702.006, 978.2878
5703.935, 976.4902
5705.863, 979.7772
5707.792, 970.6241
5709.720, 967.5097
5711.648, 966.5756
5713.577, 966.1635
5715.505, 966.4151
5717.434, 973.2346
5719.362, 972.0051
5721.291, 968.3134
5723.219, 972.9489
5725.148, 969.4667
5727.076, 966.1225
5729.005, 963.2961
5730.933, 961.7114
5732.862, 960.4542
5734.790, 959.7234
5736.719, 958.4062
5738.647, 957.9535
5740.576, 959.6152
5742.504, 954.8912
5744.433, 950.1943
5746.361, 949.1683
5748.290, 949.6341
5750.218, 949.9472
5752.146, 948.8408
5754.075, 946.2912
5756.003, 943.1508
5757.932, 941.2297
5759.860, 943.3655
5761.789, 944.7719
5763.717, 938.8868
5765.646, 942.7535
5767.574, 943.0785
5769.502, 938.1067
5771.431, 930.4847
5773.359, 933.7202
5775.288, 930.9116
5777.216, 927.9698
5779.145, 928.9421
5781.073, 927.5956
5783.002, 928.8167
5784.930, 926.0270
5786.859, 921.0430
5788.787, 923.3559
5790.716, 920.6214
5792.644, 921.6533
5794.573, 925.1104
5796.501, 926.1464
5798.430, 926.9979
5800.358, 927.0769
5802.287, 925.4886
5804.215, 923.8624
5806.144, 917.5681
5808.072, 917.2462
5810.000, 913.6628
5811.929, 907.7455
5813.857, 911.9891
5815.786, 915.2670
5817.714, 912.8079
5819.643, 908.9117
5821.571, 910.5446
5823.500, 905.6842
5825.428, 904.2331
5827.356, 903.5496
5829.285, 900.7256
5831.213, 897.1662
5833.142, 896.9420
5835.070, 898.6378
5836.999, 900.7582
5838.927, 902.3567
5840.856, 901.7670
5842.784, 900.0504
5844.713, 897.7190
5846.641, 894.6212
5848.570, 888.4155
5850.498, 884.5961
5852.427, 883.1741
5854.355, 883.4845
5856.284, 885.6992
5858.212, 882.3347
5860.141, 881.5411
5862.069, 882.5788
5863.998, 881.7844
5865.926, 882.1125
5867.854, 880.2660
5869.783, 881.8319
5871.711, 880.2887
5873.640, 878.6689
5875.568, 880.2292
5877.497, 880.9379
5879.425, 880.3799
5881.354, 879.1046
5883.282, 877.9521
5885.210, 874.7053
5887.139, 874.8207
5889.067, 867.9537
5890.996, 867.4666
5892.924, 862.1473
5894.853, 861.9402
5896.781, 860.0634
5898.710, 858.1263
5900.638, 858.6170
5902.567, 856.4810
5904.495, 857.5449
5906.424, 857.9591
5908.352, 859.9296
5910.281, 855.7130
5912.209, 854.5856
5914.138, 854.4374
5916.066, 852.1340
5917.995, 851.0789
5919.923, 849.8059
5921.852, 849.0511
5923.780, 848.2512
5925.708, 845.9860
5927.637, 846.1993
5929.565, 845.7679
5931.494, 843.2761
5933.422, 840.6137
5935.351, 844.4950
5937.279, 839.2191
5939.208, 837.4725
5941.136, 836.8966
5943.064, 832.6164
5944.993, 831.4749
5946.921, 834.0997
5948.850, 836.5280
5950.778, 836.5092
5952.707, 833.6172
5954.635, 830.7712
5956.564, 827.0790
5958.492, 826.2700
5960.421, 824.1080
5962.349, 822.8613
5964.278, 822.0219
5966.206, 822.6332
5968.135, 822.3410
5970.063, 821.1945
5971.992, 816.6328
5973.920, 816.4812
5975.849, 814.5616
5977.777, 812.5706
5979.706, 813.0385
5981.634, 808.9745
5983.563, 809.4034
5985.491, 808.0391
5987.419, 807.4962
5989.348, 805.1743
5991.276, 803.4026
5993.205, 803.4082
5995.133, 802.4302
5997.062, 799.9037
5998.990, 799.4126
6000.918, 795.2864
6002.847, 801.0602
6004.775, 800.7142
6006.704, 798.5088
6008.632, 797.6649
6010.561, 801.9202
6012.489, 800.7223
6014.418, 798.0625
6016.346, 797.0101
6018.275, 791.2260
6020.203, 791.2734
6022.132, 790.1426
6024.060, 789.1094
6025.989, 790.3165
6027.917, 791.5783
6029.846, 789.7641
6031.774, 787.9828
6033.703, 788.0258
6035.631, 788.4572
6037.560, 780.8439
6039.488, 778.2980
6041.417, 776.9725
6043.345, 777.0195
6045.273, 778.1221
6047.202, 772.0144
6049.130, 776.5427
6051.059, 775.2491
6052.987, 772.4513
6054.916, 775.5881
6056.844, 776.1940
6058.772, 767.9471
6060.701, 764.2071
6062.629, 764.4114
6064.558, 763.6234
6066.486, 760.5963
6068.415, 756.7955
6070.343, 758.8690
6072.272, 761.8173
6074.200, 760.1559
6076.129, 755.6266
6078.057, 749.3356
6079.986, 746.5067
6081.914, 746.2634
6083.843, 746.5101
6085.771, 746.3589
6087.700, 745.2925
6089.628, 744.1930
6091.557, 742.7802
6093.485, 742.1653
6095.414, 745.0037
6097.342, 746.4990
6099.271, 743.9965
6101.199, 739.7432
6103.127, 737.7872
6105.056, 741.2106
6106.984, 742.1633
6108.913, 738.7508
6110.841, 734.7717
6112.770, 730.7742
6114.698, 725.7236
6116.626, 726.4925
6118.555, 728.3592
6120.483, 725.5113
6122.412, 719.8632
6124.340, 716.7736
6126.269, 722.0713
6128.197, 721.5523
6130.126, 721.5867
6132.054, 719.9976
6133.983, 720.2909
6135.911, 719.5337
6137.840, 720.1778
6139.768, 719.4436
6141.697, 719.4755
6143.625, 721.4073
6145.554, 716.6824
6147.482, 718.7601
6149.411, 712.2680
6151.339, 718.1354
6153.268, 719.4500
6155.196, 716.7463
6157.125, 709.9042
6159.053, 705.7341
6160.981, 703.1939
6162.910, 702.9492
6164.838, 700.2569
6166.767, 700.8930
6168.695, 698.6659
6170.624, 699.8328
6172.552, 701.4866
6174.480, 700.3324
6176.409, 696.3669
6178.337, 701.9926
6180.266, 699.9643
6182.194, 693.6109
6184.123, 690.1559
6186.051, 690.7571
6187.980, 686.5306
6189.908, 685.7520
6191.837, 684.7581
6193.765, 688.0056
6195.694, 691.5101
6197.622, 686.7383
6199.551, 680.8875
6201.479, 678.7523
6203.408, 681.5082
6205.336, 683.8075
6207.265, 680.9949
6209.193, 673.8160
6211.122, 673.7390
6213.050, 673.1942
6214.979, 677.9261
6216.907, 681.1609
6218.835, 674.0167
6220.764, 675.0811
6222.692, 669.0465
6224.621, 669.5414
6226.549, 673.8989
6228.478, 677.0174
6230.406, 677.8829
6232.334, 672.5837
6234.263, 666.6469
6236.191, 661.8347
6238.120, 659.1930
6240.048, 657.9401
6241.977, 653.8271
6243.905, 666.9379
6245.834, 659.2994
6247.762, 661.0696
6249.691, 667.3663
6251.619, 657.7269
6253.548, 655.1748
6255.476, 654.5900
6257.405, 650.9023
6259.333, 655.7825
6261.262, 651.4693
6263.190, 656.7506
6265.119, 647.6788
6267.047, 646.7043
6268.976, 646.4622
6270.904, 646.4496
6272.833, 646.7345
6274.761, 645.3881
6276.689, 640.8754
6278.618, 635.1403
6280.546, 635.2877
6282.475, 638.4343
6284.403, 639.4897
6286.332, 636.2109
6288.260, 631.6083
6290.188, 631.3309
6292.117, 631.7323
6294.045, 633.9802
6295.974, 636.4798
6297.902, 633.6445
6299.831, 629.3022
6301.759, 623.4179
6303.688, 618.6122
6305.616, 618.3989
6307.545, 620.4741
6309.473, 618.1105
6311.402, 618.2128
6313.330, 621.8495
6315.259, 622.4350
6317.187, 619.2072
6319.116, 614.8665
6321.044, 612.0278
6322.973, 607.0858
6324.901, 614.0632
6326.830, 611.5114
6328.758, 608.4274
6330.687, 609.7070
6332.615, 608.4767
6334.543, 607.4774
6336.472, 607.7142
6338.400, 606.0131
6340.329, 599.2753
6342.257, 603.3581
6344.186, 601.0522
6346.114, 599.3255
6348.042, 601.3187
6349.971, 604.5551
6351.899, 601.4742
6353.828, 594.0904
6355.756, 589.5703
6357.685, 592.3821
6359.613, 591.2517
6361.542, 589.9621
6363.470, 589.2486
6365.399, 587.6779
6367.327, 585.8922
6369.256, 586.0142
6371.184, 582.2678
6373.113, 578.9503
6375.041, 586.9967
6376.970, 584.4641
6378.898, 577.0793
6380.827, 583.0363
6382.755, 576.5285
6384.684, 578.6979
6386.612, 574.2781
6388.541, 574.7682
6390.469, 575.2094
6392.397, 571.5616
6394.326, 574.9650
6396.254, 571.4041
6398.183, 569.7885
6400.111, 569.5730
6402.040, 570.9379
6403.968, 571.3644
6405.896, 569.0333
6407.825, 569.1121
6409.753, 570.5891
6411.682, 564.4343
6413.610, 558.3596
6415.539, 557.8312
6417.467, 560.0275
6419.396, 558.4437
6421.324, 556.9848
6423.253, 556.1921
6425.181, 555.5234
6427.110, 553.9573
6429.038, 553.8427
6430.967, 551.4288
6432.895, 548.0101
6434.824, 547.1383
6436.752, 549.5721
6438.681, 550.6014
6440.609, 547.9417
6442.538, 545.7632
6444.466, 546.9940
6446.395, 544.9407
6448.323, 543.2354
6450.251, 544.0820
6452.180, 540.5043
6454.108, 537.8864
6456.037, 537.6920
6457.965, 536.0242
6459.894, 532.9684
6461.822, 535.5064
6463.750, 534.2219
6465.679, 531.6702
6467.607, 530.0413
6469.536, 530.6937
6471.464, 533.3638
6473.393, 533.2703
6475.321, 529.8132
6477.250, 523.7372
6479.178, 519.8717
6481.107, 520.0753
6483.035, 522.8957
6484.964, 524.5968
6486.892, 524.0187
6488.821, 523.6198
6490.749, 522.9620
6492.678, 521.9930
6494.606, 518.7902
6496.535, 519.6229
6498.463, 518.5916
6500.392, 516.9484
6502.320, 512.5504
6504.249, 513.8549
6506.177, 511.5345
6508.105, 513.3194
6510.034, 514.3110
6511.962, 510.6904
6513.891, 510.8188
6515.819, 512.5543
6517.748, 507.5746
6519.676, 506.8136
6521.604, 505.0792
6523.533, 501.5679
6525.461, 500.6389
6527.390, 499.3800
6529.318, 498.4763
6531.247, 499.1063
6533.175, 498.3446
6535.104, 500.2225
6537.032, 500.7390
6538.961, 497.7914
6540.889, 493.3986
6542.818, 492.5068
6544.746, 493.6756
6546.675, 494.6209
6548.603, 494.4066
6550.532, 491.0824
6552.460, 489.6274
6554.389, 488.2449
6556.317, 484.4326
6558.246, 487.8510
6560.174, 485.4860
6562.103, 488.1459
6564.031, 488.4664
6565.959, 486.9314
6567.888, 484.3272
6569.816, 481.1669
6571.745, 479.1300
6573.673, 480.3319
6575.602, 476.3671
6577.530, 474.6085
6579.458, 475.2262
6581.387, 472.1551
6583.315, 472.2018
6585.244, 476.3235
6587.172, 474.4354
6589.101, 476.4012
6591.029, 476.0015
6592.958, 475.9751
6594.886, 475.0480
6596.815, 470.2299
6598.743, 470.7473
6600.672, 468.0070
6602.600, 471.0707
6604.529, 466.1576
6606.457, 465.7256
6608.386, 468.6630
6610.314, 463.7007
6612.243, 465.6108
6614.171, 467.4842
6616.100, 465.6909
6618.028, 468.3618
6619.957, 471.0724
6621.885, 470.9844
6623.813, 466.5769
6625.742, 460.2557
6627.670, 459.4369
6629.599, 458.7294
##END=



