##NAMES=Nickelskutterudite
##RRUFFID=R100194
##IDEAL CHEMISTRY=NiAs_3_
##LOCALITY=Schneeberg, Saxony, Germany
##OWNER=RRUFF
##SOURCE=University of Arizona Mineral Museum
##DESCRIPTION=Silver euhedral twinned crystals, roughly dodecahedral
##STATUS=The identification of this mineral is confirmed by single-crystal X-ray diffraction and chemical analysis
##URL=https://www.rruff.net/odr/rruff_sample/R100194
##MEASURED CHEMISTRY=(Ni_0.69_Co_0.26_Fe_0.06_)(As_2.95_S_0.04_Bi_0.01_) ; Dark Band   (Ni_0.86_Co_0.14_Fe_0.01_)(As_2.99_S_0.01_)  Light Band
##DIFFRACTION SAMPLE DESCRIPTION=Single crystal, powder profile is calculated
##CELL PARAMETERS=a: 8.2876 b: 8.2876 c: 8.2876 alpha: 90 beta: 90 gamma: 90 volume: 569.2 crystal system: cubic
##FILETYPE=Raman RAW
##RAMAN WAVELENGTH=780

157.1868, 116.7002
159.1152, 115.7810
161.0437, 115.9568
162.9722, 117.7805
164.9006, 120.1014
166.8291, 122.8833
168.7576, 125.9585
170.6860, 129.6048
172.6145, 133.6011
174.5430, 136.1377
176.4714, 136.5443
178.3999, 136.1037
180.3284, 133.9664
182.2568, 131.8730
184.1853, 130.7599
186.1138, 130.6165
188.0422, 131.6572
189.9707, 134.5718
191.8992, 137.4424
193.8276, 141.0411
195.7561, 143.6938
197.6846, 144.6178
199.6130, 144.0574
201.5415, 141.9164
203.4700, 137.6448
205.3984, 134.0047
207.3269, 130.8918
209.2554, 128.4834
211.1838, 126.8952
213.1123, 126.0355
215.0408, 126.1939
216.9692, 127.2603
218.8977, 127.2477
220.8262, 126.0271
222.7546, 124.2435
224.6831, 121.8299
226.6116, 119.0785
228.5400, 115.9942
230.4685, 112.7808
232.3970, 109.7882
234.3254, 106.9572
236.2539, 104.8899
238.1824, 103.8520
240.1108, 103.0336
242.0393, 102.3402
243.9678, 101.5221
245.8962, 100.1159
247.8247, 98.27921
249.7532, 97.33257
251.6816, 97.40440
253.6101, 97.45164
255.5386, 97.26382
257.4670, 96.95383
259.3955, 96.44494
261.3240, 95.91495
263.2524, 95.70306
265.1809, 95.78590
267.1094, 95.79756
269.0378, 95.68945
270.9663, 95.59222
272.8948, 95.51452
274.8232, 95.49758
276.7517, 95.52602
278.6802, 95.64966
280.6086, 96.08719
282.5371, 96.83611
284.4656, 97.25601
286.3940, 97.17341
288.3225, 96.83488
290.2510, 96.17577
292.1794, 95.42097
294.1079, 94.71629
296.0364, 94.08346
297.9648, 93.50855
299.8933, 92.94111
301.8218, 92.81795
303.7502, 93.98624
305.6787, 94.60540
307.6072, 93.74516
309.5356, 92.42375
311.4641, 91.53194
313.3926, 91.03425
315.3210, 91.01131
317.2495, 91.69777
319.1780, 92.00221
321.1064, 91.47020
323.0349, 91.00472
324.9634, 91.12394
326.8918, 91.27815
328.8203, 90.84180
330.7488, 89.98716
332.6772, 89.36735
334.6057, 89.16325
336.5342, 88.81004
338.4626, 87.95025
340.3911, 87.38988
342.3196, 87.70305
344.2480, 88.17538
346.1765, 88.22427
348.1050, 87.91128
350.0334, 87.51195
351.9619, 86.87388
353.8904, 86.55111
355.8188, 86.98214
357.7473, 87.01279
359.6758, 85.69592
361.6042, 84.45136
363.5327, 84.48515
365.4612, 85.38435
367.3896, 85.91405
369.3181, 85.98755
371.2466, 85.96798
373.1750, 85.72739
375.1035, 85.69082
377.0320, 86.30641
378.9604, 86.72930
380.8889, 86.36653
382.8174, 85.53674
384.7458, 84.67252
386.6743, 83.76306
388.6028, 83.55307
390.5313, 84.30745
392.4597, 84.62488
394.3882, 83.89575
396.3167, 83.17761
398.2451, 82.92319
400.1736, 82.94893
402.1021, 83.20212
404.0305, 83.59543
405.9590, 83.63189
407.8875, 83.30219
409.8159, 82.99480
411.7444, 82.78466
413.6729, 82.54292
415.6013, 82.27075
417.5298, 81.89754
419.4583, 81.09232
421.3867, 80.27981
423.3152, 80.46696
425.2437, 81.45900
427.1721, 81.98185
429.1006, 81.93823
431.0291, 81.61083
432.9575, 80.61382
434.8860, 80.00932
436.8145, 80.51208
438.7429, 81.17873
440.6714, 81.18779
442.5999, 80.74960
444.5283, 80.31232
446.4568, 79.88161
448.3853, 79.51641
450.3137, 79.20621
452.2422, 79.00734
454.1707, 78.90882
456.0991, 78.93172
458.0276, 79.22926
459.9561, 79.52536
461.8845, 78.98692
463.8130, 79.50612
465.7415, 79.73239
467.6699, 79.68170
469.5984, 78.51276
471.5269, 78.79673
473.4553, 78.50391
475.3838, 78.19117
477.3123, 78.69078
479.2407, 77.70457
481.1692, 78.19916
483.0977, 78.10810
485.0261, 78.29076
486.9546, 77.89305
488.8831, 77.67970
490.8115, 78.05473
492.7400, 78.11002
494.6685, 77.66064
496.5969, 77.88387
498.5254, 76.91624
500.4539, 77.00092
502.3823, 77.54185
504.3108, 77.14136
506.2393, 77.39477
508.1677, 77.40452
510.0962, 76.29314
512.0247, 77.14220
513.9531, 77.14903
515.8816, 76.29095
517.8101, 77.08469
519.7385, 76.35418
521.6670, 76.17303
523.5955, 76.40627
525.5239, 76.21548
527.4524, 76.70327
529.3809, 76.54500
531.3093, 76.33257
533.2378, 76.37745
535.1663, 76.19253
537.0947, 76.37494
539.0232, 76.13562
540.9517, 76.35256
542.8801, 76.67594
544.8086, 76.21812
546.7371, 76.59537
548.6655, 75.68758
550.5940, 75.86218
552.5225, 75.92456
554.4509, 76.68020
556.3794, 75.79429
558.3079, 75.95454
560.2363, 76.56247
562.1648, 76.55335
564.0933, 76.80775
566.0217, 76.29747
567.9502, 76.51312
569.8787, 76.53365
571.8071, 77.24580
573.7356, 77.41893
575.6641, 76.94119
577.5925, 76.47013
579.5210, 77.24738
581.4495, 76.84906
583.3779, 77.09096
585.3064, 76.67957
587.2349, 76.83952
589.1633, 76.99436
591.0918, 77.44398
593.0203, 77.01550
594.9487, 77.45245
596.8772, 77.97250
598.8057, 78.24020
600.7341, 77.48528
602.6626, 76.66119
604.5911, 76.71925
606.5195, 77.18105
608.4480, 77.32741
610.3765, 77.24071
612.3049, 77.19351
614.2334, 77.19089
616.1619, 77.30921
618.0903, 77.59938
620.0188, 77.91537
621.9473, 78.38382
623.8757, 78.66322
625.8042, 78.39693
627.7327, 78.27197
629.6611, 79.00591
631.5896, 79.68710
633.5181, 79.20379
635.4465, 79.82602
637.3750, 78.60692
639.3035, 79.72031
641.2319, 79.89938
643.1604, 78.90898
645.0889, 78.45386
647.0173, 78.74012
648.9458, 79.04028
650.8743, 79.34704
652.8027, 79.60965
654.7312, 79.79086
656.6597, 79.95930
658.5881, 80.10622
660.5166, 80.29812
662.4451, 80.51864
664.3735, 80.85409
666.3020, 81.61414
668.2305, 82.52361
670.1589, 82.76668
672.0874, 82.37991
674.0159, 81.94429
675.9443, 81.43246
677.8728, 81.20846
679.8013, 81.32813
681.7297, 81.52995
683.6582, 81.75240
685.5867, 82.09007
687.5151, 82.80200
689.4436, 83.25064
691.3721, 83.01238
693.3005, 82.61828
695.2290, 82.39961
697.1575, 82.25338
699.0859, 81.91855
701.0144, 81.62617
702.9429, 82.10147
704.8713, 83.10049
706.7998, 83.38638
708.7283, 83.00669
710.6567, 82.50092
712.5852, 81.84273
714.5137, 81.90577
716.4421, 83.14237
718.3706, 84.06580
720.2991, 84.16135
722.2275, 84.20693
724.1560, 84.25467
726.0845, 84.48446
728.0129, 85.32029
729.9414, 85.97853
731.8699, 85.67992
733.7983, 85.04591
735.7268, 84.67314
737.6553, 84.54723
739.5837, 84.78350
741.5122, 85.19576
743.4407, 85.14026
745.3691, 84.67962
747.2976, 84.62329
749.2261, 85.06628
751.1545, 85.46263
753.0830, 85.69279
755.0115, 86.08215
756.9399, 86.72839
758.8684, 87.38598
760.7969, 88.31190
762.7253, 88.79967
764.6538, 88.26981
766.5823, 87.77956
768.5107, 87.94907
770.4392, 88.19925
772.3677, 87.85232
774.2961, 87.67737
776.2246, 88.67989
778.1531, 90.04734
780.0815, 90.55435
782.0100, 90.50266
783.9385, 90.75887
785.8669, 91.21681
787.7954, 91.01723
789.7239, 90.11365
791.6523, 89.89932
793.5808, 90.57068
795.5093, 90.96470
797.4377, 90.97196
799.3662, 91.20551
801.2947, 91.80013
803.2231, 92.32648
805.1516, 92.72573
807.0801, 92.95126
809.0085, 92.82780
810.9370, 92.88810
812.8655, 93.53828
814.7939, 94.15266
816.7224, 94.55238
818.6509, 94.67269
820.5793, 94.17546
822.5078, 93.69138
824.4363, 93.82314
826.3647, 94.28255
828.2932, 94.90512
830.2217, 95.46330
832.1501, 95.42899
834.0786, 95.01983
836.0071, 94.78655
837.9355, 94.72874
839.8640, 94.95215
841.7925, 95.35917
843.7209, 95.26371
845.6494, 94.66556
847.5779, 93.87116
849.5063, 92.87197
851.4348, 92.65950
853.3633, 93.50426
855.2917, 94.14298
857.2202, 94.51042
859.1487, 94.29349
861.0771, 93.14307
863.0056, 91.99495
864.9341, 90.68993
866.8625, 89.91428
868.7910, 90.22933
870.7195, 90.46196
872.6479, 90.31419
874.5764, 89.86452
876.5049, 88.86215
878.4333, 87.94975
880.3618, 87.65742
882.2903, 87.41271
884.2188, 86.73313
886.1472, 85.97663
888.0757, 85.49400
890.0042, 85.07231
891.9326, 84.17396
893.8611, 83.46696
895.7896, 84.40536
897.7180, 83.26873
899.6465, 84.70747
901.5750, 82.54203
903.5034, 81.81900
905.4319, 82.10202
907.3604, 81.93994
909.2888, 81.40774
911.2173, 80.82988
913.1458, 80.23730
915.0742, 80.14275
917.0027, 80.54544
918.9312, 80.23916
920.8596, 79.14163
922.7881, 78.29625
924.7166, 77.67286
926.6450, 77.69096
928.5735, 78.55113
930.5020, 78.56201
932.4304, 77.48489
934.3589, 76.78074
936.2874, 76.60671
938.2158, 76.55509
940.1443, 76.56916
942.0728, 76.79012
944.0012, 77.33702
945.9297, 77.59372
947.8582, 77.41761
949.7866, 77.00779
951.7151, 76.24968
953.6436, 75.82199
955.5720, 75.90651
957.5005, 76.36230
959.4290, 77.67058
961.3574, 78.08755
963.2859, 76.38979
965.2144, 75.11567
967.1428, 75.44986
969.0713, 75.62186
970.9998, 74.64724
972.9282, 74.17899
974.8567, 75.42001
976.7852, 76.25733
978.7136, 75.55950
980.6421, 74.77483
982.5706, 74.23280
984.4990, 74.17781
986.4275, 75.23547
988.3560, 76.08341
990.2844, 75.93118
992.2129, 75.52418
994.1414, 75.11890
996.0698, 74.81512
997.9983, 74.60271
999.9268, 74.60257
1001.855, 75.06743
1003.784, 75.52591
1005.712, 75.76447
1007.641, 75.74261
1009.569, 75.18777
1011.498, 74.67818
1013.426, 74.67500
1015.354, 74.81734
1017.283, 74.81862
1019.211, 74.90634
1021.140, 75.43127
1023.068, 75.87615
1024.997, 75.82804
1026.925, 75.58340
1028.854, 75.18160
1030.782, 74.90838
1032.711, 75.10276
1034.639, 75.34714
1036.568, 75.43978
1038.496, 75.31554
1040.425, 74.75930
1042.353, 74.18391
1044.281, 73.81097
1046.210, 73.62676
1048.138, 73.82597
1050.067, 73.94912
1051.995, 73.46111
1053.924, 73.05977
1055.852, 73.37218
1057.781, 73.72700
1059.709, 73.63258
1061.638, 73.49802
1063.566, 73.73980
1065.495, 73.82858
1067.423, 73.25281
1069.352, 72.69041
1071.280, 72.58784
1073.208, 72.54762
1075.137, 72.44710
1077.065, 72.19624
1078.994, 71.48740
1080.922, 70.98635
1082.851, 71.23029
1084.779, 71.44331
1086.708, 71.21748
1088.636, 70.97573
1090.565, 70.86559
1092.493, 70.82468
1094.422, 70.91396
1096.350, 70.93008
1098.279, 70.90823
1100.207, 70.62309
1102.135, 69.55547
1104.064, 68.97420
1105.992, 69.59256
1107.921, 70.05867
1109.849, 69.95261
1111.778, 69.90431
1113.706, 70.09313
1115.635, 70.21946
1117.563, 70.29023
1119.492, 70.19986
1121.420, 70.23562
1123.349, 70.21254
1125.277, 69.95473
1127.206, 69.98936
1129.134, 69.45480
1131.063, 68.91438
1132.991, 68.15400
1134.919, 68.18864
1136.848, 69.45721
1138.776, 69.85164
1140.705, 69.14554
1142.633, 68.67828
1144.562, 68.45039
1146.490, 68.55872
1148.419, 69.01702
1150.347, 69.13723
1152.276, 68.94579
1154.204, 68.64419
1156.133, 68.31968
1158.061, 68.73933
1159.990, 68.38441
1161.918, 69.29330
1163.846, 68.45506
1165.775, 68.52090
1167.703, 69.11046
1169.632, 69.67017
1171.560, 70.03781
1173.489, 69.69587
1175.417, 69.28462
1177.346, 69.84708
1179.274, 70.47515
1181.203, 70.03597
1183.131, 69.54824
1185.060, 69.97927
1186.988, 70.42843
1188.917, 70.40739
1190.845, 70.12351
1192.773, 69.33214
1194.702, 68.86270
1196.630, 69.15931
1198.559, 69.50978
1200.487, 69.88944
1202.416, 69.79942
1204.344, 68.83206
1206.273, 68.49474
1208.201, 69.21887
1210.130, 69.61296
1212.058, 69.41804
1213.987, 69.82796
1215.915, 70.97427
1217.844, 71.35067
1219.772, 70.92377
1221.700, 70.67100
1223.629, 70.61062
1225.557, 70.58781
1227.486, 70.57648
1229.414, 70.57430
1231.343, 70.50610
1233.271, 70.11234
1235.200, 69.61805
1237.128, 69.36401
1239.057, 69.24194
1240.985, 69.05791
1242.914, 69.02371
1244.842, 69.54611
1246.771, 69.97547
1248.699, 69.69984
1250.627, 69.47273
1252.556, 69.85393
1254.484, 70.02781
1256.413, 69.59200
1258.341, 69.17487
1260.270, 68.74565
1262.198, 68.82772
1264.127, 68.83758
1266.055, 69.00564
1267.984, 69.55043
1269.912, 69.59924
1271.841, 70.39163
1273.769, 70.61727
1275.698, 70.38610
1277.626, 70.76075
1279.554, 70.64554
1281.483, 71.19755
1283.411, 70.53684
1285.340, 69.97571
1287.268, 69.76603
1289.197, 70.44919
1291.125, 71.33025
1293.054, 72.06890
1294.982, 72.45613
1296.911, 72.01212
1298.839, 71.99629
1300.768, 73.08872
1302.696, 73.86887
1304.625, 73.91185
1306.553, 74.06216
1308.481, 74.48402
1310.410, 74.63148
1312.338, 74.46060
1314.267, 74.09916
1316.195, 73.65536
1318.124, 73.75573
1320.052, 74.27082
1321.981, 75.04836
1323.909, 75.67725
1325.838, 75.12817
1327.766, 74.36861
1329.695, 74.55391
1331.623, 74.93182
1333.552, 75.06350
1335.480, 75.02244
1337.408, 74.60306
1339.337, 74.46215
1341.265, 75.02106
1343.194, 75.33237
1345.122, 75.21854
1347.051, 75.33473
1348.979, 75.74294
1350.908, 75.52110
1352.836, 74.80329
1354.765, 74.80156
1356.693, 75.23723
1358.622, 75.44942
1360.550, 75.42943
1362.479, 74.92521
1364.407, 74.53468
1366.335, 74.92113
1368.264, 75.31973
1370.192, 75.41572
1372.121, 75.20055
1374.049, 74.50565
1375.978, 73.93806
1377.906, 73.52574
1379.835, 73.64771
1381.763, 73.37038
1383.692, 74.34811
1385.620, 73.65874
1387.549, 73.99958
1389.477, 74.83700
1391.406, 74.81535
1393.334, 74.55086
1395.262, 74.76149
1397.191, 75.14841
1399.119, 75.67647
1401.048, 75.97461
1402.976, 75.81230
1404.905, 75.74833
1406.833, 75.95782
1408.762, 75.77847
1410.690, 75.14221
1412.619, 75.67072
1414.547, 75.37234
1416.476, 76.76599
1418.404, 75.62885
1420.333, 75.95118
1422.261, 76.55479
1424.189, 75.88563
1426.118, 75.01875
1428.046, 74.56126
1429.975, 74.32337
1431.903, 74.19841
1433.832, 74.45303
1435.760, 75.21110
1437.689, 75.67225
1439.617, 75.79675
1441.546, 75.79171
1443.474, 75.71725
1445.403, 75.76364
1447.331, 75.79808
1449.260, 75.46578
1451.188, 75.24015
1453.116, 75.53061
1455.045, 76.01977
1456.973, 76.94832
1458.902, 77.25520
1460.830, 76.50643
1462.759, 75.78875
1464.687, 75.11424
1466.616, 74.78060
1468.544, 74.80163
1470.473, 75.48755
1472.401, 76.27637
1474.330, 76.30698
1476.258, 75.98555
1478.187, 75.28547
1480.115, 74.99351
1482.043, 75.74995
1483.972, 75.97430
1485.900, 75.22926
1487.829, 74.44900
1489.757, 73.67870
1491.686, 73.32628
1493.614, 73.29694
1495.543, 73.29186
1497.471, 73.45342
1499.400, 74.24245
1501.328, 74.78002
1503.257, 74.41618
1505.185, 74.35105
1507.114, 75.02366
1509.042, 75.23817
1510.970, 74.83979
1512.899, 74.19246
1514.827, 73.48200
1516.756, 73.44968
1518.684, 73.69876
1520.613, 73.48592
1522.541, 73.46370
1524.470, 74.47800
1526.398, 75.09222
1528.327, 74.91622
1530.255, 74.27492
1532.184, 73.23872
1534.112, 73.26191
1536.041, 74.06726
1537.969, 74.30267
1539.897, 74.22967
1541.826, 74.11687
1543.754, 74.08241
1545.683, 74.26392
1547.611, 74.43876
1549.540, 74.51016
1551.468, 74.74003
1553.397, 75.14610
1555.325, 74.47219
1557.254, 74.54601
1559.182, 73.37410
1561.111, 73.91300
1563.039, 73.54030
1564.968, 73.18684
1566.896, 73.61225
1568.824, 73.76247
1570.753, 73.08969
1572.681, 72.87941
1574.610, 73.12264
1576.538, 73.67891
1578.467, 74.26643
1580.395, 74.29945
1582.324, 73.86362
1584.252, 72.56709
1586.181, 71.94907
1588.109, 72.90779
1590.038, 73.51070
1591.966, 73.39185
1593.895, 73.75874
1595.823, 74.28788
1597.751, 73.33189
1599.680, 72.03936
1601.608, 71.91602
1603.537, 72.00599
1605.465, 71.86510
1607.394, 71.99209
1609.322, 72.52041
1611.251, 72.77554
1613.179, 72.76085
1615.108, 72.68454
1617.036, 72.65769
1618.965, 73.14220
1620.893, 73.28239
1622.822, 72.32327
1624.750, 71.49868
1626.678, 71.00942
1628.607, 71.14315
1630.535, 71.78298
1632.464, 72.36868
1634.392, 72.63581
1636.321, 71.92355
1638.249, 71.11921
1640.178, 70.76322
1642.106, 70.58647
1644.035, 70.51497
1645.963, 71.01357
1647.892, 71.91628
1649.820, 72.16445
1651.749, 72.09216
1653.677, 72.08974
1655.605, 72.16868
1657.534, 72.55360
1659.462, 72.51084
1661.391, 71.85335
1663.319, 71.24981
1665.248, 70.74482
1667.176, 70.36851
1669.105, 70.29933
1671.033, 71.11760
1672.962, 71.56158
1674.890, 70.70412
1676.819, 70.22114
1678.747, 70.32205
1680.676, 70.66208
1682.604, 71.09989
1684.532, 71.09698
1686.461, 71.14948
1688.389, 71.91543
1690.318, 72.10192
1692.246, 71.07205
1694.175, 70.80705
1696.103, 71.29600
1698.032, 70.20654
1699.960, 70.33796
1701.889, 69.20138
1703.817, 69.94650
1705.746, 70.29737
1707.674, 70.36986
1709.603, 70.76037
1711.531, 70.42888
1713.459, 70.87659
1715.388, 70.60445
1717.316, 70.18497
1719.245, 70.16897
1721.173, 70.24683
1723.102, 70.44019
1725.030, 69.46232
1726.959, 67.71581
1728.887, 68.02885
1730.816, 69.35735
1732.744, 71.03421
1734.673, 71.69028
1736.601, 70.27078
1738.530, 69.32333
1740.458, 69.03149
1742.386, 68.63943
1744.315, 68.21963
1746.243, 67.68347
1748.172, 67.65580
1750.100, 69.24544
1752.029, 69.72914
1753.957, 68.71542
1755.886, 67.94652
1757.814, 67.45008
1759.743, 67.12247
1761.671, 67.07211
1763.600, 67.55167
1765.528, 67.99790
1767.457, 68.38000
1769.385, 68.21267
1771.313, 67.64875
1773.242, 67.05001
1775.170, 66.66209
1777.099, 66.77493
1779.027, 66.87222
1780.956, 66.82713
1782.884, 66.51437
1784.813, 66.74940
1786.741, 66.45711
1788.670, 66.91787
1790.598, 67.02973
1792.527, 66.94270
1794.455, 66.66471
1796.384, 66.55647
1798.312, 66.61575
1800.240, 66.82081
1802.169, 67.10695
1804.097, 67.62527
1806.026, 67.49815
1807.954, 67.45206
1809.883, 66.38237
1811.811, 66.81353
1813.740, 66.31355
1815.668, 65.80293
1817.597, 66.23493
1819.525, 66.16175
1821.454, 66.31155
1823.382, 65.72750
1825.311, 66.69316
1827.239, 67.19621
1829.167, 67.19254
1831.096, 66.42270
1833.024, 65.57107
1834.953, 64.73219
1836.881, 64.32772
1838.810, 64.33840
1840.738, 65.01008
1842.667, 65.47704
1844.595, 65.02949
1846.524, 65.02572
1848.452, 65.42657
1850.381, 65.56499
1852.309, 65.34437
1854.238, 64.39439
1856.166, 63.64247
1858.094, 63.54541
1860.023, 63.22123
1861.951, 62.78955
1863.880, 62.83427
1865.808, 62.91259
1867.737, 62.46328
1869.665, 62.82251
1871.594, 62.76888
1873.522, 62.79434
1875.451, 62.87597
1877.379, 62.64268
1879.308, 62.38261
1881.236, 62.56746
1883.165, 61.63016
1885.093, 62.56355
1887.021, 62.40781
1888.950, 61.84748
1890.878, 61.39140
1892.807, 61.32509
1894.735, 61.08215
1896.664, 61.54355
1898.592, 61.15993
1900.521, 61.82447
1902.449, 62.24735
1904.378, 61.72596
1906.306, 61.81334
1908.235, 62.39559
1910.163, 61.36647
1912.092, 60.14085
1914.020, 60.26950
1915.948, 60.80259
1917.877, 61.55157
1919.805, 61.32992
1921.734, 60.60471
1923.662, 60.28876
1925.591, 60.06250
1927.519, 59.70423
1929.448, 59.83665
1931.376, 60.29489
1933.305, 60.47720
1935.233, 60.12210
1937.162, 60.23101
1939.090, 59.97350
1941.019, 59.71470
1942.947, 59.79706
1944.875, 59.27517
1946.804, 59.86803
1948.732, 59.99804
1950.661, 58.75248
1952.589, 58.92997
1954.518, 59.77787
1956.446, 59.43008
1958.375, 58.78588
1960.303, 58.14941
1962.232, 57.83518
1964.160, 57.77008
1966.089, 57.38103
1968.017, 57.31952
1969.946, 58.21823
1971.874, 58.64141
1973.802, 58.37691
1975.731, 57.73397
1977.659, 57.24273
1979.588, 57.74620
1981.516, 57.57939
1983.445, 56.40588
1985.373, 56.34497
1987.302, 56.86799
1989.230, 57.34079
1991.159, 57.32582
1993.087, 57.35671
1995.016, 56.63907
1996.944, 56.86224
1998.873, 56.48483
2000.801, 56.11762
2002.729, 55.97939
2004.658, 56.13862
2006.586, 56.26716
2008.515, 55.22147
2010.443, 54.36076
2012.372, 54.40915
2014.300, 55.03785
2016.229, 55.85929
2018.157, 55.46028
2020.086, 55.09790
2022.014, 55.97403
2023.943, 56.16818
2025.871, 55.67725
2027.800, 54.74001
2029.728, 54.00460
2031.656, 54.00484
2033.585, 54.22523
2035.513, 54.59517
2037.442, 55.18712
2039.370, 55.54942
2041.299, 55.22939
2043.227, 54.93917
2045.156, 54.73070
2047.084, 54.25252
2049.013, 53.74103
2050.941, 53.23417
2052.870, 53.51392
2054.798, 53.06356
2056.727, 53.73211
2058.655, 52.96761
2060.583, 53.31644
2062.512, 53.74978
2064.440, 54.03046
2066.369, 53.66902
2068.297, 53.09434
2070.226, 52.53308
2072.154, 52.39033
2074.083, 52.64009
2076.011, 52.91729
2077.940, 52.95047
2079.868, 52.47232
2081.797, 52.24595
2083.725, 52.22736
2085.654, 51.67842
2087.582, 51.37726
2089.510, 51.94091
2091.439, 52.06331
2093.367, 51.68333
2095.296, 50.77103
2097.224, 50.23413
2099.153, 50.66837
2101.081, 50.70880
2103.010, 50.48792
2104.938, 50.51464
2106.867, 50.59357
2108.795, 50.58941
2110.724, 51.26929
2112.652, 52.01174
2114.581, 51.69807
2116.509, 51.04664
2118.438, 50.14897
2120.366, 50.84998
2122.294, 51.65985
2124.223, 50.38488
2126.151, 49.48545
2128.080, 49.46592
2130.008, 50.32191
2131.937, 50.98148
2133.865, 50.34931
2135.794, 50.12104
2137.722, 50.29681
2139.651, 48.73121
2141.579, 47.71351
2143.508, 48.76002
2145.436, 49.40868
2147.365, 49.54616
2149.293, 49.56478
2151.221, 49.06817
2153.150, 47.86058
2155.078, 47.65466
2157.007, 47.94050
2158.935, 47.69580
2160.864, 47.70263
2162.792, 48.06145
2164.721, 47.76237
2166.649, 47.42962
2168.578, 47.93864
2170.506, 47.51863
2172.435, 46.54979
2174.363, 48.06598
2176.292, 49.14768
2178.220, 48.02179
2180.148, 47.29443
2182.077, 47.04757
2184.005, 47.08684
2185.934, 47.39960
2187.862, 46.92681
2189.791, 47.29981
2191.719, 46.34164
2193.648, 46.03349
2195.576, 45.95105
2197.505, 46.01260
2199.433, 46.23019
2201.362, 46.33910
2203.290, 46.51228
2205.219, 46.28315
2207.147, 46.82711
2209.075, 46.73472
2211.004, 46.77505
2212.932, 47.15323
2214.861, 45.61885
2216.789, 44.16296
2218.718, 44.53588
2220.646, 44.50936
2222.575, 44.21175
2224.503, 45.30000
2226.432, 46.04634
2228.360, 45.79060
2230.289, 45.36726
2232.217, 45.05758
2234.146, 44.88724
2236.074, 44.59063
2238.002, 44.60216
2239.931, 44.27922
2241.859, 44.16318
2243.788, 44.22821
2245.716, 44.65802
2247.645, 45.18267
2249.573, 45.43445
2251.502, 45.48505
2253.430, 45.29265
2255.359, 45.26128
2257.287, 44.94640
2259.216, 44.59205
2261.144, 44.26455
2263.073, 43.33700
2265.001, 42.99396
2266.929, 43.00086
2268.858, 43.24147
2270.786, 43.35234
2272.715, 43.48601
2274.643, 43.25707
2276.572, 43.11574
2278.500, 42.61831
2280.429, 42.41795
2282.357, 42.05343
2284.286, 41.50148
2286.214, 42.87504
2288.143, 43.76182
2290.071, 42.33549
2292.000, 42.09032
2293.928, 42.39334
2295.856, 42.26077
2297.785, 42.10732
2299.713, 41.91256
2301.642, 40.67490
2303.570, 40.03196
2305.499, 40.76711
2307.427, 41.18290
2309.356, 41.48977
2311.284, 42.12896
2313.213, 41.80533
2315.141, 42.01948
2317.070, 41.35194
2318.998, 41.66636
2320.927, 41.40810
2322.855, 40.82544
2324.783, 40.54317
2326.712, 41.16040
2328.640, 40.74892
2330.569, 39.77149
2332.497, 39.01731
2334.426, 39.46505
2336.354, 40.88218
2338.283, 41.67676
2340.211, 41.29469
2342.140, 39.44934
2344.068, 39.35614
2345.997, 39.84800
2347.925, 39.52277
2349.854, 39.52244
2351.782, 39.51823
2353.710, 39.19088
2355.639, 37.74897
2357.567, 38.64380
2359.496, 38.09609
2361.424, 37.74835
2363.353, 38.92852
2365.281, 38.69805
2367.210, 38.11499
2369.138, 38.42157
2371.067, 38.35143
2372.995, 37.94862
2374.924, 37.56013
2376.852, 37.33265
2378.781, 37.31930
2380.709, 37.73185
2382.637, 38.19931
2384.566, 38.55038
2386.494, 38.61557
2388.423, 38.09079
2390.351, 36.50703
2392.280, 36.47899
2394.208, 37.41301
2396.137, 38.01167
2398.065, 38.21730
2399.994, 37.91867
2401.922, 36.35030
2403.851, 35.60775
2405.779, 36.16566
2407.708, 35.70975
2409.636, 35.56864
2411.564, 36.73040
2413.493, 35.59543
2415.421, 34.18986
2417.350, 35.70551
2419.278, 35.95285
2421.207, 35.42076
2423.135, 36.00707
2425.064, 36.01830
2426.992, 35.29863
2428.921, 35.70655
2430.849, 35.41047
2432.778, 35.54777
2434.706, 35.45433
2436.635, 35.04451
2438.563, 35.42631
2440.491, 34.44225
2442.420, 33.32056
2444.348, 33.16378
2446.277, 33.71077
2448.205, 34.29389
2450.134, 33.93375
2452.062, 33.62815
2453.991, 33.50461
2455.919, 33.56169
2457.848, 33.44862
2459.776, 33.25031
2461.705, 33.09552
2463.633, 32.95974
2465.562, 32.93324
2467.490, 32.98112
2469.418, 33.64098
2471.347, 33.33392
2473.275, 33.84121
2475.204, 33.00801
2477.132, 32.58916
2479.061, 32.13281
2480.989, 31.80682
2482.918, 31.89351
2484.846, 32.02719
2486.775, 32.21655
2488.703, 32.68656
2490.632, 32.74314
2492.560, 32.41353
2494.489, 31.92834
2496.417, 31.49705
2498.345, 31.21440
2500.274, 31.03279
2502.202, 30.91147
2504.131, 30.92289
2506.059, 30.89191
2507.988, 30.93536
2509.916, 30.94824
2511.845, 31.50423
2513.773, 31.76764
2515.702, 31.25770
2517.630, 30.20978
2519.559, 29.55153
2521.487, 29.98667
2523.416, 30.78007
2525.344, 31.20862
2527.272, 30.67943
2529.201, 30.35888
2531.129, 30.10738
2533.058, 29.67901
2534.986, 29.49978
2536.915, 29.71583
2538.843, 29.30086
2540.772, 30.21236
2542.700, 29.20340
2544.629, 29.21284
2546.557, 29.89721
2548.486, 30.46219
2550.414, 28.86290
2552.343, 28.63713
2554.271, 29.30780
2556.199, 28.18882
2558.128, 29.12145
2560.056, 28.79775
2561.985, 29.92460
2563.913, 28.96369
2565.842, 28.84347
2567.770, 29.53533
2569.699, 28.84531
2571.627, 27.30623
2573.556, 28.47282
2575.484, 28.45782
2577.413, 27.12814
2579.341, 27.24605
2581.270, 27.92505
2583.198, 28.59569
2585.126, 27.30422
2587.055, 26.61341
2588.983, 26.93596
2590.912, 26.80970
2592.840, 26.52087
2594.769, 26.18596
2596.697, 25.97872
2598.626, 26.00591
2600.554, 26.25475
2602.483, 26.81716
2604.411, 26.09704
2606.340, 24.20748
2608.268, 24.58692
2610.197, 24.83955
2612.125, 24.59593
2614.053, 25.72360
2615.982, 26.47818
2617.910, 26.43336
2619.839, 25.75477
2621.767, 25.50057
2623.696, 25.70170
2625.624, 25.30829
2627.553, 25.07854
2629.481, 25.09702
2631.410, 25.10500
2633.338, 24.65530
2635.267, 24.04582
2637.195, 24.32816
2639.124, 25.21810
2641.052, 26.00422
2642.980, 24.84821
2644.909, 24.37273
2646.837, 24.53429
2648.766, 24.24598
2650.694, 23.95017
2652.623, 23.89081
2654.551, 23.56429
2656.480, 23.08947
2658.408, 23.23770
2660.337, 22.30626
2662.265, 22.43661
2664.194, 22.76963
2666.122, 22.06641
2668.051, 22.29461
2669.979, 22.81986
2671.907, 22.86307
2673.836, 22.63111
2675.764, 22.45106
2677.693, 22.54534
2679.621, 22.76192
2681.550, 22.90557
2683.478, 22.88862
2685.407, 23.36413
2687.335, 23.33715
2689.264, 22.50481
2691.192, 22.65781
2693.121, 22.70135
2695.049, 22.31028
2696.978, 22.36970
2698.906, 21.91735
2700.834, 21.95309
2702.763, 21.39379
2704.691, 21.89663
2706.620, 22.14145
2708.548, 22.04120
2710.477, 21.38978
2712.405, 21.50737
2714.334, 20.75480
2716.262, 20.20693
2718.191, 19.98036
2720.119, 20.06346
2722.048, 20.55497
2723.976, 21.07200
2725.905, 21.28056
2727.833, 21.24233
2729.761, 20.71440
2731.690, 19.49870
2733.618, 19.92803
2735.547, 20.05108
2737.475, 19.27522
2739.404, 19.87408
2741.332, 19.71166
2743.261, 18.69311
2745.189, 18.54669
2747.118, 18.22585
2749.046, 18.03800
2750.975, 18.05923
2752.903, 18.09730
2754.832, 18.35889
2756.760, 18.38605
2758.688, 18.93695
2760.617, 18.92347
2762.545, 19.13890
2764.474, 18.48281
2766.402, 19.00160
2768.331, 18.62362
2770.259, 17.62329
2772.188, 17.62425
2774.116, 18.51324
2776.045, 19.15733
2777.973, 18.27025
2779.902, 17.05004
2781.830, 18.00692
2783.759, 17.83070
2785.687, 17.27958
2787.615, 17.27418
2789.544, 17.54506
2791.472, 18.00385
2793.401, 18.56323
2795.329, 18.16667
2797.258, 17.34606
2799.186, 16.57867
2801.115, 17.17286
2803.043, 16.73415
2804.972, 16.01941
2806.900, 16.74947
2808.829, 16.13729
2810.757, 15.64450
2812.686, 16.45344
2814.614, 16.63411
2816.542, 16.39780
2818.471, 15.97801
2820.399, 15.85884
2822.328, 15.70831
2824.256, 15.54300
2826.185, 15.70291
2828.113, 15.56678
2830.042, 15.83085
2831.970, 15.74106
2833.899, 15.91975
2835.827, 15.53482
2837.756, 15.52019
2839.684, 15.12492
2841.613, 15.75199
2843.541, 14.85539
2845.469, 14.56069
2847.398, 14.99853
2849.326, 15.43348
2851.255, 14.86034
2853.183, 14.58227
2855.112, 14.36008
2857.040, 14.10193
2858.969, 14.59640
2860.897, 14.52877
2862.826, 13.97972
2864.754, 13.84567
2866.683, 13.45739
2868.611, 13.36412
2870.540, 14.10106
2872.468, 14.66258
2874.396, 14.00567
2876.325, 14.20470
2878.253, 13.41208
2880.182, 13.69217
2882.110, 13.26978
2884.039, 13.43593
2885.967, 13.70382
2887.896, 13.33597
2889.824, 12.17488
2891.753, 12.58592
2893.681, 12.97127
2895.610, 13.00786
2897.538, 13.58553
2899.467, 12.23639
2901.395, 11.06385
2903.323, 12.38297
2905.252, 12.81784
2907.180, 12.90326
2909.109, 12.82010
2911.037, 12.05134
2912.966, 11.62074
2914.894, 11.54992
2916.823, 11.63158
2918.751, 12.04172
2920.680, 12.42576
2922.608, 12.57350
2924.537, 12.22928
2926.465, 12.02193
2928.394, 11.76560
2930.322, 11.83277
2932.250, 11.26231
2934.179, 11.92250
2936.107, 12.26319
2938.036, 11.96376
2939.964, 10.98540
2941.893, 10.26601
2943.821, 11.31540
2945.750, 12.26157
2947.678, 12.32586
2949.607, 11.42541
2951.535, 10.60711
2953.464, 10.63626
2955.392, 10.09769
2957.321, 10.15663
2959.249, 9.949903
2961.177, 10.09957
2963.106, 10.43011
2965.034, 10.18407
2966.963, 10.83504
2968.891, 10.07494
2970.820, 10.11288
2972.748, 10.30988
2974.677, 10.40867
2976.605, 10.40981
2978.534, 11.01215
2980.462, 10.61841
2982.391, 10.15208
2984.319, 11.13661
2986.248, 10.40705
2988.176, 9.633020
2990.104, 9.284210
2992.033, 8.781775
2993.961, 8.869608
2995.890, 9.083263
2997.818, 9.005270
2999.747, 8.793265
3001.675, 8.852116
3003.604, 9.041029
3005.532, 8.932014
3007.461, 9.013724
3009.389, 9.084160
3011.318, 7.962976
3013.246, 9.098800
3015.175, 8.957576
3017.103, 8.702992
3019.031, 9.916970
3020.960, 8.822306
3022.888, 8.410641
3024.817, 8.793979
3026.745, 7.580276
3028.674, 7.448485
3030.602, 7.666296
3032.531, 7.722030
3034.459, 8.023230
3036.388, 8.451519
3038.316, 8.418322
3040.245, 8.276903
3042.173, 7.265604
3044.102, 7.692612
3046.030, 8.049948
3047.958, 8.030027
3049.887, 8.584998
3051.815, 7.923810
3053.744, 7.626392
3055.672, 7.485886
3057.601, 7.335294
3059.529, 7.396745
3061.458, 7.534226
3063.386, 7.501076
3065.315, 7.817092
3067.243, 8.089731
3069.172, 7.532040
3071.100, 7.088111
3073.029, 7.440344
3074.957, 8.285048
3076.885, 8.192745
3078.814, 7.493932
3080.742, 6.415683
3082.671, 5.567477
3084.599, 7.649292
3086.528, 7.650929
3088.456, 6.815954
3090.385, 6.937076
3092.313, 6.707285
3094.242, 6.230618
3096.170, 6.024669
3098.099, 6.826469
3100.027, 7.460614
3101.956, 7.791892
3103.884, 7.522387
3105.813, 7.950085
3107.741, 6.301308
3109.669, 7.450797
3111.598, 8.036750
3113.526, 6.258071
3115.455, 6.926186
3117.383, 7.615145
3119.312, 6.796228
3121.240, 5.316289
3123.169, 4.574854
3125.097, 5.143158
3127.026, 6.786514
3128.954, 6.559097
3130.883, 6.884235
3132.811, 6.953467
3134.740, 5.982163
3136.668, 6.255067
3138.596, 6.196531
3140.525, 6.020236
3142.453, 6.262010
3144.382, 6.065798
3146.310, 6.056485
3148.239, 5.915528
3150.167, 6.106443
3152.096, 6.089313
3154.024, 6.498492
3155.953, 6.737961
3157.881, 5.425879
3159.810, 5.258639
3161.738, 6.222937
3163.667, 7.191281
3165.595, 6.508645
3167.523, 4.791188
3169.452, 4.829176
3171.380, 5.755317
3173.309, 4.740458
3175.237, 5.864576
3177.166, 6.527222
3179.094, 6.242293
3181.023, 5.896059
3182.951, 5.060692
3184.880, 4.084412
3186.808, 3.878371
3188.737, 5.592355
3190.665, 5.390195
3192.594, 5.088429
3194.522, 5.173938
3196.450, 5.263674
3198.379, 5.224017
3200.307, 5.264281
3202.236, 5.305447
3204.164, 5.329513
3206.093, 5.218405
3208.021, 5.151785
3209.950, 5.097229
3211.878, 4.874775
3213.807, 4.603101
3215.735, 4.432882
3217.664, 4.383476
3219.592, 4.635083
3221.521, 4.865206
3223.449, 5.231605
3225.377, 5.646571
3227.306, 5.958189
3229.234, 5.381989
3231.163, 5.628273
3233.091, 5.623698
3235.020, 5.116356
3236.948, 5.368523
3238.877, 4.583403
3240.805, 3.510377
3242.734, 2.878012
3244.662, 3.900933
3246.591, 3.660403
3248.519, 3.837760
3250.448, 4.515203
3252.376, 3.483050
3254.304, 2.910300
3256.233, 3.322819
3258.161, 4.126878
3260.090, 4.167830
3262.018, 3.758752
3263.947, 3.409206
3265.875, 3.078384
3267.804, 2.563216
3269.732, 2.172410
3271.661, 3.007921
3273.589, 3.564189
3275.518, 2.876575
3277.446, 4.281397
3279.375, 4.747297
3281.303, 4.353380
3283.231, 3.720936
3285.160, 3.673863
3287.088, 4.275356
3289.017, 4.492714
3290.945, 4.024001
3292.874, 3.143016
3294.802, 3.499148
3296.731, 3.708119
3298.659, 3.763066
3300.588, 4.049626
3302.516, 4.843745
3304.445, 3.899738
3306.373, 3.327525
3308.302, 3.998160
3310.230, 4.145458
3312.158, 4.399841
3314.087, 4.259812
3316.015, 3.949839
3317.944, 4.103078
3319.872, 3.666464
3321.801, 3.003746
3323.729, 3.300207
3325.658, 4.889062
3327.586, 3.833618
3329.515, 3.424167
3331.443, 2.677920
3333.372, 1.701389
3335.300, 2.225490
3337.229, 2.141189
3339.157, 2.823108
3341.085, 3.341620
3343.014, 2.687080
3344.942, 4.433593
3346.871, 3.585519
3348.799, 3.183151
3350.728, 3.699907
3352.656, 1.554444
3354.585, 3.264428
3356.513, 4.597490
3358.442, 4.525609
3360.370, 3.776807
3362.299, 3.491068
3364.227, 2.642971
3366.156, 2.384992
3368.084, 3.004413
3370.012, 3.809646
3371.941, 3.291537
3373.869, 3.117166
3375.798, 2.972880
3377.726, 2.406437
3379.655, 2.498160
3381.583, 2.321465
3383.512, 2.646676
3385.440, 2.305818
3387.369, 2.776733
3389.297, 2.882272
3391.226, 2.755625
3393.154, 2.908509
3395.083, 3.131178
3397.011, 1.754789
3398.939, 2.855540
3400.868, 2.252242
3402.796, 1.701458
3404.725, 3.778527
3406.653, 2.852494
3408.582, 2.815899
3410.510, 3.387827
3412.439, 3.560804
3414.367, 2.567866
3416.296, 3.712462
3418.224, 5.395303
3420.153, 5.499326
3422.081, 4.029524
3424.010, 3.822461
3425.938, 2.712982
3427.866, 2.346620
3429.795, 2.378891
3431.723, 2.180282
3433.652, 2.138440
3435.580, 1.945894
3437.509, 2.335540
3439.437, 2.826217
3441.366, 2.675230
3443.294, 2.057021
3445.223, 2.788615
3447.151, 1.997594
3449.080, 1.195520
3451.008, 3.558775
3452.937, 2.811193
3454.865, 2.271951
3456.793, 1.911120
3458.722, 1.718962
##END=



