##NAMES=Nickeline
##RRUFFID=R060906
##IDEAL CHEMISTRY=NiAs
##LOCALITY=Moose Horn mine, Timiskaming district, Ontario, Canada
##OWNER=RRUFF
##SOURCE=Royal Ontario Museum
##DESCRIPTION=Massive metallic lustered tarnished to dull copper color
##STATUS=The identification of this mineral has been confirmed by X-ray diffraction and chemical analysis
##URL=https://www.rruff.net/odr/rruff_sample/R060906
##MEASURED CHEMISTRY=Ni_1.00_(As_0.98_Sb_0.02_) ; trace amounts of Co and Fe
##DIFFRACTION SAMPLE DESCRIPTION=Powder
##CELL PARAMETERS=a: 3.62673 b: 3.62673 c: 5.03914 alpha: 90 beta: 90 gamma: 120 volume: 57.401 crystal system: hexagonal
##FILETYPE=Raman RAW
##RAMAN WAVELENGTH=785

125.3523, 1395.484
127.2808, 2155.246
129.2092, 2837.597
131.1377, 3347.263
133.0662, 3627.168
134.9946, 3477.814
136.9231, 2952.238
138.8516, 2605.968
140.7800, 2497.058
142.7085, 2535.085
144.6370, 2803.447
146.5654, 3095.000
148.4939, 3254.174
150.4224, 3285.927
152.3508, 3246.265
154.2793, 3117.393
156.2078, 3000.496
158.1362, 2922.135
160.0647, 2863.580
161.9932, 2837.281
163.9216, 2820.129
165.8501, 2755.354
167.7786, 2644.804
169.7070, 2536.687
171.6355, 2441.769
173.5640, 2345.920
175.4924, 2228.594
177.4209, 2119.123
179.3494, 2057.668
181.2778, 2036.553
183.2063, 2014.161
185.1348, 1987.926
187.0632, 1962.192
188.9917, 1934.764
190.9202, 1911.575
192.8486, 1898.319
194.7771, 1891.315
196.7056, 1881.631
198.6340, 1869.242
200.5625, 1858.810
202.4910, 1855.591
204.4194, 1846.920
206.3479, 1824.831
208.2764, 1799.072
210.2048, 1778.077
212.1333, 1761.985
214.0618, 1751.108
215.9902, 1745.830
217.9187, 1744.338
219.8472, 1753.528
221.7756, 1757.853
223.7041, 1746.498
225.6326, 1727.985
227.5610, 1715.909
229.4895, 1709.487
231.4180, 1704.367
233.3464, 1700.164
235.2749, 1696.897
237.2034, 1697.282
239.1318, 1695.632
241.0603, 1684.535
242.9888, 1669.738
244.9172, 1664.049
246.8457, 1667.547
248.7742, 1673.288
250.7026, 1682.632
252.6311, 1690.247
254.5596, 1694.513
256.4880, 1696.883
258.4165, 1698.103
260.3450, 1698.327
262.2734, 1697.483
264.2019, 1695.176
266.1304, 1695.486
268.0588, 1705.573
269.9873, 1709.546
271.9158, 1697.447
273.8442, 1682.685
275.7727, 1679.865
277.7012, 1684.248
279.6296, 1682.802
281.5581, 1674.064
283.4866, 1666.971
285.4150, 1664.383
287.3435, 1661.898
289.2720, 1655.707
291.2004, 1651.413
293.1289, 1656.360
295.0574, 1667.134
296.9858, 1675.430
298.9143, 1680.721
300.8428, 1685.526
302.7712, 1693.386
304.6997, 1696.330
306.6282, 1691.179
308.5566, 1681.616
310.4851, 1666.787
312.4136, 1651.009
314.3420, 1644.533
316.2705, 1648.409
318.1990, 1650.336
320.1274, 1645.379
322.0559, 1643.442
323.9844, 1649.067
325.9128, 1655.200
327.8413, 1652.283
329.7697, 1648.920
331.6982, 1662.285
333.6267, 1691.423
335.5551, 1710.653
337.4836, 1714.592
339.4121, 1713.816
341.3405, 1707.118
343.2690, 1699.629
345.1975, 1695.059
347.1259, 1690.379
349.0544, 1681.522
350.9829, 1669.492
352.9113, 1656.912
354.8398, 1640.888
356.7683, 1635.067
358.6967, 1650.622
360.6252, 1661.777
362.5537, 1656.457
364.4821, 1648.484
366.4106, 1649.363
368.3391, 1655.586
370.2675, 1661.993
372.1960, 1668.600
374.1245, 1672.755
376.0529, 1674.134
377.9814, 1673.199
379.9099, 1668.993
381.8383, 1663.804
383.7668, 1655.685
385.6953, 1649.521
387.6237, 1653.576
389.5522, 1663.505
391.4807, 1663.011
393.4091, 1647.223
395.3376, 1641.040
397.2661, 1658.662
399.1945, 1666.328
401.1230, 1648.702
403.0515, 1630.655
404.9799, 1626.231
406.9084, 1630.009
408.8369, 1637.295
410.7654, 1647.130
412.6938, 1654.343
414.6223, 1659.639
416.5508, 1659.693
418.4792, 1655.451
420.4077, 1645.311
422.3362, 1616.312
424.2646, 1595.431
426.1931, 1607.685
428.1216, 1632.041
430.0500, 1644.636
431.9785, 1646.435
433.9070, 1644.540
435.8354, 1636.496
437.7639, 1631.970
439.6924, 1635.053
441.6208, 1635.223
443.5493, 1627.405
445.4778, 1620.106
447.4062, 1615.591
449.3347, 1616.118
451.2632, 1629.969
453.1916, 1651.212
455.1201, 1650.859
457.0486, 1619.530
458.9770, 1604.691
460.9055, 1617.282
462.8340, 1625.121
464.7624, 1619.305
466.6909, 1615.976
468.6194, 1625.019
470.5478, 1636.722
472.4763, 1645.500
474.4048, 1650.643
476.3332, 1649.371
478.2617, 1641.520
480.1902, 1635.797
482.1186, 1631.280
484.0471, 1631.276
485.9756, 1639.010
487.9040, 1644.880
489.8325, 1646.453
491.7610, 1645.023
493.6894, 1642.249
495.6179, 1636.072
497.5464, 1620.077
499.4748, 1599.442
501.4033, 1591.752
503.3318, 1598.397
505.2602, 1608.198
507.1887, 1624.702
509.1172, 1634.543
511.0456, 1636.176
512.9741, 1631.338
514.9026, 1614.478
516.8311, 1599.295
518.7595, 1596.243
520.6880, 1597.723
522.6165, 1594.473
524.5449, 1589.193
526.4734, 1592.636
528.4019, 1606.320
530.3303, 1611.368
532.2588, 1605.533
534.1873, 1600.436
536.1157, 1596.363
538.0442, 1595.122
539.9727, 1599.523
541.9011, 1603.374
543.8296, 1604.234
545.7581, 1601.794
547.6865, 1591.520
549.6150, 1579.356
551.5435, 1581.123
553.4719, 1595.538
555.4004, 1599.291
557.3289, 1590.296
559.2573, 1583.571
561.1858, 1581.020
563.1143, 1575.811
565.0427, 1562.841
566.9712, 1554.641
568.8997, 1562.061
570.8281, 1569.258
572.7566, 1562.921
574.6851, 1554.483
576.6135, 1561.276
578.5419, 1575.733
580.4704, 1574.092
582.3989, 1556.897
584.3273, 1549.086
586.2558, 1551.711
588.1843, 1552.365
590.1127, 1548.425
592.0412, 1548.946
593.9697, 1559.579
595.8981, 1567.493
597.8266, 1566.949
599.7551, 1562.180
601.6835, 1549.523
603.6120, 1539.267
605.5405, 1546.164
607.4689, 1561.795
609.3974, 1567.656
611.3259, 1565.185
613.2543, 1565.990
615.1828, 1570.250
617.1113, 1566.313
619.0397, 1551.751
620.9682, 1539.515
622.8967, 1529.092
624.8251, 1529.870
626.7536, 1556.086
628.6821, 1575.685
630.6105, 1569.648
632.5390, 1559.968
634.4675, 1564.576
636.3959, 1570.700
638.3244, 1559.026
640.2529, 1538.757
642.1813, 1532.431
644.1098, 1537.592
646.0383, 1537.835
647.9667, 1533.469
649.8952, 1530.732
651.8237, 1529.879
653.7521, 1534.082
655.6806, 1547.078
657.6091, 1554.310
659.5375, 1548.386
661.4660, 1542.103
663.3945, 1539.305
665.3229, 1537.551
667.2514, 1535.947
669.1799, 1534.400
671.1083, 1532.696
673.0368, 1531.188
674.9653, 1531.126
676.8937, 1531.540
678.8222, 1529.680
680.7507, 1525.853
682.6791, 1520.413
684.6076, 1513.564
686.5361, 1510.212
688.4645, 1511.202
690.3930, 1510.134
692.3215, 1504.163
694.2499, 1502.777
696.1784, 1515.476
698.1069, 1519.654
700.0353, 1497.634
701.9638, 1483.198
703.8923, 1500.395
705.8207, 1517.553
707.7492, 1507.943
709.6777, 1492.817
711.6061, 1494.114
713.5346, 1504.149
715.4631, 1515.150
717.3915, 1523.678
719.3200, 1518.949
721.2485, 1504.757
723.1769, 1496.427
725.1054, 1493.992
727.0339, 1491.769
728.9623, 1489.829
730.8908, 1480.786
732.8193, 1458.627
734.7477, 1450.001
736.6762, 1468.481
738.6047, 1481.292
740.5331, 1477.842
742.4616, 1476.013
744.3901, 1482.007
746.3185, 1488.091
748.2470, 1490.789
750.1755, 1492.580
752.1039, 1496.656
754.0324, 1499.012
755.9609, 1493.972
757.8893, 1486.872
759.8178, 1484.338
761.7463, 1484.384
763.6747, 1483.047
765.6032, 1481.615
767.5317, 1484.359
769.4601, 1489.956
771.3886, 1492.189
773.3171, 1491.105
775.2455, 1491.279
777.1740, 1493.297
779.1025, 1493.540
781.0309, 1491.453
782.9594, 1489.514
784.8879, 1489.129
786.8163, 1486.358
788.7448, 1473.386
790.6733, 1470.906
792.6017, 1492.689
794.5302, 1507.081
796.4587, 1502.899
798.3871, 1494.938
800.3156, 1484.122
802.2441, 1477.375
804.1725, 1480.711
806.1010, 1486.314
808.0295, 1492.569
809.9579, 1494.629
811.8864, 1484.695
813.8149, 1471.761
815.7433, 1465.655
817.6718, 1462.034
819.6003, 1454.952
821.5287, 1446.854
823.4572, 1440.560
825.3857, 1437.542
827.3141, 1444.026
829.2426, 1457.371
831.1711, 1464.528
833.0995, 1465.553
835.0280, 1462.300
836.9565, 1454.603
838.8849, 1442.858
840.8134, 1425.206
842.7419, 1414.481
844.6703, 1410.546
846.5988, 1414.880
848.5273, 1435.466
850.4557, 1443.546
852.3842, 1429.074
854.3127, 1426.670
856.2411, 1444.915
858.1696, 1459.264
860.0981, 1467.654
862.0266, 1469.778
863.9550, 1463.295
865.8835, 1455.744
867.8120, 1446.477
869.7404, 1442.574
871.6689, 1450.927
873.5974, 1455.729
875.5258, 1448.409
877.4543, 1440.486
879.3828, 1435.045
881.3112, 1434.187
883.2397, 1442.529
885.1682, 1450.264
887.0966, 1452.162
889.0251, 1450.288
890.9536, 1442.480
892.8820, 1435.662
894.8105, 1437.662
896.7390, 1439.472
898.6674, 1428.586
900.5959, 1419.771
902.5244, 1435.611
904.4528, 1452.613
906.3813, 1438.034
908.3098, 1415.654
910.2382, 1416.573
912.1667, 1427.757
914.0952, 1433.100
916.0236, 1433.632
917.9521, 1430.521
919.8806, 1424.297
921.8090, 1411.497
923.7375, 1399.073
925.6660, 1406.457
927.5944, 1423.661
929.5229, 1426.230
931.4514, 1418.831
933.3798, 1412.709
935.3083, 1407.910
937.2368, 1404.776
939.1652, 1402.938
941.0937, 1398.837
943.0222, 1394.986
944.9506, 1405.624
946.8791, 1425.305
948.8076, 1426.931
950.7360, 1415.054
952.6645, 1413.265
954.5930, 1419.836
956.5214, 1428.259
958.4499, 1436.681
960.3784, 1430.917
962.3068, 1413.976
964.2353, 1405.429
966.1638, 1404.800
968.0922, 1410.602
970.0207, 1421.315
971.9492, 1425.526
973.8776, 1423.766
975.8061, 1418.602
977.7346, 1410.716
979.6630, 1404.037
981.5915, 1398.777
983.5200, 1397.176
985.4484, 1398.299
987.3769, 1395.153
989.3054, 1388.822
991.2338, 1386.688
993.1623, 1388.367
995.0908, 1389.995
997.0192, 1392.321
998.9477, 1403.720
1000.876, 1420.160
1002.805, 1415.805
1004.733, 1396.697
1006.662, 1396.967
1008.590, 1411.608
1010.518, 1416.604
1012.447, 1412.576
1014.375, 1398.824
1016.304, 1381.319
1018.232, 1386.176
1020.161, 1405.829
1022.089, 1411.679
1024.018, 1408.323
1025.946, 1412.029
1027.875, 1420.230
1029.803, 1426.687
1031.732, 1430.393
1033.660, 1428.458
1035.589, 1422.214
1037.517, 1409.660
1039.446, 1398.203
1041.374, 1409.333
1043.302, 1429.739
1045.231, 1435.842
1047.159, 1431.115
1049.088, 1414.698
1051.016, 1397.226
1052.945, 1400.461
1054.873, 1409.161
1056.802, 1397.120
1058.730, 1381.952
1060.659, 1388.501
1062.587, 1402.211
1064.516, 1408.671
1066.444, 1410.864
1068.373, 1411.215
1070.301, 1409.413
1072.229, 1402.989
1074.158, 1396.962
1076.086, 1394.208
1078.015, 1395.089
1079.943, 1400.925
1081.872, 1409.007
1083.800, 1424.416
1085.729, 1431.429
1087.657, 1413.687
1089.586, 1397.568
1091.514, 1396.308
1093.443, 1397.520
1095.371, 1397.909
1097.299, 1397.495
1099.228, 1394.866
1101.156, 1394.126
1103.085, 1396.865
1105.013, 1400.712
1106.942, 1408.641
1108.870, 1410.834
1110.799, 1399.394
1112.727, 1396.933
1114.656, 1411.531
1116.584, 1419.008
1118.513, 1418.171
1120.441, 1410.641
1122.370, 1392.217
1124.298, 1388.766
1126.226, 1402.332
1128.155, 1411.691
1130.083, 1416.968
1132.012, 1413.264
1133.940, 1402.025
1135.869, 1394.758
1137.797, 1390.923
1139.726, 1388.363
1141.654, 1387.077
1143.583, 1387.093
1145.511, 1388.418
1147.440, 1391.484
1149.368, 1395.572
1151.297, 1401.409
1153.225, 1405.855
1155.153, 1403.640
1157.082, 1400.962
1159.010, 1402.026
1160.939, 1405.719
1162.867, 1414.990
1164.796, 1420.311
1166.724, 1416.047
1168.653, 1408.752
1170.581, 1397.370
1172.510, 1394.354
1174.438, 1407.218
1176.367, 1413.729
1178.295, 1406.966
1180.224, 1403.515
1182.152, 1406.307
1184.080, 1409.752
1186.009, 1413.409
1187.937, 1415.274
1189.866, 1415.293
1191.794, 1421.536
1193.723, 1431.643
1195.651, 1420.876
1197.580, 1398.150
1199.508, 1397.929
1201.437, 1410.674
1203.365, 1419.096
1205.294, 1422.216
1207.222, 1411.226
1209.151, 1402.662
1211.079, 1421.391
1213.007, 1440.103
1214.936, 1437.026
1216.864, 1429.364
1218.793, 1422.592
1220.721, 1418.185
1222.650, 1414.827
1224.578, 1419.148
1226.507, 1435.063
1228.435, 1449.577
1230.364, 1461.647
1232.292, 1459.112
1234.221, 1440.946
1236.149, 1435.207
1238.078, 1442.260
1240.006, 1449.381
1241.934, 1454.623
1243.863, 1449.342
1245.791, 1439.788
1247.720, 1440.821
1249.648, 1446.418
1251.577, 1447.497
1253.505, 1448.498
1255.434, 1455.320
1257.362, 1461.758
1259.291, 1465.085
1261.219, 1464.591
1263.148, 1454.852
1265.076, 1450.882
1267.005, 1457.036
1268.933, 1466.615
1270.861, 1481.108
1272.790, 1483.045
1274.718, 1470.921
1276.647, 1475.767
1278.575, 1495.153
1280.504, 1503.067
1282.432, 1502.734
1284.361, 1507.604
1286.289, 1510.853
1288.218, 1493.621
1290.146, 1478.023
1292.075, 1493.929
1294.003, 1510.835
1295.932, 1504.068
1297.860, 1498.431
1299.788, 1506.909
1301.717, 1513.565
1303.645, 1513.594
1305.574, 1514.571
1307.502, 1518.145
1309.431, 1515.984
1311.359, 1507.914
1313.288, 1501.983
1315.216, 1498.207
1317.145, 1495.081
1319.073, 1494.595
1321.002, 1506.581
1322.930, 1516.468
1324.859, 1503.521
1326.787, 1491.301
1328.715, 1500.803
1330.644, 1505.048
1332.572, 1486.129
1334.501, 1476.051
1336.429, 1489.199
1338.358, 1489.293
1340.286, 1471.634
1342.215, 1458.202
1344.143, 1449.365
1346.072, 1454.278
1348.000, 1465.516
1349.929, 1460.568
1351.857, 1449.400
1353.786, 1440.396
1355.714, 1438.825
1357.642, 1455.024
1359.571, 1464.911
1361.499, 1454.660
1363.428, 1447.697
1365.356, 1453.373
1367.285, 1443.828
1369.213, 1411.755
1371.142, 1408.441
1373.070, 1427.712
1374.999, 1416.149
1376.927, 1391.100
1378.856, 1397.289
1380.784, 1409.253
1382.713, 1390.909
1384.641, 1377.753
1386.569, 1393.561
1388.498, 1406.233
1390.426, 1405.902
1392.355, 1399.115
1394.283, 1385.971
1396.212, 1381.954
1398.140, 1387.612
1400.069, 1395.232
1401.997, 1402.420
1403.926, 1402.770
1405.854, 1397.699
1407.783, 1384.979
1409.711, 1373.795
1411.640, 1372.025
1413.568, 1369.078
1415.496, 1359.963
1417.425, 1360.936
1419.353, 1375.421
1421.282, 1373.487
1423.210, 1356.086
1425.139, 1349.613
1427.067, 1350.791
1428.996, 1354.412
1430.924, 1356.842
1432.853, 1353.971
1434.781, 1348.244
1436.710, 1334.419
1438.638, 1333.161
1440.567, 1353.094
1442.495, 1357.690
1444.423, 1344.217
1446.352, 1344.652
1448.280, 1356.020
1450.209, 1366.304
1452.137, 1368.522
1454.066, 1342.640
1455.994, 1317.907
1457.923, 1317.770
1459.851, 1324.101
1461.780, 1336.264
1463.708, 1337.844
1465.637, 1326.479
1467.565, 1316.450
1469.494, 1308.984
1471.422, 1306.912
1473.350, 1307.823
1475.279, 1309.558
1477.207, 1309.644
1479.136, 1303.956
1481.064, 1299.954
1482.993, 1304.621
1484.921, 1300.990
1486.850, 1285.626
1488.778, 1285.277
1490.707, 1296.154
1492.635, 1294.330
1494.564, 1285.599
1496.492, 1276.447
1498.421, 1270.178
1500.349, 1268.852
1502.277, 1271.920
1504.206, 1280.566
1506.134, 1292.108
1508.063, 1308.030
1509.991, 1309.647
1511.920, 1300.450
1513.848, 1290.061
1515.777, 1284.229
1517.705, 1293.582
1519.634, 1302.023
1521.562, 1302.667
1523.491, 1295.094
1525.419, 1272.299
1527.348, 1267.915
1529.276, 1280.715
1531.204, 1282.213
1533.133, 1276.280
1535.061, 1267.808
1536.990, 1260.414
1538.918, 1252.077
1540.847, 1258.865
1542.775, 1296.018
1544.704, 1305.971
1546.632, 1280.580
1548.561, 1270.907
1550.489, 1273.610
1552.418, 1286.527
1554.346, 1294.575
1556.275, 1277.410
1558.203, 1261.525
1560.131, 1256.507
1562.060, 1256.806
1563.988, 1261.998
1565.917, 1259.706
1567.845, 1252.595
1569.774, 1250.511
1571.702, 1251.526
1573.631, 1253.657
1575.559, 1257.930
1577.488, 1265.834
1579.416, 1270.768
1581.345, 1271.438
1583.273, 1274.901
1585.202, 1277.797
1587.130, 1263.379
1589.058, 1246.074
1590.987, 1241.824
1592.915, 1243.731
1594.844, 1250.558
1596.772, 1256.427
1598.701, 1260.890
1600.629, 1278.522
1602.558, 1299.760
1604.486, 1295.102
1606.415, 1279.595
1608.343, 1261.384
1610.272, 1251.709
1612.200, 1256.972
1614.129, 1251.230
1616.057, 1234.185
1617.985, 1235.792
1619.914, 1245.458
1621.842, 1240.913
1623.771, 1232.162
1625.699, 1227.802
1627.628, 1218.421
1629.556, 1200.895
1631.485, 1189.800
1633.413, 1185.440
1635.342, 1191.051
1637.270, 1192.073
1639.199, 1158.687
1641.127, 1132.336
1643.056, 1139.395
1644.984, 1148.104
1646.912, 1155.769
1648.841, 1159.112
1650.769, 1157.927
1652.698, 1148.901
1654.626, 1141.065
1656.555, 1143.398
1658.483, 1145.685
1660.412, 1145.181
1662.340, 1144.760
1664.269, 1144.415
1666.197, 1144.314
1668.126, 1143.802
1670.054, 1142.505
1671.983, 1140.025
1673.911, 1138.838
1675.839, 1127.339
1677.768, 1105.115
1679.696, 1108.458
1681.625, 1122.000
1683.553, 1117.399
1685.482, 1111.001
1687.410, 1112.045
1689.339, 1113.043
1691.267, 1113.452
1693.196, 1101.786
1695.124, 1085.648
1697.053, 1087.220
1698.981, 1093.176
1700.910, 1094.449
1702.838, 1100.108
1704.766, 1115.380
1706.695, 1108.954
1708.623, 1087.125
1710.552, 1063.478
1712.480, 1054.397
1714.409, 1081.191
1716.337, 1095.778
1718.266, 1084.081
1720.194, 1067.520
1722.123, 1050.847
1724.051, 1045.929
1725.980, 1049.926
1727.908, 1066.813
1729.837, 1071.314
1731.765, 1054.776
1733.693, 1059.090
1735.622, 1077.761
1737.550, 1078.758
1739.479, 1069.532
1741.407, 1049.962
1743.336, 1039.623
1745.264, 1042.956
1747.193, 1058.023
1749.121, 1076.833
1751.050, 1075.780
1752.978, 1063.087
1754.907, 1035.784
1756.835, 1023.038
1758.764, 1030.080
1760.692, 1032.709
1762.620, 1030.691
1764.549, 1024.853
1766.477, 1022.031
1768.406, 1032.538
1770.334, 1034.592
1772.263, 1026.166
1774.191, 1031.531
1776.120, 1041.204
1778.048, 1033.679
1779.977, 1023.384
1781.905, 1017.508
1783.834, 1014.485
1785.762, 1013.589
1787.691, 1005.290
1789.619, 1000.300
1791.547, 1023.600
1793.476, 1034.708
1795.404, 1010.284
1797.333, 1002.827
1799.261, 1009.028
1801.190, 1000.220
1803.118, 991.3458
1805.047, 1004.670
1806.975, 1001.535
1808.904, 968.0936
1810.832, 972.7549
1812.761, 995.9337
1814.689, 984.7060
1816.618, 972.5839
1818.546, 985.3162
1820.474, 987.1157
1822.403, 975.7719
1824.331, 977.1437
1826.260, 982.9918
1828.188, 983.3724
1830.117, 982.1867
1832.045, 982.3704
1833.974, 975.5568
1835.902, 963.5838
1837.831, 950.8010
1839.759, 947.0792
1841.688, 963.1952
1843.616, 961.9371
1845.545, 939.8141
1847.473, 945.3425
1849.401, 954.4974
1851.330, 930.6284
1853.258, 917.1971
1855.187, 929.2578
1857.115, 933.5100
1859.044, 930.9002
1860.972, 924.5591
1862.901, 921.8618
1864.829, 929.7486
1866.758, 925.1754
1868.686, 906.4766
1870.615, 908.9725
1872.543, 919.2092
1874.472, 923.3743
1876.400, 914.8333
1878.328, 892.1005
1880.257, 892.1912
1882.185, 902.6588
1884.114, 890.3535
1886.042, 888.0895
1887.971, 913.7858
1889.899, 913.0369
1891.828, 889.2217
1893.756, 892.9927
1895.685, 900.7164
1897.613, 888.9714
1899.542, 885.1290
1901.470, 889.0198
1903.399, 873.8398
1905.327, 862.2104
1907.255, 887.5504
1909.184, 893.9539
1911.112, 874.1262
1913.041, 866.3248
1914.969, 865.1158
1916.898, 867.5920
1918.826, 868.4307
1920.755, 864.9523
1922.683, 854.9565
1924.612, 843.0700
1926.540, 848.4666
1928.469, 851.2330
1930.397, 828.3779
1932.326, 828.6813
1934.254, 847.7278
1936.182, 843.9539
1938.111, 832.8799
1940.039, 828.4579
1941.968, 818.9958
1943.896, 805.7048
1945.825, 813.2984
1947.753, 825.8698
1949.682, 836.3188
1951.610, 840.9896
1953.539, 835.0230
1955.467, 822.9418
1957.396, 815.2628
1959.324, 820.0951
1961.253, 818.4939
1963.181, 810.6639
1965.109, 800.6279
1967.038, 791.6750
1968.966, 788.7756
1970.895, 788.4750
1972.823, 791.8174
1974.752, 803.0375
1976.680, 805.5737
1978.609, 772.4694
1980.537, 756.7955
1982.466, 775.7864
1984.394, 776.1404
1986.323, 767.0763
1988.251, 763.5374
1990.180, 763.7664
1992.108, 764.9598
1994.036, 765.5000
1995.965, 762.6150
1997.893, 759.9823
1999.822, 756.5037
2001.750, 750.8242
2003.679, 746.2993
2005.607, 740.5585
2007.536, 743.8411
2009.464, 744.4559
2011.393, 736.3954
2013.321, 739.0075
2015.250, 744.0491
2017.178, 730.7101
2019.107, 720.1700
2021.035, 717.9670
2022.964, 715.2330
2024.892, 711.4111
2026.820, 717.4999
2028.749, 721.7903
2030.677, 722.9969
2032.606, 716.5502
2034.534, 704.4754
2036.463, 699.8912
2038.391, 705.7206
2040.320, 711.9578
2042.248, 709.2189
2044.177, 702.4562
2046.105, 687.6650
2048.034, 682.7665
2049.962, 685.5960
2051.891, 696.2968
2053.819, 700.5748
2055.748, 685.2780
2057.676, 671.3817
2059.604, 662.7318
2061.533, 665.8977
2063.461, 669.4072
2065.390, 664.6587
2067.318, 665.8448
2069.247, 669.0063
2071.175, 670.2250
2073.104, 667.5075
2075.032, 661.3098
2076.960, 656.2546
2078.889, 650.7328
2080.817, 635.3171
2082.746, 646.0771
2084.674, 651.5356
2086.603, 651.9757
2088.531, 632.3708
2090.460, 638.6503
2092.388, 634.5568
2094.317, 630.0374
2096.245, 639.9605
2098.174, 623.2706
2100.102, 632.9650
2102.031, 625.0007
2103.959, 623.8155
2105.887, 632.9504
2107.816, 634.4193
2109.744, 626.4987
2111.673, 620.9473
2113.601, 615.6442
2115.530, 609.2856
2117.458, 612.8456
2119.387, 622.2964
2121.315, 620.4755
2123.244, 613.7109
2125.172, 604.8534
2127.101, 601.2663
2129.029, 599.4652
2130.958, 594.4831
2132.886, 591.2764
2134.814, 591.0598
2136.743, 595.3592
2138.671, 596.0797
2140.600, 582.9192
2142.528, 573.6144
2144.457, 570.5018
2146.385, 571.3018
2148.314, 568.3654
2150.242, 562.5884
2152.171, 562.8262
2154.099, 564.4536
2156.028, 566.6001
2157.956, 565.1754
2159.885, 561.9025
2161.813, 558.3916
2163.741, 554.0338
2165.670, 553.9811
2167.598, 554.0489
2169.527, 552.0426
2171.455, 550.6165
2173.384, 550.5632
2175.312, 550.8754
2177.241, 543.8198
2179.169, 537.4607
2181.098, 537.6978
2183.026, 536.3538
2184.955, 535.7118
2186.883, 545.3082
2188.812, 550.8311
2190.740, 547.6846
2192.668, 539.1354
2194.597, 531.1462
2196.525, 531.1997
2198.454, 526.8621
2200.382, 518.5366
2202.311, 510.7861
2204.239, 505.4590
2206.168, 503.2626
2208.096, 509.7630
2210.025, 515.4639
2211.953, 509.8161
2213.882, 506.9752
2215.810, 507.5785
2217.739, 503.2906
2219.667, 502.4194
2221.595, 508.0714
2223.524, 508.1870
2225.452, 502.3642
2227.381, 489.2080
2229.309, 488.9113
2231.238, 495.7395
2233.166, 495.2093
2235.095, 490.4303
2237.023, 483.9389
2238.952, 475.6887
2240.880, 467.6278
2242.809, 465.3097
2244.737, 472.8376
2246.666, 476.8311
2248.594, 455.9584
2250.522, 453.8290
2252.451, 469.6550
2254.379, 469.7504
2256.308, 463.3497
2258.236, 451.1372
2260.165, 454.3228
2262.093, 464.2621
2264.022, 457.2062
2265.950, 450.3126
2267.879, 447.9255
2269.807, 447.3122
2271.736, 444.1128
2273.664, 437.5050
2275.593, 440.5154
2277.521, 443.6389
2279.449, 437.1668
2281.378, 438.9855
2283.306, 438.6662
2285.235, 430.0552
2287.163, 428.7884
2289.092, 432.8222
2291.020, 429.7079
2292.949, 425.4882
2294.877, 418.4609
2296.806, 413.8355
2298.734, 413.3928
2300.663, 418.5145
2302.591, 415.7754
2304.520, 401.8276
2306.448, 400.1493
2308.376, 402.3527
2310.305, 402.3369
2312.233, 402.1800
2314.162, 404.3924
2316.090, 403.0497
2318.019, 393.3040
2319.947, 391.0482
2321.876, 395.8554
2323.804, 399.5116
2325.733, 405.6459
2327.661, 396.9231
2329.590, 393.2533
2331.518, 399.3575
2333.447, 398.2997
2335.375, 388.0567
2337.303, 379.8237
2339.232, 395.2805
2341.160, 401.2745
2343.089, 386.1557
2345.017, 376.1389
2346.946, 375.3249
2348.874, 372.1086
2350.803, 370.9592
2352.731, 375.3938
2354.660, 379.0972
2356.588, 382.0717
2358.517, 382.2519
2360.445, 371.2185
2362.374, 364.8870
2364.302, 361.5392
2366.230, 365.1071
2368.159, 364.1938
2370.087, 355.0673
2372.016, 356.0021
2373.944, 357.7905
2375.873, 341.7817
2377.801, 340.0360
2379.730, 348.8647
2381.658, 350.8067
2383.587, 347.2511
2385.515, 345.5686
2387.444, 347.6391
2389.372, 351.1241
2391.301, 352.5013
2393.229, 343.3152
2395.157, 341.9847
2397.086, 344.3815
2399.014, 337.8116
2400.943, 337.6074
2402.871, 343.3323
2404.800, 337.9222
2406.728, 343.8326
2408.657, 352.3705
2410.585, 340.6504
2412.514, 333.7967
2414.442, 326.2357
2416.371, 323.8778
2418.299, 329.2952
2420.228, 324.6696
2422.156, 321.8184
2424.084, 320.5768
2426.013, 308.1622
2427.941, 311.0667
2429.870, 316.5960
2431.798, 313.8602
2433.727, 319.0211
2435.655, 320.4581
2437.584, 312.1825
2439.512, 309.7645
2441.441, 312.4231
2443.369, 312.6345
2445.298, 309.8233
2447.226, 312.6852
2449.155, 312.4018
2451.083, 309.1214
2453.011, 303.2864
2454.940, 302.1806
2456.868, 299.6910
2458.797, 285.7562
2460.725, 288.1635
2462.654, 293.1263
2464.582, 299.9904
2466.511, 308.4099
2468.439, 307.3594
2470.368, 300.7775
2472.296, 290.1838
2474.225, 279.3692
2476.153, 281.1983
2478.082, 282.1357
2480.010, 285.1648
2481.938, 283.8955
2483.867, 276.7696
2485.795, 270.4304
2487.724, 267.9671
2489.652, 264.9747
2491.581, 261.2507
2493.509, 262.9523
2495.438, 260.8069
2497.366, 260.8178
2499.295, 269.5151
2501.223, 273.4396
2503.152, 268.0368
2505.080, 259.1086
2507.009, 252.6527
2508.937, 251.8132
2510.865, 256.6449
2512.794, 253.6756
2514.722, 250.3628
2516.651, 262.0692
2518.579, 260.6243
2520.508, 250.4326
2522.436, 246.0200
2524.365, 253.0857
2526.293, 255.6734
2528.222, 240.3734
2530.150, 238.2030
2532.079, 246.2925
2534.007, 251.5041
2535.936, 248.3179
2537.864, 239.9076
2539.792, 237.5094
2541.721, 239.7958
2543.649, 240.5403
2545.578, 234.6707
2547.506, 230.2730
2549.435, 235.0901
2551.363, 233.2718
2553.292, 232.6768
2555.220, 235.1200
2557.149, 218.2378
2559.077, 220.6587
2561.006, 232.6136
2562.934, 226.6322
2564.863, 223.8316
2566.791, 222.3388
2568.719, 219.6047
2570.648, 223.9931
2572.576, 226.9470
2574.505, 212.7939
2576.433, 209.5610
2578.362, 212.4713
2580.290, 215.1976
2582.219, 219.1996
2584.147, 220.4315
2586.076, 209.5154
2588.004, 204.4181
2589.933, 205.9035
2591.861, 205.3099
2593.790, 203.0786
2595.718, 202.5591
2597.646, 209.0477
2599.575, 203.1670
2601.503, 197.2906
2603.432, 205.8004
2605.360, 208.4558
2607.289, 205.1000
2609.217, 193.4068
2611.146, 194.9016
2613.074, 200.4828
2615.003, 202.0027
2616.931, 193.6972
2618.860, 189.5006
2620.788, 196.2012
2622.717, 187.7793
2624.645, 187.0927
2626.573, 201.0619
2628.502, 198.2337
2630.430, 194.9511
2632.359, 196.6122
2634.287, 203.7067
2636.216, 198.3232
2638.144, 183.1668
2640.073, 181.7378
2642.001, 184.0874
2643.930, 185.4604
2645.858, 179.5732
2647.787, 178.8094
2649.715, 174.2988
2651.644, 178.9431
2653.572, 180.9368
2655.500, 180.4218
2657.429, 169.8831
2659.357, 172.2876
2661.286, 169.5047
2663.214, 166.5096
2665.143, 170.7350
2667.071, 161.6548
2669.000, 165.7657
2670.928, 164.6113
2672.857, 165.8664
2674.785, 159.9129
2676.714, 158.9503
2678.642, 159.8654
2680.571, 161.7022
2682.499, 161.9332
2684.427, 163.3603
2686.356, 167.6277
2688.284, 174.7805
2690.213, 165.9372
2692.141, 154.4020
2694.070, 154.8288
2695.998, 158.7725
2697.927, 161.1587
2699.855, 154.2363
2701.784, 156.2696
2703.712, 161.0286
2705.641, 156.6528
2707.569, 154.6303
2709.498, 159.3993
2711.426, 158.2796
2713.354, 148.1681
2715.283, 142.1522
2717.211, 139.7517
2719.140, 146.3765
2721.068, 148.6512
2722.997, 148.9097
2724.925, 138.6520
2726.854, 135.5441
2728.782, 138.3859
2730.711, 138.1184
2732.639, 140.6264
2734.568, 140.1932
2736.496, 143.9056
2738.425, 143.5135
2740.353, 138.7850
2742.281, 136.2243
2744.210, 136.1814
2746.138, 136.0577
2748.067, 137.9633
2749.995, 140.2102
2751.924, 135.6454
2753.852, 128.7077
2755.781, 131.4382
2757.709, 124.4612
2759.638, 119.3058
2761.566, 123.7314
2763.495, 123.7004
2765.423, 126.7959
2767.352, 128.9404
2769.280, 124.1147
2771.208, 126.1632
2773.137, 124.1836
2775.065, 119.0414
2776.994, 117.2002
2778.922, 114.9834
2780.851, 120.2343
2782.779, 125.1523
2784.708, 120.1925
2786.636, 118.5923
2788.565, 116.5128
2790.493, 107.6521
2792.422, 102.8022
2794.350, 110.7870
2796.279, 112.0023
2798.207, 111.4539
2800.135, 109.9217
2802.064, 113.6158
2803.992, 117.0211
2805.921, 108.3182
2807.849, 112.5562
2809.778, 114.9440
2811.706, 104.4034
2813.635, 111.1776
2815.563, 118.2537
2817.492, 110.8885
2819.420, 104.1200
2821.349, 108.8047
2823.277, 102.5028
2825.206, 104.6358
2827.134, 101.7416
2829.063, 101.2295
2830.991, 106.3370
2832.919, 97.72340
2834.848, 100.2758
2836.776, 102.9840
2838.705, 100.2091
2840.633, 106.1324
2842.562, 99.24597
2844.490, 89.03812
2846.419, 94.85583
2848.347, 95.71855
2850.276, 93.53127
2852.204, 94.10247
2854.133, 92.66960
2856.061, 89.49423
2857.990, 87.02395
2859.918, 92.52799
2861.846, 96.10480
2863.775, 88.64064
2865.703, 81.32790
2867.632, 79.17746
2869.560, 90.23381
2871.489, 97.73544
2873.417, 93.81330
2875.346, 90.25535
2877.274, 93.59083
2879.203, 83.89469
2881.131, 81.11897
2883.060, 85.03119
2884.988, 86.33549
2886.917, 95.19898
2888.845, 82.82445
2890.773, 65.73599
2892.702, 75.56203
2894.630, 78.97059
2896.559, 77.51356
2898.487, 82.63889
2900.416, 80.53400
2902.344, 78.34839
2904.273, 74.57793
2906.201, 63.23875
2908.130, 70.89387
2910.058, 89.35223
2911.987, 86.41562
2913.915, 72.96768
2915.844, 67.54981
2917.772, 75.10364
2919.700, 84.52243
2921.629, 85.55683
2923.557, 77.77129
2925.486, 69.70269
2927.414, 68.21296
2929.343, 74.53942
2931.271, 68.96732
2933.200, 71.77051
2935.128, 80.43922
2937.057, 82.77649
2938.985, 71.92563
2940.914, 70.41737
2942.842, 76.06573
2944.771, 82.87318
2946.699, 70.09138
2948.627, 60.28275
2950.556, 64.65106
2952.484, 72.97261
2954.413, 59.20662
2956.341, 51.56405
2958.270, 62.73921
2960.198, 62.36939
2962.127, 54.24911
2964.055, 55.73269
2965.984, 66.77210
2967.912, 67.25403
2969.841, 62.08683
2971.769, 56.83584
2973.698, 58.74334
2975.626, 51.81581
2977.554, 50.45359
2979.483, 62.19757
2981.411, 60.52819
2983.340, 62.85086
2985.268, 66.40135
2987.197, 58.35036
2989.125, 56.09689
2991.054, 57.40709
2992.982, 58.36563
2994.911, 57.41124
2996.839, 57.71717
2998.768, 57.47339
3000.696, 52.02468
3002.625, 39.30545
3004.553, 46.97717
3006.481, 56.25808
3008.410, 47.28460
3010.338, 52.59211
3012.267, 53.88177
3014.195, 48.36115
3016.124, 48.85334
3018.052, 23.32860
3019.981, 29.26293
3021.909, 65.27189
3023.838, 36.59143
3025.766, 28.99137
3027.695, 38.30809
3029.623, 50.44039
3031.552, 44.78691
3033.480, 37.58281
3035.408, 38.44089
3037.337, 48.39571
3039.265, 35.18266
3041.194, 34.49183
3043.122, 44.37311
3045.051, 39.82811
3046.979, 50.99427
3048.908, 51.79084
3050.836, 40.26902
3052.765, 35.52123
3054.693, 38.57632
3056.622, 41.05316
3058.550, 40.99535
3060.479, 53.11664
3062.407, 53.56596
3064.335, 43.99764
3066.264, 31.26813
3068.192, 44.44201
3070.121, 47.52973
3072.049, 43.73510
3073.978, 43.77047
3075.906, 40.65582
3077.835, 28.45144
3079.763, 22.12778
3081.692, 50.95505
3083.620, 42.94577
3085.549, 36.70633
3087.477, 37.29786
3089.406, 35.23960
3091.334, 39.96474
3093.262, 33.12461
3095.191, 20.25282
3097.119, 28.16759
3099.048, 31.70903
3100.976, 28.15917
3102.905, 26.58001
3104.833, 45.61678
3106.762, 41.08115
3108.690, 38.34839
3110.619, 43.25688
3112.547, 36.07294
3114.476, 34.43911
3116.404, 28.72636
3118.333, 19.50326
3120.261, 20.85634
3122.189, 34.26390
3124.118, 38.68082
3126.046, 27.42026
3127.975, 26.14857
3129.903, 30.97174
3131.832, 33.30319
3133.760, 32.76844
3135.689, 23.30232
3137.617, 27.43416
3139.546, 30.85582
3141.474, 25.89326
3143.403, 22.19014
3145.331, 24.57553
3147.260, 23.12597
3149.188, 16.12421
3151.116, 31.34317
3153.045, 26.59513
3154.973, 25.15525
3156.902, 31.94469
3158.830, 23.10200
3160.759, 36.94793
3162.687, 39.20891
3164.616, 25.99391
3166.544, 18.06673
3168.473, 10.92620
3170.401, 14.65286
3172.330, 25.60616
3174.258, 25.95486
3176.187, 36.42546
3178.115, 37.85926
3180.043, 29.11313
3181.972, 23.51443
3183.900, 23.15808
3185.829, 20.14780
3187.757, 16.09749
3189.686, 12.26834
3191.614, 18.92448
3193.543, 10.83271
3195.471, 4.345805
3197.400, 16.09140
3199.328, 12.52978
3201.257, 19.74944
3203.185, 24.88881
3205.114, 21.56050
3207.042, 18.58597
3208.970, 18.98507
3210.899, 21.85175
3212.827, 22.71470
3214.756, 24.10107
3216.684, 15.55525
3218.613, 11.08369
3220.541, 16.05491
3222.470, 27.95323
3224.398, 16.90054
3226.327, 18.02851
3228.255, 24.72913
3230.184, 17.22737
3232.112, 23.18046
3234.041, 16.75921
3235.969, 12.67614
3237.897, 18.79329
3239.826, 25.95893
3241.754, 21.16494
3243.683, 16.39531
3245.611, 15.38065
3247.540, 14.14521
3249.468, 26.07502
3251.397, 16.47536
3253.325, 2.300946
3255.254, 31.50774
3257.182, 19.80982
3259.111, 12.05318
3261.039, 17.15023
3262.968, 20.46120
3264.896, 25.62903
3266.824, 22.62665
3268.753, 16.52565
3270.681, 13.15368
3272.610, 9.374045
3274.538, 17.06934
3276.467, 22.09289
3278.395, 23.35522
3280.324, 23.29352
3282.252, 23.89417
3284.181, 29.80123
3286.109, 36.07298
3288.038, 30.34230
3289.966, 4.504831
3291.895, 17.58047
3293.823, 23.16109
3295.751, 13.17484
3297.680, 14.53685
3299.608, 18.48242
3301.537, 20.82916
3303.465, 15.93511
3305.394, 5.964677
3307.322, 20.81771
3309.251, 14.85158
3311.179, 16.97998
3313.108, 27.63286
3315.036, 27.30815
3316.965, 18.94244
3318.893, 12.98426
3320.822, 11.84070
3322.750, 11.04597
3324.678, 14.52626
3326.607, 21.26860
3328.535, 19.85716
3330.464, 12.03340
3332.392, 4.547638
3334.321, 13.01805
3336.249, 15.65419
3338.178, 17.23375
3340.106, 21.05794
3342.035, 6.322679
3343.963, 7.368570
3345.892, 16.39482
3347.820, 23.84344
3349.749, 28.62361
3351.677, 19.23836
3353.605, 11.85120
3355.534, 15.31219
3357.462, 21.33315
3359.391, 15.00693
3361.319, 17.60663
3363.248, 26.19321
3365.176, 22.16338
3367.105, 8.773516
3369.033, 10.59677
3370.962, 7.607742
3372.890, 2.395545
3374.819, 9.7223192E-02
3376.747, 3.747020
3378.676, 15.11351
3380.604, 13.60320
3382.532, 13.21653
3384.461, 13.45630
3386.389, 9.768347
3388.318, 12.31359
3390.246, 6.863832
3392.175, 15.58838
3394.103, 23.86812
3396.032, -0.5683430
3397.960, 7.296730
3399.889, 4.539018
3401.817, 5.532563
3403.746, 15.78729
3405.674, 25.00759
3407.603, 11.71793
3409.531, 15.51534
3411.459, 21.90065
3413.388, 20.52693
3415.316, 19.99257
3417.245, 17.52444
3419.173, 27.17710
3421.102, 23.61487
3423.030, 5.962138
3424.959, 20.34808
3426.887, 40.21461
3428.816, 22.22756
3430.744, 13.09067
3432.673, 29.36057
3434.601, 13.27088
3436.530, 21.49877
3438.458, 11.60321
3440.386, 3.389946
3442.315, 11.79589
3444.243, 23.84763
3446.172, 16.71594
3448.100, 5.858862
3450.029, 5.002293
3451.957, 9.957958
3453.886, 0.2053803
3455.814, 4.040719
3457.743, 13.33640
3459.671, 19.37420
3461.600, 17.71499
3463.528, 8.819317
3465.457, 5.307529
3467.385, 19.26928
3469.313, 25.39136
3471.242, 17.82384
3473.170, 8.549330
3475.099, 2.082460
3477.027, -1.728134
3478.956, -6.930945
3480.884, -5.939437
3482.813, 6.221379
3484.741, 6.820645
3486.670, -9.569023
3488.598, -5.277149
3490.527, 14.44528
3492.455, 24.96911
3494.384, -3.069172
3496.312, 4.721607
3498.240, 16.39095
3500.169, 10.19646
3502.097, 1.092944
3504.026, 31.98819
3505.954, 14.33018
3507.883, 10.13467
3509.811, 13.39624
3511.740, 15.35333
3513.668, 15.02189
3515.597, 1.971973
3517.525, 3.000727
3519.454, 21.17035
3521.382, 26.22230
3523.311, 12.16711
3525.239, 35.54457
3527.167, 12.61693
3529.096, 5.882854
3531.024, 12.46967
3532.953, 14.00847
3534.881, 0.4381402
3536.810, 12.95656
3538.738, -7.269986
3540.667, -5.153599
3542.595, 7.727343
3544.524, 8.965101
3546.452, 14.49458
3548.381, 7.419873
3550.309, 11.36980
3552.238, 10.36304
3554.166, 7.038905
3556.094, 13.08274
3558.023, 1.061188
3559.951, 5.983474
3561.880, 4.236817
3563.808, 7.773022
3565.737, 18.53613
3567.665, 15.37234
3569.594, 10.50829
3571.522, 6.680544
3573.451, 17.74572
3575.379, 22.80744
3577.308, 6.075995
3579.236, -13.04697
3581.165, 11.71526
3583.093, 25.76825
3585.021, 18.73024
3586.950, 7.156765
3588.878, 4.237988
3590.807, -7.464413
3592.735, 9.551618
3594.664, 19.81473
3596.592, 21.14998
3598.521, 13.06068
3600.449, -3.114280
3602.378, 21.23538
3604.306, -12.94436
3606.235, -3.467001
3608.163, 12.48007
3610.092, 13.51377
3612.020, 23.11563
3613.948, 18.38690
3615.877, 9.036098
3617.805, 12.91032
3619.734, 15.07129
3621.662, 13.48940
3623.591, 16.68690
3625.519, -0.9221755
3627.448, 4.209164
3629.376, 9.972855
3631.305, 7.995621
3633.233, 5.534918
3635.162, 11.38282
3637.090, 16.58998
3639.019, -2.574196
3640.947, 0.9683334
3642.875, -1.916658
3644.804, -4.777648
3646.732, 8.012244
3648.661, -6.185328
3650.589, 9.095967
3652.518, -0.5205002
3654.446, -4.251162
3656.375, 7.296699
3658.303, 14.84270
3660.232, -5.485849
3662.160, 6.692559
3664.089, 21.65103
3666.017, 18.76022
3667.946, 14.15355
3669.874, 14.34310
3671.802, 7.294912
3673.731, 17.08407
3675.659, 14.05589
3677.588, 1.357702
3679.516, 8.181558
3681.445, 11.86538
3683.373, -6.882471
3685.302, 19.36259
3687.230, 12.01035
3689.159, 11.20711
3691.087, 1.327405
3693.016, 1.145440
3694.944, 7.820896
3696.873, -8.123512
3698.801, -1.927404
3700.729, 16.93780
3702.658, 14.74832
3704.586, -12.80889
3706.515, -18.25287
3708.443, 8.274529
3710.372, -2.369844
3712.300, -2.235106
3714.229, 16.96872
3716.157, 16.81782
3718.086, 15.29333
3720.014, 14.29285
3721.943, 1.214382
3723.871, -11.04627
3725.800, 4.705503
3727.728, 8.562425
3729.656, -4.929716
3731.585, -0.1727048
3733.513, 12.90629
3735.442, 2.869835
3737.370, 1.432833
3739.299, 16.70755
3741.227, 13.29408
3743.156, 22.35765
3745.084, 15.07733
3747.013, -6.455459
3748.941, -6.382923
3750.870, 18.83504
3752.798, 9.667445
3754.727, 9.485648
3756.655, 9.667171
3758.583, 4.732151
3760.512, 0.9873887
3762.440, 4.701858
3764.369, 10.98382
3766.297, 17.01954
3768.226, -27.54864
3770.154, -6.423386
3772.083, 10.63421
3774.011, 3.586920
3775.940, 2.779762
3777.868, 5.917319
3779.797, -5.169932
3781.725, 5.719699
3783.654, 0.6648870
3785.582, 8.552258
3787.510, 12.61144
3789.439, 8.569173
3791.367, 15.66372
3793.296, 17.57050
3795.224, 18.17833
3797.153, 6.598520
3799.081, 13.31015
3801.010, 14.43118
3802.938, 10.55919
3804.867, 13.25535
3806.795, 10.63176
3808.724, -7.292736
3810.652, 20.59027
3812.581, 17.88975
3814.509, 16.38210
3816.438, 5.024457
3818.366, -3.966052
3820.294, 11.56021
3822.223, 27.75920
3824.151, 14.90483
3826.080, 8.286441
3828.008, 6.241258
3829.937, 6.923366
3831.865, 9.917633
3833.794, 16.38824
3835.722, 23.10489
3837.651, 19.51389
3839.579, 5.238431
3841.508, 3.158594
3843.436, 7.384998
3845.365, -0.5397466
3847.293, 10.08072
3849.221, 20.00164
3851.150, 5.225828
3853.078, 2.030779
3855.007, 3.239537
3856.935, -0.1875356
3858.864, 9.291021
3860.792, 14.99490
3862.721, 7.325217
3864.649, 8.850338
3866.578, 13.23849
3868.506, -6.066384
3870.435, 0.6764285
3872.363, 8.2147777E-02
3874.292, 2.045679
3876.220, -7.054983
3878.148, -1.937873
3880.077, 5.403613
3882.005, 10.14423
3883.934, 15.09483
3885.862, 9.800517
3887.791, 9.618613
3889.719, -6.751669
3891.648, 18.78682
3893.576, 12.93855
3895.505, 9.596566
3897.433, 15.98537
3899.362, 12.47402
3901.290, 0.6230782
3903.219, 1.843150
3905.147, 0.6267647
3907.075, 3.830962
3909.004, -6.166770
3910.932, -1.165290
3912.861, 9.278703
3914.789, 0.7226393
3916.718, 0.5881718
3918.646, 14.55633
3920.575, -1.753400
3922.503, -0.8472871
3924.432, 12.73578
3926.360, 14.37288
3928.289, 4.158232
3930.217, 8.290812
3932.146, 16.65297
3934.074, 10.68526
3936.002, -2.239781
3937.931, -5.784378
3939.859, -4.213933
3941.788, 12.82039
3943.716, 32.00467
3945.645, 9.023593
3947.573, 4.570621
3949.502, 16.75963
3951.430, 16.20549
3953.359, 13.68285
3955.287, 16.63259
3957.216, 9.847473
3959.144, 0.2480057
3961.073, -8.258658
3963.001, 10.28748
3964.929, 22.07749
3966.858, 6.918912
3968.786, 5.392386
3970.715, 16.69272
3972.643, 30.93393
3974.572, 15.41219
3976.500, -15.22493
3978.429, 12.38946
3980.357, -6.482900
3982.286, 10.97959
3984.214, 17.46069
3986.143, 19.74984
3988.071, 4.296864
3990.000, 10.93748
3991.928, 5.124700
3993.856, 8.794710
3995.785, 21.93268
3997.713, 3.410636
3999.642, -5.848752
4001.570, 17.18168
4003.499, 9.464387
4005.427, 20.86408
4007.356, 10.95283
4009.284, 11.03638
4011.213, 12.90903
4013.141, 15.96533
4015.070, 12.38235
4016.998, 7.224486
4018.927, 8.573812
4020.855, 9.071607
4022.783, 15.59353
4024.712, -12.18476
4026.640, 16.91517
4028.569, 4.307280
4030.497, 2.543397
4032.426, 17.90185
4034.354, 12.40309
4036.283, 0.3810713
4038.211, 8.473796
4040.140, 11.05987
4042.068, 5.952906
4043.997, 27.12706
4045.925, 1.759860
4047.854, 12.09190
4049.782, 7.430953
4051.710, 4.635345
4053.639, 2.862915
4055.567, 18.01500
4057.496, 22.11375
4059.424, 1.683509
4061.353, -6.184471
4063.281, 6.958694
4065.210, 3.417701
4067.138, -5.472540
4069.067, 23.21621
4070.995, 18.21100
4072.924, 0.1376353
4074.852, 7.353942
4076.781, 11.88368
4078.709, 11.69633
4080.637, 7.240209
4082.566, 10.62756
4084.494, 7.775446
4086.423, 5.594567
4088.351, 4.290098
4090.280, 7.438541
4092.208, 13.66471
4094.137, 8.054478
4096.065, -7.695846
4097.994, -3.967666
4099.922, 24.04919
4101.851, 19.93744
4103.779, 14.78201
4105.708, 10.76902
4107.636, 21.74392
4109.564, 29.51806
4111.493, 17.86800
4113.421, 9.960268
4115.350, 0.6203161
4117.278, 5.984251
4119.207, 10.82080
4121.135, 10.43890
4123.063, 16.66670
4124.992, 8.739271
4126.920, 16.46683
4128.849, 10.33582
4130.777, 17.25803
4132.706, -1.644954
4134.634, -4.9668230E-02
4136.563, 0.7498401
4138.491, 12.18032
4140.420, 7.039247
4142.348, -9.385360
4144.277, 11.08532
4146.205, 17.39191
4148.134, 14.29005
4150.062, 11.28935
4151.991, 8.590564
4153.919, 13.23347
4155.848, 10.17434
4157.776, 6.146063
4159.705, 16.24725
4161.633, -21.41634
4163.562, 28.94924
4165.490, 14.92111
4167.418, 22.26025
4169.347, 17.51219
4171.275, 9.277200
4173.204, -20.93010
4175.132, 9.002343
4177.061, 16.46461
4178.989, 15.81477
4180.917, 12.82434
4182.846, 5.581907
4184.774, 2.920947
4186.703, -0.1472997
4188.631, 5.522124
4190.560, 10.71749
4192.488, 1.920225
4194.417, 5.029559
4196.345, 13.47861
4198.274, 7.873444
4200.202, 19.75012
4202.131, 13.83215
4204.059, 33.79907
4205.988, -9.641731
4207.916, 3.337927
4209.845, 11.27765
4211.773, 7.383156
4213.702, 13.41890
4215.630, 17.57358
4217.559, 25.89916
4219.487, 17.22171
4221.416, -10.08225
4223.344, -2.208157
4225.272, 3.501610
4227.201, -0.3267738
4229.129, 8.252234
4231.058, 6.659939
4232.986, 2.716269
4234.915, 9.338173
4236.843, 4.431353
4238.771, -0.1684736
4240.700, 11.85168
4242.628, 15.34762
4244.557, 14.18308
4246.485, 11.28267
4248.414, 18.43754
4250.342, -0.2873618
4252.271, 14.38000
4254.199, 23.98514
4256.128, 10.92761
4258.056, 5.892097
4259.985, -11.17879
4261.913, -8.413117
4263.842, 13.53701
4265.770, -8.734942
4267.699, -2.309968
4269.627, 5.620248
4271.556, -2.203111
4273.484, 19.78214
4275.413, -0.1800042
4277.341, -19.70255
4279.270, -16.56443
4281.198, 3.352828
4283.126, 2.079743
4285.055, -13.49251
4286.983, -1.730328
4288.912, 11.97152
4290.840, 13.82806
4292.769, 5.622162
4294.697, 12.38786
4296.625, 18.43725
4298.554, 10.05320
4300.482, 11.65385
4302.411, 21.70785
4304.339, 10.22518
4306.268, 0.3848377
4308.196, 5.899743
4310.125, 7.980381
4312.053, 25.98824
4313.982, 1.076771
4315.910, 3.479666
4317.839, 5.316059
4319.767, 2.987505
4321.696, -3.023792
4323.624, 1.686183
4325.553, 12.26950
4327.481, -21.23092
4329.410, 3.130247
4331.338, 1.157985
4333.267, -7.792805
4335.195, 10.09401
4337.124, 2.459102
4339.052, -13.68731
4340.980, 1.491105
4342.909, 10.48779
4344.837, 4.851492
4346.766, 6.712359
##END=



