##NAMES=Niobophyllite
##RRUFFID=R110048
##IDEAL CHEMISTRY=K_2_NaFe^2+^_7_(Nb,Ti)_2_(Si_4_O_12_)_2_O_2_(OH)_4_(O,F)
##LOCALITY=Mount Malosa, Zomba District, Malawi
##OWNER=RRUFF
##SOURCE=Donald M Doell
##DESCRIPTION=Brown tabular platy crystals associated with quartz
##STATUS=The identification of this mineral has been confirmed only by single crystal X-ray diffraction
##URL=https://www.rruff.net/odr/rruff_sample/R110048
##DIFFRACTION SAMPLE DESCRIPTION=Single crystal, powder profile is calculated
##CELL PARAMETERS=a: 5.354 b: 11.836 c: 11.622 alpha: 113.03 beta: 94.47 gamma: 103.27 volume: 648 crystal system: triclinic
##FILETYPE=Raman Processed
##RAMAN WAVELENGTH=532

192.5953, 542.9885
194.5238, 550.9007
196.4522, 562.8955
198.3807, 574.0629
200.3092, 583.3753
202.2376, 591.9910
204.1661, 600.5121
206.0946, 608.5304
208.0230, 617.0598
209.9515, 626.4761
211.8800, 636.5631
213.8084, 646.5353
215.7369, 655.6472
217.6654, 665.3201
219.5938, 676.7811
221.5223, 690.4877
223.4508, 704.2073
225.3792, 717.5875
227.3077, 730.5400
229.2362, 741.8674
231.1646, 751.2064
233.0931, 759.3006
235.0216, 766.7732
236.9500, 773.7780
238.8785, 779.4102
240.8070, 783.1526
242.7354, 785.2471
244.6639, 787.6202
246.5924, 791.2179
248.5208, 793.9594
250.4493, 794.8987
252.3778, 793.0057
254.3062, 790.5591
256.2347, 788.2499
258.1632, 785.2203
260.0916, 780.0547
262.0201, 772.3903
263.9486, 762.7791
265.8770, 750.3669
267.8055, 733.9504
269.7340, 717.3563
271.6624, 701.5002
273.5909, 686.4833
275.5194, 672.3455
277.4478, 659.4789
279.3763, 646.8134
281.3048, 634.1808
283.2332, 621.6690
285.1617, 610.6547
287.0902, 601.5626
289.0186, 593.5935
290.9471, 586.3370
292.8756, 580.7668
294.8040, 575.0838
296.7325, 567.8076
298.6610, 559.2864
300.5894, 552.4337
302.5179, 548.0768
304.4464, 544.9443
306.3748, 542.6588
308.3033, 541.4775
310.2318, 540.4962
312.1602, 538.8150
314.0887, 536.5570
316.0172, 534.8787
317.9456, 534.1500
319.8741, 534.1841
321.8026, 535.0781
323.7310, 536.8297
325.6595, 538.3535
327.5880, 539.0425
329.5164, 539.4772
331.4449, 540.6851
333.3734, 542.5562
335.3018, 545.2441
337.2303, 549.2219
339.1588, 554.4739
341.0872, 558.7979
343.0157, 560.9455
344.9442, 562.6902
346.8727, 565.7224
348.8011, 570.4687
350.7296, 575.0320
352.6581, 578.8235
354.5865, 581.6699
356.5150, 582.9286
358.4435, 582.5809
360.3719, 582.3686
362.3004, 582.6707
364.2289, 583.1658
366.1573, 583.3494
368.0858, 583.4302
370.0143, 583.0416
371.9427, 581.5156
373.8712, 578.8033
375.7997, 576.1846
377.7281, 574.3357
379.6566, 573.1825
381.5851, 571.4030
383.5135, 567.9343
385.4420, 564.5154
387.3705, 562.3981
389.2989, 561.6839
391.2274, 560.7794
393.1559, 559.3813
395.0843, 557.9216
397.0128, 557.0818
398.9413, 555.9838
400.8697, 555.0475
402.7982, 555.0381
404.7267, 555.8836
406.6551, 555.8976
408.5836, 554.1602
410.5121, 552.0798
412.4405, 550.4680
414.3690, 549.1942
416.2975, 547.8578
418.2259, 546.2491
420.1544, 544.4203
422.0829, 542.5099
424.0113, 541.9470
425.9398, 540.0378
427.8683, 535.6755
429.7967, 529.6018
431.7252, 524.5641
433.6537, 519.6445
435.5821, 513.8592
437.5106, 506.5774
439.4391, 499.0703
441.3675, 493.5617
443.2960, 490.8517
445.2245, 488.4547
447.1529, 484.2949
449.0814, 477.7328
451.0099, 471.5763
452.9383, 466.5340
454.8668, 462.9908
456.7953, 460.2328
458.7237, 457.7941
460.6522, 455.7139
462.5807, 454.0664
464.5091, 453.2716
466.4376, 452.8520
468.3661, 452.4631
470.2945, 452.0551
472.2230, 452.0903
474.1515, 452.5939
476.0799, 452.4947
478.0084, 451.5583
479.9369, 450.1771
481.8653, 448.4820
483.7938, 446.2806
485.7223, 444.6856
487.6507, 444.9108
489.5792, 445.5954
491.5077, 445.0264
493.4361, 442.6743
495.3646, 440.4358
497.2931, 439.3742
499.2215, 439.1844
501.1500, 438.7074
503.0785, 437.3838
505.0069, 435.6639
506.9354, 433.9814
508.8639, 433.9428
510.7923, 434.1672
512.7208, 434.2900
514.6493, 434.0763
516.5778, 434.2643
518.5062, 434.4976
520.4347, 435.6894
522.3632, 438.7041
524.2916, 442.8414
526.2201, 446.2177
528.1486, 448.3565
530.0770, 451.1239
532.0055, 455.4272
533.9340, 461.3314
535.8624, 467.4356
537.7909, 473.1782
539.7194, 478.9139
541.6478, 485.4177
543.5763, 492.9482
545.5048, 500.9268
547.4332, 509.3980
549.3617, 518.3102
551.2902, 527.2951
553.2186, 536.2308
555.1471, 544.4921
557.0756, 552.4155
559.0040, 559.9793
560.9325, 565.8670
562.8610, 569.8408
564.7894, 571.7442
566.7179, 571.7280
568.6464, 569.8114
570.5748, 568.1064
572.5033, 567.5726
574.4318, 566.5056
576.3602, 563.0052
578.2887, 556.8616
580.2172, 551.3323
582.1456, 547.1513
584.0741, 543.9576
586.0026, 540.9009
587.9310, 537.8254
589.8595, 535.2326
591.7880, 533.0540
593.7164, 531.3857
595.6449, 530.8112
597.5734, 532.0280
599.5018, 533.5437
601.4303, 534.6242
603.3588, 535.6290
605.2872, 537.7112
607.2157, 540.2327
609.1442, 544.1520
611.0726, 550.1926
613.0011, 558.4089
614.9296, 567.0570
616.8580, 575.4304
618.7865, 584.3051
620.7150, 594.6329
622.6434, 606.4332
624.5719, 619.1877
626.5004, 633.0226
628.4288, 647.9110
630.3573, 663.5911
632.2858, 679.8686
634.2142, 697.5623
636.1427, 716.7914
638.0712, 737.2849
639.9996, 758.6121
641.9281, 780.5829
643.8566, 803.2806
645.7850, 826.5693
647.7135, 850.5828
649.6420, 875.9431
651.5704, 906.3631
653.4989, 934.1443
655.4274, 958.9251
657.3558, 979.9564
659.2843, 995.1829
661.2128, 1002.434
663.1412, 1006.473
665.0697, 1008.592
666.9982, 1008.340
668.9266, 1008.178
670.8551, 1008.027
672.7836, 1007.866
674.7120, 1007.716
676.6405, 1007.607
678.5690, 1007.133
680.4974, 1005.658
682.4259, 1004.093
684.3544, 1003.304
686.2828, 1004.561
688.2113, 1004.628
690.1398, 1003.334
692.0682, 1000.717
693.9967, 997.2894
695.9252, 993.1373
697.8536, 988.5128
699.7821, 983.9780
701.7106, 978.7443
703.6390, 971.4642
705.5675, 961.2589
707.4960, 950.3689
709.4244, 939.2413
711.3529, 927.6466
713.2814, 915.6312
715.2098, 903.6497
717.1383, 890.8776
719.0668, 876.5300
720.9952, 860.5421
722.9237, 844.6818
724.8522, 829.1848
726.7806, 814.0490
728.7091, 799.1111
730.6376, 783.7727
732.5660, 768.7889
734.4945, 754.8361
736.4230, 741.0997
738.3514, 726.1498
740.2799, 710.0317
742.2084, 696.0649
744.1368, 684.8942
746.0653, 674.2461
747.9938, 662.7386
749.9222, 650.8337
751.8507, 640.1846
753.7792, 631.4242
755.7076, 624.0090
757.6361, 617.7810
759.5646, 612.3956
761.4930, 606.5573
763.4215, 599.8453
765.3500, 593.1524
767.2784, 587.1014
769.2069, 581.8359
771.1354, 577.0620
773.0638, 573.3105
774.9923, 569.2999
776.9208, 564.8337
778.8492, 559.4152
780.7777, 553.6270
782.7062, 547.5082
784.6346, 541.9945
786.5631, 537.0841
788.4916, 531.8846
790.4200, 526.3979
792.3485, 521.5211
794.2770, 515.5938
796.2054, 511.2137
798.1339, 506.0971
800.0624, 500.4428
801.9908, 494.3807
803.9193, 488.9142
805.8478, 483.3567
807.7762, 477.8544
809.7047, 473.4451
811.6332, 470.8863
813.5616, 468.7942
815.4901, 466.9029
817.4186, 464.5693
819.3470, 461.5108
821.2755, 457.7108
823.2040, 454.1864
825.1324, 451.0967
827.0609, 447.8587
828.9894, 444.8098
830.9178, 442.1142
832.8463, 440.4289
834.7748, 439.8454
836.7032, 439.5181
838.6317, 438.9636
840.5602, 437.9732
842.4886, 437.2178
844.4171, 437.3714
846.3456, 439.9853
848.2740, 442.8031
850.2025, 444.4949
852.1310, 444.4573
854.0594, 444.4177
855.9879, 445.9342
857.9164, 448.5469
859.8448, 451.7738
861.7733, 455.2274
863.7018, 459.1984
865.6302, 464.1167
867.5587, 469.4884
869.4872, 475.2964
871.4156, 481.9214
873.3441, 488.9214
875.2726, 495.9170
877.2010, 505.3702
879.1295, 517.8951
881.0580, 532.0476
882.9865, 545.6163
884.9149, 559.9980
886.8434, 575.2458
888.7719, 590.6053
890.7003, 606.9162
892.6288, 626.2444
894.5573, 649.3141
896.4857, 673.1191
898.4142, 696.5276
900.3427, 720.3654
902.2711, 746.1398
904.1996, 773.9073
906.1281, 801.4934
908.0565, 828.2484
909.9850, 854.5396
911.9135, 881.4495
913.8419, 908.1799
915.7704, 932.9074
917.6989, 954.9476
919.6273, 975.8261
921.5558, 996.8168
923.4843, 1016.799
925.4127, 1033.439
927.3412, 1048.235
929.2697, 1061.149
931.1981, 1071.183
933.1266, 1075.710
935.0551, 1076.497
936.9835, 1074.147
938.9120, 1066.502
940.8405, 1052.592
942.7689, 1033.287
944.6974, 1009.533
946.6259, 981.0306
948.5543, 948.3490
950.4828, 912.5087
952.4113, 874.2382
954.3397, 836.6542
956.2682, 799.5851
958.1967, 762.5010
960.1251, 726.3817
962.0536, 692.1819
963.9821, 659.3427
965.9105, 626.2159
967.8390, 594.7360
969.7675, 567.2216
971.6959, 544.0721
973.6244, 523.8074
975.5529, 505.2333
977.4813, 488.9957
979.4098, 475.9269
981.3383, 465.4914
983.2667, 456.1595
985.1952, 447.4238
987.1237, 441.2595
989.0521, 438.9333
990.9806, 438.6855
992.9091, 437.9153
994.8375, 435.7878
996.7660, 435.7586
998.6945, 439.4793
1000.623, 444.5655
1002.551, 448.6394
1004.480, 450.2982
1006.408, 454.0531
1008.337, 461.6121
1010.265, 470.4353
1012.194, 477.4178
1014.122, 482.3306
1016.051, 487.6669
1017.979, 494.8404
1019.908, 503.8159
1021.836, 512.0212
1023.765, 518.8617
1025.693, 524.8650
1027.621, 529.3306
1029.550, 533.5095
1031.478, 536.4208
1033.407, 537.8259
1035.335, 537.3761
1037.264, 535.0055
1039.192, 531.5182
1041.121, 527.4819
1043.049, 521.9608
1044.978, 514.3806
1046.906, 504.3548
1048.835, 493.8231
1050.763, 483.3431
1052.692, 473.5955
1054.620, 464.3715
1056.548, 455.5925
1058.477, 446.3830
1060.405, 436.4077
1062.334, 426.4598
1064.262, 418.1550
1066.191, 412.1155
1068.119, 406.7593
1070.048, 401.4686
1071.976, 396.6006
1073.905, 392.0558
1075.833, 387.0259
1077.762, 382.6629
1079.690, 379.4977
1081.619, 377.5219
1083.547, 376.8826
1085.475, 376.1449
1087.404, 373.7134
1089.332, 368.8095
1091.261, 365.0854
1093.189, 363.5662
1095.118, 362.6229
1097.046, 360.8345
1098.975, 358.2024
1100.903, 356.1089
1102.832, 355.1767
1104.760, 354.1564
1106.689, 352.5274
1108.617, 350.6727
1110.546, 348.9361
1112.474, 347.8866
1114.402, 345.7526
1116.331, 341.2176
1118.259, 336.3803
1120.188, 333.8065
1122.116, 333.9898
1124.045, 333.6209
1125.973, 331.8141
1127.902, 329.8102
1129.830, 328.3140
1131.759, 326.8830
1133.687, 325.5004
1135.616, 324.2994
1137.544, 323.4619
1139.473, 322.8325
1141.401, 322.3052
1143.329, 321.7904
1145.258, 321.2000
1147.186, 320.7085
1149.115, 320.6974
1151.043, 320.9292
1152.972, 320.5382
1154.900, 318.9794
1156.829, 318.0978
1158.757, 318.4975
1160.686, 319.1617
1162.614, 319.3296
1164.543, 318.9603
1166.471, 318.6066
1168.400, 318.4471
1170.328, 318.2116
1172.256, 317.3070
1174.185, 316.5719
1176.113, 316.8704
1178.042, 318.5254
1179.970, 319.6183
1181.899, 319.8571
1183.827, 319.7190
1185.756, 319.3509
1187.684, 318.9039
1189.613, 318.7170
1191.541, 319.0654
1193.470, 319.1134
1195.398, 318.2088
1197.327, 317.2531
1199.255, 317.0533
1201.183, 317.6394
1203.112, 318.4932
1205.040, 320.1589
1206.969, 321.1856
1208.897, 320.5039
1210.826, 318.7865
1212.754, 318.0786
1214.683, 319.6160
1216.611, 320.4962
1218.540, 319.7273
1220.468, 319.0530
1222.397, 320.3834
1224.325, 323.6035
1226.254, 325.7242
1228.182, 325.9439
1230.110, 325.9476
1232.039, 326.5062
1233.967, 327.1503
1235.896, 327.2170
1237.824, 326.5491
1239.753, 325.9154
1241.681, 325.3891
1243.610, 324.9553
1245.538, 324.6495
1247.467, 324.5387
1249.395, 324.5934
1251.324, 324.8184
1253.252, 325.2979
1255.181, 326.2947
1257.109, 327.4230
1259.037, 328.4792
1260.966, 329.5971
1262.894, 329.4387
1264.823, 326.3685
1266.751, 323.7032
1268.680, 323.2778
1270.608, 324.5152
1272.537, 326.2850
1274.465, 328.8224
1276.394, 330.8587
1278.322, 332.0070
1280.251, 332.5569
1282.179, 332.6808
1284.108, 332.4865
1286.036, 332.4203
1287.964, 332.8406
1289.893, 333.1594
1291.821, 332.8520
1293.750, 332.1626
1295.678, 332.4141
1297.607, 334.4730
1299.535, 335.6217
1301.464, 334.9212
1303.392, 334.1931
1305.321, 334.1926
1307.249, 334.8069
1309.178, 336.0220
1311.106, 338.2295
1313.035, 340.1078
1314.963, 341.3239
1316.891, 341.6800
1318.820, 340.9699
1320.748, 339.7982
1322.677, 339.9069
1324.605, 342.2506
1326.534, 343.6710
1328.462, 342.7260
1330.391, 341.2343
1332.319, 340.9034
1334.248, 342.0429
1336.176, 342.8206
1338.105, 343.0656
1340.033, 343.2399
1341.962, 343.3636
1343.890, 343.3791
1345.818, 343.5503
1347.747, 344.2635
1349.675, 345.1839
1351.604, 346.6438
1353.532, 347.8647
1355.461, 348.4929
1357.389, 348.1354
1359.318, 347.0527
1361.246, 345.5961
1363.175, 344.6253
1365.103, 344.1574
1367.032, 344.1719
1368.960, 345.0347
1370.889, 346.4965
1372.817, 347.5357
1374.745, 348.7469
1376.674, 349.5870
1378.602, 348.8061
1380.531, 347.8817
1382.459, 348.3752
1384.388, 350.0037
1386.316, 351.0589
1388.245, 353.7144
1390.173, 355.0451
1392.102, 352.8070
1394.030, 349.4821
1395.959, 348.1043
1397.887, 349.1320
1399.816, 349.9464
1401.744, 350.6215
1403.672, 350.9814
1405.601, 350.1603
1407.529, 349.0470
1409.458, 349.2000
1411.386, 351.2352
1413.315, 352.4549
1415.243, 351.4707
1417.172, 350.4616
1419.100, 350.7315
1421.029, 351.6854
1422.957, 352.4920
1424.886, 352.9720
1426.814, 353.0037
1428.743, 351.6888
1430.671, 350.9199
1432.599, 352.4220
1434.528, 354.6495
1436.456, 355.0622
1438.385, 352.7935
1440.313, 352.0132
1442.242, 354.3321
1444.170, 356.2354
1446.099, 357.0467
1448.027, 356.8022
1449.956, 355.2220
1451.884, 352.2188
1453.813, 351.0416
1455.741, 352.2817
1457.670, 352.9817
1459.598, 352.2212
1461.526, 351.2436
1463.455, 351.2462
1465.383, 352.0992
1467.312, 353.4595
1469.240, 355.9288
1471.169, 357.5808
1473.097, 357.7129
1475.026, 357.1164
1476.954, 356.1853
1478.883, 354.9573
1480.811, 354.5034
1482.740, 355.1492
1484.668, 355.5763
1486.597, 355.5827
1488.525, 355.6353
1490.453, 355.9585
1492.382, 356.3383
1494.310, 356.2660
1496.239, 355.1997
1498.167, 354.7271
1500.096, 356.2462
1502.024, 357.7449
1503.953, 357.6325
1505.881, 356.2251
1507.810, 355.7697
1509.738, 356.8917
1511.667, 357.2579
1513.595, 356.3073
1515.524, 355.1911
1517.452, 354.2206
1519.380, 353.3592
1521.309, 352.7391
1523.237, 352.0487
1525.166, 352.4054
1527.094, 355.1085
1529.023, 357.5097
1530.951, 357.7381
1532.880, 356.7810
1534.808, 356.9638
1536.737, 359.1494
1538.665, 360.1848
1540.594, 358.7668
1542.522, 357.7674
1544.451, 358.7690
1546.379, 360.3660
1548.307, 360.1352
1550.236, 357.8526
1552.164, 358.1458
1554.093, 363.7621
1556.021, 367.3537
1557.950, 365.4134
1559.878, 362.2626
1561.807, 361.6045
1563.735, 362.7325
1565.664, 362.1408
1567.592, 358.8036
1569.521, 357.7114
1571.449, 362.6728
1573.378, 366.9356
1575.306, 365.7331
1577.234, 361.8258
1579.163, 359.8819
1581.091, 359.9559
1583.020, 361.1239
1584.948, 364.5644
1586.877, 366.8473
1588.805, 365.0134
1590.734, 362.4247
1592.662, 362.6877
1594.591, 365.1776
1596.519, 366.1139
1598.448, 364.6574
1600.376, 363.6632
1602.305, 364.3656
1604.233, 365.0210
1606.161, 364.4590
1608.090, 363.1716
1610.018, 362.2188
1611.947, 361.6236
1613.875, 361.1794
1615.804, 360.8151
1617.732, 360.8349
1619.661, 362.5425
1621.589, 363.9398
1623.518, 362.1597
1625.446, 357.6139
1627.375, 355.5209
1629.303, 356.8508
1631.232, 358.4978
1633.160, 359.6035
1635.089, 360.8372
1637.017, 363.2757
1638.945, 365.8630
1640.874, 366.0180
1642.802, 363.3394
1644.731, 360.9398
1646.659, 358.5017
1648.588, 357.4596
1650.516, 359.4344
1652.445, 361.8934
1654.373, 362.7352
1656.302, 362.0804
1658.230, 360.6870
1660.159, 357.7127
1662.087, 356.2932
1664.016, 358.3150
1665.944, 360.1755
1667.872, 360.2603
1669.801, 359.6246
1671.729, 359.6968
1673.658, 360.5493
1675.586, 361.4438
1677.515, 362.6073
1679.443, 363.4310
1681.372, 364.3770
1683.300, 364.4027
1685.229, 361.7674
1687.157, 358.1454
1689.086, 357.5118
1691.014, 360.8033
1692.943, 362.0595
1694.871, 359.2314
1696.799, 357.2553
1698.728, 357.9492
1700.656, 359.0089
1702.585, 358.4022
1704.513, 356.9098
1706.442, 357.2219
1708.370, 360.1071
1710.299, 362.0713
1712.227, 362.7422
1714.156, 362.7010
1716.084, 361.5913
1718.013, 360.2166
1719.941, 358.8888
1721.870, 357.8102
1723.798, 358.2033
1725.726, 360.7978
1727.655, 362.4338
1729.583, 361.8450
1731.512, 361.6906
1733.440, 363.1371
1735.369, 364.9905
1737.297, 366.5857
1739.226, 367.7491
1741.154, 367.1352
1743.083, 363.9818
1745.011, 361.7773
1746.940, 360.8969
1748.868, 360.9682
1750.797, 362.5673
1752.725, 364.3946
1754.653, 365.2568
1756.582, 365.2664
1758.510, 365.1187
1760.439, 364.7460
1762.367, 364.5405
1764.296, 364.6677
1766.224, 364.8497
1768.153, 365.0483
1770.081, 365.3029
1772.010, 365.8553
1773.938, 366.5207
1775.867, 366.2998
1777.795, 364.9652
1779.724, 364.6064
1781.652, 366.0327
1783.580, 367.2647
1785.509, 367.5444
1787.437, 367.4083
1789.366, 367.1024
1791.294, 366.6685
1793.223, 366.1363
1795.151, 365.4947
1797.080, 365.2965
1799.008, 365.8251
1800.937, 366.2152
1802.865, 365.9044
1804.794, 365.8009
1806.722, 366.9071
1808.651, 368.3842
1810.579, 368.7688
1812.507, 368.2045
1814.436, 368.2239
1816.364, 368.9821
1818.293, 370.0815
1820.221, 372.2356
1822.150, 373.4834
1824.078, 372.1459
1826.007, 369.9189
1827.935, 368.5239
1829.864, 367.9091
1831.792, 367.9607
1833.721, 368.8803
1835.649, 369.3583
1837.578, 368.9235
1839.506, 368.4948
1841.434, 367.4768
1843.363, 367.3771
1845.291, 370.4837
1847.220, 375.0294
1849.148, 376.6779
1851.077, 374.9438
1853.005, 374.5894
1854.934, 377.0517
1856.862, 378.4039
1858.791, 377.6090
1860.719, 376.3248
1862.648, 374.8023
1864.576, 373.5866
1866.505, 373.3714
1868.433, 374.0794
1870.361, 375.3286
1872.290, 378.1474
1874.218, 379.0134
1876.147, 375.6734
1878.075, 373.6671
1880.004, 375.1909
1881.932, 377.2010
1883.861, 377.8745
1885.789, 377.6812
1887.718, 377.0973
1889.646, 376.0974
1891.575, 376.5956
1893.503, 379.4178
1895.432, 380.5945
1897.360, 378.4627
1899.288, 376.4334
1901.217, 375.7708
1903.145, 375.8416
1905.074, 376.4291
1907.002, 377.4079
1908.931, 378.6890
1910.859, 380.1967
1912.788, 380.6145
1914.716, 379.3737
1916.645, 378.7092
1918.573, 378.9428
1920.502, 379.9851
1922.430, 383.0885
1924.359, 385.8087
1926.287, 385.1859
1928.215, 382.7758
1930.144, 382.5371
1932.072, 384.5737
1934.001, 386.0187
1935.929, 386.6338
1937.858, 387.0584
1939.786, 387.6449
1941.715, 387.6784
1943.643, 386.3018
1945.572, 384.7898
1947.500, 384.6000
1949.429, 383.2603
1951.357, 384.1029
1953.286, 381.5841
1955.214, 380.0958
1957.143, 379.3577
1959.071, 380.3413
1961.000, 385.2507
1962.928, 388.8896
1964.856, 388.9679
1966.785, 388.0970
1968.713, 387.6937
1970.642, 387.8306
1972.570, 388.9940
1974.499, 390.9406
1976.427, 391.6422
1978.356, 390.7053
1980.284, 390.7520
1982.213, 392.7261
1984.141, 394.4271
1986.070, 394.8959
1987.998, 395.0328
1989.927, 395.3910
1991.855, 395.6941
1993.783, 395.4825
1995.712, 394.9019
1997.640, 394.3682
1999.569, 393.5323
2001.497, 394.6915
2003.426, 401.1845
2005.354, 404.3275
2007.283, 401.0078
2009.211, 397.2856
2011.140, 394.5206
2013.068, 393.1606
2014.997, 394.4957
2016.925, 397.1281
2018.854, 398.0918
2020.782, 397.4948
2022.710, 397.1191
2024.639, 396.9152
2026.567, 397.6452
2028.496, 399.9874
2030.424, 401.7395
2032.353, 402.0668
2034.281, 401.8251
2036.210, 401.0247
2038.138, 400.2688
2040.067, 400.0768
2041.995, 400.4200
2043.924, 401.5788
2045.852, 403.5340
2047.781, 404.1264
2049.709, 402.6869
2051.637, 401.6288
2053.566, 401.0386
2055.494, 400.9406
2057.423, 401.6859
2059.351, 402.5450
2061.280, 403.5084
2063.208, 404.1486
2065.137, 403.6830
2067.065, 402.6295
2068.994, 402.4018
2070.922, 402.9706
2072.851, 403.6758
2074.779, 404.4579
2076.708, 405.2052
2078.636, 405.9348
2080.564, 406.2650
2082.493, 405.6631
2084.421, 405.1659
2086.350, 405.7821
2088.278, 406.4218
2090.207, 405.4807
2092.135, 404.1689
2094.064, 405.3962
2095.992, 408.8985
2097.921, 410.5555
2099.849, 409.9283
2101.778, 408.5953
2103.706, 405.4782
2105.635, 403.4705
2107.563, 403.8416
2109.491, 404.0711
2111.420, 402.6488
2113.348, 401.7094
2115.277, 403.4814
2117.205, 405.9740
2119.134, 406.3038
2121.062, 405.3497
2122.991, 405.5199
2124.919, 406.7730
2126.848, 408.1628
2128.776, 409.8332
2130.705, 410.5603
2132.633, 408.9320
2134.562, 408.2809
2136.490, 410.2613
2138.418, 411.9746
2140.347, 412.2353
2142.275, 411.7174
2144.204, 410.7399
2146.132, 409.5134
2148.061, 408.1238
2149.989, 406.7749
2151.918, 406.3281
2153.846, 406.7724
2155.775, 407.8161
2157.703, 409.5269
2159.632, 411.0597
2161.560, 412.2528
2163.489, 413.1575
2165.417, 414.1452
2167.345, 414.2946
2169.274, 412.4556
2171.202, 410.4894
2173.131, 409.5698
2175.059, 409.5980
2176.988, 411.1687
2178.916, 413.4889
2180.845, 413.4258
2182.773, 411.1001
2184.702, 410.9827
2186.630, 413.4442
2188.559, 415.2296
2190.487, 415.9358
2192.416, 416.0037
2194.344, 415.4227
2196.272, 414.3765
2198.201, 411.7748
2200.129, 410.1866
2202.058, 411.9315
2203.986, 414.5320
2205.915, 416.2100
2207.843, 416.7948
2209.772, 415.2142
2211.700, 412.2051
2213.629, 411.5638
2215.557, 413.3215
2217.486, 414.6532
2219.414, 415.5375
2221.343, 415.3426
2223.271, 413.3557
2225.199, 412.6124
2227.128, 414.6859
2229.056, 416.4902
2230.985, 416.8264
2232.913, 416.6173
2234.842, 415.8454
2236.770, 415.2902
2238.699, 416.4194
2240.627, 417.7547
2242.556, 416.1644
2244.484, 416.8076
2246.413, 416.8463
2248.341, 415.9203
2250.270, 417.4006
2252.198, 417.1821
2254.126, 418.2065
2256.055, 421.4727
2257.983, 422.6114
2259.912, 418.8656
2261.840, 416.6260
2263.769, 418.7999
2265.697, 420.7771
2267.626, 420.8130
2269.554, 420.0926
2271.483, 418.6162
2273.411, 417.5372
2275.340, 418.3246
2277.268, 420.1345
2279.197, 422.1955
2281.125, 423.9667
2283.053, 423.5013
2284.982, 421.0509
2286.910, 418.6870
2288.839, 416.0663
2290.767, 416.3434
2292.696, 422.3190
2294.624, 425.5882
2296.553, 424.1186
2298.481, 423.0597
2300.410, 423.1085
2302.338, 423.6299
2304.267, 425.4870
2306.195, 426.2980
2308.124, 423.4170
2310.052, 414.0454
2311.980, 422.6364
2313.909, 427.7912
2315.837, 429.6909
2317.766, 418.7537
2319.694, 424.2658
2321.623, 423.1083
2323.551, 421.6238
2325.480, 429.2930
2327.408, 419.9374
2329.337, 427.3497
2331.265, 427.9909
2333.194, 431.6503
2335.122, 428.5988
2337.051, 427.5476
2338.979, 433.0984
2340.907, 434.9076
2342.836, 430.8683
2344.764, 434.3905
2346.693, 424.2482
2348.621, 425.9927
2350.550, 432.8341
2352.478, 428.8524
2354.407, 432.2191
2356.335, 432.7107
2358.264, 430.1289
2360.192, 431.1785
2362.121, 430.5151
2364.049, 429.8357
2365.978, 429.4680
2367.906, 430.8078
2369.834, 433.8229
2371.763, 436.0418
2373.691, 437.5836
2375.620, 437.0976
2377.548, 434.0269
2379.477, 432.1085
2381.405, 432.0304
2383.334, 431.1337
2385.262, 428.0029
2387.191, 426.4595
2389.119, 429.0518
2391.048, 431.1376
2392.976, 430.7824
2394.905, 430.5363
2396.833, 431.5269
2398.761, 432.9114
2400.690, 434.4319
2402.618, 435.7830
2404.547, 437.1609
2406.475, 437.8089
2408.404, 435.9887
2410.332, 433.5253
2412.261, 433.6509
2414.189, 435.4391
2416.118, 436.8910
2418.046, 437.8379
2419.975, 436.4702
2421.903, 433.0798
2423.832, 433.2372
2425.760, 436.9267
2427.688, 440.1185
2429.617, 442.6678
2431.545, 442.6110
2433.474, 438.3815
2435.402, 435.8258
2437.331, 436.5917
2439.259, 437.1802
2441.188, 437.2132
2443.116, 437.3683
2445.045, 437.6825
2446.973, 438.4124
2448.902, 440.4671
2450.830, 441.4638
2452.759, 438.8608
2454.687, 436.6805
2456.615, 437.5414
2458.544, 439.2061
2460.472, 440.5388
2462.401, 441.4405
2464.329, 441.2563
2466.258, 441.1581
2468.186, 443.3294
2470.115, 445.8627
2472.043, 445.1971
2473.972, 446.7432
2475.900, 447.5498
2477.829, 447.1222
2479.757, 448.2565
2481.686, 447.7888
2483.614, 446.3617
2485.542, 444.1947
2487.471, 443.6583
2489.399, 444.7519
2491.328, 446.0066
2493.256, 447.4593
2495.185, 447.2451
2497.113, 443.8053
2499.042, 443.3235
2500.970, 447.3482
2502.899, 450.0459
2504.827, 450.8359
2506.756, 451.0743
2508.684, 450.9082
2510.613, 450.3777
2512.541, 449.1081
2514.469, 448.4489
2516.398, 449.2840
2518.326, 450.0594
2520.255, 450.3609
2522.183, 450.5245
2524.112, 450.4388
2526.040, 450.5195
2527.969, 450.9714
2529.897, 451.5496
2531.826, 452.7738
2533.754, 453.2650
2535.683, 450.8909
2537.611, 448.8712
2539.540, 450.5467
2541.468, 452.9679
2543.396, 452.9283
2545.325, 454.8336
2547.253, 454.4071
2549.182, 456.8370
2551.110, 457.4473
2553.039, 457.6455
2554.967, 460.4740
2556.896, 460.4221
2558.824, 464.0394
2560.753, 462.1111
2562.681, 462.3294
2564.610, 463.5226
2566.538, 461.7263
2568.467, 462.1509
2570.395, 461.4741
2572.323, 460.5639
2574.252, 460.5258
2576.180, 458.3120
2578.109, 458.7189
2580.037, 461.3743
2581.966, 461.5320
2583.894, 459.4122
2585.823, 458.5399
2587.751, 459.1675
2589.680, 460.2754
2591.608, 462.0008
2593.537, 463.0695
2595.465, 464.1615
2597.394, 465.3528
2599.322, 465.8624
2601.250, 466.9726
2603.179, 467.3015
2605.107, 467.2552
2607.036, 466.1810
2608.964, 466.9353
2610.893, 470.9426
2612.821, 472.7816
2614.750, 471.7314
2616.678, 470.3003
2618.607, 468.4334
2620.535, 468.0687
2622.464, 470.4658
2624.392, 472.1443
2626.321, 472.3866
2628.249, 472.2508
2630.177, 471.8420
2632.106, 470.9608
2634.034, 469.1128
2635.963, 468.4310
2637.891, 470.2871
2639.820, 471.6190
2641.748, 471.0321
2643.677, 471.0167
2645.605, 473.2270
2647.534, 473.3975
2649.462, 468.9287
2651.391, 466.5700
2653.319, 469.8147
2655.248, 472.5894
2657.176, 472.5563
2659.104, 472.3853
2661.033, 473.0804
2662.961, 473.3320
2664.890, 472.5934
2666.818, 471.9935
2668.747, 471.7367
2670.675, 472.1759
2672.604, 473.6026
2674.532, 475.5243
2676.461, 478.6208
2678.389, 480.7155
2680.318, 480.5392
2682.246, 480.3972
2684.175, 481.3668
2686.103, 482.0462
2688.031, 481.5661
2689.960, 481.1786
2691.888, 482.1636
2693.817, 482.1217
2695.745, 479.4187
2697.674, 477.4133
2699.602, 476.8870
2701.531, 478.2548
2703.459, 483.6077
2705.388, 487.8416
2707.316, 489.3382
2709.245, 488.6890
2711.173, 484.3465
2713.102, 481.3879
2715.030, 482.7277
2716.958, 483.7823
2718.887, 481.9851
2720.815, 480.7350
2722.744, 481.2933
2724.672, 482.5569
2726.601, 484.7278
2728.529, 486.5895
2730.458, 488.0418
2732.386, 488.4729
2734.315, 486.1819
2736.243, 485.2033
2738.172, 488.2580
2740.100, 489.8153
2742.029, 487.5158
2743.957, 486.7546
2745.885, 490.2356
2747.814, 493.1986
2749.742, 494.4298
2751.671, 494.8084
2753.599, 493.9640
2755.528, 493.4989
2757.456, 493.6805
2759.385, 494.1736
2761.313, 495.1331
2763.242, 495.5746
2765.170, 496.1340
2767.099, 497.0137
2769.027, 496.7938
2770.956, 498.2054
2772.884, 498.0029
2774.813, 497.6118
2776.741, 497.3067
2778.669, 497.0395
2780.598, 497.0263
2782.526, 496.3993
2784.455, 494.7176
2786.383, 495.5662
2788.312, 499.7907
2790.240, 502.0096
2792.169, 500.7319
2794.097, 500.6067
2796.026, 501.9020
2797.954, 502.2434
2799.883, 501.5757
2801.811, 502.0628
2803.740, 501.3992
2805.668, 503.4929
2807.596, 500.6980
2809.525, 499.5897
2811.453, 500.1424
2813.382, 502.6253
2815.310, 506.4176
2817.239, 508.0234
2819.167, 507.5732
2821.096, 505.0663
2823.024, 501.4337
2824.953, 501.4247
2826.881, 503.7261
2828.810, 504.8993
2830.738, 504.9274
2832.667, 502.9142
2834.595, 500.4541
2836.523, 501.1799
2838.452, 503.5107
2840.380, 505.0452
2842.309, 506.2509
2844.237, 507.8401
2846.166, 509.2879
2848.094, 510.2280
2850.023, 510.3788
2851.951, 508.2862
2853.880, 506.6970
2855.808, 508.1451
2857.737, 510.2979
2859.665, 512.3994
2861.594, 513.4635
2863.522, 512.0217
2865.450, 510.7330
2867.379, 510.9761
2869.307, 511.0737
2871.236, 509.6068
2873.164, 508.9191
2875.093, 509.9520
2877.021, 511.5676
2878.950, 513.9352
2880.878, 515.7741
2882.807, 517.0680
2884.735, 517.0058
2886.664, 514.1471
2888.592, 512.5449
2890.521, 512.2929
2892.449, 513.8077
2894.377, 517.3602
2896.306, 517.7570
2898.234, 520.1829
2900.163, 521.5312
2902.091, 522.0394
2904.020, 523.5579
2905.948, 523.3660
2907.877, 523.7537
2909.805, 522.9128
2911.734, 523.5955
2913.662, 523.2706
2915.591, 523.0497
2917.519, 523.0493
2919.448, 523.9293
2921.376, 524.7932
2923.304, 524.0677
2925.233, 522.9685
2927.161, 523.1182
2929.090, 523.4227
2931.018, 522.6678
2932.947, 522.1580
2934.875, 523.2700
2936.804, 524.1904
2938.732, 523.4916
2940.661, 523.0534
2942.589, 523.5690
2944.518, 524.2652
2946.446, 525.3616
2948.375, 525.6324
2950.303, 523.4903
2952.231, 524.2805
2954.160, 529.3868
2956.088, 531.2449
2958.017, 528.2426
2959.945, 526.3430
2961.874, 525.9139
2963.802, 525.5837
2965.731, 525.4073
2967.659, 526.1432
2969.588, 527.4427
2971.516, 526.9766
2973.445, 525.7447
2975.373, 527.4055
2977.302, 529.9463
2979.230, 528.6066
2981.158, 530.2438
2983.087, 528.2963
2985.015, 530.7828
2986.944, 531.7074
2988.872, 531.5486
2990.801, 529.5861
2992.729, 528.6074
2994.658, 531.7585
2996.586, 533.3226
2998.515, 530.2079
3000.443, 527.4422
3002.372, 525.5461
3004.300, 525.6337
3006.229, 529.3231
3008.157, 530.6392
3010.085, 528.8621
3012.014, 528.7272
3013.942, 530.3741
3015.871, 533.4959
3017.799, 537.5247
3019.728, 538.6161
3021.656, 537.4474
3023.585, 535.4168
3025.513, 533.7069
3027.442, 534.9713
3029.370, 536.9011
3031.299, 536.2834
3033.227, 535.2141
3035.156, 534.8953
3037.084, 535.6542
3039.012, 539.0625
3040.941, 541.3923
3042.869, 541.0736
3044.798, 539.3118
3046.726, 535.5959
3048.655, 533.3767
3050.583, 533.2115
3052.512, 535.5673
3054.440, 541.1479
3056.369, 543.8156
3058.297, 543.7150
3060.226, 542.7949
3062.154, 541.6109
3064.083, 542.3376
3066.011, 544.2514
3067.939, 546.3721
3069.868, 547.6936
3071.796, 546.5699
3073.725, 544.5973
3075.653, 542.3718
3077.582, 541.3787
3079.510, 543.4266
3081.439, 544.7595
3083.367, 542.3024
3085.296, 541.9088
3087.224, 545.6072
3089.153, 548.5607
3091.081, 550.2515
3093.010, 551.1968
3094.938, 551.3243
3096.866, 553.0156
3098.795, 555.6929
3100.723, 552.6993
3102.652, 547.2196
3104.580, 547.3752
3106.509, 549.7773
3108.437, 549.5853
3110.366, 548.3998
3112.294, 546.0657
3114.223, 545.8066
3116.151, 552.3692
3118.080, 556.5770
3120.008, 554.5975
3121.937, 552.4600
3123.865, 551.0804
3125.793, 550.7527
3127.722, 551.6088
3129.650, 553.2576
3131.579, 555.4473
3133.507, 555.4703
3135.436, 553.7939
3137.364, 551.5750
3139.293, 549.8329
3141.221, 551.0040
3143.150, 553.2211
3145.078, 555.4553
3147.007, 556.7227
3148.935, 555.7981
3150.864, 554.4563
3152.792, 552.7093
3154.720, 552.2697
3156.649, 554.3099
3158.577, 555.4166
3160.506, 555.2967
3162.434, 555.8014
3164.363, 556.9009
3166.291, 557.8070
3168.220, 558.4159
3170.148, 557.9402
3172.077, 557.4083
3174.005, 558.9916
3175.934, 560.4208
3177.862, 558.5764
3179.791, 558.0294
3181.719, 562.0792
3183.647, 565.1851
3185.576, 565.5673
3187.504, 565.5899
3189.433, 565.4485
3191.361, 564.3903
3193.290, 562.6317
3195.218, 565.2578
3197.147, 570.1967
3199.075, 570.0363
3201.004, 567.1139
3202.932, 564.1058
3204.861, 562.2117
3206.789, 563.6869
3208.718, 564.7156
3210.646, 562.4857
3212.574, 561.1424
3214.503, 561.4042
3216.431, 563.3550
3218.360, 567.8505
3220.288, 569.4520
3222.217, 568.5214
3224.145, 568.0981
3226.074, 568.0491
3228.002, 568.0144
3229.931, 567.5949
3231.859, 565.2409
3233.788, 563.6520
3235.716, 565.7120
3237.645, 567.3308
3239.573, 566.6955
3241.501, 566.1894
3243.430, 566.1215
3245.358, 566.7913
3247.287, 568.2380
3249.215, 569.7196
3251.144, 570.9387
3253.072, 570.7972
3255.001, 569.7133
3256.929, 567.2919
3258.858, 565.7540
3260.786, 567.1095
3262.715, 569.3651
3264.643, 572.8079
3266.572, 574.1395
3268.500, 575.3568
3270.428, 572.4335
3272.357, 575.4114
3274.285, 575.3086
3276.214, 573.0409
3278.142, 574.3126
3280.071, 576.4037
3281.999, 573.9152
3283.928, 571.6671
3285.856, 575.3410
3287.785, 578.2599
3289.713, 577.8159
3291.642, 576.6728
3293.570, 574.6165
3295.499, 575.5145
3297.427, 574.5076
3299.355, 578.2595
3301.284, 574.7637
3303.212, 573.4105
3305.141, 574.3438
3307.069, 580.1618
3308.998, 584.5654
3310.926, 582.2227
3312.855, 579.2411
3314.783, 576.7509
3316.712, 576.6067
3318.640, 575.9219
3320.569, 576.6891
3322.497, 578.2137
3324.426, 580.0912
3326.354, 583.7877
3328.282, 586.6878
3330.211, 587.8641
3332.139, 585.4709
3334.068, 582.7637
3335.996, 580.5815
3337.925, 579.7621
3339.853, 579.6133
3341.782, 581.3802
3343.710, 581.8378
3345.639, 583.9416
3347.567, 584.1396
3349.496, 586.1550
3351.424, 584.9356
3353.353, 584.5766
3355.281, 585.1727
3357.209, 584.9207
3359.138, 584.8953
3361.066, 585.8353
3362.995, 584.3037
3364.923, 584.8343
3366.852, 583.7502
3368.780, 582.5240
3370.709, 585.3673
3372.637, 589.3142
3374.566, 592.3614
3376.494, 592.6467
3378.423, 587.1517
3380.351, 584.8857
3382.280, 589.8346
3384.208, 591.3814
3386.136, 589.9086
3388.065, 592.2155
3389.993, 592.8875
3391.922, 596.2578
3393.850, 595.4069
3395.779, 596.8167
3397.707, 597.7571
3399.636, 596.3997
3401.564, 595.8393
3403.493, 596.5718
3405.421, 595.5380
3407.350, 595.8416
3409.278, 596.6280
3411.207, 596.4449
3413.135, 598.0689
3415.063, 599.6818
3416.992, 599.5916
3418.920, 604.1598
3420.849, 598.9420
3422.777, 596.0638
3424.706, 596.7071
3426.634, 597.2369
3428.563, 597.9554
3430.491, 600.0733
3432.420, 602.4894
3434.348, 603.9983
3436.277, 605.0951
3438.205, 606.1319
3440.134, 606.6798
3442.062, 606.9581
3443.990, 604.2201
3445.919, 599.5759
3447.847, 599.5901
3449.776, 602.9043
3451.704, 610.4209
3453.633, 614.9786
3455.561, 608.9205
3457.490, 604.4778
3459.418, 604.8643
3461.347, 605.0555
3463.275, 604.6877
3465.204, 604.9974
3467.132, 605.7125
3469.061, 606.0527
3470.989, 606.5287
3472.917, 607.5589
3474.846, 608.8941
3476.774, 610.5177
3478.703, 611.4830
3480.631, 611.4705
3482.560, 614.1805
3484.488, 618.0418
3486.417, 618.5427
3488.345, 617.6425
3490.274, 616.9767
3492.202, 615.9854
3494.131, 614.0012
3496.059, 613.7994
3497.988, 615.8539
3499.916, 618.2385
3501.844, 620.2324
3503.773, 619.6144
3505.701, 618.3923
3507.630, 618.5059
3509.558, 619.4239
3511.487, 619.1056
3513.415, 619.4490
3515.344, 620.3277
3517.272, 620.3912
3519.201, 622.0081
3521.129, 624.2774
3523.058, 625.7832
3524.986, 624.3378
3526.915, 623.6815
3528.843, 626.8035
3530.771, 626.6801
3532.700, 623.3749
3534.628, 623.4088
3536.557, 626.1910
3538.485, 632.3087
3540.414, 637.2191
3542.342, 636.8768
3544.271, 635.4289
3546.199, 632.9826
3548.128, 635.8661
3550.056, 643.6741
3551.985, 646.6461
3553.913, 647.4063
3555.842, 650.8077
3557.770, 654.2713
3559.698, 655.1193
3561.627, 658.2091
3563.555, 664.3205
3565.484, 671.5421
3567.412, 679.6887
3569.341, 688.2492
3571.269, 698.6257
3573.198, 712.7497
3575.126, 728.3292
3577.055, 745.0326
3578.983, 760.7051
3580.912, 775.1190
3582.840, 788.7594
3584.769, 803.5786
3586.697, 825.4957
3588.625, 849.5213
3590.554, 872.0102
3592.482, 895.2565
3594.411, 919.7383
3596.339, 944.9121
3598.268, 969.6794
3600.196, 984.6566
3602.125, 997.9955
3604.053, 1023.294
3605.982, 1044.649
3607.910, 1055.472
3609.839, 1064.377
3611.767, 1072.721
3613.696, 1074.326
3615.624, 1070.759
3617.552, 1065.569
3619.481, 1057.781
3621.409, 1047.402
3623.338, 1031.917
3625.266, 1010.147
3627.195, 988.2270
3629.123, 965.9525
3631.052, 941.2314
3632.980, 914.2468
3634.909, 882.2807
3636.837, 853.5901
3638.766, 831.3456
3640.694, 806.4639
3642.623, 778.7899
3644.551, 753.9205
3646.479, 732.5117
3648.408, 715.2479
3650.336, 702.0214
3652.265, 692.7211
3654.193, 686.6290
3656.122, 677.7931
3658.050, 671.7460
3659.979, 666.3485
3661.907, 661.1256
3663.836, 657.8853
3665.764, 655.7062
3667.693, 653.8241
3669.621, 652.0862
3671.550, 651.7142
3673.478, 651.8768
3675.406, 650.5133
3677.335, 648.5814
3679.263, 646.3534
3681.192, 644.4655
3683.120, 642.8873
3685.049, 644.7381
3686.977, 648.1790
3688.906, 646.7930
3690.834, 644.1058
3692.763, 642.0718
3694.691, 641.5880
3696.620, 642.9305
3698.548, 645.5297
3700.477, 648.6414
3702.405, 650.2621
3704.333, 650.1404
3706.262, 650.7996
3708.190, 650.5414
3710.119, 648.7180
3712.047, 648.9470
3713.976, 646.1064
3715.904, 644.1323
3717.833, 643.5590
3719.761, 646.1823
3721.690, 648.0307
3723.618, 648.4463
3725.547, 645.4189
3727.475, 647.0734
3729.404, 643.4241
3731.332, 647.1631
3733.260, 648.4794
3735.189, 648.5647
3737.117, 647.6369
3739.046, 646.9740
3740.974, 646.7621
3742.903, 648.3073
3744.831, 648.8387
3746.760, 643.7274
3748.688, 644.3580
3750.617, 651.9905
3752.545, 651.5505
3754.474, 646.3889
3756.402, 643.7208
3758.331, 642.8401
3760.259, 643.7292
3762.188, 646.0276
3764.116, 649.3846
3766.044, 650.3425
3767.973, 650.0031
3769.901, 649.6745
3771.830, 650.3797
3773.758, 650.5036
3775.687, 650.4958
3777.615, 651.4581
3779.544, 650.3466
3781.472, 650.2949
3783.401, 649.7588
3785.329, 650.0898
3787.258, 649.6066
3789.186, 652.3406
3791.115, 649.7668
3793.043, 652.0840
3794.971, 654.0867
3796.900, 649.8167
3798.828, 649.2184
3800.757, 656.0701
3802.685, 657.5206
3804.614, 655.4171
3806.542, 652.4393
3808.471, 651.1862
3810.399, 653.3946
3812.328, 655.0312
3814.256, 655.5355
3816.185, 655.8043
3818.113, 655.8927
3820.042, 657.0535
3821.970, 656.1616
3823.898, 659.2103
3825.827, 661.5056
3827.755, 662.4667
3829.684, 658.4090
3831.612, 655.0202
3833.541, 657.8069
3835.469, 660.4117
3837.398, 661.8729
3839.326, 660.6663
3841.255, 659.0126
3843.183, 661.8146
3845.112, 663.9861
3847.040, 662.4251
3848.969, 662.6218
3850.897, 664.1779
3852.825, 663.6255
3854.754, 662.5303
3856.682, 662.2665
3858.611, 662.0055
3860.539, 661.6083
3862.468, 660.2872
3864.396, 658.8700
3866.325, 658.5160
3868.253, 659.6443
3870.182, 662.9623
3872.110, 665.0338
3874.039, 665.7949
3875.967, 665.3182
3877.896, 664.8963
3879.824, 665.9177
3881.752, 667.0605
3883.681, 668.1286
3885.609, 665.5065
3887.538, 663.0768
3889.466, 667.8382
3891.395, 670.8300
3893.323, 668.9382
3895.252, 671.0490
3897.180, 675.3876
3899.109, 674.0427
3901.037, 672.0802
3902.966, 673.5556
3904.894, 673.2712
3906.823, 670.9836
3908.751, 670.4490
3910.679, 671.8933
3912.608, 676.8270
3914.536, 678.8396
3916.465, 675.3585
3918.393, 671.7164
3920.322, 669.7359
3922.250, 674.7649
3924.179, 677.9225
3926.107, 675.1808
3928.036, 676.0537
3929.964, 678.9423
3931.893, 676.5057
3933.821, 673.6371
3935.750, 672.2174
3937.678, 672.6322
3939.606, 675.5784
3941.535, 678.1675
3943.463, 679.9675
3945.392, 680.9022
3947.320, 680.8773
3949.249, 679.9377
3951.177, 680.8133
3953.106, 679.4112
3955.034, 678.7078
3956.963, 677.2971
3958.891, 676.3022
3960.820, 675.4099
3962.748, 674.5580
3964.677, 675.3311
3966.605, 677.1650
3968.533, 677.6566
3970.462, 679.2380
3972.390, 681.5369
3974.319, 680.5688
3976.247, 679.4081
3978.176, 681.2086
3980.104, 682.2723
3982.033, 681.6882
3983.961, 682.4845
3985.890, 683.5248
3987.818, 683.0320
3989.747, 682.4710
3991.675, 682.5295
3993.604, 684.9951
3995.532, 687.9141
3997.460, 688.0647
3999.389, 687.2598
4001.317, 685.3793
4003.246, 682.8338
4005.174, 680.6278
4007.103, 681.0283
4009.031, 683.0378
4010.960, 684.3476
4012.888, 684.5255
4014.817, 685.9437
4016.745, 685.3683
4018.674, 684.0611
4020.602, 685.2020
4022.531, 684.8365
4024.459, 683.7161
4026.387, 683.7521
4028.316, 683.8873
4030.244, 688.2166
4032.173, 691.0685
4034.101, 690.3015
4036.030, 688.4870
4037.958, 687.9867
4039.887, 692.6008
4041.815, 693.3165
4043.744, 691.7679
4045.672, 694.4290
4047.601, 694.1337
4049.529, 691.9914
4051.458, 691.7501
4053.386, 691.0397
4055.314, 691.3498
4057.243, 690.4451
4059.171, 689.5986
4061.100, 691.0413
4063.028, 693.7322
4064.957, 694.2336
4066.885, 694.1594
4068.814, 695.0464
4070.742, 692.2644
4072.671, 691.3344
4074.599, 695.3607
4076.528, 697.5433
4078.456, 694.4711
4080.385, 693.6057
4082.313, 695.2153
4084.241, 694.6918
4086.170, 695.2032
4088.098, 694.8377
4090.027, 694.9184
4091.955, 696.6927
4093.884, 698.5607
4095.812, 697.5637
4097.741, 700.5037
4099.669, 695.9415
4101.598, 695.5308
4103.526, 694.4794
4105.455, 693.8824
4107.383, 694.9961
4109.312, 695.0773
4111.240, 698.6722
4113.168, 696.9525
4115.097, 698.4707
4117.025, 699.3943
4118.954, 698.3818
4120.882, 699.3142
4122.811, 698.0869
4124.739, 696.6765
4126.668, 698.0816
4128.596, 699.8976
4130.525, 701.8195
4132.453, 703.3904
4134.382, 705.5894
4136.310, 705.0739
4138.239, 700.6619
4140.167, 699.4269
4142.096, 699.7190
4144.024, 700.4240
4145.953, 700.7920
4147.881, 700.4026
4149.810, 699.6660
4151.738, 699.8898
4153.667, 700.5473
4155.595, 701.0717
4157.523, 703.4111
4159.452, 702.9529
4161.380, 705.7897
4163.309, 706.4418
4165.237, 705.3790
4167.166, 703.9742
4169.094, 702.5684
4171.022, 701.7564
4172.951, 702.5385
4174.879, 703.5710
4176.808, 705.7050
4178.736, 711.4812
4180.665, 714.7305
4182.593, 704.7557
4184.522, 700.6819
4186.450, 705.8613
4188.379, 710.0095
4190.307, 712.1497
4192.236, 709.4062
4194.164, 708.5099
4196.093, 710.8746
4198.021, 713.6016
4199.950, 714.6497
4201.878, 711.4262
4203.807, 708.1682
4205.735, 705.9287
4207.664, 708.2948
4209.592, 710.5438
4211.521, 707.9495
4213.449, 706.6270
4215.377, 707.2333
4217.306, 707.7365
4219.234, 709.3561
4221.163, 709.5161
4223.091, 714.2667
4225.020, 711.0387
4226.948, 714.4861
4228.876, 716.6345
4230.805, 712.0721
4232.733, 711.6267
4234.662, 714.6830
4236.590, 717.3806
4238.519, 718.5781
4240.447, 717.6137
4242.376, 717.5823
4244.304, 718.6723
4246.233, 722.1688
4248.161, 724.2196
4250.090, 723.5776
4252.018, 723.3834
4253.947, 722.8520
4255.875, 720.0875
4257.804, 718.9869
4259.732, 720.4284
4261.661, 716.9680
4263.589, 712.8207
4265.518, 710.9602
4267.446, 713.4745
4269.375, 719.4568
4271.303, 721.3749
4273.231, 722.9252
4275.160, 726.9132
4277.088, 726.7766
4279.017, 728.0855
4280.945, 726.7132
4282.874, 728.5430
4284.802, 727.5961
4286.730, 727.6048
4288.659, 727.1107
4290.587, 722.3908
4292.516, 719.3583
4294.444, 719.3764
4296.373, 724.9255
4298.301, 729.6553
4300.230, 727.3256
4302.158, 723.2119
4304.087, 719.1107
4306.015, 723.1091
4307.944, 725.7410
4309.872, 721.2762
4311.801, 722.4456
4313.729, 725.4283
4315.658, 716.9940
4317.586, 713.6697
4319.515, 719.8828
4321.443, 720.8894
4323.372, 721.0429
4325.300, 727.0710
4327.229, 728.0782
4329.157, 724.0123
4331.085, 723.5394
4333.014, 724.2873
4334.942, 724.6924
4336.871, 728.7059
4338.799, 732.4463
4340.728, 723.4423
4342.656, 718.8353
4344.584, 723.0541
4346.513, 729.1784
4348.441, 731.4952
4350.370, 733.1445
4352.298, 720.1456
4354.227, 731.4776
4356.155, 725.0138
4358.084, 718.7146
4360.012, 723.5799
4361.941, 725.5124
4363.869, 725.7635
4365.798, 728.4650
4367.726, 729.1351
4369.655, 726.5688
4371.583, 719.8569
4373.512, 716.0457
4375.440, 724.6914
4377.369, 729.3891
4379.297, 728.9333
4381.226, 718.3860
4383.154, 714.0504
4385.083, 723.4020
4387.011, 726.4574
4388.939, 726.0236
4390.868, 724.8686
4392.796, 722.5543
4394.725, 720.1484
4396.653, 720.7267
4398.582, 721.1115
4400.510, 722.9407
4402.438, 723.8103
4404.367, 727.4412
4406.295, 726.9622
4408.224, 723.9377
4410.152, 719.8793
4412.081, 722.5048
4414.009, 724.6165
4415.938, 721.5930
4417.866, 720.3387
4419.795, 720.5319
4421.723, 721.3322
4423.652, 721.4561
4425.580, 720.8123
4427.509, 721.8651
4429.437, 722.6723
4431.366, 721.4445
4433.294, 721.0489
4435.223, 721.2006
4437.151, 721.4344
4439.080, 721.1712
4441.008, 720.3837
4442.937, 719.6852
4444.865, 720.8651
4446.793, 725.8566
4448.722, 721.9294
4450.650, 715.0657
4452.579, 718.7667
4454.507, 720.7639
4456.436, 719.5114
4458.364, 722.8420
4460.292, 724.7838
4462.221, 721.0585
4464.149, 715.5413
4466.078, 711.6251
4468.006, 716.5335
4469.935, 719.4639
4471.863, 718.8994
4473.792, 717.2684
4475.720, 717.5629
4477.649, 721.7340
4479.577, 723.7350
4481.506, 723.3572
4483.434, 719.2672
4485.363, 717.6844
4487.291, 719.0408
4489.220, 723.5710
4491.148, 725.8225
4493.077, 723.8532
4495.005, 720.1194
4496.934, 717.7029
4498.862, 721.3523
4500.791, 720.8959
4502.719, 717.4905
4504.647, 715.3339
4506.576, 715.3037
4508.504, 712.8741
4510.433, 714.1801
4512.361, 711.7162
4514.290, 713.9334
4516.218, 716.5684
4518.146, 719.1589
4520.075, 721.1957
4522.003, 724.4594
4523.932, 728.2229
4525.860, 729.7410
4527.789, 727.1173
4529.717, 726.6367
4531.646, 724.0854
4533.574, 720.8953
4535.503, 718.6139
4537.431, 716.4197
4539.360, 715.4495
4541.288, 715.2282
4543.217, 715.7729
4545.145, 716.9799
4547.074, 718.7762
4549.002, 721.3243
4550.931, 723.2629
4552.859, 724.4175
4554.788, 724.5373
4556.716, 722.4738
4558.645, 723.1469
4560.573, 724.9537
4562.501, 722.5950
4564.430, 720.6124
4566.358, 719.6661
4568.287, 714.7591
4570.215, 715.3632
4572.144, 726.7880
4574.072, 727.0218
4576.000, 723.1002
4577.929, 723.7809
4579.857, 721.8708
4581.786, 718.6536
4583.714, 717.8643
4585.643, 719.3258
4587.571, 722.2221
4589.500, 721.9072
4591.428, 721.2545
4593.357, 721.4605
4595.285, 717.1261
4597.214, 714.5286
4599.142, 721.4703
4601.071, 725.1597
4602.999, 726.2142
4604.928, 726.2766
4606.856, 725.6390
4608.785, 724.5607
4610.713, 723.8149
4612.642, 722.7374
4614.570, 721.1266
4616.499, 717.4724
4618.427, 716.0073
4620.355, 720.5396
4622.284, 723.9366
4624.212, 723.0180
4626.141, 712.0403
4628.069, 712.0604
4629.998, 719.2184
4631.926, 724.4979
4633.854, 723.6785
4635.783, 718.4337
4637.711, 718.1982
4639.640, 721.4064
4641.568, 727.6707
4643.497, 724.2107
4645.425, 721.1562
4647.354, 723.9290
4649.282, 725.3088
4651.211, 725.9039
4653.139, 726.5732
4655.068, 727.3032
4656.996, 728.0645
4658.925, 729.3618
4660.853, 728.9875
4662.782, 727.6644
4664.710, 729.9042
4666.639, 728.4699
4668.567, 723.3772
4670.496, 727.2398
4672.424, 730.2286
4674.353, 727.3433
4676.281, 723.3096
4678.209, 722.0651
4680.138, 726.7787
4682.066, 728.8664
4683.995, 728.8215
4685.923, 727.0470
4687.852, 727.0093
4689.780, 727.6628
4691.708, 726.2240
4693.637, 725.9746
4695.565, 726.5264
4697.494, 724.1535
4699.422, 723.4451
4701.351, 725.1027
4703.279, 727.5877
4705.208, 729.6889
4707.136, 730.9352
4709.065, 727.3881
4710.993, 725.6248
4712.922, 729.1700
4714.850, 728.3403
4716.779, 725.6786
4718.707, 722.3967
4720.636, 727.0091
4722.564, 732.8017
4724.493, 730.2305
4726.421, 730.2653
4728.350, 731.6367
4730.278, 729.5859
4732.207, 729.4397
4734.135, 731.1268
4736.063, 733.5501
4737.992, 731.8654
4739.920, 727.3646
4741.849, 732.1716
4743.777, 737.2654
4745.706, 739.3715
4747.634, 731.7610
4749.563, 727.2059
4751.491, 731.3262
4753.419, 728.2608
4755.348, 726.1617
4757.276, 729.0272
4759.205, 732.0477
4761.133, 734.0756
4763.062, 734.4446
4764.990, 734.0576
4766.919, 732.7984
4768.847, 730.1303
4770.776, 730.9008
4772.704, 732.2543
4774.633, 730.1309
4776.561, 726.7971
4778.490, 725.9026
4780.418, 735.2977
4782.347, 739.0214
4784.275, 737.1064
4786.204, 730.2728
4788.132, 731.2001
4790.061, 736.5869
4791.989, 731.5851
4793.917, 727.6770
4795.846, 727.2137
4797.774, 733.0094
4799.703, 733.5076
4801.631, 729.4594
4803.560, 739.4922
4805.488, 742.1673
4807.417, 733.5385
4809.345, 734.8499
4811.273, 732.3083
4813.202, 724.3828
4815.130, 737.0498
4817.059, 743.5596
4818.987, 733.2953
4820.916, 734.8336
4822.844, 735.5807
4824.773, 731.0817
4826.701, 738.6943
4828.630, 743.6063
4830.558, 737.4006
4832.487, 736.2441
4834.415, 736.4226
4836.344, 735.8215
4838.272, 734.1920
4840.201, 733.3906
4842.129, 734.8582
4844.058, 734.6659
4845.986, 735.0035
4847.915, 737.3812
4849.843, 735.8515
4851.771, 732.5507
4853.700, 728.6157
4855.628, 731.8362
4857.557, 735.9396
4859.485, 736.4969
4861.414, 729.7765
4863.342, 724.8992
4865.271, 729.9194
4867.199, 737.3967
4869.127, 741.0496
4871.056, 735.3748
4872.984, 736.9963
4874.913, 739.6010
4876.841, 736.3685
4878.770, 740.6601
4880.698, 744.3058
4882.627, 739.7112
4884.555, 735.3758
4886.484, 734.1257
4888.412, 738.5270
4890.341, 738.1989
4892.269, 736.0645
4894.198, 734.4447
4896.126, 736.4911
4898.055, 738.1985
4899.983, 736.3562
4901.912, 734.4954
4903.840, 733.6374
4905.769, 735.2688
4907.697, 732.3842
4909.625, 730.1530
4911.554, 732.0308
4913.482, 728.1033
4915.411, 725.3345
4917.339, 730.0153
4919.268, 728.6547
4921.196, 726.9796
4923.125, 728.0099
4925.053, 727.2333
4926.981, 726.9393
4928.910, 728.5791
4930.838, 728.5779
4932.767, 728.7043
4934.695, 729.7125
4936.624, 731.2441
4938.552, 729.2675
4940.481, 722.8697
4942.409, 720.9344
4944.338, 722.8647
4946.266, 727.5742
4948.195, 728.3770
4950.123, 728.3378
4952.052, 728.1804
4953.980, 726.0723
4955.909, 725.0837
4957.837, 725.6843
4959.766, 726.5128
4961.694, 726.6223
4963.623, 726.2336
4965.551, 726.7894
4967.479, 726.6757
4969.408, 725.6514
4971.336, 723.6635
4973.265, 720.5239
4975.193, 718.4905
4977.122, 722.7156
4979.050, 723.9643
4980.979, 723.0508
4982.907, 722.0753
4984.835, 721.6742
4986.764, 722.1388
4988.692, 723.5925
4990.621, 730.3915
4992.549, 733.5829
4994.478, 723.2735
4996.406, 718.0657
4998.335, 715.6615
5000.263, 714.6005
5002.192, 723.3604
5004.120, 726.4826
5006.049, 717.9821
5007.977, 723.8167
5009.906, 727.5956
5011.834, 724.4039
5013.763, 725.2016
5015.691, 727.9100
5017.620, 730.1309
5019.548, 725.0824
5021.477, 720.8210
5023.405, 718.7815
5025.333, 717.7801
5027.262, 721.6476
5029.190, 725.9426
5031.119, 722.2936
5033.047, 719.6718
5034.976, 719.2156
5036.904, 722.4717
5038.833, 721.6448
5040.761, 719.6381
5042.689, 718.7175
5044.618, 719.1786
5046.546, 720.2928
5048.475, 721.4938
5050.403, 716.5153
5052.332, 715.2563
5054.260, 719.5265
5056.189, 718.1879
5058.117, 717.0945
5060.046, 717.8450
5061.974, 722.4945
5063.903, 722.8092
5065.831, 720.0790
5067.760, 718.0992
5069.688, 719.0230
5071.617, 720.1367
5073.545, 718.3597
5075.474, 717.1932
5077.402, 715.5189
5079.331, 712.1946
5081.259, 709.1413
5083.188, 712.0526
5085.116, 720.6948
5087.044, 717.7833
5088.973, 716.9121
5090.901, 720.0787
5092.830, 721.8469
5094.758, 717.4122
5096.687, 712.1940
5098.615, 717.5406
5100.543, 719.9979
5102.472, 720.9551
5104.400, 723.9374
5106.329, 719.2354
5108.257, 715.4691
5110.186, 718.1212
5112.114, 722.7182
5114.043, 723.7963
5115.971, 720.4994
5117.900, 715.9016
5119.828, 714.5425
5121.757, 716.2292
5123.685, 718.8598
5125.614, 719.6561
5127.542, 719.9570
5129.471, 721.8881
5131.399, 719.9781
5133.328, 718.0330
5135.256, 718.9656
5137.185, 716.1823
5139.113, 714.9401
5141.042, 716.6589
5142.970, 718.0523
5144.898, 717.7629
5146.827, 716.1120
5148.755, 712.5100
5150.684, 717.6393
5152.612, 723.3170
5154.541, 719.0832
5156.469, 715.9831
5158.397, 713.6784
5160.326, 711.9857
5162.254, 713.5180
5164.183, 714.4351
5166.111, 713.7811
5168.040, 711.8889
5169.968, 710.7623
5171.897, 712.4389
5173.825, 720.4879
5175.754, 717.6486
5177.682, 712.0447
5179.611, 710.8268
5181.539, 708.5116
5183.468, 707.3281
5185.396, 707.5334
5187.325, 703.9962
5189.253, 705.2250
5191.182, 709.5831
5193.110, 711.4876
5195.039, 712.4619
5196.967, 711.9731
5198.896, 708.6902
5200.824, 711.5113
5202.752, 714.6985
5204.681, 716.1312
5206.609, 719.1442
5208.538, 716.7901
5210.466, 710.9784
5212.395, 705.3680
5214.323, 711.1038
5216.251, 715.8713
5218.180, 708.5527
5220.108, 709.5513
5222.037, 709.7408
5223.965, 706.8270
5225.894, 706.2563
5227.822, 704.5023
5229.751, 703.2384
5231.679, 706.7866
5233.608, 708.2629
5235.536, 710.4043
5237.465, 714.6801
5239.393, 709.4058
5241.322, 703.2957
5243.250, 699.4822
5245.179, 698.2071
5247.107, 700.4244
5249.036, 703.4159
5250.964, 703.6947
5252.893, 706.2467
5254.821, 707.6049
5256.750, 706.1108
5258.678, 701.4786
5260.606, 699.3528
5262.535, 700.2058
5264.463, 703.9813
5266.392, 701.7350
5268.320, 699.6951
5270.249, 702.4592
5272.177, 701.3174
5274.105, 699.7697
5276.034, 698.5792
5277.962, 696.1348
5279.891, 695.4441
5281.819, 694.6174
5283.748, 690.1646
5285.676, 692.0574
5287.605, 696.3658
5289.533, 699.3887
5291.462, 689.1580
5293.390, 689.0568
5295.319, 694.3678
5297.247, 693.8111
5299.176, 693.8763
5301.104, 692.5385
5303.033, 689.3790
5304.961, 691.7986
5306.890, 693.7303
5308.818, 692.6341
5310.747, 686.0712
5312.675, 686.9584
5314.604, 689.4765
5316.532, 689.4213
5318.460, 685.9727
5320.389, 682.1841
5322.317, 680.6107
5324.246, 685.0007
5326.174, 683.3135
5328.103, 684.6168
5330.031, 692.8826
5331.959, 686.7953
5333.888, 683.7324
5335.816, 684.6609
5337.745, 681.7614
5339.673, 683.2669
5341.602, 683.2208
5343.530, 678.0784
5345.459, 671.7943
5347.387, 671.3862
5349.316, 674.7208
5351.244, 675.6476
5353.173, 678.1201
5355.101, 678.2554
5357.030, 674.4708
5358.958, 677.7901
5360.887, 678.3232
5362.815, 675.6640
5364.744, 672.5334
5366.672, 668.0567
5368.601, 668.1133
5370.529, 673.5098
5372.458, 672.0652
5374.386, 667.8578
5376.314, 665.5789
5378.243, 670.5211
5380.171, 673.4708
5382.100, 671.3508
5384.028, 666.0768
5385.957, 668.1336
5387.885, 672.2049
5389.813, 672.4343
5391.742, 663.8673
5393.670, 665.2861
5395.599, 669.0179
5397.527, 670.4877
5399.456, 664.7818
5401.384, 661.7877
5403.313, 661.8605
5405.241, 663.5914
5407.170, 659.6602
5409.098, 660.0306
5411.027, 662.6279
5412.955, 660.6660
5414.884, 659.0745
5416.812, 654.6376
5418.741, 648.9633
5420.669, 657.3845
5422.598, 655.4395
5424.526, 651.6184
5426.455, 656.3319
5428.383, 658.5632
5430.312, 659.1425
5432.240, 657.4872
5434.168, 648.8713
5436.097, 651.5842
5438.025, 656.3648
5439.954, 657.3099
5441.882, 653.0191
5443.811, 648.0978
5445.739, 646.1711
5447.667, 649.7014
5449.596, 652.3404
5451.524, 650.8895
5453.453, 647.5085
5455.381, 649.9600
5457.310, 647.8201
5459.238, 645.8065
5461.167, 646.4030
5463.095, 646.5086
5465.024, 647.0877
5466.952, 646.0191
5468.881, 641.4506
5470.809, 638.9560
5472.738, 639.0801
5474.666, 640.0945
5476.595, 638.3796
5478.523, 636.1313
5480.452, 638.7810
5482.380, 645.8033
5484.309, 644.3633
5486.237, 645.1744
5488.166, 643.8201
5490.094, 637.1205
5492.022, 638.8168
5493.951, 636.8085
5495.879, 633.8002
5497.808, 637.5437
5499.736, 633.3224
##END=



