##NAMES=Nissonite
##RRUFFID=R100068
##IDEAL CHEMISTRY=Cu_2_Mg_2_(PO_4_)_2_(OH)_2_·5H_2_O
##LOCALITY=Boss mine, Goodsprings district, Clark County, Nevada, USA
##OWNER=RRUFF
##SOURCE=Bob Jenkins
##DESCRIPTION=Pale blue bladed crystals associated with green malachite
##STATUS=The identification of this mineral has been confirmed by single-crystal X-ray diffraction
##URL=https://www.rruff.net/odr/rruff_sample/R100068
##DIFFRACTION SAMPLE DESCRIPTION=Single crystal, powder profile is calculated
##CELL PARAMETERS=a: 22.495 b: 5.015 c: 10.5 alpha: 90 beta: 99.7 gamma: 90 volume: 1167.6 crystal system: monoclinic
##FILETYPE=Raman Processed
##RAMAN WAVELENGTH=780

120.3477, 343.4420
122.2761, 344.0194
124.2046, 345.6390
126.1331, 348.3638
128.0615, 351.9969
129.9900, 354.5157
131.9185, 355.4595
133.8469, 356.4208
135.7754, 358.3760
137.7039, 359.5854
139.6323, 358.4522
141.5608, 355.4250
143.4893, 353.8892
145.4177, 355.0416
147.3462, 353.5597
149.2747, 346.8952
151.2031, 339.1224
153.1316, 332.4036
155.0601, 326.5190
156.9885, 320.7269
158.9170, 315.0088
160.8455, 309.3145
162.7739, 302.7193
164.7024, 297.6046
166.6309, 295.4813
168.5593, 295.3857
170.4878, 295.4786
172.4163, 295.7762
174.3447, 296.0460
176.2732, 296.2416
178.2017, 296.4216
180.1301, 296.6086
182.0586, 296.7797
183.9871, 297.0324
185.9155, 297.3350
187.8440, 297.0336
189.7725, 295.8427
191.7009, 294.7036
193.6294, 293.6450
195.5579, 293.0114
197.4863, 293.4495
199.4148, 294.6815
201.3433, 295.0240
203.2717, 294.1879
205.2002, 293.7047
207.1287, 294.0961
209.0571, 294.8176
210.9856, 296.2878
212.9141, 297.7130
214.8425, 297.1165
216.7710, 294.4870
218.6995, 292.1212
220.6279, 290.5846
222.5564, 289.1931
224.4849, 287.5006
226.4133, 286.0162
228.3418, 285.8102
230.2703, 286.4595
232.1987, 285.9520
234.1272, 283.2531
236.0557, 281.4842
237.9841, 281.9329
239.9126, 282.6708
241.8411, 282.3356
243.7695, 281.4569
245.6980, 281.2234
247.6265, 281.8251
249.5549, 281.6952
251.4834, 280.0424
253.4119, 278.4149
255.3403, 276.6950
257.2688, 275.6354
259.1973, 276.8289
261.1257, 279.5225
263.0542, 279.9657
264.9827, 276.3555
266.9111, 273.5765
268.8396, 272.2660
270.7681, 271.6262
272.6965, 271.7008
274.6250, 271.9518
276.5535, 271.6230
278.4819, 270.6476
280.4104, 269.6638
282.3389, 268.4141
284.2673, 267.6000
286.1958, 267.8057
288.1243, 268.0486
290.0527, 267.7082
291.9812, 266.8912
293.9097, 265.7054
295.8381, 263.6307
297.7666, 262.7074
299.6951, 263.9139
301.6235, 264.6730
303.5520, 263.8661
305.4805, 262.6081
307.4089, 261.7185
309.3374, 261.1580
311.2659, 260.7330
313.1943, 260.6359
315.1228, 260.1123
317.0513, 258.1656
318.9797, 257.4450
320.9082, 260.5563
322.8367, 264.2088
324.7651, 265.4136
326.6936, 264.4701
328.6221, 263.6319
330.5505, 262.9171
332.4790, 262.2086
334.4075, 261.3633
336.3359, 260.7695
338.2644, 260.6908
340.1929, 260.8759
342.1213, 261.4000
344.0498, 262.0964
345.9783, 261.4755
347.9067, 259.1930
349.8352, 258.1759
351.7637, 259.3904
353.6921, 260.8033
355.6206, 262.0883
357.5491, 262.7289
359.4775, 261.7567
361.4060, 259.6879
363.3345, 258.9403
365.2629, 259.5758
367.1914, 259.8036
369.1199, 259.1650
371.0483, 258.5773
372.9768, 258.3762
374.9053, 258.3156
376.8337, 258.1209
378.7622, 257.9395
380.6907, 258.3419
382.6191, 259.2647
384.5476, 259.6884
386.4761, 259.2933
388.4045, 258.9924
390.3330, 259.3670
392.2615, 259.5512
394.1899, 258.8000
396.1184, 257.7340
398.0469, 257.4336
399.9753, 257.7359
401.9038, 257.8631
403.8323, 257.6334
405.7607, 257.8416
407.6892, 259.8037
409.6177, 260.7123
411.5461, 258.5181
413.4746, 255.8507
415.4031, 255.7509
417.3315, 257.0625
419.2600, 256.7997
421.1885, 254.7959
423.1169, 253.9710
425.0454, 255.7168
426.9739, 256.9418
428.9023, 256.9243
430.8308, 256.5510
432.7593, 256.3233
434.6877, 256.0218
436.6162, 255.1437
438.5447, 253.9133
440.4731, 253.4782
442.4016, 254.2538
444.3301, 254.5946
446.2585, 253.7869
448.1870, 253.3954
450.1155, 254.2868
452.0439, 255.2314
453.9724, 255.2120
455.9009, 254.7594
457.8293, 254.5648
459.7578, 254.6346
461.6863, 254.9429
463.6147, 255.4352
465.5432, 256.2996
467.4717, 258.0932
469.4001, 259.4736
471.3286, 259.7240
473.2571, 259.7447
475.1855, 260.4374
477.1140, 261.2192
479.0425, 260.9466
480.9709, 259.5792
482.8994, 258.2572
484.8279, 256.4984
486.7563, 256.0803
488.6848, 258.2177
490.6133, 259.5482
492.5417, 258.1761
494.4702, 256.4590
496.3987, 256.0823
498.3271, 256.2673
500.2556, 255.6182
502.1841, 254.2415
504.1125, 253.9033
506.0410, 255.0177
507.9695, 255.0010
509.8979, 253.1321
511.8264, 251.6340
513.7549, 251.6389
515.6833, 251.5920
517.6118, 250.5383
519.5403, 249.1179
521.4688, 247.9379
523.3972, 247.0071
525.3257, 246.4765
527.2542, 246.3719
529.1826, 245.7758
531.1111, 244.3092
533.0396, 244.1319
534.9680, 246.7244
536.8965, 248.8525
538.8250, 249.0948
540.7534, 248.5957
542.6819, 247.6676
544.6104, 246.7638
546.5388, 246.8954
548.4673, 247.8195
550.3958, 248.0419
552.3242, 247.5567
554.2527, 246.9885
556.1812, 246.2597
558.1096, 246.0111
560.0381, 246.8125
561.9666, 247.6274
563.8950, 248.3159
565.8235, 248.6498
567.7520, 248.2206
569.6804, 247.4000
571.6089, 246.8896
573.5374, 246.5796
575.4658, 246.0992
577.3943, 245.4364
579.3228, 244.6640
581.2512, 243.7107
583.1797, 242.8892
585.1082, 242.7032
587.0366, 242.0324
588.9651, 239.6836
590.8936, 237.5945
592.8220, 237.3387
594.7505, 238.1256
596.6790, 239.3655
598.6074, 240.6223
600.5359, 240.4207
602.4644, 238.6916
604.3928, 237.6852
606.3213, 237.9709
608.2498, 237.9346
610.1782, 236.9860
612.1067, 236.4453
614.0352, 237.0414
615.9636, 237.5623
617.8921, 237.3208
619.8206, 236.7697
621.7490, 235.9925
623.6775, 235.3844
625.6060, 235.9041
627.5344, 237.3400
629.4629, 237.8132
631.3914, 237.0334
633.3198, 236.4179
635.2483, 236.3601
637.1768, 235.6553
639.1052, 233.5145
641.0337, 232.0060
642.9622, 231.8963
644.8906, 232.3291
646.8191, 233.3572
648.7476, 234.1614
650.6760, 233.9023
652.6045, 233.0476
654.5330, 232.2033
656.4614, 231.4492
658.3899, 231.4362
660.3184, 232.3247
662.2468, 232.4113
664.1753, 231.4409
666.1038, 230.8227
668.0322, 230.6094
669.9607, 231.1485
671.8892, 233.4379
673.8176, 234.7895
675.7461, 232.7365
677.6746, 230.7798
679.6030, 231.6351
681.5315, 233.1173
683.4600, 232.5545
685.3884, 230.8692
687.3169, 229.9653
689.2454, 229.8228
691.1738, 230.7202
693.1023, 230.1394
695.0308, 229.8886
696.9592, 230.4413
698.8877, 229.2690
700.8162, 229.9569
702.7446, 230.9825
704.6731, 232.3731
706.6016, 233.2080
708.5300, 232.9941
710.4585, 232.3979
712.3870, 231.5135
714.3154, 230.6892
716.2439, 230.0665
718.1724, 229.8481
720.1008, 230.7205
722.0293, 232.1757
723.9578, 232.7249
725.8862, 232.5125
727.8147, 232.3464
729.7432, 232.2490
731.6716, 231.3920
733.6001, 229.3667
735.5286, 228.2381
737.4570, 228.8278
739.3855, 229.3156
741.3140, 229.1248
743.2424, 229.2121
745.1709, 230.4908
747.0994, 231.2892
749.0278, 230.2902
750.9563, 228.9368
752.8848, 228.1795
754.8132, 227.9048
756.7417, 228.3595
758.6702, 228.9724
760.5986, 228.5328
762.5271, 227.4768
764.4556, 227.2883
766.3840, 227.9601
768.3125, 228.9015
770.2410, 230.2241
772.1694, 231.0307
774.0979, 231.0161
776.0264, 231.1166
777.9548, 231.4633
779.8833, 231.7443
781.8118, 232.2386
783.7402, 232.1466
785.6687, 230.9406
787.5972, 229.5741
789.5256, 227.7257
791.4541, 226.8330
793.3826, 228.7494
795.3110, 230.9556
797.2395, 231.4188
799.1680, 231.0680
801.0964, 230.9768
803.0249, 230.8636
804.9534, 230.0464
806.8818, 228.7627
808.8103, 227.6342
810.7388, 226.7389
812.6672, 227.2577
814.5957, 229.3706
816.5242, 230.2403
818.4526, 229.6332
820.3811, 229.4572
822.3096, 229.7990
824.2380, 230.4389
826.1665, 231.3144
828.0950, 232.7791
830.0234, 235.6301
831.9519, 236.7519
833.8804, 234.1837
835.8088, 231.9220
837.7373, 231.5222
839.6658, 231.8554
841.5942, 232.8888
843.5227, 233.8757
845.4512, 234.4224
847.3796, 234.7076
849.3081, 234.4745
851.2366, 234.4448
853.1650, 235.9847
855.0935, 237.7971
857.0220, 237.4962
858.9504, 238.7454
860.8789, 237.0096
862.8074, 238.7490
864.7358, 238.1935
866.6643, 236.0301
868.5928, 234.8321
870.5212, 234.5071
872.4497, 234.5011
874.3782, 234.7013
876.3066, 233.7869
878.2351, 231.6280
880.1636, 230.1307
882.0920, 229.4931
884.0205, 229.5518
885.9490, 230.7183
887.8774, 230.9082
889.8059, 228.8505
891.7344, 228.1404
893.6628, 230.8659
895.5913, 232.2614
897.5198, 230.7300
899.4482, 229.3407
901.3767, 228.9236
903.3052, 228.5346
905.2336, 227.5175
907.1621, 226.9883
909.0906, 228.1380
911.0190, 228.9081
912.9475, 228.0289
914.8760, 226.6598
916.8044, 225.0758
918.7329, 223.8492
920.6614, 223.5818
922.5898, 223.6780
924.5183, 224.0985
926.4468, 224.1456
928.3752, 222.9400
930.3037, 221.1827
932.2322, 219.4546
934.1606, 217.8494
936.0891, 216.2419
938.0176, 215.0239
939.9460, 215.3879
941.8745, 216.4182
943.8030, 215.6770
945.7314, 214.0501
947.6599, 214.6727
949.5884, 212.9636
951.5168, 215.2292
953.4453, 211.6624
955.3738, 210.9285
957.3022, 212.5926
959.2307, 213.4429
961.1592, 213.4912
963.0876, 212.5978
965.0161, 210.8274
966.9446, 210.9901
968.8730, 213.1163
970.8015, 214.3883
972.7300, 214.8072
974.6584, 213.7132
976.5869, 211.0647
978.5154, 209.9458
980.4438, 210.5201
982.3723, 210.4510
984.3008, 209.5562
986.2292, 210.3138
988.1577, 213.0271
990.0862, 214.1487
992.0146, 213.2283
993.9431, 212.8909
995.8716, 213.5033
997.8000, 213.5775
999.7285, 212.8863
1001.657, 212.0285
1003.585, 211.0075
1005.514, 210.3513
1007.442, 210.1275
1009.371, 210.4064
1011.299, 211.5243
1013.228, 211.2385
1015.156, 208.6570
1017.085, 207.4177
1019.013, 208.5957
1020.942, 208.9358
1022.870, 207.8872
1024.799, 206.3422
1026.727, 203.8214
1028.656, 202.6044
1030.584, 204.0566
1032.512, 203.7921
1034.441, 199.6599
1036.369, 197.9867
1038.298, 201.1833
1040.226, 202.7784
1042.155, 200.8111
1044.083, 200.2648
1046.012, 202.8098
1047.940, 204.1180
1049.869, 203.0822
1051.797, 202.5464
1053.726, 203.3180
1055.654, 203.2271
1057.583, 201.1027
1059.511, 200.3358
1061.439, 202.0350
1063.368, 202.9182
1065.296, 202.5004
1067.225, 202.1497
1069.153, 202.0796
1071.082, 201.5930
1073.010, 200.1196
1074.939, 200.0803
1076.867, 200.0584
1078.796, 199.8114
1080.724, 200.9855
1082.653, 200.0551
1084.581, 200.8369
1086.510, 200.6241
1088.438, 199.0988
1090.366, 197.6304
1092.295, 196.1317
1094.223, 196.2916
1096.152, 198.4731
1098.080, 198.7358
1100.009, 196.7856
1101.937, 195.9854
1103.866, 196.4511
1105.794, 196.5779
1107.723, 196.3358
1109.651, 196.6053
1111.580, 197.3108
1113.508, 196.6834
1115.437, 194.9414
1117.365, 194.4063
1119.293, 194.9040
1121.222, 195.3195
1123.150, 195.6682
1125.079, 196.2512
1127.007, 196.7397
1128.936, 195.5688
1130.864, 195.4453
1132.793, 193.0437
1134.721, 193.2530
1136.650, 191.6017
1138.578, 189.3682
1140.507, 188.9831
1142.435, 189.7220
1144.364, 191.1510
1146.292, 192.2559
1148.220, 191.0557
1150.149, 189.3473
1152.077, 189.1341
1154.006, 189.6133
1155.934, 190.3758
1157.863, 190.9359
1159.791, 190.6272
1161.720, 190.3437
1163.648, 191.1221
1165.577, 191.5448
1167.505, 190.1801
1169.434, 189.1618
1171.362, 190.1875
1173.291, 190.7617
1175.219, 189.5194
1177.147, 188.3123
1179.076, 187.6843
1181.004, 187.1087
1182.933, 186.0903
1184.861, 185.8960
1186.790, 187.3434
1188.718, 188.2117
1190.647, 188.1443
1192.575, 187.9987
1194.504, 187.9379
1196.432, 187.2338
1198.361, 185.5862
1200.289, 185.0532
1202.218, 185.7364
1204.146, 186.2446
1206.074, 186.5207
1208.003, 185.3912
1209.931, 186.3035
1211.860, 184.1263
1213.788, 186.4421
1215.717, 186.3679
1217.645, 185.0014
1219.574, 184.4067
1221.502, 184.3364
1223.431, 184.4189
1225.359, 184.8221
1227.288, 186.4997
1229.216, 187.5767
1231.145, 185.3798
1233.073, 183.4210
1235.001, 184.7840
1236.930, 185.6906
1238.858, 184.0951
1240.787, 182.5797
1242.715, 181.8166
1244.644, 181.6994
1246.572, 182.3332
1248.501, 183.1344
1250.429, 184.1548
1252.358, 184.0956
1254.286, 184.0160
1256.215, 182.1433
1258.143, 182.6245
1260.072, 182.1308
1262.000, 180.7944
1263.928, 180.7832
1265.857, 180.3427
1267.785, 181.3956
1269.714, 180.6079
1271.642, 181.0080
1273.571, 182.2551
1275.499, 184.7967
1277.428, 186.5193
1279.356, 184.0261
1281.285, 181.4021
1283.213, 182.3515
1285.142, 183.3550
1287.070, 181.9146
1288.999, 180.9530
1290.927, 182.1752
1292.855, 182.9487
1294.784, 182.5243
1296.712, 182.0086
1298.641, 181.0385
1300.569, 181.3835
1302.498, 183.5518
1304.426, 184.2098
1306.355, 183.3378
1308.283, 181.5343
1310.212, 179.3504
1312.140, 179.8129
1314.069, 178.7693
1315.997, 180.5643
1317.926, 179.1561
1319.854, 179.7891
1321.782, 181.0681
1323.711, 182.2692
1325.639, 182.7910
1327.568, 182.1773
1329.496, 181.6440
1331.425, 181.7258
1333.353, 181.0038
1335.282, 180.7150
1337.210, 180.5346
1339.139, 179.6615
1341.067, 180.0407
1342.996, 179.1591
1344.924, 178.7385
1346.853, 178.6273
1348.781, 178.2847
1350.709, 178.0498
1352.638, 179.0754
1354.566, 180.2675
1356.495, 180.3156
1358.423, 179.6748
1360.352, 177.9475
1362.280, 176.8118
1364.209, 177.1061
1366.137, 178.0738
1368.066, 180.1624
1369.994, 180.3159
1371.923, 177.8148
1373.851, 176.2289
1375.780, 175.8709
1377.708, 175.9981
1379.636, 176.5193
1381.565, 177.5112
1383.493, 178.6222
1385.422, 179.4311
1387.350, 179.9294
1389.279, 179.4791
1391.207, 178.8283
1393.136, 179.2597
1395.064, 179.2561
1396.993, 177.2361
1398.921, 176.0499
1400.850, 176.3485
1402.778, 177.3281
1404.707, 179.1854
1406.635, 179.6083
1408.563, 178.7047
1410.492, 178.0089
1412.420, 177.4638
1414.349, 176.7748
1416.277, 176.1948
1418.206, 176.0804
1420.134, 176.4680
1422.063, 177.4896
1423.991, 177.8042
1425.920, 176.7373
1427.848, 176.3184
1429.777, 177.2648
1431.705, 177.1142
1433.634, 177.0589
1435.562, 177.4053
1437.490, 176.7937
1439.419, 177.4452
1441.347, 177.3796
1443.276, 177.1350
1445.204, 176.7649
1447.133, 176.1607
1449.061, 175.2842
1450.990, 173.6723
1452.918, 173.3296
1454.847, 175.2260
1456.775, 175.5711
1458.704, 173.7547
1460.632, 173.0080
1462.561, 173.4381
1464.489, 174.0820
1466.417, 174.6542
1468.346, 174.6992
1470.274, 174.7323
1472.203, 175.5689
1474.131, 176.1206
1476.060, 175.6824
1477.988, 174.3460
1479.917, 173.9895
1481.845, 173.0008
1483.774, 171.8270
1485.702, 171.3395
1487.631, 169.9897
1489.559, 169.3367
1491.488, 169.2473
1493.416, 169.5550
1495.344, 170.0228
1497.273, 170.6915
1499.201, 171.2089
1501.130, 171.1243
1503.058, 170.6838
1504.987, 169.9161
1506.915, 170.3941
1508.844, 172.0803
1510.772, 171.1600
1512.701, 171.8211
1514.629, 169.7459
1516.558, 171.5074
1518.486, 171.4800
1520.415, 170.7812
1522.343, 169.1745
1524.271, 168.6931
1526.200, 168.0594
1528.128, 167.6486
1530.057, 167.8364
1531.985, 167.3469
1533.914, 167.4021
1535.842, 168.1077
1537.771, 167.2352
1539.699, 166.6869
1541.628, 166.2552
1543.556, 166.6692
1545.485, 167.4312
1547.413, 167.4830
1549.342, 166.9411
1551.270, 166.5126
1553.198, 167.6971
1555.127, 166.8405
1557.055, 168.2581
1558.984, 166.5135
1560.912, 166.7183
1562.841, 167.0775
1564.769, 166.6689
1566.698, 166.2088
1568.626, 165.8920
1570.555, 165.9174
1572.483, 166.4306
1574.412, 167.0285
1576.340, 167.1726
1578.269, 166.5385
1580.197, 165.6135
1582.125, 164.4668
1584.054, 163.9098
1585.982, 164.0811
1587.911, 164.6407
1589.839, 165.3104
1591.768, 164.4854
1593.696, 162.9786
1595.625, 162.9410
1597.553, 163.2278
1599.482, 162.9259
1601.410, 162.3448
1603.339, 161.2515
1605.267, 160.4248
1607.196, 159.5899
1609.124, 159.3423
1611.052, 159.8111
1612.981, 159.7980
1614.909, 159.4838
1616.838, 158.4096
1618.766, 157.5120
1620.695, 157.1226
1622.623, 157.0833
1624.552, 158.1826
1626.480, 159.0518
1628.409, 159.1209
1630.337, 158.1936
1632.266, 157.1072
1634.194, 155.4142
1636.123, 154.0934
1638.051, 154.7151
1639.979, 155.7717
1641.908, 157.0881
1643.836, 157.5928
1645.765, 157.0053
1647.693, 157.6218
1649.622, 158.2846
1651.550, 156.2652
1653.479, 154.0839
1655.407, 152.6401
1657.336, 152.4174
1659.264, 154.0884
1661.193, 154.4967
1663.121, 153.3811
1665.050, 152.8015
1666.978, 152.7317
1668.906, 152.5571
1670.835, 152.5928
1672.763, 152.3854
1674.692, 152.3540
1676.620, 153.3467
1678.549, 153.3909
1680.477, 152.2203
1682.406, 150.2917
1684.334, 149.0705
1686.263, 149.7823
1688.191, 150.1008
1690.120, 150.3872
1692.048, 150.8965
1693.977, 150.8087
1695.905, 150.6612
1697.833, 150.6200
1699.762, 150.5597
1701.690, 150.2135
1703.619, 148.6944
1705.547, 147.7846
1707.476, 147.7649
1709.404, 147.7215
1711.333, 148.1503
1713.261, 148.8192
1715.190, 148.6218
1717.118, 148.5081
1719.047, 146.3774
1720.975, 147.1177
1722.904, 146.5657
1724.832, 144.8257
1726.760, 144.5672
1728.689, 145.0868
1730.617, 144.7388
1732.546, 144.1590
1734.474, 144.3782
1736.403, 144.0360
1738.331, 142.4065
1740.260, 141.3825
1742.188, 140.8686
1744.117, 143.0114
1746.045, 145.5627
1747.974, 144.4769
1749.902, 142.8448
1751.831, 142.5182
1753.759, 141.9610
1755.688, 141.3053
1757.616, 142.2630
1759.544, 143.4149
1761.473, 142.8785
1763.401, 141.8126
1765.330, 141.2954
1767.258, 140.4827
1769.187, 139.2071
1771.115, 139.4986
1773.044, 140.4790
1774.972, 140.2449
1776.901, 139.5955
1778.829, 139.4351
1780.758, 139.3041
1782.686, 138.9188
1784.615, 138.1313
1786.543, 137.7428
1788.471, 137.7706
1790.400, 137.4427
1792.328, 137.7551
1794.257, 138.8654
1796.185, 139.0566
1798.114, 137.3325
1800.042, 135.9237
1801.971, 135.5760
1803.899, 135.3277
1805.828, 135.3904
1807.756, 135.4128
1809.685, 135.5546
1811.613, 135.8857
1813.542, 135.5277
1815.470, 135.6104
1817.398, 136.0095
1819.327, 135.0785
1821.255, 136.1758
1823.184, 135.4775
1825.112, 133.9871
1827.041, 132.5133
1828.969, 131.7398
1830.898, 132.4828
1832.826, 133.6549
1834.755, 133.5054
1836.683, 133.9386
1838.612, 133.2026
1840.540, 131.9055
1842.469, 131.3631
1844.397, 131.5150
1846.325, 130.6450
1848.254, 130.5652
1850.182, 130.0656
1852.111, 129.6430
1854.039, 129.8368
1855.968, 128.5342
1857.896, 127.1760
1859.825, 126.6814
1861.753, 127.1716
1863.682, 128.2954
1865.610, 128.7753
1867.539, 128.2140
1869.467, 127.7960
1871.396, 128.3137
1873.324, 127.7963
1875.252, 125.2582
1877.181, 123.9971
1879.109, 126.2128
1881.038, 127.6291
1882.966, 126.7080
1884.895, 125.0503
1886.823, 124.0346
1888.752, 123.2814
1890.680, 122.1502
1892.609, 122.0854
1894.537, 121.0376
1896.466, 120.6140
1898.394, 121.2840
1900.323, 122.6306
1902.251, 123.2336
1904.179, 123.3299
1906.108, 123.1823
1908.036, 121.8508
1909.965, 120.2846
1911.893, 120.4928
1913.822, 120.9129
1915.750, 121.2658
1917.679, 121.3557
1919.607, 121.1928
1921.536, 119.3790
1923.464, 117.4880
1925.393, 117.2831
1927.321, 117.7054
1929.250, 118.3893
1931.178, 118.9257
1933.106, 118.4988
1935.035, 117.3845
1936.963, 116.8001
1938.892, 116.0922
1940.820, 116.6881
1942.749, 118.1581
1944.677, 117.2183
1946.606, 115.8731
1948.534, 115.1984
1950.463, 114.0885
1952.391, 113.2196
1954.320, 113.9718
1956.248, 114.5366
1958.177, 114.2445
1960.105, 115.0700
1962.033, 117.1140
1963.962, 115.5650
1965.890, 112.0832
1967.819, 112.3024
1969.747, 113.2601
1971.676, 113.4808
1973.604, 112.8080
1975.533, 111.8276
1977.461, 112.0310
1979.390, 111.7266
1981.318, 111.3333
1983.247, 110.1803
1985.175, 110.7925
1987.104, 110.3256
1989.032, 110.0024
1990.960, 110.2249
1992.889, 110.5017
1994.817, 109.7407
1996.746, 107.7600
1998.674, 106.9906
2000.603, 107.1271
2002.531, 107.7176
2004.460, 107.9449
2006.388, 107.2042
2008.317, 107.1906
2010.245, 106.3800
2012.174, 104.9765
2014.102, 104.2415
2016.031, 104.3921
2017.959, 104.7289
2019.887, 105.2012
2021.816, 104.9409
2023.744, 104.8819
2025.673, 104.7614
2027.601, 104.3979
2029.530, 104.1530
2031.458, 104.3914
2033.387, 103.9945
2035.315, 104.3337
2037.244, 103.7642
2039.172, 103.6387
2041.101, 102.7769
2043.029, 103.0029
2044.958, 101.6566
2046.886, 101.0650
2048.814, 101.5683
2050.743, 101.8489
2052.671, 101.1785
2054.600, 99.95256
2056.528, 98.80390
2058.457, 99.07720
2060.385, 100.2504
2062.314, 100.5559
2064.242, 99.58054
2066.171, 99.12943
2068.099, 98.80236
2070.028, 97.63204
2071.956, 97.78622
2073.885, 98.62434
2075.813, 99.20996
2077.741, 97.71601
2079.670, 96.08327
2081.598, 97.33163
2083.527, 96.88232
2085.455, 94.19148
2087.384, 94.39135
2089.312, 96.17458
2091.241, 96.51579
2093.169, 95.92175
2095.098, 95.82654
2097.026, 96.99514
2098.955, 97.27485
2100.883, 95.78781
2102.812, 94.66045
2104.740, 92.72507
2106.668, 92.25920
2108.597, 92.62708
2110.525, 92.23422
2112.454, 93.10043
2114.382, 93.94671
2116.311, 93.85160
2118.239, 92.34605
2120.168, 90.77583
2122.096, 91.85592
2124.025, 92.53500
2125.953, 90.76900
2127.882, 89.61555
2129.810, 91.41338
2131.739, 91.74252
2133.667, 90.15586
2135.595, 89.83241
2137.524, 89.84435
2139.452, 89.50887
2141.381, 89.37324
2143.309, 89.47018
2145.238, 89.30419
2147.166, 88.03323
2149.095, 86.63693
2151.023, 86.25926
2152.952, 87.45634
2154.880, 86.63168
2156.809, 86.70426
2158.737, 86.74627
2160.666, 86.02925
2162.594, 86.09184
2164.522, 85.59348
2166.451, 84.97835
2168.379, 84.57703
2170.308, 84.48470
2172.236, 86.67393
2174.165, 84.96679
2176.093, 85.95590
2178.022, 87.25123
2179.950, 85.78568
2181.879, 84.92897
2183.807, 84.38413
2185.736, 83.50484
2187.664, 83.03808
2189.593, 82.35957
2191.521, 82.27029
2193.449, 81.43690
2195.378, 81.42014
2197.306, 81.65372
2199.235, 82.46080
2201.163, 83.02428
2203.092, 84.04373
2205.020, 83.76788
2206.949, 82.50451
2208.877, 82.13130
2210.806, 80.88400
2212.734, 80.15006
2214.663, 80.06828
2216.591, 79.98891
2218.520, 79.76964
2220.448, 78.10395
2222.376, 76.84998
2224.305, 77.29643
2226.233, 78.80406
2228.162, 77.86902
2230.090, 77.97585
2232.019, 80.25359
2233.947, 78.56514
2235.876, 78.80268
2237.804, 75.43581
2239.733, 77.20882
2241.661, 77.05950
2243.590, 76.17641
2245.518, 76.12366
2247.447, 75.63437
2249.375, 76.09952
2251.303, 74.98658
2253.232, 74.52298
2255.160, 74.41808
2257.089, 73.72128
2259.017, 73.30490
2260.946, 73.39822
2262.874, 72.83475
2264.803, 72.65498
2266.731, 72.39848
2268.660, 72.22047
2270.588, 72.36298
2272.517, 72.48270
2274.445, 73.11225
2276.374, 73.01344
2278.302, 74.32706
2280.230, 74.18971
2282.159, 71.64118
2284.087, 71.39279
2286.016, 72.09032
2287.944, 70.96739
2289.873, 70.82381
2291.801, 72.01187
2293.730, 72.12708
2295.658, 70.58064
2297.587, 68.93089
2299.515, 69.20967
2301.444, 69.67529
2303.372, 68.74233
2305.301, 67.95469
2307.229, 67.50972
2309.157, 67.26560
2311.086, 67.54235
2313.014, 67.32661
2314.943, 65.80283
2316.871, 66.68752
2318.800, 66.51044
2320.728, 68.30289
2322.657, 67.03802
2324.585, 67.24769
2326.514, 66.69968
2328.442, 66.15484
2330.371, 66.29198
2332.299, 65.13585
2334.228, 64.15102
2336.156, 65.24466
2338.084, 64.88228
2340.013, 63.26308
2341.941, 63.31349
2343.870, 64.18648
2345.798, 64.63975
2347.727, 64.85695
2349.655, 64.36191
2351.584, 63.14517
2353.512, 64.08611
2355.441, 65.26655
2357.369, 63.76851
2359.298, 61.49352
2361.226, 60.93518
2363.155, 61.79370
2365.083, 62.40311
2367.011, 62.66665
2368.940, 62.68529
2370.868, 61.69707
2372.797, 61.85135
2374.725, 60.54753
2376.654, 61.01105
2378.582, 60.69222
2380.511, 61.39530
2382.439, 61.90625
2384.368, 61.46230
2386.296, 59.67978
2388.225, 57.72329
2390.153, 58.59466
2392.082, 59.93914
2394.010, 60.05682
2395.938, 59.73878
2397.867, 59.31248
2399.795, 59.41618
2401.724, 59.37700
2403.652, 59.17023
2405.581, 59.06026
2407.509, 58.78414
2409.438, 58.35077
2411.366, 56.73927
2413.295, 57.28431
2415.223, 55.78887
2417.152, 55.04456
2419.080, 56.30241
2421.009, 56.16080
2422.937, 55.90083
2424.865, 55.59344
2426.794, 54.29638
2428.722, 53.51242
2430.651, 53.35254
2432.579, 53.55856
2434.508, 54.47010
2436.436, 55.14146
2438.365, 55.16798
2440.293, 55.22609
2442.222, 54.77614
2444.150, 54.06960
2446.079, 52.78503
2448.007, 51.09869
2449.936, 51.12578
2451.864, 50.49431
2453.792, 50.32336
2455.721, 50.65154
2457.649, 50.53369
2459.578, 50.92940
2461.506, 50.94437
2463.435, 49.66534
2465.363, 49.18769
2467.292, 49.86696
2469.220, 50.14638
2471.149, 49.60290
2473.077, 49.42871
2475.006, 48.69773
2476.934, 48.30990
2478.863, 48.37980
2480.791, 47.69727
2482.719, 48.70820
2484.648, 49.56852
2486.576, 49.40624
2488.505, 49.87744
2490.433, 49.06540
2492.362, 49.56194
2494.290, 49.26702
2496.219, 49.59167
2498.147, 48.89959
2500.076, 47.88884
2502.004, 47.58828
2503.933, 46.53916
2505.861, 45.63800
2507.790, 45.44504
2509.718, 45.44553
2511.646, 45.42905
2513.575, 45.12476
2515.503, 45.21101
2517.432, 46.41814
2519.360, 45.27635
2521.289, 45.29615
2523.217, 45.52665
2525.146, 44.15057
2527.074, 43.52068
2529.003, 43.14695
2530.931, 44.57242
2532.860, 45.32167
2534.788, 44.26121
2536.717, 43.13443
2538.645, 43.79757
2540.573, 44.76904
2542.502, 45.74925
2544.430, 45.09002
2546.359, 43.57003
2548.287, 42.52635
2550.216, 42.22532
2552.144, 41.66388
2554.073, 42.35075
2556.001, 42.60436
2557.930, 41.00884
2559.858, 41.85115
2561.787, 42.95150
2563.715, 43.41743
2565.644, 41.87346
2567.572, 41.07159
2569.500, 41.47942
2571.429, 42.55098
2573.357, 42.31189
2575.286, 41.84951
2577.214, 41.47472
2579.143, 39.44494
2581.071, 37.86300
2583.000, 38.91339
2584.928, 39.63771
2586.857, 39.52581
2588.785, 40.34402
2590.714, 40.27734
2592.642, 38.71668
2594.571, 39.22428
2596.499, 38.54433
2598.427, 38.76055
2600.356, 38.00448
2602.284, 39.35500
2604.213, 38.93975
2606.141, 38.59991
2608.070, 37.87676
2609.998, 37.31743
2611.927, 36.29911
2613.855, 35.91388
2615.784, 36.33398
2617.712, 37.24874
2619.641, 37.86628
2621.569, 37.62170
2623.498, 37.43559
2625.426, 36.48049
2627.354, 35.19376
2629.283, 36.81116
2631.211, 37.13234
2633.140, 36.30168
2635.068, 35.10479
2636.997, 34.49861
2638.925, 33.61813
2640.854, 33.71195
2642.782, 32.16787
2644.711, 32.51484
2646.639, 31.96209
2648.568, 31.80330
2650.496, 33.12273
2652.425, 32.68404
2654.353, 34.56068
2656.281, 36.71957
2658.210, 33.44969
2660.138, 31.76856
2662.067, 32.76428
2663.995, 32.99609
2665.924, 32.29841
2667.852, 31.65884
2669.781, 33.60426
2671.709, 34.40007
2673.638, 32.90279
2675.566, 29.94701
2677.495, 30.09734
2679.423, 31.06548
2681.352, 31.77524
2683.280, 31.78055
2685.208, 31.44288
2687.137, 31.92663
2689.065, 31.04135
2690.994, 30.40115
2692.922, 30.63232
2694.851, 30.30215
2696.779, 29.75264
2698.708, 29.12297
2700.636, 29.47463
2702.565, 29.83959
2704.493, 29.88631
2706.422, 28.86897
2708.350, 28.64429
2710.279, 29.14779
2712.207, 29.56359
2714.135, 28.95018
2716.064, 27.59767
2717.992, 26.64007
2719.921, 26.79688
2721.849, 27.55106
2723.778, 27.59048
2725.706, 27.67107
2727.635, 27.52118
2729.563, 27.03860
2731.492, 26.41041
2733.420, 26.17837
2735.349, 26.53400
2737.277, 26.92793
2739.206, 26.65600
2741.134, 26.86633
2743.063, 26.17014
2744.991, 26.62768
2746.919, 26.20784
2748.848, 25.74526
2750.776, 25.33785
2752.705, 25.02319
2754.633, 23.77055
2756.562, 24.55874
2758.490, 26.17358
2760.419, 25.85327
2762.347, 25.30637
2764.276, 24.62621
2766.204, 24.69108
2768.133, 24.55243
2770.061, 24.68010
2771.990, 25.30381
2773.918, 24.07667
2775.846, 23.77267
2777.775, 24.43051
2779.703, 22.51037
2781.632, 22.00353
2783.560, 22.81751
2785.489, 23.97894
2787.417, 24.04385
2789.346, 23.72852
2791.274, 24.56298
2793.203, 23.12549
2795.131, 21.21996
2797.060, 20.04005
2798.988, 20.47793
2800.917, 21.25906
2802.845, 21.68928
2804.773, 22.58792
2806.702, 22.61577
2808.630, 21.54251
2810.559, 21.95248
2812.487, 20.45413
2814.416, 21.63494
2816.344, 20.27526
2818.273, 20.36718
2820.201, 20.65736
2822.130, 20.38841
2824.058, 19.97705
2825.987, 19.73804
2827.915, 19.66063
2829.844, 18.89232
2831.772, 18.92715
2833.700, 19.40768
2835.629, 19.24064
2837.557, 18.84296
2839.486, 19.14629
2841.414, 19.00025
2843.343, 19.60415
2845.271, 18.82535
2847.200, 19.31451
2849.128, 18.59533
2851.057, 18.04749
2852.985, 18.17444
2854.914, 20.00679
2856.842, 18.00624
2858.771, 16.40706
2860.699, 20.39645
2862.627, 19.10227
2864.556, 17.79951
2866.484, 18.40239
2868.413, 19.06293
2870.341, 18.38047
2872.270, 17.12758
2874.198, 17.05292
2876.127, 15.85142
2878.055, 15.96348
2879.984, 19.14945
2881.912, 18.67457
2883.841, 18.38181
2885.769, 18.85176
2887.698, 17.77608
2889.626, 16.51694
2891.554, 15.96586
2893.483, 17.18399
2895.411, 17.54146
2897.340, 16.63942
2899.268, 14.67299
2901.197, 13.41559
2903.125, 14.05852
2905.054, 15.60162
2906.982, 15.05935
2908.911, 16.08480
2910.839, 16.53762
2912.768, 14.79419
2914.696, 14.89398
2916.625, 15.79989
2918.553, 16.17344
2920.481, 15.41660
2922.410, 14.75733
2924.338, 14.13575
2926.267, 12.89692
2928.195, 13.16100
2930.124, 13.58123
2932.052, 13.82559
2933.981, 15.23502
2935.909, 15.58011
2937.838, 15.03389
2939.766, 12.86502
2941.695, 11.47399
2943.623, 11.41044
2945.552, 12.24805
2947.480, 12.47794
2949.408, 13.94246
2951.337, 13.77815
2953.265, 14.27619
2955.194, 13.73320
2957.122, 13.74813
2959.051, 13.45549
2960.979, 12.98128
2962.908, 13.46995
2964.836, 12.29747
2966.765, 12.92177
2968.693, 13.19442
2970.622, 12.55813
2972.550, 10.96816
2974.479, 12.15991
2976.407, 11.97958
2978.335, 11.76179
2980.264, 13.12387
2982.192, 12.47608
2984.121, 12.71034
2986.049, 13.74132
2987.978, 12.87537
2989.906, 11.38046
2991.835, 10.82583
2993.763, 11.53969
2995.692, 11.78047
2997.620, 11.29817
2999.549, 10.27331
3001.477, 11.27782
3003.406, 10.89116
3005.334, 10.47672
3007.262, 11.21585
3009.191, 12.31470
3011.119, 11.37793
3013.048, 10.07723
3014.976, 12.28935
3016.905, 12.11703
3018.833, 10.83072
3020.762, 9.146733
3022.690, 9.706552
3024.619, 10.11415
3026.547, 10.65193
3028.476, 11.43085
3030.404, 11.05387
3032.333, 10.76552
3034.261, 10.51323
3036.189, 9.406304
3038.118, 9.049834
3040.046, 9.954385
3041.975, 11.42979
3043.903, 11.41100
3045.832, 9.736583
3047.760, 8.545354
3049.689, 9.712604
3051.617, 8.315986
3053.546, 9.668241
3055.474, 11.26201
3057.403, 9.054981
3059.331, 9.966129
3061.260, 10.75528
3063.188, 10.32823
3065.116, 8.202847
3067.045, 9.577387
3068.973, 10.25850
3070.902, 7.678219
3072.830, 9.781307
3074.759, 9.752890
3076.687, 8.096311
3078.616, 7.165975
3080.544, 6.411054
3082.473, 7.070699
3084.401, 6.738383
3086.330, 6.863822
3088.258, 7.659505
3090.187, 7.653008
3092.115, 8.761766
3094.043, 10.23117
3095.972, 10.09290
3097.900, 10.12791
3099.829, 5.885695
3101.757, 8.162610
3103.686, 6.707408
3105.614, 4.106573
3107.543, 4.382277
3109.471, 6.601267
3111.400, 6.649555
3113.328, 5.867011
3115.257, 8.259295
3117.185, 6.895390
3119.114, 6.839211
3121.042, 7.781162
3122.970, 5.036699
3124.899, 4.989024
3126.827, 5.286414
3128.756, 5.197710
3130.684, 5.921351
3132.613, 9.026006
3134.541, 10.04066
3136.470, 7.499239
3138.398, 4.803457
3140.327, 5.514162
3142.255, 6.952960
3144.184, 6.063568
3146.112, 5.223723
3148.041, 4.677319
3149.969, 5.376418
3151.897, 6.292136
3153.826, 6.156646
3155.754, 5.527996
3157.683, 5.529706
3159.611, 7.749823
3161.540, 6.768489
3163.468, 7.109031
3165.397, 7.419319
3167.325, 5.705903
3169.254, 6.680416
3171.182, 5.039809
3173.111, 7.437118
3175.039, 5.836107
3176.968, 6.391195
3178.896, 8.115933
3180.824, 8.696186
3182.753, 7.510988
3184.681, 6.276111
3186.610, 4.780794
3188.538, 4.113350
3190.467, 4.621843
3192.395, 3.702210
3194.324, 6.242284
3196.252, 4.092442
3198.181, 4.761298
3200.109, 6.898489
3202.038, 6.145509
3203.966, 3.979253
3205.895, 5.060002
3207.823, 4.744822
3209.751, 7.096215
3211.680, 8.524112
3213.608, 2.963291
3215.537, 3.209109
3217.465, 4.360864
3219.394, 5.266505
3221.322, 5.253489
3223.251, 6.053041
3225.179, 5.395719
3227.108, 4.732788
3229.036, 5.411056
3230.965, 4.960315
3232.893, 5.133049
3234.822, 4.979005
3236.750, 4.990512
3238.678, 5.064289
3240.607, 5.118073
3242.535, 5.055179
3244.464, 5.703107
3246.392, 5.493750
3248.321, 6.421472
3250.249, 6.964377
3252.178, 6.557240
3254.106, 7.371168
3256.035, 6.803512
3257.963, 6.056383
3259.892, 5.026238
3261.820, 5.184363
3263.749, 3.885478
3265.677, 5.014891
3267.605, 6.185709
3269.534, 3.007217
3271.462, 4.228190
3273.391, 5.293661
3275.319, 5.457899
3277.248, 6.126867
3279.176, 4.550956
3281.105, 7.016196
3283.033, 6.098655
3284.962, 7.350758
3286.890, 7.643898
3288.819, 7.266802
3290.747, 7.557912
3292.676, 6.636980
3294.604, 6.404675
3296.532, 4.887684
3298.461, 2.922452
3300.389, 2.354311
3302.318, 2.652394
3304.246, 5.171976
3306.175, 5.246497
3308.103, 4.514346
3310.032, 4.163867
3311.960, 4.014383
3313.889, 4.930465
3315.817, 3.945244
3317.746, 3.897307
3319.674, 4.598853
3321.603, 3.884273
3323.531, 4.968060
3325.459, 4.768325
3327.388, 6.343926
3329.316, 4.704161
3331.245, 4.946320
3333.173, 4.540176
3335.102, 2.566701
3337.030, 2.343931
3338.959, 2.152202
3340.887, 3.245219
3342.816, 4.765325
3344.744, 4.916633
3346.673, 4.451864
3348.601, 3.905234
3350.530, 3.616142
3352.458, 3.532167
3354.386, 3.138968
3356.315, 2.551244
3358.243, 2.870014
3360.172, 4.227879
3362.100, 3.472832
3364.029, 3.966610
3365.957, 2.898328
3367.886, 2.210217
3369.814, 1.526792
3371.743, 3.856135
3373.671, 5.627741
3375.600, 2.274117
3377.528, -1.306516
3379.457, 3.412273
3381.385, 3.829209
3383.313, 2.914739
3385.242, 3.181687
3387.170, 4.206841
3389.099, 2.760721
3391.027, 4.316764
3392.956, 2.924902
3394.884, 1.791068
3396.813, 5.054893
3398.741, 6.578176
3400.670, 6.036212
3402.598, 5.301642
3404.527, 4.273898
3406.455, 0.5848698
3408.384, 0.8543895
3410.312, 0.9788198
3412.240, 1.995783
3414.169, 2.132473
3416.097, 2.492195
3418.026, 2.664877
3419.954, 3.137643
3421.883, 2.748934
3423.811, 3.336622
3425.740, 0.7209349
3427.668, 4.017373
3429.597, 5.561022
3431.525, 3.807707
3433.454, 2.572414
3435.382, 4.215976
3437.311, 4.563268
3439.239, 2.940090
3441.167, 1.912777
3443.096, 2.381674
3445.024, 1.926923
3446.953, 3.537516
3448.881, 2.978106
3450.810, 4.685244
3452.738, 5.989978
3454.667, 6.180974
3456.595, 3.509812
3458.524, 1.396216
3460.452, 2.536413
3462.381, 4.396119
3464.309, 4.477128
3466.238, 3.276703
3468.166, 2.459979
3470.094, 2.989876
3472.023, 2.999722
3473.951, 2.856013
3475.880, 1.676667
3477.808, 1.921686
3479.737, 5.158711
3481.665, 2.813600
3483.594, 4.426437
3485.522, 3.149834
3487.451, 0.7188008
3489.379, 2.080582
3491.308, 4.626555
3493.236, 3.973051
3495.165, 3.884510
3497.093, 4.337191
3499.021, 3.606716
3500.950, 4.180863
3502.878, 3.245215
3504.807, 4.490603
3506.735, 5.210892
3508.664, 4.639473
3510.592, 5.634840
3512.521, 3.640649
3514.449, 5.268143
3516.378, 2.715712
3518.306, -0.1153324
3520.235, 1.123997
3522.163, 1.527984
3524.092, 2.174050
3526.020, 3.813847
3527.948, 5.411805
3529.877, 3.021610
3531.805, 3.574350
3533.734, 1.928103
3535.662, 5.3878531E-02
3537.591, -0.1980096
3539.519, -5.3379438E-03
3541.448, 2.381851
3543.376, 5.272260
3545.305, 3.574644
3547.233, 5.460832
3549.162, 2.870538
3551.090, 5.301870
3553.019, 3.270390
3554.947, 1.678880
3556.875, 0.5874460
3558.804, -1.416124
3560.732, -0.6308662
3562.661, -0.9723962
3564.589, 1.219628
3566.518, 0.7116444
3568.446, 1.836042
3570.375, 3.772828
3572.303, 2.700687
3574.232, 2.049737
3576.160, 0.2951303
3578.089, -0.8306652
3580.017, 3.496786
3581.946, 0.9350901
3583.874, 2.482102
3585.802, 1.326760
3587.731, -0.5262126
3589.659, 1.079591
3591.588, 0.3772897
3593.516, 1.100202
3595.445, 1.371595
3597.373, 1.711461
3599.302, 1.924033
3601.230, 1.084284
3603.159, 1.526657
3605.087, 3.650623
3607.016, 1.855535
3608.944, 1.935442
3610.873, 2.637848
3612.801, -0.5685140
3614.729, -0.2652863
3616.658, 2.276992
3618.586, 2.744340
3620.515, 2.027727
3622.443, 4.006235
3624.372, 2.346183
3626.300, 2.129538
3628.229, 1.927095
3630.157, 0.4214365
3632.086, -0.3957903
3634.014, -0.6406362
3635.943, -0.6546100
3637.871, -8.4665492E-02
3639.800, 1.032111
3641.728, 3.751777
3643.656, 6.126396
3645.585, 3.313722
3647.513, 1.184745
3649.442, 3.671248
3651.370, 4.440569
3653.299, 2.064285
3655.227, 6.1773181E-02
3657.156, 2.603513
3659.084, 4.766486
3661.013, 3.971914
3662.941, 1.809410
3664.870, 0.5828832
3666.798, 1.027114
3668.727, 3.4124609E-02
3670.655, 1.043019
3672.583, 0.9106939
3674.512, 1.721421
3676.440, 3.061887
3678.369, 2.203315
3680.297, 2.757427
3682.226, 2.688640
3684.154, 1.793175
3686.083, 2.275032
3688.011, 0.5661429
3689.940, 0.1114880
3691.868, 1.575305
3693.797, 1.879721
3695.725, 0.5900784
3697.654, -0.3265411
3699.582, 1.082632
3701.510, 4.255110
3703.439, 3.056205
3705.367, 2.527880
3707.296, 4.592941
3709.224, 2.413929
3711.153, -0.2059471
3713.081, 1.506376
3715.010, 0.5170714
3716.938, -0.8158559
3718.867, 4.000370
3720.795, 3.014630
3722.724, 0.6964169
3724.652, 1.944862
3726.581, 1.260186
3728.509, 1.144553
3730.438, 2.157894
3732.366, 2.263954
3734.294, 1.821692
3736.223, 1.448666
3738.151, 1.586877
3740.080, 4.587047
3742.008, 2.737499
3743.937, 3.675243
3745.865, 3.347061
3747.794, 2.244253
3749.722, 2.134314
3751.651, 1.057704
3753.579, 1.439304
3755.508, 3.601823
3757.436, 1.987775
3759.365, 2.126737
3761.293, 1.765846
3763.221, -0.3129625
3765.150, 2.194627
3767.078, 1.042083
3769.007, 2.394601
3770.935, 2.271571
3772.864, 2.352377
3774.792, 3.775035
3776.721, 3.259005
3778.649, 3.214780
3780.578, 4.597781
3782.506, 3.135965
3784.435, 2.979544
3786.363, 4.359899
3788.292, 3.817432
3790.220, -0.7650536
3792.148, 4.127639
3794.077, -0.9263104
3796.005, -0.3828743
3797.934, 2.168900
3799.862, 1.414012
3801.791, 0.1714638
3803.719, 0.2178526
3805.648, 0.8571450
3807.576, -1.441175
3809.505, -1.225394
3811.433, -0.6331698
3813.362, 1.071430
3815.290, 2.907542
3817.219, 0.2706977
3819.147, 0.9620836
3821.075, -0.7489118
3823.004, -0.9506975
3824.932, -0.9348031
3826.861, 3.527172
3828.789, -0.6686431
3830.718, 2.232729
3832.646, 3.214854
3834.575, 1.164403
3836.503, -0.8189267
3838.432, 0.2790987
3840.360, 0.8614210
3842.289, -2.0374980E-02
3844.217, 1.114079
3846.146, 1.854171
3848.074, 3.039162
3850.002, 2.434947
3851.931, 1.640205
3853.859, 1.735038
3855.788, 2.193360
3857.716, 3.186043
3859.645, 5.682464
3861.573, 4.179200
3863.502, 4.513715
3865.430, 1.884281
3867.359, 2.493658
3869.287, 1.219949
3871.216, -0.2144583
3873.144, 0.2210599
3875.073, -0.2911783
3877.001, 0.3710816
3878.929, 0.3371576
3880.858, 3.178347
3882.786, 4.017093
3884.715, 3.583838
3886.643, 4.071247
3888.572, 4.249294
3890.500, 3.385589
3892.429, 3.262226
3894.357, 1.770813
3896.286, 1.764640
3898.214, 1.177349
3900.143, 1.1317340E-02
3902.071, -0.2837670
3904.000, 1.758942
3905.928, 0.8232829
3907.856, 0.7106851
3909.785, 3.272851
3911.713, 2.909202
3913.642, 2.413033
3915.570, -0.4415741
3917.499, -2.518217
3919.427, 2.196912
3921.356, 0.7232690
3923.284, 3.130888
3925.213, 1.409336
3927.141, 1.951667
3929.070, 0.2231107
3930.998, 1.488386
3932.927, 3.748236
3934.855, 2.277431
3936.783, 4.034273
3938.712, -6.4398743E-02
3940.640, 0.1992712
3942.569, 3.2196999E-02
3944.497, 0.6321924
3946.426, 2.195749
3948.354, 0.8686572
3950.283, -1.875818
3952.211, -0.2776043
3954.140, 3.193667
3956.068, 1.682868
3957.997, 4.038136
3959.925, 1.816217
3961.854, 2.069042
3963.782, 0.3952285
3965.710, -0.9113953
3967.639, 1.132401
3969.567, 2.528225
3971.496, -1.110649
3973.424, 3.178719
3975.353, 2.502918
3977.281, 1.104737
3979.210, 2.173727
3981.138, 3.186786
3983.067, 3.791249
3984.995, 3.403180
3986.924, 1.772583
3988.852, 5.067163
3990.781, 3.191711
3992.709, 0.9836951
3994.637, 2.485011
3996.566, 0.9393570
3998.494, 1.847083
4000.423, 2.074514
4002.351, 1.761040
4004.280, 3.195560
4006.208, 1.333762
4008.137, 1.475215
4010.065, 1.405222
4011.994, 0.2072594
4013.922, 1.146057
4015.851, 0.7555704
4017.779, 0.9144449
4019.708, 3.112607
4021.636, 3.939559
4023.564, 1.708773
4025.493, 0.4907354
4027.421, 0.5009692
4029.350, -1.627627
4031.278, 1.264943
4033.207, -2.833994
4035.135, -2.519148
4037.064, 0.6608752
4038.992, 1.443257
4040.921, -0.6175506
4042.849, 0.4484061
4044.778, 5.237744
4046.706, 1.471270
4048.635, 2.780242
4050.563, 1.330829
4052.491, 0.9065749
4054.420, 1.384714
4056.348, 0.6253673
4058.277, 0.6783943
4060.205, 1.696570
4062.134, 6.3386314E-02
4064.062, 1.672778
4065.991, 1.728061
4067.919, 0.6710019
4069.848, 1.399821
4071.776, 1.016691
4073.705, -0.6842890
4075.633, 0.9876748
4077.562, 0.1667674
4079.490, 5.4691620E-02
4081.418, 1.771173
4083.347, 2.884364
4085.275, 5.387904
4087.204, 4.874830
4089.132, 3.678478
4091.061, 4.208384
4092.989, 2.708448
4094.918, 2.592460
4096.846, 2.305930
4098.774, 1.842250
4100.703, 2.200104
4102.632, 2.609426
4104.560, 2.863982
4106.488, 4.295974
4108.417, 0.7783635
4110.346, 0.3648349
4112.274, 3.160954
4114.202, 0.4705669
4116.131, 3.279841
4118.060, 1.532617
4119.988, 0.3457117
4121.916, 0.5623168
4123.845, 1.029523
4125.773, 0.4631565
4127.702, 0.6799291
4129.630, 0.2118182
4131.559, 0.4313780
4133.487, 0.2441221
4135.416, 6.9059327E-02
4137.344, -0.9726685
4139.272, 0.5228562
4141.201, 1.143680
4143.129, 2.892056
4145.058, 3.859115
4146.986, 3.722557
4148.915, 5.972288
4150.843, 6.537355
4152.771, 0.5378594
4154.700, 0.5854328
4156.629, 2.133140
4158.557, 1.427947
4160.485, 2.135430
4162.414, -0.1433656
4164.343, 1.029143
4166.271, 0.8038578
4168.199, 3.013453
4170.128, 2.764954
4172.057, 0.5684417
4173.985, 3.931042
4175.913, 5.806868
4177.842, 2.252468
4179.771, 4.494490
4181.699, 1.069512
4183.627, 2.288853
4185.556, 0.8711755
4187.484, 8.6042687E-02
4189.413, 8.6025782E-02
4191.341, 0.6611464
4193.270, 2.026524
4195.198, 2.564474
4197.126, 3.628436
4199.055, 3.519733
4200.983, 4.727561
4202.912, 2.909620
4204.840, 1.366347
4206.769, 2.346402
4208.697, 2.651604
4210.626, 4.214609
4212.554, 2.328029
4214.482, 2.288516
4216.411, 2.632674
4218.340, 2.454235
4220.268, 1.892265
4222.196, -0.1066874
4224.125, 0.4747964
4226.054, 0.2570616
4227.982, 0.3096171
4229.910, 1.695314
4231.839, 0.9309119
4233.768, 2.553378
4235.696, 1.929428
4237.624, 1.533105
4239.553, -2.179667
4241.481, 6.264145
4243.410, 1.083090
4245.338, 5.224227
4247.267, 6.346112
4249.195, 1.967519
4251.124, 4.109936
4253.052, 0.6662575
4254.980, 1.060478
4256.909, 4.806067
4258.837, 4.113552
4260.766, 1.718454
4262.694, 1.791177
4264.623, 0.7001989
4266.551, -9.0954036E-02
4268.479, 0.5280929
4270.408, -0.1379230
4272.337, 1.885192
4274.265, 4.152571
4276.193, 3.473501
4278.122, 5.352127
4280.051, 2.476620
4281.979, 5.830937
4283.907, 4.647563
4285.836, 2.229150
4287.765, 1.410386
4289.693, 2.304411
4291.621, 6.9262058E-02
4293.550, -1.008321
4295.479, 0.5769290
4297.407, 3.061192
4299.335, 3.745142
4301.264, 2.868346
4303.192, 1.576985
4305.121, -1.8884860E-02
4307.049, 0.8793247
4308.978, 4.032613
4310.906, 4.103928
4312.834, 8.060130
4314.763, 3.711484
4316.691, -1.704369
4318.620, 1.186562
4320.548, 0.7163867
4322.477, 3.349181
4324.405, -1.843915
4326.334, 6.149582
4328.262, -1.425140
4330.190, -0.3778288
4332.119, 2.601308
4334.048, -0.5199348
4335.976, 0.1399088
4337.904, 2.470759
4339.833, -0.6218364
4341.762, 0.8595330
4343.690, 4.955682
4345.618, 3.243477
4347.547, 2.370877
4349.476, 2.256849
4351.404, 2.406796
4353.332, 1.106830
4355.261, -1.554712
4357.189, 3.032753
4359.118, 4.864830
4361.046, 0.1207891
4362.975, -0.4620644
4364.903, 0.1181970
4366.832, 3.303164
4368.760, 1.388512
4370.688, 4.235204
4372.617, 2.202058
4374.545, 3.528454
4376.474, 2.397144
4378.402, 0.1989346
##END=



