##NAMES=Niter
##RRUFFID=R090001
##IDEAL CHEMISTRY=K(NO_3_)
##LOCALITY=Searcy County, Arkansas, USA
##OWNER=RRUFF
##SOURCE=James Shigley
##DESCRIPTION=Unconsolidated, granular fragments exhibiting a sandy color
##STATUS=The identification of this mineral has been confirmed by single-crystal X-ray diffraction
##URL=https://www.rruff.net/odr/rruff_sample/R090001
##DIFFRACTION SAMPLE DESCRIPTION=Single crystal, powder profile is calculated
##CELL PARAMETERS=a: 5.413 b: 9.173 c: 6.43 alpha: 90 beta: 90 gamma: 90 volume: 319.3 crystal system: orthorhombic
##FILETYPE=Raman Processed
##RAMAN WAVELENGTH=780

154.8877, 2529.085
156.8162, 2494.663
158.7446, 2462.555
160.6731, 2432.855
162.6016, 2405.613
164.5300, 2380.735
166.4585, 2358.673
168.3870, 2340.159
170.3154, 2323.591
172.2439, 2309.319
174.1724, 2296.132
176.1008, 2283.065
178.0293, 2270.324
179.9578, 2258.623
181.8862, 2248.240
183.8147, 2238.440
185.7432, 2229.056
187.6716, 2220.379
189.6001, 2212.416
191.5286, 2205.452
193.4570, 2200.065
195.3855, 2196.678
197.3140, 2192.946
199.2424, 2189.522
201.1709, 2184.536
203.0994, 2175.824
205.0278, 2166.403
206.9563, 2159.034
208.8848, 2153.822
210.8132, 2149.945
212.7417, 2149.635
214.6702, 2147.292
216.5986, 2139.120
218.5271, 2132.029
220.4556, 2132.120
222.3840, 2136.620
224.3125, 2136.167
226.2410, 2127.849
228.1694, 2120.793
230.0979, 2115.428
232.0264, 2110.595
233.9548, 2105.185
235.8833, 2100.426
237.8118, 2098.315
239.7402, 2099.092
241.6687, 2097.872
243.5972, 2093.781
245.5256, 2090.452
247.4541, 2090.421
249.3826, 2089.532
251.3110, 2084.280
253.2395, 2076.460
255.1680, 2071.191
257.0964, 2068.758
259.0249, 2066.354
260.9534, 2063.564
262.8818, 2061.379
264.8103, 2062.046
266.7388, 2061.953
268.6672, 2056.580
270.5957, 2046.908
272.5242, 2040.437
274.4526, 2037.353
276.3811, 2035.932
278.3096, 2037.052
280.2380, 2037.812
282.1665, 2036.072
284.0950, 2033.927
286.0234, 2035.160
287.9519, 2038.948
289.8804, 2038.946
291.8088, 2033.643
293.7373, 2029.029
295.6658, 2027.753
297.5942, 2026.505
299.5227, 2023.833
301.4512, 2020.148
303.3796, 2015.846
305.3081, 2011.062
307.2366, 2007.040
309.1650, 2004.978
311.0935, 2000.998
313.0220, 1991.744
314.9504, 1983.167
316.8789, 1979.702
318.8074, 1979.240
320.7358, 1977.563
322.6643, 1974.718
324.5928, 1972.778
326.5212, 1973.218
328.4497, 1972.267
330.3782, 1967.839
332.3066, 1963.418
334.2351, 1962.587
336.1636, 1962.947
338.0920, 1959.809
340.0205, 1953.043
341.9490, 1947.936
343.8774, 1946.554
345.8059, 1944.555
347.7344, 1940.514
349.6628, 1936.761
351.5913, 1935.148
353.5198, 1934.215
355.4482, 1932.144
357.3767, 1928.931
359.3052, 1925.369
361.2336, 1921.568
363.1621, 1917.625
365.0906, 1912.343
367.0190, 1908.234
368.9475, 1908.438
370.8760, 1909.167
372.8044, 1905.580
374.7329, 1897.890
376.6614, 1892.345
378.5898, 1889.063
380.5183, 1887.640
382.4468, 1889.964
384.3752, 1891.221
386.3037, 1888.554
388.2322, 1884.646
390.1606, 1881.437
392.0891, 1878.910
394.0176, 1876.955
395.9460, 1875.492
397.8745, 1874.891
399.8030, 1876.053
401.7314, 1876.278
403.6599, 1875.060
405.5884, 1871.850
407.5168, 1865.294
409.4453, 1857.319
411.3738, 1851.142
413.3022, 1846.790
415.2307, 1842.501
417.1592, 1838.126
419.0876, 1834.673
421.0161, 1832.982
422.9446, 1831.428
424.8730, 1829.089
426.8015, 1826.614
428.7300, 1824.433
430.6584, 1822.783
432.5869, 1822.227
434.5154, 1822.596
436.4438, 1822.218
438.3723, 1820.908
440.3008, 1819.194
442.2292, 1817.152
444.1577, 1814.900
446.0862, 1812.272
448.0146, 1809.651
449.9431, 1807.972
451.8716, 1806.789
453.8000, 1803.529
455.7285, 1798.141
457.6570, 1794.694
459.5854, 1795.004
461.5139, 1793.940
463.4424, 1788.667
465.3708, 1783.822
467.2993, 1781.852
469.2278, 1781.171
471.1563, 1780.467
473.0847, 1779.026
475.0132, 1774.785
476.9417, 1767.642
478.8701, 1763.758
480.7986, 1766.512
482.7271, 1767.134
484.6555, 1763.549
486.5840, 1758.582
488.5125, 1752.709
490.4409, 1746.879
492.3694, 1741.244
494.2979, 1736.253
496.2263, 1734.194
498.1548, 1735.313
500.0833, 1733.601
502.0117, 1725.609
503.9402, 1720.476
505.8687, 1721.975
507.7971, 1722.473
509.7256, 1718.059
511.6541, 1712.603
513.5825, 1709.388
515.5110, 1707.338
517.4395, 1704.833
519.3679, 1701.869
521.2964, 1698.889
523.2249, 1696.207
525.1533, 1692.331
527.0818, 1685.541
529.0103, 1681.042
530.9387, 1681.981
532.8672, 1682.303
534.7957, 1677.629
536.7241, 1672.099
538.6526, 1669.702
540.5811, 1669.188
542.5095, 1667.264
544.4380, 1664.010
546.3665, 1660.618
548.2949, 1656.617
550.2234, 1653.477
552.1519, 1652.199
554.0803, 1649.842
556.0088, 1643.889
557.9373, 1638.461
559.8657, 1635.654
561.7942, 1634.520
563.7227, 1635.203
565.6511, 1636.445
567.5796, 1634.113
569.5081, 1628.182
571.4365, 1624.853
573.3650, 1624.582
575.2935, 1623.588
577.2219, 1621.271
579.1504, 1618.387
581.0789, 1614.765
583.0073, 1610.934
584.9358, 1607.835
586.8643, 1604.316
588.7927, 1598.281
590.7212, 1591.079
592.6497, 1586.021
594.5781, 1583.152
596.5066, 1581.922
598.4351, 1582.376
600.3635, 1582.385
602.2920, 1581.939
604.2205, 1580.002
606.1489, 1575.021
608.0774, 1570.460
610.0059, 1567.728
611.9343, 1565.249
613.8628, 1561.256
615.7913, 1557.330
617.7197, 1556.578
619.6482, 1557.248
621.5767, 1554.789
623.5051, 1549.691
625.4336, 1545.997
627.3621, 1544.129
629.2905, 1542.562
631.2190, 1541.680
633.1475, 1539.949
635.0759, 1536.806
637.0044, 1533.645
638.9329, 1530.875
640.8613, 1527.856
642.7898, 1525.016
644.7183, 1521.481
646.6467, 1514.962
648.5752, 1507.615
650.5037, 1503.730
652.4321, 1502.968
654.3606, 1502.049
656.2891, 1500.893
658.2175, 1499.481
660.1460, 1499.110
662.0745, 1496.415
664.0029, 1489.013
665.9314, 1482.764
667.8599, 1479.408
669.7883, 1476.969
671.7168, 1474.321
673.6453, 1472.302
675.5737, 1472.257
677.5022, 1472.715
679.4307, 1471.022
681.3591, 1468.478
683.2876, 1469.041
685.2161, 1472.675
687.1445, 1478.071
689.0730, 1485.958
691.0015, 1493.455
692.9299, 1501.930
694.8584, 1505.192
696.7869, 1499.808
698.7153, 1494.831
700.6438, 1491.435
702.5723, 1492.320
704.5007, 1499.489
706.4292, 1511.102
708.3577, 1527.004
710.2861, 1546.068
712.2146, 1568.406
714.1431, 1592.299
716.0715, 1620.339
718.0000, 1647.477
719.9285, 1637.010
721.8569, 1589.839
723.7854, 1543.024
725.7139, 1497.021
727.6423, 1459.190
729.5708, 1430.740
731.4993, 1409.982
733.4277, 1398.063
735.3562, 1390.305
737.2847, 1387.691
739.2131, 1385.235
741.1416, 1380.938
743.0701, 1376.553
744.9985, 1373.684
746.9270, 1370.861
748.8555, 1365.521
750.7839, 1359.911
752.7124, 1358.681
754.6409, 1359.463
756.5693, 1355.753
758.4978, 1349.101
760.4263, 1345.718
762.3547, 1345.486
764.2832, 1344.992
766.2117, 1344.210
768.1401, 1341.942
770.0686, 1337.164
771.9971, 1332.947
773.9255, 1330.412
775.8540, 1327.358
777.7825, 1321.766
779.7109, 1318.271
781.6394, 1320.678
783.5679, 1322.046
785.4963, 1317.792
787.4248, 1313.184
789.3533, 1312.430
791.2817, 1312.037
793.2102, 1308.262
795.1387, 1303.619
797.0671, 1301.314
798.9956, 1300.143
800.9241, 1297.349
802.8525, 1293.431
804.7810, 1291.318
806.7095, 1291.149
808.6379, 1289.327
810.5664, 1285.471
812.4949, 1281.766
814.4233, 1277.846
816.3518, 1275.426
818.2803, 1274.846
820.2087, 1274.591
822.1372, 1274.975
824.0657, 1273.893
825.9941, 1269.762
827.9226, 1267.260
829.8511, 1269.414
831.7795, 1270.367
833.7080, 1266.528
835.6365, 1262.487
837.5649, 1261.866
839.4934, 1260.498
841.4219, 1254.562
843.3503, 1248.511
845.2788, 1246.598
847.2073, 1246.091
849.1357, 1243.544
851.0642, 1240.094
852.9927, 1237.718
854.9211, 1236.207
856.8496, 1235.587
858.7781, 1235.427
860.7065, 1233.697
862.6350, 1230.627
864.5635, 1228.385
866.4919, 1226.889
868.4204, 1224.561
870.3489, 1221.363
872.2773, 1219.333
874.2058, 1218.809
876.1343, 1216.278
878.0627, 1210.992
879.9912, 1206.528
881.9197, 1203.583
883.8481, 1201.035
885.7766, 1198.874
887.7051, 1196.037
889.6335, 1191.073
891.5620, 1187.833
893.4905, 1188.579
895.4189, 1188.571
897.3474, 1185.929
899.2759, 1183.424
901.2043, 1183.012
903.1328, 1181.676
905.0613, 1177.156
906.9897, 1172.257
908.9182, 1168.210
910.8467, 1165.335
912.7751, 1163.949
914.7036, 1163.294
916.6321, 1163.049
918.5605, 1162.783
920.4890, 1163.233
922.4175, 1162.843
924.3459, 1158.523
926.2744, 1153.286
928.2029, 1151.416
930.1313, 1150.750
932.0598, 1147.666
933.9883, 1143.750
935.9167, 1141.543
937.8452, 1140.245
939.7737, 1138.877
941.7021, 1137.428
943.6306, 1135.582
945.5591, 1133.187
947.4875, 1129.979
949.4160, 1126.578
951.3445, 1124.849
953.2729, 1124.499
955.2014, 1124.620
957.1299, 1125.123
959.0583, 1122.549
960.9868, 1116.815
962.9153, 1114.548
964.8438, 1116.025
966.7722, 1116.200
968.7007, 1114.906
970.6292, 1113.639
972.5576, 1112.521
974.4861, 1109.535
976.4146, 1104.248
978.3430, 1102.695
980.2715, 1105.797
982.2000, 1106.642
984.1284, 1104.274
986.0569, 1100.460
987.9854, 1095.507
989.9138, 1093.254
991.8423, 1093.988
993.7708, 1093.722
995.6992, 1092.144
997.6277, 1091.306
999.5562, 1091.564
1001.485, 1089.250
1003.413, 1083.377
1005.342, 1080.238
1007.270, 1081.027
1009.198, 1081.406
1011.127, 1080.749
1013.055, 1080.239
1014.984, 1078.652
1016.912, 1081.452
1018.841, 1084.960
1020.769, 1107.208
1022.698, 1149.130
1024.626, 1218.498
1026.555, 1335.391
1028.483, 1426.502
1030.412, 1484.481
1032.340, 1512.263
1034.269, 1490.201
1036.197, 1483.222
1038.125, 1471.783
1040.054, 1529.784
1041.982, 1675.820
1043.911, 1865.962
1045.839, 2107.355
1047.768, 2370.640
1049.696, 2728.042
1051.625, 2968.888
1053.553, 3141.452
1055.482, 3054.996
1057.410, 2569.722
1059.339, 2140.004
1061.267, 1780.566
1063.196, 1506.159
1065.124, 1333.559
1067.052, 1206.135
1068.981, 1126.608
1070.909, 1072.724
1072.838, 1047.646
1074.766, 1029.886
1076.695, 1019.438
1078.623, 1012.861
1080.552, 1010.484
1082.480, 1008.286
1084.409, 1006.019
1086.337, 1004.350
1088.266, 1003.104
1090.194, 1002.536
1092.123, 1003.356
1094.051, 1002.011
1095.979, 997.5999
1097.908, 993.4640
1099.836, 990.1718
1101.765, 988.8753
1103.693, 989.1642
1105.622, 987.6677
1107.550, 984.8211
1109.479, 982.9749
1111.407, 981.8988
1113.336, 980.8246
1115.264, 979.7910
1117.193, 978.5986
1119.121, 977.0844
1121.050, 975.1135
1122.978, 973.0734
1124.906, 971.5603
1126.835, 970.4426
1128.763, 969.8417
1130.692, 969.4745
1132.620, 968.3104
1134.549, 966.8424
1136.477, 965.9500
1138.406, 965.3558
1140.334, 966.0609
1142.263, 966.3993
1144.191, 962.6886
1146.120, 958.4060
1148.048, 957.9101
1149.977, 958.1234
1151.905, 955.4608
1153.833, 953.1531
1155.762, 954.8861
1157.690, 956.5677
1159.619, 955.0688
1161.547, 952.5908
1163.476, 949.6263
1165.404, 947.8681
1167.333, 949.3481
1169.261, 949.9618
1171.190, 947.0026
1173.118, 944.5660
1175.047, 944.8273
1176.975, 944.2585
1178.904, 941.2772
1180.832, 939.2857
1182.760, 939.4590
1184.689, 938.9594
1186.617, 936.9174
1188.546, 935.7750
1190.474, 936.3893
1192.403, 936.0954
1194.331, 934.4172
1196.260, 932.0626
1198.188, 928.9800
1200.117, 927.5242
1202.045, 927.8202
1203.974, 927.3903
1205.902, 925.8946
1207.831, 923.7488
1209.759, 921.5416
1211.688, 919.3788
1213.616, 917.0775
1215.544, 915.4227
1217.473, 914.3747
1219.401, 913.1212
1221.330, 912.1505
1223.258, 912.0599
1225.187, 912.1332
1227.115, 912.0864
1229.044, 911.8740
1230.972, 912.3543
1232.901, 911.4421
1234.829, 906.2449
1236.758, 903.3605
1238.686, 906.0946
1240.615, 906.4821
1242.543, 902.4692
1244.471, 899.3669
1246.400, 897.7561
1248.328, 896.1218
1250.257, 894.3934
1252.185, 894.3441
1254.114, 895.9479
1256.042, 895.2111
1257.971, 892.6137
1259.899, 891.7024
1261.828, 891.9722
1263.756, 892.6365
1265.685, 892.7560
1267.613, 890.3593
1269.542, 887.8984
1271.470, 887.5012
1273.398, 887.5887
1275.327, 888.1083
1277.255, 887.8954
1279.184, 884.9689
1281.112, 883.2598
1283.041, 885.2175
1284.969, 886.5314
1286.898, 886.5540
1288.826, 885.2306
1290.755, 881.4547
1292.683, 878.7721
1294.612, 877.4369
1296.540, 877.7001
1298.469, 879.5284
1300.397, 881.8295
1302.325, 884.2586
1304.254, 881.4681
1306.182, 875.8848
1308.111, 874.7187
1310.039, 875.8494
1311.968, 876.2393
1313.896, 876.5227
1315.825, 876.9902
1317.753, 878.0951
1319.682, 880.6329
1321.610, 883.2443
1323.539, 885.7520
1325.467, 887.4707
1327.396, 887.2670
1329.324, 888.1750
1331.252, 891.0177
1333.181, 896.4085
1335.109, 904.5117
1337.038, 911.6641
1338.966, 917.7762
1340.895, 927.1357
1342.823, 937.4053
1344.752, 942.4251
1346.680, 943.1047
1348.609, 938.9316
1350.537, 932.5436
1352.466, 925.2902
1354.394, 919.9369
1356.323, 919.5250
1358.251, 919.6327
1360.179, 920.6332
1362.108, 917.5966
1364.036, 908.4990
1365.965, 898.0938
1367.893, 887.0176
1369.822, 875.2618
1371.750, 863.1859
1373.679, 855.6658
1375.607, 851.5248
1377.536, 847.9402
1379.464, 845.1550
1381.393, 842.9093
1383.321, 840.3621
1385.250, 836.7545
1387.178, 834.1407
1389.106, 834.0244
1391.035, 832.9652
1392.963, 829.2827
1394.892, 827.2534
1396.820, 827.8526
1398.749, 827.1183
1400.677, 825.6559
1402.606, 823.0787
1404.534, 819.2083
1406.463, 817.6514
1408.391, 817.8704
1410.320, 817.6746
1412.248, 816.8507
1414.177, 815.5077
1416.105, 813.9944
1418.033, 812.1712
1419.962, 810.8422
1421.890, 810.1104
1423.819, 809.8508
1425.747, 810.3373
1427.676, 809.1461
1429.604, 806.2562
1431.533, 806.4847
1433.461, 808.3894
1435.390, 806.5445
1437.318, 803.6185
1439.247, 803.5546
1441.175, 803.5748
1443.104, 800.7350
1445.032, 798.8140
1446.960, 800.2322
1448.889, 800.4659
1450.817, 798.4716
1452.746, 796.3288
1454.674, 794.0800
1456.603, 793.1221
1458.531, 793.2751
1460.460, 791.9670
1462.388, 789.5700
1464.317, 787.1684
1466.245, 785.6228
1468.174, 785.9256
1470.102, 785.7147
1472.031, 784.0912
1473.959, 782.4243
1475.887, 780.2078
1477.816, 779.7795
1479.744, 780.9365
1481.673, 779.1823
1483.601, 775.8174
1485.530, 774.0743
1487.458, 772.9569
1489.387, 771.4104
1491.315, 769.9895
1493.244, 768.1782
1495.172, 766.3837
1497.101, 766.0030
1499.029, 765.0657
1500.958, 762.6436
1502.886, 761.2335
1504.814, 761.1384
1506.743, 760.6599
1508.671, 759.1344
1510.600, 755.9070
1512.528, 753.5145
1514.457, 754.9220
1516.385, 755.1024
1518.314, 751.5174
1520.242, 748.5328
1522.171, 747.1077
1524.099, 745.6268
1526.028, 743.9368
1527.956, 742.4406
1529.885, 741.4144
1531.813, 741.9831
1533.741, 742.1941
1535.670, 739.3963
1537.598, 737.2981
1539.527, 736.8118
1541.455, 736.1826
1543.384, 736.1243
1545.312, 736.0017
1547.241, 734.9648
1549.169, 733.0334
1551.098, 730.6299
1553.026, 727.8363
1554.955, 725.6895
1556.883, 725.2440
1558.812, 724.9532
1560.740, 725.1268
1562.668, 723.6398
1564.597, 719.7976
1566.525, 718.2048
1568.454, 718.7918
1570.382, 719.0762
1572.311, 718.3398
1574.239, 716.0712
1576.168, 713.8340
1578.096, 712.3823
1580.025, 711.1594
1581.953, 709.9392
1583.882, 708.8972
1585.810, 708.3453
1587.739, 706.3528
1589.667, 703.1876
1591.595, 699.4986
1593.524, 696.5774
1595.452, 696.6154
1597.381, 697.1567
1599.309, 696.7833
1601.238, 695.8499
1603.166, 694.4152
1605.095, 693.7541
1607.023, 693.4243
1608.952, 690.5197
1610.880, 686.6062
1612.809, 683.0681
1614.737, 680.6623
1616.666, 680.2993
1618.594, 680.4708
1620.522, 680.4792
1622.451, 679.5007
1624.379, 678.2172
1626.308, 676.4513
1628.236, 674.1627
1630.165, 671.6953
1632.093, 669.8555
1634.022, 668.7557
1635.950, 668.3839
1637.879, 668.3771
1639.807, 667.5293
1641.736, 667.1129
1643.664, 666.6564
1645.593, 665.0746
1647.521, 662.8008
1649.449, 661.1391
1651.378, 660.3499
1653.306, 659.4705
1655.235, 658.0328
1657.163, 656.8156
1659.092, 656.3174
1661.020, 655.1591
1662.949, 653.5264
1664.877, 654.4152
1666.806, 654.0919
1668.734, 648.3276
1670.663, 645.8658
1672.591, 647.7917
1674.520, 647.1492
1676.448, 644.6169
1678.376, 642.8797
1680.305, 641.3055
1682.233, 640.7191
1684.162, 640.0029
1686.090, 637.4650
1688.019, 635.4210
1689.947, 634.4260
1691.876, 632.7988
1693.804, 629.8097
1695.733, 625.3690
1697.661, 622.7552
1699.590, 624.2922
1701.518, 625.2296
1703.447, 623.9650
1705.375, 621.6213
1707.303, 619.1061
1709.232, 618.4279
1711.160, 617.7563
1713.089, 614.8496
1715.017, 611.8318
1716.946, 609.7910
1718.874, 607.3812
1720.803, 604.2474
1722.731, 602.1631
1724.660, 601.1447
1726.588, 599.9841
1728.517, 598.6407
1730.445, 597.3468
1732.374, 595.3018
1734.302, 592.3917
1736.230, 589.5316
1738.159, 587.4177
1740.087, 588.2170
1742.016, 589.0201
1743.944, 586.8708
1745.873, 584.8417
1747.801, 583.9235
1749.730, 582.9196
1751.658, 581.6267
1753.587, 579.5621
1755.515, 577.0158
1757.444, 574.6380
1759.372, 572.7672
1761.301, 570.8457
1763.229, 570.0421
1765.157, 570.3799
1767.086, 569.2845
1769.014, 568.0932
1770.943, 566.1743
1772.871, 563.2888
1774.800, 561.3224
1776.728, 561.4230
1778.657, 562.4474
1780.585, 560.6287
1782.514, 557.9840
1784.442, 556.5437
1786.371, 554.6469
1788.299, 554.2390
1790.228, 553.3293
1792.156, 551.1744
1794.084, 549.3356
1796.013, 546.5610
1797.941, 545.3427
1799.870, 544.8530
1801.798, 542.1779
1803.727, 540.4926
1805.655, 540.4062
1807.584, 539.6914
1809.512, 538.3399
1811.441, 536.0956
1813.369, 533.5259
1815.298, 532.2073
1817.226, 531.0342
1819.155, 528.9151
1821.083, 527.2192
1823.011, 526.1766
1824.940, 526.4508
1826.868, 525.5244
1828.797, 522.0545
1830.725, 519.5926
1832.654, 518.8611
1834.582, 518.6687
1836.511, 517.2991
1838.439, 515.7899
1840.368, 514.7083
1842.296, 511.5081
1844.225, 509.4204
1846.153, 508.4404
1848.082, 505.6498
1850.010, 503.5067
1851.938, 502.0280
1853.867, 501.7959
1855.795, 501.7939
1857.724, 499.3028
1859.652, 496.3593
1861.581, 495.6581
1863.509, 495.5475
1865.438, 493.7606
1867.366, 490.1691
1869.295, 486.9823
1871.223, 486.7281
1873.152, 485.9280
1875.080, 483.5205
1877.009, 481.3015
1878.937, 479.4179
1880.865, 479.3273
1882.794, 478.9941
1884.722, 477.5381
1886.651, 476.3063
1888.579, 474.6534
1890.508, 473.1302
1892.436, 472.1707
1894.365, 471.8652
1896.293, 470.9898
1898.222, 468.1194
1900.150, 465.8931
1902.079, 464.0224
1904.007, 461.8499
1905.936, 461.1786
1907.864, 460.1275
1909.792, 457.9722
1911.721, 456.7125
1913.649, 455.4695
1915.578, 451.6695
1917.506, 448.0288
1919.435, 447.6567
1921.363, 448.8745
1923.292, 448.2531
1925.220, 446.6085
1927.149, 444.9822
1929.077, 442.2880
1931.006, 440.2104
1932.934, 439.2313
1934.863, 437.9878
1936.791, 436.6795
1938.719, 436.0594
1940.648, 435.0473
1942.576, 433.2159
1944.505, 431.7352
1946.433, 430.8849
1948.362, 430.7276
1950.290, 429.6884
1952.219, 427.7738
1954.147, 426.2387
1956.076, 423.8811
1958.004, 421.6201
1959.933, 419.7241
1961.861, 417.6200
1963.790, 416.6766
1965.718, 415.1496
1967.646, 414.0883
1969.575, 413.6450
1971.503, 412.8690
1973.432, 411.0895
1975.360, 408.5331
1977.289, 406.8940
1979.217, 406.0976
1981.146, 405.7774
1983.074, 404.9545
1985.003, 402.8266
1986.931, 399.6902
1988.860, 398.0455
1990.788, 398.2289
1992.717, 397.8564
1994.645, 396.4128
1996.573, 394.0349
1998.502, 392.3718
2000.430, 391.3112
2002.359, 389.8354
2004.287, 388.3310
2006.216, 387.2740
2008.144, 385.5469
2010.073, 383.4167
2012.001, 381.9811
2013.930, 380.9210
2015.858, 379.3699
2017.787, 377.7480
2019.715, 376.9384
2021.644, 376.4786
2023.572, 375.5257
2025.500, 373.4037
2027.429, 372.0967
2029.357, 371.3379
2031.286, 370.4922
2033.214, 370.2905
2035.143, 368.7918
2037.071, 366.1732
2039.000, 364.0007
2040.928, 362.0343
2042.857, 361.2161
2044.785, 360.6053
2046.714, 359.5988
2048.642, 359.2640
2050.571, 357.4923
2052.499, 355.3186
2054.427, 354.3102
2056.356, 352.9569
2058.284, 352.3862
2060.213, 350.7621
2062.141, 348.0345
2064.070, 347.0435
2065.998, 346.2007
2067.927, 344.9937
2069.855, 344.1991
2071.784, 344.0574
2073.712, 342.8458
2075.641, 340.0709
2077.569, 338.7191
2079.498, 338.2851
2081.426, 336.3995
2083.354, 335.9492
2085.283, 335.2281
2087.211, 333.1880
2089.140, 332.3227
2091.068, 331.7630
2092.997, 330.8159
2094.925, 329.1517
2096.854, 326.7343
2098.782, 325.1783
2100.711, 323.9081
2102.639, 322.9857
2104.568, 322.0212
2106.496, 320.9807
2108.425, 319.7005
2110.353, 318.2514
2112.281, 316.0558
2114.210, 314.7798
2116.138, 314.3000
2118.067, 313.0460
2119.995, 311.4199
2121.924, 310.1497
2123.852, 309.9224
2125.781, 308.5473
2127.709, 306.5810
2129.638, 306.0363
2131.566, 304.4118
2133.495, 301.8331
2135.423, 300.7484
2137.352, 300.0272
2139.280, 299.4127
2141.208, 297.2713
2143.137, 296.3250
2145.065, 297.2824
2146.994, 296.1128
2148.922, 292.7034
2150.851, 291.5544
2152.779, 292.0871
2154.708, 291.0726
2156.636, 288.5269
2158.565, 287.3018
2160.493, 286.7946
2162.422, 285.8013
2164.350, 285.2455
2166.279, 285.2208
2168.207, 282.8116
2170.135, 279.0890
2172.064, 277.5890
2173.992, 277.7239
2175.921, 277.2681
2177.849, 275.6827
2179.778, 275.1322
2181.706, 275.3860
2183.635, 274.3155
2185.563, 272.5137
2187.492, 270.9301
2189.420, 269.3360
2191.349, 267.4070
2193.277, 265.9091
2195.206, 265.9315
2197.134, 265.7034
2199.063, 264.8821
2200.991, 263.9245
2202.919, 261.4317
2204.848, 259.0320
2206.776, 257.0112
2208.705, 256.0428
2210.633, 256.4640
2212.562, 256.4411
2214.490, 255.7623
2216.419, 255.6974
2218.347, 254.2171
2220.276, 252.4675
2222.204, 252.0473
2224.133, 251.5936
2226.061, 249.6108
2227.990, 247.8720
2229.918, 246.9580
2231.846, 246.2037
2233.775, 244.1590
2235.703, 242.7952
2237.632, 243.5920
2239.560, 242.2582
2241.489, 240.5170
2243.417, 240.8233
2245.346, 240.1593
2247.274, 238.6001
2249.203, 236.8482
2251.131, 235.4890
2253.060, 235.4393
2254.988, 234.1804
2256.917, 232.2787
2258.845, 231.8306
2260.773, 231.0716
2262.702, 229.4642
2264.630, 228.8477
2266.559, 228.2592
2268.487, 225.8245
2270.416, 224.2071
2272.344, 224.0489
2274.273, 224.6389
2276.201, 223.1147
2278.130, 221.0598
2280.058, 220.2847
2281.987, 218.6562
2283.915, 217.9382
2285.844, 217.4097
2287.772, 215.5191
2289.700, 214.2776
2291.629, 214.6306
2293.557, 214.3672
2295.486, 213.1852
2297.414, 212.0951
2299.343, 211.2254
2301.271, 210.6488
2303.200, 209.4545
2305.128, 208.9493
2307.057, 208.5617
2308.985, 207.0519
2310.914, 205.8096
2312.842, 204.5771
2314.771, 203.3065
2316.699, 202.3307
2318.627, 201.9906
2320.556, 201.4472
2322.484, 199.9287
2324.413, 199.1025
2326.341, 199.0714
2328.270, 198.5221
2330.198, 196.6655
2332.127, 195.4766
2334.055, 195.2213
2335.984, 194.7944
2337.912, 192.8068
2339.841, 191.2424
2341.769, 191.5264
2343.698, 191.2515
2345.626, 189.9861
2347.554, 188.0319
2349.483, 187.0967
2351.411, 186.5631
2353.340, 185.7994
2355.268, 185.4324
2357.197, 185.8202
2359.125, 185.0035
2361.054, 183.4145
2362.982, 182.7227
2364.911, 182.0403
2366.839, 181.0436
2368.768, 180.2127
2370.696, 179.6914
2372.625, 179.4372
2374.553, 178.7890
2376.481, 177.7298
2378.410, 176.4697
2380.338, 175.2351
2382.267, 173.9745
2384.195, 174.0776
2386.124, 173.7128
2388.052, 172.5507
2389.981, 171.7301
2391.909, 171.1592
2393.838, 170.7704
2395.766, 169.9811
2397.695, 169.0434
2399.623, 168.4129
2401.552, 167.8437
2403.480, 166.8621
2405.408, 165.7451
2407.337, 164.7966
2409.265, 163.8467
2411.194, 163.8437
2413.122, 163.2322
2415.051, 161.9464
2416.979, 161.5858
2418.908, 161.4998
2420.836, 160.6145
2422.765, 158.7011
2424.693, 157.0465
2426.622, 156.0601
2428.550, 155.5296
2430.479, 155.0948
2432.407, 154.1220
2434.335, 153.0743
2436.264, 152.4618
2438.192, 152.5583
2440.121, 152.2643
2442.049, 151.1294
2443.978, 151.0121
2445.906, 150.4885
2447.835, 149.0179
2449.763, 147.7405
2451.692, 146.9046
2453.620, 145.5897
2455.549, 145.3308
2457.477, 145.5596
2459.406, 146.0749
2461.334, 144.9873
2463.262, 142.8912
2465.191, 143.0841
2467.119, 141.8730
2469.048, 140.3712
2470.976, 140.2365
2472.905, 139.3260
2474.833, 138.3428
2476.762, 137.8453
2478.690, 137.5713
2480.619, 136.7112
2482.547, 136.3647
2484.476, 135.7566
2486.404, 133.7192
2488.333, 133.3262
2490.261, 133.0136
2492.189, 132.5914
2494.118, 132.4724
2496.046, 131.7176
2497.975, 130.7273
2499.903, 129.9362
2501.832, 128.9405
2503.760, 127.7329
2505.689, 127.2556
2507.617, 126.6979
2509.546, 125.8157
2511.474, 125.3821
2513.403, 125.0745
2515.331, 125.4119
2517.260, 125.0021
2519.188, 124.0726
2521.116, 124.5517
2523.045, 124.1356
2524.973, 122.3135
2526.902, 121.3221
2528.830, 119.8448
2530.759, 118.8492
2532.687, 119.6075
2534.616, 119.7799
2536.544, 119.3265
2538.473, 118.1730
2540.401, 116.8978
2542.330, 116.1689
2544.258, 115.5952
2546.187, 115.2814
2548.115, 114.8617
2550.043, 114.0579
2551.972, 113.4814
2553.900, 112.9565
2555.829, 112.4814
2557.757, 111.9197
2559.686, 111.6809
2561.614, 111.3885
2563.543, 110.7394
2565.471, 109.5378
2567.400, 109.4596
2569.328, 108.6348
2571.257, 107.0784
2573.185, 107.0887
2575.114, 106.9056
2577.042, 106.1447
2578.970, 105.3618
2580.899, 104.6234
2582.827, 104.4015
2584.756, 104.0443
2586.684, 103.1306
2588.613, 101.8064
2590.541, 102.0262
2592.470, 102.3140
2594.398, 99.72557
2596.327, 98.91429
2598.255, 99.64098
2600.184, 100.0506
2602.112, 99.27718
2604.041, 98.26436
2605.969, 97.54765
2607.897, 97.54948
2609.826, 97.82925
2611.754, 96.47026
2613.683, 95.52319
2615.611, 95.23438
2617.540, 94.59904
2619.468, 93.27917
2621.397, 92.43542
2623.325, 93.22974
2625.254, 93.19777
2627.182, 92.62264
2629.111, 91.51390
2631.039, 91.11674
2632.968, 90.82575
2634.896, 90.05418
2636.824, 90.44537
2638.753, 90.32570
2640.681, 89.16878
2642.610, 87.96754
2644.538, 86.97340
2646.467, 86.62789
2648.395, 85.86414
2650.324, 85.52827
2652.252, 86.09306
2654.181, 85.65572
2656.109, 85.06128
2658.038, 84.87035
2659.966, 83.37077
2661.895, 82.10593
2663.823, 81.68903
2665.751, 81.70480
2667.680, 81.45834
2669.608, 80.01395
2671.537, 79.44822
2673.465, 79.35204
2675.394, 79.33923
2677.322, 79.08826
2679.251, 79.19969
2681.179, 79.48608
2683.108, 78.77272
2685.036, 77.80363
2686.965, 76.90834
2688.893, 76.30154
2690.822, 76.06647
2692.750, 76.17089
2694.678, 75.21722
2696.607, 74.58871
2698.535, 74.70059
2700.464, 74.02291
2702.392, 73.14219
2704.321, 72.32339
2706.249, 72.33707
2708.178, 72.47359
2710.106, 72.16846
2712.035, 71.01144
2713.963, 70.67239
2715.892, 70.50333
2717.820, 69.39909
2719.749, 68.80791
2721.677, 68.75898
2723.605, 68.91941
2725.534, 68.28065
2727.462, 67.67049
2729.391, 67.57653
2731.319, 67.60360
2733.248, 67.09258
2735.176, 66.11446
2737.105, 65.63461
2739.033, 65.23315
2740.962, 64.82285
2742.890, 65.12820
2744.819, 64.99761
2746.747, 64.51656
2748.676, 63.71472
2750.604, 62.08910
2752.532, 61.21691
2754.461, 62.15374
2756.389, 61.93899
2758.318, 61.51015
2760.246, 61.21741
2762.175, 60.81672
2764.103, 60.35888
2766.032, 59.85918
2767.960, 59.56345
2769.889, 59.54313
2771.817, 59.55663
2773.746, 57.93995
2775.674, 57.24866
2777.603, 57.37020
2779.531, 57.16409
2781.459, 56.95251
2783.388, 56.60697
2785.316, 55.59124
2787.245, 55.09951
2789.173, 55.32718
2791.102, 55.88306
2793.030, 54.89207
2794.959, 53.65924
2796.887, 52.98241
2798.816, 53.23777
2800.744, 53.18427
2802.673, 53.17339
2804.601, 53.65296
2806.530, 52.48458
2808.458, 51.32225
2810.386, 52.15477
2812.315, 51.97211
2814.243, 51.49727
2816.172, 50.99179
2818.100, 50.27429
2820.029, 49.69482
2821.957, 49.19716
2823.886, 49.17367
2825.814, 48.73612
2827.743, 48.05099
2829.671, 47.46011
2831.600, 47.60295
2833.528, 47.76167
2835.457, 47.24955
2837.385, 45.73641
2839.313, 45.08568
2841.242, 45.77801
2843.170, 45.65882
2845.099, 44.84348
2847.027, 44.10425
2848.956, 44.89994
2850.884, 44.41313
2852.813, 43.72575
2854.741, 43.97127
2856.670, 43.61432
2858.598, 43.00421
2860.527, 42.36934
2862.455, 41.97182
2864.384, 42.06551
2866.312, 42.33934
2868.240, 41.81183
2870.169, 40.94719
2872.097, 40.37286
2874.026, 40.67849
2875.954, 40.62304
2877.883, 40.18941
2879.811, 39.50508
2881.740, 38.89130
2883.668, 38.69525
2885.597, 38.66463
2887.525, 38.83956
2889.454, 37.97427
2891.382, 37.25599
2893.311, 37.71416
2895.239, 37.86536
2897.167, 38.60822
2899.096, 39.18740
2901.024, 38.17330
2902.953, 37.13200
2904.881, 36.26698
2906.810, 35.91601
2908.738, 35.51810
2910.667, 34.71517
2912.595, 33.85569
2914.524, 34.64272
2916.452, 34.56582
2918.381, 33.90251
2920.309, 33.27641
2922.238, 33.35116
2924.166, 33.63214
2926.094, 33.72404
2928.023, 32.93822
2929.951, 32.26640
2931.880, 31.97994
2933.808, 31.84031
2935.737, 32.16621
2937.665, 32.16569
2939.594, 31.87239
2941.522, 32.05896
2943.451, 31.32523
2945.379, 30.52651
2947.308, 31.18076
2949.236, 31.11870
2951.165, 30.59303
2953.093, 30.13964
2955.021, 29.74219
2956.950, 29.65902
2958.878, 29.69684
2960.807, 29.60501
2962.735, 29.34780
2964.664, 29.13838
2966.592, 29.14765
2968.521, 28.38207
2970.449, 28.21933
2972.378, 28.33276
2974.306, 27.53445
2976.235, 26.90545
2978.163, 26.72854
2980.092, 27.10156
2982.020, 26.49038
2983.948, 26.57833
2985.877, 26.81750
2987.805, 26.20737
2989.734, 25.98061
2991.662, 26.24563
2993.591, 26.38440
2995.519, 24.84983
2997.448, 24.37717
2999.376, 24.63897
3001.305, 24.53553
3003.233, 24.47848
3005.162, 24.71988
3007.090, 24.91086
3009.019, 24.04150
3010.947, 23.36734
3012.875, 23.19350
3014.804, 23.33428
3016.732, 23.02569
3018.661, 22.67524
3020.589, 22.29664
3022.518, 22.28114
3024.446, 22.65702
3026.375, 22.87556
3028.303, 22.78802
3030.232, 22.33914
3032.160, 22.36174
3034.089, 22.32448
3036.017, 21.88845
3037.946, 21.43415
3039.874, 21.38970
3041.802, 21.20856
3043.731, 20.18318
3045.659, 20.81256
3047.588, 21.40689
3049.516, 21.25027
3051.445, 20.40884
3053.373, 20.03624
3055.302, 19.99208
3057.230, 19.51315
3059.159, 19.45038
3061.087, 19.46945
3063.016, 19.37952
3064.944, 19.24616
3066.873, 18.94945
3068.801, 18.87176
3070.729, 18.83204
3072.658, 18.63310
3074.586, 18.40464
3076.515, 17.84047
3078.443, 17.28470
3080.372, 18.44008
3082.300, 18.43471
3084.229, 17.83955
3086.157, 17.48304
3088.086, 17.73931
3090.014, 17.57146
3091.943, 17.14994
3093.871, 17.22344
3095.800, 16.31555
3097.728, 16.25389
3099.656, 16.97198
3101.585, 16.85706
3103.513, 16.66058
3105.442, 16.25728
3107.370, 15.83914
3109.299, 16.16974
3111.227, 16.68374
3113.156, 16.31891
3115.084, 14.53268
3117.013, 15.49332
3118.941, 15.33739
3120.870, 14.68313
3122.798, 15.12143
3124.727, 15.06684
3126.655, 14.54717
3128.583, 14.17035
3130.512, 14.45216
3132.440, 14.29594
3134.369, 13.82468
3136.297, 13.66924
3138.226, 14.90148
3140.154, 14.24038
3142.083, 13.91884
3144.011, 14.09358
3145.940, 13.41288
3147.868, 12.96919
3149.797, 12.99987
3151.725, 13.33658
3153.654, 13.26663
3155.582, 13.18145
3157.510, 12.88182
3159.439, 12.64737
3161.367, 12.98830
3163.296, 12.41985
3165.224, 12.08383
3167.153, 12.45262
3169.081, 12.63130
3171.010, 12.17139
3172.938, 12.00209
3174.867, 12.42693
3176.795, 12.27742
3178.724, 12.04275
3180.652, 11.91704
3182.581, 11.90516
3184.509, 11.51211
3186.438, 11.42196
3188.366, 11.42298
3190.294, 11.24195
3192.223, 10.97452
3194.151, 10.63260
3196.080, 10.57754
3198.008, 10.79607
3199.937, 10.45306
3201.865, 10.41156
3203.794, 10.42493
3205.722, 10.34128
3207.651, 9.919340
3209.579, 10.01905
3211.508, 10.31785
3213.436, 10.43283
3215.365, 9.582318
3217.293, 9.454940
3219.221, 9.703549
3221.150, 9.892140
3223.078, 9.662182
3225.007, 9.653762
3226.935, 9.581038
3228.864, 9.228794
3230.792, 8.997547
3232.721, 8.945776
3234.649, 9.210303
3236.578, 9.387385
3238.506, 8.795030
3240.435, 8.674829
3242.363, 8.794235
3244.292, 8.785012
3246.220, 8.396150
3248.148, 8.127966
3250.077, 8.246119
3252.005, 8.449210
3253.934, 8.004774
3255.862, 8.102792
3257.791, 8.188160
3259.719, 7.993513
3261.648, 7.432913
3263.576, 8.195715
3265.505, 8.123128
3267.433, 7.836684
3269.362, 8.006623
3271.290, 7.827480
3273.219, 7.509933
3275.147, 7.316971
3277.075, 7.233569
3279.004, 7.359690
3280.932, 7.367174
3282.861, 7.471622
3284.789, 7.592681
3286.718, 7.469111
3288.646, 7.356853
3290.575, 7.317500
3292.503, 7.283785
3294.432, 7.038175
3296.360, 7.320013
3298.289, 7.621850
3300.217, 7.794221
3302.146, 7.795637
3304.074, 7.178518
3306.002, 7.518814
3307.931, 7.815805
3309.859, 7.633708
3311.788, 6.959063
3313.716, 6.837034
3315.645, 6.942082
3317.573, 6.932871
3319.502, 7.081563
3321.430, 6.930480
3323.359, 6.684112
3325.287, 6.620649
3327.216, 6.827473
3329.144, 6.809527
3331.073, 6.731220
3333.001, 6.502367
3334.929, 6.295601
3336.858, 6.555270
3338.786, 6.524796
3340.715, 6.262213
3342.643, 6.013731
3344.572, 5.954288
3346.500, 6.110229
3348.429, 6.266242
3350.357, 6.117729
3352.286, 5.708705
3354.214, 5.612270
3356.143, 6.592399
3358.071, 6.683761
3360.000, 6.195559
3361.928, 5.923390
3363.856, 5.728907
3365.785, 5.857407
3367.713, 6.182126
3369.642, 6.309324
3371.570, 5.953877
3373.499, 5.945117
3375.427, 5.723344
3377.356, 5.371598
3379.284, 5.250815
3381.213, 5.558846
3383.141, 5.161207
3385.070, 5.117360
3386.998, 5.355635
3388.927, 4.892783
3390.855, 4.972296
3392.783, 5.499334
3394.712, 5.875404
3396.640, 5.767827
3398.569, 5.100415
3400.497, 5.042890
3402.426, 5.376124
3404.354, 5.539876
3406.283, 5.070666
3408.211, 5.109205
3410.140, 5.226738
3412.068, 5.331230
3413.997, 5.378599
3415.925, 5.350866
3417.854, 5.965108
3419.782, 5.686626
3421.710, 5.169044
3423.639, 5.152190
3425.567, 5.584780
3427.496, 5.311873
3429.424, 5.064794
3431.353, 5.089424
3433.281, 5.292809
3435.210, 5.841958
3437.138, 4.648591
3439.067, 4.228275
3440.995, 4.561511
3442.924, 4.333875
3444.852, 5.343839
3446.781, 5.011083
3448.709, 4.754979
3450.637, 5.020890
3452.566, 4.898573
3454.494, 5.073762
3456.423, 4.386847
3458.351, 3.923275
3460.280, 4.201696
3462.208, 4.608235
3464.137, 4.472700
3466.065, 4.774471
3467.994, 4.946715
3469.922, 4.563342
3471.851, 3.888115
3473.779, 3.714427
3475.708, 4.267126
3477.636, 4.353401
3479.564, 3.677773
3481.493, 3.860380
3483.421, 3.909671
3485.350, 4.177595
3487.278, 4.247853
3489.207, 3.989196
3491.135, 4.255003
3493.064, 4.245868
3494.992, 4.435482
3496.921, 4.400610
3498.849, 3.945834
3500.778, 3.752214
3502.706, 4.215146
3504.635, 3.989595
3506.563, 3.841788
3508.491, 4.246553
3510.420, 4.068115
3512.348, 3.999531
3514.277, 4.247798
3516.205, 4.217275
3518.134, 3.859290
3520.062, 4.078632
3521.991, 3.799972
3523.919, 3.796287
3525.848, 3.887963
3527.776, 3.872965
3529.705, 3.793725
3531.633, 3.963361
3533.562, 3.579758
3535.490, 3.500217
3537.418, 3.691716
3539.347, 3.496752
3541.275, 3.631226
3543.204, 3.421726
3545.132, 3.431148
3547.061, 3.530940
3548.989, 3.351041
3550.918, 3.107996
3552.846, 3.227325
3554.775, 3.653728
3556.703, 3.915762
3558.632, 3.801920
3560.560, 3.762352
3562.489, 3.504385
3564.417, 3.495515
3566.345, 3.469699
3568.274, 3.173290
3570.202, 2.536558
3572.131, 3.210492
3574.059, 3.336364
3575.988, 3.016972
3577.916, 2.894757
3579.845, 3.301380
3581.773, 3.384989
3583.702, 2.819452
3585.630, 3.305416
3587.559, 3.912965
3589.487, 3.773139
3591.416, 3.281624
3593.344, 3.573468
3595.272, 3.031674
3597.201, 2.608986
3599.129, 2.791358
3601.058, 3.356504
3602.986, 3.933178
3604.915, 3.395518
3606.843, 3.191305
3608.772, 3.555715
3610.700, 3.814900
3612.629, 3.131658
3614.557, 3.298332
3616.486, 3.162141
3618.414, 3.174986
3620.343, 3.311201
3622.271, 3.306299
3624.199, 3.124376
3626.128, 3.613511
3628.056, 3.739532
3629.985, 3.379258
3631.913, 2.854606
3633.842, 2.622763
3635.770, 3.484401
3637.699, 3.508930
3639.627, 2.784293
3641.556, 2.494598
3643.484, 2.710885
3645.413, 2.282348
3647.341, 2.063713
3649.270, 3.044635
3651.198, 3.067636
3653.126, 2.649254
3655.055, 2.717103
3656.983, 2.771698
3658.912, 3.286401
3660.840, 3.330169
3662.769, 3.166697
3664.697, 3.174092
3666.626, 3.256653
3668.554, 2.654415
3670.483, 2.881402
3672.411, 3.168538
3674.340, 3.209649
3676.268, 2.946005
3678.197, 2.542226
3680.125, 2.469238
3682.053, 3.104474
3683.982, 2.940051
3685.910, 2.665539
3687.839, 2.703208
3689.767, 2.706475
3691.696, 1.795479
3693.624, 2.037579
3695.553, 2.942990
3697.481, 2.808221
3699.410, 2.421638
3701.338, 2.716255
3703.267, 2.964484
3705.195, 2.347223
3707.124, 2.573690
3709.052, 2.201008
3710.980, 2.171752
3712.909, 2.759349
3714.837, 2.589993
3716.766, 2.279681
3718.694, 2.518056
3720.623, 1.981452
3722.551, 1.811207
3724.480, 2.168894
3726.408, 2.184908
3728.337, 2.709909
3730.265, 2.574236
3732.194, 2.585433
3734.122, 2.843017
3736.051, 2.795291
3737.979, 2.278976
3739.907, 2.183827
3741.836, 2.301902
3743.764, 2.332297
3745.693, 2.292209
3747.621, 2.130080
3749.550, 1.965718
3751.478, 2.015663
3753.407, 1.997216
3755.335, 2.208452
3757.264, 2.034417
3759.192, 2.316016
3761.121, 2.468991
3763.049, 2.033872
3764.978, 2.212548
3766.906, 2.507807
3768.834, 2.174554
3770.763, 1.868525
3772.691, 2.046976
3774.620, 2.223939
3776.548, 1.837981
3778.477, 1.499874
3780.405, 1.996453
3782.334, 2.557823
3784.262, 2.358217
3786.191, 2.050584
3788.119, 2.235479
3790.048, 2.668576
3791.976, 2.274712
3793.905, 1.816462
3795.833, 1.919719
3797.761, 2.347412
3799.690, 2.541555
3801.618, 2.177766
3803.547, 1.417056
3805.475, 1.270040
3807.404, 2.280668
3809.332, 2.249172
3811.261, 2.061105
3813.189, 1.812695
3815.118, 1.698916
3817.046, 2.194187
3818.975, 2.396778
3820.903, 2.296180
3822.832, 1.936623
3824.760, 1.928825
3826.688, 1.516135
3828.617, 1.033319
3830.545, 1.472996
3832.474, 1.998995
3834.402, 1.577992
3836.331, 1.724063
3838.259, 2.251390
3840.188, 2.058352
3842.116, 1.710703
3844.045, 2.047334
3845.973, 2.155928
3847.902, 1.947506
3849.830, 1.571394
3851.759, 2.205927
3853.687, 2.110889
3855.615, 1.841225
3857.544, 2.151704
3859.472, 2.314171
3861.401, 2.215034
3863.329, 1.652021
3865.258, 1.623434
3867.186, 2.063954
3869.115, 2.067228
3871.043, 1.780951
3872.972, 1.637630
3874.900, 1.380419
3876.829, 2.176271
3878.757, 1.289412
3880.686, 2.077975
3882.614, 1.896580
3884.542, 1.928048
3886.471, 2.375504
3888.399, 2.148673
3890.328, 2.207181
3892.256, 1.896819
3894.185, 1.803159
3896.113, 1.401069
3898.042, 1.530330
3899.970, 1.873249
3901.899, 1.869478
3903.827, 1.639929
3905.756, 1.876583
3907.684, 2.536996
3909.613, 1.284317
3911.541, 1.649914
3913.469, 1.577369
3915.398, 1.232129
3917.326, 1.489100
3919.255, 1.934747
3921.183, 1.664267
3923.112, 2.001902
3925.040, 1.623130
3926.969, 1.867840
3928.897, 2.202049
3930.826, 2.037674
3932.754, 1.488605
3934.683, 1.431974
3936.611, 2.287580
3938.540, 2.044836
3940.468, 2.342857
3942.396, 1.583645
3944.325, 2.103810
3946.253, 2.081172
3948.182, 2.043137
3950.110, 1.919313
3952.039, 1.586609
3953.967, 2.079994
3955.896, 1.358460
3957.824, 2.378334
3959.753, 2.121575
3961.681, 1.667949
3963.610, 1.932151
3965.538, 1.513710
3967.467, 1.109144
3969.395, 1.453866
3971.323, 1.295343
3973.252, 1.837136
3975.180, 1.347577
3977.109, 1.409459
3979.037, 1.662300
3980.966, 1.477247
3982.894, 1.556267
3984.823, 0.9920035
3986.751, 1.117633
3988.680, 1.206583
3990.608, 0.9866870
3992.537, 0.7475287
3994.465, 0.6051150
3996.394, 0.5246177
3998.322, 0.8389891
4000.250, 0.5411202
4002.179, 0.8491412
4004.107, 1.019206
4006.036, 1.118633
4007.964, 0.9801772
4009.893, 0.5591115
4011.821, 0.4357606
4013.750, 0.7175753
4015.678, 1.456131
4017.607, 1.485227
4019.535, 0.8787994
4021.464, 0.8328935
4023.392, 0.6464351
4025.321, 0.7362257
4027.249, 0.7265848
4029.177, 0.3753614
4031.106, 1.022063
4033.034, 0.6102002
4034.963, 1.176737
4036.891, 0.6892933
4038.820, 0.3999372
4040.748, 0.7969735
4042.677, 0.7552183
4044.605, 0.1640596
4046.534, 0.2595806
4048.462, 1.247387
4050.391, 1.382325
4052.319, 0.6716236
4054.248, 0.5539781
4056.176, 1.079386
4058.104, 1.287060
4060.033, 0.7468474
4061.961, 1.166841
4063.890, 0.9363783
4065.818, 0.6291890
4067.747, 1.265998
4069.675, 0.9600050
4071.604, 0.7150282
4073.532, 0.3793200
4075.461, 0.3884575
4077.389, 0.6581183
4079.318, 1.027142
4081.246, 1.085110
4083.175, 1.058058
4085.103, 1.024752
4087.031, 0.9396985
4088.960, 0.9087293
4090.888, 0.8017262
4092.817, 0.1884219
4094.745, 1.138982
4096.674, 0.8173714
4098.603, 1.257523
4100.531, 0.7895448
4102.459, 1.314881
4104.388, 1.602306
4106.316, 0.8151127
4108.245, 0.7703705
4110.173, 1.466157
4112.102, 0.8411013
4114.030, 0.3618557
4115.958, 0.3992828
4117.887, 1.144304
4119.815, 9.4501100E-02
4121.744, 0.2703554
4123.672, 0.5838135
4125.601, 0.8907235
4127.529, 0.8611939
4129.458, 0.6452653
4131.386, 0.4264951
4133.315, 0.6641109
4135.243, 1.340367
4137.172, 0.5566683
4139.100, 0.8524114
4141.029, 1.127076
4142.957, 1.126395
4144.886, 0.6388912
4146.814, 0.6872193
4148.743, 0.4907488
4150.671, 0.7135308
4152.600, 0.6471707
4154.528, 1.096768
4156.457, 1.441968
4158.385, 0.8016947
4160.313, 0.9077206
4162.242, 1.167256
4164.170, 1.342025
4166.099, 0.7174702
4168.027, 0.3388371
4169.956, 0.9141745
4171.884, 1.090415
4173.813, 0.9643002
4175.741, 0.8297586
4177.669, 0.9123649
4179.598, 0.5934546
4181.526, 0.6297354
4183.455, 1.020539
4185.383, 0.5762565
4187.312, 0.2865863
4189.240, 1.041279
4191.169, 0.8171595
4193.097, 0.8919880
4195.026, 0.8197609
4196.954, 0.8908837
4198.883, 8.8132717E-02
4200.811, 0.7585844
4202.740, 1.095841
4204.668, 0.1471521
4206.597, 0.4879904
4208.525, 0.8122623
4210.454, 0.7499200
4212.382, 0.8506832
4214.311, 0.2677073
4216.239, 0.1811996
4218.167, 1.146000
4220.096, 0.9209926
4222.024, 1.264723
4223.953, 0.3369201
4225.881, 0.9562830
4227.810, 0.1835788
4229.738, 0.8740236
4231.667, 0.7835186
4233.595, 0.5114192
4235.523, 0.9448993
4237.452, 0.6633518
4239.380, 0.2516314
4241.309, 0.6156652
4243.237, 0.6800681
4245.166, 0.5369793
4247.094, 1.224763
4249.023, 1.321032
4250.951, 1.006349
4252.880, 0.9207730
4254.808, 0.9341080
4256.737, 0.3846754
4258.665, 0.8392416
4260.594, 0.8268812
4262.522, 0.8905963
4264.451, 0.9518825
4266.379, 0.6401380
4268.308, 0.5774616
4270.236, 1.291822
4272.165, 0.8600677
4274.093, 0.4187565
4276.021, 0.3355085
4277.950, 0.6969650
4279.878, 1.022016
4281.807, 0.9618888
4283.735, 1.572307
4285.664, 1.579146
4287.592, 0.5910113
4289.521, 1.097154
4291.449, 0.6575217
4293.377, 0.7237075
4295.306, 0.8169847
4297.234, 0.8400812
4299.163, 0.7123657
4301.091, 0.2364149
4303.020, 0.4768916
4304.948, 0.5144423
4306.877, 0.2232997
4308.805, 0.3941893
4310.734, 0.7448686
4312.662, 0.7340523
4314.591, 0.5331206
4316.519, 0.8331126
4318.448, 1.116974
4320.376, 0.8694203
4322.305, 0.4186276
4324.233, 0.2119269
4326.162, 0.2214528
4328.090, 0.4801077
4330.019, 0.9894558
4331.947, 0.5357720
4333.875, 0.6551052
4335.804, 0.1417811
4337.732, 0.6304867
4339.661, 0.8297479
4341.589, 0.6655998
4343.518, 0.6021051
4345.446, -0.1110179
4347.375, 1.192997
4349.303, 0.3247869
4351.231, 0.6018904
4353.160, 0.3457963
4355.088, 0.2494893
4357.017, 1.169104
4358.945, 0.4755221
4360.874, 1.008424
4362.802, 0.6980262
4364.731, 3.8094021E-02
4366.659, 0.9875430
4368.588, 0.8739137
4370.516, 0.4882563
4372.445, 0.3424743
4374.373, 0.3918825
4376.302, 0.6924652
4378.230, 0.5753204
4380.159, 0.1238176
4382.087, 0.4139456
##END=



