##NAMES=Nitratine
##RRUFFID=R050394
##IDEAL CHEMISTRY=Na(NO_3_)
##LOCALITY=Tarapaca, Chile
##OWNER=RRUFF
##SOURCE=Mark Candee
##DESCRIPTION=Colorless coarse powder
##STATUS=The identification of this mineral has been confirmed by X-ray diffraction and chemical analysis
##URL=https://www.rruff.net/odr/rruff_sample/R050394
##MEASURED CHEMISTRY=Na_1.00_NO_3_ ; = darker grains. The lighter grains are NaCl   N not analyzed but estimated by difference and stiochiometry
##DIFFRACTION SAMPLE DESCRIPTION=Powder, mixed with halite, a = 5.6417
##CELL PARAMETERS=a: 5.0716 b: 5.0716 c: 16.834 alpha: 90 beta: 90 gamma: 120 volume: 374.97 crystal system: hexagonal
##FILETYPE=Raman RAW
##RAMAN WAVELENGTH=532

83.46240, 0.0000000E+00
85.39087, 0.0000000E+00
87.31934, 72.38445
89.24780, 86.07561
91.17627, 101.6766
93.10474, 123.8150
95.03320, 153.1945
96.96167, 189.2130
98.89014, 234.4273
100.8186, 285.6478
102.7471, 346.8631
104.6755, 419.5115
106.6040, 505.1734
108.5325, 600.0732
110.4609, 700.3812
112.3894, 805.8497
114.3179, 926.2177
116.2463, 1060.243
118.1748, 1210.734
120.1033, 1380.727
122.0317, 1566.624
123.9602, 1776.149
125.8887, 1972.563
127.8171, 2117.476
129.7456, 2283.399
131.6741, 2480.941
133.6025, 2701.503
135.5310, 2925.247
137.4595, 3174.994
139.3879, 3412.755
141.3164, 3624.454
143.2449, 3810.371
145.1733, 3979.626
147.1018, 4127.339
149.0303, 4256.017
150.9587, 4397.990
152.8872, 4536.275
154.8157, 4699.157
156.7441, 4905.517
158.6726, 5144.522
160.6011, 5441.175
162.5295, 5811.896
164.4580, 6250.446
166.3865, 6735.268
168.3149, 7268.824
170.2434, 7846.111
172.1719, 8475.376
174.1003, 9164.268
176.0288, 9889.725
177.9573, 10680.17
179.8857, 11557.55
181.8142, 12324.46
183.7427, 13061.11
185.6711, 13666.02
187.5996, 13975.68
189.5281, 14010.95
191.4565, 13730.91
193.3850, 13152.86
195.3135, 12110.11
197.2419, 11034.11
199.1704, 9869.282
201.0989, 8683.162
203.0273, 7603.443
204.9558, 6644.432
206.8843, 5792.797
208.8127, 5048.864
210.7412, 4435.148
212.6697, 3890.846
214.5981, 3433.958
216.5266, 3046.949
218.4551, 2705.725
220.3835, 2420.468
222.3120, 2171.749
224.2405, 1960.816
226.1689, 1788.151
228.0974, 1636.144
230.0259, 1504.176
231.9543, 1389.948
233.8828, 1289.940
235.8113, 1206.340
237.7397, 1133.593
239.6682, 1068.802
241.5967, 1011.809
243.5251, 961.6232
245.4536, 918.0659
247.3821, 880.9650
249.3105, 846.2767
251.2390, 814.4232
253.1675, 784.4636
255.0959, 755.5726
257.0244, 727.8239
258.9529, 701.2676
260.8813, 675.5349
262.8098, 651.0422
264.7383, 628.6078
266.6667, 608.4615
268.5952, 590.5806
270.5237, 574.6839
272.4521, 561.8549
274.3806, 549.9161
276.3091, 539.5269
278.2375, 530.0369
280.1660, 519.5323
282.0945, 506.0838
284.0229, 492.9640
285.9514, 481.9367
287.8799, 474.2529
289.8083, 466.6583
291.7368, 458.7204
293.6653, 450.6998
295.5938, 443.2650
297.5222, 437.0204
299.4507, 430.9608
301.3792, 424.8810
303.3076, 418.9889
305.2361, 412.5227
307.1646, 404.7616
309.0930, 396.4543
311.0215, 389.1085
312.9500, 382.9557
314.8784, 377.6511
316.8069, 373.5238
318.7354, 370.6042
320.6638, 367.4574
322.5923, 363.0331
324.5208, 358.3247
326.4492, 354.9005
328.3777, 353.4101
330.3062, 352.3703
332.2346, 352.0639
334.1631, 352.3958
336.0915, 351.1188
338.0200, 346.0060
339.9485, 339.9401
341.8769, 336.0814
343.8054, 335.5683
345.7339, 335.1123
347.6623, 333.7586
349.5908, 331.6375
351.5193, 329.6203
353.4477, 327.9013
355.3762, 326.1870
357.3047, 324.1953
359.2331, 321.8128
361.1616, 319.6339
363.0901, 317.9107
365.0185, 316.5600
366.9470, 315.2759
368.8755, 314.4678
370.8039, 313.4275
372.7324, 311.5626
374.6609, 308.8307
376.5893, 306.4178
378.5178, 305.0010
380.4463, 303.9414
382.3747, 302.1659
384.3032, 298.8105
386.2317, 295.6472
388.1601, 293.1475
390.0886, 291.2365
392.0171, 289.7079
393.9455, 288.4643
395.8740, 287.6443
397.8025, 287.6682
399.7309, 289.4529
401.6594, 290.2230
403.5879, 288.8099
405.5163, 285.8328
407.4448, 282.8258
409.3733, 278.9615
411.3017, 275.8105
413.2302, 274.5363
415.1587, 275.3986
417.0871, 275.9316
419.0156, 275.1947
420.9441, 273.9985
422.8725, 273.4158
424.8010, 273.9876
426.7295, 274.5843
428.6579, 275.2739
430.5864, 275.9016
432.5149, 275.6212
434.4433, 273.1154
436.3718, 270.5080
438.3003, 269.1392
440.2287, 270.7446
442.1572, 271.4193
444.0857, 270.3231
446.0141, 268.3965
447.9426, 267.2835
449.8711, 267.4837
451.7995, 268.0492
453.7280, 268.7896
455.6565, 269.7911
457.5849, 270.3519
459.5134, 269.9241
461.4419, 269.3809
463.3703, 269.4783
465.2988, 270.8406
467.2273, 271.4512
469.1557, 270.1942
471.0842, 267.8337
473.0127, 267.0844
474.9411, 269.0271
476.8696, 271.0686
478.7981, 272.1149
480.7265, 272.0713
482.6550, 271.7935
484.5835, 270.9864
486.5119, 270.1852
488.4404, 270.0449
490.3689, 270.7991
492.2973, 271.3278
494.2258, 271.0583
496.1543, 270.3065
498.0827, 270.0326
500.0112, 270.2024
501.9397, 270.8393
503.8681, 272.2896
505.7966, 274.4568
507.7251, 276.1976
509.6535, 277.3345
511.5820, 277.9316
513.5105, 277.9909
515.4390, 276.0185
517.3674, 275.3679
519.2959, 277.2173
521.2244, 280.2542
523.1528, 282.2095
525.0813, 282.7331
527.0098, 282.4842
528.9382, 281.3293
530.8667, 279.1723
532.7952, 278.0082
534.7236, 277.8899
536.6521, 278.7160
538.5806, 280.8313
540.5090, 284.6663
542.4375, 287.4046
544.3660, 287.8231
546.2944, 287.2188
548.2229, 287.5134
550.1514, 289.4382
552.0798, 290.8814
554.0083, 290.7284
555.9368, 289.5463
557.8652, 288.9594
559.7937, 289.0684
561.7222, 289.8159
563.6506, 291.7755
565.5791, 295.2504
567.5076, 297.1201
569.4360, 295.6840
571.3645, 293.7246
573.2930, 293.3279
575.2214, 295.4401
577.1499, 296.9898
579.0783, 296.9707
581.0068, 296.3264
582.9352, 296.7903
584.8637, 298.6754
586.7922, 300.8047
588.7206, 303.1620
590.6491, 305.6232
592.5776, 306.9854
594.5060, 306.4429
596.4345, 305.5925
598.3630, 304.7780
600.2914, 304.0233
602.2199, 304.0153
604.1484, 305.1583
606.0768, 306.8875
608.0053, 308.8880
609.9338, 311.5584
611.8622, 313.6761
613.7907, 315.5197
615.7192, 316.6609
617.6476, 316.1701
619.5761, 312.9552
621.5046, 311.1670
623.4330, 313.3508
625.3615, 318.1221
627.2900, 320.6640
629.2184, 318.3820
631.1469, 316.6317
633.0754, 317.8141
635.0038, 321.1920
636.9323, 322.8008
638.8608, 320.3738
640.7892, 317.9938
642.7177, 317.9056
644.6462, 321.3249
646.5746, 323.3955
648.5031, 323.3319
650.4316, 322.5247
652.3600, 322.0336
654.2885, 321.8621
656.2170, 321.9403
658.1454, 321.5793
660.0739, 321.7156
662.0024, 323.6071
663.9308, 329.0169
665.8593, 334.1378
667.7878, 336.8834
669.7162, 339.5088
671.6447, 345.7970
673.5732, 355.8963
675.5016, 369.9479
677.4301, 389.8084
679.3586, 414.6662
681.2870, 435.0695
683.2155, 451.0069
685.1440, 463.3305
687.0724, 472.7403
689.0009, 479.1740
690.9294, 479.7497
692.8578, 465.5415
694.7863, 453.2601
696.7148, 450.4405
698.6432, 458.3444
700.5717, 473.7925
702.5002, 496.8963
704.4286, 527.2271
706.3571, 563.3701
708.2856, 604.2809
710.2141, 655.4142
712.1425, 727.1505
714.0710, 804.7017
715.9995, 873.9548
717.9279, 913.1699
719.8564, 977.0521
721.7849, 1106.090
723.7133, 1245.841
725.6418, 1338.334
727.5703, 1394.969
729.4987, 1367.770
731.4272, 1195.748
733.3557, 940.9616
735.2841, 744.1201
737.2126, 626.9974
739.1411, 538.2418
741.0695, 478.5832
742.9980, 442.5279
744.9265, 416.6437
746.8549, 404.2464
748.7834, 396.5280
750.7119, 390.2610
752.6403, 385.6997
754.5688, 385.2624
756.4973, 393.1621
758.4257, 400.2498
760.3542, 402.8556
762.2827, 401.9295
764.2111, 401.1344
766.1396, 399.9920
768.0681, 400.0482
769.9965, 402.9328
771.9250, 409.1361
773.8535, 411.6895
775.7819, 407.5096
777.7104, 403.0957
779.6389, 402.1110
781.5673, 404.0510
783.4958, 405.1294
785.4243, 403.9135
787.3527, 402.6685
789.2812, 402.6622
791.2097, 404.3165
793.1381, 405.1991
795.0666, 405.8167
796.9951, 405.3492
798.9235, 402.0916
800.8520, 396.2608
802.7805, 393.1959
804.7089, 396.3304
806.6374, 400.1833
808.5659, 401.4965
810.4943, 399.3572
812.4228, 397.4362
814.3513, 395.3344
816.2797, 393.6606
818.2082, 392.9180
820.1367, 393.0493
822.0651, 393.5721
823.9936, 395.2596
825.9221, 396.5307
827.8505, 396.2032
829.7790, 393.6373
831.7075, 391.9814
833.6359, 391.6899
835.5644, 392.0253
837.4929, 392.4669
839.4213, 392.9884
841.3498, 394.0928
843.2783, 395.8878
845.2067, 398.2791
847.1352, 401.4524
849.0637, 405.7422
850.9921, 408.8353
852.9206, 410.1598
854.8491, 410.6158
856.7775, 410.3757
858.7060, 409.2450
860.6345, 408.9001
862.5629, 410.0268
864.4914, 411.3980
866.4199, 412.2471
868.3483, 412.5539
870.2768, 413.0732
872.2053, 414.2516
874.1337, 415.4285
876.0622, 416.3511
877.9907, 417.0340
879.9191, 417.4692
881.8476, 416.6734
883.7761, 416.5382
885.7045, 418.3845
887.6330, 421.8897
889.5615, 425.1194
891.4899, 428.5465
893.4184, 430.8547
895.3469, 430.8259
897.2753, 428.4572
899.2038, 427.9018
901.1323, 430.3868
903.0607, 433.2258
904.9892, 435.4241
906.9177, 437.1368
908.8461, 438.9944
910.7746, 441.1487
912.7031, 443.0684
914.6315, 444.2221
916.5600, 444.8356
918.4885, 446.1781
920.4169, 448.6896
922.3454, 451.4179
924.2739, 455.1236
926.2023, 458.8519
928.1308, 460.4090
930.0593, 459.1111
931.9877, 457.5927
933.9162, 456.7320
935.8447, 456.1852
937.7731, 455.2934
939.7016, 452.8220
941.6301, 452.2444
943.5585, 455.6740
945.4870, 460.3013
947.4155, 462.3282
949.3439, 461.3173
951.2724, 460.1512
953.2009, 459.3752
955.1293, 458.5975
957.0578, 457.1238
958.9863, 454.5793
960.9147, 453.8050
962.8432, 456.2526
964.7717, 459.6008
966.7001, 462.8008
968.6286, 465.8925
970.5571, 468.0821
972.4855, 468.2340
974.4140, 468.5393
976.3425, 470.6096
978.2709, 473.8784
980.1994, 475.9299
982.1279, 475.6578
984.0563, 475.5609
985.9848, 476.5565
987.9133, 478.4819
989.8417, 480.6064
991.7702, 482.8815
993.6987, 485.4893
995.6271, 487.9182
997.5556, 490.9315
999.4841, 495.8573
1001.413, 502.9474
1003.341, 510.8461
1005.269, 516.8268
1007.198, 525.0590
1009.126, 537.6526
1011.055, 550.9210
1012.983, 581.7440
1014.912, 591.3864
1016.840, 649.2946
1018.769, 793.1760
1020.697, 1030.385
1022.626, 1369.075
1024.554, 1910.817
1026.483, 2444.640
1028.411, 2915.609
1030.340, 3306.481
1032.268, 3517.596
1034.197, 3460.115
1036.125, 3352.306
1038.053, 3163.831
1039.982, 2985.418
1041.910, 3026.726
1043.839, 3308.218
1045.767, 3791.030
1047.696, 4540.848
1049.624, 5457.765
1051.553, 6430.074
1053.481, 7453.823
1055.410, 8570.794
1057.338, 9810.640
1059.267, 11136.15
1061.195, 12483.25
1063.124, 13841.99
1065.052, 15422.50
1066.980, 18306.33
1068.909, 20219.24
1070.837, 20463.54
1072.766, 19142.61
1074.694, 16534.24
1076.623, 11674.53
1078.551, 7536.917
1080.480, 5040.424
1082.408, 3590.960
1084.337, 2482.618
1086.265, 1733.754
1088.193, 1186.700
1090.122, 904.8936
1092.050, 742.6785
1093.979, 637.7799
1095.907, 596.4930
1097.836, 567.0194
1099.764, 555.1125
1101.693, 547.1471
1103.621, 539.0768
1105.550, 531.4153
1107.478, 525.5835
1109.407, 521.9313
1111.335, 519.1569
1113.264, 516.9978
1115.192, 515.5367
1117.120, 515.1756
1119.049, 516.3655
1120.977, 516.5191
1122.906, 514.0585
1124.834, 511.6541
1126.763, 510.6551
1128.691, 511.0547
1130.620, 511.9044
1132.548, 513.9418
1134.477, 515.4045
1136.405, 515.1075
1138.334, 514.1122
1140.262, 514.5333
1142.191, 516.8602
1144.119, 518.4061
1146.047, 517.4329
1147.976, 516.3451
1149.904, 516.8170
1151.833, 518.9454
1153.761, 521.8895
1155.690, 527.2717
1157.618, 531.6675
1159.547, 534.2574
1161.475, 535.0269
1163.404, 533.4804
1165.332, 527.6201
1167.261, 523.6997
1169.189, 523.6619
1171.118, 525.4567
1173.046, 527.3910
1174.974, 529.4568
1176.903, 531.4845
1178.831, 534.3866
1180.760, 536.0801
1182.688, 535.2311
1184.617, 532.5096
1186.545, 530.5535
1188.474, 529.5215
1190.402, 529.1342
1192.331, 529.6357
1194.259, 530.4884
1196.188, 530.9371
1198.116, 530.6815
1200.045, 531.4270
1201.973, 534.3621
1203.901, 536.9732
1205.830, 538.0399
1207.758, 537.9673
1209.687, 537.5005
1211.615, 536.3912
1213.544, 535.8754
1215.472, 537.4438
1217.401, 539.0023
1219.329, 538.3073
1221.258, 534.4595
1223.186, 533.4814
1225.115, 538.5411
1227.043, 542.9254
1228.972, 544.1512
1230.900, 543.1361
1232.828, 541.9912
1234.757, 539.9337
1236.685, 539.6040
1238.614, 542.1434
1240.542, 545.8613
1242.471, 550.3519
1244.399, 555.2408
1246.328, 558.0176
1248.256, 557.8414
1250.185, 556.7697
1252.113, 554.3510
1254.042, 552.1326
1255.970, 552.4894
1257.899, 556.1737
1259.827, 559.9842
1261.755, 564.5592
1263.684, 568.1628
1265.612, 568.7401
1267.541, 567.1432
1269.469, 568.5353
1271.398, 575.8928
1273.326, 580.6857
1275.255, 580.7729
1277.183, 578.4224
1279.112, 574.4100
1281.040, 569.1440
1282.969, 567.5676
1284.897, 572.5939
1286.826, 577.1249
1288.754, 576.9318
1290.682, 574.9224
1292.611, 575.8835
1294.539, 580.8462
1296.468, 584.1743
1298.396, 583.5098
1300.325, 582.5815
1302.253, 582.9495
1304.182, 584.3979
1306.110, 586.0172
1308.039, 588.3419
1309.967, 589.9858
1311.896, 589.9053
1313.824, 589.8660
1315.753, 591.5936
1317.681, 594.9804
1319.609, 597.5709
1321.538, 597.9815
1323.466, 600.1422
1325.395, 606.6373
1327.323, 614.8305
1329.252, 621.4180
1331.180, 626.3741
1333.109, 632.8179
1335.037, 635.9091
1336.966, 649.0421
1338.894, 677.2143
1340.823, 718.0576
1342.751, 769.3336
1344.680, 837.0012
1346.608, 897.4772
1348.536, 955.0071
1350.465, 999.3675
1352.393, 1022.930
1354.322, 1029.142
1356.250, 1028.332
1358.179, 1008.363
1360.107, 1005.833
1362.036, 1018.985
1363.964, 1054.781
1365.893, 1117.248
1367.821, 1207.463
1369.750, 1325.470
1371.678, 1475.424
1373.607, 1641.199
1375.535, 1828.756
1377.464, 2020.652
1379.392, 2211.291
1381.320, 2397.272
1383.249, 2565.472
1385.177, 2752.239
1387.106, 2836.862
1389.034, 2778.385
1390.963, 2608.868
1392.891, 2319.248
1394.820, 1890.516
1396.748, 1542.966
1398.677, 1307.479
1400.605, 1118.397
1402.534, 973.3102
1404.462, 863.9899
1406.391, 784.9050
1408.319, 738.9344
1410.247, 704.8392
1412.176, 686.7281
1414.104, 674.4332
1416.033, 667.4963
1417.961, 664.0081
1419.890, 662.2220
1421.818, 662.1458
1423.747, 662.2157
1425.675, 662.7025
1427.604, 662.7567
1429.532, 660.5643
1431.461, 658.7536
1433.389, 660.6617
1435.318, 666.0878
1437.246, 670.6095
1439.174, 673.3443
1441.103, 675.5663
1443.031, 677.1378
1444.960, 678.7496
1446.888, 681.9215
1448.817, 686.8534
1450.745, 688.6189
1452.674, 684.6981
1454.602, 681.2033
1456.531, 679.4753
1458.459, 679.3405
1460.388, 681.1888
1462.316, 685.5554
1464.245, 687.9962
1466.173, 686.5284
1468.101, 685.6723
1470.030, 686.1366
1471.958, 687.4605
1473.887, 689.2130
1475.815, 691.3497
1477.744, 694.0602
1479.672, 698.5743
1481.601, 701.9330
1483.529, 703.0840
1485.458, 703.5120
1487.386, 704.3380
1489.315, 705.5626
1491.243, 707.0093
1493.172, 708.7413
1495.100, 710.2647
1497.028, 711.3651
1498.957, 712.0978
1500.885, 712.8840
1502.814, 713.2966
1504.742, 712.0182
1506.671, 708.8926
1508.599, 704.9400
1510.528, 699.4634
1512.456, 694.5494
1514.385, 691.4454
1516.313, 689.7404
1518.242, 688.5825
1520.170, 687.9788
1522.099, 687.6174
1524.027, 687.2400
1525.955, 687.2626
1527.884, 688.1864
1529.812, 689.3899
1531.741, 689.8011
1533.669, 689.2501
1535.598, 689.2416
1537.526, 690.8569
1539.455, 691.6467
1541.383, 690.1225
1543.312, 688.1642
1545.240, 687.4947
1547.169, 688.0939
1549.097, 689.5870
1551.026, 693.4320
1552.954, 695.8874
1554.882, 695.2557
1556.811, 694.3506
1558.739, 695.7636
1560.668, 698.6434
1562.596, 699.3039
1564.525, 696.3250
1566.453, 694.0123
1568.382, 692.0027
1570.310, 691.2628
1572.239, 693.3757
1574.167, 696.5968
1576.096, 697.8809
1578.024, 696.8989
1579.953, 695.7941
1581.881, 692.8971
1583.809, 692.1002
1585.738, 697.6345
1587.666, 703.0568
1589.595, 700.4105
1591.523, 691.3426
1593.452, 687.9117
1595.380, 692.2780
1597.309, 695.9167
1599.237, 697.4310
1601.166, 697.5951
1603.094, 695.5092
1605.023, 692.8855
1606.951, 693.3002
1608.880, 696.9254
1610.808, 699.4839
1612.736, 699.7276
1614.665, 700.1841
1616.593, 701.9802
1618.522, 704.2322
1620.450, 705.9313
1622.379, 707.3046
1624.307, 708.5598
1626.236, 708.2696
1628.164, 714.3224
1630.093, 733.6737
1632.021, 753.2241
1633.950, 766.2100
1635.878, 774.3552
1637.807, 779.6770
1639.735, 782.2437
1641.663, 782.9423
1643.592, 779.7795
1645.520, 779.7326
1647.449, 784.4368
1649.377, 794.0717
1651.306, 806.9495
1653.234, 824.6663
1655.163, 853.1166
1657.091, 893.5468
1659.020, 936.9056
1660.948, 984.2329
1662.877, 1029.820
1664.805, 1075.203
1666.734, 1114.683
1668.662, 1146.917
1670.590, 1169.654
1672.519, 1164.514
1674.447, 1126.261
1676.376, 1074.237
1678.304, 999.8585
1680.233, 929.3176
1682.161, 874.0309
1684.090, 831.6508
1686.018, 799.7707
1687.947, 778.2272
1689.875, 761.9613
1691.804, 751.9044
1693.732, 743.8727
1695.661, 736.3099
1697.589, 731.0308
1699.517, 730.4065
1701.446, 732.5227
1703.374, 732.5905
1705.303, 730.3549
1707.231, 729.6342
1709.160, 731.7413
1711.088, 733.3783
1713.017, 732.2655
1714.945, 731.4989
1716.874, 733.9717
1718.802, 738.4135
1720.731, 741.1010
1722.659, 741.8915
1724.588, 741.8950
1726.516, 740.4846
1728.444, 739.7396
1730.373, 741.7125
1732.301, 743.3491
1734.230, 741.1635
1736.158, 736.9244
1738.087, 736.4046
1740.015, 740.1578
1741.944, 743.4402
1743.872, 745.2974
1745.801, 747.3118
1747.729, 750.9741
1749.658, 754.1246
1751.586, 754.5224
1753.515, 753.1774
1755.443, 752.8982
1757.371, 753.7921
1759.300, 755.1365
1761.228, 757.3441
1763.157, 758.8884
1765.085, 758.6735
1767.014, 758.1229
1768.942, 758.1490
1770.871, 758.6596
1772.799, 759.9379
1774.728, 762.0532
1776.656, 762.0111
1778.585, 758.4629
1780.513, 755.3792
1782.442, 753.4721
1784.370, 753.2323
1786.298, 755.6812
1788.227, 759.7426
1790.155, 764.1591
1792.084, 768.7661
1794.012, 770.7893
1795.941, 769.0386
1797.869, 767.1740
1799.798, 764.7946
1801.726, 764.1603
1803.655, 768.3083
1805.583, 774.0441
1807.512, 776.3800
1809.440, 775.9307
1811.369, 777.1139
1813.297, 781.0646
1815.225, 783.1995
1817.154, 781.5302
1819.082, 779.2595
1821.011, 776.3146
1822.939, 774.2549
1824.868, 775.4095
1826.796, 778.9436
1828.725, 781.3152
1830.653, 782.4896
1832.582, 783.0320
1834.510, 781.4733
1836.439, 781.5640
1838.367, 785.6423
1840.296, 790.0426
1842.224, 792.3330
1844.152, 793.1276
1846.081, 793.2575
1848.009, 792.5321
1849.938, 793.4230
1851.866, 799.4399
1853.795, 801.4506
1855.723, 794.9999
1857.652, 789.5427
1859.580, 789.3275
1861.509, 791.4653
1863.437, 793.3548
1865.366, 795.0175
1867.294, 796.6328
1869.223, 798.4277
1871.151, 799.5441
1873.079, 800.1083
1875.008, 799.8887
1876.936, 796.9033
1878.865, 795.3441
1880.793, 799.9910
1882.722, 805.8752
1884.650, 803.2980
1886.579, 794.0251
1888.507, 793.8445
1890.436, 805.6064
1892.364, 812.7122
1894.293, 810.2196
1896.221, 807.2127
1898.150, 807.1874
1900.078, 807.9911
1902.006, 807.8059
1903.935, 807.5317
1905.863, 809.4441
1907.792, 813.1573
1909.720, 813.7953
1911.649, 809.8633
1913.577, 807.8502
1915.506, 810.0127
1917.434, 812.6522
1919.363, 814.6000
1921.291, 816.2054
1923.220, 817.7523
1925.148, 819.2054
1927.077, 820.5765
1929.005, 821.9310
1930.933, 822.7388
1932.862, 822.1406
1934.790, 822.5417
1936.719, 824.9259
1938.647, 826.9772
1940.576, 827.6682
1942.504, 827.9033
1944.433, 828.0622
1946.361, 828.4554
1948.290, 830.1517
1950.218, 833.3590
1952.147, 834.7059
1954.075, 833.2336
1956.004, 833.2579
1957.932, 836.6348
1959.860, 839.2534
1961.789, 839.1373
1963.717, 838.2921
1965.646, 837.6487
1967.574, 837.3522
1969.503, 837.9222
1971.431, 839.1486
1973.360, 839.6215
1975.288, 839.1344
1977.217, 839.2887
1979.145, 841.0054
1981.074, 841.7889
1983.002, 839.5573
1984.931, 837.6497
1986.859, 837.8715
1988.787, 839.5303
1990.716, 842.8200
1992.644, 846.9499
1994.573, 848.1741
1996.501, 845.7834
1998.430, 844.3143
2000.358, 841.9298
2002.287, 843.4772
2004.215, 854.2006
2006.144, 862.2036
2008.072, 860.9984
2010.001, 857.4907
2011.929, 856.7539
2013.858, 857.7438
2015.786, 858.6068
2017.714, 859.3901
2019.643, 860.5178
2021.571, 862.0794
2023.500, 864.0151
2025.428, 867.1625
2027.357, 868.6076
2029.285, 865.9435
2031.214, 863.5228
2033.142, 864.0138
2035.071, 865.5724
2036.999, 866.7040
2038.928, 867.3202
2040.856, 866.7987
2042.785, 865.0490
2044.713, 865.1797
2046.641, 867.2618
2048.570, 871.2585
2050.499, 881.1945
2052.427, 887.2450
2054.355, 883.6799
2056.284, 880.2384
2058.212, 882.1506
2060.141, 886.4999
2062.069, 891.1419
2063.998, 895.3400
2065.926, 896.1668
2067.854, 893.9489
2069.783, 895.1934
2071.711, 900.9528
2073.640, 905.2754
2075.568, 905.7979
2077.497, 908.7357
2079.425, 918.8019
2081.354, 928.5175
2083.282, 934.2216
2085.211, 937.7074
2087.139, 939.1210
2089.068, 940.1459
2090.996, 945.7035
2092.925, 955.3791
2094.853, 959.8651
2096.781, 956.5555
2098.710, 955.6301
2100.638, 958.7043
2102.567, 961.2446
2104.495, 962.4055
2106.424, 963.2461
2108.352, 965.5887
2110.281, 966.1377
2112.209, 961.7035
2114.138, 954.7144
2116.066, 945.9725
2117.995, 937.6190
2119.923, 938.3217
2121.852, 948.0870
2123.780, 951.4173
2125.708, 944.9553
2127.637, 940.7515
2129.565, 941.8849
2131.494, 942.8734
2133.422, 942.7381
2135.351, 942.1033
2137.279, 939.5309
2139.208, 938.2136
2141.136, 943.4565
2143.065, 950.2794
2144.993, 949.2806
2146.922, 942.1117
2148.850, 935.7407
2150.779, 930.3362
2152.707, 929.8473
2154.635, 935.9998
2156.564, 939.6063
2158.492, 937.9993
2160.421, 936.0938
2162.349, 935.4774
2164.278, 934.8358
2166.206, 933.0892
2168.135, 931.5106
2170.063, 931.4043
2171.992, 931.9020
2173.920, 931.3571
2175.849, 930.2029
2177.777, 930.9917
2179.706, 933.7014
2181.634, 933.6112
2183.563, 929.9651
2185.491, 928.1813
2187.419, 930.0536
2189.348, 930.1547
2191.276, 924.5257
2193.205, 921.0573
2195.133, 925.7294
2197.062, 930.3984
2198.990, 928.7479
2200.919, 925.5692
2202.847, 926.4702
2204.776, 929.6545
2206.704, 930.6486
2208.633, 929.8895
2210.561, 932.0942
2212.490, 937.3053
2214.418, 942.1608
2216.346, 946.7986
2218.275, 948.5157
2220.203, 945.9422
2222.132, 943.4492
2224.060, 942.1973
2225.989, 941.7448
2227.917, 942.4852
2229.846, 943.3192
2231.774, 943.5724
2233.703, 943.3377
2235.631, 942.3319
2237.560, 941.0287
2239.488, 940.3110
2241.417, 940.2539
2243.345, 941.3478
2245.273, 943.6566
2247.202, 946.6193
2249.130, 950.5101
2251.059, 952.5875
2252.987, 951.9592
2254.916, 950.9357
2256.844, 949.2389
2258.773, 948.0731
2260.701, 948.6587
2262.630, 948.4676
2264.558, 945.0379
2266.487, 941.7913
2268.415, 941.5946
2270.344, 943.2163
2272.272, 945.8052
2274.200, 948.7521
2276.129, 950.3346
2278.057, 950.8444
2279.986, 951.7797
2281.914, 953.0460
2283.843, 953.1364
2285.771, 951.5757
2287.700, 950.2101
2289.628, 948.1086
2291.557, 948.3447
2293.485, 953.3001
2295.414, 957.6591
2297.342, 959.5280
2299.271, 961.7551
2301.199, 967.7770
2303.127, 971.3203
2305.056, 965.0446
2306.984, 957.1720
2308.913, 956.1014
2310.841, 958.6884
2312.770, 960.5174
2314.698, 961.8635
2316.627, 963.1273
2318.555, 964.4695
2320.484, 967.4109
2322.412, 972.3141
2324.341, 975.2425
2326.269, 975.7932
2328.198, 975.1400
2330.126, 972.6667
2332.054, 971.6256
2333.983, 973.8187
2335.911, 975.1590
2337.840, 973.4896
2339.768, 972.2342
2341.697, 972.8462
2343.625, 974.4049
2345.554, 977.8539
2347.482, 980.5711
2349.411, 979.7562
2351.339, 977.2635
2353.268, 974.1464
2355.196, 971.5726
2357.125, 971.9980
2359.053, 974.7410
2360.981, 978.1398
2362.910, 982.0092
2364.838, 984.3778
2366.767, 984.9651
2368.695, 986.3573
2370.624, 989.5148
2372.552, 990.5128
2374.481, 988.6089
2376.409, 987.2384
2378.338, 987.2496
2380.266, 987.1255
2382.195, 985.7629
2384.123, 985.2012
2386.052, 985.9594
2387.980, 987.7121
2389.908, 992.2422
2391.837, 995.2220
2393.765, 991.6048
2395.694, 987.4256
2397.622, 989.1738
2399.551, 993.0059
2401.479, 994.4720
2403.408, 994.4067
2405.336, 993.1495
2407.265, 991.7347
2409.193, 993.4186
2411.122, 997.8467
2413.050, 1003.427
2414.979, 1010.401
2416.907, 1013.618
2418.835, 1012.926
2420.764, 1009.382
2422.692, 1002.264
2424.621, 999.1063
2426.549, 1001.805
2428.478, 1004.911
2430.406, 1008.598
2432.335, 1010.243
2434.263, 1006.393
2436.192, 1005.085
2438.120, 1010.679
2440.049, 1015.719
2441.977, 1018.330
2443.906, 1018.770
2445.834, 1014.753
2447.762, 1011.663
2449.691, 1015.130
2451.619, 1019.250
2453.548, 1017.809
2455.476, 1014.744
2457.405, 1014.923
2459.333, 1016.624
2461.262, 1017.301
2463.190, 1017.116
2465.119, 1016.126
2467.047, 1014.738
2468.976, 1014.613
2470.904, 1015.367
2472.833, 1013.300
2474.761, 1008.496
2476.689, 1010.394
2478.618, 1020.979
2480.546, 1024.517
2482.475, 1019.932
2484.403, 1018.118
2486.332, 1019.960
2488.260, 1024.160
2490.189, 1032.421
2492.117, 1035.699
2494.046, 1026.623
2495.974, 1022.478
2497.903, 1030.246
2499.831, 1034.609
2501.760, 1031.593
2503.688, 1028.363
2505.616, 1027.092
2507.545, 1026.004
2509.473, 1023.435
2511.402, 1022.188
2513.330, 1024.041
2515.259, 1026.960
2517.187, 1030.407
2519.116, 1033.598
2521.044, 1036.860
2522.973, 1038.641
2524.901, 1035.628
2526.830, 1032.796
2528.758, 1036.270
2530.687, 1041.569
2532.615, 1043.468
2534.543, 1043.151
2536.472, 1041.350
2538.400, 1039.338
2540.329, 1040.649
2542.257, 1043.410
2544.186, 1041.998
2546.114, 1038.550
2548.043, 1039.478
2549.971, 1044.088
2551.900, 1050.288
2553.828, 1057.463
2555.757, 1057.964
2557.685, 1052.119
2559.614, 1049.260
2561.542, 1049.409
2563.470, 1052.457
2565.399, 1058.444
2567.327, 1061.402
2569.256, 1060.023
2571.184, 1059.986
2573.113, 1061.446
2575.041, 1063.839
2576.970, 1067.815
2578.898, 1068.247
2580.827, 1064.030
2582.755, 1060.663
2584.684, 1059.566
2586.612, 1057.961
2588.541, 1052.753
2590.469, 1052.344
2592.397, 1059.609
2594.326, 1065.471
2596.254, 1068.895
2598.183, 1069.205
2600.111, 1064.254
2602.040, 1061.077
2603.968, 1062.345
2605.897, 1064.821
2607.825, 1069.423
2609.754, 1072.328
2611.682, 1072.202
2613.611, 1070.630
2615.539, 1066.923
2617.468, 1063.898
2619.396, 1060.786
2621.324, 1061.791
2623.253, 1073.849
2625.181, 1083.350
2627.110, 1082.452
2629.038, 1080.298
2630.967, 1081.594
2632.895, 1081.120
2634.824, 1072.257
2636.752, 1065.527
2638.681, 1068.401
2640.609, 1073.658
2642.538, 1080.173
2644.466, 1083.398
2646.395, 1078.216
2648.323, 1072.223
2650.251, 1069.707
2652.180, 1069.288
2654.108, 1070.812
2656.037, 1072.875
2657.965, 1074.507
2659.894, 1075.960
2661.822, 1075.973
2663.751, 1077.623
2665.679, 1086.767
2667.608, 1094.574
2669.536, 1091.162
2671.465, 1085.073
2673.393, 1082.813
2675.322, 1083.457
2677.250, 1087.492
2679.178, 1092.490
2681.107, 1098.577
2683.035, 1101.967
2684.964, 1096.559
2686.892, 1089.283
2688.821, 1086.182
2690.749, 1086.338
2692.678, 1090.609
2694.606, 1095.865
2696.535, 1098.930
2698.463, 1101.541
2700.392, 1106.781
2702.320, 1110.865
2704.249, 1106.949
2706.177, 1102.331
2708.105, 1106.623
2710.034, 1112.414
2711.962, 1112.123
2713.891, 1110.324
2715.819, 1111.626
2717.748, 1113.908
2719.676, 1114.628
2721.605, 1115.505
2723.533, 1120.413
2725.462, 1123.896
2727.390, 1118.323
2729.319, 1112.259
2731.247, 1114.676
2733.176, 1119.587
2735.104, 1123.190
2737.032, 1124.433
2738.961, 1118.366
2740.889, 1114.117
2742.818, 1121.681
2744.746, 1130.677
2746.675, 1132.883
2748.603, 1132.359
2750.532, 1132.288
2752.460, 1131.029
2754.389, 1125.677
2756.317, 1121.317
2758.246, 1121.710
2760.174, 1124.064
2762.103, 1128.214
2764.031, 1131.253
2765.959, 1131.190
2767.888, 1129.351
2769.816, 1124.366
2771.745, 1121.077
2773.673, 1124.003
2775.602, 1126.907
2777.530, 1126.065
2779.459, 1125.447
2781.387, 1126.401
2783.316, 1128.669
2785.244, 1133.034
2787.173, 1136.933
2789.101, 1139.424
2791.030, 1140.693
2792.958, 1139.933
2794.886, 1139.180
2796.815, 1139.887
2798.743, 1138.095
2800.672, 1128.802
2802.600, 1125.030
2804.529, 1136.696
2806.457, 1142.266
2808.386, 1136.272
2810.314, 1131.651
2812.243, 1130.769
2814.171, 1130.662
2816.100, 1131.016
2818.028, 1131.028
2819.957, 1129.048
2821.885, 1133.009
2823.813, 1145.226
2825.742, 1149.961
2827.670, 1143.640
2829.599, 1142.145
2831.527, 1148.929
2833.456, 1150.384
2835.384, 1145.953
2837.313, 1144.300
2839.241, 1145.586
2841.170, 1144.462
2843.098, 1140.765
2845.027, 1139.821
2846.955, 1141.483
2848.884, 1141.807
2850.812, 1141.339
2852.740, 1143.124
2854.669, 1146.311
2856.597, 1147.617
2858.526, 1147.347
2860.454, 1145.041
2862.383, 1142.634
2864.311, 1145.711
2866.240, 1151.326
2868.168, 1156.585
2870.097, 1159.344
2872.025, 1153.115
2873.954, 1145.886
2875.882, 1149.110
2877.811, 1154.789
2879.739, 1156.365
2881.667, 1156.175
2883.596, 1155.677
2885.524, 1154.760
2887.453, 1150.908
2889.381, 1150.167
2891.310, 1159.427
2893.238, 1165.730
2895.167, 1160.672
2897.095, 1155.138
2899.024, 1151.886
2900.952, 1150.915
2902.881, 1153.293
2904.809, 1155.041
2906.738, 1154.113
2908.666, 1155.057
2910.594, 1160.996
2912.523, 1159.406
2914.451, 1147.099
2916.380, 1147.984
2918.308, 1167.427
2920.237, 1175.706
2922.165, 1170.241
2924.094, 1166.092
2926.022, 1163.534
2927.951, 1168.478
2929.879, 1178.190
2931.808, 1174.417
2933.736, 1162.000
2935.665, 1160.090
2937.593, 1164.718
2939.521, 1166.645
2941.450, 1167.414
2943.378, 1170.015
2945.307, 1172.487
2947.235, 1171.855
2949.164, 1170.256
2951.092, 1169.812
2953.021, 1169.199
2954.949, 1167.010
2956.878, 1164.958
2958.806, 1163.356
2960.735, 1163.197
2962.663, 1164.810
2964.592, 1167.852
2966.520, 1174.532
2968.448, 1177.585
2970.377, 1172.755
2972.305, 1169.607
2974.234, 1169.017
2976.162, 1168.767
2978.091, 1168.729
2980.019, 1167.592
2981.948, 1164.940
2983.876, 1166.266
2985.805, 1170.794
2987.733, 1169.387
2989.662, 1164.378
2991.590, 1168.006
2993.519, 1175.619
2995.447, 1173.717
2997.375, 1167.613
2999.304, 1164.836
3001.232, 1165.009
3003.161, 1170.518
3005.089, 1175.431
3007.018, 1172.240
3008.946, 1169.831
3010.875, 1174.734
3012.803, 1178.679
3014.732, 1176.138
3016.660, 1174.927
3018.589, 1177.890
3020.517, 1179.760
3022.446, 1179.372
3024.374, 1179.109
3026.302, 1179.394
3028.231, 1180.165
3030.159, 1181.549
3032.088, 1181.318
3034.016, 1179.859
3035.945, 1181.615
3037.873, 1185.057
3039.802, 1181.630
3041.730, 1175.942
3043.659, 1182.076
3045.587, 1190.153
3047.516, 1185.998
3049.444, 1178.950
3051.373, 1177.713
3053.301, 1178.205
3055.229, 1176.797
3057.158, 1178.329
3059.086, 1188.644
3061.015, 1195.196
3062.943, 1193.274
3064.872, 1191.753
3066.800, 1192.395
3068.729, 1190.542
3070.657, 1184.522
3072.586, 1182.368
3074.514, 1183.974
3076.443, 1182.918
3078.371, 1179.904
3080.300, 1177.572
3082.228, 1176.852
3084.156, 1181.373
3086.085, 1187.747
3088.013, 1193.193
3089.942, 1195.487
3091.870, 1188.448
3093.799, 1183.608
3095.727, 1192.069
3097.656, 1196.588
3099.584, 1188.121
3101.513, 1181.547
3103.441, 1180.905
3105.370, 1182.577
3107.298, 1186.457
3109.227, 1191.697
3111.155, 1198.149
3113.083, 1199.513
3115.012, 1196.613
3116.940, 1196.542
3118.869, 1197.363
3120.797, 1194.484
3122.726, 1189.650
3124.654, 1181.041
3126.583, 1177.265
3128.511, 1191.219
3130.440, 1202.860
3132.368, 1198.404
3134.297, 1193.597
3136.225, 1194.191
3138.154, 1192.316
3140.082, 1185.681
3142.010, 1184.815
3143.939, 1192.849
3145.867, 1195.197
3147.796, 1192.565
3149.724, 1190.493
3151.653, 1189.857
3153.581, 1194.107
3155.510, 1199.779
3157.438, 1201.808
3159.367, 1201.445
3161.295, 1198.465
3163.224, 1195.982
3165.152, 1197.629
3167.081, 1196.773
3169.009, 1189.891
3170.938, 1187.231
3172.866, 1192.135
3174.794, 1197.296
3176.723, 1202.411
3178.651, 1206.305
3180.580, 1208.605
3182.508, 1206.705
3184.437, 1202.936
3186.365, 1202.698
3188.294, 1203.987
3190.222, 1204.305
3192.151, 1204.976
3194.079, 1207.239
3196.008, 1209.716
3197.936, 1212.613
3199.865, 1213.592
3201.793, 1211.387
3203.721, 1209.857
3205.650, 1209.411
3207.578, 1208.372
3209.507, 1206.790
3211.435, 1205.054
3213.364, 1203.569
3215.292, 1204.770
3217.221, 1205.296
3219.149, 1197.268
3221.078, 1192.267
3223.006, 1203.844
3224.935, 1211.189
3226.863, 1205.213
3228.792, 1200.436
3230.720, 1199.406
3232.648, 1203.765
3234.577, 1214.637
3236.505, 1211.930
3238.434, 1200.286
3240.362, 1201.695
3242.291, 1209.567
3244.219, 1212.430
3246.148, 1212.007
3248.076, 1208.571
3250.005, 1205.283
3251.933, 1202.106
3253.862, 1203.647
3255.790, 1212.675
3257.719, 1217.322
3259.647, 1214.630
3261.575, 1212.790
3263.504, 1212.061
3265.432, 1215.767
3267.361, 1221.040
3269.289, 1220.906
3271.218, 1218.791
3273.146, 1219.295
3275.075, 1218.994
3277.003, 1213.969
3278.932, 1211.465
3280.860, 1216.974
3282.789, 1215.563
3284.717, 1204.945
3286.646, 1204.808
3288.574, 1214.766
3290.502, 1217.411
3292.431, 1215.319
3294.359, 1215.355
3296.288, 1214.696
3298.216, 1207.730
3300.145, 1203.012
3302.073, 1206.337
3304.002, 1208.966
3305.930, 1206.826
3307.859, 1205.701
3309.787, 1205.738
3311.716, 1207.024
3313.644, 1209.426
3315.573, 1212.664
3317.501, 1215.990
3319.429, 1218.642
3321.358, 1219.440
3323.286, 1214.628
3325.215, 1212.444
3327.143, 1218.746
3329.072, 1221.201
3331.000, 1216.324
3332.929, 1215.465
3334.857, 1219.358
3336.786, 1221.039
3338.714, 1220.809
3340.643, 1217.867
3342.571, 1215.753
3344.500, 1222.873
3346.428, 1226.139
3348.356, 1212.600
3350.285, 1206.864
3352.213, 1221.474
3354.142, 1227.112
3356.070, 1222.482
3357.999, 1217.913
3359.927, 1214.793
3361.856, 1219.647
3363.784, 1225.230
3365.713, 1219.526
3367.641, 1213.766
3369.570, 1216.990
3371.498, 1220.129
3373.427, 1221.211
3375.355, 1220.618
3377.283, 1217.804
3379.212, 1219.813
3381.140, 1224.361
3383.069, 1220.446
3384.997, 1215.466
3386.926, 1223.240
3388.854, 1230.178
3390.783, 1227.719
3392.711, 1223.352
3394.640, 1216.972
3396.568, 1216.614
3398.497, 1222.564
3400.425, 1230.039
3402.354, 1236.868
3404.282, 1235.163
3406.210, 1229.292
3408.139, 1221.350
3410.067, 1217.085
3411.996, 1222.682
3413.924, 1227.652
3415.853, 1230.113
3417.781, 1233.355
3419.710, 1237.585
3421.638, 1232.438
3423.567, 1223.516
3425.495, 1223.888
3427.424, 1227.480
3429.352, 1228.550
3431.281, 1230.545
3433.209, 1236.872
3435.137, 1237.245
3437.066, 1228.548
3438.994, 1223.987
3440.923, 1223.351
3442.851, 1225.589
3444.780, 1227.701
3446.708, 1222.349
3448.637, 1218.699
3450.565, 1225.486
3452.494, 1228.927
3454.422, 1224.880
3456.351, 1223.473
3458.279, 1225.252
3460.208, 1224.904
3462.136, 1223.512
3464.064, 1223.985
3465.993, 1224.971
3467.921, 1224.861
3469.850, 1226.095
3471.778, 1230.093
3473.707, 1232.182
3475.635, 1231.430
3477.564, 1230.823
3479.492, 1230.675
3481.421, 1234.013
3483.349, 1236.051
3485.278, 1228.646
3487.206, 1222.836
3489.135, 1223.137
3491.063, 1225.784
3492.991, 1231.744
3494.920, 1229.842
3496.848, 1222.774
3498.777, 1219.567
3500.705, 1219.904
3502.634, 1226.108
3504.562, 1231.075
3506.491, 1230.133
3508.419, 1229.971
3510.348, 1231.677
3512.276, 1233.750
3514.205, 1234.742
3516.133, 1224.684
3518.062, 1214.885
3519.990, 1223.546
3521.918, 1233.248
3523.847, 1234.800
3525.775, 1234.642
3527.704, 1233.469
3529.632, 1234.085
3531.561, 1235.561
3533.489, 1231.214
3535.418, 1226.566
3537.346, 1228.307
3539.275, 1231.340
3541.203, 1232.928
3543.132, 1236.996
3545.060, 1244.619
3546.989, 1242.225
3548.917, 1232.975
3550.845, 1228.498
3552.774, 1227.175
3554.702, 1229.548
3556.631, 1230.603
3558.559, 1227.633
3560.488, 1228.946
3562.416, 1236.154
3564.345, 1235.610
3566.273, 1230.779
3568.202, 1228.471
3570.130, 1228.208
3572.059, 1230.230
3573.987, 1232.661
3575.916, 1235.540
3577.844, 1236.009
3579.772, 1234.092
3581.701, 1227.792
3583.629, 1223.132
3585.558, 1234.331
3587.486, 1243.234
3589.415, 1238.020
3591.343, 1236.628
3593.272, 1244.189
3595.200, 1240.733
3597.129, 1230.935
3599.057, 1231.824
3600.986, 1236.827
3602.914, 1240.035
3604.843, 1242.734
3606.771, 1246.604
3608.699, 1245.783
3610.628, 1240.731
3612.556, 1238.964
3614.485, 1237.868
3616.413, 1229.087
3618.342, 1223.853
3620.270, 1231.710
3622.199, 1238.396
3624.127, 1241.921
3626.056, 1241.596
3627.984, 1238.741
3629.913, 1237.460
3631.841, 1236.921
3633.770, 1236.704
3635.698, 1236.277
3637.626, 1235.424
3639.555, 1235.390
3641.483, 1235.813
3643.412, 1232.737
3645.340, 1228.703
3647.269, 1226.123
3649.197, 1226.310
3651.126, 1232.397
3653.054, 1234.975
3654.983, 1233.478
3656.911, 1235.279
3658.840, 1237.177
3660.768, 1227.955
3662.697, 1221.471
3664.625, 1231.659
3666.553, 1234.265
3668.482, 1225.826
3670.410, 1226.610
3672.339, 1233.394
3674.267, 1235.425
3676.196, 1235.243
3678.124, 1233.686
3680.053, 1233.581
3681.981, 1235.711
3683.910, 1236.495
3685.838, 1236.325
3687.767, 1237.160
3689.695, 1239.552
3691.624, 1248.274
3693.552, 1248.201
3695.480, 1233.289
3697.409, 1229.665
3699.337, 1236.534
3701.266, 1238.200
3703.194, 1237.556
3705.123, 1236.924
3707.051, 1237.296
3708.980, 1239.516
3710.908, 1238.398
3712.837, 1234.508
3714.765, 1233.913
3716.694, 1236.989
3718.622, 1248.153
3720.551, 1253.900
3722.479, 1248.656
3724.407, 1239.279
3726.336, 1228.722
3728.264, 1236.240
3730.193, 1248.187
3732.121, 1249.691
3734.050, 1245.880
3735.978, 1235.710
3737.907, 1236.140
3739.835, 1245.516
3741.764, 1244.507
3743.692, 1239.233
3745.621, 1234.678
3747.549, 1233.673
3749.478, 1238.514
3751.406, 1239.254
3753.334, 1237.006
3755.263, 1242.214
3757.191, 1247.674
3759.120, 1245.014
3761.048, 1243.230
3762.977, 1246.082
3764.905, 1239.434
3766.834, 1228.058
3768.762, 1234.260
3770.691, 1244.156
3772.619, 1246.693
3774.548, 1247.221
3776.476, 1246.685
3778.405, 1247.624
3780.333, 1248.149
3782.261, 1239.053
3784.190, 1233.902
3786.118, 1245.199
3788.047, 1251.439
3789.975, 1249.527
3791.904, 1249.497
3793.832, 1249.869
3795.761, 1245.880
3797.689, 1243.402
3799.618, 1245.518
3801.546, 1250.406
3803.475, 1256.980
3805.403, 1254.209
3807.332, 1247.875
3809.260, 1244.245
3811.188, 1242.573
3813.117, 1243.823
3815.045, 1240.580
3816.974, 1234.978
3818.902, 1237.971
3820.831, 1243.628
3822.759, 1248.322
3824.688, 1249.132
3826.616, 1243.903
3828.545, 1244.225
3830.473, 1247.756
3832.402, 1250.239
3834.330, 1251.501
3836.259, 1251.637
3838.187, 1249.831
3840.115, 1246.346
3842.044, 1246.895
3843.972, 1248.526
3845.901, 1246.719
3847.829, 1247.105
3849.758, 1251.868
3851.686, 1247.905
3853.615, 1239.173
3855.543, 1242.996
3857.472, 1250.055
3859.400, 1256.164
3861.329, 1256.951
3863.257, 1252.411
3865.186, 1250.857
3867.114, 1250.248
3869.042, 1247.298
3870.971, 1243.519
3872.899, 1238.536
3874.828, 1238.105
3876.756, 1241.686
3878.685, 1247.330
3880.613, 1251.694
3882.542, 1253.107
3884.470, 1251.536
3886.399, 1247.508
3888.327, 1247.524
3890.256, 1248.676
3892.184, 1247.863
3894.113, 1249.314
3896.041, 1255.330
3897.969, 1253.352
3899.898, 1246.409
3901.826, 1246.074
3903.755, 1249.810
3905.683, 1254.491
3907.612, 1257.260
3909.540, 1259.566
3911.469, 1254.971
3913.397, 1248.899
3915.326, 1247.838
3917.254, 1248.430
3919.183, 1252.282
3921.111, 1258.052
3923.040, 1261.040
3924.968, 1258.755
3926.896, 1259.596
3928.825, 1262.431
3930.753, 1262.865
3932.682, 1265.403
3934.610, 1265.425
3936.539, 1261.873
3938.467, 1262.696
3940.396, 1266.494
3942.324, 1267.329
3944.253, 1270.140
3946.181, 1273.765
3948.110, 1270.050
3950.038, 1264.157
3951.967, 1261.640
3953.895, 1261.558
3955.823, 1262.366
3957.752, 1267.668
3959.680, 1270.024
3961.609, 1272.030
3963.537, 1268.698
3965.466, 1256.421
3967.394, 1262.009
3969.323, 1271.035
3971.251, 1267.269
3973.180, 1266.209
3975.108, 1267.039
3977.037, 1265.282
3978.965, 1264.670
3980.894, 1263.900
3982.822, 1262.407
3984.750, 1262.551
3986.679, 1261.690
3988.607, 1261.590
3990.536, 1266.611
3992.464, 1266.196
3994.393, 1260.427
3996.321, 1266.165
3998.250, 1268.882
4000.178, 1260.482
4002.107, 1261.366
4004.035, 1269.318
4005.964, 1269.400
4007.892, 1265.999
4009.821, 1269.308
4011.749, 1272.264
4013.677, 1275.578
4015.606, 1274.625
4017.534, 1271.640
4019.463, 1273.807
4021.391, 1272.602
4023.320, 1272.383
4025.248, 1275.373
4027.177, 1274.715
4029.105, 1275.407
4031.034, 1276.385
4032.962, 1273.979
4034.891, 1274.019
4036.819, 1277.881
4038.748, 1277.032
4040.676, 1277.564
4042.604, 1284.237
4044.533, 1288.067
4046.461, 1288.332
4048.390, 1284.952
4050.318, 1285.611
4052.247, 1285.441
4054.175, 1281.039
4056.104, 1282.901
4058.032, 1287.005
4059.961, 1285.651
4061.889, 1285.649
4063.818, 1288.197
4065.746, 1288.821
4067.675, 1287.210
4069.603, 1286.688
4071.531, 1290.251
4073.460, 1290.993
4075.388, 1289.596
4077.317, 1291.761
4079.245, 1294.281
4081.174, 1300.844
4083.102, 1304.184
4085.031, 1301.016
4086.959, 1303.870
4088.888, 1308.053
4090.816, 1309.017
4092.745, 1307.595
4094.673, 1304.925
4096.602, 1302.283
4098.530, 1304.835
4100.458, 1316.693
4102.387, 1322.805
4104.315, 1323.258
4106.244, 1322.261
4108.172, 1321.928
4110.101, 1324.054
4112.029, 1331.220
4113.958, 1342.143
4115.886, 1340.293
4117.814, 1336.419
4119.743, 1340.409
4121.671, 1343.189
4123.600, 1343.891
4125.528, 1347.255
4127.457, 1351.210
4129.385, 1355.673
4131.314, 1354.474
4133.242, 1349.201
4135.171, 1349.799
4137.099, 1355.489
4139.028, 1368.299
4140.956, 1373.721
4142.885, 1371.206
4144.813, 1370.503
4146.742, 1370.092
4148.670, 1366.851
4150.599, 1373.313
4152.527, 1388.251
4154.456, 1385.316
4156.384, 1379.740
4158.313, 1384.641
4160.241, 1388.152
4162.169, 1387.750
4164.098, 1388.883
4166.026, 1391.172
4167.955, 1393.141
4169.883, 1395.420
4171.812, 1398.248
4173.740, 1399.054
4175.668, 1400.575
4177.597, 1404.648
4179.525, 1404.302
4181.454, 1401.397
4183.382, 1402.134
4185.311, 1403.885
4187.239, 1409.503
4189.168, 1411.777
4191.096, 1409.117
4193.025, 1404.885
4194.953, 1400.825
4196.882, 1397.351
4198.810, 1402.065
4200.739, 1409.858
4202.667, 1407.156
4204.596, 1401.068
4206.524, 1394.302
4208.453, 1391.840
4210.381, 1392.135
4212.310, 1390.934
4214.238, 1392.093
4216.167, 1396.880
4218.095, 1393.949
4220.023, 1389.149
4221.952, 1393.362
4223.880, 1395.478
4225.809, 1393.111
4227.737, 1392.955
4229.666, 1392.143
4231.594, 1386.375
4233.522, 1378.859
4235.451, 1370.921
4237.379, 1370.793
4239.308, 1372.574
4241.236, 1370.177
4243.165, 1369.272
4245.093, 1370.433
4247.022, 1373.342
4248.950, 1373.170
4250.879, 1365.077
4252.807, 1361.217
4254.736, 1362.314
4256.664, 1369.649
4258.593, 1374.723
4260.521, 1373.264
4262.450, 1372.622
4264.378, 1371.274
4266.307, 1363.004
4268.235, 1355.298
4270.164, 1350.248
4272.092, 1353.186
4274.021, 1356.920
4275.949, 1349.992
4277.877, 1347.261
4279.806, 1351.123
4281.734, 1352.778
4283.663, 1350.034
4285.591, 1337.753
4287.520, 1338.766
4289.448, 1350.691
4291.376, 1348.669
4293.305, 1347.777
4295.233, 1357.063
4297.162, 1349.553
4299.090, 1334.903
4301.019, 1337.705
4302.947, 1340.536
4304.876, 1338.644
4306.804, 1336.637
4308.733, 1336.256
4310.661, 1339.906
4312.590, 1344.057
4314.518, 1347.354
4316.447, 1342.278
4318.375, 1338.017
4320.304, 1340.939
4322.232, 1338.492
4324.161, 1333.877
4326.089, 1338.563
4328.018, 1346.288
4329.946, 1354.878
4331.875, 1350.823
4333.803, 1342.715
4335.731, 1341.040
4337.660, 1342.040
4339.588, 1344.356
4341.517, 1344.605
4343.445, 1343.121
4345.374, 1338.998
4347.302, 1340.381
4349.230, 1343.806
4351.159, 1339.263
4353.087, 1337.127
4355.016, 1340.868
4356.944, 1342.999
4358.873, 1343.962
4360.801, 1343.894
4362.730, 1343.249
4364.658, 1342.360
4366.587, 1343.340
4368.515, 1345.249
4370.444, 1349.481
4372.372, 1347.860
4374.301, 1342.082
4376.229, 1330.324
4378.158, 1327.978
4380.086, 1337.431
4382.015, 1346.929
4383.943, 1348.868
4385.872, 1334.021
4387.800, 1330.211
4389.729, 1335.832
4391.657, 1345.784
4393.585, 1350.743
4395.514, 1348.469
4397.442, 1344.681
4399.371, 1340.903
4401.299, 1338.150
4403.228, 1336.641
4405.156, 1336.205
4407.084, 1335.451
4409.013, 1337.334
4410.941, 1342.733
4412.870, 1347.424
4414.798, 1350.896
4416.727, 1352.460
4418.655, 1355.523
4420.584, 1358.256
4422.512, 1349.251
4424.441, 1342.314
4426.369, 1344.624
4428.298, 1348.076
4430.226, 1351.035
4432.155, 1349.334
4434.083, 1355.875
4436.012, 1367.625
4437.940, 1356.450
4439.869, 1348.268
4441.797, 1353.609
4443.726, 1364.193
4445.654, 1372.095
4447.583, 1366.183
4449.511, 1366.455
4451.439, 1372.594
4453.368, 1372.514
4455.296, 1372.792
4457.225, 1376.136
4459.153, 1376.883
4461.082, 1378.690
4463.010, 1388.351
4464.938, 1392.512
4466.867, 1391.226
4468.795, 1387.381
4470.724, 1387.588
4472.652, 1394.850
4474.581, 1400.036
4476.509, 1401.555
4478.438, 1396.203
4480.366, 1396.828
4482.295, 1402.927
4484.223, 1412.204
4486.152, 1421.235
4488.080, 1427.952
4490.009, 1416.177
4491.937, 1407.705
4493.866, 1422.896
4495.794, 1424.732
4497.723, 1421.745
4499.651, 1433.055
4501.580, 1444.566
4503.508, 1452.937
4505.437, 1448.888
4507.365, 1446.430
4509.293, 1451.847
4511.222, 1456.440
4513.150, 1458.719
4515.079, 1455.830
4517.007, 1459.265
4518.936, 1466.646
4520.864, 1466.846
4522.792, 1470.077
4524.721, 1479.256
4526.649, 1479.038
4528.578, 1476.777
4530.506, 1475.850
4532.435, 1487.943
4534.363, 1499.802
4536.292, 1486.925
4538.220, 1478.416
4540.149, 1478.069
4542.077, 1483.336
4544.006, 1486.239
4545.934, 1484.252
4547.863, 1483.376
4549.791, 1484.164
4551.720, 1488.124
4553.648, 1488.041
4555.577, 1486.891
4557.505, 1494.179
4559.434, 1490.642
4561.362, 1478.012
4563.291, 1491.844
4565.219, 1498.838
4567.147, 1487.652
4569.076, 1479.949
4571.004, 1476.823
4572.933, 1479.571
4574.861, 1480.406
4576.790, 1481.051
4578.718, 1490.041
4580.646, 1484.620
4582.575, 1467.055
4584.503, 1466.577
4586.432, 1468.767
4588.360, 1468.760
4590.289, 1466.281
4592.217, 1464.510
4594.146, 1466.207
4596.074, 1466.041
4598.003, 1463.730
4599.931, 1458.202
4601.860, 1455.025
4603.788, 1452.991
4605.717, 1442.854
4607.645, 1440.650
4609.574, 1447.928
4611.502, 1449.272
4613.431, 1447.771
4615.359, 1445.161
4617.288, 1438.218
4619.216, 1432.036
4621.145, 1432.577
4623.073, 1433.366
4625.001, 1432.897
4626.930, 1428.799
4628.858, 1424.261
4630.787, 1419.806
4632.715, 1415.867
4634.644, 1409.303
4636.572, 1400.026
4638.500, 1405.437
4640.429, 1408.805
4642.357, 1400.076
4644.286, 1398.536
4646.214, 1398.707
4648.143, 1395.595
4650.071, 1390.010
4652.000, 1385.751
4653.928, 1393.056
4655.857, 1385.441
4657.785, 1367.258
4659.714, 1363.693
4661.642, 1361.687
4663.571, 1359.193
4665.499, 1370.828
4667.428, 1372.591
4669.356, 1356.033
4671.285, 1356.336
4673.213, 1359.172
4675.142, 1353.508
4677.070, 1342.639
4678.999, 1333.328
4680.927, 1333.736
4682.855, 1329.778
4684.784, 1323.886
4686.712, 1322.485
4688.641, 1324.150
4690.569, 1326.309
4692.498, 1320.340
4694.426, 1314.424
4696.354, 1310.553
4698.283, 1309.918
4700.211, 1310.324
4702.140, 1310.707
4704.068, 1304.520
4705.997, 1300.430
4707.925, 1305.425
4709.854, 1302.906
4711.782, 1295.058
4713.711, 1282.687
4715.639, 1275.758
4717.568, 1275.481
4719.496, 1286.297
4721.425, 1287.134
4723.353, 1282.660
4725.282, 1287.037
4727.210, 1282.330
4729.139, 1271.160
4731.067, 1268.471
4732.996, 1269.590
4734.924, 1271.989
4736.853, 1268.965
4738.781, 1264.516
4740.709, 1260.322
4742.638, 1263.778
4744.566, 1264.167
4746.495, 1257.740
4748.423, 1255.766
4750.352, 1257.410
4752.280, 1263.573
4754.208, 1257.266
4756.137, 1249.529
4758.065, 1248.592
4759.994, 1253.112
4761.922, 1255.944
4763.851, 1245.225
4765.779, 1251.115
4767.708, 1260.940
4769.636, 1254.139
4771.565, 1247.936
4773.493, 1243.133
4775.422, 1234.878
4777.350, 1236.574
4779.279, 1244.185
4781.207, 1243.612
4783.136, 1239.977
4785.064, 1235.961
4786.993, 1237.757
4788.921, 1237.103
4790.850, 1232.785
4792.778, 1227.581
4794.707, 1226.437
4796.635, 1229.692
4798.563, 1231.278
4800.492, 1231.723
4802.420, 1231.276
4804.349, 1228.072
4806.277, 1226.394
4808.206, 1227.704
4810.134, 1226.819
4812.063, 1225.694
4813.991, 1225.240
4815.919, 1226.173
4817.848, 1226.296
4819.776, 1224.427
4821.705, 1220.146
4823.633, 1216.031
4825.562, 1213.795
4827.490, 1204.619
4829.419, 1201.106
4831.347, 1214.362
4833.276, 1214.632
4835.204, 1209.275
4837.133, 1204.033
4839.061, 1206.191
4840.990, 1209.959
4842.918, 1210.263
4844.847, 1205.367
4846.775, 1200.084
4848.704, 1198.809
4850.632, 1199.672
4852.561, 1200.027
4854.489, 1196.934
4856.417, 1193.802
4858.346, 1194.760
4860.274, 1206.442
4862.203, 1207.215
4864.131, 1202.346
4866.060, 1198.674
4867.988, 1199.182
4869.917, 1200.527
4871.845, 1199.610
4873.773, 1193.135
4875.702, 1186.084
4877.630, 1183.633
4879.559, 1191.585
4881.487, 1199.071
4883.416, 1191.449
4885.344, 1184.196
4887.273, 1181.788
4889.201, 1189.202
4891.130, 1197.215
4893.058, 1198.651
4894.987, 1183.018
4896.915, 1174.664
4898.844, 1171.027
4900.772, 1167.651
4902.701, 1172.931
4904.629, 1181.758
4906.558, 1191.997
4908.486, 1182.115
4910.415, 1168.927
4912.343, 1168.416
4914.271, 1173.807
4916.200, 1177.225
4918.128, 1171.737
4920.057, 1160.694
4921.985, 1157.323
4923.914, 1172.280
4925.842, 1176.630
4927.771, 1175.169
4929.699, 1172.326
4931.627, 1170.154
4933.556, 1168.604
4935.484, 1167.676
4937.413, 1169.575
4939.341, 1165.430
4941.270, 1151.414
4943.198, 1159.264
4945.127, 1169.489
4947.055, 1171.797
4948.984, 1162.636
4950.912, 1154.309
4952.841, 1151.542
4954.769, 1153.529
4956.698, 1153.464
4958.626, 1149.962
4960.555, 1155.085
4962.483, 1155.619
4964.412, 1149.997
4966.340, 1147.238
4968.269, 1145.023
4970.197, 1144.197
4972.125, 1153.368
4974.054, 1152.361
4975.982, 1144.482
4977.911, 1149.835
4979.839, 1149.762
4981.768, 1145.121
4983.696, 1141.635
4985.625, 1142.150
4987.553, 1143.304
4989.481, 1139.850
4991.410, 1134.555
4993.338, 1130.394
4995.267, 1129.912
4997.195, 1137.686
4999.124, 1140.834
5001.052, 1127.941
5002.981, 1127.830
5004.909, 1130.240
5006.838, 1128.146
5008.766, 1133.249
5010.695, 1133.019
5012.623, 1121.732
5014.552, 1121.785
5016.480, 1123.093
5018.409, 1121.400
5020.337, 1108.227
5022.266, 1109.568
5024.194, 1123.803
5026.123, 1118.906
5028.051, 1118.312
5029.979, 1120.953
5031.908, 1113.959
5033.836, 1108.615
5035.765, 1107.891
5037.693, 1118.771
5039.622, 1108.850
5041.550, 1098.684
5043.479, 1110.075
5045.407, 1112.819
5047.335, 1111.088
5049.264, 1108.939
5051.192, 1100.509
5053.121, 1096.694
5055.049, 1101.846
5056.978, 1107.520
5058.906, 1103.042
5060.835, 1090.762
5062.763, 1090.309
5064.692, 1090.856
5066.620, 1090.687
5068.549, 1090.573
5070.477, 1095.654
5072.406, 1100.934
5074.334, 1098.894
5076.263, 1093.386
5078.191, 1088.326
5080.120, 1086.872
5082.048, 1088.157
5083.977, 1087.595
5085.905, 1083.237
5087.833, 1081.428
5089.762, 1080.409
5091.690, 1080.234
5093.619, 1086.055
5095.547, 1088.063
5097.476, 1086.626
5099.404, 1088.502
5101.333, 1087.593
5103.261, 1083.914
5105.189, 1077.432
5107.118, 1082.257
5109.046, 1084.023
5110.975, 1067.266
5112.903, 1074.305
5114.832, 1082.292
5116.760, 1081.088
5118.689, 1067.454
5120.617, 1066.010
5122.546, 1076.067
5124.474, 1073.840
5126.403, 1066.680
5128.331, 1062.278
5130.260, 1071.552
5132.188, 1072.671
5134.117, 1069.569
5136.045, 1067.446
5137.974, 1062.017
5139.902, 1061.388
5141.831, 1068.176
5143.759, 1066.081
5145.688, 1059.332
5147.616, 1052.673
5149.544, 1056.376
5151.473, 1059.614
5153.401, 1062.403
5155.330, 1069.801
5157.258, 1062.061
5159.187, 1048.824
5161.115, 1038.181
5163.043, 1045.489
5164.972, 1048.824
5166.900, 1042.961
5168.829, 1046.403
5170.757, 1051.422
5172.686, 1056.359
5174.614, 1063.962
5176.543, 1050.388
5178.471, 1037.083
5180.400, 1046.027
5182.328, 1047.797
5184.257, 1044.386
5186.185, 1038.506
5188.114, 1036.740
5190.042, 1043.487
5191.971, 1053.219
5193.899, 1050.364
5195.828, 1050.039
5197.756, 1046.814
5199.685, 1029.936
5201.613, 1035.351
5203.542, 1040.079
5205.470, 1033.753
5207.398, 1041.323
5209.327, 1042.623
5211.255, 1036.691
5213.184, 1031.270
5215.112, 1031.836
5217.041, 1034.897
5218.969, 1036.994
5220.897, 1035.402
5222.826, 1031.660
5224.754, 1026.633
5226.683, 1020.611
5228.611, 1013.796
5230.540, 1010.052
5232.468, 1019.155
5234.397, 1024.791
5236.325, 1023.272
5238.254, 1012.333
5240.182, 1015.599
5242.111, 1023.327
5244.039, 1028.091
5245.968, 1012.847
5247.896, 1011.304
5249.825, 1017.930
5251.753, 1017.174
5253.682, 1008.622
5255.610, 1004.479
5257.539, 1010.535
5259.467, 1013.337
5261.396, 1011.534
5263.324, 1007.119
5265.252, 1004.156
5267.181, 1007.792
5269.109, 1009.893
5271.038, 1002.084
5272.966, 1006.688
5274.895, 1003.443
5276.823, 991.5880
5278.751, 1001.342
5280.680, 1000.270
5282.608, 993.4907
5284.537, 993.7900
5286.465, 997.4915
5288.394, 998.2738
5290.322, 994.1683
5292.251, 994.0026
5294.179, 993.6211
5296.108, 993.0685
5298.036, 994.9469
5299.965, 989.2658
5301.893, 982.0954
5303.822, 977.8759
5305.750, 980.0851
5307.679, 987.9657
5309.607, 994.1429
5311.536, 983.2274
5313.464, 981.0360
5315.393, 980.5589
5317.321, 975.1579
5319.250, 977.8293
5321.178, 977.0170
5323.106, 973.9802
5325.035, 982.7886
5326.963, 976.7352
5328.892, 971.7952
5330.820, 980.2878
5332.749, 969.7094
5334.677, 965.2391
5336.605, 969.0399
5338.534, 965.1512
5340.462, 962.0782
5342.391, 962.7958
5344.319, 968.4632
5346.248, 964.0015
5348.176, 966.7963
5350.105, 973.8875
5352.033, 966.8390
5353.962, 962.7795
5355.890, 960.6541
5357.819, 958.5057
5359.747, 961.4539
5361.676, 959.3812
5363.604, 952.6490
5365.533, 946.5671
5367.461, 951.5868
5369.390, 952.2053
5371.318, 941.6075
5373.247, 949.6168
5375.175, 944.1916
5377.104, 935.4908
5379.032, 958.4515
5380.960, 955.5187
5382.889, 951.0347
5384.817, 954.8916
5386.746, 943.9694
5388.674, 940.1603
5390.603, 939.3757
5392.531, 932.3763
5394.459, 929.7836
5396.388, 936.0176
5398.316, 945.2264
5400.245, 928.7394
5402.173, 923.4627
5404.102, 927.6848
5406.030, 934.8511
5407.959, 930.2628
5409.887, 925.2737
5411.816, 923.2758
5413.744, 924.4200
5415.673, 925.8401
5417.601, 928.4739
5419.530, 931.6964
5421.458, 924.9232
5423.387, 920.4336
5425.315, 922.9916
5427.244, 934.5529
5429.172, 930.1959
5431.101, 918.9109
5433.029, 909.5172
5434.958, 916.2446
5436.886, 922.1009
5438.814, 923.2870
5440.743, 919.0569
5442.671, 917.0829
5444.600, 912.3314
5446.528, 904.7482
5448.457, 895.6816
5450.385, 896.8745
5452.313, 902.9415
5454.242, 908.6626
5456.170, 905.8005
5458.099, 905.5210
5460.027, 901.4423
5461.956, 890.3296
5463.884, 899.2950
5465.813, 895.7416
5467.741, 887.1796
5469.670, 891.1994
5471.598, 902.5333
5473.527, 905.7342
5475.455, 899.3905
5477.384, 891.6144
5479.312, 891.1100
5481.241, 891.5500
5483.169, 889.5213
5485.098, 889.9879
5487.026, 892.1407
5488.955, 892.3959
5490.883, 887.8807
5492.812, 882.6242
5494.740, 881.0833
5496.668, 883.1849
5498.597, 888.1132
5500.525, 878.7562
5502.454, 869.5372
5504.382, 867.5820
5506.311, 875.3036
5508.239, 879.6774
5510.167, 880.0513
5512.096, 877.5372
5514.024, 875.0114
5515.953, 874.2158
5517.881, 873.2080
5519.810, 869.9484
5521.738, 866.1709
5523.667, 867.6247
5525.595, 870.9977
5527.524, 868.5891
5529.452, 861.4797
5531.381, 859.7802
5533.309, 862.4674
5535.238, 857.0776
5537.166, 854.1877
5539.095, 858.2420
5541.023, 866.5775
5542.952, 861.4352
5544.880, 856.2303
5546.809, 855.7667
5548.737, 860.9498
5550.666, 858.0820
5552.594, 859.3527
5554.522, 860.0939
5556.451, 853.1359
5558.379, 848.5426
5560.308, 853.1136
5562.236, 857.6042
5564.165, 848.4448
5566.093, 845.0493
5568.021, 839.9567
5569.950, 836.2740
5571.878, 845.4810
5573.807, 851.0592
5575.735, 846.4355
5577.664, 836.5652
5579.592, 841.8596
5581.521, 838.0531
5583.449, 836.6823
5585.378, 840.6744
5587.306, 838.5565
5589.235, 835.7745
5591.163, 835.4034
5593.092, 837.1543
5595.020, 832.4058
5596.949, 836.6576
5598.877, 839.8892
5600.806, 835.5414
5602.734, 839.2900
5604.663, 828.3304
5606.591, 817.9674
5608.520, 821.4183
5610.448, 818.0211
5612.376, 817.4613
5614.305, 817.8087
5616.233, 816.0318
5618.162, 815.0511
5620.090, 817.0770
5622.019, 816.9452
5623.947, 810.2925
5625.875, 807.8019
5627.804, 805.7734
5629.732, 805.3766
5631.661, 809.0545
5633.589, 805.4086
5635.518, 805.8801
5637.446, 808.2363
5639.375, 806.9520
5641.303, 805.6753
5643.232, 805.3848
5645.160, 805.3229
5647.089, 804.3011
5649.017, 799.1685
5650.946, 799.9387
5652.874, 800.9075
5654.803, 793.8364
5656.731, 787.4968
5658.660, 787.8486
5660.588, 790.7476
5662.517, 790.3351
5664.445, 784.2550
5666.374, 788.5592
5668.302, 792.5856
5670.230, 782.5052
5672.159, 783.7538
5674.087, 787.1737
5676.016, 788.9793
5677.944, 787.3849
5679.873, 776.4852
5681.801, 781.2665
5683.729, 784.8486
5685.658, 772.5568
5687.586, 778.3638
5689.515, 780.0758
5691.443, 778.3993
5693.372, 777.0475
5695.300, 774.5444
5697.229, 774.3312
5699.157, 772.7009
5701.086, 768.6840
5703.014, 773.3340
5704.943, 766.5365
5706.871, 756.9722
5708.800, 752.4350
5710.728, 755.7193
5712.657, 751.3099
5714.585, 754.8519
5716.514, 765.6885
5718.442, 759.0030
5720.371, 755.4952
5722.299, 751.0455
5724.228, 745.3922
5726.156, 742.1693
5728.084, 746.1011
5730.013, 749.0071
5731.941, 748.0205
5733.870, 743.0109
5735.798, 737.9642
5737.727, 738.1819
5739.655, 742.1832
5741.583, 745.9418
5743.512, 735.7123
5745.440, 737.3683
5747.369, 741.3705
5749.297, 737.4300
5751.226, 733.3131
5753.154, 731.0139
5755.083, 732.4169
5757.011, 736.3524
5758.940, 734.5462
5760.868, 734.5262
5762.797, 735.2632
5764.725, 735.0560
5766.654, 731.9279
5768.582, 725.5013
5770.511, 724.2238
5772.439, 723.7770
5774.368, 715.0917
5776.296, 710.5016
5778.225, 714.5350
5780.153, 718.4894
5782.082, 715.8570
5784.010, 720.5189
5785.938, 717.4478
5787.867, 712.6720
5789.795, 711.0314
5791.724, 710.9706
5793.652, 718.3031
5795.581, 716.7681
5797.509, 708.4706
5799.438, 709.6472
5801.366, 711.3644
5803.294, 708.5829
5805.223, 705.1678
5807.151, 705.9666
5809.080, 700.3033
5811.008, 702.9255
5812.937, 698.7001
5814.865, 685.3610
5816.794, 695.6053
5818.722, 691.6675
5820.651, 689.0467
5822.579, 688.5275
5824.508, 679.2583
5826.436, 690.5778
5828.365, 690.5926
5830.293, 688.7390
5832.222, 698.0062
5834.150, 696.7575
5836.079, 689.3036
5838.007, 683.4868
5839.936, 682.6115
5841.864, 685.5154
5843.792, 683.8465
5845.721, 682.6729
5847.649, 684.1905
5849.578, 688.5887
5851.506, 690.9039
5853.435, 685.7444
5855.363, 675.6349
5857.292, 666.7879
5859.220, 674.7562
5861.148, 682.0588
5863.077, 679.5759
5865.005, 669.2194
5866.934, 658.6157
5868.862, 671.3233
5870.791, 668.9477
5872.719, 669.0909
5874.648, 680.0926
5876.576, 659.4794
5878.505, 665.3187
5880.433, 667.5215
5882.362, 661.8737
5884.290, 663.3914
5886.219, 665.3257
5888.147, 665.5930
5890.076, 662.2380
5892.004, 657.1387
5893.933, 662.6522
5895.861, 662.0460
5897.790, 657.2081
5899.718, 652.9543
5901.646, 653.6364
5903.575, 655.1557
5905.503, 654.3201
5907.432, 654.5997
5909.360, 655.7086
5911.289, 646.9081
5913.217, 651.6786
5915.146, 652.4589
5917.074, 647.9576
5919.002, 644.3082
5920.931, 652.4590
5922.859, 651.6722
5924.788, 650.1721
5926.716, 651.4586
5928.645, 651.6550
5930.573, 651.5474
5932.502, 648.6650
5934.430, 650.6891
5936.359, 654.8839
5938.287, 628.8767
5940.216, 627.6927
5942.144, 627.4616
5944.073, 624.9461
5946.001, 627.7925
5947.930, 628.5927
5949.858, 633.1722
5951.787, 632.6495
5953.715, 629.0089
5955.644, 634.0112
5957.572, 629.6531
5959.500, 628.5866
5961.429, 631.2160
5963.357, 633.8855
5965.286, 630.8320
5967.214, 626.4717
5969.143, 619.3836
5971.071, 616.1654
5973.000, 621.1224
5974.928, 619.7221
5976.856, 617.4693
5978.785, 622.8002
5980.713, 627.1030
5982.642, 615.2526
5984.570, 617.8177
5986.499, 616.4378
5988.427, 612.5800
5990.356, 610.7784
5992.284, 616.5524
5994.213, 606.5856
5996.141, 603.1274
5998.070, 600.4194
5999.998, 595.5093
6001.927, 597.6075
6003.855, 596.0079
6005.784, 599.1322
6007.712, 601.6492
6009.641, 598.6906
6011.569, 592.5278
6013.498, 589.0269
6015.426, 595.0335
6017.354, 593.1387
6019.283, 577.7587
6021.211, 593.0553
6023.140, 593.1116
6025.068, 586.4982
6026.997, 579.9305
6028.925, 576.5569
6030.854, 579.6486
6032.782, 582.9502
6034.710, 576.8509
6036.639, 578.7368
6038.567, 598.4095
6040.496, 583.2341
6042.424, 581.0877
6044.353, 577.4421
6046.281, 573.7938
6048.210, 578.1475
6050.138, 585.0685
6052.067, 574.6459
6053.995, 569.7423
6055.924, 571.5093
6057.852, 570.8052
6059.781, 565.0323
6061.709, 563.4617
6063.638, 565.0233
6065.566, 568.4948
6067.495, 571.4382
6069.423, 564.0833
6071.352, 557.9181
6073.280, 561.3815
6075.208, 563.5421
6077.137, 556.9800
6079.065, 562.6144
6080.994, 557.7307
6082.922, 556.7117
6084.851, 555.9246
6086.779, 551.5914
6088.708, 556.5148
6090.636, 551.6395
6092.564, 549.4281
6094.493, 547.4136
6096.421, 544.0450
6098.350, 547.7445
6100.278, 543.6419
6102.207, 546.6537
6104.135, 546.2677
6106.064, 539.6454
6107.992, 539.2851
6109.921, 539.4600
6111.849, 541.7775
6113.778, 544.4725
6115.706, 542.5399
6117.635, 532.6997
6119.563, 536.1354
6121.492, 539.4255
6123.420, 536.4653
6125.349, 532.8558
6127.277, 535.2184
6129.206, 534.4544
6131.134, 537.4891
6133.063, 531.2057
6134.991, 525.6444
6136.919, 527.6068
6138.848, 518.6706
6140.776, 523.5629
6142.705, 522.2018
6144.633, 520.5399
6146.562, 524.4076
6148.490, 529.8104
6150.418, 514.6032
6152.347, 515.8336
6154.275, 516.9794
6156.204, 514.8768
6158.132, 517.8129
6160.061, 518.3825
6161.989, 525.3558
6163.918, 525.3959
6165.846, 518.9154
6167.775, 511.7839
6169.703, 508.0757
6171.632, 512.5885
6173.560, 508.0426
6175.489, 510.4221
6177.417, 515.3967
6179.346, 504.1263
6181.274, 505.9073
6183.203, 501.2878
6185.131, 502.5023
6187.060, 504.5794
6188.988, 500.6209
6190.917, 498.3398
6192.845, 494.5587
6194.773, 493.0326
6196.702, 495.8286
6198.630, 500.9348
6200.559, 503.6583
6202.487, 498.9905
6204.416, 495.8979
6206.344, 492.0453
6208.272, 489.1996
6210.201, 490.6889
6212.129, 497.2509
6214.058, 491.4107
6215.986, 484.7013
6217.915, 488.0710
6219.843, 495.0926
6221.772, 492.7658
6223.700, 482.7109
6225.629, 482.8958
6227.557, 480.8184
6229.486, 477.7655
6231.414, 476.9985
6233.343, 477.1686
6235.271, 471.4709
6237.200, 477.2436
6239.128, 475.2513
6241.057, 474.1140
6242.985, 481.0954
6244.914, 472.3699
6246.842, 476.4017
6248.771, 467.5323
6250.699, 465.8067
6252.627, 469.5300
6254.556, 465.6157
6256.484, 467.7585
6258.413, 467.1340
6260.341, 463.1529
6262.270, 463.9161
6264.198, 467.6530
6266.126, 465.8478
6268.055, 461.0850
6269.983, 461.7586
6271.912, 463.5571
6273.840, 460.7978
6275.769, 455.5061
6277.697, 454.9655
6279.626, 457.6908
6281.554, 450.3272
6283.483, 448.3839
6285.411, 452.3724
6287.340, 455.7473
6289.268, 453.7927
6291.197, 452.3390
6293.125, 452.5520
6295.054, 450.3646
6296.982, 450.6095
6298.911, 450.8735
6300.839, 442.2469
6302.768, 448.9301
6304.696, 449.5905
6306.625, 442.4735
6308.553, 441.2850
6310.481, 443.7946
6312.410, 433.4678
6314.338, 442.7502
6316.267, 441.4737
6318.195, 442.3188
6320.124, 438.7427
6322.052, 431.6765
6323.980, 433.9280
6325.909, 428.0415
6327.837, 427.4032
6329.766, 430.3073
6331.694, 429.4510
6333.623, 426.0216
6335.551, 427.1901
6337.480, 436.2856
6339.408, 418.1589
6341.337, 425.2033
6343.265, 433.9801
6345.194, 430.5995
6347.122, 424.1133
6349.051, 423.9186
6350.979, 424.7716
6352.908, 416.1494
6354.836, 411.7015
6356.765, 418.7564
6358.693, 426.0117
6360.622, 410.7341
6362.550, 423.3296
6364.479, 417.3499
6366.407, 417.1364
6368.335, 417.0333
6370.264, 412.9219
6372.192, 415.7932
6374.121, 416.0367
6376.049, 412.9807
6377.978, 410.9787
6379.906, 412.9884
6381.834, 414.0493
6383.763, 409.9316
6385.691, 410.3745
6387.620, 401.6909
6389.548, 404.0767
6391.477, 404.3743
6393.405, 397.5832
6395.334, 391.5297
6397.262, 397.6081
6399.191, 403.7334
6401.119, 402.4905
6403.048, 401.1363
6404.976, 399.8403
6406.905, 397.1179
6408.833, 394.5366
6410.762, 397.2859
6412.690, 398.1528
6414.619, 397.5239
6416.547, 393.1318
6418.476, 388.8150
6420.404, 386.5503
6422.333, 385.7908
6424.261, 392.4750
6426.189, 380.6478
6428.118, 384.3683
6430.046, 388.4777
6431.975, 389.7029
6433.903, 391.1346
6435.832, 387.7019
6437.760, 379.8504
6439.688, 387.2645
6441.617, 384.0715
6443.545, 377.5107
6445.474, 378.7488
6447.402, 385.3333
6449.331, 383.3521
6451.259, 383.0560
6453.188, 370.5574
6455.116, 371.7152
6457.045, 374.7470
6458.973, 375.8466
6460.902, 377.8999
6462.830, 371.1888
6464.759, 367.5109
6466.687, 374.6138
6468.616, 372.7580
6470.544, 374.8403
6472.473, 377.9400
6474.401, 371.0760
6476.330, 363.1092
6478.258, 363.9558
6480.187, 371.1681
6482.115, 368.1793
6484.043, 367.5320
6485.972, 366.2640
6487.900, 359.0970
6489.829, 361.1695
6491.757, 372.1336
6493.686, 367.4395
6495.614, 367.2989
6497.542, 360.2267
6499.471, 353.5402
6501.399, 355.8672
6503.328, 356.7276
6505.256, 358.9360
6507.185, 355.2993
6509.113, 349.0090
6511.042, 349.5471
6512.970, 351.6281
6514.899, 352.2684
6516.827, 355.8419
6518.756, 356.2950
6520.684, 351.3371
6522.613, 349.6119
6524.541, 351.5390
6526.470, 354.0344
6528.398, 349.8352
6530.327, 340.5157
6532.255, 344.1537
6534.184, 345.7971
6536.112, 345.3176
6538.041, 345.1425
6539.969, 346.2635
6541.897, 348.2480
6543.826, 347.3610
6545.754, 340.3344
6547.683, 340.5461
6549.611, 326.7523
6551.540, 334.0057
6553.468, 332.2045
6555.396, 335.3268
6557.325, 344.6671
6559.253, 346.2906
6561.182, 340.2425
6563.110, 337.4532
6565.039, 329.4384
6566.967, 338.1988
6568.896, 338.8383
6570.824, 335.3253
6572.753, 334.3596
6574.681, 331.0084
6576.610, 321.4495
6578.538, 333.3546
6580.467, 324.7358
6582.395, 325.0767
6584.324, 325.1111
6586.252, 326.1588
6588.181, 329.0621
6590.109, 330.3682
6592.038, 333.6143
6593.966, 320.7770
6595.895, 323.2478
6597.823, 327.8064
6599.751, 325.3676
6601.680, 320.7727
6603.608, 318.2650
6605.537, 317.5958
6607.465, 319.3840
6609.394, 318.1022
6611.322, 319.1630
6613.250, 322.1018
6615.179, 316.7896
6617.107, 310.0478
6619.036, 308.8631
6620.964, 311.8831
6622.893, 314.6373
6624.821, 322.3344
6626.750, 316.3106
##END=



