##NAMES=Nitratine
##RRUFFID=R050658
##IDEAL CHEMISTRY=Na(NO_3_)
##LOCALITY=Peru
##OWNER=RRUFF
##SOURCE=University of Arizona Mineral Museum
##DESCRIPTION=Group of colorless crystals
##STATUS=The identification of this mineral has been confirmed by X-ray diffraction and chemical analysis
##URL=https://www.rruff.net/odr/rruff_sample/R050658
##MEASURED CHEMISTRY=Na_0.92_N_1.00_O_2.96_ ; N not measured but estimated by difference and stoichiometry
##DIFFRACTION SAMPLE DESCRIPTION=Powder
##CELL PARAMETERS=a: 5.06953 b: 5.06953 c: 16.8274 alpha: 90 beta: 90 gamma: 120 volume: 374.52 crystal system: hexagonal
##FILETYPE=Raman RAW
##RAMAN WAVELENGTH=532

124.4228, 1069.056
126.3512, 1286.111
128.2797, 1506.017
130.2082, 1706.479
132.1366, 1878.186
134.0651, 2023.557
135.9936, 2093.887
137.9220, 2186.877
139.8505, 2292.756
141.7790, 2402.546
143.7074, 2531.734
145.6359, 2682.875
147.5644, 2845.373
149.4928, 3052.282
151.4213, 3287.466
153.3498, 3561.474
155.2782, 3905.363
157.2067, 4276.939
159.1352, 4748.642
161.0636, 5338.450
162.9921, 6041.526
164.9206, 6885.732
166.8490, 7882.875
168.7775, 9029.038
170.7060, 10291.33
172.6344, 11827.22
174.5629, 13395.54
176.4914, 14862.66
178.4198, 16365.73
180.3483, 17537.72
182.2768, 18255.68
184.2052, 18579.69
186.1337, 18464.95
188.0622, 17766.79
189.9906, 16763.44
191.9191, 15619.63
193.8476, 14324.47
195.7760, 13019.14
197.7045, 11722.33
199.6330, 10441.60
201.5614, 9283.421
203.4899, 8245.490
205.4184, 7325.900
207.3468, 6504.908
209.2753, 5788.502
211.2038, 5156.763
213.1322, 4599.836
215.0607, 4125.808
216.9892, 3706.473
218.9176, 3349.976
220.8461, 3046.138
222.7746, 2782.627
224.7030, 2570.203
226.6315, 2380.644
228.5600, 2215.399
230.4884, 2075.236
232.4169, 1957.478
234.3454, 1873.043
236.2738, 1799.089
238.2023, 1724.243
240.1308, 1645.837
242.0592, 1576.547
243.9877, 1521.648
245.9162, 1478.312
247.8447, 1441.593
249.7731, 1410.801
251.7016, 1381.392
253.6301, 1351.740
255.5585, 1324.686
257.4870, 1297.516
259.4154, 1266.168
261.3439, 1233.993
263.2724, 1211.604
265.2008, 1205.273
267.1293, 1198.868
269.0578, 1184.591
270.9862, 1162.068
272.9147, 1142.791
274.8432, 1131.276
276.7716, 1123.761
278.7001, 1113.412
280.6286, 1098.102
282.5570, 1084.676
284.4855, 1077.004
286.4140, 1075.364
288.3424, 1067.465
290.2709, 1049.161
292.1994, 1029.584
294.1278, 1017.743
296.0563, 1014.048
297.9848, 1009.877
299.9132, 1002.466
301.8417, 992.8089
303.7702, 985.4938
305.6986, 978.7928
307.6271, 974.3306
309.5556, 973.7460
311.4840, 979.3351
313.4125, 983.3845
315.3410, 984.5296
317.2694, 982.4445
319.1979, 977.8171
321.1264, 970.3643
323.0548, 964.5129
324.9833, 962.4981
326.9118, 961.8089
328.8402, 961.5497
330.7687, 963.8188
332.6972, 966.4445
334.6256, 965.3381
336.5541, 959.4354
338.4826, 952.8879
340.4110, 944.9109
342.3395, 934.3712
344.2680, 931.1295
346.1964, 942.4115
348.1249, 955.5284
350.0534, 963.2944
351.9818, 964.2773
353.9103, 961.1829
355.8388, 951.6578
357.7672, 940.4177
359.6957, 935.1903
361.6242, 938.3217
363.5526, 941.5785
365.4811, 942.0900
367.4096, 940.9165
369.3380, 940.1670
371.2665, 939.4183
373.1950, 938.0840
375.1234, 936.2197
377.0519, 933.9029
378.9804, 933.4696
380.9088, 936.1349
382.8373, 940.0906
384.7658, 942.9885
386.6942, 944.3395
388.6227, 945.4307
390.5512, 947.4933
392.4796, 952.1066
394.4081, 953.1511
396.3366, 946.5867
398.2650, 937.0723
400.1935, 933.1214
402.1220, 936.1674
404.0504, 940.2072
405.9789, 943.0253
407.9074, 945.2305
409.8358, 948.5011
411.7643, 954.8461
413.6928, 960.5475
415.6212, 962.1659
417.5497, 959.3317
419.4782, 957.5471
421.4066, 959.9576
423.3351, 962.9495
425.2636, 962.4922
427.1920, 955.2778
429.1205, 949.9527
431.0490, 950.7072
432.9774, 956.1240
434.9059, 959.4615
436.8344, 957.2062
438.7628, 954.9821
440.6913, 956.8151
442.6198, 964.0623
444.5482, 969.5603
446.4767, 971.2516
448.4052, 970.7593
450.3336, 970.0137
452.2621, 968.9916
454.1906, 967.4432
456.1190, 963.5516
458.0475, 958.1321
459.9760, 957.0925
461.9044, 964.8421
463.8329, 973.6979
465.7614, 979.1401
467.6898, 978.7615
469.6183, 978.9167
471.5468, 981.1583
473.4753, 984.1365
475.4037, 985.7316
477.3322, 986.2386
479.2607, 984.6985
481.1891, 978.6727
483.1176, 969.8497
485.0461, 966.4824
486.9745, 972.4117
488.9030, 978.6300
490.8315, 980.2302
492.7599, 976.8187
494.6884, 976.4855
496.6169, 985.3845
498.5453, 994.1617
500.4738, 993.4022
502.4023, 980.2138
504.3307, 971.9609
506.2592, 978.7339
508.1877, 992.0542
510.1161, 998.7264
512.0446, 988.2244
513.9730, 981.6048
515.9015, 985.5276
517.8300, 999.1038
519.7584, 1008.949
521.6869, 1012.145
523.6154, 1011.284
525.5438, 1010.051
527.4723, 1008.905
529.4008, 1007.353
531.3292, 1002.696
533.2577, 998.3383
535.1862, 998.6202
537.1146, 1006.593
539.0431, 1014.399
540.9716, 1017.830
542.9000, 1014.964
544.8285, 1012.366
546.7570, 1011.403
548.6854, 1015.544
550.6139, 1022.640
552.5424, 1028.620
554.4708, 1030.916
556.3993, 1026.849
558.3278, 1024.383
560.2562, 1024.460
562.1847, 1026.813
564.1132, 1029.255
566.0416, 1031.892
567.9701, 1033.839
569.8986, 1036.205
571.8270, 1040.279
573.7555, 1044.059
575.6840, 1045.672
577.6124, 1045.955
579.5409, 1044.741
581.4694, 1040.725
583.3978, 1034.837
585.3263, 1035.238
587.2548, 1041.002
589.1832, 1044.762
591.1117, 1040.569
593.0402, 1038.168
594.9686, 1038.973
596.8971, 1042.045
598.8256, 1045.349
600.7540, 1048.221
602.6825, 1050.659
604.6110, 1056.351
606.5394, 1067.342
608.4679, 1078.226
610.3964, 1085.974
612.3248, 1087.375
614.2533, 1087.849
616.1818, 1090.205
618.1102, 1093.349
620.0387, 1087.499
621.9672, 1078.950
623.8956, 1074.636
625.8241, 1076.088
627.7526, 1078.545
629.6810, 1084.959
631.6095, 1092.402
633.5380, 1097.065
635.4664, 1096.844
637.3949, 1097.971
639.3234, 1099.209
641.2518, 1099.282
643.1803, 1099.166
645.1088, 1102.216
647.0372, 1107.293
648.9657, 1109.640
650.8942, 1109.101
652.8226, 1108.797
654.7511, 1108.002
656.6796, 1107.676
658.6080, 1110.699
660.5365, 1116.517
662.4650, 1119.967
664.3934, 1120.720
666.3219, 1121.652
668.2504, 1122.669
670.1788, 1123.014
672.1073, 1124.735
674.0358, 1127.221
675.9642, 1128.660
677.8927, 1130.447
679.8212, 1134.115
681.7496, 1136.608
683.6781, 1135.585
685.6066, 1134.734
687.5350, 1136.835
689.4635, 1145.093
691.3920, 1157.727
693.3204, 1172.320
695.2489, 1191.420
697.1774, 1215.965
699.1058, 1245.245
701.0343, 1286.795
702.9628, 1326.496
704.8912, 1378.142
706.8197, 1453.959
708.7482, 1567.038
710.6766, 1709.315
712.6051, 1929.846
714.5336, 2220.498
716.4620, 2564.743
718.3905, 2907.275
720.3190, 3128.356
722.2474, 3159.784
724.1759, 3033.506
726.1044, 2776.831
728.0328, 2469.139
729.9613, 2175.820
731.8898, 1923.271
733.8182, 1728.538
735.7467, 1585.298
737.6752, 1476.406
739.6036, 1394.892
741.5321, 1340.944
743.4606, 1303.076
745.3890, 1271.879
747.3175, 1244.876
749.2460, 1223.883
751.1744, 1206.131
753.1029, 1190.048
755.0314, 1181.646
756.9598, 1184.296
758.8883, 1186.378
760.8168, 1186.323
762.7452, 1187.209
764.6737, 1192.778
766.6022, 1197.151
768.5306, 1197.150
770.4591, 1190.440
772.3876, 1184.678
774.3160, 1181.989
776.2445, 1183.929
778.1730, 1189.160
780.1014, 1198.726
782.0299, 1207.393
783.9584, 1211.936
785.8868, 1210.070
787.8153, 1206.392
789.7438, 1201.057
791.6722, 1198.482
793.6007, 1196.234
795.5292, 1195.823
797.4576, 1195.782
799.3861, 1194.154
801.3146, 1192.646
803.2430, 1196.577
805.1715, 1204.615
807.1000, 1211.948
809.0284, 1220.922
810.9569, 1225.299
812.8854, 1218.407
814.8138, 1204.585
816.7423, 1198.306
818.6708, 1201.743
820.5992, 1205.520
822.5277, 1207.910
824.4562, 1211.273
826.3846, 1213.907
828.3131, 1212.236
830.2416, 1212.925
832.1700, 1221.340
834.0985, 1234.432
836.0270, 1239.032
837.9554, 1229.031
839.8839, 1221.734
841.8124, 1229.011
843.7408, 1244.580
845.6693, 1251.442
847.5978, 1242.122
849.5262, 1232.166
851.4547, 1227.713
853.3832, 1230.249
855.3116, 1233.005
857.2401, 1233.947
859.1686, 1235.602
861.0970, 1241.166
863.0255, 1250.091
864.9540, 1257.589
866.8824, 1263.281
868.8109, 1267.255
870.7394, 1268.362
872.6678, 1268.361
874.5963, 1270.901
876.5248, 1278.807
878.4532, 1285.251
880.3817, 1290.766
882.3102, 1296.132
884.2386, 1296.739
886.1671, 1289.476
888.0956, 1284.047
890.0240, 1285.199
891.9525, 1290.369
893.8810, 1295.872
895.8094, 1302.291
897.7379, 1308.229
899.6664, 1313.893
901.5948, 1318.267
903.5233, 1319.127
905.4518, 1314.050
907.3802, 1311.350
909.3087, 1315.218
911.2372, 1321.734
913.1656, 1326.318
915.0941, 1328.874
917.0226, 1330.261
918.9510, 1329.443
920.8795, 1327.710
922.8080, 1326.754
924.7365, 1327.861
926.6649, 1333.676
928.5934, 1350.047
930.5219, 1366.269
932.4503, 1375.396
934.3788, 1376.922
936.3073, 1376.050
938.2357, 1370.776
940.1642, 1366.900
942.0927, 1367.922
944.0211, 1375.313
945.9496, 1378.576
947.8781, 1372.222
949.8065, 1367.369
951.7350, 1371.245
953.6635, 1382.095
955.5919, 1389.586
957.5204, 1392.099
959.4489, 1391.560
961.3773, 1386.245
963.3058, 1378.573
965.2343, 1377.999
967.1627, 1394.684
969.0912, 1408.793
971.0197, 1412.964
972.9481, 1406.343
974.8766, 1399.455
976.8051, 1388.645
978.7335, 1385.839
980.6620, 1404.417
982.5905, 1429.113
984.5189, 1433.943
986.4474, 1411.249
988.3759, 1395.217
990.3043, 1398.312
992.2328, 1408.901
994.1613, 1417.826
996.0897, 1426.347
998.0182, 1432.436
999.9467, 1433.754
1001.875, 1434.134
1003.804, 1438.839
1005.732, 1448.249
1007.661, 1454.857
1009.589, 1455.173
1011.517, 1453.166
1013.446, 1451.581
1015.374, 1455.132
1017.303, 1459.962
1019.231, 1459.781
1021.160, 1462.298
1023.088, 1475.092
1025.017, 1498.071
1026.945, 1517.277
1028.874, 1523.064
1030.802, 1540.637
1032.731, 1562.602
1034.659, 1606.236
1036.588, 1720.438
1038.516, 1915.384
1040.444, 2158.670
1042.373, 2435.157
1044.301, 2777.092
1046.230, 3099.060
1048.158, 3437.334
1050.087, 4055.192
1052.015, 4785.155
1053.944, 6399.403
1055.872, 9621.291
1057.801, 14452.35
1059.729, 20332.69
1061.658, 27814.65
1063.586, 33443.44
1065.515, 34966.84
1067.443, 33621.32
1069.371, 29984.39
1071.300, 23953.51
1073.228, 18156.87
1075.157, 13503.34
1077.085, 9933.038
1079.014, 7211.392
1080.942, 5442.310
1082.871, 4107.954
1084.799, 3159.507
1086.728, 2492.542
1088.656, 2052.390
1090.585, 1838.069
1092.513, 1710.845
1094.442, 1640.333
1096.370, 1595.636
1098.298, 1566.757
1100.227, 1550.298
1102.155, 1542.470
1104.084, 1539.428
1106.012, 1534.968
1107.941, 1529.060
1109.869, 1526.849
1111.798, 1528.723
1113.726, 1519.776
1115.655, 1507.192
1117.583, 1497.889
1119.512, 1495.324
1121.440, 1497.034
1123.369, 1500.175
1125.297, 1499.331
1127.225, 1496.697
1129.154, 1496.409
1131.082, 1497.503
1133.011, 1494.958
1134.939, 1493.243
1136.868, 1500.799
1138.796, 1512.233
1140.725, 1520.552
1142.653, 1521.861
1144.582, 1517.722
1146.510, 1519.579
1148.439, 1527.391
1150.367, 1533.545
1152.296, 1536.644
1154.224, 1539.624
1156.152, 1543.631
1158.081, 1541.630
1160.009, 1532.447
1161.938, 1524.237
1163.866, 1524.906
1165.795, 1534.396
1167.723, 1542.135
1169.652, 1545.699
1171.580, 1549.465
1173.509, 1545.507
1175.437, 1532.686
1177.366, 1526.711
1179.294, 1545.740
1181.223, 1563.802
1183.151, 1570.898
1185.079, 1573.799
1187.008, 1575.061
1188.936, 1568.909
1190.865, 1563.797
1192.793, 1571.330
1194.722, 1585.380
1196.650, 1593.358
1198.579, 1591.031
1200.507, 1584.849
1202.436, 1582.163
1204.364, 1585.598
1206.293, 1588.092
1208.221, 1591.689
1210.150, 1595.851
1212.078, 1598.715
1214.006, 1598.415
1215.935, 1600.558
1217.863, 1604.420
1219.792, 1606.694
1221.720, 1606.965
1223.649, 1608.454
1225.577, 1609.841
1227.506, 1614.444
1229.434, 1625.801
1231.363, 1636.577
1233.291, 1637.563
1235.220, 1627.628
1237.148, 1617.893
1239.077, 1608.358
1241.005, 1609.763
1242.933, 1623.354
1244.862, 1642.181
1246.790, 1648.395
1248.719, 1633.832
1250.647, 1627.249
1252.576, 1642.446
1254.504, 1663.782
1256.433, 1675.561
1258.361, 1673.797
1260.290, 1675.596
1262.218, 1683.437
1264.147, 1691.488
1266.075, 1693.372
1268.004, 1690.106
1269.932, 1690.044
1271.860, 1694.578
1273.789, 1698.492
1275.717, 1702.298
1277.646, 1709.733
1279.574, 1718.196
1281.503, 1725.998
1283.431, 1731.748
1285.360, 1736.311
1287.288, 1737.983
1289.217, 1733.737
1291.145, 1728.962
1293.074, 1726.904
1295.002, 1725.815
1296.931, 1727.401
1298.859, 1737.882
1300.787, 1747.546
1302.716, 1750.537
1304.644, 1748.532
1306.573, 1747.277
1308.501, 1745.088
1310.430, 1745.375
1312.358, 1752.073
1314.287, 1759.050
1316.215, 1760.901
1318.144, 1758.528
1320.072, 1762.175
1322.001, 1780.689
1323.929, 1793.355
1325.858, 1786.236
1327.786, 1771.281
1329.714, 1768.794
1331.643, 1780.994
1333.571, 1793.021
1335.500, 1802.712
1337.428, 1809.574
1339.357, 1811.238
1341.285, 1810.367
1343.214, 1815.934
1345.142, 1829.271
1347.071, 1846.391
1348.999, 1860.614
1350.928, 1882.986
1352.856, 1918.231
1354.785, 1966.543
1356.713, 2041.869
1358.641, 2142.855
1360.570, 2274.383
1362.498, 2455.354
1364.427, 2656.739
1366.355, 2826.507
1368.284, 2946.344
1370.212, 3180.890
1372.141, 3518.567
1374.069, 3978.044
1375.998, 4723.591
1377.926, 5521.604
1379.855, 6079.958
1381.783, 6413.379
1383.712, 6432.194
1385.640, 6007.540
1387.568, 5441.219
1389.497, 4778.890
1391.425, 4099.555
1393.354, 3539.365
1395.282, 3102.963
1397.211, 2752.322
1399.139, 2504.262
1401.068, 2318.726
1402.996, 2182.877
1404.925, 2090.450
1406.853, 2022.699
1408.782, 1986.293
1410.710, 1951.414
1412.639, 1904.608
1414.567, 1868.395
1416.495, 1860.273
1418.424, 1873.416
1420.352, 1880.216
1422.281, 1879.987
1424.209, 1879.199
1426.138, 1874.329
1428.066, 1870.252
1429.995, 1871.889
1431.923, 1880.568
1433.852, 1889.718
1435.780, 1898.910
1437.709, 1908.286
1439.637, 1922.213
1441.566, 1930.894
1443.494, 1924.955
1445.422, 1908.179
1447.351, 1895.518
1449.279, 1887.563
1451.208, 1887.103
1453.136, 1902.860
1455.065, 1918.407
1456.993, 1919.878
1458.922, 1910.471
1460.850, 1901.460
1462.779, 1891.017
1464.707, 1889.901
1466.636, 1909.400
1468.564, 1930.636
1470.493, 1939.823
1472.421, 1941.170
1474.349, 1944.961
1476.278, 1949.769
1478.206, 1956.723
1480.135, 1970.589
1482.063, 1982.607
1483.992, 1985.606
1485.920, 1981.771
1487.849, 1980.255
1489.777, 1981.923
1491.706, 1985.937
1493.634, 1997.502
1495.563, 2003.438
1497.491, 1989.720
1499.420, 1963.537
1501.348, 1956.955
1503.276, 1985.542
1505.205, 2002.716
1507.133, 2004.192
1509.062, 1998.796
1510.990, 1983.468
1512.919, 1963.528
1514.847, 1960.091
1516.776, 1987.489
1518.704, 2000.566
1520.633, 1989.417
1522.561, 1975.854
1524.490, 1965.373
1526.418, 1958.751
1528.347, 1963.992
1530.275, 1989.775
1532.203, 2002.899
1534.132, 1988.894
1536.060, 1978.077
1537.989, 1980.261
1539.917, 1988.860
1541.846, 1998.873
1543.774, 2012.361
1545.703, 2019.374
1547.631, 2014.953
1549.560, 2009.779
1551.488, 2008.454
1553.417, 2007.979
1555.345, 2003.630
1557.274, 1996.551
1559.202, 1995.394
1561.130, 2003.880
1563.059, 2014.825
1564.987, 2024.701
1566.916, 2033.262
1568.844, 2041.777
1570.773, 2049.813
1572.701, 2055.552
1574.630, 2059.279
1576.558, 2057.514
1578.487, 2045.048
1580.415, 2034.490
1582.344, 2034.184
1584.272, 2038.228
1586.201, 2036.714
1588.129, 2029.563
1590.057, 2030.995
1591.986, 2047.241
1593.914, 2063.971
1595.843, 2078.490
1597.771, 2086.894
1599.700, 2082.519
1601.628, 2068.327
1603.557, 2063.596
1605.485, 2071.965
1607.414, 2080.509
1609.342, 2087.389
1611.271, 2091.745
1613.199, 2091.581
1615.128, 2089.212
1617.056, 2092.245
1618.984, 2102.345
1620.913, 2104.508
1622.841, 2090.430
1624.770, 2077.674
1626.698, 2072.992
1628.627, 2073.194
1630.555, 2074.482
1632.484, 2077.180
1634.412, 2086.035
1636.341, 2107.432
1638.269, 2120.459
1640.198, 2105.464
1642.126, 2094.766
1644.055, 2111.596
1645.983, 2145.760
1647.911, 2165.413
1649.840, 2164.786
1651.768, 2181.538
1653.697, 2221.462
1655.625, 2277.768
1657.554, 2337.940
1659.482, 2420.334
1661.411, 2565.713
1663.339, 2766.232
1665.268, 2897.635
1667.196, 2955.831
1669.125, 2949.155
1671.053, 2836.758
1672.982, 2705.941
1674.910, 2585.444
1676.839, 2477.217
1678.767, 2382.886
1680.695, 2301.990
1682.624, 2240.322
1684.552, 2198.264
1686.481, 2175.768
1688.409, 2191.451
1690.338, 2208.567
1692.266, 2198.214
1694.195, 2169.390
1696.123, 2152.910
1698.052, 2150.335
1699.980, 2152.924
1701.909, 2165.117
1703.837, 2173.585
1705.766, 2172.504
1707.694, 2166.502
1709.622, 2155.913
1711.551, 2142.717
1713.479, 2143.407
1715.408, 2164.217
1717.336, 2173.515
1719.265, 2156.148
1721.193, 2140.832
1723.122, 2143.032
1725.050, 2151.882
1726.979, 2154.423
1728.907, 2151.738
1730.836, 2153.190
1732.764, 2161.569
1734.693, 2165.062
1736.621, 2155.559
1738.549, 2147.830
1740.478, 2149.551
1742.406, 2156.952
1744.335, 2165.349
1746.263, 2174.818
1748.192, 2188.175
1750.120, 2208.904
1752.049, 2221.247
1753.977, 2218.147
1755.906, 2210.134
1757.834, 2199.367
1759.763, 2189.786
1761.691, 2188.492
1763.620, 2194.381
1765.548, 2195.526
1767.476, 2189.519
1769.405, 2183.762
1771.333, 2174.585
1773.262, 2172.760
1775.190, 2191.380
1777.119, 2216.345
1779.047, 2228.432
1780.976, 2228.904
1782.904, 2227.882
1784.833, 2226.508
1786.761, 2222.925
1788.690, 2215.520
1790.618, 2208.050
1792.547, 2204.824
1794.475, 2200.877
1796.403, 2182.164
1798.332, 2152.254
1800.260, 2153.951
1802.189, 2203.619
1804.117, 2235.972
1806.046, 2229.932
1807.974, 2221.847
1809.903, 2226.932
1811.831, 2235.685
1813.760, 2235.901
1815.688, 2230.449
1817.617, 2235.501
1819.545, 2258.349
1821.474, 2274.422
1823.402, 2276.589
1825.330, 2281.981
1827.259, 2304.560
1829.187, 2322.853
1831.116, 2314.468
1833.044, 2289.237
1834.973, 2275.161
1836.901, 2275.006
1838.830, 2273.586
1840.758, 2267.301
1842.687, 2265.903
1844.615, 2274.511
1846.544, 2284.265
1848.472, 2287.168
1850.401, 2290.227
1852.329, 2308.994
1854.257, 2341.636
1856.186, 2354.079
1858.114, 2338.855
1860.043, 2330.475
1861.971, 2341.446
1863.900, 2349.698
1865.828, 2341.106
1867.757, 2330.161
1869.685, 2327.845
1871.614, 2332.842
1873.542, 2343.474
1875.471, 2359.719
1877.399, 2373.286
1879.328, 2383.805
1881.256, 2389.830
1883.184, 2388.884
1885.113, 2386.120
1887.041, 2382.687
1888.970, 2380.780
1890.898, 2384.271
1892.827, 2392.603
1894.755, 2399.257
1896.684, 2402.917
1898.612, 2408.050
1900.541, 2415.869
1902.469, 2423.190
1904.398, 2428.315
1906.326, 2433.074
1908.255, 2441.822
1910.183, 2450.307
1912.111, 2447.173
1914.040, 2431.026
1915.968, 2425.160
1917.897, 2433.391
1919.825, 2443.831
1921.754, 2459.801
1923.682, 2471.586
1925.611, 2475.209
1927.539, 2473.954
1929.468, 2469.320
1931.396, 2462.201
1933.325, 2452.296
1935.253, 2440.072
1937.181, 2442.753
1939.110, 2466.719
1941.038, 2486.709
1942.967, 2498.690
1944.895, 2502.655
1946.824, 2490.942
1948.752, 2477.490
1950.681, 2475.084
1952.609, 2480.115
1954.538, 2485.402
1956.466, 2491.059
1958.395, 2491.806
1960.323, 2480.748
1962.251, 2480.861
1964.180, 2513.208
1966.108, 2533.542
1968.037, 2513.170
1969.965, 2485.947
1971.894, 2481.496
1973.822, 2491.855
1975.751, 2498.462
1977.679, 2500.658
1979.608, 2508.097
1981.536, 2524.858
1983.465, 2534.937
1985.393, 2530.730
1987.322, 2529.810
1989.250, 2546.766
1991.178, 2559.427
1993.107, 2546.101
1995.035, 2523.133
1996.964, 2514.456
1998.892, 2518.376
2000.821, 2528.920
2002.749, 2547.467
2004.678, 2558.249
2006.606, 2554.947
2008.535, 2553.221
2010.463, 2561.873
2012.392, 2568.246
2014.320, 2561.657
2016.249, 2552.489
2018.177, 2552.126
2020.105, 2558.874
2022.034, 2568.999
2023.962, 2584.602
2025.891, 2587.710
2027.819, 2568.460
2029.748, 2560.737
2031.676, 2579.169
2033.605, 2593.792
2035.533, 2592.205
2037.462, 2586.488
2039.390, 2583.062
2041.319, 2581.034
2043.247, 2576.959
2045.176, 2572.808
2047.104, 2580.092
2049.032, 2600.631
2050.961, 2609.660
2052.889, 2599.240
2054.818, 2590.837
2056.746, 2583.573
2058.675, 2586.677
2060.603, 2617.050
2062.532, 2646.115
2064.460, 2640.998
2066.389, 2622.318
2068.317, 2633.283
2070.246, 2670.850
2072.174, 2686.730
2074.103, 2676.446
2076.031, 2670.231
2077.959, 2671.735
2079.888, 2672.682
2081.816, 2667.421
2083.745, 2667.294
2085.673, 2681.955
2087.602, 2699.765
2089.530, 2714.524
2091.459, 2725.418
2093.387, 2728.851
2095.316, 2726.587
2097.244, 2729.450
2099.173, 2740.089
2101.101, 2743.166
2103.030, 2729.672
2104.958, 2721.863
2106.886, 2716.659
2108.815, 2722.819
2110.743, 2761.239
2112.672, 2791.347
2114.600, 2782.762
2116.529, 2755.376
2118.457, 2727.018
2120.386, 2701.917
2122.314, 2693.331
2124.243, 2700.740
2126.171, 2710.620
2128.100, 2721.781
2130.028, 2737.870
2131.957, 2766.667
2133.885, 2787.230
2135.813, 2789.134
2137.742, 2787.673
2139.670, 2791.219
2141.599, 2792.470
2143.527, 2779.919
2145.456, 2764.000
2147.384, 2767.378
2149.313, 2785.617
2151.241, 2786.237
2153.170, 2769.066
2155.098, 2764.401
2157.027, 2777.457
2158.955, 2788.060
2160.884, 2793.240
2162.812, 2792.588
2164.740, 2774.543
2166.669, 2764.847
2168.597, 2785.906
2170.526, 2812.140
2172.454, 2821.770
2174.383, 2819.926
2176.311, 2812.667
2178.240, 2801.519
2180.168, 2796.231
2182.097, 2797.047
2184.025, 2796.045
2185.954, 2791.447
2187.882, 2793.474
2189.811, 2806.752
2191.739, 2818.760
2193.667, 2824.824
2195.596, 2829.871
2197.524, 2836.768
2199.453, 2842.585
2201.381, 2842.761
2203.310, 2842.066
2205.238, 2850.280
2207.167, 2862.278
2209.095, 2857.496
2211.024, 2837.015
2212.952, 2844.070
2214.881, 2883.062
2216.809, 2903.641
2218.738, 2897.842
2220.666, 2885.845
2222.594, 2864.222
2224.523, 2852.508
2226.451, 2863.078
2228.380, 2877.061
2230.308, 2887.065
2232.237, 2893.810
2234.165, 2899.767
2236.094, 2901.883
2238.022, 2890.860
2239.951, 2873.599
2241.879, 2874.896
2243.808, 2892.634
2245.736, 2901.794
2247.665, 2900.629
2249.593, 2910.842
2251.521, 2941.267
2253.450, 2955.406
2255.378, 2931.418
2257.307, 2913.695
2259.235, 2917.191
2261.164, 2922.792
2263.092, 2921.565
2265.021, 2921.489
2266.949, 2928.664
2268.878, 2939.559
2270.806, 2953.898
2272.735, 2966.877
2274.663, 2968.595
2276.592, 2960.759
2278.520, 2948.074
2280.448, 2930.790
2282.377, 2923.667
2284.305, 2932.827
2286.234, 2935.052
2288.162, 2916.855
2290.091, 2915.520
2292.019, 2948.431
2293.948, 2971.722
2295.876, 2969.872
2297.805, 2964.367
2299.733, 2962.715
2301.662, 2963.334
2303.590, 2968.264
2305.519, 2972.423
2307.447, 2970.578
2309.375, 2964.159
2311.304, 2950.556
2313.232, 2934.689
2315.161, 2938.019
2317.089, 2960.334
2319.018, 2979.560
2320.946, 2995.806
2322.875, 3006.026
2324.803, 3008.536
2326.732, 3016.732
2328.660, 3040.951
2330.589, 3047.336
2332.517, 3010.063
2334.446, 2980.340
2336.374, 2971.839
2338.302, 2975.352
2340.231, 2997.414
2342.159, 3017.886
2344.088, 3022.792
2346.016, 3019.633
2347.945, 3008.942
2349.873, 2999.724
2351.802, 3011.482
2353.730, 3033.066
2355.659, 3030.219
2357.587, 3007.972
2359.516, 3010.104
2361.444, 3040.136
2363.373, 3060.026
2365.301, 3069.576
2367.229, 3067.175
2369.158, 3048.188
2371.086, 3039.034
2373.015, 3048.400
2374.943, 3055.430
2376.872, 3057.467
2378.800, 3051.681
2380.729, 3019.255
2382.657, 3003.581
2384.586, 3044.717
2386.514, 3084.152
2388.443, 3076.583
2390.371, 3057.681
2392.300, 3058.719
2394.228, 3067.855
2396.156, 3072.613
2398.085, 3074.105
2400.013, 3072.657
2401.942, 3069.596
2403.870, 3070.168
2405.799, 3073.814
2407.727, 3076.052
2409.656, 3076.756
2411.584, 3074.570
2413.513, 3069.234
2415.441, 3064.300
2417.370, 3058.210
2419.298, 3066.666
2421.227, 3100.616
2423.155, 3129.095
2425.083, 3152.958
2427.012, 3160.193
2428.940, 3128.367
2430.869, 3108.686
2432.797, 3125.035
2434.726, 3142.293
2436.654, 3143.720
2438.583, 3141.438
2440.511, 3144.350
2442.440, 3146.169
2444.368, 3142.589
2446.297, 3134.073
2448.225, 3112.239
2450.154, 3092.160
2452.082, 3103.973
2454.010, 3134.429
2455.939, 3158.640
2457.867, 3173.261
2459.796, 3157.006
2461.724, 3117.617
2463.653, 3117.123
2465.581, 3157.189
2467.510, 3190.126
2469.438, 3217.351
2471.367, 3225.585
2473.295, 3211.103
2475.224, 3202.922
2477.152, 3205.695
2479.081, 3202.245
2481.009, 3185.043
2482.938, 3174.736
2484.866, 3174.689
2486.794, 3183.280
2488.723, 3212.681
2490.651, 3231.758
2492.580, 3233.187
2494.508, 3223.980
2496.437, 3199.107
2498.365, 3176.274
2500.294, 3158.975
2502.222, 3154.016
2504.151, 3176.845
2506.079, 3200.743
2508.008, 3199.245
2509.936, 3194.967
2511.865, 3210.263
2513.793, 3233.457
2515.721, 3256.730
2517.650, 3274.710
2519.578, 3275.035
2521.507, 3267.606
2523.435, 3274.885
2525.364, 3289.263
2527.292, 3290.100
2529.221, 3280.185
2531.149, 3266.974
2533.078, 3252.531
2535.006, 3245.366
2536.935, 3244.762
2538.863, 3237.697
2540.792, 3222.371
2542.720, 3238.079
2544.648, 3293.375
2546.577, 3308.849
2548.505, 3279.656
2550.434, 3269.366
2552.362, 3285.641
2554.291, 3296.806
2556.219, 3294.068
2558.148, 3303.536
2560.076, 3349.447
2562.005, 3361.359
2563.933, 3319.269
2565.862, 3293.807
2567.790, 3301.480
2569.719, 3308.061
2571.647, 3301.094
2573.575, 3300.787
2575.504, 3319.268
2577.432, 3333.673
2579.361, 3341.327
2581.289, 3337.128
2583.218, 3309.020
2585.146, 3288.926
2587.075, 3293.135
2589.003, 3303.169
2590.932, 3312.900
2592.860, 3322.971
2594.789, 3333.001
2596.717, 3344.649
2598.646, 3368.419
2600.574, 3381.260
2602.502, 3356.195
2604.431, 3331.881
2606.359, 3340.562
2608.288, 3356.171
2610.216, 3355.938
2612.145, 3353.684
2614.073, 3362.223
2616.002, 3375.670
2617.930, 3394.230
2619.859, 3408.719
2621.787, 3407.773
2623.716, 3399.273
2625.644, 3388.743
2627.573, 3380.009
2629.501, 3378.879
2631.429, 3382.850
2633.358, 3391.571
2635.286, 3400.402
2637.215, 3399.078
2639.143, 3395.050
2641.072, 3403.326
2643.000, 3416.779
2644.929, 3418.107
2646.857, 3413.991
2648.786, 3425.467
2650.714, 3441.919
2652.643, 3435.363
2654.571, 3416.381
2656.500, 3411.814
2658.428, 3416.441
2660.356, 3410.831
2662.285, 3400.771
2664.213, 3410.619
2666.142, 3431.691
2668.070, 3437.226
2669.999, 3428.547
2671.927, 3404.434
2673.856, 3373.250
2675.784, 3380.711
2677.713, 3417.678
2679.641, 3435.538
2681.570, 3438.309
2683.498, 3443.001
2685.427, 3447.811
2687.355, 3437.108
2689.283, 3415.916
2691.212, 3415.631
2693.140, 3433.575
2695.069, 3454.223
2696.997, 3472.636
2698.926, 3450.874
2700.854, 3402.103
2702.783, 3422.287
2704.711, 3497.203
2706.640, 3509.182
2708.568, 3467.189
2710.497, 3455.670
2712.425, 3468.071
2714.354, 3470.059
2716.282, 3464.926
2718.210, 3480.627
2720.139, 3513.222
2722.067, 3535.526
2723.996, 3546.576
2725.924, 3531.964
2727.853, 3500.263
2729.781, 3495.168
2731.710, 3509.491
2733.638, 3499.895
2735.567, 3473.700
2737.495, 3477.637
2739.424, 3503.876
2741.352, 3519.085
2743.281, 3524.789
2745.209, 3529.420
2747.137, 3530.665
2749.066, 3510.452
2750.994, 3479.563
2752.923, 3487.922
2754.851, 3519.794
2756.780, 3526.717
2758.708, 3518.002
2760.637, 3517.727
2762.565, 3524.883
2764.494, 3544.728
2766.422, 3566.209
2768.351, 3548.318
2770.279, 3516.937
2772.208, 3532.460
2774.136, 3567.978
2776.064, 3571.837
2777.993, 3556.336
2779.921, 3534.114
2781.850, 3517.046
2783.778, 3537.331
2785.707, 3565.886
2787.635, 3559.583
2789.564, 3538.965
2791.492, 3528.495
2793.421, 3525.700
2795.349, 3528.295
2797.278, 3536.379
2799.206, 3555.550
2801.135, 3573.619
2803.063, 3576.822
2804.991, 3573.913
2806.920, 3569.239
2808.848, 3566.681
2810.777, 3565.829
2812.705, 3572.084
2814.634, 3600.252
2816.562, 3622.232
2818.491, 3611.838
2820.419, 3598.772
2822.348, 3600.792
2824.276, 3603.106
2826.205, 3591.624
2828.133, 3588.829
2830.062, 3621.740
2831.990, 3638.939
2833.918, 3605.666
2835.847, 3584.505
2837.775, 3599.407
2839.704, 3617.349
2841.632, 3634.515
2843.561, 3639.384
2845.489, 3618.740
2847.418, 3610.073
2849.346, 3623.534
2851.275, 3629.619
2853.203, 3614.180
2855.132, 3616.257
2857.060, 3655.182
2858.989, 3673.373
2860.917, 3665.532
2862.845, 3663.843
2864.774, 3673.479
2866.702, 3664.550
2868.631, 3628.599
2870.559, 3620.342
2872.488, 3640.455
2874.416, 3648.439
2876.345, 3643.981
2878.273, 3629.599
2880.202, 3609.685
2882.130, 3624.919
2884.059, 3664.374
2885.987, 3666.887
2887.916, 3648.045
2889.844, 3652.499
2891.772, 3669.409
2893.701, 3676.058
2895.629, 3677.451
2897.558, 3681.517
2899.486, 3686.488
2901.415, 3691.637
2903.343, 3694.353
2905.272, 3690.005
2907.200, 3684.304
2909.129, 3682.391
2911.057, 3681.704
2912.986, 3680.934
2914.914, 3680.427
2916.843, 3678.745
2918.771, 3679.905
2920.699, 3687.204
2922.628, 3695.858
2924.556, 3707.726
2926.485, 3712.981
2928.413, 3700.046
2930.342, 3697.917
2932.270, 3720.035
2934.199, 3726.561
2936.127, 3709.258
2938.056, 3707.835
2939.984, 3731.865
2941.913, 3744.087
2943.841, 3741.019
2945.770, 3740.894
2947.698, 3741.701
2949.626, 3707.870
2951.555, 3649.203
2953.483, 3640.500
2955.412, 3669.264
2957.340, 3690.981
2959.269, 3704.948
2961.197, 3700.499
2963.126, 3693.557
2965.054, 3713.057
2966.983, 3739.108
2968.911, 3747.900
2970.840, 3749.587
2972.768, 3757.899
2974.697, 3756.650
2976.625, 3718.696
2978.553, 3693.348
2980.482, 3717.575
2982.410, 3737.989
2984.339, 3735.598
2986.267, 3732.795
2988.196, 3737.559
2990.124, 3740.264
2992.053, 3741.461
2993.981, 3731.641
2995.910, 3706.932
2997.838, 3706.376
2999.767, 3739.530
3001.695, 3738.052
3003.624, 3706.124
3005.552, 3720.870
3007.480, 3767.395
3009.409, 3779.591
3011.337, 3766.359
3013.266, 3736.050
3015.194, 3711.025
3017.123, 3752.560
3019.051, 3798.197
3020.980, 3767.549
3022.908, 3728.169
3024.837, 3743.491
3026.765, 3761.116
3028.694, 3751.396
3030.622, 3743.166
3032.551, 3753.178
3034.479, 3759.082
3036.407, 3753.029
3038.336, 3752.668
3040.264, 3762.202
3042.193, 3768.408
3044.121, 3768.789
3046.050, 3769.225
3047.978, 3769.704
3049.907, 3766.136
3051.835, 3760.327
3053.764, 3764.104
3055.692, 3772.530
3057.621, 3768.796
3059.549, 3761.554
3061.478, 3765.172
3063.406, 3774.679
3065.334, 3793.880
3067.263, 3805.253
3069.191, 3781.843
3071.120, 3767.759
3073.048, 3793.774
3074.977, 3810.179
3076.905, 3788.337
3078.834, 3776.038
3080.762, 3779.856
3082.691, 3792.305
3084.619, 3816.342
3086.548, 3812.846
3088.476, 3778.191
3090.405, 3781.471
3092.333, 3811.365
3094.261, 3812.793
3096.190, 3799.557
3098.118, 3803.525
3100.047, 3817.181
3101.975, 3839.710
3103.904, 3853.751
3105.832, 3835.958
3107.761, 3817.592
3109.689, 3822.061
3111.618, 3822.480
3113.546, 3809.776
3115.475, 3794.307
3117.403, 3768.931
3119.332, 3769.188
3121.260, 3801.850
3123.188, 3810.686
3125.117, 3795.156
3127.045, 3794.557
3128.974, 3806.406
3130.902, 3820.177
3132.831, 3830.889
3134.759, 3823.430
3136.688, 3812.716
3138.616, 3821.760
3140.545, 3828.540
3142.473, 3812.706
3144.402, 3797.167
3146.330, 3787.581
3148.259, 3789.542
3150.187, 3812.243
3152.115, 3824.883
3154.044, 3823.562
3155.972, 3822.528
3157.901, 3822.993
3159.829, 3836.915
3161.758, 3858.199
3163.686, 3850.515
3165.615, 3823.043
3167.543, 3779.030
3169.472, 3743.658
3171.400, 3756.207
3173.329, 3779.163
3175.257, 3792.517
3177.186, 3802.590
3179.114, 3809.994
3181.042, 3818.995
3182.971, 3831.834
3184.899, 3834.055
3186.828, 3821.142
3188.756, 3805.749
3190.685, 3789.461
3192.613, 3802.526
3194.542, 3831.610
3196.470, 3847.678
3198.399, 3849.410
3200.327, 3822.928
3202.256, 3796.797
3204.184, 3792.876
3206.113, 3794.915
3208.041, 3797.633
3209.969, 3799.362
3211.898, 3798.394
3213.826, 3803.474
3215.755, 3817.684
3217.683, 3828.684
3219.612, 3835.547
3221.540, 3817.740
3223.469, 3792.553
3225.397, 3804.528
3227.326, 3833.179
3229.254, 3867.400
3231.183, 3880.716
3233.111, 3834.144
3235.040, 3798.506
3236.968, 3807.189
3238.896, 3828.406
3240.825, 3864.378
3242.753, 3867.572
3244.682, 3829.337
3246.610, 3814.189
3248.539, 3818.061
3250.467, 3827.613
3252.396, 3835.656
3254.324, 3819.724
3256.253, 3809.664
3258.181, 3847.625
3260.110, 3877.761
3262.038, 3864.394
3263.967, 3853.849
3265.895, 3856.932
3267.823, 3863.375
3269.752, 3872.896
3271.680, 3850.849
3273.609, 3804.913
3275.537, 3798.318
3277.466, 3814.967
3279.394, 3829.086
3281.323, 3840.393
3283.251, 3856.434
3285.180, 3855.209
3287.108, 3811.875
3289.037, 3789.380
3290.965, 3817.925
3292.894, 3850.739
3294.822, 3886.509
3296.750, 3886.470
3298.679, 3858.582
3300.607, 3848.916
3302.536, 3849.050
3304.464, 3849.388
3306.393, 3842.887
3308.321, 3804.108
3310.250, 3792.685
3312.178, 3851.024
3314.107, 3874.893
3316.035, 3826.035
3317.964, 3813.015
3319.892, 3840.147
3321.821, 3876.375
3323.749, 3907.718
3325.677, 3888.743
3327.606, 3853.028
3329.534, 3839.559
3331.463, 3839.048
3333.391, 3859.749
3335.320, 3864.979
3337.248, 3835.986
3339.177, 3826.281
3341.105, 3841.955
3343.034, 3842.872
3344.962, 3831.845
3346.891, 3827.502
3348.819, 3831.117
3350.748, 3845.944
3352.676, 3864.952
3354.604, 3892.542
3356.533, 3900.811
3358.461, 3872.194
3360.390, 3848.190
3362.318, 3833.073
3364.247, 3841.968
3366.175, 3866.986
3368.104, 3858.897
3370.032, 3838.287
3371.961, 3843.941
3373.889, 3858.177
3375.818, 3867.394
3377.746, 3878.806
3379.675, 3902.883
3381.603, 3905.799
3383.531, 3882.325
3385.460, 3852.985
3387.388, 3823.573
3389.317, 3831.526
3391.245, 3857.631
3393.174, 3876.152
3395.102, 3886.170
3397.031, 3883.144
3398.959, 3877.548
3400.888, 3871.975
3402.816, 3865.483
3404.745, 3856.919
3406.673, 3859.935
3408.602, 3869.094
3410.530, 3862.844
3412.458, 3849.392
3414.387, 3835.786
3416.315, 3828.521
3418.244, 3832.794
3420.172, 3842.482
3422.101, 3859.116
3424.029, 3862.898
3425.958, 3853.542
3427.886, 3861.869
3429.815, 3878.453
3431.743, 3875.018
3433.672, 3864.848
3435.600, 3858.282
3437.529, 3854.039
3439.457, 3853.208
3441.385, 3847.631
3443.314, 3833.598
3445.242, 3829.488
3447.171, 3833.860
3449.099, 3838.726
3451.028, 3843.788
3452.956, 3846.222
3454.885, 3853.675
3456.813, 3875.421
3458.742, 3889.145
3460.670, 3889.153
3462.599, 3865.767
3464.527, 3825.651
3466.456, 3850.732
3468.384, 3900.057
3470.313, 3884.115
3472.241, 3853.214
3474.169, 3836.472
3476.098, 3837.256
3478.026, 3863.409
3479.955, 3888.529
3481.883, 3909.819
3483.812, 3908.883
3485.740, 3891.879
3487.669, 3868.047
3489.597, 3848.626
3491.526, 3842.499
3493.454, 3847.934
3495.383, 3869.639
3497.311, 3876.368
3499.240, 3861.747
3501.168, 3855.972
3503.096, 3856.939
3505.025, 3857.795
3506.953, 3860.070
3508.882, 3872.688
3510.810, 3871.933
3512.739, 3843.950
3514.667, 3824.970
3516.596, 3819.167
3518.524, 3838.828
3520.453, 3869.833
3522.381, 3870.482
3524.310, 3865.377
3526.238, 3886.312
3528.167, 3898.193
3530.095, 3881.983
3532.023, 3871.580
3533.952, 3869.139
3535.880, 3861.967
3537.809, 3852.747
3539.737, 3841.239
3541.666, 3844.637
3543.594, 3891.494
3545.523, 3922.407
3547.451, 3910.951
3549.380, 3897.970
3551.308, 3885.158
3553.237, 3866.175
3555.165, 3849.197
3557.094, 3854.090
3559.022, 3866.719
3560.950, 3891.327
3562.879, 3889.985
3564.807, 3852.302
3566.736, 3843.494
3568.664, 3862.362
3570.593, 3873.258
3572.521, 3875.890
3574.450, 3868.962
3576.378, 3856.199
3578.307, 3832.768
3580.235, 3824.076
3582.164, 3834.535
3584.092, 3831.006
3586.021, 3820.927
3587.949, 3834.421
3589.877, 3853.504
3591.806, 3861.496
3593.734, 3873.552
3595.663, 3895.785
3597.591, 3908.739
3599.520, 3910.848
3601.448, 3895.049
3603.377, 3878.329
3605.305, 3895.912
3607.234, 3906.433
3609.162, 3886.669
3611.091, 3863.549
3613.019, 3841.136
3614.948, 3822.130
3616.876, 3810.518
3618.804, 3816.042
3620.733, 3835.720
3622.661, 3887.192
3624.590, 3910.865
3626.518, 3886.800
3628.447, 3840.069
3630.375, 3782.681
3632.304, 3793.082
3634.232, 3834.961
3636.161, 3884.601
3638.089, 3903.980
3640.018, 3858.837
3641.946, 3862.736
3643.875, 3927.608
3645.803, 3905.769
3647.731, 3846.009
3649.660, 3841.330
3651.588, 3848.890
3653.517, 3844.737
3655.445, 3846.140
3657.374, 3860.049
3659.302, 3856.257
3661.231, 3841.873
3663.159, 3829.591
3665.088, 3830.071
3667.016, 3859.535
3668.945, 3880.608
3670.873, 3878.695
3672.802, 3879.254
3674.730, 3881.369
3676.658, 3887.226
3678.587, 3882.852
3680.515, 3840.459
3682.444, 3813.672
3684.372, 3828.219
3686.301, 3844.042
3688.229, 3858.909
3690.158, 3866.546
3692.086, 3867.758
3694.015, 3853.447
3695.943, 3853.429
3697.872, 3892.259
3699.800, 3898.600
3701.729, 3877.547
3703.657, 3882.114
3705.585, 3892.458
3707.514, 3877.217
3709.442, 3867.248
3711.371, 3878.591
3713.299, 3882.207
3715.228, 3877.987
3717.156, 3873.171
3719.085, 3868.776
3721.013, 3868.351
3722.942, 3862.700
3724.870, 3837.575
3726.799, 3857.704
3728.727, 3913.836
3730.656, 3917.763
3732.584, 3894.067
3734.512, 3849.717
3736.441, 3835.089
3738.369, 3880.475
3740.298, 3908.662
3742.226, 3914.111
3744.155, 3876.665
3746.083, 3833.302
3748.012, 3822.917
3749.940, 3832.160
3751.869, 3868.683
3753.797, 3861.942
3755.726, 3825.936
3757.654, 3835.215
3759.583, 3864.156
3761.511, 3904.604
3763.439, 3919.511
3765.368, 3893.878
3767.296, 3868.372
3769.225, 3847.687
3771.153, 3848.792
3773.082, 3849.704
3775.010, 3832.282
3776.939, 3812.940
3778.867, 3793.284
3780.796, 3805.907
3782.724, 3828.225
3784.653, 3794.867
3786.581, 3778.855
3788.510, 3833.882
3790.438, 3861.851
3792.366, 3849.293
3794.295, 3826.550
3796.223, 3807.490
3798.152, 3817.082
3800.080, 3825.071
3802.009, 3821.744
3803.937, 3804.184
3805.866, 3777.736
3807.794, 3775.727
3809.723, 3784.070
3811.651, 3794.783
3813.580, 3796.579
3815.508, 3786.909
3817.437, 3790.949
3819.365, 3800.012
3821.293, 3774.878
3823.222, 3761.632
3825.150, 3809.675
3827.079, 3825.576
3829.007, 3803.708
3830.936, 3783.804
3832.864, 3765.100
3834.793, 3733.614
3836.721, 3726.295
3838.650, 3771.665
3840.578, 3802.168
3842.507, 3816.073
3844.435, 3817.318
3846.364, 3808.747
3848.292, 3783.789
3850.220, 3785.138
3852.149, 3822.823
3854.077, 3811.518
3856.006, 3783.366
3857.934, 3802.911
3859.863, 3811.348
3861.791, 3776.001
3863.720, 3775.911
3865.648, 3805.220
3867.577, 3788.705
3869.505, 3767.775
3871.434, 3787.278
3873.362, 3789.235
3875.291, 3763.819
3877.219, 3757.100
3879.147, 3763.678
3881.076, 3799.651
3883.004, 3806.157
3884.933, 3749.898
3886.861, 3750.499
3888.790, 3798.677
3890.718, 3820.814
3892.647, 3821.076
3894.575, 3783.519
3896.504, 3767.709
3898.432, 3780.833
3900.361, 3789.538
3902.289, 3789.488
3904.218, 3772.255
3906.146, 3767.232
3908.074, 3788.074
3910.003, 3789.840
3911.931, 3778.582
3913.860, 3768.386
3915.788, 3767.240
3917.717, 3785.760
3919.645, 3789.691
3921.574, 3780.434
3923.502, 3782.621
3925.431, 3787.739
3927.359, 3786.623
3929.288, 3796.838
3931.216, 3819.338
3933.145, 3818.865
3935.073, 3809.060
3937.001, 3788.149
3938.930, 3771.106
3940.858, 3776.345
3942.787, 3771.722
3944.715, 3758.202
3946.644, 3769.746
3948.572, 3787.480
3950.501, 3802.996
3952.429, 3801.717
3954.358, 3779.839
3956.286, 3770.939
3958.215, 3769.263
3960.143, 3773.284
3962.072, 3778.135
3964.000, 3769.475
3965.928, 3764.827
3967.857, 3766.947
3969.785, 3760.167
3971.714, 3754.510
3973.642, 3761.907
3975.571, 3772.216
3977.499, 3760.962
3979.428, 3749.704
3981.356, 3760.645
3983.285, 3772.711
3985.213, 3764.118
3987.142, 3752.873
3989.070, 3746.431
3990.999, 3732.490
3992.927, 3702.718
3994.855, 3708.569
3996.784, 3741.418
3998.712, 3738.620
4000.641, 3732.566
4002.569, 3763.058
4004.498, 3786.658
4006.426, 3778.317
4008.355, 3745.206
4010.283, 3730.320
4012.212, 3745.103
4014.140, 3732.016
4016.069, 3716.518
4017.997, 3719.147
4019.926, 3726.056
4021.854, 3716.266
4023.782, 3708.687
4025.711, 3725.240
4027.639, 3750.845
4029.568, 3763.825
4031.496, 3760.877
4033.425, 3747.006
4035.353, 3727.285
4037.282, 3718.743
4039.210, 3710.800
4041.139, 3710.264
4043.067, 3726.174
4044.996, 3720.001
4046.924, 3703.320
4048.853, 3708.783
4050.781, 3718.369
4052.709, 3727.738
4054.638, 3725.248
4056.566, 3712.683
4058.495, 3713.064
4060.423, 3708.559
4062.352, 3701.726
4064.280, 3700.649
4066.209, 3702.620
4068.137, 3719.125
4070.066, 3732.952
4071.994, 3706.796
4073.923, 3687.594
4075.851, 3720.267
4077.780, 3724.878
4079.708, 3699.600
4081.636, 3689.814
4083.565, 3683.791
4085.493, 3694.292
4087.422, 3707.687
4089.350, 3711.898
4091.279, 3723.163
4093.207, 3718.338
4095.136, 3684.316
4097.064, 3661.421
4098.993, 3639.128
4100.921, 3665.841
4102.850, 3709.108
4104.778, 3682.364
4106.707, 3664.471
4108.635, 3689.065
4110.563, 3686.256
4112.492, 3669.566
4114.420, 3662.491
4116.349, 3652.542
4118.277, 3645.622
4120.206, 3657.247
4122.134, 3672.700
4124.063, 3662.221
4125.991, 3650.124
4127.919, 3651.140
4129.848, 3672.782
4131.776, 3696.133
4133.705, 3653.100
4135.633, 3614.991
4137.562, 3632.075
4139.490, 3637.565
4141.419, 3631.489
4143.347, 3620.410
4145.276, 3625.183
4147.204, 3667.952
4149.133, 3684.646
4151.061, 3678.457
4152.990, 3682.967
4154.918, 3680.236
4156.847, 3656.769
4158.775, 3665.339
4160.704, 3694.937
4162.632, 3689.948
4164.561, 3672.130
4166.489, 3645.586
4168.417, 3635.872
4170.346, 3644.708
4172.274, 3651.093
4174.203, 3651.743
4176.131, 3649.423
4178.060, 3638.952
4179.988, 3621.945
4181.917, 3639.614
4183.845, 3661.039
4185.773, 3663.658
4187.702, 3670.066
4189.630, 3679.334
4191.559, 3651.257
4193.487, 3616.072
4195.416, 3598.018
4197.344, 3585.801
4199.273, 3583.382
4201.201, 3625.417
4203.130, 3650.022
4205.058, 3595.402
4206.987, 3578.548
4208.915, 3604.015
4210.844, 3627.323
4212.772, 3625.881
4214.701, 3585.906
4216.629, 3582.502
4218.558, 3602.268
4220.486, 3585.892
4222.415, 3573.531
4224.343, 3603.720
4226.271, 3589.698
4228.200, 3555.524
4230.128, 3566.102
4232.057, 3575.295
4233.985, 3561.198
4235.914, 3553.877
4237.842, 3553.486
4239.771, 3565.079
4241.699, 3562.566
4243.627, 3534.150
4245.556, 3545.000
4247.484, 3561.944
4249.413, 3522.064
4251.341, 3511.374
4253.270, 3548.762
4255.198, 3545.269
4257.127, 3525.782
4259.055, 3515.835
4260.984, 3500.921
4262.912, 3484.460
4264.841, 3528.977
4266.769, 3572.648
4268.698, 3565.380
4270.626, 3534.878
4272.555, 3489.963
4274.483, 3444.730
4276.412, 3425.811
4278.340, 3461.944
4280.269, 3495.781
4282.197, 3518.399
4284.125, 3493.690
4286.054, 3496.374
4287.982, 3581.265
4289.911, 3571.204
4291.839, 3511.629
4293.768, 3447.884
4295.696, 3443.426
4297.625, 3516.293
4299.553, 3474.214
4301.481, 3416.702
4303.410, 3462.797
4305.338, 3494.347
4307.267, 3500.528
4309.195, 3507.124
4311.124, 3499.081
4313.052, 3453.001
4314.981, 3448.179
4316.909, 3475.760
4318.838, 3519.232
4320.766, 3526.957
4322.695, 3471.557
4324.623, 3448.549
4326.552, 3444.388
4328.480, 3439.269
4330.409, 3441.970
4332.337, 3453.811
4334.266, 3460.268
4336.194, 3447.909
4338.123, 3392.738
4340.051, 3392.148
4341.979, 3433.983
4343.908, 3448.913
4345.836, 3440.403
4347.765, 3407.521
4349.693, 3421.638
4351.622, 3448.882
4353.550, 3423.743
4355.479, 3403.973
4357.407, 3400.924
4359.335, 3406.506
4361.264, 3414.601
4363.192, 3417.957
4365.121, 3433.532
4367.049, 3453.694
4368.978, 3449.179
4370.906, 3441.622
4372.835, 3440.712
4374.763, 3445.865
4376.692, 3444.703
4378.620, 3404.120
4380.549, 3395.246
4382.477, 3424.567
4384.406, 3405.601
4386.334, 3396.715
4388.263, 3454.467
4390.191, 3449.278
4392.120, 3401.447
4394.048, 3366.424
4395.977, 3353.598
4397.905, 3365.313
4399.833, 3396.097
4401.762, 3426.274
4403.690, 3442.878
4405.619, 3425.838
4407.547, 3388.604
4409.476, 3383.420
4411.404, 3383.592
4413.333, 3377.197
4415.261, 3384.288
4417.189, 3395.083
4419.118, 3402.580
4421.046, 3384.643
4422.975, 3348.796
4424.903, 3369.445
4426.832, 3385.795
4428.760, 3349.797
4430.689, 3363.302
4432.617, 3394.971
4434.546, 3385.257
4436.474, 3382.953
4438.403, 3394.413
4440.331, 3361.809
4442.260, 3344.973
4444.188, 3385.583
4446.117, 3367.400
4448.045, 3323.128
4449.974, 3329.888
4451.902, 3328.616
4453.831, 3312.817
4455.759, 3341.678
4457.688, 3369.127
4459.616, 3354.313
4461.544, 3358.813
4463.473, 3365.338
4465.401, 3323.381
4467.330, 3302.123
4469.258, 3314.586
4471.187, 3338.621
4473.115, 3346.794
4475.043, 3317.486
4476.972, 3327.534
4478.900, 3347.580
4480.829, 3301.210
4482.757, 3303.082
4484.686, 3353.332
4486.614, 3319.786
4488.543, 3284.637
4490.471, 3305.733
4492.400, 3293.737
4494.328, 3279.233
4496.257, 3327.607
4498.185, 3344.838
4500.114, 3325.760
4502.042, 3317.841
4503.971, 3303.296
4505.899, 3274.666
4507.828, 3267.746
4509.756, 3268.750
4511.685, 3264.115
4513.613, 3247.696
4515.542, 3229.389
4517.470, 3243.055
4519.398, 3251.372
4521.327, 3240.858
4523.255, 3241.280
4525.184, 3245.331
4527.112, 3247.848
4529.041, 3252.569
4530.969, 3257.016
4532.897, 3257.242
4534.826, 3249.502
4536.754, 3235.706
4538.683, 3224.530
4540.611, 3224.750
4542.540, 3245.540
4544.468, 3241.776
4546.397, 3225.588
4548.325, 3208.632
4550.254, 3194.685
4552.182, 3187.420
4554.111, 3196.439
4556.039, 3224.202
4557.968, 3263.169
4559.896, 3233.347
4561.825, 3185.712
4563.753, 3144.525
4565.682, 3181.637
4567.610, 3231.633
4569.539, 3170.886
4571.467, 3160.230
4573.396, 3198.311
4575.324, 3204.197
4577.252, 3207.491
4579.181, 3214.877
4581.109, 3177.490
4583.038, 3144.136
4584.966, 3150.601
4586.895, 3161.870
4588.823, 3175.387
4590.751, 3197.871
4592.680, 3196.340
4594.608, 3175.991
4596.537, 3174.912
4598.465, 3158.950
4600.394, 3124.990
4602.322, 3156.834
4604.251, 3180.022
4606.179, 3135.454
4608.108, 3128.239
4610.036, 3129.471
4611.965, 3086.250
4613.893, 3083.828
4615.822, 3111.334
4617.750, 3117.730
4619.679, 3120.127
4621.607, 3122.146
4623.536, 3115.401
4625.464, 3110.045
4627.393, 3110.890
4629.321, 3126.678
4631.250, 3132.259
4633.178, 3099.676
4635.106, 3081.931
4637.035, 3081.738
4638.963, 3111.212
4640.892, 3105.576
4642.820, 3070.217
4644.749, 3049.108
4646.677, 3061.602
4648.605, 3111.490
4650.534, 3098.259
4652.462, 3063.974
4654.391, 3028.463
4656.319, 3031.193
4658.248, 3043.275
4660.176, 3029.449
4662.105, 3038.901
4664.033, 3057.442
4665.962, 3054.558
4667.890, 3046.953
4669.819, 3041.442
4671.747, 3061.566
4673.676, 3056.214
4675.604, 3022.777
4677.533, 3063.587
4679.461, 3084.727
4681.390, 3032.156
4683.318, 3025.586
4685.247, 3038.661
4687.175, 3055.405
4689.104, 3037.594
4691.032, 3012.756
4692.960, 3022.992
4694.889, 3023.858
4696.817, 3015.894
4698.746, 3005.824
4700.674, 3011.329
4702.603, 3027.029
4704.531, 3025.905
4706.459, 2997.954
4708.388, 2947.800
4710.316, 2978.379
4712.245, 3001.730
4714.173, 2976.852
4716.102, 2965.969
4718.030, 2971.876
4719.959, 3000.157
4721.887, 2972.129
4723.816, 2936.844
4725.744, 2960.986
4727.673, 2971.877
4729.601, 2965.528
4731.530, 2935.977
4733.458, 2926.936
4735.387, 2935.369
4737.315, 2939.669
4739.244, 2943.388
4741.172, 2948.117
4743.101, 2964.250
4745.029, 2964.107
4746.958, 2946.309
4748.886, 2958.399
4750.814, 2955.872
4752.743, 2915.975
4754.671, 2889.690
4756.600, 2896.840
4758.528, 2949.251
4760.457, 2950.522
4762.385, 2929.899
4764.313, 2913.942
4766.242, 2899.561
4768.170, 2891.734
4770.099, 2896.702
4772.027, 2911.939
4773.956, 2920.607
4775.884, 2891.145
4777.813, 2869.672
4779.741, 2869.862
4781.670, 2928.838
4783.598, 2933.133
4785.527, 2887.379
4787.455, 2840.011
4789.384, 2825.816
4791.312, 2843.829
4793.241, 2864.224
4795.169, 2869.309
4797.098, 2857.203
4799.026, 2834.937
4800.955, 2831.690
4802.883, 2856.396
4804.812, 2892.629
4806.740, 2891.244
4808.668, 2837.453
4810.597, 2839.471
4812.525, 2848.736
4814.454, 2834.548
4816.382, 2856.572
4818.311, 2862.593
4820.239, 2818.413
4822.167, 2838.185
4824.096, 2863.326
4826.024, 2837.381
4827.953, 2822.845
4829.881, 2824.143
4831.810, 2847.534
4833.738, 2833.271
4835.667, 2815.215
4837.595, 2847.462
4839.524, 2816.199
4841.452, 2784.894
4843.381, 2843.146
4845.309, 2867.781
4847.238, 2850.778
4849.166, 2768.101
4851.095, 2792.659
4853.023, 2848.835
4854.952, 2788.636
4856.880, 2799.866
4858.809, 2844.445
4860.737, 2818.098
4862.666, 2785.727
4864.594, 2766.926
4866.522, 2793.258
4868.451, 2791.086
4870.379, 2770.380
4872.308, 2771.925
4874.236, 2769.104
4876.165, 2765.725
4878.093, 2791.644
4880.021, 2763.196
4881.950, 2711.595
4883.878, 2738.074
4885.807, 2780.966
4887.735, 2809.178
4889.664, 2756.612
4891.592, 2729.018
4893.521, 2734.737
4895.449, 2762.992
4897.378, 2768.163
4899.306, 2750.933
4901.235, 2720.371
4903.163, 2708.083
4905.092, 2708.532
4907.020, 2693.227
4908.949, 2706.849
4910.877, 2730.702
4912.806, 2709.117
4914.734, 2687.586
4916.663, 2670.531
4918.591, 2649.732
4920.520, 2645.713
4922.448, 2651.029
4924.376, 2643.614
4926.305, 2641.999
4928.233, 2647.587
4930.162, 2664.302
4932.090, 2664.356
4934.019, 2659.903
4935.947, 2681.163
4937.875, 2671.314
4939.804, 2649.817
4941.732, 2658.094
4943.661, 2646.532
4945.589, 2630.598
4947.518, 2634.594
4949.446, 2662.574
4951.375, 2678.586
4953.303, 2626.005
4955.232, 2632.159
4957.160, 2648.082
4959.089, 2615.861
4961.017, 2616.822
4962.946, 2619.265
4964.874, 2590.380
4966.803, 2578.484
4968.731, 2574.777
4970.660, 2567.326
4972.588, 2595.195
4974.517, 2612.150
4976.445, 2593.331
4978.374, 2602.393
4980.302, 2599.553
4982.230, 2562.620
4984.159, 2617.065
4986.087, 2644.826
4988.016, 2603.538
4989.944, 2581.635
4991.873, 2571.036
4993.801, 2567.091
4995.729, 2557.290
4997.658, 2566.174
4999.586, 2589.283
5001.515, 2566.498
5003.443, 2582.622
5005.372, 2623.227
5007.300, 2597.834
5009.229, 2565.598
5011.157, 2544.461
5013.086, 2555.110
5015.014, 2563.432
5016.943, 2570.879
5018.871, 2588.894
5020.800, 2578.510
5022.728, 2553.558
5024.657, 2530.372
5026.585, 2516.975
5028.514, 2514.980
5030.442, 2525.928
5032.371, 2552.226
5034.299, 2548.212
5036.228, 2494.769
5038.156, 2518.904
5040.084, 2533.406
5042.013, 2504.102
5043.941, 2525.677
5045.870, 2539.656
5047.798, 2529.688
5049.727, 2494.308
5051.655, 2481.823
5053.583, 2491.610
5055.512, 2500.481
5057.440, 2499.639
5059.369, 2491.972
5061.297, 2480.864
5063.226, 2496.900
5065.154, 2510.794
5067.083, 2485.000
5069.011, 2467.449
5070.940, 2465.302
5072.868, 2484.746
5074.797, 2498.305
5076.725, 2488.186
5078.654, 2454.768
5080.582, 2475.081
5082.511, 2492.075
5084.439, 2489.744
5086.368, 2490.306
5088.296, 2475.245
5090.225, 2451.431
5092.153, 2442.171
5094.082, 2450.240
5096.010, 2463.064
5097.938, 2465.269
5099.867, 2444.227
5101.795, 2425.874
5103.724, 2435.180
5105.652, 2450.031
5107.581, 2434.931
5109.509, 2380.559
5111.438, 2362.861
5113.366, 2377.203
5115.294, 2408.280
5117.223, 2397.866
5119.151, 2384.626
5121.080, 2384.375
5123.008, 2423.032
5124.937, 2408.812
5126.865, 2375.813
5128.794, 2378.873
5130.722, 2353.048
5132.651, 2344.315
5134.579, 2393.524
5136.508, 2395.061
5138.436, 2373.729
5140.365, 2346.018
5142.293, 2347.879
5144.222, 2359.475
5146.150, 2371.066
5148.079, 2377.023
5150.007, 2348.567
5151.936, 2313.724
5153.864, 2310.078
5155.792, 2329.840
5157.721, 2350.141
5159.649, 2356.040
5161.578, 2345.891
5163.506, 2332.990
5165.435, 2322.747
5167.363, 2306.932
5169.292, 2326.027
5171.220, 2356.929
5173.148, 2333.734
5175.077, 2303.227
5177.005, 2287.460
5178.934, 2303.653
5180.862, 2311.091
5182.791, 2312.836
5184.719, 2311.662
5186.648, 2298.480
5188.576, 2297.747
5190.505, 2303.641
5192.433, 2271.507
5194.362, 2269.904
5196.290, 2280.812
5198.219, 2264.440
5200.147, 2269.003
5202.076, 2270.403
5204.004, 2252.737
5205.933, 2267.291
5207.861, 2271.027
5209.790, 2258.352
5211.718, 2258.145
5213.646, 2251.009
5215.575, 2244.457
5217.503, 2254.798
5219.432, 2275.056
5221.360, 2276.995
5223.289, 2245.526
5225.217, 2257.456
5227.146, 2265.651
5229.074, 2257.171
5231.002, 2243.072
5232.931, 2216.961
5234.859, 2195.026
5236.788, 2205.533
5238.716, 2199.906
5240.645, 2198.016
5242.573, 2210.557
5244.502, 2211.121
5246.430, 2212.709
5248.359, 2218.004
5250.287, 2226.741
5252.216, 2225.310
5254.144, 2210.286
5256.073, 2173.752
5258.001, 2179.714
5259.930, 2182.766
5261.858, 2167.553
5263.787, 2177.599
5265.715, 2181.063
5267.644, 2172.108
5269.572, 2142.539
5271.500, 2159.718
5273.429, 2183.140
5275.357, 2180.576
5277.286, 2172.890
5279.214, 2168.548
5281.143, 2168.087
5283.071, 2169.179
5285.000, 2145.741
5286.928, 2130.240
5288.856, 2169.270
5290.785, 2136.960
5292.713, 2108.368
5294.642, 2113.566
5296.570, 2122.624
5298.499, 2126.106
5300.427, 2119.648
5302.356, 2097.633
5304.284, 2099.889
5306.213, 2108.073
5308.141, 2109.404
5310.070, 2097.459
5311.998, 2114.927
5313.927, 2138.548
5315.855, 2097.114
5317.784, 2099.609
5319.712, 2106.681
5321.641, 2086.216
5323.569, 2057.608
5325.498, 2070.176
5327.426, 2108.015
5329.354, 2093.703
5331.283, 2115.240
5333.211, 2127.871
5335.140, 2092.247
5337.068, 2100.904
5338.997, 2084.866
5340.925, 2047.493
5342.854, 2050.150
5344.782, 2044.434
5346.710, 2033.831
5348.639, 2025.233
5350.567, 2019.841
5352.496, 2043.931
5354.424, 2076.460
5356.353, 2038.953
5358.281, 2009.716
5360.210, 1993.880
5362.138, 1988.594
5364.067, 2020.418
5365.995, 2027.111
5367.924, 2007.867
5369.852, 2004.234
5371.781, 2014.758
5373.709, 2008.960
5375.638, 1968.147
5377.566, 1985.098
5379.495, 1988.794
5381.423, 1975.856
5383.352, 1974.235
5385.280, 1972.364
5387.208, 1973.933
5389.137, 1979.332
5391.065, 1962.003
5392.994, 1950.626
5394.922, 1945.860
5396.851, 1937.609
5398.779, 1945.100
5400.708, 1957.270
5402.636, 1964.776
5404.564, 1954.554
5406.493, 1929.965
5408.421, 1908.309
5410.350, 1906.395
5412.278, 1931.161
5414.207, 1938.849
5416.135, 1924.392
5418.064, 1924.788
5419.992, 1881.822
5421.921, 1861.873
5423.849, 1906.485
5425.778, 1897.096
5427.706, 1898.835
5429.635, 1919.028
5431.563, 1950.567
5433.492, 1901.918
5435.420, 1873.882
5437.349, 1901.394
5439.277, 1891.042
5441.206, 1898.328
5443.134, 1902.829
5445.063, 1877.952
5446.991, 1849.765
5448.919, 1854.846
5450.848, 1875.811
5452.776, 1860.160
5454.705, 1819.580
5456.633, 1807.714
5458.562, 1841.434
5460.490, 1824.538
5462.418, 1826.904
5464.347, 1840.079
5466.275, 1842.117
5468.204, 1817.059
5470.132, 1816.110
5472.061, 1826.314
5473.989, 1786.335
5475.918, 1794.968
5477.846, 1811.014
5479.775, 1811.848
5481.703, 1840.124
5483.632, 1802.862
5485.560, 1768.247
5487.489, 1819.007
5489.417, 1806.327
5491.346, 1799.327
5493.274, 1805.442
5495.203, 1804.213
5497.131, 1795.864
5499.060, 1780.565
5500.988, 1764.647
5502.917, 1768.323
5504.845, 1780.470
5506.773, 1781.851
5508.702, 1761.147
5510.630, 1730.898
5512.559, 1733.161
5514.487, 1750.983
5516.416, 1755.268
5518.344, 1746.873
5520.272, 1729.463
5522.201, 1717.963
5524.129, 1738.169
5526.058, 1734.685
5527.986, 1730.081
5529.915, 1735.540
5531.843, 1749.505
5533.772, 1733.073
5535.700, 1724.833
5537.629, 1744.470
5539.557, 1695.313
5541.486, 1706.112
5543.414, 1731.220
5545.343, 1705.652
5547.271, 1724.541
5549.200, 1713.327
5551.128, 1687.642
5553.057, 1695.244
5554.985, 1692.754
5556.914, 1686.053
5558.842, 1686.780
5560.771, 1724.802
5562.699, 1705.672
5564.627, 1675.472
5566.556, 1662.772
5568.484, 1689.092
5570.413, 1684.005
5572.341, 1679.475
5574.270, 1693.058
5576.198, 1689.375
5578.126, 1664.317
5580.055, 1646.358
5581.983, 1652.474
5583.912, 1636.869
5585.840, 1662.241
5587.769, 1681.505
5589.697, 1641.079
5591.626, 1650.400
5593.554, 1643.677
5595.483, 1627.619
5597.411, 1633.571
5599.340, 1636.725
5601.268, 1635.151
5603.197, 1628.429
5605.125, 1616.677
5607.054, 1590.065
5608.982, 1590.642
5610.911, 1610.127
5612.839, 1610.547
5614.768, 1605.023
5616.696, 1599.685
5618.625, 1590.889
5620.553, 1554.532
5622.481, 1587.996
5624.410, 1594.025
5626.338, 1564.463
5628.267, 1614.768
5630.195, 1581.123
5632.124, 1551.777
5634.052, 1563.256
5635.980, 1588.886
5637.909, 1583.908
5639.837, 1572.504
5641.766, 1570.950
5643.694, 1582.701
5645.623, 1596.224
5647.551, 1583.550
5649.480, 1542.454
5651.408, 1500.870
5653.337, 1521.832
5655.265, 1534.439
5657.194, 1513.476
5659.122, 1520.419
5661.051, 1522.452
5662.979, 1531.842
5664.908, 1550.126
5666.836, 1560.067
5668.765, 1511.423
5670.693, 1493.075
5672.622, 1527.618
5674.550, 1535.719
5676.479, 1508.754
5678.407, 1490.671
5680.335, 1493.771
5682.264, 1487.424
5684.192, 1495.276
5686.121, 1484.822
5688.049, 1463.772
5689.978, 1509.296
5691.906, 1522.651
5693.834, 1495.369
5695.763, 1450.665
5697.691, 1442.969
5699.620, 1455.062
5701.548, 1466.425
5703.477, 1468.254
5705.405, 1457.369
5707.334, 1472.714
5709.262, 1451.904
5711.191, 1424.181
5713.119, 1461.418
5715.048, 1422.824
5716.976, 1410.628
5718.905, 1429.023
5720.833, 1442.484
5722.762, 1440.294
5724.690, 1445.006
5726.619, 1446.872
5728.547, 1432.469
5730.476, 1443.387
5732.404, 1465.920
5734.333, 1467.536
5736.261, 1432.947
5738.189, 1433.849
5740.118, 1410.260
5742.046, 1395.775
5743.975, 1408.525
5745.903, 1406.878
5747.832, 1402.847
5749.760, 1403.046
5751.688, 1404.850
5753.617, 1396.678
5755.545, 1354.624
5757.474, 1359.376
5759.402, 1392.882
5761.331, 1371.562
5763.259, 1353.489
5765.188, 1353.480
5767.116, 1362.481
5769.045, 1366.730
5770.973, 1386.076
5772.902, 1392.031
5774.830, 1380.039
5776.759, 1355.440
5778.687, 1350.210
5780.616, 1338.503
5782.544, 1331.021
5784.473, 1332.749
5786.401, 1331.514
5788.330, 1326.763
5790.258, 1324.664
5792.187, 1331.511
5794.115, 1354.639
5796.043, 1327.441
5797.972, 1324.467
5799.900, 1328.921
5801.829, 1301.150
5803.757, 1298.865
5805.686, 1290.584
5807.614, 1301.102
5809.542, 1336.347
5811.471, 1323.954
5813.399, 1298.177
5815.328, 1294.132
5817.256, 1307.771
5819.185, 1295.825
5821.113, 1289.888
5823.042, 1301.248
5824.970, 1312.832
5826.899, 1301.907
5828.827, 1286.739
5830.756, 1274.073
5832.684, 1280.531
5834.613, 1306.040
5836.541, 1305.441
5838.470, 1298.279
5840.398, 1276.302
5842.327, 1253.100
5844.255, 1262.344
5846.184, 1251.712
5848.112, 1232.400
5850.041, 1233.127
5851.969, 1267.905
5853.897, 1263.867
5855.826, 1250.953
5857.754, 1245.510
5859.683, 1245.782
5861.611, 1233.208
5863.540, 1224.010
5865.468, 1219.705
5867.396, 1226.997
5869.325, 1249.809
5871.253, 1264.136
5873.182, 1242.537
5875.110, 1226.081
5877.039, 1227.563
5878.967, 1200.363
5880.896, 1173.678
5882.824, 1190.748
5884.753, 1224.362
5886.681, 1226.420
5888.610, 1204.387
5890.538, 1187.996
5892.467, 1178.188
5894.395, 1174.861
5896.324, 1189.474
5898.252, 1199.026
5900.181, 1201.700
5902.109, 1192.252
5904.038, 1166.365
5905.966, 1161.552
5907.895, 1165.264
5909.823, 1170.133
5911.751, 1167.942
5913.680, 1142.950
5915.608, 1148.483
5917.537, 1148.571
5919.465, 1150.620
5921.394, 1167.872
5923.322, 1165.422
5925.250, 1150.456
5927.179, 1153.901
5929.107, 1163.499
5931.036, 1140.528
5932.964, 1165.678
5934.893, 1152.270
5936.821, 1129.397
5938.750, 1129.246
5940.678, 1137.206
5942.607, 1124.286
5944.535, 1129.240
5946.464, 1137.082
5948.392, 1124.117
5950.321, 1151.109
5952.249, 1126.499
5954.178, 1110.589
5956.106, 1115.891
5958.035, 1100.926
5959.963, 1106.156
5961.892, 1111.956
5963.820, 1101.123
5965.749, 1082.823
5967.677, 1111.724
5969.605, 1089.520
5971.534, 1087.859
5973.462, 1096.093
5975.391, 1085.193
5977.319, 1080.364
5979.248, 1102.752
5981.176, 1090.072
5983.104, 1058.788
5985.033, 1063.913
5986.961, 1094.360
5988.890, 1083.084
5990.818, 1063.921
5992.747, 1055.811
5994.675, 1049.406
5996.604, 1063.192
5998.532, 1076.384
6000.461, 1063.570
6002.389, 1037.248
6004.318, 1077.524
6006.246, 1072.868
6008.175, 1052.594
6010.103, 1044.547
6012.032, 1051.849
6013.960, 1031.174
6015.889, 1013.835
6017.817, 1036.991
6019.746, 1056.447
6021.674, 1033.564
6023.603, 1023.195
6025.531, 1014.378
6027.459, 1035.693
6029.388, 1056.727
6031.316, 1039.065
6033.245, 1002.720
6035.173, 1006.652
6037.102, 998.3810
6039.030, 983.1501
6040.958, 992.1008
6042.887, 1021.911
6044.815, 1036.307
6046.744, 1016.307
6048.672, 986.5994
6050.601, 983.3735
6052.529, 994.5193
6054.458, 1000.056
6056.386, 984.3688
6058.315, 970.8203
6060.243, 990.0438
6062.172, 973.5013
6064.100, 984.0114
6066.029, 997.0638
6067.957, 991.1118
6069.886, 962.4240
6071.814, 981.2637
6073.743, 980.7862
6075.671, 953.0210
6077.600, 930.1703
6079.528, 942.5591
6081.457, 940.6838
6083.385, 968.2015
6085.313, 961.4505
6087.242, 942.6892
6089.170, 950.6026
6091.099, 923.8087
6093.027, 939.3231
6094.956, 948.3729
6096.884, 938.6210
6098.813, 924.9327
6100.741, 944.4883
6102.669, 989.9345
6104.598, 981.1874
6106.526, 955.0424
6108.455, 946.7771
6110.383, 921.3193
6112.312, 948.3806
6114.240, 947.2286
6116.169, 926.9066
6118.097, 912.9088
6120.026, 922.7762
6121.954, 913.0356
6123.883, 931.3455
6125.811, 930.4310
6127.740, 913.1196
6129.668, 925.4720
6131.597, 930.1277
6133.525, 900.1349
6135.454, 911.1644
6137.382, 932.9927
6139.311, 909.1379
6141.239, 899.3420
6143.167, 871.8056
6145.096, 866.4575
6147.024, 878.3621
6148.953, 891.2400
6150.881, 901.9404
6152.810, 901.5686
6154.738, 902.1255
6156.667, 899.5302
6158.595, 895.2187
6160.523, 896.9811
6162.452, 887.3544
6164.380, 872.4322
6166.309, 870.3989
6168.237, 867.8528
6170.166, 852.1659
6172.094, 863.8423
6174.023, 864.5522
6175.951, 847.0480
6177.880, 839.1351
6179.808, 856.8174
6181.737, 887.6327
6183.665, 864.0341
6185.594, 870.3132
6187.522, 856.8844
6189.451, 835.3263
6191.379, 844.6843
6193.308, 838.1207
6195.236, 875.9648
6197.165, 858.0102
6199.093, 832.4608
6201.021, 837.5426
6202.950, 832.4993
6204.878, 842.5569
6206.807, 841.2078
6208.735, 820.7773
6210.664, 807.2043
6212.592, 822.6398
6214.521, 834.3105
6216.449, 803.9388
6218.377, 809.6893
6220.306, 825.0633
6222.234, 819.0388
6224.163, 796.1692
6226.091, 798.8645
6228.020, 800.6536
6229.948, 789.3315
6231.877, 784.3502
6233.805, 798.2540
6235.734, 809.6427
6237.662, 788.3134
6239.591, 797.1053
6241.519, 780.2701
6243.448, 755.3657
6245.376, 775.4623
6247.305, 786.7589
6249.233, 771.8613
6251.162, 792.0624
6253.090, 797.0176
6255.019, 779.4604
6256.947, 789.7721
6258.875, 766.6986
6260.804, 770.9217
6262.732, 769.4966
6264.661, 764.4688
6266.589, 761.1146
6268.518, 749.7563
6270.446, 758.5059
6272.375, 780.0241
6274.303, 771.7222
6276.231, 766.5472
6278.160, 783.4813
6280.088, 774.6080
6282.017, 776.3538
6283.945, 761.8127
6285.874, 763.5773
6287.802, 768.6395
6289.731, 750.8340
6291.659, 715.3198
6293.588, 722.0255
6295.516, 734.6158
6297.445, 740.0212
6299.373, 742.1921
6301.302, 742.6942
6303.230, 727.3745
6305.159, 691.9378
6307.087, 704.0119
6309.016, 709.3928
6310.944, 709.3105
6312.873, 720.9575
6314.801, 702.8586
6316.729, 722.7388
6318.658, 727.6028
6320.586, 702.8000
6322.515, 690.3804
6324.443, 707.2039
6326.372, 695.9532
6328.300, 704.7494
6330.229, 700.6136
6332.157, 702.0117
6334.085, 704.2432
6336.014, 697.8741
6337.942, 687.9258
6339.871, 679.4514
6341.799, 683.8626
6343.728, 696.9780
6345.656, 701.1246
6347.585, 689.4149
6349.513, 675.2299
6351.442, 701.9714
6353.370, 688.0057
6355.299, 674.3669
6357.227, 672.6089
6359.156, 678.9927
6361.084, 687.1728
6363.013, 678.8574
6364.941, 669.2279
6366.870, 656.2916
6368.798, 655.5295
6370.727, 664.0178
6372.655, 669.9799
6374.583, 669.3051
6376.512, 663.8466
6378.440, 662.6984
6380.369, 665.1210
6382.297, 659.3140
6384.226, 650.8415
6386.154, 658.4067
6388.083, 668.2861
6390.011, 657.5172
6391.939, 649.2953
6393.868, 649.9522
6395.796, 652.8613
6397.725, 653.1732
6399.653, 657.0851
6401.582, 653.7167
6403.510, 649.7722
6405.439, 652.6361
6407.367, 655.0526
6409.296, 649.0557
6411.224, 635.4000
6413.153, 639.4432
6415.081, 655.0182
6417.010, 635.2422
6418.938, 633.6335
6420.867, 646.0642
6422.795, 640.0029
6424.724, 621.2066
6426.652, 649.7628
6428.581, 623.9138
6430.509, 631.2039
6432.438, 634.7193
6434.366, 622.1016
6436.294, 619.4272
6438.223, 615.7407
6440.151, 628.2920
6442.080, 619.1703
6444.008, 623.0744
6445.937, 628.3705
6447.865, 627.3859
6449.793, 628.6915
6451.722, 608.9775
6453.650, 627.5491
6455.579, 630.7418
6457.507, 604.8498
6459.436, 591.7571
6461.364, 607.7843
6463.293, 622.0807
6465.221, 604.8287
6467.150, 599.0082
6469.078, 607.2623
6471.007, 611.5704
6472.935, 604.0887
6474.864, 592.9115
6476.792, 591.2132
6478.721, 600.8975
6480.649, 604.1686
6482.578, 573.6784
6484.506, 591.7133
6486.435, 601.6484
6488.363, 579.1580
6490.292, 577.3739
6492.220, 596.8308
6494.148, 601.2299
6496.077, 596.7439
6498.005, 585.4830
6499.934, 581.8652
6501.862, 580.1966
6503.791, 574.2977
6505.719, 598.7613
6507.647, 577.9750
6509.576, 576.5622
6511.504, 572.3721
6513.433, 568.8188
6515.361, 567.1364
6517.290, 567.3538
6519.218, 577.6976
6521.147, 571.0831
6523.075, 568.2664
6525.004, 563.3577
6526.932, 569.9136
6528.861, 567.6994
6530.789, 553.3319
6532.718, 551.7574
6534.646, 555.7491
6536.575, 529.2550
6538.503, 553.3164
6540.432, 566.2159
6542.360, 559.0692
6544.289, 543.9899
6546.217, 530.9428
6548.146, 530.8198
6550.074, 530.9319
6552.002, 522.6896
6553.931, 538.3983
6555.859, 529.3519
6557.788, 519.5829
6559.716, 521.8333
6561.645, 516.9479
##END=



