##NAMES=Norbergite
##RRUFFID=R050280
##IDEAL CHEMISTRY=Mg_3_(SiO_4_)F_2_
##LOCALITY=Sterling mine, Ogdensburg, New Jersey, USA
##OWNER=RRUFF
##SOURCE=Marcus Origlieri
##DESCRIPTION=Brownish-orange granular
##STATUS=The identification of this mineral has been confirmed by X-ray diffraction and chemical analysis
##URL=https://www.rruff.net/odr/rruff_sample/R050280
##MEASURED CHEMISTRY=(Mg_0.993_Fe_0.006_Ca_0.001_)_3_(SiO_4_)(F_0.704_OH_0.296_)_2_
##DIFFRACTION SAMPLE DESCRIPTION=Powder
##CELL PARAMETERS=a: 4.711 b: 10.2728 c: 8.7674 alpha: 90 beta: 90 gamma: 90 volume: 424.29 crystal system: orthorhombic
##FILETYPE=Raman Processed
##RAMAN WAVELENGTH=780

82.44824, 83.03917
84.37671, 77.92763
86.30518, 85.75997
88.23364, 100.4336
90.16211, 118.6316
92.09058, 140.1221
94.01904, 161.4044
95.94751, 172.7107
97.87598, 175.3375
99.80444, 176.0207
101.7329, 175.4609
103.6614, 173.8090
105.5898, 171.4597
107.5183, 169.3791
109.4468, 167.4540
111.3752, 165.8317
113.3037, 164.0373
115.2322, 162.5923
117.1606, 162.0262
119.0891, 162.0535
121.0176, 162.0185
122.9460, 161.7650
124.8745, 161.5074
126.8030, 161.2182
128.7314, 160.9141
130.6599, 160.5074
132.5884, 160.0560
134.5168, 159.7693
136.4453, 159.5605
138.3738, 159.6974
140.3022, 160.2495
142.2307, 161.0485
144.1592, 162.1312
146.0876, 163.3574
148.0161, 164.4274
149.9446, 165.2645
151.8730, 166.1340
153.8015, 167.5446
155.7300, 168.4910
157.6584, 168.0813
159.5869, 167.0089
161.5154, 166.2876
163.4438, 165.9059
165.3723, 166.0068
167.3008, 166.8266
169.2292, 167.7535
171.1577, 168.6058
173.0862, 169.4247
175.0146, 170.2368
176.9431, 171.0200
178.8716, 171.9741
180.8000, 173.2466
182.7285, 174.4479
184.6570, 175.6865
186.5854, 176.6250
188.5139, 176.8844
190.4424, 176.5338
192.3708, 176.4326
194.2993, 176.6124
196.2278, 176.9256
198.1563, 177.5110
200.0847, 177.9940
202.0132, 178.1598
203.9417, 178.0808
205.8701, 177.8190
207.7986, 177.2190
209.7271, 177.3577
211.6555, 178.6604
213.5840, 180.0204
215.5125, 180.8808
217.4409, 181.6169
219.3694, 182.7752
221.2979, 184.3189
223.2263, 185.1632
225.1548, 185.1516
227.0833, 185.0181
229.0117, 184.7334
230.9402, 184.6612
232.8687, 185.1647
234.7971, 186.0196
236.7256, 186.6027
238.6541, 186.9255
240.5825, 187.1435
242.5110, 187.0844
244.4395, 187.2919
246.3679, 188.4294
248.2964, 189.5462
250.2249, 189.4950
252.1533, 188.4675
254.0818, 187.3228
256.0103, 185.9791
257.9387, 185.0023
259.8672, 184.5329
261.7957, 184.4412
263.7241, 184.8497
265.6526, 185.5372
267.5811, 186.1169
269.5095, 186.6095
271.4380, 187.2786
273.3665, 188.4784
275.2949, 189.2593
277.2234, 188.9277
279.1519, 188.6402
281.0803, 189.2905
283.0088, 190.5691
284.9373, 191.8605
286.8657, 193.1090
288.7942, 194.6683
290.7227, 197.5329
292.6511, 199.3831
294.5796, 199.2430
296.5081, 198.2397
298.4365, 197.1395
300.3650, 195.9788
302.2935, 194.7946
304.2219, 193.3505
306.1504, 192.6004
308.0789, 192.6339
310.0073, 193.2049
311.9358, 194.3958
313.8643, 195.9804
315.7927, 197.8337
317.7212, 199.8992
319.6497, 201.8196
321.5781, 203.2581
323.5066, 205.3352
325.4351, 208.6989
327.3635, 211.6994
329.2920, 214.1551
331.2205, 215.5114
333.1490, 215.0972
335.0774, 213.1263
337.0059, 210.6629
338.9344, 207.2535
340.8628, 204.9759
342.7913, 204.4277
344.7198, 204.0464
346.6482, 202.8834
348.5767, 201.8794
350.5052, 201.8736
352.4336, 202.6476
354.3621, 203.3989
356.2906, 204.1583
358.2190, 204.6331
360.1475, 204.5429
362.0760, 204.8173
364.0044, 205.9202
365.9329, 207.4232
367.8614, 209.1465
369.7898, 211.0565
371.7183, 213.0942
373.6468, 215.2502
375.5752, 217.6418
377.5037, 220.7418
379.4322, 222.4906
381.3606, 221.7668
383.2891, 220.0226
385.2176, 217.2807
387.1460, 214.2598
389.0745, 211.9484
391.0030, 210.3164
392.9314, 209.1645
394.8599, 208.4451
396.7884, 208.4332
398.7168, 209.7032
400.6453, 211.0097
402.5738, 211.8052
404.5022, 212.6495
406.4307, 214.1584
408.3592, 216.1016
410.2876, 217.7806
412.2161, 219.1950
414.1446, 221.3588
416.0730, 224.7494
418.0015, 228.2605
419.9300, 231.4056
421.8584, 234.9499
423.7869, 240.3020
425.7154, 245.5550
427.6438, 248.2750
429.5723, 248.9326
431.5008, 249.2757
433.4292, 249.5431
435.3577, 248.9187
437.2862, 247.5198
439.2146, 245.0635
441.1431, 240.6826
443.0716, 236.0637
445.0000, 232.3759
446.9285, 229.1302
448.8570, 225.3402
450.7854, 221.0561
452.7139, 218.6427
454.6424, 219.6205
456.5708, 219.5614
458.4993, 217.7377
460.4278, 216.0556
462.3562, 214.8411
464.2847, 214.2864
466.2132, 214.8859
468.1416, 215.9836
470.0701, 216.3676
471.9986, 216.0480
473.9270, 216.5123
475.8555, 218.2246
477.7840, 218.9750
479.7124, 217.8670
481.6409, 217.4400
483.5694, 219.5854
485.4978, 221.4957
487.4263, 221.2760
489.3548, 219.9004
491.2832, 218.7162
493.2117, 217.6944
495.1402, 216.6290
497.0686, 215.5662
498.9971, 213.9152
500.9256, 211.0652
502.8540, 209.3678
504.7825, 210.5041
506.7110, 211.8045
508.6394, 211.9577
510.5679, 211.6798
512.4963, 211.5871
514.4248, 211.7173
516.3533, 212.2532
518.2817, 213.1586
520.2102, 214.2678
522.1387, 215.7393
524.0671, 216.4850
525.9956, 215.4328
527.9241, 214.9626
529.8525, 216.1573
531.7810, 217.7896
533.7095, 219.0426
535.6379, 220.1713
537.5664, 221.6271
539.4949, 223.2965
541.4233, 224.6531
543.3518, 225.6505
545.2803, 227.5305
547.2087, 231.0073
549.1372, 234.0347
551.0657, 236.6187
552.9941, 238.2715
554.9226, 238.5454
556.8511, 238.1160
558.7795, 236.9824
560.7080, 235.8361
562.6365, 235.6583
564.5649, 236.3153
566.4934, 237.4186
568.4219, 239.1278
570.3503, 240.0388
572.2788, 239.8158
574.2073, 239.0852
576.1357, 237.4409
578.0643, 235.8980
579.9927, 235.4281
581.9212, 234.5158
583.8497, 231.2576
585.7781, 227.5578
587.7066, 225.7044
589.6351, 225.3931
591.5635, 225.3157
593.4920, 225.4124
595.4205, 226.2574
597.3489, 228.1572
599.2774, 230.0322
601.2059, 231.5869
603.1343, 233.6731
605.0628, 237.1576
606.9913, 240.3028
608.9197, 242.6224
610.8482, 243.6442
612.7767, 242.6401
614.7051, 240.1774
616.6336, 237.0853
618.5621, 233.4355
620.4905, 229.7030
622.4190, 225.7356
624.3475, 223.2068
626.2759, 222.4761
628.2044, 221.6132
630.1329, 220.0556
632.0613, 218.8542
633.9898, 218.6673
635.9183, 218.5991
637.8467, 218.1327
639.7752, 217.6993
641.7037, 217.6595
643.6321, 217.9338
645.5606, 218.5455
647.4891, 219.3521
649.4175, 219.6074
651.3460, 219.3610
653.2745, 219.4160
655.2029, 219.8596
657.1314, 220.2449
659.0599, 220.4961
660.9883, 220.6444
662.9168, 220.8124
664.8453, 220.7136
666.7737, 219.9642
668.7022, 219.2798
670.6307, 219.2340
672.5591, 219.4509
674.4876, 219.3970
676.4161, 219.3481
678.3445, 220.0188
680.2730, 221.1342
682.2015, 221.6358
684.1299, 221.4770
686.0584, 221.1560
687.9869, 220.5340
689.9153, 220.3516
691.8438, 220.9628
693.7723, 221.5656
695.7007, 221.9522
697.6292, 222.4794
699.5577, 223.5866
701.4861, 224.4848
703.4146, 224.3793
705.3431, 224.1615
707.2715, 224.9761
709.2000, 225.9931
711.1285, 225.7886
713.0569, 224.8798
714.9854, 225.1428
716.9139, 226.5798
718.8423, 227.3957
720.7708, 227.4097
722.6993, 227.5202
724.6277, 227.5660
726.5562, 228.1264
728.4847, 229.4018
730.4131, 230.8307
732.3416, 232.6040
734.2701, 233.8472
736.1985, 233.5943
738.1270, 233.6140
740.0555, 235.6447
741.9839, 237.6438
743.9124, 237.7700
745.8409, 237.2500
747.7693, 237.5414
749.6978, 238.4382
751.6263, 239.7164
753.5547, 241.2035
755.4832, 241.6813
757.4117, 241.1451
759.3401, 241.9455
761.2686, 244.2425
763.1971, 244.9345
765.1255, 243.4605
767.0540, 242.5958
768.9825, 243.0146
770.9109, 243.3509
772.8394, 243.1457
774.7679, 243.0020
776.6964, 243.0743
778.6248, 243.3301
780.5533, 243.6223
782.4818, 244.2565
784.4102, 245.7176
786.3387, 247.3198
788.2672, 248.2822
790.1956, 249.0796
792.1241, 250.4034
794.0526, 252.0624
795.9810, 253.4630
797.9095, 254.8963
799.8380, 257.4048
801.7664, 260.7797
803.6949, 263.5038
805.6234, 265.5760
807.5518, 269.3875
809.4803, 275.1536
811.4088, 282.4395
813.3372, 291.2850
815.2657, 301.4544
817.1942, 314.3452
819.1226, 326.1422
821.0511, 336.2481
822.9796, 345.5161
824.9080, 353.3691
826.8365, 361.5445
828.7650, 368.2802
830.6934, 378.7723
832.6219, 394.5548
834.5504, 416.6006
836.4788, 445.5001
838.4073, 481.1478
840.3358, 525.0704
842.2642, 574.4368
844.1927, 630.0810
846.1212, 686.6224
848.0496, 741.5912
849.9781, 787.6871
851.9066, 807.8066
853.8350, 801.4996
855.7635, 762.1545
857.6920, 691.4045
859.6204, 613.2819
861.5489, 526.2469
863.4774, 456.8027
865.4058, 406.1281
867.3343, 368.4038
869.2628, 344.8144
871.1912, 327.6423
873.1197, 316.9742
875.0482, 310.1335
876.9766, 307.1576
878.9051, 306.5634
880.8336, 308.7002
882.7620, 311.0807
884.6905, 313.8445
886.6190, 314.4648
888.5474, 311.1630
890.4759, 307.5063
892.4044, 304.7235
894.3328, 302.0701
896.2613, 300.2711
898.1898, 297.1219
900.1182, 290.8721
902.0467, 283.8158
903.9752, 276.4969
905.9036, 270.0220
907.8321, 265.3441
909.7606, 261.7927
911.6890, 258.8422
913.6175, 256.5559
915.5460, 255.1063
917.4744, 254.2988
919.4029, 254.1231
921.3314, 254.2525
923.2598, 254.1393
925.1883, 253.9689
927.1168, 254.1074
929.0452, 254.4302
930.9737, 254.3745
932.9022, 254.3769
934.8306, 255.7589
936.7591, 258.1461
938.6876, 260.1913
940.6160, 262.0599
942.5445, 264.7239
944.4730, 268.1470
946.4014, 272.0803
948.3299, 276.4462
950.2584, 279.6692
952.1868, 281.7115
954.1153, 283.0343
956.0438, 283.6803
957.9722, 283.0921
959.9007, 280.5878
961.8292, 280.0519
963.7576, 281.9980
965.6861, 283.9428
967.6146, 285.5003
969.5430, 288.3556
971.4715, 293.5507
973.4000, 297.0938
975.3284, 299.5204
977.2569, 298.1679
979.1854, 291.9941
981.1138, 285.0753
983.0423, 277.3245
984.9708, 270.5291
986.8992, 264.9731
988.8277, 260.0386
990.7562, 255.4368
992.6846, 252.4442
994.6131, 251.6007
996.5416, 251.0559
998.4700, 250.4696
1000.398, 250.1332
1002.327, 250.2803
1004.255, 249.8542
1006.184, 248.2663
1008.112, 247.5082
1010.041, 248.3449
1011.969, 249.0242
1013.898, 249.1396
1015.826, 248.9427
1017.755, 248.2246
1019.683, 248.0378
1021.612, 248.8512
1023.540, 249.6306
1025.469, 250.2675
1027.397, 250.4253
1029.325, 249.5318
1031.254, 249.3781
1033.182, 251.0456
1035.111, 252.0079
1037.039, 251.3125
1038.968, 250.7489
1040.896, 250.6532
1042.825, 250.7550
1044.753, 251.2501
1046.682, 251.4701
1048.610, 250.8235
1050.539, 250.7261
1052.467, 252.1221
1054.396, 252.7528
1056.324, 251.6468
1058.252, 250.9385
1060.181, 251.1102
1062.109, 251.3780
1064.038, 251.3655
1065.966, 251.9898
1067.895, 254.3704
1069.823, 255.4449
1071.752, 253.8604
1073.680, 252.9305
1075.609, 253.5886
1077.537, 253.6598
1079.466, 252.3110
1081.394, 251.8904
1083.323, 253.1394
1085.251, 253.9258
1087.180, 253.7496
1089.108, 254.1122
1091.036, 255.4352
1092.965, 256.1829
1094.893, 256.0883
1096.822, 255.9202
1098.750, 255.5933
1100.679, 255.8612
1102.607, 257.0304
1104.536, 257.2560
1106.464, 256.3223
1108.393, 255.5375
1110.321, 254.9734
1112.250, 254.6385
1114.178, 254.5255
1116.107, 254.4245
1118.035, 254.3095
1119.964, 254.9403
1121.892, 256.2570
1123.820, 256.6102
1125.749, 256.0995
1127.677, 255.8031
1129.606, 255.7088
1131.534, 255.5718
1133.463, 255.4653
1135.391, 255.7938
1137.320, 256.3354
1139.248, 256.3510
1141.177, 256.1257
1143.105, 256.3280
1145.034, 256.8158
1146.962, 257.4394
1148.891, 257.9515
1150.819, 257.9370
1152.747, 257.9052
1154.676, 258.5229
1156.604, 259.2061
1158.533, 259.5417
1160.461, 259.4745
1162.390, 258.3094
1164.318, 257.6142
1166.247, 259.3166
1168.175, 260.7534
1170.104, 259.5880
1172.032, 258.6686
1173.961, 259.9204
1175.889, 260.9442
1177.818, 260.6350
1179.746, 260.2485
1181.674, 260.0846
1183.603, 260.1753
1185.531, 260.7231
1187.460, 261.1546
1189.388, 260.9909
1191.317, 261.3155
1193.245, 262.8557
1195.174, 263.5413
1197.102, 262.9361
1199.031, 262.4306
1200.959, 261.9968
1202.888, 261.8676
1204.816, 262.1064
1206.745, 262.3019
1208.673, 262.4554
1210.601, 262.8746
1212.530, 263.4647
1214.458, 263.3870
1216.387, 262.9636
1218.315, 263.3059
1220.244, 263.9279
1222.172, 263.6777
1224.101, 263.2314
1226.029, 263.6363
1227.958, 264.2985
1229.886, 264.9418
1231.815, 265.2402
1233.743, 264.5119
1235.672, 263.9566
1237.600, 264.3013
1239.528, 264.9361
1241.457, 265.8507
1243.385, 266.4847
1245.314, 266.5570
1247.242, 266.3452
1249.171, 265.9689
1251.099, 265.7762
1253.028, 265.6715
1254.956, 266.0020
1256.885, 266.9153
1258.813, 267.3301
1260.742, 267.1252
1262.670, 267.1707
1264.599, 267.5675
1266.527, 268.1160
1268.455, 268.5695
1270.384, 268.2933
1272.312, 267.6752
1274.241, 267.1373
1276.169, 267.0538
1278.098, 268.2821
1280.026, 269.4070
1281.955, 269.0004
1283.883, 268.5142
1285.812, 268.5921
1287.740, 269.1368
1289.669, 270.6252
1291.597, 271.5484
1293.526, 271.3400
1295.454, 271.2072
1297.382, 270.8808
1299.311, 271.0816
1301.239, 272.3795
1303.168, 272.8824
1305.096, 272.4069
1307.025, 271.4655
1308.953, 270.4095
1310.882, 270.9303
1312.810, 272.1782
1314.739, 272.6271
1316.667, 272.6623
1318.596, 271.7853
1320.524, 271.2762
1322.453, 272.8093
1324.381, 274.3986
1326.309, 275.0781
1328.238, 275.2845
1330.166, 275.1969
1332.095, 274.9586
1334.023, 274.4189
1335.952, 274.4161
1337.880, 275.1777
1339.809, 275.1210
1341.737, 274.1921
1343.666, 274.3889
1345.594, 275.3933
1347.523, 275.9984
1349.451, 276.2870
1351.380, 275.7896
1353.308, 275.2200
1355.236, 275.7740
1357.165, 276.5676
1359.093, 277.0416
1361.022, 277.4414
1362.950, 278.1842
1364.879, 278.0566
1366.807, 276.1834
1368.736, 275.4534
1370.664, 276.3770
1372.593, 276.8207
1374.521, 276.6772
1376.450, 276.9886
1378.378, 277.7416
1380.307, 278.0181
1382.235, 277.8599
1384.163, 277.8564
1386.092, 278.2481
1388.020, 279.4452
1389.949, 280.4453
1391.877, 280.2250
1393.806, 279.6525
1395.734, 278.8746
1397.663, 278.6912
1399.591, 279.6469
1401.520, 280.3804
1403.448, 280.8265
1405.377, 280.9466
1407.305, 280.7322
1409.234, 281.4941
1411.162, 282.8575
1413.090, 282.0759
1415.019, 280.5519
1416.947, 281.7742
1418.876, 283.4557
1420.804, 283.3874
1422.733, 283.0305
1424.661, 282.8724
1426.590, 283.0810
1428.518, 283.9637
1430.447, 284.6474
1432.375, 284.8794
1434.304, 284.6432
1436.232, 284.2744
1438.161, 284.3983
1440.089, 284.7451
1442.017, 285.1859
1443.946, 285.5624
1445.874, 285.6707
1447.803, 285.6896
1449.731, 285.9916
1451.660, 286.4363
1453.588, 286.7226
1455.517, 286.6953
1457.445, 286.5148
1459.374, 287.0230
1461.302, 287.7877
1463.231, 288.1645
1465.159, 288.1679
1467.088, 286.7552
1469.016, 285.4371
1470.944, 286.0931
1472.873, 286.8697
1474.801, 286.5110
1476.730, 286.3322
1478.658, 286.8282
1480.587, 286.8524
1482.515, 286.4268
1484.444, 286.4152
1486.372, 286.5327
1488.301, 286.1061
1490.229, 285.9475
1492.158, 287.2029
1494.086, 288.3610
1496.015, 288.4538
1497.943, 288.1825
1499.871, 287.1671
1501.800, 286.7652
1503.728, 287.7705
1505.657, 288.4620
1507.585, 288.4358
1509.514, 288.7772
1511.442, 289.5908
1513.371, 289.6610
1515.299, 289.1480
1517.228, 288.2006
1519.156, 287.4738
1521.085, 287.5675
1523.013, 287.8163
1524.942, 288.1225
1526.870, 288.3106
1528.798, 288.3080
1530.727, 288.4387
1532.655, 288.6027
1534.584, 289.5521
1536.512, 290.4746
1538.441, 290.1147
1540.369, 290.1132
1542.298, 290.5589
1544.226, 290.2514
1546.155, 289.5727
1548.083, 288.6891
1550.012, 287.3239
1551.940, 288.4332
1553.869, 291.2087
1555.797, 291.1745
1557.725, 289.8062
1559.654, 289.9303
1561.582, 290.7089
1563.511, 291.3228
1565.439, 291.4894
1567.368, 291.2469
1569.296, 290.8778
1571.225, 290.5088
1573.153, 291.5395
1575.082, 292.7138
1577.010, 290.5688
1578.939, 288.4860
1580.867, 289.8617
1582.796, 290.7776
1584.724, 290.1281
1586.652, 290.5838
1588.581, 291.6771
1590.509, 292.3560
1592.438, 292.6670
1594.366, 291.7292
1596.295, 290.8323
1598.223, 291.3353
1600.152, 291.5312
1602.080, 290.6948
1604.009, 290.4918
1605.937, 290.7046
1607.866, 290.2842
1609.794, 289.8573
1611.723, 290.1079
1613.651, 290.2288
1615.579, 289.5902
1617.508, 289.2784
1619.436, 290.0244
1621.365, 290.5283
1623.293, 290.3315
1625.222, 289.4610
1627.150, 288.3945
1629.079, 289.3324
1631.007, 290.6729
1632.936, 289.7935
1634.864, 288.7174
1636.793, 288.3388
1638.721, 288.7840
1640.650, 290.1318
1642.578, 290.0396
1644.506, 288.7802
1646.435, 289.0970
1648.363, 289.8669
1650.292, 289.0935
1652.220, 288.9208
1654.149, 289.3304
1656.077, 289.4703
1658.006, 290.2298
1659.934, 289.9182
1661.863, 288.8357
1663.791, 289.5356
1665.720, 290.4065
1667.648, 290.3763
1669.577, 290.0783
1671.505, 288.7704
1673.433, 288.0893
1675.362, 288.8934
1677.290, 288.9906
1679.219, 288.1382
1681.147, 288.0638
1683.076, 288.3744
1685.004, 288.3059
1686.933, 288.2997
1688.861, 288.4329
1690.790, 288.8217
1692.718, 289.6642
1694.647, 289.2946
1696.575, 288.2293
1698.504, 287.9105
1700.432, 288.4888
1702.360, 290.2139
1704.289, 290.6104
1706.217, 288.9090
1708.146, 288.1734
1710.074, 288.4398
1712.003, 288.4824
1713.931, 288.4049
1715.860, 288.5521
1717.788, 288.2113
1719.717, 287.0952
1721.645, 287.2211
1723.574, 288.2418
1725.502, 287.4200
1727.431, 286.2447
1729.359, 286.2547
1731.287, 286.2126
1733.216, 285.9897
1735.144, 286.1719
1737.073, 286.6826
1739.001, 286.1276
1740.930, 285.2276
1742.858, 286.1066
1744.787, 287.0203
1746.715, 286.4152
1748.644, 285.1122
1750.572, 283.2103
1752.501, 283.0036
1754.429, 284.2830
1756.358, 284.2261
1758.286, 283.6805
1760.214, 283.1685
1762.143, 283.4047
1764.071, 285.2968
1766.000, 285.5350
1767.928, 284.1270
1769.857, 283.9946
1771.785, 283.8765
1773.714, 282.7621
1775.642, 282.9537
1777.571, 283.9495
1779.499, 283.7998
1781.428, 283.9950
1783.356, 284.2017
1785.285, 283.9653
1787.213, 283.3121
1789.141, 282.3606
1791.070, 281.7377
1792.998, 282.1953
1794.927, 283.0363
1796.855, 281.9990
1798.784, 280.6042
1800.712, 280.3824
1802.641, 280.7171
1804.569, 281.6844
1806.498, 282.2324
1808.426, 281.8257
1810.355, 281.3994
1812.283, 281.6836
1814.212, 281.1099
1816.140, 280.3039
1818.068, 280.6969
1819.997, 280.6781
1821.925, 279.7522
1823.854, 279.4639
1825.782, 279.8434
1827.711, 280.0064
1829.639, 279.7461
1831.568, 279.0485
1833.496, 278.7852
1835.425, 278.6657
1837.353, 278.3426
1839.282, 278.5168
1841.210, 278.7953
1843.139, 278.1371
1845.067, 276.7782
1846.995, 276.3502
1848.924, 276.6845
1850.852, 276.1365
1852.781, 275.2914
1854.709, 275.3737
1856.638, 274.7738
1858.566, 274.0633
1860.495, 273.9667
1862.423, 273.5178
1864.352, 273.3434
1866.280, 273.4489
1868.209, 274.0542
1870.137, 275.1298
1872.066, 275.5056
1873.994, 273.9468
1875.922, 272.1222
1877.851, 271.4005
1879.779, 270.8376
1881.708, 271.4787
1883.636, 272.5975
1885.565, 272.7205
1887.493, 272.7977
1889.422, 272.1628
1891.350, 270.2499
1893.279, 269.5253
1895.207, 269.2065
1897.136, 269.0079
1899.064, 268.9930
1900.993, 268.5550
1902.921, 267.9045
1904.849, 267.1297
1906.778, 266.9311
1908.706, 267.1944
1910.635, 267.5377
1912.563, 267.2365
1914.492, 266.6733
1916.420, 266.6674
1918.349, 266.1334
1920.277, 265.5776
1922.206, 265.8001
1924.134, 266.1440
1926.063, 265.4999
1927.991, 264.1253
1929.920, 263.7218
1931.848, 263.8651
1933.776, 263.9516
1935.705, 264.1652
1937.633, 263.9263
1939.562, 263.1395
1941.490, 262.5984
1943.419, 263.4032
1945.347, 264.3519
1947.276, 263.4933
1949.204, 261.8161
1951.133, 260.9206
1953.061, 261.0648
1954.990, 261.4638
1956.918, 260.5431
1958.847, 259.5178
1960.775, 260.2894
1962.703, 260.0929
1964.632, 258.6597
1966.560, 258.8375
1968.489, 259.4977
1970.417, 258.9273
1972.346, 258.1071
1974.274, 257.4646
1976.203, 256.7566
1978.131, 256.2226
1980.060, 256.2147
1981.988, 256.2417
1983.917, 255.6434
1985.845, 255.2844
1987.774, 255.8793
1989.702, 255.9729
1991.630, 255.2765
1993.559, 254.8200
1995.487, 254.0825
1997.416, 253.2943
1999.344, 253.3638
2001.273, 253.6008
2003.201, 252.7947
2005.130, 251.3639
2007.058, 250.9812
2008.987, 251.3680
2010.915, 250.7543
2012.844, 249.3864
2014.772, 249.3045
2016.701, 249.8149
2018.629, 249.5919
2020.557, 249.2840
2022.486, 248.5293
2024.414, 248.3166
2026.343, 248.3904
2028.271, 247.5544
2030.200, 246.6791
2032.128, 245.5897
2034.057, 244.4200
2035.985, 243.8027
2037.914, 244.6286
2039.842, 245.0845
2041.771, 244.2072
2043.699, 243.3465
2045.628, 242.7057
2047.556, 243.1421
2049.484, 243.5419
2051.413, 242.4065
2053.341, 241.2675
2055.270, 241.3293
2057.198, 241.3441
2059.127, 240.5145
2061.055, 240.6129
2062.984, 240.8279
2064.912, 240.7577
2066.841, 239.6505
2068.769, 238.7875
2070.698, 238.9306
2072.626, 236.9215
2074.555, 234.7334
2076.483, 235.0938
2078.412, 235.6505
2080.340, 235.9820
2082.269, 235.5582
2084.197, 234.5606
2086.125, 234.3848
2088.054, 234.2737
2089.982, 233.5791
2091.911, 233.1561
2093.839, 233.6842
2095.768, 232.5095
2097.696, 230.5132
2099.625, 230.8264
2101.553, 230.9833
2103.482, 229.0754
2105.410, 228.6399
2107.339, 229.3607
2109.267, 229.4179
2111.196, 229.3479
2113.124, 229.2560
2115.052, 228.1742
2116.981, 227.1650
2118.909, 226.3815
2120.838, 225.6818
2122.766, 224.9346
2124.695, 224.6982
2126.623, 224.7390
2128.552, 225.2143
2130.480, 224.9616
2132.409, 224.2500
2134.337, 224.1181
2136.266, 223.6402
2138.194, 223.2015
2140.123, 222.8828
2142.051, 222.7899
2143.979, 222.8233
2145.908, 221.8660
2147.836, 220.2388
2149.765, 219.7342
2151.693, 220.5876
2153.622, 220.3868
2155.550, 218.5535
2157.479, 218.3481
2159.407, 218.9184
2161.336, 217.7190
2163.264, 217.2588
2165.193, 217.3854
2167.121, 216.6483
2169.050, 215.9240
2170.978, 215.5605
2172.906, 215.3844
2174.835, 214.6233
2176.763, 214.0964
2178.692, 214.2100
2180.620, 213.5615
2182.549, 212.5855
2184.477, 212.0940
2186.406, 211.4362
2188.334, 210.5107
2190.263, 210.2766
2192.191, 210.6997
2194.120, 210.7431
2196.048, 209.0187
2197.977, 208.0706
2199.905, 208.8731
2201.833, 208.7431
2203.762, 207.3928
2205.690, 206.9034
2207.619, 206.4034
2209.547, 205.6899
2211.476, 204.7478
2213.404, 204.0996
2215.333, 204.2410
2217.261, 204.2238
2219.190, 204.6312
2221.118, 203.7888
2223.047, 202.0085
2224.975, 200.9292
2226.904, 201.2301
2228.832, 201.3584
2230.760, 201.0213
2232.689, 200.6193
2234.617, 200.0241
2236.546, 199.4453
2238.474, 198.6091
2240.403, 197.9085
2242.331, 197.5070
2244.260, 197.1764
2246.188, 197.8858
2248.117, 198.2897
2250.045, 197.2283
2251.974, 195.5616
2253.902, 194.7188
2255.831, 194.2956
2257.759, 193.9184
2259.688, 194.4266
2261.616, 194.5354
2263.544, 193.5099
2265.473, 192.1694
2267.401, 191.6055
2269.330, 191.4161
2271.258, 190.5000
2273.187, 189.7941
2275.115, 189.8769
2277.044, 189.7881
2278.972, 188.8233
2280.901, 188.1250
2282.829, 187.9194
2284.758, 187.6806
2286.686, 187.9475
2288.615, 187.8541
2290.543, 187.6963
2292.471, 186.8162
2294.400, 185.9664
2296.328, 185.5576
2298.257, 185.0508
2300.185, 184.4868
2302.114, 183.9423
2304.042, 183.6067
2305.971, 182.8688
2307.899, 181.8307
2309.828, 181.1359
2311.756, 180.9072
2313.685, 180.3154
2315.613, 180.1375
2317.542, 179.5805
2319.470, 179.0768
2321.398, 179.2952
2323.327, 179.2157
2325.255, 178.0063
2327.184, 176.3362
2329.112, 175.6363
2331.041, 175.1758
2332.969, 174.7226
2334.898, 174.5218
2336.826, 173.9857
2338.755, 173.3001
2340.683, 172.8426
2342.612, 172.7795
2344.540, 172.7576
2346.469, 172.8182
2348.397, 172.1240
2350.325, 171.1824
2352.254, 170.9330
2354.182, 170.5458
2356.111, 169.6889
2358.039, 169.0230
2359.968, 168.4754
2361.896, 167.7259
2363.825, 167.6668
2365.753, 167.3475
2367.682, 167.1518
2369.610, 167.0945
2371.539, 166.3752
2373.467, 165.7935
2375.396, 166.0313
2377.324, 165.5934
2379.252, 164.6995
2381.181, 164.1188
2383.109, 163.1584
2385.038, 163.0602
2386.966, 164.2906
2388.895, 163.8914
2390.823, 162.6429
2392.752, 161.7645
2394.680, 160.5664
2396.609, 159.2715
2398.537, 159.5723
2400.466, 160.2134
2402.394, 159.4133
2404.323, 159.1418
2406.251, 159.2872
2408.179, 158.5493
2410.108, 157.8384
2412.036, 157.3235
2413.965, 156.2726
2415.893, 155.3460
2417.822, 155.1768
2419.750, 154.4112
2421.679, 153.6070
2423.607, 153.4212
2425.536, 152.8942
2427.464, 152.6152
2429.393, 151.9752
2431.321, 151.5450
2433.250, 151.3220
2435.178, 150.0895
2437.106, 149.6383
2439.035, 149.7297
2440.963, 148.3668
2442.892, 147.4206
2444.820, 147.4978
2446.749, 146.6321
2448.677, 146.1700
2450.606, 146.3418
2452.534, 145.3485
2454.463, 144.7209
2456.391, 144.2980
2458.320, 144.2437
2460.248, 144.1699
2462.177, 143.2946
2464.105, 141.9312
2466.033, 141.0567
2467.962, 141.2174
2469.890, 141.1419
2471.819, 140.4761
2473.747, 140.3293
2475.676, 139.9173
2477.604, 138.9433
2479.533, 138.1757
2481.461, 138.0779
2483.390, 137.7563
2485.318, 137.0821
2487.247, 136.4795
2489.175, 135.8919
2491.104, 135.8579
2493.032, 135.5029
2494.960, 134.5017
2496.889, 134.6498
2498.817, 135.0605
2500.746, 133.2577
2502.674, 132.5019
2504.603, 132.6460
2506.531, 131.6371
2508.460, 131.2553
2510.388, 131.2368
2512.317, 130.1737
2514.245, 129.4963
2516.174, 129.6530
2518.102, 128.8082
2520.031, 128.2449
2521.959, 128.2001
2523.887, 128.1511
2525.816, 127.5044
2527.744, 126.3485
2529.673, 127.0327
2531.601, 127.1520
2533.530, 126.4376
2535.458, 125.7266
2537.387, 125.4187
2539.315, 125.1781
2541.244, 124.3232
2543.172, 123.8778
2545.101, 123.3760
2547.029, 122.8058
2548.958, 122.6803
2550.886, 122.5102
2552.814, 122.7754
2554.743, 122.5768
2556.671, 121.3984
2558.600, 120.5502
2560.528, 120.0499
2562.457, 119.2155
2564.385, 118.5103
2566.314, 117.9805
2568.242, 117.6362
2570.171, 118.0535
2572.099, 118.4116
2574.028, 117.3300
2575.956, 116.4831
2577.885, 115.8991
2579.813, 115.8175
2581.741, 115.3710
2583.670, 114.0658
2585.598, 113.2068
2587.527, 113.2141
2589.455, 113.5131
2591.384, 113.1160
2593.312, 112.7018
2595.241, 111.9784
2597.169, 110.6792
2599.098, 110.1049
2601.026, 109.8329
2602.955, 108.9316
2604.883, 108.6055
2606.812, 108.7917
2608.740, 108.8290
2610.668, 107.5711
2612.597, 106.4391
2614.525, 106.8889
2616.454, 106.2163
2618.382, 105.5046
2620.311, 104.8851
2622.239, 104.2579
2624.168, 104.2359
2626.096, 104.4043
2628.025, 103.7747
2629.953, 102.9523
2631.882, 101.6782
2633.810, 101.8010
2635.739, 102.5203
2637.667, 100.9938
2639.595, 99.93735
2641.524, 99.51725
2643.452, 99.92458
2645.381, 99.71664
2647.309, 99.50924
2649.238, 99.67672
2651.166, 98.97217
2653.095, 97.49734
2655.023, 96.51158
2656.952, 96.60506
2658.880, 96.37646
2660.809, 95.26147
2662.737, 95.48301
2664.666, 95.59603
2666.594, 94.35507
2668.522, 93.64033
2670.451, 93.16164
2672.379, 92.90202
2674.308, 93.43876
2676.236, 93.22034
2678.165, 92.12145
2680.093, 91.64613
2682.022, 91.34782
2683.950, 91.53481
2685.879, 90.89460
2687.807, 89.63864
2689.736, 88.41530
2691.664, 88.83945
2693.593, 88.79497
2695.521, 87.87481
2697.449, 87.54845
2699.378, 87.24854
2701.306, 86.53755
2703.235, 85.74641
2705.163, 85.71761
2707.092, 85.92211
2709.020, 85.21449
2710.949, 84.45503
2712.877, 83.99495
2714.806, 82.78887
2716.734, 82.62048
2718.663, 82.56404
2720.591, 82.13907
2722.520, 82.11423
2724.448, 81.93896
2726.376, 81.52740
2728.305, 80.92053
2730.233, 80.50444
2732.162, 80.10884
2734.090, 79.12173
2736.019, 78.90461
2737.947, 78.95898
2739.876, 78.19915
2741.804, 77.32009
2743.733, 76.59531
2745.661, 76.03312
2747.590, 75.70410
2749.518, 75.68938
2751.447, 76.31929
2753.375, 75.47506
2755.303, 74.20918
2757.232, 74.27510
2759.160, 73.66625
2761.089, 73.07510
2763.017, 72.62638
2764.946, 72.34300
2766.874, 72.37766
2768.803, 72.08884
2770.731, 71.53674
2772.660, 71.00607
2774.588, 70.27542
2776.517, 70.54874
2778.445, 70.07696
2780.374, 69.04372
2782.302, 69.38082
2784.230, 69.66531
2786.159, 69.21726
2788.087, 67.97202
2790.016, 67.56072
2791.944, 67.34554
2793.873, 67.28866
2795.801, 67.03886
2797.730, 66.41652
2799.658, 65.93186
2801.587, 66.02226
2803.515, 65.63575
2805.444, 65.20450
2807.372, 65.25806
2809.301, 64.74919
2811.229, 63.93645
2813.157, 63.42440
2815.086, 62.98728
2817.014, 62.66220
2818.943, 62.11034
2820.871, 61.82601
2822.800, 61.62405
2824.728, 61.54236
2826.657, 61.33245
2828.585, 61.12966
2830.514, 60.64756
2832.442, 59.36605
2834.371, 59.23771
2836.299, 59.38236
2838.228, 58.90991
2840.156, 58.40023
2842.084, 57.96178
2844.013, 57.48130
2845.941, 57.02645
2847.870, 56.20919
2849.798, 55.60479
2851.727, 56.24544
2853.655, 55.80386
2855.584, 54.94773
2857.512, 54.47641
2859.441, 54.36261
2861.369, 53.95189
2863.298, 53.57988
2865.226, 53.63662
2867.155, 53.10254
2869.083, 52.29772
2871.011, 52.53219
2872.940, 52.16009
2874.868, 51.63595
2876.797, 51.47536
2878.725, 51.34135
2880.654, 51.15680
2882.582, 50.82929
2884.511, 50.42836
2886.439, 49.97335
2888.368, 49.54767
2890.296, 49.07025
2892.225, 49.23391
2894.153, 49.35911
2896.082, 48.97811
2898.010, 48.15376
2899.938, 47.41657
2901.867, 46.97691
2903.795, 46.87609
2905.724, 46.81067
2907.652, 46.47771
2909.581, 45.91575
2911.509, 45.50108
2913.438, 45.09914
2915.366, 44.74532
2917.295, 44.28569
2919.223, 44.09032
2921.152, 44.04829
2923.080, 43.86292
2925.009, 43.62799
2926.937, 43.65159
2928.865, 43.89189
2930.794, 43.67809
2932.722, 43.03097
2934.651, 42.35136
2936.579, 42.21723
2938.508, 41.97002
2940.436, 41.65902
2942.365, 41.28224
2944.293, 40.75132
2946.222, 40.68898
2948.150, 40.78935
2950.079, 39.91578
2952.007, 39.91349
2953.936, 40.09512
2955.864, 39.81457
2957.792, 38.80387
2959.721, 38.71644
2961.649, 38.99877
2963.578, 37.88862
2965.506, 37.31111
2967.435, 37.13640
2969.363, 37.18575
2971.292, 37.40475
2973.220, 37.16288
2975.149, 36.69284
2977.077, 36.96176
2979.006, 36.39280
2980.934, 35.73489
2982.863, 35.54870
2984.791, 35.33023
2986.719, 35.32511
2988.648, 35.27331
2990.576, 34.54625
2992.505, 34.13933
2994.433, 34.04015
2996.362, 34.06828
2998.290, 33.51734
3000.219, 33.37365
3002.147, 33.38758
3004.076, 33.12860
3006.004, 32.95836
3007.933, 32.65612
3009.861, 32.27689
3011.790, 32.12930
3013.718, 31.58418
3015.646, 31.18668
3017.575, 31.22236
3019.503, 30.83480
3021.432, 30.92146
3023.360, 31.16949
3025.289, 30.67066
3027.217, 30.19515
3029.146, 29.88801
3031.074, 29.71081
3033.003, 29.34894
3034.931, 29.16949
3036.860, 29.01210
3038.788, 28.68777
3040.717, 28.67331
3042.645, 28.09053
3044.573, 27.35359
3046.502, 27.73013
3048.430, 27.35563
3050.359, 27.12304
3052.287, 27.37731
3054.216, 27.42946
3056.144, 26.85869
3058.073, 26.28575
3060.001, 26.30373
3061.930, 26.35063
3063.858, 25.97089
3065.787, 25.55489
3067.715, 25.88513
3069.644, 25.53932
3071.572, 25.38627
3073.500, 25.53699
3075.429, 24.93780
3077.357, 24.27951
3079.286, 24.02022
3081.214, 24.27664
3083.143, 24.33123
3085.071, 24.39658
3087.000, 24.33384
3088.928, 23.97643
3090.857, 23.40013
3092.785, 23.24170
3094.714, 23.31054
3096.642, 22.91967
3098.571, 22.83902
3100.499, 22.67484
3102.427, 22.38926
3104.356, 22.46654
3106.284, 22.33466
3108.213, 21.92656
3110.141, 21.41541
3112.070, 21.56368
3113.998, 21.97385
3115.927, 22.09023
3117.855, 21.53613
3119.784, 21.11374
3121.712, 20.97363
3123.641, 20.79042
3125.569, 19.98455
3127.498, 19.95815
3129.426, 20.21922
3131.354, 20.34326
3133.283, 19.85909
3135.211, 19.52004
3137.140, 19.27191
3139.068, 19.06772
3140.997, 18.91842
3142.925, 18.88737
3144.854, 18.83553
3146.782, 18.68781
3148.711, 18.36174
3150.639, 18.36912
3152.568, 18.19453
3154.496, 17.71149
3156.425, 17.56783
3158.353, 17.49220
3160.281, 17.59985
3162.210, 17.83606
3164.138, 17.83546
3166.067, 17.10580
3167.995, 16.49965
3169.924, 16.50237
3171.852, 16.58472
3173.781, 16.32055
3175.709, 16.09852
3177.638, 16.18741
3179.566, 16.00410
3181.495, 15.93570
3183.423, 15.94994
3185.352, 15.89264
3187.280, 15.33474
3189.208, 14.86821
3191.137, 14.69946
3193.065, 14.83393
3194.994, 15.03273
3196.922, 14.70032
3198.851, 14.28940
3200.779, 14.22022
3202.708, 14.18534
3204.636, 14.08529
3206.565, 13.91975
3208.493, 13.70685
3210.422, 13.48297
3212.350, 13.48226
3214.279, 13.46629
3216.207, 13.28732
3218.135, 13.20675
3220.064, 13.15595
3221.992, 12.96697
3223.921, 12.62311
3225.849, 12.33470
3227.778, 12.37252
3229.706, 12.21916
3231.635, 11.71499
3233.563, 12.02791
3235.492, 11.79055
3237.420, 11.73953
3239.349, 12.03798
3241.277, 11.73766
3243.206, 11.37038
3245.134, 11.41520
3247.063, 11.62920
3248.991, 11.01497
3250.919, 10.65223
3252.848, 10.64764
3254.776, 10.85704
3256.705, 11.02588
3258.633, 10.62965
3260.562, 10.55299
3262.490, 10.66944
3264.419, 10.38771
3266.347, 10.36474
3268.276, 10.03454
3270.204, 9.791259
3272.133, 10.18536
3274.061, 9.981923
3275.990, 9.788501
3277.918, 9.714689
3279.846, 9.693326
3281.775, 9.447598
3283.703, 9.547589
3285.632, 9.474018
3287.560, 9.285842
3289.489, 9.910971
3291.417, 9.737411
3293.346, 9.496603
3295.274, 9.347545
3297.203, 8.897642
3299.131, 9.240685
3301.060, 9.358855
3302.988, 9.205486
3304.917, 9.073381
3306.845, 9.133020
3308.773, 9.091414
3310.702, 9.020430
3312.630, 8.950378
3314.559, 8.949985
3316.487, 8.638782
3318.416, 8.506223
3320.344, 8.461125
3322.273, 8.013710
3324.201, 8.472933
3326.130, 8.538738
3328.058, 8.358211
3329.987, 8.449739
3331.915, 8.328763
3333.844, 7.972442
3335.772, 7.946977
3337.700, 8.217311
3339.629, 7.523109
3341.557, 7.781094
3343.486, 7.750463
3345.414, 7.448417
3347.343, 7.640357
3349.271, 7.363631
3351.200, 7.072953
3353.128, 7.083337
3355.057, 7.418828
3356.985, 7.377910
3358.914, 7.047415
3360.842, 7.272220
3362.771, 7.668246
3364.699, 7.083724
3366.627, 6.972762
3368.556, 6.903594
3370.484, 6.944065
3372.413, 7.075658
3374.341, 6.691645
3376.270, 6.614809
3378.198, 6.840099
3380.127, 6.983786
3382.055, 6.589986
3383.984, 6.384721
3385.912, 6.588204
3387.841, 6.746954
3389.769, 6.626649
3391.698, 6.487400
3393.626, 6.253835
3395.554, 6.156252
3397.483, 6.174190
3399.411, 6.268717
3401.340, 6.614536
3403.268, 6.312810
3405.197, 5.930745
3407.125, 5.862017
3409.054, 6.077970
3410.982, 5.884372
3412.911, 5.799032
3414.839, 5.769717
3416.768, 5.694006
3418.696, 5.873337
3420.625, 6.026350
3422.553, 5.915709
3424.481, 5.732747
3426.410, 5.828797
3428.338, 5.702865
3430.267, 5.567588
3432.195, 5.428607
3434.124, 5.404017
3436.052, 5.684436
3437.981, 5.410058
3439.909, 5.471366
3441.838, 5.562371
3443.766, 5.390668
3445.695, 5.277904
3447.623, 5.074391
3449.552, 4.896493
3451.480, 4.875565
3453.408, 5.052823
3455.337, 5.277709
3457.265, 5.219755
3459.194, 4.984199
3461.122, 4.781243
3463.051, 4.764410
3464.979, 4.772781
3466.908, 4.552339
3468.836, 4.584809
3470.765, 4.708448
3472.693, 4.438880
3474.622, 4.225558
3476.550, 4.672146
3478.479, 4.686870
3480.407, 4.256386
3482.335, 4.386535
3484.264, 4.364892
3486.192, 4.387478
3488.121, 4.512715
3490.049, 4.531022
3491.978, 4.029249
3493.906, 3.897357
3495.835, 4.116469
3497.763, 4.154285
3499.692, 3.960536
3501.620, 4.001513
3503.549, 3.990512
3505.477, 4.058502
3507.406, 3.958905
3509.334, 3.785714
3511.262, 3.944388
3513.191, 3.950796
3515.119, 3.917604
3517.048, 3.954865
3518.976, 4.005891
3520.905, 3.927337
3522.833, 3.891874
3524.762, 3.934907
3526.690, 3.745419
3528.619, 3.518400
3530.547, 3.664571
3532.476, 3.698663
3534.404, 3.759653
3536.333, 3.765618
3538.261, 3.638182
3540.189, 3.408732
3542.118, 3.533203
3544.046, 3.735332
3545.975, 3.577130
3547.903, 3.362614
3549.832, 3.451837
3551.760, 3.637974
3553.689, 3.520343
3555.617, 3.284502
3557.546, 3.244948
3559.474, 3.430511
3561.403, 3.422682
3563.331, 3.428543
3565.260, 3.492680
3567.188, 3.434850
3569.116, 3.244282
3571.045, 3.102537
3572.973, 3.214015
3574.902, 3.546161
3576.830, 3.744753
3578.759, 3.716761
3580.687, 3.564710
3582.616, 3.440953
3584.544, 3.592222
3586.473, 3.560225
3588.401, 3.531865
3590.330, 3.537799
3592.258, 3.160144
3594.187, 3.215367
3596.115, 3.114247
3598.043, 2.938736
3599.972, 2.891220
3601.900, 2.998744
3603.829, 2.669837
3605.757, 2.777413
3607.686, 2.620551
3609.614, 2.500403
3611.543, 2.588326
3613.471, 2.220057
3615.400, 2.388681
3617.328, 2.646349
3619.257, 2.613420
3621.185, 2.414251
3623.114, 2.349111
3625.042, 2.434429
3626.970, 2.100899
3628.899, 2.271060
3630.827, 2.456890
3632.756, 2.409879
3634.684, 2.526104
3636.613, 2.355989
3638.541, 2.082372
3640.470, 2.358541
3642.398, 2.667845
3644.327, 2.548330
3646.255, 2.542563
3648.184, 2.300732
3650.112, 2.357943
3652.041, 2.409854
3653.969, 2.309579
3655.897, 2.199261
3657.826, 2.430665
3659.754, 2.345925
3661.683, 2.338558
3663.611, 2.353013
3665.540, 2.286674
3667.468, 2.174804
3669.397, 2.305870
3671.325, 2.261520
3673.254, 2.199986
3675.182, 2.012141
3677.111, 1.827072
3679.039, 1.919497
3680.968, 2.151268
3682.896, 2.038834
3684.824, 1.944289
3686.753, 1.928014
3688.681, 1.896878
3690.610, 1.791673
3692.538, 1.914513
3694.467, 1.931615
3696.395, 1.772359
3698.324, 1.737723
3700.252, 1.859074
3702.181, 1.888582
3704.109, 1.698631
3706.038, 1.618445
3707.966, 1.693766
3709.895, 1.738991
3711.823, 1.696257
3713.751, 1.683174
3715.680, 1.919676
3717.608, 1.615161
3719.537, 1.660242
3721.465, 1.663651
3723.394, 1.692698
3725.322, 1.899320
3727.251, 1.680511
3729.179, 1.492222
3731.108, 1.378136
3733.036, 1.384714
3734.965, 1.448082
3736.893, 1.515166
3738.822, 1.609994
3740.750, 1.728621
3742.678, 1.689856
3744.607, 1.416290
3746.535, 1.382613
3748.464, 1.472899
3750.392, 1.242654
3752.321, 1.451470
3754.249, 1.664339
3756.178, 1.390505
3758.106, 1.279369
3760.035, 1.323473
3761.963, 1.346958
3763.892, 1.606635
3765.820, 1.229742
3767.749, 1.127038
3769.677, 1.191102
3771.605, 1.358752
3773.534, 1.512734
3775.462, 1.475916
3777.391, 1.232239
3779.319, 1.137873
3781.248, 1.335170
3783.176, 1.408141
3785.105, 1.299371
3787.033, 1.276981
3788.962, 1.502392
3790.890, 1.234985
3792.819, 1.286889
3794.747, 1.414289
3796.676, 1.315332
3798.604, 1.240462
3800.532, 1.313403
3802.461, 1.185490
3804.389, 1.199014
3806.318, 1.186103
3808.246, 1.221935
3810.175, 1.123076
3812.103, 1.089973
3814.032, 1.165030
3815.960, 0.8681843
3817.889, 0.9298865
3819.817, 0.9711418
3821.746, 0.9741091
3823.674, 0.9557130
3825.603, 0.9984643
3827.531, 1.061039
3829.459, 0.9674737
3831.388, 1.021285
3833.316, 0.6835546
3835.245, 0.7705473
3837.173, 0.9143804
3839.102, 0.9131365
3841.030, 0.8612188
3842.959, 0.8779879
3844.887, 1.062496
3846.816, 0.7914419
3848.744, 1.005447
3850.673, 0.9983689
3852.601, 0.9912934
3854.530, 1.089063
3856.458, 0.9940299
3858.386, 0.9735873
3860.315, 0.7977819
3862.243, 0.9763970
3864.172, 0.9128164
3866.100, 0.8921558
3868.029, 1.026393
3869.957, 1.129575
3871.886, 1.083578
3873.814, 0.8212187
3875.743, 0.8479077
3877.671, 0.9570380
3879.600, 0.8392912
3881.528, 0.8879925
3883.457, 0.9840757
3885.385, 0.8230963
3887.313, 0.9550460
3889.242, 0.6620309
3891.170, 0.9060661
3893.099, 0.7877482
3895.027, 0.7607147
3896.956, 0.8168641
3898.884, 0.7403867
3900.813, 0.6210555
3902.741, 0.7193449
3904.670, 0.7798455
3906.598, 0.6360837
3908.527, 0.7119552
3910.455, 0.7597174
3912.384, 0.7433352
3914.312, 0.6578074
3916.240, 0.5141226
3918.169, 0.7516929
3920.097, 0.7132913
3922.026, 0.6080871
3923.954, 0.7781130
3925.883, 0.7039444
3927.811, 0.5373568
3929.740, 0.5423996
3931.668, 0.6569244
3933.597, 0.7399944
3935.525, 0.7583732
3937.454, 0.6612995
3939.382, 0.8921283
3941.311, 0.7960016
3943.239, 0.5674235
3945.167, 0.5311437
3947.096, 0.6427705
3949.024, 0.7206894
3950.953, 0.7992643
3952.881, 0.7364684
3954.810, 0.5650677
3956.738, 0.5248028
3958.667, 0.6506631
3960.595, 0.6581073
3962.524, 0.5289778
3964.452, 0.5269657
3966.381, 0.5829941
3968.309, 0.5043936
3970.238, 0.3940259
3972.166, 0.4576458
3974.094, 0.6116595
3976.023, 0.6012561
3977.951, 0.6993542
3979.880, 0.6032594
3981.808, 0.5373448
3983.737, 0.4460434
3985.665, 0.3698283
3987.594, 0.3658250
3989.522, 0.2822946
3991.451, 0.4968449
3993.379, 0.5665064
3995.308, 0.4524247
3997.236, 0.2334832
3999.165, 0.4202028
4001.093, 0.5147187
4003.021, 0.3656417
4004.950, 0.4132295
4006.878, 0.5794338
4008.807, 0.3254815
4010.735, 0.2991253
4012.664, 0.2499783
4014.592, 0.3531267
4016.521, 0.3007855
4018.449, 0.1689460
4020.378, 0.1437356
4022.306, 0.2174553
4024.235, 0.2999780
4026.163, 0.4201612
4028.092, 0.3072668
4030.020, 0.3766206
4031.948, 0.2883085
4033.877, 0.2694080
4035.805, 0.3428497
4037.734, 0.3782794
4039.662, 0.3000081
4041.591, 0.2286806
4043.519, 0.3386458
4045.448, 0.2618186
4047.376, 0.2551898
4049.305, 0.2639418
4051.233, 0.2011454
4053.162, 0.1396544
4055.090, 0.1347094
4057.019, 0.2201130
4058.947, 0.3043670
4060.875, 0.2890243
4062.804, 0.2146827
4064.732, 0.1722766
4066.661, 0.1167914
4068.589, 0.3004760
4070.518, 0.3371312
4072.446, 0.3950108
4074.375, 0.2586452
4076.303, 0.2000518
4078.232, 0.2923349
4080.160, 0.3118249
4082.089, 0.2919850
4084.017, 0.4531416
4085.946, 0.2676950
4087.874, 0.3480078
4089.802, 0.1467793
4091.731, 0.3295975
4093.659, 0.2800282
4095.588, 0.4270062
4097.517, 0.2505791
4099.445, 0.1706429
4101.374, 0.2476624
4103.302, 0.1124845
4105.230, 0.4120985
4107.159, 0.1506168
4109.087, 5.3302929E-02
4111.016, 3.0713560E-02
4112.944, 0.1404748
4114.873, 0.1777601
4116.801, 0.1523911
4118.729, 0.1080661
4120.658, 7.7902883E-02
4122.586, 0.1203571
4124.515, 0.1400043
4126.443, 0.1150215
4128.372, 0.3852736
4130.300, 0.1855522
4132.229, 0.2466547
4134.157, 0.2878029
4136.086, 0.4060888
4138.014, 0.1212089
4139.943, 0.2173361
4141.871, 0.2460016
4143.800, 0.1312685
4145.728, 0.1056148
4147.657, 0.1202652
4149.585, 8.1848070E-02
4151.514, 9.8272048E-02
4153.442, 0.2101912
4155.371, 0.1401950
4157.299, 9.3047567E-02
4159.228, 7.0741557E-02
4161.156, 0.2326994
4163.084, 0.1832617
4165.013, 6.8015233E-02
4166.941, 9.5170379E-02
4168.870, 9.7433791E-02
4170.798, 0.1420795
4172.727, 0.1891510
4174.655, 0.1331256
4176.583, 0.2560412
4178.512, 0.4643515
4180.440, 0.2346355
4182.369, 0.1799675
4184.297, 0.1791601
4186.226, 0.1359522
4188.154, 0.1445862
4190.083, 0.3041133
4192.011, 0.2875713
4193.940, 0.3215913
4195.868, 0.3257092
4197.797, 0.2223814
4199.725, 0.1017646
4201.654, 6.4657077E-02
4203.582, 5.5818759E-02
4205.511, -7.9442047E-02
4207.439, 0.1665716
4209.368, 0.2997695
4211.296, 0.3204946
4213.225, 0.1628432
4215.153, 7.1143024E-02
4217.082, 0.3140118
4219.010, 0.1605907
4220.938, 0.1227207
4222.867, 0.2920880
4224.795, 0.2737770
4226.724, 0.2836227
4228.652, 0.3430725
4230.581, 0.3047762
4232.509, 0.2439406
4234.438, 0.1916632
4236.366, 0.2537189
4238.294, 0.1926899
4240.223, 0.3053767
4242.151, 1.8508950E-02
4244.080, 0.1057380
4246.008, 0.2635977
4247.937, 7.9299383E-02
4249.865, 0.1643363
4251.794, 4.0794499E-02
4253.722, 7.3679224E-02
4255.651, 0.1956902
4257.579, 0.1711917
4259.508, 0.1399095
4261.436, 0.2311739
4263.365, 0.3281341
4265.293, 0.2490184
4267.222, 0.2060244
4269.150, 0.2843124
4271.079, -1.5950341E-02
4273.007, 0.2199435
4274.936, 0.2711044
4276.864, 0.1442476
4278.792, 0.1290559
4280.721, 0.2085485
4282.649, 0.2618569
4284.578, 0.2880019
4286.506, 0.1161071
4288.435, 0.2319321
4290.363, 0.1802977
4292.292, 0.1071584
4294.220, 0.3002812
4296.148, 0.1767662
4298.077, 0.1245556
4300.005, 0.2396403
4301.934, 0.2958929
4303.862, 0.2954714
4305.791, 0.2032270
4307.719, 0.1235218
4309.648, 0.1666368
4311.576, 0.3657517
4313.505, 0.3525339
4315.433, 0.1856755
4317.362, 9.3227513E-02
4319.290, 8.6893313E-02
4321.219, 0.2676854
4323.147, 9.8949596E-02
4325.076, 0.2635944
4327.004, 7.7570818E-02
4328.933, 0.1083334
4330.861, 0.1907453
4332.790, 0.3376668
4334.718, 0.2950272
4336.646, 0.3081823
4338.575, 0.2953903
4340.503, 0.2354206
4342.432, 0.2949327
4344.360, 0.2478726
4346.289, 0.1923843
4348.217, 0.1614590
4350.146, -1.2208540E-02
4352.074, 1.0638790E-02
4354.002, 0.2997625
4355.931, 0.2567250
4357.859, 9.2642121E-02
4359.788, 0.3087836
4361.716, 0.3932995
4363.645, 0.2693214
4365.573, 0.1764910
4367.502, 4.0407240E-02
4369.430, -9.0950392E-02
4371.359, 0.1307749
4373.287, 0.1364760
4375.216, 0.1327071
4377.144, 0.3540466
4379.073, 0.2504791
4381.001, 0.1154286
##END=



