##NAMES=Norbergite
##RRUFFID=R050280
##IDEAL CHEMISTRY=Mg_3_(SiO_4_)F_2_
##LOCALITY=Sterling mine, Ogdensburg, New Jersey, USA
##OWNER=RRUFF
##SOURCE=Marcus Origlieri
##DESCRIPTION=Brownish-orange granular
##STATUS=The identification of this mineral has been confirmed by X-ray diffraction and chemical analysis
##URL=https://www.rruff.net/odr/rruff_sample/R050280
##MEASURED CHEMISTRY=(Mg_0.993_Fe_0.006_Ca_0.001_)_3_(SiO_4_)(F_0.704_OH_0.296_)_2_
##DIFFRACTION SAMPLE DESCRIPTION=Powder
##CELL PARAMETERS=a: 4.711 b: 10.2728 c: 8.7674 alpha: 90 beta: 90 gamma: 90 volume: 424.29 crystal system: orthorhombic
##FILETYPE=Raman RAW
##RAMAN WAVELENGTH=532

115.3464, 147.8357
117.2749, 169.1669
119.2034, 195.2919
121.1318, 218.3426
123.0603, 234.3186
124.9888, 247.3280
126.9172, 262.3842
128.8457, 271.0388
130.7742, 274.9551
132.7026, 277.0710
134.6311, 277.2250
136.5596, 278.5880
138.4880, 281.4475
140.4165, 285.5033
142.3450, 290.0956
144.2734, 296.7690
146.2019, 302.1269
148.1304, 304.7857
150.0588, 301.1902
151.9873, 299.6081
153.9158, 301.0461
155.8442, 304.6307
157.7727, 308.0745
159.7012, 311.8085
161.6296, 314.9887
163.5581, 316.7657
165.4866, 316.1415
167.4150, 316.2114
169.3435, 318.1487
171.2720, 321.7688
173.2004, 324.6820
175.1289, 325.9258
177.0574, 326.8255
178.9858, 328.6336
180.9143, 331.3145
182.8428, 334.6690
184.7712, 338.8420
186.6997, 344.2563
188.6282, 348.4641
190.5566, 349.4774
192.4851, 350.1656
194.4136, 353.5743
196.3420, 362.7469
198.2705, 371.1174
200.1990, 376.1766
202.1274, 376.9833
204.0559, 378.7008
205.9844, 381.6918
207.9128, 385.8197
209.8413, 390.9736
211.7698, 398.8418
213.6983, 406.2910
215.6267, 411.7879
217.5552, 415.2625
219.4837, 419.4008
221.4121, 426.4143
223.3406, 434.3719
225.2691, 438.9956
227.1975, 436.0453
229.1260, 433.9356
231.0545, 436.7589
232.9829, 445.3838
234.9114, 451.9005
236.8399, 453.8642
238.7683, 453.1002
240.6968, 453.9612
242.6253, 457.1194
244.5537, 461.0261
246.4822, 464.8275
248.4107, 468.0356
250.3391, 472.5062
252.2676, 482.0723
254.1961, 492.2546
256.1245, 494.4724
258.0530, 480.6995
259.9814, 468.5665
261.9099, 465.7632
263.8384, 478.8017
265.7668, 489.2973
267.6953, 497.1920
269.6238, 502.3654
271.5522, 504.8536
273.4807, 499.9304
275.4092, 497.0687
277.3376, 500.0729
279.2661, 510.3236
281.1946, 521.2151
283.1230, 534.2664
285.0515, 547.2064
286.9800, 556.5890
288.9084, 557.3392
290.8369, 558.8696
292.7654, 564.9654
294.6938, 575.5366
296.6223, 583.5303
298.5508, 586.9736
300.4792, 587.3318
302.4077, 585.6436
304.3362, 577.9854
306.2646, 572.3881
308.1931, 572.2835
310.1216, 576.8456
312.0500, 580.3914
313.9785, 579.7124
315.9070, 578.9529
317.8354, 582.2214
319.7639, 589.4182
321.6924, 600.0759
323.6208, 616.2048
325.5493, 636.8898
327.4778, 655.5125
329.4063, 671.8499
331.3347, 686.0209
333.2632, 698.2524
335.1917, 709.8957
337.1201, 716.2485
339.0486, 713.6605
340.9771, 704.0113
342.9055, 695.5676
344.8340, 686.6679
346.7625, 680.1176
348.6909, 677.6050
350.6194, 678.8479
352.5479, 682.9523
354.4763, 692.3525
356.4048, 704.1799
358.3333, 712.0524
360.2617, 712.5547
362.1902, 713.3558
364.1187, 717.6237
366.0471, 725.3843
367.9756, 732.2851
369.9041, 734.8716
371.8326, 737.5863
373.7610, 746.1997
375.6895, 761.3959
377.6180, 779.2408
379.5464, 802.4816
381.4749, 830.3571
383.4034, 847.3804
385.3318, 849.4084
387.2603, 844.2482
389.1888, 834.6611
391.1172, 819.9740
393.0457, 806.3462
394.9742, 792.2308
396.9026, 779.9224
398.8311, 777.1932
400.7596, 792.3072
402.6880, 808.3849
404.6165, 818.8929
406.5450, 824.4113
408.4734, 831.0616
410.4019, 839.8705
412.3304, 850.3152
414.2588, 862.1040
416.1873, 874.2794
418.1158, 889.0364
420.0442, 909.1620
421.9727, 932.8544
423.9012, 954.2903
425.8296, 969.1898
427.7581, 984.4759
429.6866, 1005.738
431.6150, 1036.293
433.5435, 1057.865
435.4720, 1061.346
437.4004, 1055.342
439.3289, 1051.593
441.2574, 1055.140
443.1858, 1056.085
445.1143, 1052.400
447.0428, 1044.225
448.9712, 1033.715
450.8997, 1016.648
452.8282, 1000.921
454.7566, 991.4092
456.6851, 994.1736
458.6136, 994.7916
460.5420, 990.1508
462.4705, 983.7205
464.3990, 981.1061
466.3274, 982.6368
468.2559, 988.1431
470.1844, 999.1592
472.1128, 1017.048
474.0413, 1029.797
475.9698, 1030.812
477.8982, 1031.572
479.8267, 1040.521
481.7552, 1060.273
483.6836, 1078.313
485.6121, 1093.923
487.5406, 1106.253
489.4690, 1112.555
491.3975, 1107.655
493.3260, 1104.641
495.2544, 1110.832
497.1829, 1125.290
499.1114, 1133.956
501.0398, 1127.242
502.9683, 1120.431
504.8968, 1125.358
506.8252, 1144.862
508.7537, 1162.071
510.6822, 1172.635
512.6106, 1179.125
514.5391, 1184.922
516.4675, 1188.963
518.3960, 1193.329
520.3245, 1198.646
522.2529, 1204.716
524.1814, 1210.043
526.1099, 1211.329
528.0383, 1215.401
529.9668, 1226.288
531.8953, 1249.012
533.8237, 1267.392
535.7522, 1277.930
537.6807, 1285.989
539.6091, 1298.440
541.5376, 1318.089
543.4661, 1334.428
545.3945, 1339.958
547.3230, 1338.798
549.2515, 1348.901
551.1799, 1383.058
553.1084, 1414.595
555.0369, 1431.651
556.9653, 1436.276
558.8938, 1440.690
560.8223, 1444.424
562.7507, 1449.855
564.6792, 1458.561
566.6077, 1471.347
568.5361, 1486.431
570.4646, 1508.729
572.3931, 1531.608
574.3215, 1547.706
576.2500, 1555.775
578.1785, 1558.684
580.1069, 1552.752
582.0355, 1540.838
583.9639, 1538.955
585.8924, 1556.936
587.8209, 1572.773
589.7493, 1575.233
591.6778, 1565.005
593.6063, 1557.058
595.5347, 1547.241
597.4632, 1544.198
599.3917, 1556.388
601.3201, 1587.795
603.2486, 1618.380
605.1771, 1645.229
607.1055, 1670.164
609.0340, 1695.576
610.9625, 1724.449
612.8909, 1748.444
614.8194, 1768.031
616.7479, 1781.710
618.6763, 1786.451
620.6048, 1782.961
622.5333, 1770.232
624.4617, 1740.337
626.3902, 1694.846
628.3187, 1668.635
630.2471, 1671.634
632.1756, 1685.202
634.1041, 1704.429
636.0325, 1729.464
637.9610, 1751.486
639.8895, 1770.681
641.8179, 1784.893
643.7464, 1791.485
645.6749, 1782.794
647.6033, 1782.525
649.5318, 1798.037
651.4603, 1820.179
653.3887, 1836.999
655.3172, 1848.588
657.2457, 1856.156
659.1741, 1855.058
661.1026, 1850.435
663.0311, 1854.867
664.9595, 1877.952
666.8880, 1900.008
668.8165, 1915.077
670.7449, 1925.297
672.6734, 1940.222
674.6019, 1965.069
676.5303, 1987.728
678.4588, 2002.427
680.3873, 2007.691
682.3157, 2014.631
684.2442, 2018.841
686.1727, 2027.736
688.1011, 2050.429
690.0296, 2086.698
691.9581, 2114.682
693.8865, 2124.689
695.8150, 2129.133
697.7435, 2136.025
699.6719, 2145.296
701.6004, 2157.770
703.5289, 2174.777
705.4573, 2194.131
707.3858, 2213.434
709.3143, 2232.458
711.2427, 2252.069
713.1712, 2274.862
715.0997, 2297.987
717.0281, 2317.137
718.9566, 2328.462
720.8851, 2340.788
722.8135, 2353.054
724.7420, 2367.594
726.6705, 2388.528
728.5989, 2418.759
730.5274, 2449.318
732.4559, 2476.506
734.3843, 2500.809
736.3128, 2525.715
738.2413, 2551.492
740.1697, 2576.943
742.0982, 2601.393
744.0267, 2625.053
745.9551, 2648.853
747.8836, 2671.456
749.8121, 2696.761
751.7405, 2730.469
753.6690, 2774.094
755.5975, 2802.185
757.5259, 2800.396
759.4544, 2798.931
761.3829, 2813.717
763.3113, 2842.807
765.2398, 2869.172
767.1683, 2888.993
769.0967, 2907.181
771.0252, 2926.660
772.9537, 2948.503
774.8821, 2966.839
776.8106, 2976.329
778.7391, 2987.329
780.6675, 3009.663
782.5960, 3043.167
784.5245, 3070.669
786.4529, 3084.809
788.3814, 3095.978
790.3099, 3109.249
792.2383, 3122.213
794.1668, 3144.562
796.0953, 3181.438
798.0237, 3222.880
799.9522, 3259.135
801.8807, 3289.112
803.8091, 3329.437
805.7376, 3392.918
807.6661, 3460.977
809.5945, 3520.401
811.5230, 3569.208
813.4515, 3614.298
815.3799, 3652.944
817.3084, 3689.858
819.2369, 3728.076
821.1653, 3766.589
823.0938, 3809.119
825.0223, 3853.769
826.9507, 3904.830
828.8792, 3962.645
830.8077, 4022.265
832.7361, 4107.853
834.6646, 4209.100
836.5931, 4341.653
838.5215, 4523.049
840.4500, 4755.853
842.3785, 5015.472
844.3069, 5293.392
846.2354, 5602.833
848.1639, 5969.611
850.0923, 6422.657
852.0208, 6797.488
853.9493, 7166.093
855.8777, 7393.490
857.8062, 7345.893
859.7347, 6965.172
861.6631, 6537.432
863.5916, 5983.406
865.5201, 5461.396
867.4485, 5069.349
869.3770, 4809.750
871.3055, 4617.531
873.2339, 4513.191
875.1624, 4449.377
877.0909, 4405.011
879.0193, 4383.214
880.9478, 4374.434
882.8763, 4381.260
884.8047, 4398.933
886.7332, 4429.468
888.6617, 4471.173
890.5901, 4506.858
892.5186, 4534.408
894.4471, 4554.803
896.3755, 4568.561
898.3040, 4575.758
900.2325, 4577.095
902.1609, 4572.547
904.0894, 4563.680
906.0179, 4544.204
907.9464, 4518.622
909.8748, 4508.236
911.8033, 4521.507
913.7318, 4538.842
915.6602, 4552.633
917.5887, 4562.858
919.5172, 4572.245
921.4456, 4571.763
923.3741, 4580.761
925.3026, 4614.580
927.2310, 4661.899
929.1595, 4688.788
931.0880, 4684.311
933.0164, 4686.501
934.9449, 4716.412
936.8734, 4759.823
938.8018, 4790.738
940.7303, 4789.012
942.6588, 4809.777
944.5872, 4877.752
946.5157, 4964.047
948.4442, 5025.975
950.3726, 5056.794
952.3011, 5091.354
954.2296, 5141.915
956.1580, 5194.770
958.0865, 5238.535
960.0150, 5271.766
961.9434, 5303.713
963.8719, 5332.696
965.8004, 5362.875
967.7288, 5394.298
969.6573, 5424.675
971.5858, 5469.817
973.5142, 5553.779
975.4427, 5629.490
977.3712, 5668.041
979.2996, 5676.661
981.2281, 5681.243
983.1566, 5687.855
985.0850, 5685.115
987.0135, 5660.893
988.9420, 5622.435
990.8704, 5603.708
992.7989, 5619.555
994.7274, 5637.446
996.6558, 5649.977
998.5843, 5662.610
1000.513, 5685.844
1002.441, 5722.703
1004.370, 5759.817
1006.298, 5788.666
1008.227, 5819.245
1010.155, 5863.393
1012.084, 5927.736
1014.012, 5980.397
1015.940, 6009.692
1017.869, 6032.784
1019.797, 6059.639
1021.726, 6090.427
1023.654, 6123.322
1025.583, 6160.064
1027.511, 6197.875
1029.440, 6238.033
1031.368, 6279.587
1033.297, 6317.110
1035.225, 6347.533
1037.154, 6378.848
1039.082, 6413.571
1041.010, 6450.332
1042.939, 6486.093
1044.867, 6520.341
1046.796, 6553.857
1048.724, 6586.131
1050.653, 6618.311
1052.581, 6651.951
1054.510, 6687.549
1056.438, 6724.488
1058.367, 6764.541
1060.295, 6804.440
1062.224, 6838.937
1064.152, 6866.952
1066.081, 6907.939
1068.009, 6978.388
1069.938, 7043.047
1071.866, 7088.354
1073.794, 7118.847
1075.723, 7150.884
1077.651, 7183.947
1079.580, 7219.818
1081.508, 7263.013
1083.437, 7307.592
1085.365, 7345.738
1087.294, 7376.032
1089.222, 7410.094
1091.151, 7451.631
1093.079, 7497.158
1095.008, 7547.156
1096.936, 7602.571
1098.865, 7650.738
1100.793, 7690.470
1102.722, 7725.018
1104.650, 7748.054
1106.578, 7766.989
1108.507, 7802.587
1110.435, 7860.872
1112.364, 7917.036
1114.292, 7966.479
1116.221, 8009.138
1118.149, 8040.972
1120.078, 8057.646
1122.006, 8090.163
1123.935, 8165.699
1125.863, 8234.957
1127.792, 8263.831
1129.720, 8255.784
1131.649, 8279.365
1133.577, 8363.999
1135.505, 8437.335
1137.434, 8468.858
1139.362, 8482.525
1141.291, 8515.357
1143.219, 8569.803
1145.148, 8630.408
1147.076, 8705.523
1149.005, 8775.198
1150.933, 8821.083
1152.862, 8839.847
1154.790, 8876.957
1156.719, 8961.032
1158.647, 9032.082
1160.576, 9063.797
1162.504, 9071.301
1164.432, 9094.309
1166.361, 9135.440
1168.289, 9180.887
1170.218, 9227.655
1172.146, 9277.008
1174.075, 9332.132
1176.003, 9392.278
1177.932, 9445.476
1179.860, 9483.011
1181.789, 9526.121
1183.717, 9593.446
1185.646, 9674.224
1187.574, 9733.868
1189.503, 9755.827
1191.431, 9784.644
1193.359, 9825.171
1195.288, 9871.583
1197.216, 9917.092
1199.145, 9959.888
1201.073, 10009.83
1203.002, 10068.58
1204.930, 10130.06
1206.859, 10194.14
1208.787, 10258.54
1210.716, 10319.22
1212.644, 10376.68
1214.573, 10430.43
1216.501, 10479.51
1218.430, 10526.84
1220.358, 10574.45
1222.286, 10623.15
1224.215, 10670.62
1226.143, 10711.99
1228.072, 10759.15
1230.000, 10823.78
1231.929, 10894.22
1233.857, 10940.94
1235.786, 10949.63
1237.714, 10990.05
1239.643, 11105.49
1241.571, 11223.53
1243.500, 11289.58
1245.428, 11318.43
1247.357, 11368.41
1249.285, 11453.38
1251.214, 11539.57
1253.142, 11619.69
1255.070, 11695.09
1256.999, 11767.83
1258.927, 11841.09
1260.856, 11900.12
1262.784, 11923.20
1264.713, 11953.61
1266.641, 12010.15
1268.570, 12085.33
1270.498, 12160.52
1272.427, 12243.71
1274.355, 12306.07
1276.284, 12326.35
1278.212, 12339.77
1280.141, 12373.06
1282.069, 12424.41
1283.997, 12483.34
1285.926, 12557.24
1287.854, 12624.21
1289.783, 12666.88
1291.711, 12704.28
1293.640, 12759.73
1295.568, 12837.52
1297.497, 12908.19
1299.425, 12960.66
1301.354, 13014.00
1303.282, 13070.86
1305.211, 13133.00
1307.139, 13206.25
1309.068, 13290.16
1310.996, 13384.47
1312.924, 13515.96
1314.853, 13632.97
1316.781, 13688.43
1318.710, 13697.13
1320.638, 13731.42
1322.567, 13801.79
1324.495, 13873.95
1326.424, 13936.35
1328.352, 13997.17
1330.281, 14067.91
1332.209, 14147.23
1334.138, 14209.29
1336.066, 14243.80
1337.995, 14277.07
1339.923, 14307.25
1341.851, 14347.72
1343.780, 14419.25
1345.708, 14536.11
1347.637, 14636.31
1349.565, 14706.65
1351.494, 14773.20
1353.422, 14838.01
1355.351, 14905.26
1357.279, 14988.91
1359.208, 15100.50
1361.136, 15190.33
1363.065, 15238.06
1364.993, 15281.87
1366.922, 15334.16
1368.850, 15399.07
1370.778, 15490.25
1372.707, 15617.67
1374.635, 15722.67
1376.564, 15771.32
1378.492, 15813.43
1380.421, 15877.99
1382.349, 15960.45
1384.278, 16046.46
1386.206, 16143.13
1388.135, 16223.94
1390.063, 16269.96
1391.992, 16312.29
1393.920, 16369.65
1395.849, 16441.90
1397.777, 16521.54
1399.705, 16623.11
1401.634, 16709.83
1403.562, 16756.67
1405.491, 16803.59
1407.419, 16891.10
1409.348, 17016.04
1411.276, 17111.76
1413.205, 17163.04
1415.133, 17214.45
1417.062, 17268.50
1418.990, 17331.97
1420.919, 17422.82
1422.847, 17533.97
1424.776, 17614.73
1426.704, 17646.09
1428.632, 17691.26
1430.561, 17777.65
1432.489, 17881.21
1434.418, 17985.15
1436.346, 18088.29
1438.275, 18187.99
1440.203, 18281.82
1442.132, 18370.72
1444.060, 18443.65
1445.989, 18517.20
1447.917, 18608.59
1449.846, 18716.60
1451.774, 18808.50
1453.703, 18884.21
1455.631, 18947.77
1457.559, 18988.96
1459.488, 19034.52
1461.416, 19110.62
1463.345, 19216.07
1465.273, 19312.35
1467.202, 19387.14
1469.130, 19469.46
1471.059, 19560.53
1472.987, 19655.31
1474.916, 19752.13
1476.844, 19847.67
1478.773, 19931.11
1480.701, 19998.63
1482.630, 20067.45
1484.558, 20152.19
1486.486, 20232.83
1488.415, 20286.94
1490.343, 20330.76
1492.272, 20407.33
1494.200, 20521.42
1496.129, 20635.97
1498.057, 20744.20
1499.986, 20843.93
1501.914, 20929.53
1503.843, 21005.07
1505.771, 21077.73
1507.700, 21149.14
1509.628, 21220.35
1511.557, 21286.62
1513.485, 21367.49
1515.413, 21494.92
1517.342, 21631.63
1519.270, 21716.26
1521.199, 21743.26
1523.127, 21794.71
1525.056, 21885.36
1526.984, 21982.99
1528.913, 22068.38
1530.841, 22161.64
1532.770, 22295.66
1534.698, 22472.35
1536.627, 22601.29
1538.555, 22652.87
1540.484, 22705.51
1542.412, 22765.28
1544.340, 22834.88
1546.269, 22915.42
1548.197, 23005.91
1550.126, 23105.58
1552.054, 23219.13
1553.983, 23328.96
1555.911, 23440.92
1557.840, 23539.70
1559.768, 23605.93
1561.697, 23658.91
1563.625, 23743.64
1565.554, 23879.07
1567.482, 23968.14
1569.411, 23959.32
1571.339, 23976.47
1573.267, 24073.34
1575.196, 24200.57
1577.124, 24307.38
1579.053, 24395.29
1580.981, 24485.72
1582.910, 24572.98
1584.838, 24670.63
1586.767, 24779.76
1588.695, 24896.57
1590.624, 25032.15
1592.552, 25169.05
1594.481, 25262.44
1596.409, 25306.37
1598.338, 25365.50
1600.266, 25462.74
1602.194, 25560.23
1604.123, 25636.70
1606.051, 25711.19
1607.980, 25812.85
1609.908, 25935.81
1611.837, 26025.96
1613.765, 26060.93
1615.694, 26118.31
1617.622, 26235.24
1619.551, 26362.66
1621.479, 26463.99
1623.408, 26551.29
1625.336, 26655.43
1627.265, 26778.50
1629.193, 26890.01
1631.121, 26976.64
1633.050, 27067.88
1634.978, 27191.33
1636.907, 27315.98
1638.835, 27407.86
1640.764, 27473.29
1642.692, 27544.27
1644.621, 27621.79
1646.549, 27710.28
1648.478, 27816.98
1650.406, 27926.63
1652.335, 28023.61
1654.263, 28120.07
1656.192, 28245.05
1658.120, 28398.80
1660.048, 28529.65
1661.977, 28632.64
1663.905, 28712.77
1665.834, 28745.92
1667.762, 28783.93
1669.691, 28870.87
1671.619, 28993.61
1673.548, 29100.95
1675.476, 29192.03
1677.405, 29280.95
1679.333, 29360.96
1681.262, 29448.51
1683.190, 29539.28
1685.119, 29642.50
1687.047, 29783.77
1688.975, 29952.49
1690.904, 30057.46
1692.832, 30074.05
1694.761, 30111.33
1696.689, 30197.72
1698.618, 30299.73
1700.546, 30406.72
1702.475, 30521.24
1704.403, 30652.24
1706.332, 30797.65
1708.260, 30913.15
1710.189, 30990.31
1712.117, 31053.72
1714.046, 31080.19
1715.974, 31126.87
1717.902, 31224.88
1719.831, 31357.13
1721.759, 31510.05
1723.688, 31683.96
1725.616, 31824.21
1727.545, 31915.08
1729.473, 32004.85
1731.402, 32105.19
1733.330, 32201.79
1735.259, 32276.37
1737.187, 32347.60
1739.116, 32452.87
1741.044, 32592.55
1742.973, 32709.18
1744.901, 32795.42
1746.829, 32873.97
1748.758, 32943.92
1750.686, 33014.12
1752.615, 33080.60
1754.543, 33152.28
1756.472, 33243.96
1758.400, 33354.81
1760.329, 33480.52
1762.257, 33636.15
1764.186, 33756.82
1766.114, 33792.02
1768.043, 33837.11
1769.971, 33968.13
1771.900, 34116.64
1773.828, 34174.95
1775.756, 34160.21
1777.685, 34216.20
1779.613, 34374.15
1781.542, 34503.34
1783.470, 34551.40
1785.399, 34611.42
1787.327, 34747.36
1789.256, 34904.49
1791.184, 35031.78
1793.113, 35130.20
1795.041, 35197.22
1796.970, 35221.25
1798.898, 35276.28
1800.827, 35388.47
1802.755, 35501.77
1804.683, 35601.68
1806.612, 35689.17
1808.540, 35755.58
1810.469, 35817.50
1812.397, 35916.68
1814.326, 36057.36
1816.254, 36179.32
1818.183, 36255.99
1820.111, 36353.61
1822.040, 36522.85
1823.968, 36678.69
1825.897, 36759.12
1827.825, 36793.36
1829.754, 36823.09
1831.682, 36851.70
1833.610, 36913.68
1835.539, 37029.84
1837.467, 37133.86
1839.396, 37189.62
1841.324, 37263.84
1843.253, 37411.11
1845.181, 37567.36
1847.110, 37661.10
1849.038, 37703.38
1850.967, 37741.54
1852.895, 37759.34
1854.824, 37824.55
1856.752, 37959.41
1858.681, 38107.09
1860.609, 38285.84
1862.537, 38437.52
1864.466, 38520.69
1866.394, 38553.45
1868.323, 38552.60
1870.251, 38517.84
1872.180, 38547.26
1874.108, 38683.68
1876.037, 38802.18
1877.965, 38873.85
1879.894, 38958.10
1881.822, 39070.11
1883.751, 39202.00
1885.679, 39368.58
1887.608, 39542.30
1889.536, 39633.24
1891.464, 39633.17
1893.393, 39671.14
1895.321, 39772.05
1897.250, 39858.13
1899.178, 39908.59
1901.107, 39948.66
1903.035, 39971.88
1904.964, 40009.88
1906.892, 40108.02
1908.821, 40245.41
1910.749, 40358.61
1912.678, 40446.27
1914.606, 40528.10
1916.535, 40598.22
1918.463, 40680.86
1920.391, 40795.35
1922.320, 40904.90
1924.248, 40992.27
1926.177, 41063.64
1928.105, 41110.73
1930.034, 41149.24
1931.962, 41253.35
1933.891, 41446.31
1935.819, 41576.10
1937.748, 41570.57
1939.676, 41599.90
1941.605, 41701.09
1943.533, 41819.10
1945.462, 41947.11
1947.390, 42062.38
1949.318, 42128.49
1951.247, 42162.75
1953.175, 42232.24
1955.104, 42349.96
1957.032, 42450.85
1958.961, 42516.84
1960.889, 42600.80
1962.818, 42745.73
1964.746, 42857.95
1966.675, 42860.95
1968.603, 42851.30
1970.532, 42917.70
1972.460, 43036.89
1974.389, 43164.13
1976.317, 43297.56
1978.245, 43397.17
1980.174, 43455.98
1982.102, 43492.88
1984.031, 43472.69
1985.959, 43500.21
1987.888, 43683.79
1989.816, 43859.96
1991.745, 43899.86
1993.673, 43866.93
1995.602, 43842.51
1997.530, 43835.02
1999.459, 43902.26
2001.387, 44089.02
2003.316, 44222.25
2005.244, 44215.16
2007.172, 44280.95
2009.101, 44532.91
2011.029, 44752.57
2012.958, 44810.80
2014.886, 44799.86
2016.815, 44783.97
2018.743, 44780.93
2020.672, 44861.57
2022.600, 45027.31
2024.529, 45149.48
2026.457, 45224.68
2028.386, 45262.00
2030.314, 45234.33
2032.243, 45240.52
2034.171, 45336.83
2036.099, 45449.27
2038.028, 45528.96
2039.956, 45596.56
2041.885, 45684.28
2043.813, 45779.72
2045.742, 45839.91
2047.670, 45863.65
2049.599, 45894.46
2051.527, 45930.73
2053.456, 45993.55
2055.384, 46095.80
2057.313, 46213.38
2059.241, 46355.78
2061.169, 46486.91
2063.098, 46553.16
2065.027, 46606.42
2066.955, 46740.17
2068.884, 46915.98
2070.812, 46974.27
2072.740, 46915.05
2074.669, 46897.66
2076.597, 46945.84
2078.526, 46995.07
2080.454, 47039.08
2082.383, 47087.32
2084.311, 47160.03
2086.240, 47221.49
2088.168, 47215.64
2090.097, 47212.27
2092.025, 47310.65
2093.954, 47462.69
2095.882, 47542.00
2097.811, 47546.80
2099.739, 47573.25
2101.667, 47647.18
2103.596, 47689.98
2105.524, 47673.75
2107.453, 47682.41
2109.381, 47734.00
2111.310, 47808.16
2113.238, 47926.34
2115.167, 48026.28
2117.095, 48028.00
2119.024, 47998.32
2120.952, 48062.99
2122.881, 48182.98
2124.809, 48196.39
2126.738, 48099.91
2128.666, 48105.67
2130.594, 48279.06
2132.523, 48412.01
2134.451, 48450.94
2136.380, 48491.14
2138.308, 48572.14
2140.237, 48633.82
2142.165, 48596.14
2144.094, 48566.20
2146.022, 48667.82
2147.951, 48830.38
2149.879, 48927.69
2151.808, 48966.80
2153.736, 48987.49
2155.665, 48991.95
2157.593, 48993.39
2159.521, 48990.77
2161.450, 49019.67
2163.378, 49114.73
2165.307, 49194.89
2167.235, 49218.79
2169.164, 49243.80
2171.092, 49269.99
2173.021, 49331.17
2174.949, 49503.57
2176.878, 49697.31
2178.806, 49746.39
2180.735, 49687.59
2182.663, 49694.98
2184.592, 49769.52
2186.520, 49849.71
2188.448, 49935.60
2190.377, 50002.32
2192.305, 50043.79
2194.234, 50068.00
2196.162, 50079.84
2198.091, 50074.57
2200.019, 50017.48
2201.948, 49993.29
2203.876, 50092.26
2205.805, 50226.98
2207.733, 50280.46
2209.662, 50301.55
2211.590, 50404.72
2213.519, 50571.27
2215.447, 50699.79
2217.375, 50786.96
2219.304, 50801.62
2221.232, 50732.84
2223.161, 50667.23
2225.089, 50617.38
2227.018, 50600.78
2228.946, 50640.42
2230.875, 50693.76
2232.803, 50747.13
2234.732, 50797.03
2236.660, 50836.00
2238.589, 50866.32
2240.517, 50901.08
2242.446, 50925.44
2244.374, 50894.98
2246.302, 50834.38
2248.231, 50867.61
2250.159, 50991.44
2252.088, 51058.47
2254.016, 51052.65
2255.945, 51080.27
2257.873, 51148.62
2259.802, 51242.26
2261.730, 51401.91
2263.659, 51498.61
2265.587, 51451.89
2267.516, 51398.69
2269.444, 51425.29
2271.373, 51456.33
2273.301, 51435.38
2275.229, 51399.95
2277.158, 51380.93
2279.086, 51380.07
2281.015, 51393.28
2282.943, 51420.57
2284.872, 51491.90
2286.800, 51599.31
2288.729, 51639.74
2290.657, 51589.52
2292.586, 51577.13
2294.514, 51665.62
2296.443, 51714.49
2298.371, 51702.82
2300.300, 51684.28
2302.228, 51612.25
2304.156, 51608.39
2306.085, 51766.41
2308.013, 51919.64
2309.942, 51972.80
2311.870, 51966.95
2313.799, 51914.51
2315.727, 51856.25
2317.656, 51860.54
2319.584, 51906.80
2321.513, 51923.86
2323.441, 51920.45
2325.370, 51967.95
2327.298, 52065.90
2329.227, 52099.77
2331.155, 52050.67
2333.083, 52044.57
2335.012, 52108.68
2336.940, 52136.54
2338.869, 52097.82
2340.797, 52058.21
2342.726, 52025.89
2344.654, 52024.54
2346.583, 52100.82
2348.511, 52170.11
2350.440, 52194.43
2352.368, 52191.39
2354.297, 52126.63
2356.225, 52075.20
2358.154, 52113.16
2360.082, 52206.55
2362.010, 52338.50
2363.939, 52470.03
2365.867, 52500.39
2367.796, 52442.98
2369.724, 52391.05
2371.653, 52350.63
2373.581, 52347.58
2375.510, 52408.54
2377.438, 52407.51
2379.367, 52330.62
2381.295, 52255.28
2383.224, 52175.65
2385.152, 52146.76
2387.081, 52192.05
2389.009, 52249.15
2390.938, 52316.66
2392.866, 52354.35
2394.794, 52345.71
2396.723, 52306.51
2398.651, 52199.08
2400.580, 52129.28
2402.508, 52208.84
2404.437, 52340.33
2406.365, 52443.46
2408.294, 52522.45
2410.222, 52584.95
2412.151, 52619.26
2414.079, 52576.83
2416.008, 52486.23
2417.936, 52496.99
2419.865, 52601.11
2421.793, 52630.32
2423.721, 52586.66
2425.650, 52541.48
2427.578, 52497.89
2429.507, 52487.34
2431.435, 52523.86
2433.364, 52539.68
2435.292, 52502.89
2437.221, 52493.22
2439.149, 52545.48
2441.078, 52580.09
2443.006, 52583.92
2444.935, 52566.98
2446.863, 52520.56
2448.792, 52471.82
2450.720, 52421.69
2452.648, 52391.73
2454.577, 52416.57
2456.505, 52442.54
2458.434, 52433.55
2460.362, 52403.26
2462.291, 52335.11
2464.219, 52275.26
2466.148, 52305.51
2468.076, 52363.98
2470.005, 52354.09
2471.933, 52302.60
2473.862, 52248.09
2475.790, 52202.84
2477.719, 52215.16
2479.647, 52274.25
2481.575, 52292.99
2483.504, 52270.52
2485.432, 52223.49
2487.361, 52150.66
2489.289, 52124.38
2491.218, 52145.66
2493.146, 52239.38
2495.075, 52450.68
2497.003, 52522.05
2498.932, 52304.75
2500.860, 52182.88
2502.789, 52213.76
2504.717, 52225.94
2506.646, 52201.09
2508.574, 52163.51
2510.502, 52113.08
2512.431, 52071.54
2514.359, 52070.15
2516.288, 52039.38
2518.216, 51894.77
2520.145, 51799.39
2522.073, 51878.89
2524.002, 51945.16
2525.930, 51895.87
2527.859, 51826.48
2529.787, 51768.29
2531.716, 51747.25
2533.644, 51812.34
2535.573, 51889.27
2537.501, 51923.41
2539.429, 51914.28
2541.358, 51818.11
2543.286, 51712.29
2545.215, 51726.05
2547.143, 51782.53
2549.072, 51759.84
2551.000, 51705.38
2552.929, 51715.92
2554.857, 51759.47
2556.786, 51747.77
2558.714, 51696.55
2560.643, 51653.48
2562.571, 51620.15
2564.500, 51603.77
2566.428, 51605.14
2568.356, 51641.98
2570.285, 51709.23
2572.213, 51758.27
2574.142, 51786.48
2576.070, 51781.88
2577.999, 51742.13
2579.927, 51702.73
2581.856, 51667.98
2583.784, 51604.88
2585.713, 51512.60
2587.641, 51440.97
2589.570, 51387.47
2591.498, 51395.56
2593.427, 51505.32
2595.355, 51529.50
2597.283, 51431.70
2599.212, 51368.64
2601.140, 51369.80
2603.069, 51356.55
2604.997, 51306.95
2606.926, 51282.81
2608.854, 51300.83
2610.783, 51336.98
2612.711, 51389.37
2614.640, 51439.39
2616.568, 51487.43
2618.497, 51493.48
2620.425, 51436.07
2622.354, 51363.12
2624.282, 51298.04
2626.210, 51226.16
2628.139, 51140.45
2630.067, 51067.84
2631.996, 50998.70
2633.924, 50968.84
2635.853, 51023.50
2637.781, 51035.93
2639.710, 50903.25
2641.638, 50793.82
2643.567, 50822.11
2645.495, 50822.12
2647.424, 50720.05
2649.352, 50614.90
2651.281, 50532.70
2653.209, 50483.60
2655.137, 50503.36
2657.066, 50509.02
2658.994, 50437.45
2660.923, 50366.10
2662.851, 50322.58
2664.780, 50307.20
2666.708, 50348.55
2668.637, 50372.91
2670.565, 50310.83
2672.494, 50249.41
2674.422, 50254.73
2676.351, 50256.48
2678.279, 50201.20
2680.208, 50141.64
2682.136, 50107.78
2684.064, 50078.90
2685.993, 50048.95
2687.921, 50013.75
2689.850, 49976.32
2691.778, 49933.14
2693.707, 49875.59
2695.635, 49828.66
2697.564, 49822.01
2699.492, 49812.50
2701.421, 49730.75
2703.349, 49677.04
2705.278, 49749.86
2707.206, 49825.98
2709.135, 49823.99
2711.063, 49782.70
2712.991, 49702.74
2714.920, 49633.03
2716.848, 49613.15
2718.777, 49614.34
2720.705, 49652.75
2722.634, 49660.44
2724.562, 49553.73
2726.491, 49451.80
2728.419, 49446.88
2730.348, 49437.39
2732.276, 49338.03
2734.205, 49248.17
2736.133, 49236.19
2738.062, 49246.06
2739.990, 49284.34
2741.918, 49271.06
2743.847, 49081.21
2745.775, 48947.10
2747.704, 49065.13
2749.632, 49174.83
2751.561, 49139.00
2753.489, 49062.37
2755.418, 48987.66
2757.346, 48900.61
2759.275, 48766.41
2761.203, 48668.68
2763.132, 48655.43
2765.060, 48669.73
2766.989, 48697.69
2768.917, 48730.54
2770.845, 48806.79
2772.774, 48794.64
2774.702, 48561.90
2776.631, 48380.68
2778.559, 48394.82
2780.488, 48395.54
2782.416, 48320.50
2784.345, 48259.13
2786.273, 48222.23
2788.202, 48225.55
2790.130, 48296.80
2792.059, 48348.54
2793.987, 48370.53
2795.916, 48330.30
2797.844, 48192.21
2799.772, 48103.88
2801.701, 48122.25
2803.629, 48104.18
2805.558, 48018.26
2807.486, 47917.02
2809.415, 47793.88
2811.343, 47687.55
2813.272, 47590.96
2815.200, 47573.76
2817.129, 47674.39
2819.057, 47658.75
2820.986, 47469.29
2822.914, 47349.11
2824.843, 47304.44
2826.771, 47298.57
2828.699, 47329.12
2830.628, 47290.57
2832.556, 47173.39
2834.485, 47127.44
2836.413, 47147.89
2838.342, 47104.90
2840.270, 47008.84
2842.199, 46922.55
2844.127, 46846.48
2846.056, 46771.89
2847.984, 46703.05
2849.913, 46658.90
2851.841, 46627.79
2853.770, 46573.58
2855.698, 46503.61
2857.626, 46416.25
2859.555, 46332.88
2861.483, 46293.52
2863.412, 46276.20
2865.340, 46245.68
2867.269, 46218.11
2869.197, 46224.80
2871.126, 46226.30
2873.054, 46191.23
2874.983, 46125.49
2876.911, 46014.94
2878.840, 45907.51
2880.768, 45832.29
2882.697, 45774.89
2884.625, 45748.79
2886.553, 45703.84
2888.482, 45567.38
2890.410, 45484.46
2892.339, 45537.59
2894.267, 45554.99
2896.196, 45437.11
2898.124, 45343.32
2900.053, 45330.08
2901.981, 45301.47
2903.910, 45247.83
2905.838, 45188.88
2907.767, 45124.79
2909.695, 45080.43
2911.624, 45067.81
2913.552, 45030.19
2915.480, 44962.39
2917.409, 44932.66
2919.337, 44941.10
2921.266, 44904.23
2923.194, 44825.41
2925.123, 44815.37
2927.051, 44847.19
2928.980, 44702.54
2930.908, 44472.29
2932.837, 44432.80
2934.765, 44493.73
2936.694, 44458.08
2938.622, 44387.04
2940.551, 44407.77
2942.479, 44426.77
2944.407, 44329.57
2946.336, 44199.45
2948.264, 44107.33
2950.193, 44028.00
2952.121, 43941.69
2954.050, 43866.80
2955.978, 43828.34
2957.907, 43777.51
2959.835, 43658.52
2961.764, 43587.25
2963.692, 43620.75
2965.621, 43608.03
2967.549, 43499.85
2969.478, 43393.70
2971.406, 43308.11
2973.334, 43217.07
2975.263, 43114.58
2977.191, 43055.08
2979.120, 43041.80
2981.048, 43035.59
2982.977, 43032.13
2984.905, 42937.30
2986.834, 42781.57
2988.762, 42732.52
2990.691, 42742.93
2992.619, 42699.37
2994.548, 42621.06
2996.476, 42512.88
2998.405, 42421.09
3000.333, 42443.53
3002.261, 42457.79
3004.190, 42332.25
3006.118, 42198.03
3008.047, 42131.93
3009.975, 42103.74
3011.904, 42123.45
3013.832, 42124.58
3015.761, 42068.95
3017.689, 42012.78
3019.618, 41956.94
3021.546, 41930.45
3023.475, 41946.25
3025.403, 41895.72
3027.332, 41750.48
3029.260, 41649.21
3031.188, 41593.43
3033.117, 41543.07
3035.045, 41493.34
3036.974, 41402.85
3038.902, 41302.11
3040.831, 41300.45
3042.759, 41317.04
3044.688, 41196.38
3046.616, 41042.14
3048.545, 40959.34
3050.473, 40895.32
3052.402, 40805.65
3054.330, 40741.30
3056.259, 40725.96
3058.187, 40738.08
3060.115, 40802.95
3062.044, 40807.05
3063.972, 40692.23
3065.901, 40616.97
3067.829, 40599.64
3069.758, 40528.97
3071.686, 40387.36
3073.615, 40344.07
3075.543, 40385.93
3077.472, 40303.03
3079.400, 40141.59
3081.329, 40022.91
3083.257, 39931.67
3085.186, 39846.18
3087.114, 39760.62
3089.042, 39665.63
3090.971, 39572.57
3092.899, 39466.40
3094.828, 39405.74
3096.756, 39481.99
3098.685, 39477.15
3100.613, 39286.48
3102.542, 39157.07
3104.470, 39191.77
3106.399, 39179.85
3108.327, 39112.52
3110.256, 39082.18
3112.184, 39082.59
3114.113, 38999.68
3116.041, 38862.14
3117.969, 38810.29
3119.898, 38791.43
3121.826, 38705.74
3123.755, 38600.33
3125.683, 38522.41
3127.612, 38457.48
3129.540, 38393.90
3131.469, 38335.05
3133.397, 38289.36
3135.326, 38226.04
3137.254, 38129.18
3139.183, 38028.01
3141.111, 37922.70
3143.040, 37864.79
3144.968, 37868.97
3146.896, 37801.93
3148.825, 37683.01
3150.753, 37658.19
3152.682, 37664.61
3154.610, 37534.16
3156.539, 37375.30
3158.467, 37338.88
3160.396, 37340.61
3162.324, 37365.68
3164.253, 37333.96
3166.181, 37140.07
3168.110, 37023.34
3170.038, 37066.77
3171.967, 37036.62
3173.895, 36860.03
3175.823, 36800.48
3177.752, 36872.06
3179.680, 36865.53
3181.609, 36792.45
3183.537, 36673.99
3185.466, 36557.66
3187.394, 36560.77
3189.323, 36586.15
3191.251, 36524.44
3193.180, 36454.75
3195.108, 36445.48
3197.037, 36402.36
3198.965, 36282.31
3200.894, 36182.25
3202.822, 36129.16
3204.750, 36052.73
3206.679, 35936.43
3208.607, 35929.07
3210.536, 35990.60
3212.464, 35922.81
3214.393, 35788.34
3216.321, 35722.98
3218.250, 35673.58
3220.178, 35586.56
3222.107, 35485.64
3224.035, 35355.65
3225.964, 35269.24
3227.892, 35265.10
3229.821, 35230.57
3231.749, 35135.31
3233.677, 35046.58
3235.606, 34965.80
3237.534, 34965.39
3239.463, 35004.10
3241.391, 34906.73
3243.320, 34762.23
3245.248, 34764.84
3247.177, 34753.24
3249.105, 34536.90
3251.034, 34353.00
3252.962, 34365.08
3254.891, 34355.52
3256.819, 34271.20
3258.748, 34220.34
3260.676, 34224.28
3262.604, 34207.29
3264.533, 34168.69
3266.461, 34101.97
3268.390, 34029.27
3270.318, 34013.06
3272.247, 33996.50
3274.175, 33895.15
3276.104, 33796.65
3278.032, 33769.14
3279.961, 33719.55
3281.889, 33610.32
3283.818, 33494.42
3285.746, 33370.32
3287.675, 33389.54
3289.603, 33521.02
3291.531, 33389.20
3293.460, 33128.92
3295.388, 33064.84
3297.317, 33063.71
3299.245, 33009.00
3301.174, 32935.81
3303.102, 32857.82
3305.031, 32777.59
3306.959, 32655.25
3308.888, 32646.27
3310.816, 32763.41
3312.745, 32691.99
3314.673, 32470.63
3316.602, 32384.14
3318.530, 32364.84
3320.458, 32288.13
3322.387, 32203.20
3324.315, 32142.98
3326.244, 32102.72
3328.172, 32102.08
3330.101, 32047.47
3332.029, 31900.27
3333.958, 31840.69
3335.886, 31879.53
3337.815, 31817.44
3339.743, 31705.80
3341.672, 31688.36
3343.600, 31695.26
3345.529, 31635.26
3347.457, 31566.37
3349.385, 31537.45
3351.314, 31468.05
3353.242, 31306.93
3355.171, 31210.08
3357.099, 31187.06
3359.028, 31104.48
3360.956, 30983.49
3362.885, 30929.50
3364.813, 30905.42
3366.742, 30858.84
3368.670, 30814.29
3370.599, 30817.26
3372.527, 30766.14
3374.456, 30611.79
3376.384, 30510.68
3378.313, 30490.14
3380.241, 30512.30
3382.169, 30552.37
3384.098, 30500.21
3386.026, 30407.36
3387.955, 30341.70
3389.883, 30286.58
3391.812, 30228.42
3393.740, 30184.63
3395.669, 30214.76
3397.597, 30112.95
3399.526, 29873.83
3401.454, 29756.88
3403.383, 29735.60
3405.311, 29659.80
3407.240, 29588.97
3409.168, 29629.05
3411.096, 29651.72
3413.025, 29545.48
3414.953, 29453.69
3416.882, 29407.95
3418.810, 29365.12
3420.739, 29321.65
3422.667, 29264.95
3424.596, 29198.12
3426.524, 29119.22
3428.453, 29047.06
3430.381, 29013.62
3432.310, 28976.80
3434.238, 28913.00
3436.167, 28865.23
3438.095, 28851.43
3440.023, 28787.46
3441.952, 28684.55
3443.880, 28625.30
3445.809, 28585.86
3447.737, 28520.49
3449.666, 28455.09
3451.594, 28419.02
3453.523, 28362.25
3455.451, 28258.77
3457.380, 28205.46
3459.308, 28210.72
3461.237, 28131.82
3463.165, 28005.49
3465.094, 27966.72
3467.022, 27927.11
3468.950, 27768.51
3470.879, 27640.31
3472.807, 27602.90
3474.736, 27582.91
3476.664, 27581.10
3478.593, 27484.06
3480.521, 27331.77
3482.450, 27320.03
3484.378, 27338.77
3486.307, 27222.93
3488.235, 27115.76
3490.164, 27088.77
3492.092, 27082.61
3494.021, 27098.46
3495.949, 27060.36
3497.877, 26983.71
3499.806, 26964.53
3501.734, 26960.80
3503.663, 26909.48
3505.591, 26828.53
3507.520, 26691.02
3509.448, 26610.90
3511.377, 26622.89
3513.305, 26532.63
3515.234, 26358.57
3517.162, 26366.82
3519.091, 26439.64
3521.019, 26378.20
3522.948, 26287.03
3524.876, 26221.54
3526.804, 26164.68
3528.733, 26116.17
3530.661, 26042.32
3532.590, 25950.71
3534.518, 25934.12
3536.447, 25926.41
3538.375, 25802.74
3540.304, 25691.94
3542.232, 25678.09
3544.161, 25669.95
3546.089, 25648.28
3548.018, 25639.29
3549.946, 25636.18
3551.875, 25570.76
3553.803, 25497.23
3555.731, 25498.16
3557.660, 25495.93
3559.588, 25450.70
3561.517, 25408.12
3563.445, 25370.63
3565.374, 25390.14
3567.302, 25441.14
3569.231, 25431.58
3571.159, 25410.53
3573.088, 25411.68
3575.016, 25456.99
3576.945, 25589.09
3578.873, 25682.82
3580.802, 25732.51
3582.730, 25798.43
3584.658, 25824.17
3586.587, 25639.83
3588.515, 25397.82
3590.444, 25184.81
3592.372, 25006.85
3594.301, 24871.78
3596.229, 24710.58
3598.158, 24539.99
3600.086, 24513.55
3602.015, 24510.03
3603.943, 24324.65
3605.872, 24143.95
3607.800, 24072.31
3609.729, 24006.55
3611.657, 23936.47
3613.585, 23852.70
3615.514, 23770.28
3617.442, 23743.84
3619.371, 23724.74
3621.299, 23661.15
3623.228, 23622.49
3625.156, 23631.33
3627.085, 23566.31
3629.013, 23433.10
3630.942, 23351.18
3632.870, 23285.69
3634.799, 23166.25
3636.727, 23098.63
3638.656, 23158.25
3640.584, 23172.74
3642.512, 23118.66
3644.441, 23036.72
3646.369, 22949.26
3648.298, 22903.19
3650.226, 22876.29
3652.155, 22880.65
3654.083, 22826.12
3656.012, 22685.31
3657.940, 22601.39
3659.869, 22569.65
3661.797, 22599.63
3663.726, 22606.59
3665.654, 22482.12
3667.583, 22367.48
3669.511, 22293.92
3671.439, 22285.45
3673.368, 22323.15
3675.296, 22276.04
3677.225, 22199.10
3679.153, 22155.76
3681.082, 22117.12
3683.010, 22078.85
3684.939, 22011.48
3686.867, 21916.91
3688.796, 21909.97
3690.724, 21919.03
3692.653, 21818.63
3694.581, 21727.47
3696.510, 21706.54
3698.438, 21657.37
3700.366, 21566.41
3702.295, 21528.88
3704.223, 21521.71
3706.152, 21518.35
3708.080, 21492.28
3710.009, 21424.71
3711.937, 21342.23
3713.866, 21244.34
3715.794, 21228.99
3717.723, 21260.29
3719.651, 21304.84
3721.580, 21288.87
3723.508, 21154.37
3725.437, 20997.50
3727.365, 20826.45
3729.293, 20819.56
3731.222, 20882.12
3733.150, 20822.94
3735.079, 20735.70
3737.007, 20666.81
3738.936, 20616.14
3740.864, 20583.82
3742.793, 20577.84
3744.721, 20573.96
3746.650, 20512.31
3748.578, 20461.84
3750.507, 20486.81
3752.435, 20428.78
3754.364, 20258.15
3756.292, 20215.59
3758.220, 20226.99
3760.149, 20161.17
3762.077, 20084.63
3764.006, 20026.51
3765.934, 19990.06
3767.863, 19976.30
3769.791, 19945.44
3771.720, 19901.51
3773.648, 19831.09
3775.577, 19790.49
3777.505, 19810.80
3779.434, 19801.14
3781.362, 19752.14
3783.291, 19649.60
3785.219, 19566.09
3787.147, 19642.95
3789.076, 19631.70
3791.004, 19439.26
3792.933, 19392.83
3794.861, 19469.03
3796.790, 19447.62
3798.718, 19389.32
3800.647, 19337.52
3802.575, 19303.67
3804.504, 19293.16
3806.432, 19174.94
3808.361, 19009.05
3810.289, 18998.39
3812.218, 19000.72
3814.146, 18910.96
3816.074, 18836.35
3818.003, 18791.26
3819.931, 18801.04
3821.860, 18818.65
3823.788, 18752.02
3825.717, 18673.81
3827.645, 18613.53
3829.574, 18555.71
3831.502, 18497.39
3833.431, 18422.89
3835.359, 18355.45
3837.288, 18329.71
3839.216, 18291.82
3841.145, 18220.59
3843.073, 18190.36
3845.001, 18185.42
3846.930, 18163.36
3848.858, 18127.86
3850.787, 18080.19
3852.715, 18018.06
3854.644, 17942.79
3856.572, 17943.95
3858.501, 17966.47
3860.429, 17938.29
3862.358, 17905.05
3864.286, 17880.97
3866.215, 17858.98
3868.143, 17838.62
3870.072, 17833.67
3872.000, 17793.59
3873.928, 17643.07
3875.857, 17577.53
3877.785, 17641.25
3879.714, 17568.66
3881.642, 17458.03
3883.571, 17499.58
3885.499, 17504.88
3887.428, 17393.38
3889.356, 17351.07
3891.285, 17370.30
3893.213, 17345.75
3895.142, 17297.73
3897.070, 17214.34
3898.999, 17184.06
3900.927, 17216.87
3902.855, 17208.01
3904.784, 17163.76
3906.712, 17053.85
3908.641, 16993.55
3910.569, 17040.42
3912.498, 17015.63
3914.426, 16945.22
3916.355, 16930.97
3918.283, 16914.27
3920.212, 16834.69
3922.140, 16826.04
3924.069, 16880.36
3925.997, 16865.74
3927.926, 16799.25
3929.854, 16652.71
3931.782, 16570.17
3933.711, 16630.62
3935.639, 16639.33
3937.568, 16584.44
3939.496, 16531.08
3941.425, 16521.62
3943.353, 16528.11
3945.282, 16487.99
3947.210, 16428.62
3949.139, 16445.14
3951.067, 16449.65
3952.996, 16353.01
3954.924, 16281.44
3956.853, 16263.72
3958.781, 16251.47
3960.709, 16211.21
3962.638, 16135.54
3964.566, 16108.48
3966.495, 16121.05
3968.423, 16103.35
3970.352, 16067.99
3972.280, 16035.82
3974.209, 16023.74
3976.137, 15983.50
3978.066, 15940.87
3979.994, 15914.00
3981.923, 15842.95
3983.851, 15798.26
3985.780, 15810.89
3987.708, 15789.81
3989.636, 15724.59
3991.565, 15709.33
3993.493, 15727.51
3995.422, 15713.72
3997.350, 15666.38
3999.279, 15634.58
4001.207, 15612.27
4003.136, 15560.78
4005.064, 15541.58
4006.993, 15524.03
4008.921, 15459.88
4010.850, 15416.35
4012.778, 15403.10
4014.707, 15330.18
4016.635, 15302.50
4018.563, 15376.86
4020.492, 15370.27
4022.420, 15291.01
4024.349, 15213.02
4026.277, 15136.64
4028.206, 15132.57
4030.134, 15185.35
4032.063, 15181.04
4033.991, 15087.36
4035.920, 15037.09
4037.848, 15047.21
4039.777, 15051.16
4041.705, 15027.23
4043.634, 14963.43
4045.562, 14904.12
4047.490, 14848.76
4049.419, 14786.69
4051.347, 14773.97
4053.276, 14768.79
4055.204, 14764.35
4057.133, 14749.13
4059.061, 14714.47
4060.990, 14681.84
4062.918, 14655.12
4064.847, 14622.05
4066.775, 14569.39
4068.704, 14531.37
4070.632, 14501.59
4072.561, 14466.46
4074.489, 14415.19
4076.417, 14358.35
4078.346, 14362.56
4080.274, 14358.50
4082.203, 14261.81
4084.131, 14197.71
4086.060, 14198.14
4087.988, 14155.38
4089.917, 14109.11
4091.845, 14108.07
4093.774, 14115.57
4095.702, 14104.21
4097.631, 14020.57
4099.559, 13970.98
4101.488, 14010.83
4103.416, 13971.74
4105.345, 13877.32
4107.273, 13872.94
4109.202, 13869.59
4111.130, 13813.94
4113.059, 13783.49
4114.987, 13781.60
4116.916, 13789.30
4118.844, 13765.13
4120.772, 13697.92
4122.701, 13679.49
4124.629, 13643.64
4126.558, 13615.32
4128.486, 13597.17
4130.415, 13530.11
4132.343, 13490.53
4134.271, 13479.25
4136.200, 13506.32
4138.128, 13506.80
4140.057, 13437.20
4141.985, 13391.03
4143.914, 13357.79
4145.842, 13294.95
4147.771, 13261.89
4149.699, 13282.21
4151.628, 13255.92
4153.556, 13195.93
4155.485, 13153.87
4157.413, 13103.31
4159.342, 13029.08
4161.270, 12984.47
4163.199, 12967.73
4165.127, 12986.08
4167.056, 13000.61
4168.984, 12973.77
4170.913, 12964.16
4172.841, 12965.05
4174.770, 12923.12
4176.698, 12868.54
4178.626, 12814.26
4180.555, 12787.06
4182.483, 12778.40
4184.412, 12773.07
4186.340, 12742.66
4188.269, 12659.63
4190.197, 12591.82
4192.125, 12554.77
4194.054, 12611.58
4195.982, 12615.39
4197.911, 12490.19
4199.839, 12449.50
4201.768, 12464.82
4203.696, 12474.59
4205.625, 12439.04
4207.553, 12344.31
4209.482, 12286.95
4211.410, 12252.38
4213.339, 12201.74
4215.267, 12164.18
4217.196, 12146.29
4219.124, 12197.60
4221.053, 12238.83
4222.981, 12141.16
4224.910, 12049.92
4226.838, 11993.61
4228.767, 11957.10
4230.695, 11937.45
4232.624, 11940.22
4234.552, 11944.24
4236.480, 11944.04
4238.409, 11907.75
4240.337, 11853.43
4242.266, 11790.46
4244.194, 11720.07
4246.123, 11650.47
4248.051, 11620.19
4249.979, 11605.75
4251.908, 11598.58
4253.836, 11588.47
4255.765, 11562.20
4257.693, 11450.52
4259.622, 11400.33
4261.550, 11469.70
4263.479, 11488.12
4265.407, 11469.05
4267.336, 11436.79
4269.264, 11384.66
4271.193, 11311.76
4273.121, 11295.26
4275.050, 11281.59
4276.978, 11209.04
4278.907, 11174.34
4280.835, 11174.81
4282.764, 11061.29
4284.692, 10968.58
4286.621, 10984.49
4288.549, 11002.53
4290.478, 11006.95
4292.406, 10973.98
4294.334, 10933.93
4296.263, 10896.74
4298.191, 10860.69
4300.120, 10821.49
4302.048, 10762.79
4303.977, 10737.75
4305.905, 10752.54
4307.833, 10718.32
4309.762, 10696.16
4311.690, 10755.00
4313.619, 10731.66
4315.547, 10640.09
4317.476, 10602.26
4319.404, 10568.81
4321.333, 10513.86
4323.261, 10545.86
4325.190, 10598.99
4327.118, 10546.49
4329.047, 10470.67
4330.975, 10394.44
4332.904, 10360.62
4334.832, 10338.33
4336.761, 10297.44
4338.689, 10273.05
4340.618, 10265.35
4342.546, 10273.22
4344.475, 10255.00
4346.403, 10188.33
4348.332, 10157.56
4350.260, 10147.67
4352.188, 10141.31
4354.117, 10106.86
4356.045, 10044.68
4357.974, 10010.26
4359.902, 9979.525
4361.831, 9919.216
4363.759, 9894.250
4365.688, 9896.573
4367.616, 9914.144
4369.544, 9892.133
4371.473, 9799.545
4373.401, 9757.288
4375.330, 9738.713
4377.258, 9717.251
4379.187, 9686.670
4381.115, 9650.848
4383.044, 9652.609
4384.972, 9634.476
4386.901, 9555.061
4388.829, 9539.133
4390.758, 9551.872
4392.686, 9540.342
4394.615, 9496.645
4396.543, 9426.637
4398.472, 9412.295
4400.400, 9405.070
4402.329, 9374.933
4404.257, 9349.601
4406.186, 9324.411
4408.114, 9279.273
4410.042, 9244.755
4411.971, 9222.450
4413.899, 9140.186
4415.828, 9069.872
4417.756, 9077.133
4419.685, 9096.092
4421.613, 9104.618
4423.542, 9041.731
4425.470, 9013.627
4427.398, 9054.975
4429.327, 9043.331
4431.255, 8996.754
4433.184, 8911.084
4435.112, 8870.020
4437.041, 8866.166
4438.969, 8881.839
4440.898, 8861.904
4442.826, 8791.927
4444.755, 8776.549
4446.683, 8770.343
4448.612, 8733.900
4450.540, 8718.735
4452.469, 8713.477
4454.397, 8677.479
4456.326, 8628.340
4458.254, 8574.798
4460.183, 8564.593
4462.111, 8579.807
4464.040, 8633.988
4465.968, 8585.580
4467.896, 8488.551
4469.825, 8475.867
4471.753, 8475.119
4473.682, 8468.929
4475.610, 8425.354
4477.539, 8374.189
4479.467, 8330.754
4481.396, 8302.719
4483.324, 8289.050
4485.252, 8300.724
4487.181, 8280.982
4489.109, 8234.520
4491.038, 8245.879
4492.966, 8227.415
4494.895, 8129.203
4496.823, 8116.022
4498.752, 8125.606
4500.680, 8066.576
4502.609, 8028.960
4504.537, 8014.594
4506.466, 7992.886
4508.394, 7986.844
4510.323, 8002.766
4512.251, 7944.113
4514.180, 7891.194
4516.108, 7908.035
4518.037, 7897.856
4519.965, 7869.390
4521.894, 7863.900
4523.822, 7827.059
4525.750, 7761.003
4527.679, 7744.726
4529.607, 7726.777
4531.536, 7674.397
4533.464, 7630.714
4535.393, 7616.336
4537.321, 7676.382
4539.250, 7647.201
4541.178, 7556.353
4543.106, 7488.899
4545.035, 7497.235
4546.963, 7569.866
4548.892, 7539.875
4550.820, 7497.345
4552.749, 7499.663
4554.677, 7511.359
4556.606, 7507.302
4558.534, 7442.708
4560.463, 7409.251
4562.391, 7392.459
4564.320, 7298.579
4566.248, 7245.225
4568.177, 7253.040
4570.105, 7251.194
4572.034, 7254.717
4573.962, 7277.000
4575.891, 7263.491
4577.819, 7218.989
4579.748, 7131.404
4581.676, 7086.682
4583.604, 7076.116
4585.533, 7055.013
4587.461, 7053.434
4589.390, 7072.628
4591.318, 7088.696
4593.247, 7066.201
4595.175, 6988.310
4597.104, 6936.443
4599.032, 6901.025
4600.960, 6863.540
4602.889, 6882.306
4604.817, 6905.264
4606.746, 6803.771
4608.674, 6757.050
4610.603, 6780.258
4612.531, 6827.603
4614.460, 6843.095
4616.388, 6811.561
4618.317, 6793.545
4620.245, 6770.515
4622.174, 6725.042
4624.102, 6695.227
4626.031, 6670.360
4627.959, 6633.477
4629.888, 6626.649
4631.816, 6629.933
4633.745, 6580.995
4635.673, 6561.657
4637.602, 6572.378
4639.530, 6525.762
4641.458, 6493.882
4643.387, 6504.671
4645.315, 6511.724
4647.244, 6499.883
4649.172, 6459.586
4651.101, 6407.852
4653.029, 6374.699
4654.958, 6403.696
4656.886, 6412.403
4658.814, 6391.120
4660.743, 6315.759
4662.671, 6262.663
4664.600, 6239.792
4666.528, 6241.923
4668.457, 6240.682
4670.385, 6227.438
4672.314, 6180.563
4674.242, 6162.807
4676.171, 6215.655
4678.099, 6207.610
4680.028, 6175.874
4681.956, 6144.781
4683.885, 6119.094
4685.813, 6096.403
4687.742, 6075.822
4689.670, 6046.262
4691.599, 6015.575
4693.527, 6003.250
4695.456, 5983.059
4697.384, 5962.067
4699.313, 5992.014
4701.241, 6002.241
4703.169, 5980.391
4705.098, 5954.367
4707.026, 5901.963
4708.955, 5811.849
4710.883, 5818.776
4712.812, 5861.256
4714.740, 5907.707
4716.668, 5832.152
4718.597, 5741.950
4720.525, 5738.015
4722.454, 5718.855
4724.382, 5692.000
4726.311, 5667.965
4728.239, 5673.254
4730.168, 5682.301
4732.096, 5634.965
4734.025, 5613.969
4735.953, 5617.088
4737.882, 5611.254
4739.810, 5596.112
4741.739, 5573.829
4743.667, 5555.246
4745.596, 5523.198
4747.524, 5483.533
4749.453, 5515.483
4751.381, 5519.485
4753.310, 5452.146
4755.238, 5443.091
4757.167, 5448.918
4759.095, 5447.443
4761.023, 5385.708
4762.952, 5333.497
4764.880, 5351.036
4766.809, 5364.470
4768.737, 5356.907
4770.666, 5308.477
4772.594, 5287.352
4774.522, 5282.030
4776.451, 5277.028
4778.379, 5267.327
4780.308, 5251.037
4782.236, 5227.507
4784.165, 5182.156
4786.093, 5136.668
4788.022, 5135.187
4789.950, 5153.444
4791.879, 5170.249
4793.807, 5135.398
4795.736, 5113.262
4797.664, 5103.278
4799.593, 5051.374
4801.521, 5042.097
4803.450, 5069.726
4805.378, 5022.694
4807.307, 4991.509
4809.235, 4994.183
4811.164, 4987.862
4813.092, 4962.639
4815.021, 4921.810
4816.949, 4904.677
4818.877, 4896.670
4820.806, 4891.123
4822.734, 4849.140
4824.663, 4823.232
4826.591, 4828.216
4828.520, 4782.164
4830.448, 4764.293
4832.376, 4818.719
4834.305, 4808.792
4836.233, 4776.858
4838.162, 4745.761
4840.090, 4763.422
4842.019, 4770.624
4843.947, 4728.604
4845.876, 4670.742
4847.804, 4643.959
4849.733, 4674.851
4851.661, 4699.994
4853.590, 4705.484
4855.518, 4683.504
4857.447, 4637.055
4859.375, 4596.515
4861.304, 4581.724
4863.232, 4554.604
4865.161, 4546.289
4867.089, 4589.579
4869.018, 4573.755
4870.946, 4546.841
4872.875, 4547.421
4874.803, 4496.266
4876.731, 4448.413
4878.660, 4450.160
4880.588, 4470.920
4882.517, 4483.901
4884.445, 4470.086
4886.374, 4449.470
4888.302, 4433.101
4890.230, 4430.313
4892.159, 4402.710
4894.087, 4370.265
4896.016, 4346.143
4897.944, 4361.397
4899.873, 4355.979
4901.801, 4286.453
4903.730, 4299.144
4905.658, 4322.897
4907.587, 4300.142
4909.515, 4300.537
4911.444, 4289.823
4913.372, 4248.054
4915.301, 4206.636
4917.229, 4190.296
4919.158, 4220.314
4921.086, 4199.383
4923.015, 4161.319
4924.943, 4126.323
4926.872, 4161.510
4928.800, 4178.893
4930.729, 4132.998
4932.657, 4130.558
4934.585, 4135.715
4936.514, 4132.415
4938.442, 4105.925
4940.371, 4068.571
4942.299, 4029.527
4944.228, 4030.970
4946.156, 4046.585
4948.084, 4062.163
4950.013, 4052.173
4951.941, 4014.583
4953.870, 3962.071
4955.798, 3943.754
4957.727, 3940.729
4959.655, 3944.967
4961.584, 3952.990
4963.512, 3935.845
4965.441, 3906.116
4967.369, 3909.456
4969.298, 3898.114
4971.226, 3878.369
4973.155, 3876.886
4975.083, 3885.622
4977.012, 3882.546
4978.940, 3825.622
4980.869, 3808.097
4982.797, 3803.591
4984.726, 3765.284
4986.654, 3760.511
4988.583, 3765.117
4990.511, 3753.966
4992.439, 3734.391
4994.368, 3720.528
4996.296, 3726.389
4998.225, 3713.465
5000.153, 3690.707
5002.082, 3664.749
5004.010, 3664.825
5005.938, 3659.469
5007.867, 3638.567
5009.795, 3644.257
5011.724, 3654.664
5013.652, 3657.823
5015.581, 3632.024
5017.509, 3582.219
5019.438, 3534.417
5021.366, 3570.683
5023.295, 3569.630
5025.223, 3540.391
5027.152, 3537.212
5029.080, 3555.295
5031.009, 3562.181
5032.937, 3507.888
5034.866, 3494.487
5036.794, 3492.376
5038.723, 3464.492
5040.651, 3463.947
5042.580, 3480.198
5044.508, 3503.512
5046.437, 3492.579
5048.365, 3467.530
5050.293, 3440.212
5052.222, 3449.596
5054.150, 3445.942
5056.079, 3417.059
5058.007, 3366.985
5059.936, 3332.313
5061.864, 3322.344
5063.792, 3359.027
5065.721, 3344.374
5067.649, 3307.892
5069.578, 3307.280
5071.506, 3301.033
5073.435, 3285.713
5075.363, 3260.302
5077.292, 3275.709
5079.220, 3292.051
5081.149, 3285.432
5083.077, 3276.843
5085.006, 3254.871
5086.934, 3222.420
5088.863, 3206.529
5090.791, 3213.719
5092.720, 3227.722
5094.648, 3199.140
5096.577, 3169.795
5098.505, 3159.129
5100.434, 3189.754
5102.362, 3193.244
5104.291, 3179.534
5106.219, 3163.456
5108.147, 3117.024
5110.076, 3092.813
5112.004, 3112.762
5113.933, 3098.364
5115.861, 3086.597
5117.790, 3086.927
5119.718, 3100.439
5121.646, 3089.734
5123.575, 3067.051
5125.503, 3070.546
5127.432, 3052.148
5129.360, 3028.490
5131.289, 3019.518
5133.217, 3020.986
5135.146, 3024.726
5137.074, 3026.111
5139.003, 2998.848
5140.931, 2993.130
5142.860, 3010.983
5144.788, 2997.376
5146.717, 2991.141
5148.645, 2989.544
5150.574, 2972.453
5152.502, 2979.540
5154.431, 2975.992
5156.359, 2928.642
5158.288, 2871.865
5160.216, 2859.640
5162.145, 2901.309
5164.073, 2918.563
5166.001, 2887.263
5167.930, 2833.791
5169.858, 2846.313
5171.787, 2857.955
5173.715, 2858.447
5175.644, 2846.352
5177.572, 2830.178
5179.500, 2825.136
5181.429, 2838.937
5183.357, 2855.635
5185.286, 2846.646
5187.214, 2812.552
5189.143, 2781.114
5191.071, 2770.226
5193.000, 2776.661
5194.928, 2796.122
5196.857, 2784.240
5198.785, 2769.151
5200.714, 2773.159
5202.642, 2765.195
5204.571, 2743.010
5206.499, 2714.980
5208.428, 2717.166
5210.356, 2714.594
5212.285, 2703.336
5214.213, 2677.590
5216.142, 2695.504
5218.070, 2711.658
5219.999, 2696.485
5221.927, 2694.341
5223.855, 2687.833
5225.784, 2667.868
5227.712, 2604.354
5229.641, 2620.876
5231.569, 2665.715
5233.498, 2648.759
5235.426, 2641.853
5237.354, 2648.120
5239.283, 2661.708
5241.211, 2625.671
5243.140, 2615.409
5245.068, 2620.804
5246.997, 2559.043
5248.925, 2553.415
5250.854, 2567.362
5252.782, 2555.836
5254.711, 2597.205
5256.639, 2602.910
5258.568, 2553.896
5260.496, 2505.661
5262.425, 2515.080
5264.353, 2537.469
5266.282, 2480.576
5268.210, 2476.612
5270.139, 2492.433
5272.067, 2502.789
5273.996, 2478.190
5275.924, 2478.281
5277.853, 2492.145
5279.781, 2457.535
5281.709, 2439.650
5283.638, 2444.370
5285.566, 2475.141
5287.495, 2472.782
5289.423, 2452.028
5291.352, 2428.374
5293.280, 2435.627
5295.208, 2436.783
5297.137, 2427.768
5299.065, 2408.533
5300.994, 2392.457
5302.922, 2382.451
5304.851, 2377.013
5306.779, 2359.232
5308.708, 2371.673
5310.636, 2385.539
5312.565, 2354.882
5314.493, 2351.574
5316.422, 2347.413
5318.350, 2328.843
5320.279, 2310.353
5322.207, 2320.243
5324.136, 2334.938
5326.064, 2313.329
5327.993, 2316.594
5329.921, 2320.652
5331.850, 2309.536
5333.778, 2269.583
5335.707, 2271.213
5337.635, 2289.549
5339.563, 2259.172
5341.492, 2281.002
5343.420, 2277.424
5345.349, 2225.800
5347.277, 2240.286
5349.206, 2253.599
5351.134, 2253.813
5353.063, 2241.598
5354.991, 2227.707
5356.919, 2221.264
5358.848, 2226.041
5360.776, 2247.888
5362.705, 2237.751
5364.633, 2212.039
5366.562, 2200.511
5368.490, 2178.729
5370.419, 2165.142
5372.347, 2165.539
5374.276, 2166.096
5376.204, 2178.583
5378.133, 2189.158
5380.061, 2182.951
5381.990, 2147.783
5383.918, 2140.346
5385.847, 2154.381
5387.775, 2122.443
5389.704, 2075.866
5391.632, 2061.215
5393.561, 2110.545
5395.489, 2099.319
5397.417, 2091.362
5399.346, 2093.803
5401.274, 2086.497
5403.203, 2087.242
5405.131, 2083.927
5407.060, 2073.273
5408.988, 2077.970
5410.917, 2085.157
5412.845, 2084.648
5414.773, 2066.780
5416.702, 2030.108
5418.630, 2016.021
5420.559, 2025.930
5422.487, 2019.121
5424.416, 2009.641
5426.344, 1996.571
5428.273, 1983.062
5430.201, 2032.983
5432.130, 2043.181
5434.058, 2022.121
5435.987, 2029.327
5437.915, 2015.843
5439.844, 2008.907
5441.772, 2009.312
5443.701, 1961.839
5445.629, 1959.982
5447.558, 1969.423
5449.486, 1952.885
5451.415, 1971.645
5453.343, 1961.975
5455.271, 1935.476
5457.200, 1950.296
5459.128, 1940.097
5461.057, 1927.668
5462.985, 1926.964
5464.914, 1951.667
5466.842, 1928.823
5468.771, 1907.357
5470.699, 1928.783
5472.627, 1917.451
5474.556, 1909.192
5476.484, 1903.061
5478.413, 1876.732
5480.341, 1882.886
5482.270, 1877.020
5484.198, 1860.702
5486.127, 1898.871
5488.055, 1889.804
5489.984, 1868.698
5491.912, 1864.208
5493.841, 1849.145
5495.769, 1859.829
5497.698, 1874.083
5499.626, 1858.080
5501.555, 1898.843
5503.483, 1890.007
5505.412, 1840.366
5507.340, 1825.520
5509.269, 1828.464
5511.197, 1830.552
5513.125, 1822.102
5515.054, 1791.978
5516.982, 1797.527
5518.911, 1799.001
5520.839, 1771.025
5522.768, 1764.176
5524.696, 1764.133
5526.625, 1761.598
5528.553, 1749.715
5530.481, 1780.485
5532.410, 1793.540
5534.338, 1781.977
5536.267, 1759.941
5538.195, 1782.586
5540.124, 1775.349
5542.052, 1738.095
5543.981, 1738.693
5545.909, 1756.239
5547.838, 1761.474
5549.766, 1747.401
5551.695, 1743.875
5553.623, 1733.549
5555.552, 1732.933
5557.480, 1744.086
5559.409, 1685.612
5561.337, 1699.311
5563.266, 1729.517
5565.194, 1713.279
5567.123, 1740.867
5569.051, 1707.037
5570.979, 1656.335
5572.908, 1668.270
5574.836, 1694.593
5576.765, 1708.730
5578.693, 1706.448
5580.622, 1692.655
5582.550, 1673.509
5584.479, 1676.377
5586.407, 1686.890
5588.335, 1663.091
5590.264, 1652.766
5592.192, 1653.697
5594.121, 1657.668
5596.049, 1656.433
5597.978, 1610.144
5599.906, 1601.178
5601.835, 1641.219
5603.763, 1632.050
5605.692, 1632.662
5607.620, 1634.952
5609.549, 1632.098
5611.477, 1628.487
5613.406, 1614.357
5615.334, 1606.451
5617.263, 1613.828
5619.191, 1636.019
5621.120, 1617.421
5623.048, 1603.176
5624.977, 1618.978
5626.905, 1604.509
5628.833, 1567.372
5630.762, 1569.217
5632.690, 1630.765
5634.619, 1590.925
5636.547, 1583.893
5638.476, 1595.412
5640.404, 1596.095
5642.333, 1578.513
5644.261, 1561.745
5646.189, 1563.871
5648.118, 1584.979
5650.046, 1551.496
5651.975, 1537.613
5653.903, 1541.855
5655.832, 1551.373
5657.760, 1539.505
5659.689, 1558.402
5661.617, 1571.817
5663.546, 1551.985
5665.474, 1535.400
5667.403, 1548.931
5669.331, 1551.239
5671.260, 1522.076
5673.188, 1528.453
5675.117, 1524.701
5677.045, 1520.162
5678.974, 1524.051
5680.902, 1529.298
5682.831, 1535.381
5684.759, 1521.187
5686.688, 1490.807
5688.616, 1536.034
5690.544, 1503.888
5692.473, 1476.035
5694.401, 1488.353
5696.330, 1480.936
5698.258, 1482.797
5700.187, 1486.140
5702.115, 1486.931
5704.043, 1488.944
5705.972, 1484.711
5707.900, 1481.540
5709.829, 1481.420
5711.757, 1481.203
5713.686, 1488.255
5715.614, 1476.177
5717.543, 1456.664
5719.471, 1466.199
5721.400, 1475.429
5723.328, 1466.473
5725.257, 1443.727
5727.185, 1417.920
5729.114, 1445.899
5731.042, 1468.464
5732.971, 1474.137
5734.899, 1466.890
5736.828, 1451.546
5738.756, 1440.312
5740.685, 1426.685
5742.613, 1411.184
5744.542, 1429.274
5746.470, 1450.600
5748.398, 1462.291
5750.327, 1454.958
5752.255, 1402.921
5754.184, 1395.305
5756.112, 1419.784
5758.041, 1441.857
5759.969, 1395.856
5761.897, 1409.205
5763.826, 1398.324
5765.754, 1371.421
5767.683, 1377.868
5769.611, 1407.399
5771.540, 1400.658
5773.468, 1386.337
5775.397, 1394.929
5777.325, 1364.234
5779.254, 1370.836
5781.182, 1382.752
5783.111, 1379.944
5785.039, 1395.912
5786.968, 1371.518
5788.896, 1353.280
5790.825, 1360.595
5792.753, 1389.000
5794.682, 1380.397
5796.610, 1369.581
5798.539, 1368.903
5800.467, 1379.003
5802.396, 1371.955
5804.324, 1365.344
5806.252, 1361.238
5808.181, 1358.975
5810.109, 1361.296
5812.038, 1376.633
5813.966, 1363.210
5815.895, 1328.685
5817.823, 1325.234
5819.751, 1324.295
5821.680, 1331.430
5823.608, 1348.244
5825.537, 1370.942
5827.465, 1374.574
5829.394, 1353.245
5831.322, 1332.403
5833.251, 1328.257
5835.179, 1339.815
5837.108, 1335.384
5839.036, 1331.140
5840.965, 1332.143
5842.893, 1334.911
5844.822, 1317.987
5846.750, 1319.393
5848.679, 1316.860
5850.607, 1290.587
5852.536, 1294.476
5854.464, 1296.437
5856.393, 1291.742
5858.321, 1283.425
5860.250, 1277.273
5862.178, 1292.103
5864.106, 1289.581
5866.035, 1284.762
5867.963, 1297.686
5869.892, 1285.419
5871.820, 1299.485
5873.749, 1295.371
5875.677, 1268.401
5877.605, 1270.608
5879.534, 1287.215
5881.462, 1293.785
5883.391, 1288.490
5885.319, 1279.196
5887.248, 1284.158
5889.176, 1296.030
5891.105, 1287.805
5893.033, 1263.322
5894.962, 1266.037
5896.890, 1251.641
5898.819, 1265.161
5900.747, 1283.552
5902.676, 1276.913
5904.604, 1277.065
5906.533, 1261.608
5908.461, 1258.701
5910.390, 1263.743
5912.318, 1242.828
5914.247, 1239.367
5916.175, 1240.305
5918.104, 1246.665
5920.032, 1254.702
5921.960, 1236.068
5923.889, 1251.622
5925.817, 1247.150
5927.746, 1232.244
5929.674, 1242.199
5931.603, 1239.324
5933.531, 1234.287
5935.459, 1226.234
5937.388, 1221.822
5939.316, 1236.832
5941.245, 1236.376
5943.173, 1236.936
5945.102, 1234.627
5947.030, 1227.688
5948.959, 1249.491
5950.887, 1212.659
5952.816, 1207.209
5954.744, 1230.728
5956.673, 1233.023
5958.601, 1233.534
5960.530, 1232.466
5962.458, 1230.628
5964.387, 1229.070
5966.315, 1229.907
5968.244, 1221.366
5970.172, 1205.843
5972.101, 1194.840
5974.029, 1192.299
5975.958, 1184.692
5977.886, 1193.193
5979.814, 1203.473
5981.743, 1207.926
5983.671, 1205.824
5985.600, 1212.214
5987.528, 1178.216
5989.457, 1178.581
5991.385, 1202.445
5993.313, 1198.684
5995.242, 1188.627
5997.170, 1185.707
5999.099, 1174.910
6001.027, 1175.283
6002.956, 1221.612
6004.884, 1188.643
6006.813, 1162.421
6008.741, 1177.648
6010.670, 1208.561
6012.598, 1191.759
6014.527, 1168.890
6016.455, 1164.302
6018.384, 1160.559
6020.312, 1154.153
6022.241, 1168.782
6024.169, 1176.041
6026.098, 1149.508
6028.026, 1133.969
6029.955, 1156.639
6031.883, 1190.333
6033.812, 1168.945
6035.740, 1182.079
6037.668, 1191.937
6039.597, 1171.473
6041.525, 1182.073
6043.454, 1159.147
6045.382, 1148.198
6047.311, 1154.856
6049.239, 1164.283
6051.167, 1151.529
6053.096, 1147.959
6055.024, 1166.637
6056.953, 1170.862
6058.881, 1145.339
6060.810, 1136.957
6062.738, 1164.665
6064.667, 1158.133
6066.595, 1147.092
6068.524, 1156.304
6070.452, 1144.560
6072.381, 1141.522
6074.309, 1138.139
6076.238, 1147.766
6078.166, 1165.617
6080.095, 1145.519
6082.023, 1157.143
6083.952, 1129.479
6085.880, 1122.581
6087.809, 1149.963
6089.737, 1123.995
6091.666, 1115.414
6093.594, 1124.785
6095.522, 1118.504
6097.451, 1101.677
6099.379, 1118.335
6101.308, 1135.621
6103.236, 1140.796
6105.165, 1134.506
6107.093, 1127.337
6109.021, 1131.106
6110.950, 1127.543
6112.878, 1103.510
6114.807, 1095.809
6116.735, 1116.865
6118.664, 1150.760
6120.592, 1124.406
6122.521, 1135.354
6124.449, 1117.297
6126.378, 1100.026
6128.306, 1118.406
6130.235, 1123.598
6132.163, 1108.875
6134.092, 1103.162
6136.020, 1092.401
6137.949, 1080.403
6139.877, 1108.606
6141.806, 1105.015
6143.734, 1097.737
6145.663, 1105.157
6147.591, 1113.207
6149.520, 1097.764
6151.448, 1097.783
6153.376, 1087.991
6155.305, 1083.956
6157.233, 1087.090
6159.162, 1092.919
6161.090, 1110.549
6163.019, 1093.776
6164.947, 1074.539
6166.875, 1073.159
6168.804, 1077.702
6170.732, 1054.545
6172.661, 1087.505
6174.589, 1099.010
6176.518, 1093.370
6178.446, 1088.022
6180.375, 1091.801
6182.303, 1103.821
6184.232, 1055.878
6186.160, 1068.903
6188.089, 1092.102
6190.017, 1083.789
6191.946, 1088.291
6193.874, 1079.495
6195.803, 1063.849
6197.731, 1070.305
6199.660, 1082.595
6201.588, 1073.320
6203.517, 1065.971
6205.445, 1059.921
6207.374, 1060.918
6209.302, 1064.966
6211.230, 1071.023
6213.159, 1080.526
6215.087, 1048.585
6217.016, 1052.595
6218.944, 1052.584
6220.873, 1046.742
6222.801, 1045.904
6224.729, 1026.377
6226.658, 1049.044
6228.586, 1055.959
6230.515, 1066.591
6232.443, 1075.098
6234.372, 1056.134
6236.300, 1059.287
6238.229, 1038.606
6240.157, 1023.283
6242.086, 1041.308
6244.014, 1072.631
6245.943, 1057.360
6247.871, 1040.784
6249.800, 1056.862
6251.728, 1048.367
6253.657, 1042.102
6255.585, 1059.173
6257.514, 1028.306
6259.442, 1051.769
6261.371, 1036.016
6263.299, 1051.269
6265.228, 1073.989
6267.156, 1048.965
6269.084, 1039.927
6271.013, 1030.292
6272.941, 1032.929
6274.870, 1040.204
6276.798, 1039.871
6278.727, 1027.486
6280.655, 1027.158
6282.583, 1016.188
6284.512, 1013.282
6286.440, 1023.541
6288.369, 1033.204
6290.297, 1025.755
6292.226, 1005.652
6294.154, 1012.508
6296.083, 1020.135
6298.011, 1014.181
6299.940, 1016.195
6301.868, 1043.105
6303.797, 1003.089
6305.725, 1012.981
6307.654, 1003.870
6309.582, 999.7815
6311.511, 1016.200
6313.439, 1029.413
6315.368, 1003.566
6317.296, 1016.112
6319.225, 1001.786
6321.153, 1006.370
6323.082, 1014.688
6325.010, 977.8040
6326.938, 970.4694
6328.867, 994.1771
6330.795, 995.5305
6332.724, 999.1956
6334.652, 1011.422
6336.581, 1014.590
6338.509, 991.0939
6340.438, 1003.470
6342.366, 1005.289
6344.294, 1001.405
6346.223, 1005.397
6348.151, 1011.971
6350.080, 985.4832
6352.008, 977.0113
6353.937, 964.7891
6355.865, 973.5586
6357.794, 987.2382
6359.722, 991.2443
6361.651, 996.4615
6363.579, 1008.834
6365.508, 988.6398
6367.436, 1005.047
6369.365, 1002.031
6371.293, 981.3969
6373.222, 991.8449
6375.150, 980.0004
6377.079, 956.7701
6379.007, 984.4113
6380.936, 995.3529
6382.864, 985.8228
6384.792, 978.2061
6386.721, 956.8552
6388.649, 989.1432
6390.578, 948.9295
6392.506, 949.6468
6394.435, 960.3271
6396.363, 956.5338
6398.292, 971.2432
6400.220, 995.9587
6402.148, 988.1190
6404.077, 958.4020
6406.005, 943.2838
6407.934, 951.1985
6409.862, 956.3102
6411.791, 923.8126
6413.719, 946.5709
6415.648, 971.2164
6417.576, 969.3807
6419.505, 970.4894
6421.433, 973.4149
6423.362, 961.1194
6425.290, 965.1391
6427.219, 953.8758
6429.147, 973.7666
6431.076, 978.2175
6433.004, 956.6992
6434.933, 944.4326
6436.861, 973.7876
6438.790, 945.0135
6440.718, 956.4904
6442.646, 987.9587
6444.575, 953.7174
6446.503, 938.7438
6448.432, 976.6616
6450.360, 955.1988
6452.289, 951.7579
6454.217, 963.9521
6456.146, 947.6013
6458.074, 936.5468
6460.002, 948.0817
6461.931, 964.4728
6463.859, 958.7733
6465.788, 946.0812
6467.716, 914.1389
6469.645, 946.3992
6471.573, 945.8481
6473.502, 922.0458
6475.430, 922.9546
6477.359, 924.2897
6479.287, 977.2959
6481.216, 971.8483
6483.144, 954.9329
6485.073, 937.8295
6487.001, 935.3476
6488.930, 947.5607
6490.858, 950.9048
6492.787, 957.0983
6494.715, 945.3321
6496.644, 937.3130
6498.572, 935.5562
6500.500, 944.4047
6502.429, 957.4969
6504.357, 956.2623
6506.286, 937.8253
6508.214, 939.5444
6510.143, 937.4803
6512.071, 913.1062
6514.000, 908.7073
6515.928, 935.9297
6517.856, 958.1408
6519.785, 925.7661
6521.713, 932.4511
6523.642, 932.3210
6525.570, 919.3644
6527.499, 904.3592
6529.427, 906.8022
6531.356, 920.4477
6533.284, 915.5220
6535.213, 948.4156
6537.141, 901.5347
6539.070, 914.4344
6540.998, 916.2549
6542.927, 906.0649
6544.855, 902.4177
6546.784, 902.5261
6548.712, 948.5865
6550.641, 948.3387
6552.569, 935.9999
6554.498, 912.9946
6556.426, 919.4812
6558.354, 931.1813
6560.283, 923.6971
6562.211, 918.8876
6564.140, 900.1682
6566.068, 1030.246
6567.997, 944.9346
6569.925, 930.5200
6571.854, 926.3606
6573.782, 903.1019
6575.710, 908.5773
6577.639, 894.3943
6579.567, 886.8110
6581.496, 890.7520
6583.424, 912.6290
6585.353, 927.8217
6587.281, 920.8005
6589.210, 894.1983
6591.138, 875.2776
6593.067, 898.0532
6594.995, 920.7590
6596.924, 896.0319
6598.852, 861.4540
6600.781, 886.7704
6602.709, 896.7646
6604.638, 891.4158
6606.566, 909.5691
6608.495, 903.6479
6610.423, 856.7155
6612.352, 904.6815
6614.280, 897.6041
6616.208, 888.5546
6618.137, 895.6038
6620.065, 892.8105
6621.994, 874.9406
6623.922, 876.9637
6625.851, 932.2699
6627.779, 920.8085
##END=



