##NAMES=Norrishite
##RRUFFID=R060368
##IDEAL CHEMISTRY=KLiMn^3+^_2_Si_4_O_10_O_2_
##LOCALITY=Hoskins mine, Grenfell, New South Wales, Australia
##OWNER=RRUFF
##SOURCE=Michael Scott
##DESCRIPTION=Black flaky massive
##STATUS=The identification of this mineral has been confirmed only by single crystal X-ray diffraction
##URL=https://www.rruff.net/odr/rruff_sample/R060368
##DIFFRACTION SAMPLE DESCRIPTION=Single crystal, powder profile is calculated
##CELL PARAMETERS=a: 5.28 b: 8.91 c: 10.05 alpha: 90 beta: 98.2 gamma: 90 volume: 468 crystal system: monoclinic
##FILETYPE=Raman RAW
##RAMAN WAVELENGTH=532

165.5085, 35.70181
167.4370, 36.37067
169.3655, 37.10423
171.2939, 37.93531
173.2224, 38.80064
175.1509, 39.67028
177.0793, 40.44102
179.0078, 41.19001
180.9363, 41.91975
182.8647, 42.61261
184.7932, 43.29197
186.7217, 43.97182
188.6501, 44.58992
190.5786, 45.13209
192.5071, 45.58007
194.4355, 45.95760
196.3640, 46.29640
198.2925, 46.58602
200.2209, 46.60830
202.1494, 46.99648
204.0779, 47.92479
206.0063, 49.52513
207.9348, 51.11889
209.8633, 53.06551
211.7918, 54.73857
213.7202, 55.74936
215.6487, 55.73168
217.5772, 55.68027
219.5056, 55.50158
221.4341, 55.20595
223.3626, 55.30580
225.2910, 56.04428
227.2195, 57.02932
229.1480, 57.94219
231.0764, 58.95511
233.0049, 59.64772
234.9334, 59.91697
236.8618, 59.95839
238.7903, 60.42861
240.7188, 61.08427
242.6472, 61.75408
244.5757, 62.66547
246.5042, 64.53725
248.4326, 65.18539
250.3611, 63.59419
252.2896, 59.99657
254.2180, 57.50705
256.1465, 55.72222
258.0750, 55.04145
260.0034, 55.79033
261.9319, 57.94730
263.8604, 61.04653
265.7888, 65.56443
267.7173, 71.05625
269.6458, 75.39586
271.5742, 79.16973
273.5027, 81.89684
275.4312, 82.82032
277.3596, 81.00884
279.2881, 78.17285
281.2166, 74.60349
283.1450, 70.51244
285.0735, 66.48784
287.0020, 62.75700
288.9304, 59.73231
290.8589, 57.44360
292.7874, 55.98012
294.7158, 55.38360
296.6443, 56.54765
298.5728, 58.10855
300.5012, 58.63150
302.4297, 57.29357
304.3582, 55.36748
306.2866, 52.94173
308.2151, 50.02521
310.1436, 47.61611
312.0720, 46.09813
314.0005, 45.17519
315.9290, 44.58092
317.8574, 44.43451
319.7859, 44.67553
321.7144, 45.39533
323.6428, 46.36908
325.5713, 47.13062
327.4998, 47.53422
329.4282, 47.91767
331.3567, 48.37290
333.2852, 48.77918
335.2137, 49.29431
337.1421, 50.15530
339.0706, 50.96272
340.9991, 51.28170
342.9275, 51.03864
344.8560, 50.67020
346.7845, 50.10847
348.7129, 49.36896
350.6414, 48.95393
352.5699, 48.90248
354.4983, 49.21207
356.4268, 49.86698
358.3553, 51.29020
360.2837, 52.85819
362.2122, 54.86282
364.1407, 56.89742
366.0691, 58.31010
367.9976, 58.37093
369.9261, 57.90441
371.8545, 57.23907
373.7830, 56.30341
375.7115, 54.73347
377.6399, 52.56296
379.5684, 50.33262
381.4969, 48.34185
383.4253, 46.39487
385.3538, 45.11322
387.2823, 44.80463
389.2107, 45.37130
391.1392, 46.06975
393.0677, 47.05204
394.9961, 47.85752
396.9246, 48.28487
398.8531, 47.99807
400.7815, 47.58454
402.7100, 46.75794
404.6385, 45.72770
406.5669, 44.83964
408.4954, 44.45401
410.4239, 43.86082
412.3523, 42.85678
414.2808, 41.62725
416.2093, 40.48854
418.1377, 39.30508
420.0662, 38.40838
421.9947, 37.93749
423.9231, 37.88581
425.8516, 38.00487
427.7801, 38.46010
429.7085, 38.96584
431.6370, 39.08965
433.5655, 38.69864
435.4939, 38.43319
437.4224, 38.54372
439.3509, 38.91523
441.2793, 39.10512
443.2078, 39.01350
445.1363, 38.65836
447.0647, 37.84686
448.9932, 36.87579
450.9217, 36.23211
452.8501, 35.94442
454.7786, 35.92357
456.7071, 36.24755
458.6355, 37.05838
460.5640, 37.74829
462.4925, 38.12783
464.4209, 38.35581
466.3494, 38.57120
468.2779, 38.62731
470.2063, 38.66662
472.1348, 38.66352
474.0633, 38.77541
475.9917, 39.17286
477.9202, 39.78977
479.8487, 40.60126
481.7771, 41.68837
483.7056, 43.60742
485.6341, 45.16607
487.5625, 46.22767
489.4910, 46.92522
491.4195, 47.59634
493.3479, 47.99124
495.2764, 48.16851
497.2049, 48.19635
499.1333, 48.24963
501.0618, 48.17302
502.9903, 48.12066
504.9187, 47.79085
506.8472, 46.90442
508.7757, 45.43666
510.7041, 44.25482
512.6326, 43.65662
514.5610, 43.21367
516.4895, 42.37520
518.4180, 41.11037
520.3464, 40.09635
522.2749, 39.68969
524.2034, 39.53207
526.1318, 39.27249
528.0603, 38.89740
529.9888, 38.60762
531.9172, 38.50262
533.8457, 38.41436
535.7742, 38.26118
537.7026, 37.97450
539.6311, 37.82970
541.5596, 37.90172
543.4880, 38.26765
545.4165, 38.60620
547.3450, 38.84652
549.2734, 39.11036
551.2019, 39.47638
553.1304, 40.00464
555.0588, 40.62051
556.9873, 41.17770
558.9158, 41.81847
560.8442, 42.80607
562.7727, 44.27028
564.7012, 46.02800
566.6296, 47.94263
568.5581, 50.07091
570.4866, 52.81743
572.4150, 56.09612
574.3435, 59.41463
576.2720, 62.69586
578.2004, 66.06334
580.1289, 69.95210
582.0574, 74.35137
583.9859, 79.38013
585.9144, 84.91648
587.8428, 91.84423
589.7713, 98.65364
591.6998, 105.7459
593.6282, 112.5975
595.5567, 118.0132
597.4852, 121.2042
599.4136, 126.1907
601.3421, 133.8310
603.2706, 143.8264
605.1990, 156.2023
607.1275, 172.8202
609.0560, 189.4602
610.9844, 206.8714
612.9129, 223.7667
614.8414, 237.7736
616.7698, 250.6237
618.6983, 256.0236
620.6268, 252.6902
622.5552, 241.2212
624.4837, 226.1808
626.4122, 206.1154
628.3406, 185.8648
630.2691, 166.0569
632.1976, 146.9886
634.1260, 130.6917
636.0545, 118.0954
637.9830, 107.5202
639.9114, 98.84261
641.8399, 92.14341
643.7684, 85.60769
645.6968, 78.76763
647.6253, 72.16471
649.5538, 66.27502
651.4822, 60.95370
653.4107, 56.66852
655.3392, 53.50962
657.2676, 51.33548
659.1961, 50.05124
661.1246, 49.74028
663.0530, 49.57173
664.9815, 49.16389
666.9100, 48.84634
668.8384, 49.05704
670.7669, 50.35155
672.6954, 51.52441
674.6238, 52.37208
676.5523, 53.04072
678.4808, 53.78119
680.4092, 54.62767
682.3377, 55.49431
684.2662, 56.05555
686.1946, 56.50079
688.1231, 57.93311
690.0516, 60.66478
691.9800, 63.88557
693.9085, 67.74396
695.8370, 71.96486
697.7654, 75.75235
699.6939, 79.52328
701.6224, 82.21366
703.5508, 83.43675
705.4793, 83.16605
707.4078, 81.46876
709.3362, 77.49849
711.2647, 72.91313
713.1932, 68.31291
715.1216, 63.68913
717.0501, 59.77106
718.9786, 56.97478
720.9070, 54.69959
722.8355, 52.72126
724.7640, 51.14127
726.6924, 49.75097
728.6209, 48.67940
730.5494, 47.71601
732.4778, 46.66393
734.4063, 45.49756
736.3348, 44.44273
738.2632, 43.42619
740.1917, 42.61589
742.1202, 42.14119
744.0486, 42.03859
745.9771, 41.98952
747.9056, 42.01509
749.8340, 42.02539
751.7625, 41.97262
753.6910, 41.79360
755.6194, 41.85546
757.5479, 42.25549
759.4764, 42.86985
761.4048, 43.58295
763.3333, 44.51699
765.2618, 45.09534
767.1902, 45.03725
769.1187, 44.64741
771.0472, 44.26213
772.9756, 43.89505
774.9041, 43.53426
776.8326, 43.13572
778.7610, 42.72483
780.6895, 42.41982
782.6180, 42.24992
784.5464, 42.04399
786.4749, 41.75273
788.4034, 41.42745
790.3318, 41.07856
792.2603, 40.62964
794.1888, 40.36143
796.1172, 40.42979
798.0457, 40.60172
799.9742, 40.63526
801.9026, 40.58209
803.8311, 40.47192
805.7596, 40.16219
807.6880, 39.82289
809.6165, 39.78284
811.5450, 40.27227
813.4734, 40.52566
815.4019, 40.17610
817.3304, 39.55813
819.2589, 39.32545
821.1873, 39.64762
823.1158, 40.06428
825.0443, 40.49814
826.9727, 40.76031
828.9012, 40.85729
830.8297, 40.74870
832.7581, 40.69775
834.6866, 40.72435
836.6151, 40.79113
838.5435, 41.03241
840.4720, 41.59229
842.4005, 41.93335
844.3289, 41.69941
846.2574, 41.29124
848.1859, 41.18964
850.1143, 41.39416
852.0428, 41.62850
853.9713, 41.92899
855.8997, 42.24174
857.8282, 42.41962
859.7567, 42.37642
861.6851, 42.24192
863.6136, 42.00357
865.5421, 41.83706
867.4705, 41.82401
869.3990, 41.85932
871.3275, 41.75572
873.2559, 41.26723
875.1844, 40.96945
877.1129, 41.04726
879.0413, 41.50885
880.9698, 41.90338
882.8983, 42.11845
884.8267, 42.03693
886.7552, 41.84618
888.6837, 41.83472
890.6121, 41.88671
892.5406, 41.85071
894.4691, 41.76432
896.3975, 41.89180
898.3260, 42.47476
900.2545, 43.09240
902.1829, 43.48940
904.1114, 43.54321
906.0399, 43.50166
907.9683, 43.85733
909.8968, 44.35788
911.8253, 44.88988
913.7537, 45.37516
915.6822, 46.02392
917.6107, 46.95383
919.5391, 47.76168
921.4676, 48.32642
923.3961, 48.96647
925.3245, 49.92652
927.2530, 50.94868
929.1815, 52.17173
931.1099, 53.65348
933.0384, 55.16892
934.9669, 56.55867
936.8953, 57.96776
938.8238, 59.30157
940.7523, 60.46025
942.6807, 61.57483
944.6092, 62.74379
946.5377, 64.19625
948.4661, 65.88105
950.3946, 67.40556
952.3231, 68.74747
954.2515, 70.14077
956.1800, 71.38159
958.1085, 71.92028
960.0369, 72.04456
961.9654, 71.41965
963.8939, 69.68688
965.8223, 67.16637
967.7508, 64.64552
969.6793, 62.23106
971.6077, 59.95907
973.5362, 57.86222
975.4647, 55.99387
977.3931, 54.42080
979.3216, 52.89465
981.2501, 51.27358
983.1785, 49.50817
985.1070, 47.77435
987.0355, 46.21371
988.9639, 44.98455
990.8924, 43.90089
992.8209, 42.95503
994.7493, 42.19460
996.6778, 41.65656
998.6063, 41.19652
1000.535, 40.76228
1002.463, 40.31735
1004.392, 39.87263
1006.320, 39.51504
1008.249, 39.34063
1010.177, 39.05729
1012.106, 38.52339
1014.034, 38.22429
1015.962, 38.28121
1017.891, 38.50172
1019.819, 38.61918
1021.748, 38.74421
1023.676, 38.68551
1025.605, 38.48149
1027.533, 38.34459
1029.462, 38.56282
1031.390, 38.71825
1033.319, 38.48971
1035.247, 38.12453
1037.176, 37.93336
1039.104, 38.02365
1041.032, 38.30001
1042.961, 38.56107
1044.889, 38.79153
1046.818, 38.97027
1048.746, 39.09188
1050.675, 39.26841
1052.603, 39.37157
1054.532, 39.52700
1056.460, 39.64107
1058.389, 39.73159
1060.317, 39.86899
1062.246, 40.17452
1064.174, 40.63437
1066.103, 41.17044
1068.031, 42.01777
1069.959, 43.16963
1071.888, 44.40210
1073.816, 45.45530
1075.745, 46.60155
1077.673, 47.84522
1079.602, 48.96885
1081.530, 49.99018
1083.459, 51.16600
1085.387, 51.51109
1087.316, 50.26232
1089.244, 48.61903
1091.173, 47.37524
1093.101, 46.56732
1095.030, 46.04713
1096.958, 45.79192
1098.887, 45.95135
1100.815, 46.36163
1102.744, 47.00554
1104.672, 47.83137
1106.600, 49.00848
1108.529, 49.76903
1110.457, 50.19824
1112.386, 51.03300
1114.314, 52.48355
1116.243, 54.38847
1118.171, 55.93490
1120.100, 57.16036
1122.028, 57.48078
1123.957, 56.82007
1125.885, 55.41284
1127.814, 53.69844
1129.742, 51.45950
1131.671, 49.17561
1133.599, 47.16298
1135.527, 45.29651
1137.456, 43.56681
1139.384, 41.98004
1141.313, 40.95767
1143.241, 40.35571
1145.170, 39.95358
1147.098, 39.79380
1149.027, 39.81244
1150.955, 39.52543
1152.884, 38.72243
1154.812, 37.82555
1156.741, 37.27215
1158.669, 37.13800
1160.598, 37.21215
1162.526, 37.47191
1164.454, 37.51826
1166.383, 37.29580
1168.311, 37.06301
1170.240, 37.04156
1172.168, 37.29607
1174.097, 37.40379
1176.025, 37.15367
1177.954, 36.83080
1179.882, 36.65637
1181.811, 36.63585
1183.739, 36.57449
1185.668, 36.40445
1187.596, 36.30108
1189.525, 36.37583
1191.453, 36.52616
1193.381, 36.69337
1195.310, 36.83520
1197.238, 36.94641
1199.167, 37.14301
1201.095, 37.42384
1203.024, 37.51727
1204.952, 37.31303
1206.881, 37.13137
1208.809, 37.09048
1210.738, 37.30938
1212.666, 37.72589
1214.595, 37.83504
1216.523, 37.71674
1218.452, 37.59860
1220.380, 37.65429
1222.308, 37.58179
1224.237, 37.59740
1226.165, 37.64547
1228.094, 37.69696
1230.022, 37.87969
1231.951, 38.06610
1233.879, 38.07318
1235.808, 38.14928
1237.736, 38.37184
1239.665, 38.47875
1241.593, 38.48711
1243.522, 38.57684
1245.450, 38.83518
1247.379, 38.97427
1249.307, 38.98198
1251.235, 38.85407
1253.164, 38.81468
1255.092, 38.98793
1257.021, 39.24681
1258.949, 39.49424
1260.878, 39.61707
1262.806, 39.75514
1264.735, 39.91375
1266.663, 40.08266
1268.592, 40.26042
1270.520, 40.50466
1272.449, 40.87032
1274.377, 41.21633
1276.306, 41.41299
1278.234, 41.40552
1280.162, 41.28948
1282.091, 40.90589
1284.019, 40.70690
1285.948, 40.95428
1287.876, 41.35458
1289.805, 41.29612
1291.733, 40.67188
1293.662, 40.37099
1295.590, 40.85883
1297.519, 41.32825
1299.447, 41.19018
1301.376, 40.68515
1303.304, 40.39876
1305.233, 40.42199
1307.161, 40.45891
1309.089, 40.41683
1311.018, 40.39199
1312.946, 40.49998
1314.875, 40.71595
1316.803, 40.74641
1318.732, 40.49540
1320.660, 40.21881
1322.589, 39.78847
1324.517, 39.34685
1326.446, 39.16807
1328.374, 39.28939
1330.303, 39.40529
1332.231, 39.51613
1334.160, 39.62090
1336.088, 39.78617
1338.016, 39.89970
1339.945, 39.72996
1341.873, 39.23496
1343.802, 38.98547
1345.730, 39.25065
1347.659, 39.55215
1349.587, 39.65072
1351.516, 39.61803
1353.444, 39.65285
1355.373, 39.81512
1357.301, 39.85450
1359.230, 39.67230
1361.158, 39.41619
1363.087, 39.07556
1365.015, 38.69744
1366.943, 38.56797
1368.872, 38.97203
1370.800, 39.22838
1372.729, 39.13515
1374.657, 39.01913
1376.586, 39.18641
1378.514, 39.60298
1380.443, 39.83260
1382.371, 39.77292
1384.300, 39.74021
1386.228, 40.00371
1388.157, 40.17898
1390.085, 39.75103
1392.014, 38.87007
1393.942, 38.51667
1395.870, 39.04031
1397.799, 39.48570
1399.727, 39.48566
1401.656, 39.24503
1403.584, 38.93003
1405.513, 38.57585
1407.441, 38.36314
1409.370, 38.32079
1411.298, 38.33678
1413.227, 38.48153
1415.155, 38.68856
1417.084, 38.79777
1419.012, 38.73446
1420.941, 38.68710
1422.869, 38.64060
1424.797, 38.64718
1426.726, 38.71097
1428.654, 38.83012
1430.583, 39.05447
1432.511, 39.38932
1434.440, 39.50906
1436.368, 39.26509
1438.297, 39.07727
1440.225, 39.07011
1442.154, 39.15453
1444.082, 39.26154
1446.011, 39.37531
1447.939, 39.51369
1449.868, 39.73654
1451.796, 39.89334
1453.724, 39.88554
1455.653, 39.79604
1457.581, 39.67360
1459.510, 39.54743
1461.438, 39.56242
1463.367, 39.82940
1465.295, 39.95634
1467.224, 39.63625
1469.152, 39.34858
1471.081, 39.53116
1473.009, 40.21743
1474.938, 40.51500
1476.866, 39.99770
1478.795, 39.60548
1480.723, 39.61128
1482.651, 39.83075
1484.580, 40.09643
1486.508, 40.35088
1488.437, 40.45868
1490.365, 40.34535
1492.294, 40.28295
1494.222, 40.17614
1496.151, 40.18386
1498.079, 40.63078
1500.008, 41.39644
1501.936, 41.56989
1503.865, 40.77588
1505.793, 40.28053
1507.722, 40.45091
1509.650, 40.70714
1511.578, 40.67096
1513.507, 40.50363
1515.435, 40.61291
1517.364, 41.09375
1519.292, 41.44392
1521.221, 41.46158
1523.149, 41.43115
1525.078, 41.56287
1527.006, 41.72853
1528.935, 41.63615
1530.863, 41.27945
1532.792, 41.18177
1534.720, 41.55827
1536.649, 41.87756
1538.577, 41.93916
1540.505, 41.85064
1542.434, 41.50507
1544.362, 40.99713
1546.291, 41.18008
1548.219, 42.43519
1550.148, 43.48279
1552.076, 43.96197
1554.005, 44.06399
1555.933, 43.79696
1557.862, 43.25172
1559.790, 42.75246
1561.719, 42.21282
1563.647, 41.95428
1565.576, 42.31374
1567.504, 42.67938
1569.432, 42.77586
1571.361, 42.70626
1573.289, 42.68119
1575.218, 42.71641
1577.146, 42.71357
1579.075, 42.53096
1581.003, 42.51404
1582.932, 42.82616
1584.860, 43.25129
1586.789, 43.65316
1588.717, 44.03080
1590.646, 44.11352
1592.574, 43.61726
1594.503, 43.31454
1596.431, 43.38797
1598.359, 43.46258
1600.288, 43.23336
1602.216, 42.88862
1604.145, 42.90327
1606.073, 43.47775
1608.002, 43.83378
1609.930, 43.71916
1611.859, 43.72134
1613.787, 44.25209
1615.716, 44.82753
1617.644, 44.85259
1619.573, 44.33056
1621.501, 43.83469
1623.430, 43.16835
1625.358, 42.97431
1627.286, 43.77265
1629.215, 44.59502
1631.143, 44.89749
1633.072, 44.82005
1635.000, 44.61674
1636.929, 44.25974
1638.857, 43.95791
1640.786, 43.59742
1642.714, 43.48885
1644.643, 43.93273
1646.571, 44.50062
1648.500, 44.80260
1650.428, 44.86983
1652.357, 44.91289
1654.285, 44.96257
1656.214, 44.86937
1658.142, 44.43544
1660.070, 44.06818
1661.999, 43.96174
1663.927, 44.02813
1665.856, 44.18288
1667.784, 44.41739
1669.713, 44.60087
1671.641, 44.68774
1673.570, 44.82868
1675.498, 45.17065
1677.427, 45.46979
1679.355, 45.60063
1681.284, 45.56810
1683.212, 45.27581
1685.141, 44.69859
1687.069, 44.58517
1688.997, 45.31233
1690.926, 45.88098
1692.854, 45.83603
1694.783, 45.60991
1696.711, 45.49108
1698.640, 45.46550
1700.568, 45.51680
1702.497, 45.66052
1704.425, 45.72823
1706.354, 45.57798
1708.282, 45.55941
1710.211, 46.02533
1712.139, 46.50948
1714.068, 46.48550
1715.996, 46.12875
1717.924, 46.04701
1719.853, 46.31660
1721.781, 46.48730
1723.710, 46.40736
1725.638, 46.33603
1727.567, 46.36797
1729.495, 46.45626
1731.424, 46.61800
1733.352, 46.79498
1735.281, 46.73114
1737.209, 46.35646
1739.138, 46.07682
1741.066, 46.04702
1742.995, 46.00997
1744.923, 45.80562
1746.851, 45.59669
1748.780, 45.54462
1750.708, 45.63530
1752.637, 45.81052
1754.565, 46.09073
1756.494, 46.33339
1758.422, 46.45542
1760.351, 46.61419
1762.279, 46.96136
1764.208, 47.29660
1766.136, 47.40293
1768.065, 47.32328
1769.993, 47.24318
1771.922, 47.16097
1773.850, 47.10193
1775.778, 47.04952
1777.707, 47.05227
1779.635, 47.08625
1781.564, 47.21401
1783.492, 47.60598
1785.421, 48.13019
1787.349, 48.35655
1789.278, 48.25963
1791.206, 47.98723
1793.135, 47.14877
1795.063, 46.70345
1796.992, 47.17905
1798.920, 47.78962
1800.849, 48.10253
1802.777, 48.11558
1804.705, 47.68230
1806.634, 46.64952
1808.562, 46.24939
1810.491, 46.94277
1812.419, 47.52369
1814.348, 47.84129
1816.276, 48.04157
1818.205, 48.15469
1820.133, 48.21404
1822.062, 48.28027
1823.990, 48.34919
1825.919, 48.32108
1827.847, 48.09330
1829.776, 47.98982
1831.704, 48.23522
1833.632, 48.33869
1835.561, 47.96760
1837.489, 47.55532
1839.418, 47.47811
1841.346, 47.68356
1843.275, 48.05208
1845.203, 48.66537
1847.132, 48.90162
1849.060, 48.40398
1850.989, 48.15979
1852.917, 48.67490
1854.846, 49.20846
1856.774, 49.33647
1858.703, 49.28121
1860.631, 49.40613
1862.559, 49.67446
1864.488, 49.75374
1866.416, 49.60516
1868.345, 49.39672
1870.273, 49.06059
1872.202, 48.86214
1874.130, 49.02004
1876.059, 49.25620
1877.987, 49.35076
1879.916, 49.36110
1881.844, 49.38726
1883.773, 49.42876
1885.701, 49.51708
1887.630, 49.66771
1889.558, 49.80383
1891.486, 49.95607
1893.415, 50.01945
1895.343, 49.86579
1897.272, 49.66782
1899.200, 49.59475
1901.129, 49.63678
1903.057, 49.74915
1904.986, 49.93568
1906.914, 50.20108
1908.843, 50.85225
1910.771, 51.10052
1912.700, 50.33248
1914.628, 49.71719
1916.557, 49.99239
1918.485, 50.63319
1920.413, 51.07985
1922.342, 51.32769
1924.270, 51.33518
1926.199, 50.97967
1928.127, 50.79752
1930.056, 50.93359
1931.984, 51.01940
1933.913, 50.88390
1935.841, 50.81346
1937.770, 51.04751
1939.698, 51.33993
1941.627, 51.34028
1943.555, 51.49251
1945.484, 51.62161
1947.412, 51.53599
1949.340, 51.69667
1951.269, 51.62466
1953.197, 51.36157
1955.126, 50.63914
1957.054, 50.14734
1958.983, 50.36670
1960.911, 50.91653
1962.840, 51.55107
1964.768, 52.17131
1966.697, 52.49509
1968.625, 52.50929
1970.554, 52.36721
1972.482, 51.97728
1974.411, 51.65888
1976.339, 51.37622
1978.267, 51.29253
1980.196, 51.74465
1982.124, 52.16767
1984.053, 51.92689
1985.981, 51.35826
1987.910, 51.21814
1989.838, 51.52174
1991.767, 51.73590
1993.695, 51.81752
1995.624, 51.91823
1997.552, 52.17782
1999.481, 52.23326
2001.409, 51.67860
2003.338, 51.24966
2005.266, 51.49659
2007.194, 51.99241
2009.123, 52.21901
2011.051, 52.23952
2012.980, 52.25024
2014.908, 52.25495
2016.837, 52.30476
2018.765, 52.44764
2020.694, 52.48753
2022.622, 52.25995
2024.551, 52.10675
2026.479, 52.23425
2028.408, 52.42771
2030.336, 52.59486
2032.265, 52.66667
2034.193, 52.43996
2036.121, 51.94938
2038.050, 51.67195
2039.978, 51.62868
2041.907, 51.73685
2043.835, 52.16692
2045.764, 52.46913
2047.692, 52.55208
2049.621, 52.55087
2051.549, 52.37614
2053.478, 52.28038
2055.406, 52.62649
2057.334, 52.50348
2059.263, 52.56536
2061.191, 52.70524
2063.120, 52.59270
2065.049, 52.83920
2066.977, 52.93391
2068.906, 52.70316
2070.834, 52.61787
2072.762, 52.98668
2074.691, 53.29425
2076.619, 53.20408
2078.548, 53.09448
2080.476, 53.44257
2082.405, 53.90166
2084.333, 53.78335
2086.262, 53.16903
2088.190, 52.72675
2090.119, 52.39707
2092.047, 52.55490
2093.976, 53.46947
2095.904, 54.18847
2097.833, 54.55756
2099.761, 54.68536
2101.689, 54.45527
2103.618, 54.17296
2105.546, 53.94072
2107.475, 53.84788
2109.403, 54.24622
2111.332, 54.82904
2113.260, 54.55964
2115.189, 53.45009
2117.117, 53.00736
2119.046, 53.46813
2120.974, 53.99959
2122.903, 54.82811
2124.831, 55.27335
2126.760, 54.94153
2128.688, 54.56332
2130.616, 54.39756
2132.545, 54.36718
2134.473, 54.42600
2136.402, 54.57411
2138.330, 54.90987
2140.259, 55.32930
2142.187, 55.27367
2144.116, 54.76409
2146.044, 55.01786
2147.973, 56.44843
2149.901, 56.94024
2151.830, 55.44287
2153.758, 54.34749
2155.687, 54.42814
2157.615, 54.88861
2159.543, 55.73842
2161.472, 56.41793
2163.400, 56.37508
2165.329, 55.88280
2167.257, 55.17485
2169.186, 54.38786
2171.114, 54.27658
2173.043, 54.83595
2174.971, 55.31405
2176.900, 55.71267
2178.828, 55.78880
2180.757, 55.29396
2182.685, 55.14283
2184.614, 55.87720
2186.542, 56.54369
2188.470, 56.80248
2190.399, 56.78164
2192.327, 56.29883
2194.256, 55.80957
2196.184, 55.95257
2198.113, 56.48754
2200.041, 56.86591
2201.970, 57.08988
2203.898, 57.12743
2205.827, 56.95591
2207.755, 56.90656
2209.684, 57.02209
2211.612, 57.16938
2213.541, 57.44202
2215.469, 57.45040
2217.397, 56.70424
2219.326, 56.18084
2221.254, 56.72951
2223.183, 57.19003
2225.111, 56.36812
2227.040, 55.23435
2228.968, 55.01893
2230.897, 55.45053
2232.825, 55.97133
2234.754, 56.55090
2236.682, 56.84845
2238.611, 56.86175
2240.539, 56.56366
2242.468, 55.85374
2244.396, 55.46069
2246.324, 55.58464
2248.253, 55.82038
2250.181, 56.11779
2252.110, 56.42752
2254.038, 57.00994
2255.967, 57.26728
2257.895, 56.40277
2259.824, 55.46959
2261.752, 55.77830
2263.681, 55.02927
2265.609, 56.07093
2267.538, 54.96571
2269.466, 55.04661
2271.395, 56.14772
2273.323, 56.98580
2275.251, 57.50378
2277.180, 57.59899
2279.108, 57.09069
2281.037, 56.69162
2282.965, 56.38395
2284.894, 56.36091
2286.822, 57.04838
2288.751, 57.45739
2290.679, 56.76500
2292.608, 56.32053
2294.536, 57.29155
2296.465, 58.35826
2298.393, 58.33288
2300.322, 57.85388
2302.250, 57.60248
2304.178, 57.57479
2306.107, 57.90331
2308.035, 58.48753
2309.964, 58.58104
2311.892, 58.12260
2313.821, 57.70881
2315.749, 57.17397
2317.678, 57.35291
2319.606, 58.40056
2321.535, 59.85400
2323.463, 62.10225
2325.392, 63.47657
2327.320, 63.17605
2329.249, 62.45095
2331.177, 61.67900
2333.105, 60.84411
2335.034, 59.70935
2336.962, 58.74470
2338.891, 58.37003
2340.819, 58.37282
2342.748, 58.60581
2344.676, 58.94267
2346.605, 59.13102
2348.533, 59.20060
2350.462, 59.27932
2352.390, 59.35159
2354.319, 59.19771
2356.247, 58.77766
2358.176, 58.53674
2360.104, 58.47125
2362.032, 58.64079
2363.961, 59.15974
2365.889, 59.69076
2367.818, 60.46387
2369.746, 60.66349
2371.675, 59.64248
2373.603, 58.92296
2375.532, 59.39355
2377.460, 59.95651
2379.389, 60.27258
2381.317, 60.13382
2383.246, 58.76009
2385.174, 57.43336
2387.103, 57.82252
2389.031, 58.92178
2390.959, 59.16420
2392.888, 58.89388
2394.816, 58.94716
2396.745, 59.24378
2398.673, 59.52703
2400.602, 59.78509
2402.530, 59.92813
2404.459, 59.96297
2406.387, 60.05190
2408.316, 59.90806
2410.244, 60.06445
2412.173, 59.84651
2414.101, 59.84501
2416.030, 59.96521
2417.958, 59.53113
2419.886, 59.13009
2421.815, 59.00064
2423.743, 59.43050
2425.672, 59.83594
2427.600, 60.06231
2429.529, 60.12009
2431.457, 59.78562
2433.386, 59.56623
2435.314, 59.90803
2437.243, 60.42507
2439.171, 61.02578
2441.100, 61.36444
2443.028, 60.68659
2444.957, 59.73668
2446.885, 59.85936
2448.813, 60.59885
2450.742, 60.86282
2452.670, 60.74016
2454.599, 60.58578
2456.527, 60.41356
2458.456, 60.24022
2460.384, 60.07784
2462.313, 59.98681
2464.241, 59.96820
2466.170, 60.04852
2468.098, 60.26681
2470.027, 60.36174
2471.955, 60.03253
2473.884, 60.11170
2475.812, 60.92965
2477.740, 61.33199
2479.669, 60.95451
2481.597, 60.74596
2483.526, 61.07891
2485.454, 61.36595
2487.383, 61.40292
2489.311, 61.36981
2491.240, 61.21721
2493.168, 61.18191
2495.097, 61.46564
2497.025, 61.77977
2498.954, 62.10540
2500.882, 62.18531
2502.811, 61.46582
2504.739, 60.80365
2506.667, 61.19329
2508.596, 61.88057
2510.524, 62.04690
2512.453, 61.89111
2514.381, 61.58918
2516.310, 61.26802
2518.238, 61.15772
2520.167, 61.22878
2522.095, 61.41795
2524.024, 61.71334
2525.952, 62.13729
2527.881, 62.63604
2529.809, 62.95386
2531.738, 63.09106
2533.666, 63.13799
2535.594, 63.09757
2537.523, 62.89178
2539.451, 62.53004
2541.380, 62.26722
2543.308, 62.11928
2545.237, 62.12975
2547.165, 62.32352
2549.094, 62.61584
2551.022, 63.16935
2552.951, 63.28424
2554.879, 62.73993
2556.808, 62.56832
2558.736, 63.04250
2560.665, 63.35283
2562.593, 63.25384
2564.521, 63.17104
2566.450, 63.26996
2568.378, 63.25954
2570.307, 62.98759
2572.235, 62.75860
2574.164, 62.58217
2576.092, 62.57021
2578.021, 62.81730
2579.949, 63.13600
2581.878, 63.51130
2583.806, 63.85388
2585.735, 64.22585
2587.663, 64.41692
2589.592, 64.24993
2591.520, 63.97033
2593.448, 63.52929
2595.377, 63.24828
2597.305, 63.74057
2599.234, 63.93544
2601.162, 62.36922
2603.091, 61.05391
2605.019, 62.04999
2606.948, 63.49316
2608.876, 63.79730
2610.805, 63.79985
2612.733, 64.33397
2614.662, 64.83900
2616.590, 64.52835
2618.519, 64.06657
2620.447, 64.32408
2622.375, 64.81010
2624.304, 64.98363
2626.232, 64.88822
2628.161, 64.36645
2630.089, 63.79650
2632.018, 63.78319
2633.946, 64.03858
2635.875, 64.14095
2637.803, 64.12853
2639.732, 63.99461
2641.660, 63.84196
2643.589, 63.87491
2645.517, 64.05501
2647.446, 64.43960
2649.374, 64.83595
2651.302, 64.70107
2653.231, 64.25900
2655.159, 64.11753
2657.088, 64.18761
2659.016, 64.30146
2660.945, 64.35870
2662.873, 63.74707
2664.802, 62.93991
2666.730, 63.77528
2668.659, 65.62424
2670.587, 65.92538
2672.516, 65.06912
2674.444, 64.71738
2676.373, 64.77234
2678.301, 64.96886
2680.229, 65.24624
2682.158, 65.45025
2684.086, 65.54578
2686.015, 65.19925
2687.943, 64.56338
2689.872, 64.72842
2691.800, 64.46251
2693.729, 64.33301
2695.657, 64.49145
2697.586, 64.21989
2699.514, 64.35680
2701.443, 64.32829
2703.371, 64.22009
2705.300, 64.68951
2707.228, 65.57829
2709.156, 66.27314
2711.085, 66.73442
2713.013, 66.82341
2714.942, 66.60110
2716.870, 66.36083
2718.799, 66.15524
2720.727, 66.46719
2722.656, 66.32027
2724.584, 67.10127
2726.513, 66.71109
2728.441, 67.03789
2730.370, 67.81985
2732.298, 67.69616
2734.227, 67.97820
2736.155, 67.13343
2738.083, 67.82582
2740.012, 67.73500
2741.940, 67.17030
2743.869, 67.15724
2745.797, 67.51115
2747.726, 67.55437
2749.654, 67.46199
2751.583, 68.01063
2753.511, 68.74330
2755.440, 68.33393
2757.368, 67.37923
2759.297, 67.38995
2761.225, 67.92368
2763.154, 67.99199
2765.082, 67.76873
2767.010, 67.35394
2768.939, 67.11234
2770.867, 68.01028
2772.796, 69.25150
2774.724, 69.36024
2776.653, 68.94833
2778.581, 68.95230
2780.510, 69.11263
2782.438, 69.04546
2784.367, 68.95296
2786.295, 69.17522
2788.224, 69.43214
2790.152, 69.38389
2792.081, 69.18768
2794.009, 68.87257
2795.938, 68.65659
2797.866, 68.85891
2799.794, 69.09653
2801.723, 68.84553
2803.651, 68.69341
2805.580, 69.46193
2807.508, 70.06420
2809.437, 69.54532
2811.365, 69.00183
2813.294, 69.36153
2815.222, 69.61366
2817.151, 68.77352
2819.079, 68.29063
2821.008, 69.19144
2822.936, 69.84388
2824.865, 69.21231
2826.793, 68.62265
2828.721, 68.59000
2830.650, 68.67850
2832.578, 68.86612
2834.507, 68.91058
2836.435, 68.63470
2838.364, 68.54455
2840.292, 68.95107
2842.221, 69.27636
2844.149, 69.42947
2846.078, 69.55888
2848.006, 69.73441
2849.935, 69.59235
2851.863, 68.93379
2853.792, 68.57752
2855.720, 68.69624
2857.648, 68.93923
2859.577, 69.33215
2861.505, 69.57571
2863.434, 69.64904
2865.362, 69.89343
2867.291, 70.35323
2869.219, 70.25582
2871.148, 70.21420
2873.076, 69.45078
2875.005, 69.69397
2876.933, 69.54805
2878.862, 69.20728
2880.790, 69.69819
2882.719, 70.66427
2884.647, 70.97170
2886.575, 70.80008
2888.504, 70.39490
2890.432, 69.95784
2892.361, 69.89987
2894.289, 69.94057
2896.218, 69.44993
2898.146, 69.08381
2900.075, 69.90024
2902.003, 70.77821
2903.932, 70.71867
2905.860, 70.39938
2907.789, 70.13013
2909.717, 70.04099
2911.646, 70.24038
2913.574, 70.57192
2915.502, 71.11324
2917.431, 71.54358
2919.359, 71.73808
2921.288, 71.82352
2923.216, 71.79647
2925.145, 71.73670
2927.073, 71.61189
2929.002, 71.59384
2930.930, 71.69415
2932.859, 71.99149
2934.787, 72.56184
2936.716, 72.83437
2938.644, 72.77180
2940.573, 72.57117
2942.501, 72.24870
2944.429, 71.61734
2946.358, 71.81907
2948.286, 71.03628
2950.215, 72.11131
2952.143, 72.81258
2954.072, 73.14940
2956.000, 72.93747
2957.929, 72.56364
2959.857, 72.89005
2961.786, 73.38008
2963.714, 73.45033
2965.643, 73.26006
2967.571, 72.70826
2969.500, 72.30521
2971.428, 72.55390
2973.356, 72.90749
2975.285, 73.26588
2977.213, 73.38179
2979.142, 73.48365
2981.070, 73.58655
2982.999, 73.27596
2984.927, 73.58556
2986.856, 73.14487
2988.784, 73.03858
2990.713, 73.70084
2992.641, 74.01306
2994.570, 73.91972
2996.498, 74.47175
2998.427, 74.53728
3000.355, 74.57139
3002.283, 74.92395
3004.212, 74.66750
3006.140, 74.84036
3008.069, 75.09282
3009.997, 75.33207
3011.926, 75.48987
3013.854, 75.43082
3015.783, 74.54976
3017.711, 73.86012
3019.640, 74.57954
3021.568, 75.39104
3023.497, 75.36954
3025.425, 75.23554
3027.354, 75.36010
3029.282, 75.36972
3031.210, 75.02232
3033.139, 75.00990
3035.067, 75.10522
3036.996, 74.91630
3038.924, 75.37051
3040.853, 74.88148
3042.781, 74.85828
3044.710, 75.02515
3046.638, 75.32977
3048.567, 75.19253
3050.495, 74.75327
3052.424, 74.63084
3054.352, 74.76775
3056.281, 75.13421
3058.209, 75.55748
3060.137, 75.90343
3062.066, 76.00951
3063.994, 75.39054
3065.923, 74.99373
3067.851, 75.65654
3069.780, 76.31242
3071.708, 76.66183
3073.637, 76.62698
3075.565, 75.96297
3077.494, 75.79143
3079.422, 75.55272
3081.351, 74.92877
3083.279, 75.16376
3085.208, 74.16933
3087.136, 73.98537
3089.064, 74.33038
3090.993, 75.03780
3092.921, 75.57106
3094.850, 75.91150
3096.778, 75.97240
3098.707, 75.86048
3100.635, 75.48271
3102.564, 75.25368
3104.492, 75.68739
3106.421, 76.11289
3108.349, 76.13203
3110.278, 76.25659
3112.206, 76.91438
3114.135, 77.15250
3116.063, 76.82343
3117.991, 76.20243
3119.920, 75.17709
3121.848, 75.75761
3123.777, 75.66830
3125.705, 75.85349
3127.634, 76.71230
3129.562, 76.71690
3131.491, 77.34072
3133.419, 77.82835
3135.348, 77.91251
3137.276, 76.82222
3139.205, 75.96551
3141.133, 76.46519
3143.062, 77.14330
3144.990, 77.82221
3146.918, 77.86452
3148.847, 76.86926
3150.775, 76.48769
3152.704, 77.23891
3154.632, 77.47132
3156.561, 77.24133
3158.489, 77.68498
3160.418, 77.63229
3162.346, 77.52254
3164.275, 77.68204
3166.203, 77.26736
3168.132, 77.08031
3170.060, 76.99694
3171.989, 77.29420
3173.917, 78.60011
3175.845, 79.59041
3177.774, 79.90071
3179.702, 79.75578
3181.631, 78.77303
3183.559, 78.66945
3185.488, 79.56163
3187.416, 80.21568
3189.345, 80.55051
3191.273, 80.45182
3193.202, 80.02824
3195.130, 79.18810
3197.059, 78.64464
3198.987, 79.71560
3200.916, 80.80936
3202.844, 80.55279
3204.772, 80.20554
3206.701, 80.27410
3208.629, 80.22384
3210.558, 79.60474
3212.486, 79.97593
3214.415, 79.46490
3216.343, 79.31104
3218.272, 79.37016
3220.200, 79.29345
3222.129, 80.43630
3224.057, 81.43253
3225.986, 82.06457
3227.914, 82.00841
3229.843, 81.65398
3231.771, 81.04558
3233.699, 80.64580
3235.628, 80.57854
3237.556, 80.83540
3239.485, 80.80662
3241.413, 80.93567
3243.342, 81.29379
3245.270, 81.24355
3247.199, 81.62259
3249.127, 81.96453
3251.056, 82.25012
3252.984, 82.48244
3254.913, 82.58132
3256.841, 82.36137
3258.770, 82.18421
3260.698, 82.51934
3262.626, 82.29206
3264.555, 82.40953
3266.483, 82.82779
3268.412, 82.52731
3270.340, 83.42059
3272.269, 83.57749
3274.197, 83.23463
3276.126, 82.66061
3278.054, 82.30520
3279.983, 82.12722
3281.911, 82.15271
3283.840, 82.23653
3285.768, 82.43925
3287.697, 82.36449
3289.625, 82.48063
3291.553, 82.70524
3293.482, 82.53358
3295.410, 82.94799
3297.339, 82.93858
3299.267, 82.52790
3301.196, 82.21146
3303.124, 83.37263
3305.053, 84.41798
3306.981, 83.22460
3308.910, 82.24003
3310.838, 82.61018
3312.767, 83.11516
3314.695, 83.49889
3316.624, 83.89790
3318.552, 84.29361
3320.480, 83.67453
3322.409, 82.44933
3324.337, 82.19221
3326.266, 82.44463
3328.194, 82.44601
3330.123, 82.72258
3332.051, 84.18970
3333.980, 85.01944
3335.908, 84.56136
3337.837, 84.05212
3339.765, 83.71774
3341.694, 83.19365
3343.622, 82.58555
3345.551, 83.18657
3347.479, 83.02959
3349.407, 84.03946
3351.336, 83.78085
3353.264, 84.96526
3355.193, 85.65383
3357.121, 84.49393
3359.050, 83.57710
3360.978, 83.13281
3362.907, 83.27692
3364.835, 83.94101
3366.764, 84.16904
3368.692, 84.10908
3370.621, 84.28657
3372.549, 84.21767
3374.478, 82.73098
3376.406, 82.05762
3378.334, 83.76202
3380.263, 84.93934
3382.191, 84.90307
3384.120, 84.74700
3386.048, 84.54477
3387.977, 84.71789
3389.905, 85.05712
3391.834, 85.00814
3393.762, 84.96468
3395.691, 85.54997
3397.619, 85.93685
3399.548, 85.52306
3401.476, 85.39693
3403.405, 85.76279
3405.333, 85.87134
3407.261, 85.73013
3409.190, 85.78138
3411.118, 85.96700
3413.047, 86.24773
3414.975, 86.48524
3416.904, 86.59397
3418.832, 86.57930
3420.761, 86.40994
3422.689, 86.30930
3424.618, 86.32742
3426.546, 86.24656
3428.475, 86.11730
3430.403, 86.06874
3432.332, 86.37907
3434.260, 88.06441
3436.188, 89.23941
3438.117, 88.62545
3440.045, 87.78523
3441.974, 86.84606
3443.902, 87.01492
3445.831, 86.72869
3447.759, 86.77483
3449.688, 87.16421
3451.616, 87.26115
3453.545, 87.66220
3455.473, 87.96915
3457.402, 88.01228
3459.330, 88.45091
3461.259, 87.48183
3463.187, 88.99229
3465.115, 89.79936
3467.044, 89.87219
3468.972, 88.90952
3470.901, 87.91251
3472.829, 88.27416
3474.758, 88.64216
3476.686, 88.03850
3478.615, 87.85414
3480.543, 88.36670
3482.472, 88.57351
3484.400, 88.47948
3486.329, 88.38590
3488.257, 88.42768
3490.186, 89.08960
3492.114, 89.47285
3494.042, 88.76305
3495.971, 88.35851
3497.899, 88.74361
3499.828, 88.86869
3501.756, 88.76675
3503.685, 89.44217
3505.613, 89.49957
3507.542, 90.20085
3509.470, 90.02121
3511.399, 90.51307
3513.327, 90.66770
3515.256, 90.75407
3517.184, 90.86320
3519.113, 90.78993
3521.041, 90.75494
3522.969, 90.26091
3524.898, 90.08300
3526.826, 90.01311
3528.755, 89.81862
3530.683, 89.96104
3532.612, 90.71108
3534.540, 90.31458
3536.469, 88.89659
3538.397, 88.84527
3540.326, 89.43441
3542.254, 89.66164
3544.183, 89.52686
3546.111, 88.64069
3548.040, 88.18857
3549.968, 88.35802
3551.896, 89.11034
3553.825, 90.20639
3555.753, 90.21072
3557.682, 89.80344
3559.610, 89.70008
3561.539, 89.94373
3563.467, 90.82238
3565.396, 91.11064
3567.324, 90.45683
3569.253, 90.29932
3571.181, 90.46351
3573.110, 90.02670
3575.038, 89.70557
3576.967, 90.62071
3578.895, 91.19095
3580.823, 90.71941
3582.752, 90.81152
3584.680, 91.67470
3586.609, 91.14029
3588.537, 91.37869
3590.466, 90.59719
3592.394, 91.18677
3594.323, 90.73759
3596.251, 90.63288
3598.180, 91.61156
3600.108, 91.89072
3602.037, 91.60540
3603.965, 91.19235
3605.894, 91.01842
3607.822, 91.77334
3609.750, 92.64361
3611.679, 93.71346
3613.607, 93.41148
3615.536, 91.67420
3617.464, 90.89481
3619.393, 90.92428
3621.321, 91.59837
3623.250, 92.36084
3625.178, 92.92081
3627.107, 93.15213
3629.035, 92.86756
3630.964, 93.39799
3632.892, 93.21504
3634.821, 93.99881
3636.749, 93.19419
3638.677, 92.98179
3640.606, 93.08533
3642.534, 93.58792
3644.463, 94.04075
3646.391, 94.33044
3648.320, 93.25872
3650.248, 93.67794
3652.177, 92.69675
3654.105, 93.47974
3656.034, 92.74678
3657.962, 92.69630
3659.891, 93.54560
3661.819, 94.20625
3663.748, 94.67921
3665.676, 95.25508
3667.604, 95.43203
3669.533, 94.49425
3671.461, 93.78311
3673.390, 93.48109
3675.318, 94.42417
3677.247, 96.04568
3679.175, 96.27772
3681.104, 95.66555
3683.032, 94.09724
3684.961, 93.31751
3686.889, 93.87322
3688.818, 94.74252
3690.746, 95.58228
3692.675, 94.59512
3694.603, 93.38481
3696.531, 93.76463
3698.460, 94.47066
3700.388, 95.21973
3702.317, 95.49358
3704.245, 95.28566
3706.174, 94.95757
3708.102, 94.56689
3710.031, 94.00554
3711.959, 93.77567
3713.888, 94.16255
3715.816, 94.87529
3717.745, 95.71171
3719.673, 94.95716
3721.602, 93.75907
3723.530, 93.70805
3725.458, 93.83895
3727.387, 93.70698
3729.315, 93.82912
3731.244, 94.17315
3733.172, 94.13402
3735.101, 94.14994
3737.029, 95.07633
3738.958, 95.80074
3740.886, 95.70943
3742.815, 95.90048
3744.743, 96.27162
3746.672, 95.33901
3748.600, 94.30198
3750.529, 95.02786
3752.457, 95.50188
3754.385, 94.62300
3756.314, 94.36358
3758.242, 94.62852
3760.171, 94.22047
3762.099, 93.87886
3764.028, 94.56264
3765.956, 95.31499
3767.885, 95.96353
3769.813, 95.93264
3771.742, 95.35974
3773.670, 94.77830
3775.599, 94.46893
3777.527, 94.41541
3779.456, 95.06291
3781.384, 94.80357
3783.313, 95.14294
3785.241, 95.71141
3787.169, 95.14966
3789.098, 94.63685
3791.026, 95.04708
3792.955, 95.44798
3794.883, 95.68956
3796.812, 95.33730
3798.740, 94.82701
3800.669, 95.14454
3802.597, 95.42395
3804.526, 94.99607
3806.454, 95.68046
3808.383, 94.99967
3810.311, 96.27026
3812.240, 94.34877
3814.168, 95.13064
3816.096, 95.82213
3818.025, 95.33520
3819.953, 95.62126
3821.882, 96.50586
3823.810, 96.37872
3825.739, 96.05868
3827.667, 96.35432
3829.596, 96.63273
3831.524, 96.83041
3833.453, 95.92794
3835.381, 94.82015
3837.310, 96.12540
3839.238, 97.02756
3841.167, 95.53198
3843.095, 95.22929
3845.023, 96.44554
3846.952, 97.35876
3848.880, 97.92020
3850.809, 98.04787
3852.737, 97.96416
3854.666, 97.71195
3856.594, 97.79462
3858.523, 98.16338
3860.451, 98.72964
3862.380, 99.17080
3864.308, 99.13988
3866.237, 99.22192
3868.165, 99.44044
3870.094, 99.19582
3872.022, 98.67537
3873.950, 97.82156
3875.879, 97.64418
3877.807, 98.79792
3879.736, 99.79028
3881.664, 100.4350
3883.593, 99.98180
3885.521, 99.38968
3887.450, 99.47062
3889.378, 99.61021
3891.307, 99.64362
3893.235, 100.2390
3895.164, 100.7118
3897.092, 99.85379
3899.021, 99.40482
3900.949, 99.91477
3902.877, 100.4085
3904.806, 100.7297
3906.734, 100.9744
3908.663, 101.3308
3910.591, 101.7965
3912.520, 101.7598
3914.448, 101.1268
3916.377, 99.87765
3918.305, 98.89570
3920.234, 99.03647
3922.162, 99.16812
3924.091, 99.03674
3926.019, 99.88322
3927.948, 101.5220
3929.876, 103.0490
3931.804, 103.3254
3933.733, 103.4972
3935.661, 101.5728
3937.590, 102.2643
3939.518, 101.3095
3941.447, 100.1548
3943.375, 100.3306
3945.304, 100.3615
3947.232, 99.94954
3949.161, 100.6575
3951.089, 101.4948
3953.018, 101.3476
3954.946, 101.2939
3956.875, 100.9876
3958.803, 101.0566
3960.731, 101.4945
3962.660, 102.0174
3964.588, 102.2465
3966.517, 101.5508
3968.445, 101.0246
3970.374, 101.1665
3972.302, 101.7670
3974.231, 101.8268
3976.159, 101.8886
3978.088, 100.2327
3980.016, 101.3557
3981.945, 101.1546
3983.873, 99.96404
3985.802, 100.3840
3987.730, 100.7310
3989.658, 99.92642
3991.587, 100.2001
3993.515, 101.0888
3995.444, 100.7124
3997.372, 100.7211
3999.301, 102.1773
4001.229, 102.7200
4003.158, 102.0281
4005.086, 102.7605
4007.015, 102.4971
4008.943, 102.4065
4010.872, 102.4098
4012.800, 101.4962
4014.729, 101.5974
4016.657, 102.1199
4018.585, 102.3404
4020.514, 101.3906
4022.442, 100.3101
4024.371, 100.9576
4026.299, 101.4672
4028.228, 101.6880
4030.156, 101.9556
4032.085, 101.7111
4034.013, 102.1134
4035.942, 102.1973
4037.870, 102.2452
4039.799, 102.6246
4041.727, 101.9325
4043.656, 102.1551
4045.584, 102.4866
4047.512, 101.7315
4049.441, 101.5293
4051.369, 101.9497
4053.298, 101.2236
4055.226, 100.9647
4057.155, 101.9875
4059.083, 102.2970
4061.012, 102.1995
4062.940, 103.1382
4064.869, 103.1463
4066.797, 102.2589
4068.726, 102.3166
4070.654, 102.6333
4072.583, 102.9862
4074.511, 103.3635
4076.439, 103.6161
4078.368, 103.3319
4080.296, 102.9379
4082.225, 103.2634
4084.153, 103.5153
4086.082, 103.1627
4088.010, 102.7140
4089.939, 102.7408
4091.867, 102.8368
4093.796, 103.2002
4095.724, 103.1959
4097.653, 104.7363
4099.581, 103.6034
4101.510, 104.2687
4103.438, 104.9425
4105.367, 104.2725
4107.295, 104.4935
4109.224, 105.4242
4111.152, 105.2688
4113.081, 105.3744
4115.009, 106.6396
4116.938, 106.6489
4118.866, 105.5496
4120.794, 104.5314
4122.723, 104.3536
4124.651, 104.4279
4126.580, 106.6133
4128.508, 105.6482
4130.437, 106.9345
4132.365, 107.8615
4134.293, 105.7533
4136.222, 104.5524
4138.150, 104.6513
4140.079, 106.3757
4142.007, 107.3839
4143.936, 105.4444
4145.864, 104.5789
4147.793, 105.0200
4149.721, 106.1482
4151.650, 106.8298
4153.578, 106.1973
4155.507, 106.2823
4157.435, 107.0823
4159.364, 106.6692
4161.292, 106.3452
4163.221, 107.3685
4165.149, 106.7891
4167.078, 105.0738
4169.006, 105.7446
4170.935, 106.7340
4172.863, 106.9789
4174.792, 107.6847
4176.720, 108.5262
4178.648, 107.3534
4180.577, 106.2640
4182.505, 106.2601
4184.434, 106.5237
4186.362, 107.1032
4188.291, 107.3653
4190.219, 107.2185
4192.147, 106.7629
4194.076, 106.8913
4196.004, 107.2816
4197.933, 107.6803
4199.861, 107.6083
4201.790, 107.6837
4203.718, 107.5803
4205.647, 107.3434
4207.575, 107.1701
4209.504, 106.8545
4211.432, 106.6602
4213.361, 106.8237
4215.289, 106.9832
4217.218, 105.8380
4219.146, 105.4252
4221.075, 106.5080
4223.003, 107.2765
4224.932, 107.5069
4226.860, 107.0967
4228.789, 106.8719
4230.717, 106.8535
4232.646, 106.5020
4234.574, 105.9936
4236.502, 104.8858
4238.431, 105.5012
4240.359, 107.6621
4242.288, 107.9234
4244.216, 107.7233
4246.145, 108.3320
4248.073, 108.3768
4250.001, 107.8601
4251.930, 107.3397
4253.858, 106.7290
4255.787, 105.7375
4257.715, 106.9287
4259.644, 106.4626
4261.572, 108.1958
4263.501, 107.2780
4265.429, 107.4007
4267.358, 108.3367
4269.286, 109.1625
4271.215, 107.9532
4273.143, 107.3696
4275.072, 107.9084
4277.000, 108.5089
4278.929, 108.9889
4280.857, 109.2243
4282.786, 109.2358
4284.714, 109.1125
4286.643, 109.3564
4288.571, 109.5521
4290.500, 109.4521
4292.428, 109.1586
4294.356, 108.7719
4296.285, 108.2692
4298.213, 108.4005
4300.142, 109.4135
4302.070, 110.4967
4303.999, 111.3350
4305.927, 111.7289
4307.855, 111.1410
4309.784, 109.7169
4311.712, 109.7055
4313.641, 110.2305
4315.569, 110.6296
4317.498, 110.6376
4319.426, 110.4214
4321.355, 110.7592
4323.283, 110.9420
4325.212, 110.5593
4327.140, 110.8170
4329.069, 111.3117
4330.997, 111.3477
4332.926, 110.9015
4334.854, 110.0808
4336.783, 110.9864
4338.711, 112.3419
4340.640, 113.3079
4342.568, 112.8344
4344.497, 111.3921
4346.425, 110.9307
4348.354, 111.2028
4350.282, 110.8002
4352.210, 111.1096
4354.139, 111.3285
4356.067, 111.7584
4357.996, 112.3026
4359.924, 112.7126
4361.853, 112.9766
4363.781, 113.2130
4365.709, 113.3705
4367.638, 113.2066
4369.566, 113.2857
4371.495, 113.5869
4373.423, 112.8992
4375.352, 114.1500
4377.280, 114.8690
4379.209, 114.9195
4381.137, 113.9833
4383.066, 112.8602
4384.994, 111.9988
4386.923, 114.0152
4388.851, 114.8587
4390.780, 112.6245
4392.708, 111.4372
4394.637, 111.4213
4396.565, 112.9649
4398.494, 113.6306
4400.422, 113.1957
4402.351, 112.8355
4404.279, 112.6588
4406.208, 112.7036
4408.136, 113.1394
4410.064, 113.6146
4411.993, 113.3406
4413.921, 113.1770
4415.850, 113.3169
4417.778, 113.1529
4419.707, 113.1637
4421.635, 113.9424
4423.563, 114.1516
4425.492, 113.8662
4427.420, 113.1881
4429.349, 112.9695
4431.277, 113.4090
4433.206, 112.0185
4435.134, 111.0661
4437.063, 112.4832
4438.991, 112.7954
4440.920, 112.2357
4442.848, 111.8212
4444.777, 112.0715
4446.705, 111.7095
4448.634, 111.5147
4450.562, 111.5676
4452.491, 111.1831
4454.419, 111.0416
4456.348, 111.2722
4458.276, 112.4856
4460.205, 113.2340
4462.133, 113.1772
4464.062, 113.5598
4465.990, 113.9146
4467.918, 113.9482
4469.847, 113.6414
4471.775, 113.2704
4473.704, 113.6109
4475.632, 112.9498
4477.561, 111.3468
4479.489, 111.5220
4481.417, 111.5238
4483.346, 110.2043
4485.274, 110.4403
4487.203, 111.3493
4489.131, 111.5049
4491.060, 111.6904
4492.988, 111.9916
4494.917, 112.2203
4496.845, 112.4809
4498.774, 112.8203
4500.702, 113.2325
4502.631, 113.4362
4504.559, 112.9454
4506.488, 113.7939
4508.416, 114.9857
4510.345, 112.6687
4512.273, 111.5908
4514.202, 112.6331
4516.130, 112.5629
4518.059, 112.4807
4519.987, 113.3145
4521.916, 114.2126
4523.844, 114.6334
4525.772, 113.3120
4527.701, 112.3473
4529.629, 112.1351
4531.558, 112.0387
4533.486, 111.7806
4535.415, 113.0126
4537.343, 112.6859
4539.271, 113.4360
4541.200, 113.2098
4543.128, 113.1223
4545.057, 112.8586
4546.985, 112.9778
4548.914, 113.5208
4550.842, 114.0402
4552.771, 113.9643
4554.699, 114.1690
4556.628, 115.0998
4558.556, 115.2122
4560.485, 115.2416
4562.413, 115.2086
4564.342, 114.8547
4566.270, 114.4270
4568.199, 113.8830
4570.127, 113.3224
4572.056, 112.6873
4573.984, 112.4264
4575.913, 112.8670
4577.841, 114.3182
4579.770, 114.3792
4581.698, 114.3246
4583.626, 115.4414
4585.555, 115.1743
4587.483, 114.2851
4589.412, 114.6336
4591.340, 114.9737
4593.269, 115.0125
4595.197, 114.1497
4597.125, 113.9254
4599.054, 115.0001
4600.982, 115.9169
4602.911, 116.2126
4604.839, 115.4249
4606.768, 116.2075
4608.696, 116.9893
4610.625, 115.0886
4612.553, 113.5943
4614.482, 112.9033
4616.410, 112.7993
4618.339, 113.9302
4620.267, 116.1904
4622.196, 115.9930
4624.124, 116.0240
4626.053, 117.4006
4627.981, 116.6708
4629.910, 115.6581
4631.838, 116.1963
4633.767, 116.3203
4635.695, 116.2709
4637.624, 116.7108
4639.552, 116.8316
4641.480, 116.7221
4643.409, 117.1567
4645.337, 117.1892
4647.266, 116.5740
4649.194, 114.6598
4651.123, 113.5016
4653.051, 114.3031
4654.979, 113.4914
4656.908, 113.3638
4658.836, 113.6770
4660.765, 115.4527
4662.693, 113.9156
4664.622, 115.5402
4666.550, 115.5608
4668.479, 114.4990
4670.407, 114.7485
4672.336, 114.7747
4674.264, 114.4259
4676.193, 114.3000
4678.121, 114.6515
4680.050, 115.4582
4681.978, 116.2624
4683.907, 116.3988
4685.835, 115.5025
4687.764, 114.0723
4689.692, 113.2941
4691.621, 114.3049
4693.549, 115.1103
4695.478, 115.4435
4697.406, 115.0051
4699.334, 114.5506
4701.263, 114.2032
4703.191, 113.6329
4705.120, 115.0809
4707.048, 117.4545
4708.977, 114.4694
4710.905, 113.6368
4712.833, 115.7899
4714.762, 115.5979
4716.690, 114.8945
4718.619, 114.4347
4720.547, 113.4673
4722.476, 112.9549
4724.404, 113.4590
4726.333, 113.4156
4728.261, 113.5951
4730.190, 113.5617
4732.118, 113.9851
4734.047, 113.2194
4735.975, 113.7818
4737.904, 113.5022
4739.832, 114.1221
4741.761, 114.1753
4743.689, 114.7467
4745.618, 115.2590
4747.546, 114.8166
4749.475, 114.5330
4751.403, 114.4512
4753.332, 113.6437
4755.260, 114.0440
4757.188, 113.8171
4759.117, 113.5306
4761.045, 114.1893
4762.974, 113.4962
4764.902, 114.1951
4766.831, 115.0491
4768.759, 115.4744
4770.688, 113.6975
4772.616, 112.5726
4774.544, 113.9047
4776.473, 113.9478
4778.401, 114.5416
4780.330, 117.4267
4782.258, 114.8944
4784.187, 112.1583
4786.115, 114.5920
4788.044, 114.8869
4789.972, 114.2608
4791.901, 114.5855
4793.829, 115.1057
4795.758, 115.6180
4797.686, 116.1290
4799.615, 115.6869
4801.543, 114.6486
4803.472, 113.5530
4805.400, 113.0205
4807.329, 113.2168
4809.257, 114.9288
4811.186, 115.1774
4813.114, 114.4163
4815.042, 115.1719
4816.971, 115.0052
4818.899, 114.1200
4820.828, 114.7821
4822.756, 115.3783
4824.685, 115.5573
4826.613, 115.4083
4828.542, 114.6044
4830.470, 113.5134
4832.398, 114.9417
4834.327, 115.4627
4836.255, 114.7200
4838.184, 115.8430
4840.112, 115.9790
4842.041, 114.5943
4843.969, 115.1753
4845.898, 115.7047
4847.826, 115.5669
4849.755, 114.7531
4851.683, 114.5237
4853.612, 115.2568
4855.540, 115.4858
4857.469, 115.6238
4859.397, 115.7535
4861.326, 115.1339
4863.254, 114.7085
4865.183, 114.8744
4867.111, 114.5726
4869.040, 114.4623
4870.968, 114.6526
4872.896, 114.3477
4874.825, 114.5448
4876.753, 114.7874
4878.682, 115.5553
4880.610, 116.1410
4882.539, 116.2457
4884.467, 115.4683
4886.396, 115.0316
4888.324, 115.3759
4890.252, 115.5573
4892.181, 115.8513
4894.109, 116.2815
4896.038, 116.0365
4897.966, 116.0953
4899.895, 115.5143
4901.823, 115.5735
4903.752, 115.1826
4905.680, 114.6129
4907.609, 115.0802
4909.537, 115.0154
4911.466, 114.2723
4913.394, 115.8156
4915.323, 116.5605
4917.251, 115.7680
4919.180, 116.4743
4921.108, 116.0755
4923.037, 114.5293
4924.965, 115.1651
4926.894, 115.1485
4928.822, 114.1574
4930.750, 114.7295
4932.679, 115.7869
4934.607, 116.5262
4936.536, 114.6321
4938.464, 113.9501
4940.393, 114.5633
4942.321, 113.8827
4944.250, 114.4683
4946.178, 115.9081
4948.106, 116.0841
4950.035, 115.4090
4951.963, 114.4847
4953.892, 114.0831
4955.820, 113.8608
4957.749, 113.9878
4959.677, 114.2814
4961.606, 114.4730
4963.534, 114.7516
4965.463, 115.1884
4967.391, 115.1515
4969.320, 115.2682
4971.248, 115.0481
4973.177, 114.5226
4975.105, 114.2571
4977.034, 114.7862
4978.962, 114.3434
4980.891, 114.3865
4982.819, 114.5401
4984.748, 114.5870
4986.676, 115.4799
4988.604, 116.5792
4990.533, 114.9821
4992.461, 114.0744
4994.390, 115.2604
4996.318, 114.6415
4998.247, 113.9777
5000.175, 113.8103
5002.104, 113.8279
5004.032, 114.6066
5005.960, 114.0604
5007.889, 114.0525
5009.817, 113.3810
5011.746, 113.6259
5013.674, 113.0497
5015.603, 113.0805
5017.531, 113.3681
5019.460, 112.7620
5021.388, 113.3836
5023.317, 114.3012
5025.245, 114.2998
5027.174, 114.0000
5029.102, 113.5249
5031.031, 112.8828
5032.959, 112.8470
5034.888, 113.1190
5036.816, 113.5129
5038.745, 113.5849
5040.673, 113.4725
5042.602, 113.2437
5044.530, 112.8517
5046.458, 112.6361
5048.387, 112.6062
5050.315, 112.2642
5052.244, 112.5036
5054.172, 112.2803
5056.101, 112.3186
5058.029, 111.9194
5059.958, 111.7158
5061.886, 111.1693
5063.814, 112.4207
5065.743, 113.4385
5067.671, 112.3721
5069.600, 112.4029
5071.528, 112.5035
5073.457, 111.9691
5075.385, 111.1061
5077.314, 111.2813
5079.242, 110.7420
5081.171, 111.3589
5083.099, 110.8643
5085.028, 111.4842
5086.956, 112.8362
5088.885, 112.9196
5090.813, 112.2402
5092.742, 111.8553
5094.670, 112.4209
5096.599, 113.0971
5098.527, 113.0985
5100.456, 111.5606
5102.384, 110.6318
5104.313, 111.6093
5106.241, 110.8269
5108.169, 111.0656
5110.098, 112.7097
5112.026, 112.7576
5113.955, 113.6198
5115.883, 114.8275
5117.812, 114.2314
5119.740, 113.8324
5121.668, 113.6447
5123.597, 113.4629
5125.525, 113.4613
5127.454, 113.3128
5129.382, 113.6611
5131.311, 113.4677
5133.239, 113.5656
5135.168, 114.3133
5137.096, 112.7159
5139.025, 112.2183
5140.953, 112.8755
5142.882, 113.1131
5144.810, 113.8083
5146.739, 113.9578
5148.667, 111.3449
5150.596, 113.7022
5152.524, 115.2433
5154.453, 112.7715
5156.381, 110.8507
5158.310, 111.3081
5160.238, 110.3687
5162.167, 112.4757
5164.095, 111.5699
5166.023, 111.6436
5167.952, 113.7367
5169.880, 113.3799
5171.809, 113.1239
5173.737, 115.2585
5175.666, 113.1819
5177.594, 112.1964
5179.522, 114.1622
5181.451, 112.5966
5183.379, 112.4665
5185.308, 113.4084
5187.236, 111.6447
5189.165, 112.7380
5191.093, 114.4239
5193.022, 113.6376
5194.950, 113.9203
5196.879, 114.0858
5198.807, 113.4601
5200.736, 111.6632
5202.664, 110.5501
5204.593, 110.7220
5206.521, 113.1623
5208.450, 113.0524
5210.378, 111.9073
5212.307, 111.8330
5214.235, 111.7112
5216.164, 111.9902
5218.092, 112.6853
5220.021, 112.4048
5221.949, 110.9793
5223.877, 109.5240
5225.806, 110.5344
5227.734, 112.0644
5229.663, 112.6206
5231.591, 110.8939
5233.520, 110.2018
5235.448, 110.8713
5237.376, 110.1262
5239.305, 111.5542
5241.233, 110.9300
5243.162, 111.0421
5245.090, 112.7514
5247.019, 111.2900
5248.947, 109.5433
5250.876, 109.5767
5252.804, 110.2314
5254.733, 111.3166
5256.661, 112.3011
5258.590, 111.5898
5260.518, 111.6932
5262.447, 111.8702
5264.375, 110.8021
5266.304, 111.3501
5268.232, 111.2456
5270.161, 109.9317
5272.089, 109.9104
5274.018, 110.1951
5275.946, 110.4702
5277.875, 110.6304
5279.803, 110.5184
5281.731, 110.1818
5283.660, 109.6996
5285.588, 109.8961
5287.517, 109.2552
5289.445, 109.8258
5291.374, 109.5621
5293.302, 110.8195
5295.230, 111.3415
5297.159, 111.6765
5299.087, 111.2305
5301.016, 111.0191
5302.944, 109.4977
5304.873, 107.7572
5306.801, 108.8312
5308.730, 110.4520
5310.658, 110.0563
5312.587, 108.9692
5314.515, 107.9991
5316.444, 107.6185
5318.372, 108.7987
5320.301, 109.1935
5322.229, 109.2407
5324.158, 109.7953
5326.086, 110.0017
5328.015, 109.8142
5329.943, 109.2685
5331.872, 109.7738
5333.800, 108.7645
5335.729, 110.1491
5337.657, 110.0251
5339.585, 109.5685
5341.514, 109.0221
5343.442, 108.7198
5345.371, 109.8528
5347.299, 110.5649
5349.228, 110.2785
5351.156, 108.1708
5353.084, 108.6294
5355.013, 108.7338
5356.941, 107.9286
5358.870, 108.5601
5360.798, 109.0113
5362.727, 109.3168
5364.655, 109.7380
5366.584, 107.9005
5368.512, 108.2010
5370.441, 107.5929
5372.369, 108.3239
5374.298, 107.3273
5376.226, 107.6377
5378.155, 108.7711
5380.083, 108.6019
5382.012, 108.2132
5383.940, 108.1153
5385.869, 108.9375
5387.797, 108.4426
5389.726, 107.9447
5391.654, 108.3266
5393.583, 109.5465
5395.511, 109.1066
5397.439, 107.6464
5399.368, 106.8281
5401.296, 108.1543
5403.225, 108.7470
5405.153, 107.7317
5407.082, 107.2950
5409.010, 107.7244
5410.938, 108.1196
5412.867, 107.5286
5414.795, 107.1136
5416.724, 106.1089
5418.652, 105.1775
5420.581, 106.5254
5422.509, 106.5053
5424.438, 106.3588
5426.366, 106.9843
5428.295, 106.9272
5430.223, 106.9002
5432.152, 106.7928
5434.080, 106.2100
5436.009, 105.8009
5437.937, 105.6534
5439.866, 105.1753
5441.794, 105.3335
5443.723, 104.4921
5445.651, 104.3673
5447.580, 104.0024
5449.508, 104.3849
5451.437, 103.9674
5453.365, 104.5954
5455.293, 105.5187
5457.222, 104.5619
5459.150, 104.9794
5461.079, 106.6798
5463.007, 105.1976
5464.936, 104.9517
5466.864, 104.4561
5468.792, 102.5619
5470.721, 102.3847
5472.649, 103.5622
5474.578, 104.5579
5476.506, 103.4369
5478.435, 103.3949
5480.363, 102.6474
5482.292, 101.6152
5484.220, 102.9926
5486.149, 102.3678
5488.077, 101.9603
5490.006, 102.9794
5491.934, 103.4229
5493.863, 102.9916
5495.791, 102.7296
5497.720, 103.7061
5499.648, 104.3011
5501.577, 102.8074
5503.505, 100.9301
5505.434, 101.9123
5507.362, 102.1720
5509.291, 101.9421
5511.219, 101.6270
5513.147, 101.6907
5515.076, 101.8961
5517.004, 102.2844
5518.933, 102.7119
5520.861, 101.7044
5522.790, 101.4638
5524.718, 101.2629
5526.646, 100.2768
5528.575, 100.8325
5530.503, 101.9736
5532.432, 102.7137
5534.360, 102.1565
5536.289, 100.9761
5538.217, 100.8088
5540.146, 101.1895
5542.074, 99.53642
5544.003, 100.3314
5545.931, 100.8493
5547.860, 100.4334
5549.788, 101.4375
5551.717, 101.1141
5553.645, 100.5215
5555.574, 100.4441
5557.502, 100.5930
5559.431, 99.60423
5561.359, 99.47847
5563.288, 99.62369
5565.216, 100.2788
5567.145, 100.0540
5569.073, 100.6549
5571.001, 100.8426
5572.930, 100.1646
5574.858, 101.0946
5576.787, 100.4441
5578.715, 101.2876
5580.644, 99.86450
5582.572, 99.10804
5584.500, 99.00056
5586.429, 98.91759
5588.357, 100.5381
5590.286, 101.9701
5592.214, 102.4146
5594.143, 101.8736
5596.071, 100.2554
5598.000, 99.46579
5599.928, 99.70607
5601.857, 99.28651
5603.785, 98.52177
5605.714, 98.93372
5607.642, 98.45901
5609.571, 99.48731
5611.499, 98.72820
5613.428, 99.08150
5615.356, 100.3357
5617.285, 99.53847
5619.213, 98.59949
5621.142, 98.51924
5623.070, 99.28584
5624.999, 98.04173
5626.927, 98.55559
5628.855, 98.76462
5630.784, 97.56132
5632.712, 98.84934
5634.641, 98.02982
5636.569, 97.44960
5638.498, 98.57857
5640.426, 97.44738
5642.354, 97.22218
5644.283, 97.31452
5646.211, 96.96171
5648.140, 95.77904
5650.068, 97.10705
5651.997, 98.15804
5653.925, 96.82588
5655.854, 97.89703
5657.782, 95.19549
5659.711, 97.48219
5661.639, 97.91381
5663.568, 96.41980
5665.496, 95.85738
5667.425, 95.86536
5669.353, 95.96429
5671.282, 96.92868
5673.210, 96.06805
5675.139, 95.22997
5677.067, 95.62064
5678.996, 94.53520
5680.924, 94.80062
5682.853, 93.49097
5684.781, 94.43613
5686.709, 94.61604
5688.638, 94.85630
5690.566, 95.08536
5692.495, 95.10174
5694.423, 94.59310
5696.352, 94.54880
5698.280, 93.39684
5700.208, 94.10633
5702.137, 93.92159
5704.065, 94.12215
5705.994, 94.51575
5707.922, 94.80961
5709.851, 94.69629
5711.779, 93.75053
5713.708, 93.95067
5715.636, 94.76378
5717.565, 94.14807
5719.493, 95.05695
5721.422, 93.68430
5723.350, 94.14234
5725.279, 92.93002
5727.207, 93.86092
5729.136, 93.44919
5731.064, 92.38755
5732.993, 91.70305
5734.921, 91.61845
5736.850, 92.44519
5738.778, 91.81733
5740.707, 92.15707
5742.635, 92.87675
5744.563, 91.89628
5746.492, 90.96436
5748.420, 90.95284
5750.349, 90.92110
5752.277, 92.38560
5754.206, 93.19543
5756.134, 93.02162
5758.063, 93.13283
5759.991, 91.32564
5761.919, 90.59456
5763.848, 90.58558
5765.776, 89.79084
5767.705, 91.60396
5769.633, 91.69179
5771.562, 90.56510
5773.490, 89.71711
5775.419, 90.01845
5777.347, 91.16447
5779.276, 91.95286
5781.204, 92.12753
5783.133, 94.17001
5785.061, 91.39066
5786.990, 90.30229
5788.918, 91.37297
5790.847, 88.87489
5792.775, 90.83060
5794.704, 91.07433
5796.632, 90.40011
5798.561, 91.70110
5800.489, 90.50746
5802.417, 91.12720
5804.346, 91.61982
5806.274, 90.52792
5808.203, 90.50929
5810.131, 89.18958
5812.060, 88.37019
5813.988, 88.70931
5815.917, 89.47212
5817.845, 89.86897
5819.773, 89.56508
5821.702, 90.06422
5823.630, 90.02788
5825.559, 90.15437
5827.487, 90.14416
5829.416, 89.81020
5831.344, 89.82219
5833.273, 88.85977
5835.201, 87.68394
5837.130, 87.98820
5839.058, 87.10842
5840.987, 88.57476
5842.915, 86.86964
5844.844, 86.45851
5846.772, 87.39014
5848.701, 88.56523
5850.629, 86.87472
5852.558, 86.65718
5854.486, 86.35239
5856.415, 85.89687
5858.343, 87.30736
5860.271, 88.75857
5862.200, 89.15466
5864.128, 88.51878
5866.057, 87.32590
5867.985, 86.76315
5869.914, 86.10973
5871.842, 86.47940
5873.771, 85.68011
5875.699, 86.09315
5877.627, 85.00525
5879.556, 85.50551
5881.484, 85.81490
5883.413, 84.03426
5885.341, 85.02092
5887.270, 83.78530
5889.198, 84.17923
5891.127, 84.09315
5893.055, 83.67074
5894.984, 84.30145
5896.912, 83.83289
5898.841, 84.68553
5900.769, 85.88509
5902.698, 85.96823
5904.626, 85.53039
5906.555, 84.83054
5908.483, 84.14469
5910.412, 83.78460
5912.340, 84.21726
5914.269, 82.95155
5916.197, 82.97652
5918.125, 85.60599
5920.054, 85.36855
5921.982, 85.01915
5923.911, 84.74424
5925.839, 83.86281
5927.768, 81.81464
5929.696, 81.24848
5931.625, 81.98044
5933.553, 83.36478
5935.481, 84.36772
5937.410, 82.96704
5939.338, 82.04872
5941.267, 81.03432
5943.195, 81.36899
5945.124, 81.30331
5947.052, 82.31585
5948.981, 82.26180
5950.909, 82.56824
5952.838, 82.84781
5954.766, 83.21159
5956.695, 82.10688
5958.623, 82.02766
5960.552, 80.41914
5962.480, 82.39953
5964.409, 83.46637
5966.337, 83.66888
5968.266, 80.41789
5970.194, 81.62636
5972.123, 81.04763
5974.051, 80.39570
5975.979, 82.23178
5977.908, 79.48309
5979.836, 81.27973
5981.765, 81.26192
5983.693, 82.07458
5985.622, 81.08901
5987.550, 80.65892
5989.479, 82.02747
5991.407, 82.40011
5993.335, 81.20763
5995.264, 82.07301
5997.192, 79.26158
5999.121, 79.67659
6001.049, 81.48376
6002.978, 80.38162
6004.906, 80.24998
6006.835, 81.03844
6008.763, 81.25005
6010.692, 79.74255
6012.620, 79.36122
6014.549, 79.57249
6016.477, 79.90639
6018.406, 79.89050
6020.334, 78.57151
6022.263, 80.32896
6024.191, 79.43394
6026.120, 78.08066
6028.048, 78.60920
6029.977, 79.97981
6031.905, 79.73757
6033.833, 79.98715
6035.762, 79.82618
6037.690, 78.68397
6039.619, 79.11878
6041.547, 78.04507
6043.476, 77.41769
6045.404, 77.34977
6047.333, 77.47536
6049.261, 77.47056
6051.189, 78.46140
6053.118, 78.21802
6055.046, 78.55833
6056.975, 79.42014
6058.903, 77.96151
6060.832, 77.16891
6062.760, 76.71919
6064.689, 76.61253
6066.617, 76.70323
6068.546, 75.84913
6070.474, 75.81332
6072.403, 77.07185
6074.331, 75.30493
6076.260, 74.26998
6078.188, 74.30558
6080.117, 76.03831
6082.045, 76.30103
6083.974, 76.04676
6085.902, 76.36724
6087.831, 76.99096
6089.759, 73.95731
6091.688, 73.67996
6093.616, 74.84307
6095.544, 75.49002
6097.473, 75.24535
6099.401, 75.35313
6101.330, 73.58432
6103.258, 72.23937
6105.187, 72.62809
6107.115, 71.95647
6109.043, 74.43108
6110.972, 72.82068
6112.900, 73.31852
6114.829, 74.78526
6116.757, 74.06149
6118.686, 72.68075
6120.614, 72.39146
6122.543, 72.60658
6124.471, 73.11558
6126.400, 73.77274
6128.328, 73.81038
6130.257, 73.82724
6132.185, 73.12231
6134.114, 73.41443
6136.042, 72.77249
6137.971, 72.69352
6139.899, 71.47081
6141.828, 71.72923
6143.756, 71.17617
6145.685, 70.44097
6147.613, 70.58152
6149.542, 72.21535
6151.470, 70.07995
6153.398, 70.68716
6155.327, 72.61916
6157.255, 72.08679
6159.184, 71.27219
6161.112, 69.72723
6163.041, 70.80291
6164.969, 71.14636
6166.897, 69.69221
6168.826, 70.22874
6170.754, 69.80145
6172.683, 70.79739
6174.611, 69.81615
6176.540, 70.52900
6178.468, 71.32586
6180.397, 70.34581
6182.325, 69.75495
6184.254, 69.83622
6186.182, 69.84579
6188.111, 69.55110
6190.039, 69.83891
6191.968, 69.05948
6193.896, 68.95518
6195.825, 70.19546
6197.753, 70.90990
6199.682, 69.20631
6201.610, 69.77174
6203.539, 68.23281
6205.467, 67.73524
6207.396, 68.05349
6209.324, 68.40125
6211.252, 69.21819
6213.181, 68.50439
6215.109, 68.03031
6217.038, 69.32788
6218.966, 70.22941
6220.895, 68.79311
6222.823, 68.24360
6224.751, 68.21274
6226.680, 67.89930
6228.608, 67.19227
6230.537, 66.57504
6232.465, 66.63918
6234.394, 67.00358
6236.322, 67.48482
6238.251, 68.13908
6240.179, 68.60383
6242.108, 68.59453
6244.036, 68.81422
6245.965, 69.01727
6247.893, 68.57871
6249.822, 68.07018
6251.750, 67.62312
6253.679, 66.81990
6255.607, 65.87542
6257.536, 65.05350
6259.464, 66.61891
6261.393, 66.66689
6263.321, 65.24942
6265.250, 65.13841
6267.178, 67.39833
6269.106, 67.72683
6271.035, 67.54994
6272.963, 67.78267
6274.892, 66.98966
6276.820, 66.65409
6278.749, 66.48903
6280.677, 65.83740
6282.605, 65.62989
6284.534, 66.29601
6286.462, 66.53619
6288.391, 65.49769
6290.319, 66.37138
6292.248, 64.51509
6294.176, 64.78844
6296.105, 64.74908
6298.033, 63.58843
6299.962, 63.57697
6301.890, 63.92130
6303.819, 63.45396
6305.747, 64.53286
6307.676, 65.47547
6309.604, 64.74937
6311.533, 62.62965
6313.461, 63.60323
6315.390, 63.08476
6317.318, 64.01189
6319.247, 64.44138
6321.175, 63.46499
6323.104, 62.39402
6325.032, 63.16756
6326.960, 64.95261
6328.889, 64.05275
6330.817, 63.56655
6332.746, 63.87698
6334.674, 63.09838
6336.603, 61.43407
6338.531, 60.88618
6340.459, 60.87942
6342.388, 60.52106
6344.316, 60.67085
6346.245, 61.60176
6348.173, 61.13496
6350.102, 61.87995
6352.030, 60.46451
6353.959, 60.39674
6355.887, 61.75374
6357.816, 62.56311
6359.744, 61.49565
6361.673, 61.61229
6363.601, 61.55618
6365.530, 58.66819
6367.458, 60.95719
6369.387, 62.58257
6371.315, 61.64202
6373.244, 59.97992
6375.172, 62.18662
6377.101, 60.74598
6379.029, 58.93792
6380.958, 58.82678
6382.886, 60.20240
6384.814, 58.82775
6386.743, 60.46770
6388.671, 58.61534
6390.600, 58.61888
6392.528, 59.88678
6394.457, 60.78288
6396.385, 59.89717
6398.313, 59.00333
6400.242, 59.70809
6402.170, 58.45239
6404.099, 59.57360
6406.027, 60.92270
6407.956, 60.00782
6409.884, 60.74829
6411.813, 57.66727
6413.741, 56.94672
6415.670, 57.58625
6417.598, 58.70183
6419.527, 59.42621
6421.455, 59.12947
6423.384, 58.56853
6425.312, 58.42199
6427.241, 59.51187
6429.169, 57.66734
6431.098, 57.57933
6433.026, 59.56182
6434.955, 57.70749
6436.883, 57.71772
6438.812, 57.70807
6440.740, 58.33911
6442.668, 58.63063
6444.597, 58.06130
6446.525, 57.64108
6448.454, 58.53789
6450.382, 55.95520
6452.311, 58.66480
6454.239, 58.59804
6456.167, 57.35027
6458.096, 56.28671
6460.024, 55.89431
6461.953, 58.10432
6463.881, 54.71052
6465.810, 56.78380
6467.738, 57.47596
6469.667, 56.40705
6471.595, 56.70128
6473.524, 57.66099
6475.452, 57.07114
6477.381, 56.93531
6479.309, 56.90374
6481.238, 55.83085
6483.166, 55.30288
6485.095, 56.12121
6487.023, 57.24308
6488.952, 56.34331
6490.880, 55.24890
6492.809, 55.26387
6494.737, 53.81691
6496.666, 53.56049
6498.594, 55.03550
6500.522, 56.67582
6502.451, 56.97572
6504.379, 55.09792
6506.308, 54.38116
6508.236, 54.70873
6510.165, 54.55571
6512.093, 54.38382
6514.021, 54.35255
6515.950, 54.27486
6517.878, 55.23859
6519.807, 54.46432
6521.735, 54.42413
6523.664, 53.32685
6525.592, 53.22624
6527.521, 54.55035
6529.449, 55.22257
6531.378, 54.90492
6533.306, 52.68732
6535.235, 54.14627
6537.163, 53.25517
6539.092, 52.45014
6541.020, 52.36696
6542.949, 52.40570
6544.877, 52.36814
6546.806, 52.28952
6548.734, 52.08433
6550.663, 52.58343
6552.591, 51.64874
6554.520, 52.50208
6556.448, 52.31361
6558.376, 50.72330
6560.305, 53.37130
6562.233, 50.97849
6564.162, 50.46177
6566.090, 51.27840
6568.019, 52.64917
6569.947, 52.22180
6571.875, 51.49994
6573.804, 52.14779
6575.732, 51.92314
6577.661, 51.11389
6579.589, 50.67402
6581.518, 50.29872
6583.446, 51.07578
6585.375, 51.09353
6587.303, 50.26978
6589.232, 49.90274
6591.160, 49.85893
6593.089, 51.78998
6595.017, 50.41510
6596.946, 51.32916
6598.874, 51.45131
6600.803, 51.65532
6602.731, 50.71621
6604.660, 49.12489
6606.588, 51.40883
6608.517, 49.28138
6610.445, 49.21198
6612.374, 51.16949
6614.302, 50.27758
6616.230, 50.94979
6618.159, 48.97563
6620.087, 50.89375
6622.016, 50.39856
6623.944, 49.63773
6625.873, 50.70067
6627.801, 48.06808
6629.729, 49.66003
##END=



