##NAMES=Norrishite
##RRUFFID=R130089
##IDEAL CHEMISTRY=KLiMn^3+^_2_Si_4_O_10_O_2_
##LOCALITY=Wessels mine, Kalahari Manganese Field, South Africa
##OWNER=RRUFF
##SOURCE=Marcus Origlieri
##DESCRIPTION=Dark brown platy massive cleavages associated with purple sugilite and blue wesselsite.
##STATUS=The identification of this mineral has been confirmed only by single crystal X-ray diffraction
##URL=https://www.rruff.net/odr/rruff_sample/R130089
##DIFFRACTION SAMPLE DESCRIPTION=Single crystal, powder profile is calculated
##CELL PARAMETERS=a: 5.292 b: 8.901 c: 10.066 alpha: 90 beta: 98.15 gamma: 90 volume: 469.4 crystal system: monoclinic
##FILETYPE=Raman RAW
##RAMAN WAVELENGTH=532

1.036855e+002, 1.026931e+001
1.056140e+002, 1.062898e+001
1.075425e+002, 1.078488e+001
1.094709e+002, 1.069804e+001
1.113994e+002, 1.033601e+001
1.133279e+002, 9.993716e+000
1.152563e+002, 9.737128e+000
1.171848e+002, 9.472288e+000
1.191133e+002, 9.099936e+000
1.210417e+002, 8.458880e+000
1.229702e+002, 7.848926e+000
1.248987e+002, 7.350989e+000
1.268271e+002, 6.957101e+000
1.287556e+002, 6.619275e+000
1.306841e+002, 6.310378e+000
1.326125e+002, 6.045495e+000
1.345410e+002, 5.885154e+000
1.364695e+002, 5.915102e+000
1.383979e+002, 5.963837e+000
1.403264e+002, 5.957034e+000
1.422549e+002, 5.876841e+000
1.441833e+002, 5.787234e+000
1.461118e+002, 5.674647e+000
1.480403e+002, 5.553113e+000
1.499687e+002, 5.490128e+000
1.518972e+002, 5.527804e+000
1.538257e+002, 5.598681e+000
1.557541e+002, 5.654895e+000
1.576826e+002, 5.618629e+000
1.596111e+002, 5.648613e+000
1.615395e+002, 5.826869e+000
1.634680e+002, 6.123458e+000
1.653965e+002, 6.336852e+000
1.673249e+002, 6.299308e+000
1.692534e+002, 6.214036e+000
1.711819e+002, 6.312356e+000
1.731103e+002, 6.675179e+000
1.750388e+002, 7.091464e+000
1.769673e+002, 7.490608e+000
1.788957e+002, 7.859308e+000
1.808242e+002, 8.310037e+000
1.827527e+002, 8.765504e+000
1.846811e+002, 9.320631e+000
1.866096e+002, 1.015174e+001
1.885381e+002, 1.149223e+001
1.904665e+002, 1.276436e+001
1.923950e+002, 1.376140e+001
1.943235e+002, 1.413923e+001
1.962519e+002, 1.408257e+001
1.981804e+002, 1.397659e+001
2.001089e+002, 1.393535e+001
2.020373e+002, 1.403537e+001
2.039658e+002, 1.445049e+001
2.058943e+002, 1.481149e+001
2.078227e+002, 1.496282e+001
2.097512e+002, 1.482965e+001
2.116797e+002, 1.470195e+001
2.136081e+002, 1.455388e+001
2.155366e+002, 1.441932e+001
2.174651e+002, 1.439254e+001
2.193935e+002, 1.455054e+001
2.213220e+002, 1.474783e+001
2.232505e+002, 1.491430e+001
2.251789e+002, 1.503741e+001
2.271074e+002, 1.519594e+001
2.290359e+002, 1.538621e+001
2.309643e+002, 1.561254e+001
2.328928e+002, 1.594550e+001
2.348213e+002, 1.654844e+001
2.367497e+002, 1.711994e+001
2.386782e+002, 1.754612e+001
2.406067e+002, 1.790614e+001
2.425351e+002, 1.789058e+001
2.444636e+002, 1.726845e+001
2.463921e+002, 1.614989e+001
2.483205e+002, 1.529211e+001
2.502490e+002, 1.482227e+001
2.521775e+002, 1.449380e+001
2.541059e+002, 1.415350e+001
2.560344e+002, 1.374334e+001
2.579629e+002, 1.346557e+001
2.598913e+002, 1.342023e+001
2.618198e+002, 1.355790e+001
2.637483e+002, 1.360283e+001
2.656767e+002, 1.346362e+001
2.676052e+002, 1.331778e+001
2.695337e+002, 1.326019e+001
2.714621e+002, 1.333346e+001
2.733906e+002, 1.344956e+001
2.753191e+002, 1.362545e+001
2.772475e+002, 1.384456e+001
2.791760e+002, 1.405569e+001
2.811045e+002, 1.423424e+001
2.830329e+002, 1.442132e+001
2.849614e+002, 1.463671e+001
2.868899e+002, 1.488428e+001
2.888183e+002, 1.515336e+001
2.907468e+002, 1.538040e+001
2.926753e+002, 1.562978e+001
2.946037e+002, 1.603638e+001
2.965322e+002, 1.675286e+001
2.984607e+002, 1.752656e+001
3.003891e+002, 1.839495e+001
3.023176e+002, 1.951385e+001
3.042461e+002, 2.009203e+001
3.061745e+002, 1.962391e+001
3.081030e+002, 1.852826e+001
3.100315e+002, 1.758036e+001
3.119599e+002, 1.680369e+001
3.138884e+002, 1.615121e+001
3.158169e+002, 1.558516e+001
3.177453e+002, 1.508031e+001
3.196738e+002, 1.484125e+001
3.216023e+002, 1.502885e+001
3.235307e+002, 1.547698e+001
3.254592e+002, 1.598594e+001
3.273877e+002, 1.671966e+001
3.293161e+002, 1.734775e+001
3.312446e+002, 1.780675e+001
3.331731e+002, 1.811824e+001
3.351015e+002, 1.814930e+001
3.370300e+002, 1.767923e+001
3.389585e+002, 1.701464e+001
3.408869e+002, 1.647404e+001
3.428154e+002, 1.612704e+001
3.447439e+002, 1.578233e+001
3.466723e+002, 1.537059e+001
3.486008e+002, 1.490415e+001
3.505292e+002, 1.449611e+001
3.524577e+002, 1.411340e+001
3.543862e+002, 1.380859e+001
3.563146e+002, 1.367011e+001
3.582431e+002, 1.375068e+001
3.601716e+002, 1.378105e+001
3.621000e+002, 1.360648e+001
3.640285e+002, 1.328756e+001
3.659570e+002, 1.314659e+001
3.678854e+002, 1.344672e+001
3.698139e+002, 1.370201e+001
3.717424e+002, 1.359583e+001
3.736708e+002, 1.311395e+001
3.755993e+002, 1.268285e+001
3.775278e+002, 1.237881e+001
3.794562e+002, 1.218289e+001
3.813847e+002, 1.208780e+001
3.833132e+002, 1.209937e+001
3.852416e+002, 1.219455e+001
3.871701e+002, 1.237204e+001
3.890986e+002, 1.262331e+001
3.910270e+002, 1.298859e+001
3.929555e+002, 1.355539e+001
3.948840e+002, 1.419721e+001
3.968124e+002, 1.482613e+001
3.987409e+002, 1.554748e+001
4.006694e+002, 1.608006e+001
4.025978e+002, 1.638828e+001
4.045263e+002, 1.647415e+001
4.064548e+002, 1.618406e+001
4.083832e+002, 1.511161e+001
4.103117e+002, 1.396514e+001
4.122402e+002, 1.309170e+001
4.141686e+002, 1.252624e+001
4.160971e+002, 1.200942e+001
4.180256e+002, 1.142850e+001
4.199540e+002, 1.088391e+001
4.218825e+002, 1.054981e+001
4.238110e+002, 1.060390e+001
4.257394e+002, 1.069964e+001
4.276679e+002, 1.074083e+001
4.295964e+002, 1.074183e+001
4.315248e+002, 1.083980e+001
4.334533e+002, 1.115235e+001
4.353818e+002, 1.150670e+001
4.373102e+002, 1.178650e+001
4.392387e+002, 1.202264e+001
4.411672e+002, 1.213543e+001
4.430956e+002, 1.203844e+001
4.450241e+002, 1.181366e+001
4.469526e+002, 1.164355e+001
4.488810e+002, 1.161655e+001
4.508095e+002, 1.155025e+001
4.527380e+002, 1.134054e+001
4.546664e+002, 1.090858e+001
4.565949e+002, 1.062343e+001
4.585234e+002, 1.058082e+001
4.604518e+002, 1.063758e+001
4.623803e+002, 1.066292e+001
4.643088e+002, 1.063778e+001
4.662372e+002, 1.062018e+001
4.681657e+002, 1.062218e+001
4.700942e+002, 1.064305e+001
4.720226e+002, 1.066960e+001
4.739511e+002, 1.065477e+001
4.758796e+002, 1.069887e+001
4.778080e+002, 1.085755e+001
4.797365e+002, 1.114888e+001
4.816650e+002, 1.143750e+001
4.835934e+002, 1.167091e+001
4.855219e+002, 1.191307e+001
4.874504e+002, 1.226678e+001
4.893788e+002, 1.279948e+001
4.913073e+002, 1.325160e+001
4.932358e+002, 1.356949e+001
4.951642e+002, 1.375803e+001
4.970927e+002, 1.377705e+001
4.990212e+002, 1.352160e+001
5.009496e+002, 1.319418e+001
5.028781e+002, 1.284887e+001
5.048066e+002, 1.248384e+001
5.067350e+002, 1.214643e+001
5.086635e+002, 1.189579e+001
5.105920e+002, 1.164971e+001
5.125204e+002, 1.133990e+001
5.144489e+002, 1.081956e+001
5.163774e+002, 1.040603e+001
5.183058e+002, 1.015650e+001
5.202343e+002, 1.003200e+001
5.221628e+002, 9.923419e+000
5.240912e+002, 9.832425e+000
5.260197e+002, 9.753665e+000
5.279482e+002, 9.676319e+000
5.298766e+002, 9.594055e+000
5.318051e+002, 9.563629e+000
5.337336e+002, 9.641987e+000
5.356620e+002, 9.731060e+000
5.375905e+002, 9.752931e+000
5.395190e+002, 9.690564e+000
5.414474e+002, 9.638075e+000
5.433759e+002, 9.620521e+000
5.453044e+002, 9.622866e+000
5.472328e+002, 9.615954e+000
5.491613e+002, 9.569063e+000
5.510898e+002, 9.550519e+000
5.530182e+002, 9.567171e+000
5.549467e+002, 9.622235e+000
5.568752e+002, 9.751843e+000
5.588036e+002, 9.963870e+000
5.607321e+002, 1.025625e+001
5.626606e+002, 1.064032e+001
5.645891e+002, 1.113194e+001
5.665175e+002, 1.168164e+001
5.684460e+002, 1.227046e+001
5.703745e+002, 1.293653e+001
5.723029e+002, 1.373045e+001
5.742314e+002, 1.479014e+001
5.761599e+002, 1.568009e+001
5.780883e+002, 1.634844e+001
5.800168e+002, 1.679749e+001
5.819453e+002, 1.702336e+001
5.838737e+002, 1.688051e+001
5.858022e+002, 1.676003e+001
5.877307e+002, 1.678522e+001
5.896591e+002, 1.694547e+001
5.915876e+002, 1.723473e+001
5.935161e+002, 1.759396e+001
5.954445e+002, 1.812616e+001
5.973729e+002, 1.892521e+001
5.993014e+002, 2.000779e+001
6.012299e+002, 2.119388e+001
6.031583e+002, 2.246949e+001
6.050868e+002, 2.385148e+001
6.070153e+002, 2.533426e+001
6.089437e+002, 2.684330e+001
6.108722e+002, 2.862348e+001
6.128007e+002, 3.112159e+001
6.147291e+002, 3.382954e+001
6.166576e+002, 3.586840e+001
6.185861e+002, 3.757365e+001
6.205145e+002, 3.800547e+001
6.224430e+002, 3.644600e+001
6.243715e+002, 3.314174e+001
6.262999e+002, 2.993820e+001
6.282284e+002, 2.670681e+001
6.301569e+002, 2.367896e+001
6.320853e+002, 2.088284e+001
6.340138e+002, 1.833800e+001
6.359423e+002, 1.624807e+001
6.378707e+002, 1.480788e+001
6.397992e+002, 1.373250e+001
6.417277e+002, 1.283050e+001
6.436561e+002, 1.209963e+001
6.455846e+002, 1.159281e+001
6.475131e+002, 1.139259e+001
6.494415e+002, 1.136567e+001
6.513700e+002, 1.135104e+001
6.532985e+002, 1.131860e+001
6.552269e+002, 1.139985e+001
6.571554e+002, 1.166747e+001
6.590839e+002, 1.206507e+001
6.610123e+002, 1.249828e+001
6.629408e+002, 1.309681e+001
6.648693e+002, 1.358563e+001
6.667977e+002, 1.394196e+001
6.687262e+002, 1.413815e+001
6.706547e+002, 1.411161e+001
6.725831e+002, 1.361189e+001
6.745116e+002, 1.324237e+001
6.764401e+002, 1.324649e+001
6.783685e+002, 1.365429e+001
6.802970e+002, 1.410608e+001
6.822255e+002, 1.456893e+001
6.841539e+002, 1.509429e+001
6.860824e+002, 1.570384e+001
6.880109e+002, 1.639146e+001
6.899393e+002, 1.719501e+001
6.918678e+002, 1.819322e+001
6.937963e+002, 1.926051e+001
6.957247e+002, 2.030002e+001
6.976532e+002, 2.118428e+001
6.995817e+002, 2.228951e+001
7.015101e+002, 2.432334e+001
7.034386e+002, 2.619194e+001
7.053671e+002, 2.669505e+001
7.072955e+002, 2.567723e+001
7.092240e+002, 2.422062e+001
7.111525e+002, 2.227085e+001
7.130809e+002, 2.015689e+001
7.150094e+002, 1.834831e+001
7.169379e+002, 1.699060e+001
7.188663e+002, 1.577446e+001
7.207948e+002, 1.460970e+001
7.227233e+002, 1.359337e+001
7.246517e+002, 1.289874e+001
7.265802e+002, 1.263440e+001
7.285087e+002, 1.248653e+001
7.304371e+002, 1.236826e+001
7.323656e+002, 1.227673e+001
7.342941e+002, 1.220092e+001
7.362225e+002, 1.215577e+001
7.381510e+002, 1.210924e+001
7.400795e+002, 1.202146e+001
7.420079e+002, 1.191804e+001
7.439364e+002, 1.190492e+001
7.458649e+002, 1.202958e+001
7.477933e+002, 1.219899e+001
7.497218e+002, 1.240334e+001
7.516503e+002, 1.265571e+001
7.535787e+002, 1.278921e+001
7.555072e+002, 1.262885e+001
7.574357e+002, 1.251952e+001
7.593641e+002, 1.268015e+001
7.612926e+002, 1.308758e+001
7.632211e+002, 1.344388e+001
7.651495e+002, 1.371543e+001
7.670780e+002, 1.391696e+001
7.690065e+002, 1.406592e+001
7.709349e+002, 1.417277e+001
7.728634e+002, 1.418291e+001
7.747919e+002, 1.404419e+001
7.767203e+002, 1.386451e+001
7.786488e+002, 1.371947e+001
7.805773e+002, 1.361149e+001
7.825057e+002, 1.348733e+001
7.844342e+002, 1.328487e+001
7.863627e+002, 1.310424e+001
7.882911e+002, 1.301853e+001
7.902196e+002, 1.305978e+001
7.921481e+002, 1.310476e+001
7.940765e+002, 1.319527e+001
7.960050e+002, 1.325488e+001
7.979335e+002, 1.317406e+001
7.998619e+002, 1.292454e+001
8.017904e+002, 1.277356e+001
8.037189e+002, 1.286424e+001
8.056473e+002, 1.301806e+001
8.075758e+002, 1.307426e+001
8.095043e+002, 1.296580e+001
8.114327e+002, 1.294139e+001
8.133612e+002, 1.309021e+001
8.152897e+002, 1.328578e+001
8.172181e+002, 1.339823e+001
8.191466e+002, 1.342227e+001
8.210751e+002, 1.340372e+001
8.230035e+002, 1.326629e+001
8.249320e+002, 1.314192e+001
8.268605e+002, 1.316341e+001
8.287889e+002, 1.339674e+001
8.307174e+002, 1.359225e+001
8.326459e+002, 1.377377e+001
8.345743e+002, 1.388117e+001
8.365028e+002, 1.379969e+001
8.384313e+002, 1.342625e+001
8.403597e+002, 1.320615e+001
8.422882e+002, 1.334714e+001
8.442167e+002, 1.358582e+001
8.461451e+002, 1.368795e+001
8.480736e+002, 1.362085e+001
8.500021e+002, 1.352599e+001
8.519305e+002, 1.342209e+001
8.538590e+002, 1.330704e+001
8.557875e+002, 1.316796e+001
8.577159e+002, 1.296732e+001
8.596444e+002, 1.284417e+001
8.615729e+002, 1.289944e+001
8.635013e+002, 1.297966e+001
8.654298e+002, 1.294438e+001
8.673583e+002, 1.277518e+001
8.692867e+002, 1.262654e+001
8.712152e+002, 1.257074e+001
8.731437e+002, 1.251913e+001
8.750721e+002, 1.239256e+001
8.770006e+002, 1.211501e+001
8.789291e+002, 1.194398e+001
8.808575e+002, 1.200440e+001
8.827860e+002, 1.208122e+001
8.847145e+002, 1.198669e+001
8.866429e+002, 1.172119e+001
8.885714e+002, 1.147793e+001
8.904999e+002, 1.125778e+001
8.924283e+002, 1.110316e+001
8.943568e+002, 1.105580e+001
8.962853e+002, 1.115802e+001
8.982137e+002, 1.121681e+001
9.001422e+002, 1.119034e+001
9.020707e+002, 1.115996e+001
9.039991e+002, 1.114512e+001
9.059276e+002, 1.115098e+001
9.078561e+002, 1.127458e+001
9.097845e+002, 1.159318e+001
9.117130e+002, 1.195745e+001
9.136415e+002, 1.228851e+001
9.155699e+002, 1.258369e+001
9.174984e+002, 1.292421e+001
9.194269e+002, 1.339991e+001
9.213553e+002, 1.382744e+001
9.232838e+002, 1.413985e+001
9.252123e+002, 1.433707e+001
9.271407e+002, 1.447644e+001
9.290692e+002, 1.446660e+001
9.309976e+002, 1.453421e+001
9.329261e+002, 1.478024e+001
9.348546e+002, 1.517297e+001
9.367830e+002, 1.565083e+001
9.387115e+002, 1.625334e+001
9.406400e+002, 1.688708e+001
9.425684e+002, 1.750882e+001
9.444969e+002, 1.814439e+001
9.464254e+002, 1.886911e+001
9.483538e+002, 1.967869e+001
9.502823e+002, 2.056596e+001
9.522108e+002, 2.165405e+001
9.541392e+002, 2.276383e+001
9.560677e+002, 2.376397e+001
9.579962e+002, 2.477431e+001
9.599246e+002, 2.520098e+001
9.618531e+002, 2.461300e+001
9.637816e+002, 2.355649e+001
9.657100e+002, 2.252310e+001
9.676385e+002, 2.153667e+001
9.695670e+002, 2.051309e+001
9.714954e+002, 1.950005e+001
9.734239e+002, 1.841835e+001
9.753524e+002, 1.711204e+001
9.772808e+002, 1.559586e+001
9.792093e+002, 1.431856e+001
9.811378e+002, 1.344353e+001
9.830662e+002, 1.273337e+001
9.849947e+002, 1.206989e+001
9.869232e+002, 1.145334e+001
9.888516e+002, 1.089244e+001
9.907801e+002, 1.029119e+001
9.927086e+002, 9.847291e+000
9.946370e+002, 9.708555e+000
9.965655e+002, 9.809529e+000
9.984940e+002, 9.809589e+000
1.000422e+003, 9.645048e+000
1.002351e+003, 9.495016e+000
1.004279e+003, 9.455557e+000
1.006208e+003, 9.456767e+000
1.008136e+003, 9.378815e+000
1.010065e+003, 9.174559e+000
1.011993e+003, 9.005774e+000
1.013922e+003, 8.915251e+000
1.015850e+003, 8.870580e+000
1.017779e+003, 8.840453e+000
1.019707e+003, 8.839991e+000
1.021636e+003, 8.827679e+000
1.023564e+003, 8.740479e+000
1.025493e+003, 8.690718e+000
1.027421e+003, 8.814857e+000
1.029349e+003, 9.090711e+000
1.031278e+003, 9.246887e+000
1.033206e+003, 9.137506e+000
1.035135e+003, 9.036613e+000
1.037063e+003, 9.078227e+000
1.038992e+003, 9.251283e+000
1.040920e+003, 9.410183e+000
1.042849e+003, 9.579410e+000
1.044777e+003, 9.704210e+000
1.046706e+003, 9.767707e+000
1.048634e+003, 9.778614e+000
1.050563e+003, 9.747962e+000
1.052491e+003, 9.653202e+000
1.054420e+003, 9.587211e+000
1.056348e+003, 9.560825e+000
1.058276e+003, 9.583819e+000
1.060205e+003, 9.670939e+000
1.062133e+003, 9.832162e+000
1.064062e+003, 9.995357e+000
1.065990e+003, 1.011682e+001
1.067919e+003, 1.026826e+001
1.069847e+003, 1.046243e+001
1.071776e+003, 1.069486e+001
1.073704e+003, 1.109008e+001
1.075633e+003, 1.179946e+001
1.077561e+003, 1.248422e+001
1.079490e+003, 1.313334e+001
1.081418e+003, 1.365201e+001
1.083347e+003, 1.383087e+001
1.085275e+003, 1.358811e+001
1.087203e+003, 1.322292e+001
1.089132e+003, 1.276563e+001
1.091060e+003, 1.226880e+001
1.092989e+003, 1.176414e+001
1.094917e+003, 1.120520e+001
1.096846e+003, 1.079298e+001
1.098774e+003, 1.058685e+001
1.100703e+003, 1.047273e+001
1.102631e+003, 1.035666e+001
1.104560e+003, 1.023952e+001
1.106488e+003, 1.030449e+001
1.108417e+003, 1.066567e+001
1.110345e+003, 1.105079e+001
1.112273e+003, 1.135661e+001
1.114202e+003, 1.161478e+001
1.116130e+003, 1.188279e+001
1.118059e+003, 1.216020e+001
1.119987e+003, 1.245876e+001
1.121916e+003, 1.298629e+001
1.123844e+003, 1.340716e+001
1.125773e+003, 1.338628e+001
1.127701e+003, 1.277496e+001
1.129630e+003, 1.213836e+001
1.131558e+003, 1.143518e+001
1.133487e+003, 1.074487e+001
1.135415e+003, 1.007659e+001
1.137344e+003, 9.445132e+000
1.139272e+003, 8.920125e+000
1.141200e+003, 8.510920e+000
1.143129e+003, 8.186740e+000
1.145057e+003, 7.980327e+000
1.146986e+003, 7.834937e+000
1.148914e+003, 7.668836e+000
1.150843e+003, 7.462317e+000
1.152771e+003, 7.322100e+000
1.154700e+003, 7.309630e+000
1.156628e+003, 7.332154e+000
1.158557e+003, 7.339593e+000
1.160485e+003, 7.330986e+000
1.162414e+003, 7.337207e+000
1.164342e+003, 7.407069e+000
1.166271e+003, 7.433104e+000
1.168199e+003, 7.369625e+000
1.170127e+003, 7.247392e+000
1.172056e+003, 7.116059e+000
1.173984e+003, 6.962502e+000
1.175913e+003, 6.859059e+000
1.177841e+003, 6.843735e+000
1.179770e+003, 6.867594e+000
1.181698e+003, 6.894102e+000
1.183627e+003, 6.923371e+000
1.185555e+003, 6.978225e+000
1.187484e+003, 7.106077e+000
1.189412e+003, 7.198362e+000
1.191341e+003, 7.223226e+000
1.193269e+003, 7.189182e+000
1.195198e+003, 7.109391e+000
1.197126e+003, 6.877472e+000
1.199054e+003, 6.779899e+000
1.200983e+003, 6.964000e+000
1.202911e+003, 7.179869e+000
1.204840e+003, 7.205185e+000
1.206768e+003, 7.065213e+000
1.208697e+003, 6.993495e+000
1.210625e+003, 7.055982e+000
1.212554e+003, 7.102895e+000
1.214482e+003, 7.045525e+000
1.216411e+003, 6.939723e+000
1.218339e+003, 6.875461e+000
1.220268e+003, 6.858430e+000
1.222196e+003, 6.864564e+000
1.224125e+003, 6.911278e+000
1.226053e+003, 6.960221e+000
1.227981e+003, 6.969729e+000
1.229910e+003, 6.940228e+000
1.231838e+003, 6.993446e+000
1.233767e+003, 7.260470e+000
1.235695e+003, 7.435160e+000
1.237624e+003, 7.383576e+000
1.239552e+003, 7.233536e+000
1.241481e+003, 7.163673e+000
1.243409e+003, 7.174405e+000
1.245338e+003, 7.221543e+000
1.247266e+003, 7.357584e+000
1.249195e+003, 7.457260e+000
1.251123e+003, 7.414116e+000
1.253052e+003, 7.279158e+000
1.254980e+003, 7.221291e+000
1.256908e+003, 7.294862e+000
1.258837e+003, 7.333284e+000
1.260765e+003, 7.239904e+000
1.262694e+003, 7.138927e+000
1.264622e+003, 7.166181e+000
1.266551e+003, 7.366776e+000
1.268479e+003, 7.431970e+000
1.270408e+003, 7.235956e+000
1.272336e+003, 7.069688e+000
1.274265e+003, 7.032450e+000
1.276193e+003, 7.081789e+000
1.278122e+003, 7.152678e+000
1.280050e+003, 7.267564e+000
1.281979e+003, 7.303349e+000
1.283907e+003, 7.179637e+000
1.285835e+003, 7.030062e+000
1.287764e+003, 6.913992e+000
1.289692e+003, 6.834456e+000
1.291621e+003, 6.820993e+000
1.293549e+003, 6.910956e+000
1.295478e+003, 6.971419e+000
1.297406e+003, 6.916930e+000
1.299335e+003, 6.851034e+000
1.301263e+003, 6.879770e+000
1.303192e+003, 7.029846e+000
1.305120e+003, 7.087802e+000
1.307049e+003, 6.972673e+000
1.308977e+003, 6.861977e+000
1.310906e+003, 6.778348e+000
1.312834e+003, 6.734093e+000
1.314762e+003, 6.760872e+000
1.316691e+003, 6.892853e+000
1.318619e+003, 6.986863e+000
1.320548e+003, 7.020534e+000
1.322476e+003, 7.033486e+000
1.324405e+003, 7.051287e+000
1.326333e+003, 7.060182e+000
1.328262e+003, 7.010829e+000
1.330190e+003, 6.870101e+000
1.332119e+003, 6.813632e+000
1.334047e+003, 6.993957e+000
1.335976e+003, 7.160542e+000
1.337904e+003, 7.105548e+000
1.339833e+003, 6.880867e+000
1.341761e+003, 6.796318e+000
1.343689e+003, 6.936666e+000
1.345618e+003, 7.066148e+000
1.347546e+003, 7.163050e+000
1.349475e+003, 7.199811e+000
1.351403e+003, 7.120540e+000
1.353332e+003, 6.903749e+000
1.355260e+003, 6.787627e+000
1.357189e+003, 6.828064e+000
1.359117e+003, 6.895714e+000
1.361046e+003, 6.992700e+000
1.362974e+003, 7.087099e+000
1.364903e+003, 7.139833e+000
1.366831e+003, 7.147395e+000
1.368760e+003, 7.119113e+000
1.370688e+003, 7.017408e+000
1.372616e+003, 6.925369e+000
1.374545e+003, 6.858721e+000
1.376473e+003, 6.828196e+000
1.378402e+003, 6.833819e+000
1.380330e+003, 6.871840e+000
1.382259e+003, 7.026219e+000
1.384187e+003, 7.492422e+000
1.386116e+003, 7.812541e+000
1.388044e+003, 7.623270e+000
1.389973e+003, 7.180628e+000
1.391901e+003, 6.996436e+000
1.393830e+003, 7.140050e+000
1.395758e+003, 7.224381e+000
1.397687e+003, 7.129204e+000
1.399615e+003, 7.024111e+000
1.401543e+003, 6.984995e+000
1.403472e+003, 6.989045e+000
1.405400e+003, 6.969454e+000
1.407329e+003, 6.899076e+000
1.409257e+003, 6.861414e+000
1.411186e+003, 6.873973e+000
1.413114e+003, 6.903619e+000
1.415043e+003, 6.952429e+000
1.416971e+003, 7.005828e+000
1.418900e+003, 7.009689e+000
1.420828e+003, 6.939084e+000
1.422757e+003, 6.883094e+000
1.424685e+003, 6.824698e+000
1.426614e+003, 6.807444e+000
1.428542e+003, 6.887658e+000
1.430470e+003, 7.027482e+000
1.432399e+003, 7.118352e+000
1.434327e+003, 7.157809e+000
1.436256e+003, 7.161808e+000
1.438184e+003, 7.124687e+000
1.440113e+003, 7.063014e+000
1.442041e+003, 6.925330e+000
1.443970e+003, 6.779501e+000
1.445898e+003, 6.829171e+000
1.447827e+003, 7.144139e+000
1.449755e+003, 7.335557e+000
1.451684e+003, 7.242375e+000
1.453612e+003, 7.093444e+000
1.455541e+003, 6.987120e+000
1.457469e+003, 6.920404e+000
1.459397e+003, 6.881524e+000
1.461326e+003, 6.867765e+000
1.463254e+003, 6.895612e+000
1.465183e+003, 7.017475e+000
1.467111e+003, 7.126691e+000
1.469040e+003, 7.163595e+000
1.470968e+003, 7.156186e+000
1.472897e+003, 7.174864e+000
1.474825e+003, 7.245688e+000
1.476754e+003, 7.285828e+000
1.478682e+003, 7.286400e+000
1.480611e+003, 7.268214e+000
1.482539e+003, 7.217677e+000
1.484468e+003, 7.161185e+000
1.486396e+003, 7.155442e+000
1.488324e+003, 7.222334e+000
1.490253e+003, 7.254930e+000
1.492181e+003, 7.195242e+000
1.494110e+003, 7.166535e+000
1.496038e+003, 7.272718e+000
1.497967e+003, 7.402052e+000
1.499895e+003, 7.370595e+000
1.501824e+003, 7.181165e+000
1.503752e+003, 7.041839e+000
1.505681e+003, 6.962389e+000
1.507609e+003, 6.948379e+000
1.509538e+003, 7.064113e+000
1.511466e+003, 7.204239e+000
1.513395e+003, 7.252535e+000
1.515323e+003, 7.224562e+000
1.517251e+003, 7.229362e+000
1.519180e+003, 7.301321e+000
1.521108e+003, 7.330296e+000
1.523037e+003, 7.230176e+000
1.524965e+003, 7.119498e+000
1.526894e+003, 7.079688e+000
1.528822e+003, 7.100962e+000
1.530751e+003, 7.163101e+000
1.532679e+003, 7.305562e+000
1.534608e+003, 7.345302e+000
1.536536e+003, 7.098621e+000
1.538465e+003, 6.906424e+000
1.540393e+003, 6.985580e+000
1.542322e+003, 7.245360e+000
1.544250e+003, 7.459059e+000
1.546178e+003, 7.637788e+000
1.548107e+003, 7.723071e+000
1.550035e+003, 7.599333e+000
1.551964e+003, 7.506379e+000
1.553892e+003, 7.572560e+000
1.555821e+003, 7.685467e+000
1.557749e+003, 7.678711e+000
1.559678e+003, 7.524554e+000
1.561606e+003, 7.411639e+000
1.563535e+003, 7.347940e+000
1.565463e+003, 7.319376e+000
1.567392e+003, 7.343218e+000
1.569320e+003, 7.386689e+000
1.571249e+003, 7.425315e+000
1.573177e+003, 7.458840e+000
1.575105e+003, 7.487505e+000
1.577034e+003, 7.537236e+000
1.578962e+003, 7.540059e+000
1.580891e+003, 7.439874e+000
1.582819e+003, 7.352845e+000
1.584748e+003, 7.346307e+000
1.586676e+003, 7.396451e+000
1.588605e+003, 7.457140e+000
1.590533e+003, 7.539558e+000
1.592462e+003, 7.593522e+000
1.594390e+003, 7.596828e+000
1.596319e+003, 7.599136e+000
1.598247e+003, 7.618348e+000
1.600176e+003, 7.638082e+000
1.602104e+003, 7.644418e+000
1.604032e+003, 7.635288e+000
1.605961e+003, 7.595984e+000
1.607889e+003, 7.483496e+000
1.609818e+003, 7.442182e+000
1.611746e+003, 7.578921e+000
1.613675e+003, 7.712446e+000
1.615603e+003, 7.716120e+000
1.617532e+003, 7.646516e+000
1.619460e+003, 7.629424e+000
1.621389e+003, 7.669644e+000
1.623317e+003, 7.708581e+000
1.625246e+003, 7.755314e+000
1.627174e+003, 7.774317e+000
1.629103e+003, 7.712891e+000
1.631031e+003, 7.646299e+000
1.632959e+003, 7.675736e+000
1.634888e+003, 7.770885e+000
1.636816e+003, 7.779970e+000
1.638745e+003, 7.663179e+000
1.640673e+003, 7.597215e+000
1.642602e+003, 7.655731e+000
1.644530e+003, 7.732932e+000
1.646459e+003, 7.773753e+000
1.648387e+003, 7.797423e+000
1.650316e+003, 7.830251e+000
1.652244e+003, 7.872217e+000
1.654173e+003, 7.929143e+000
1.656101e+003, 8.021659e+000
1.658030e+003, 8.076612e+000
1.659958e+003, 8.073077e+000
1.661886e+003, 8.018487e+000
1.663815e+003, 7.852186e+000
1.665743e+003, 7.652775e+000
1.667672e+003, 7.638598e+000
1.669600e+003, 7.838814e+000
1.671529e+003, 7.963065e+000
1.673457e+003, 7.930640e+000
1.675386e+003, 7.883391e+000
1.677314e+003, 7.865534e+000
1.679243e+003, 7.873624e+000
1.681171e+003, 7.932137e+000
1.683100e+003, 8.015108e+000
1.685028e+003, 7.997502e+000
1.686957e+003, 7.841258e+000
1.688885e+003, 7.747506e+000
1.690813e+003, 7.774253e+000
1.692742e+003, 7.848171e+000
1.694670e+003, 7.988218e+000
1.696599e+003, 8.118832e+000
1.698527e+003, 8.134570e+000
1.700456e+003, 8.052121e+000
1.702384e+003, 7.991761e+000
1.704313e+003, 7.964732e+000
1.706241e+003, 7.950171e+000
1.708170e+003, 7.945945e+000
1.710098e+003, 7.949866e+000
1.712027e+003, 7.973520e+000
1.713955e+003, 7.998628e+000
1.715884e+003, 7.998230e+000
1.717812e+003, 7.973739e+000
1.719740e+003, 7.934619e+000
1.721669e+003, 7.858796e+000
1.723597e+003, 7.841354e+000
1.725526e+003, 7.963302e+000
1.727454e+003, 8.083309e+000
1.729383e+003, 8.116385e+000
1.731311e+003, 8.088422e+000
1.733240e+003, 8.015689e+000
1.735168e+003, 7.904202e+000
1.737097e+003, 7.861199e+000
1.739025e+003, 7.918195e+000
1.740954e+003, 7.981320e+000
1.742882e+003, 8.027971e+000
1.744811e+003, 8.068523e+000
1.746739e+003, 8.112682e+000
1.748667e+003, 8.153233e+000
1.750596e+003, 8.184482e+000
1.752524e+003, 8.204831e+000
1.754453e+003, 8.181258e+000
1.756381e+003, 8.073961e+000
1.758310e+003, 8.037638e+000
1.760238e+003, 8.199763e+000
1.762167e+003, 8.344798e+000
1.764095e+003, 8.310509e+000
1.766024e+003, 8.195240e+000
1.767952e+003, 8.146542e+000
1.769880e+003, 8.159100e+000
1.771809e+003, 8.182796e+000
1.773737e+003, 8.224390e+000
1.775666e+003, 8.244495e+000
1.777594e+003, 8.224794e+000
1.779523e+003, 8.193751e+000
1.781451e+003, 8.155916e+000
1.783380e+003, 8.122216e+000
1.785308e+003, 8.107854e+000
1.787237e+003, 8.111502e+000
1.789165e+003, 8.125363e+000
1.791094e+003, 8.158980e+000
1.793022e+003, 8.168912e+000
1.794951e+003, 8.130152e+000
1.796879e+003, 8.089005e+000
1.798807e+003, 8.031397e+000
1.800736e+003, 8.005172e+000
1.802664e+003, 8.107680e+000
1.804593e+003, 8.297908e+000
1.806521e+003, 8.338758e+000
1.808450e+003, 8.163510e+000
1.810378e+003, 8.089902e+000
1.812307e+003, 8.211895e+000
1.814235e+003, 8.331588e+000
1.816164e+003, 8.443242e+000
1.818092e+003, 8.488736e+000
1.820021e+003, 8.368593e+000
1.821949e+003, 8.158735e+000
1.823878e+003, 8.046820e+000
1.825806e+003, 8.033698e+000
1.827734e+003, 8.118347e+000
1.829663e+003, 8.411244e+000
1.831591e+003, 8.630734e+000
1.833520e+003, 8.780441e+000
1.835448e+003, 8.810018e+000
1.837377e+003, 8.572422e+000
1.839305e+003, 8.270755e+000
1.841234e+003, 8.217676e+000
1.843162e+003, 8.401745e+000
1.845091e+003, 8.528088e+000
1.847019e+003, 8.594599e+000
1.848948e+003, 8.608150e+000
1.850876e+003, 8.526586e+000
1.852805e+003, 8.449518e+000
1.854733e+003, 8.372412e+000
1.856661e+003, 8.340753e+000
1.858590e+003, 8.457096e+000
1.860518e+003, 8.635324e+000
1.862447e+003, 8.585346e+000
1.864375e+003, 8.279823e+000
1.866304e+003, 8.192768e+000
1.868232e+003, 8.459139e+000
1.870161e+003, 8.655577e+000
1.872089e+003, 8.643341e+000
1.874018e+003, 8.590933e+000
1.875946e+003, 8.559633e+000
1.877875e+003, 8.549957e+000
1.879803e+003, 8.569486e+000
1.881732e+003, 8.611337e+000
1.883660e+003, 8.652315e+000
1.885589e+003, 8.692293e+000
1.887517e+003, 8.722886e+000
1.889445e+003, 8.750986e+000
1.891374e+003, 8.749410e+000
1.893302e+003, 8.680788e+000
1.895231e+003, 8.611854e+000
1.897159e+003, 8.566092e+000
1.899088e+003, 8.557236e+000
1.901016e+003, 8.652021e+000
1.902945e+003, 8.821154e+000
1.904873e+003, 8.826712e+000
1.906802e+003, 8.606385e+000
1.908730e+003, 8.456758e+000
1.910659e+003, 8.395478e+000
1.912587e+003, 8.433898e+000
1.914516e+003, 8.694457e+000
1.916444e+003, 8.931447e+000
1.918372e+003, 8.947943e+000
1.920301e+003, 8.832106e+000
1.922229e+003, 8.714182e+000
1.924158e+003, 8.594438e+000
1.926086e+003, 8.579665e+000
1.928015e+003, 8.763098e+000
1.929943e+003, 8.865664e+000
1.931872e+003, 8.838869e+000
1.933800e+003, 8.791189e+000
1.935729e+003, 8.727774e+000
1.937657e+003, 8.675634e+000
1.939586e+003, 8.647310e+000
1.941514e+003, 8.646683e+000
1.943443e+003, 8.687928e+000
1.945371e+003, 8.768984e+000
1.947299e+003, 8.854856e+000
1.949228e+003, 8.960979e+000
1.951156e+003, 8.980783e+000
1.953085e+003, 8.842772e+000
1.955013e+003, 8.738452e+000
1.956942e+003, 8.759793e+000
1.958870e+003, 8.804667e+000
1.960799e+003, 8.797987e+000
1.962727e+003, 8.781233e+000
1.964656e+003, 8.821070e+000
1.966584e+003, 8.900256e+000
1.968513e+003, 8.943148e+000
1.970441e+003, 8.945166e+000
1.972370e+003, 8.918464e+000
1.974298e+003, 8.830265e+000
1.976226e+003, 8.781950e+000
1.978155e+003, 8.798099e+000
1.980083e+003, 8.862055e+000
1.982012e+003, 9.022064e+000
1.983940e+003, 9.181443e+000
1.985869e+003, 9.238445e+000
1.987797e+003, 9.202348e+000
1.989726e+003, 9.080729e+000
1.991654e+003, 8.838530e+000
1.993583e+003, 8.716369e+000
1.995511e+003, 8.759754e+000
1.997440e+003, 8.833109e+000
1.999368e+003, 8.973067e+000
2.001297e+003, 9.073763e+000
2.003225e+003, 9.093717e+000
2.005153e+003, 9.073866e+000
2.007082e+003, 9.011137e+000
2.009010e+003, 8.946798e+000
2.010939e+003, 8.972687e+000
2.012867e+003, 9.068851e+000
2.014796e+003, 9.109826e+000
2.016724e+003, 9.085902e+000
2.018653e+003, 9.059836e+000
2.020581e+003, 9.031597e+000
2.022510e+003, 9.024137e+000
2.024438e+003, 9.082827e+000
2.026367e+003, 9.111252e+000
2.028295e+003, 9.010178e+000
2.030224e+003, 8.900762e+000
2.032152e+003, 8.936887e+000
2.034080e+003, 9.046287e+000
2.036009e+003, 9.026201e+000
2.037937e+003, 8.869785e+000
2.039866e+003, 8.853635e+000
2.041794e+003, 9.101547e+000
2.043723e+003, 9.243602e+000
2.045651e+003, 9.225429e+000
2.047580e+003, 9.185263e+000
2.049508e+003, 9.087065e+000
2.051437e+003, 9.047960e+000
2.053365e+003, 9.199533e+000
2.055294e+003, 9.376464e+000
2.057222e+003, 9.401600e+000
2.059151e+003, 9.319164e+000
2.061079e+003, 9.221924e+000
2.063008e+003, 9.117733e+000
2.064936e+003, 9.102757e+000
2.066865e+003, 9.201462e+000
2.068793e+003, 9.257401e+000
2.070721e+003, 9.237063e+000
2.072650e+003, 9.191046e+000
2.074578e+003, 9.093669e+000
2.076507e+003, 9.025736e+000
2.078435e+003, 9.023669e+000
2.080364e+003, 9.073191e+000
2.082292e+003, 9.186934e+000
2.084220e+003, 9.331568e+000
2.086149e+003, 9.443849e+000
2.088077e+003, 9.523498e+000
2.090006e+003, 9.542089e+000
2.091934e+003, 9.482328e+000
2.093863e+003, 9.421114e+000
2.095791e+003, 9.340621e+000
2.097720e+003, 9.306065e+000
2.099648e+003, 9.379579e+000
2.101577e+003, 9.421062e+000
2.103505e+003, 9.305203e+000
2.105434e+003, 9.210408e+000
2.107362e+003, 9.312510e+000
2.109291e+003, 9.484649e+000
2.111219e+003, 9.558707e+000
2.113147e+003, 9.558081e+000
2.115076e+003, 9.555113e+000
2.117004e+003, 9.550307e+000
2.118933e+003, 9.554400e+000
2.120861e+003, 9.605486e+000
2.122790e+003, 9.559002e+000
2.124718e+003, 9.242338e+000
2.126647e+003, 9.063715e+000
2.128575e+003, 9.264966e+000
2.130504e+003, 9.430718e+000
2.132432e+003, 9.267740e+000
2.134361e+003, 9.069364e+000
2.136289e+003, 9.150240e+000
2.138218e+003, 9.360458e+000
2.140146e+003, 9.390747e+000
2.142074e+003, 9.292011e+000
2.144003e+003, 9.323779e+000
2.145931e+003, 9.492129e+000
2.147860e+003, 9.599946e+000
2.149788e+003, 9.619284e+000
2.151717e+003, 9.608483e+000
2.153645e+003, 9.532025e+000
2.155574e+003, 9.511344e+000
2.157502e+003, 9.639718e+000
2.159431e+003, 9.760975e+000
2.161359e+003, 9.808263e+000
2.163288e+003, 9.800831e+000
2.165216e+003, 9.747325e+000
2.167145e+003, 9.655807e+000
2.169073e+003, 9.498195e+000
2.171001e+003, 9.306693e+000
2.172930e+003, 9.294985e+000
2.174858e+003, 9.465393e+000
2.176787e+003, 9.600077e+000
2.178715e+003, 9.689037e+000
2.180644e+003, 9.716711e+000
2.182572e+003, 9.649100e+000
2.184501e+003, 9.609809e+000
2.186429e+003, 9.676534e+000
2.188358e+003, 9.720013e+000
2.190286e+003, 9.660893e+000
2.192215e+003, 9.588172e+000
2.194143e+003, 9.559360e+000
2.196072e+003, 9.558136e+000
2.198000e+003, 9.580167e+000
2.199928e+003, 9.608193e+000
2.201857e+003, 9.580390e+000
2.203785e+003, 9.502105e+000
2.205714e+003, 9.510999e+000
2.207642e+003, 9.616782e+000
2.209571e+003, 9.685712e+000
2.211499e+003, 9.700408e+000
2.213428e+003, 9.713664e+000
2.215356e+003, 9.722251e+000
2.217285e+003, 9.762680e+000
2.219213e+003, 9.891909e+000
2.221142e+003, 9.993367e+000
2.223070e+003, 1.001880e+001
2.224999e+003, 9.990871e+000
2.226927e+003, 9.861176e+000
2.228855e+003, 9.740554e+000
2.230784e+003, 9.854278e+000
2.232712e+003, 1.005970e+001
2.234641e+003, 9.924672e+000
2.236569e+003, 9.503961e+000
2.238498e+003, 9.376536e+000
2.240426e+003, 9.551492e+000
2.242355e+003, 9.686615e+000
2.244283e+003, 9.755482e+000
2.246212e+003, 9.780687e+000
2.248140e+003, 9.736552e+000
2.250069e+003, 9.725551e+000
2.251997e+003, 9.812268e+000
2.253926e+003, 9.882948e+000
2.255854e+003, 9.898554e+000
2.257782e+003, 9.886521e+000
2.259711e+003, 9.838260e+000
2.261639e+003, 9.793548e+000
2.263568e+003, 9.791231e+000
2.265496e+003, 9.815085e+000
2.267425e+003, 9.841002e+000
2.269353e+003, 9.872082e+000
2.271282e+003, 9.941026e+000
2.273210e+003, 1.003161e+001
2.275139e+003, 1.000814e+001
2.277067e+003, 9.856236e+000
2.278996e+003, 9.792890e+000
2.280924e+003, 9.882404e+000
2.282853e+003, 9.914327e+000
2.284781e+003, 9.782993e+000
2.286709e+003, 9.729691e+000
2.288638e+003, 9.882633e+000
2.290566e+003, 9.978851e+000
2.292495e+003, 9.867024e+000
2.294423e+003, 9.772614e+000
2.296352e+003, 9.845263e+000
2.298280e+003, 9.937352e+000
2.300209e+003, 9.917723e+000
2.302137e+003, 9.870044e+000
2.304066e+003, 9.894491e+000
2.305994e+003, 9.966211e+000
2.307923e+003, 1.003743e+001
2.309851e+003, 1.010812e+001
2.311780e+003, 1.018839e+001
2.313708e+003, 1.028150e+001
2.315636e+003, 1.029399e+001
2.317565e+003, 1.018103e+001
2.319493e+003, 1.023914e+001
2.321422e+003, 1.054089e+001
2.323350e+003, 1.077584e+001
2.325279e+003, 1.091733e+001
2.327207e+003, 1.092628e+001
2.329136e+003, 1.069543e+001
2.331064e+003, 1.050687e+001
2.332993e+003, 1.051317e+001
2.334921e+003, 1.052782e+001
2.336850e+003, 1.046362e+001
2.338778e+003, 1.035734e+001
2.340707e+003, 1.020428e+001
2.342635e+003, 1.005338e+001
2.344563e+003, 9.956133e+000
2.346492e+003, 9.903487e+000
2.348420e+003, 9.897841e+000
2.350349e+003, 9.919654e+000
2.352277e+003, 9.904962e+000
2.354206e+003, 9.865915e+000
2.356134e+003, 9.877460e+000
2.358063e+003, 9.943419e+000
2.359991e+003, 1.002506e+001
2.361920e+003, 1.015523e+001
2.363848e+003, 1.018543e+001
2.365777e+003, 1.003744e+001
2.367705e+003, 9.998754e+000
2.369634e+003, 1.015627e+001
2.371562e+003, 1.026035e+001
2.373490e+003, 1.024126e+001
2.375419e+003, 1.020181e+001
2.377347e+003, 1.018378e+001
2.379276e+003, 1.014728e+001
2.381204e+003, 1.000585e+001
2.383133e+003, 9.923519e+000
2.385061e+003, 1.008973e+001
2.386990e+003, 1.026990e+001
2.388918e+003, 1.019503e+001
2.390847e+003, 1.006506e+001
2.392775e+003, 1.018179e+001
2.394704e+003, 1.038969e+001
2.396632e+003, 1.036073e+001
2.398561e+003, 1.020170e+001
2.400489e+003, 1.020367e+001
2.402417e+003, 1.033769e+001
2.404346e+003, 1.043292e+001
2.406274e+003, 1.049101e+001
2.408203e+003, 1.044099e+001
2.410131e+003, 1.022993e+001
2.412060e+003, 1.016646e+001
2.413988e+003, 1.030326e+001
2.415917e+003, 1.033200e+001
2.417845e+003, 1.016751e+001
2.419774e+003, 1.015997e+001
2.421702e+003, 1.046715e+001
2.423631e+003, 1.066005e+001
2.425559e+003, 1.050666e+001
2.427488e+003, 1.040575e+001
2.429416e+003, 1.057022e+001
2.431344e+003, 1.066683e+001
2.433273e+003, 1.048119e+001
2.435201e+003, 1.029964e+001
2.437130e+003, 1.028815e+001
2.439058e+003, 1.031677e+001
2.440987e+003, 1.032526e+001
2.442915e+003, 1.030612e+001
2.444844e+003, 1.019734e+001
2.446772e+003, 1.010695e+001
2.448701e+003, 1.024259e+001
2.450629e+003, 1.044461e+001
2.452558e+003, 1.037600e+001
2.454486e+003, 1.016467e+001
2.456415e+003, 1.017364e+001
2.458343e+003, 1.035029e+001
2.460271e+003, 1.045037e+001
2.462200e+003, 1.048435e+001
2.464128e+003, 1.054082e+001
2.466057e+003, 1.061586e+001
2.467985e+003, 1.054158e+001
2.469914e+003, 1.025252e+001
2.471842e+003, 1.018167e+001
2.473771e+003, 1.044794e+001
2.475699e+003, 1.057620e+001
2.477628e+003, 1.053126e+001
2.479556e+003, 1.046498e+001
2.481485e+003, 1.037413e+001
2.483413e+003, 1.034687e+001
2.485342e+003, 1.043737e+001
2.487270e+003, 1.049110e+001
2.489198e+003, 1.044153e+001
2.491127e+003, 1.038986e+001
2.493055e+003, 1.033818e+001
2.494984e+003, 1.032510e+001
2.496912e+003, 1.040333e+001
2.498841e+003, 1.046674e+001
2.500769e+003, 1.047315e+001
2.502698e+003, 1.045531e+001
2.504626e+003, 1.037669e+001
2.506555e+003, 1.034684e+001
2.508483e+003, 1.054160e+001
2.510412e+003, 1.070265e+001
2.512340e+003, 1.052851e+001
2.514269e+003, 1.029089e+001
2.516197e+003, 1.028180e+001
2.518125e+003, 1.037228e+001
2.520054e+003, 1.041406e+001
2.521982e+003, 1.043610e+001
2.523911e+003, 1.049101e+001
2.525839e+003, 1.054899e+001
2.527768e+003, 1.053469e+001
2.529696e+003, 1.048702e+001
2.531625e+003, 1.053110e+001
2.533553e+003, 1.063378e+001
2.535482e+003, 1.066117e+001
2.537410e+003, 1.062047e+001
2.539339e+003, 1.048847e+001
2.541267e+003, 1.030863e+001
2.543196e+003, 1.042360e+001
2.545124e+003, 1.082530e+001
2.547052e+003, 1.088086e+001
2.548981e+003, 1.052541e+001
2.550909e+003, 1.039704e+001
2.552838e+003, 1.053184e+001
2.554766e+003, 1.068344e+001
2.556695e+003, 1.086180e+001
2.558623e+003, 1.085979e+001
2.560552e+003, 1.063174e+001
2.562480e+003, 1.045423e+001
2.564409e+003, 1.034050e+001
2.566337e+003, 1.035087e+001
2.568266e+003, 1.061024e+001
2.570194e+003, 1.075579e+001
2.572123e+003, 1.075869e+001
2.574051e+003, 1.067342e+001
2.575979e+003, 1.045746e+001
2.577908e+003, 1.032012e+001
2.579836e+003, 1.031386e+001
2.581765e+003, 1.038704e+001
2.583693e+003, 1.064262e+001
2.585622e+003, 1.078300e+001
2.587550e+003, 1.065041e+001
2.589479e+003, 1.053606e+001
2.591407e+003, 1.051707e+001
2.593336e+003, 1.050581e+001
2.595264e+003, 1.047344e+001
2.597193e+003, 1.043942e+001
2.599121e+003, 1.040224e+001
2.601050e+003, 1.038127e+001
2.602978e+003, 1.040942e+001
2.604906e+003, 1.042334e+001
2.606835e+003, 1.033840e+001
2.608763e+003, 1.031039e+001
2.610692e+003, 1.049097e+001
2.612620e+003, 1.063524e+001
2.614549e+003, 1.057419e+001
2.616477e+003, 1.045292e+001
2.618406e+003, 1.024046e+001
2.620334e+003, 1.016123e+001
2.622263e+003, 1.055133e+001
2.624191e+003, 1.093689e+001
2.626120e+003, 1.089366e+001
2.628048e+003, 1.075853e+001
2.629977e+003, 1.075901e+001
2.631905e+003, 1.081815e+001
2.633833e+003, 1.093464e+001
2.635762e+003, 1.100049e+001
2.637690e+003, 1.085398e+001
2.639619e+003, 1.065609e+001
2.641547e+003, 1.054223e+001
2.643476e+003, 1.050512e+001
2.645404e+003, 1.058897e+001
2.647333e+003, 1.069259e+001
2.649261e+003, 1.072895e+001
2.651190e+003, 1.069674e+001
2.653118e+003, 1.049733e+001
2.655047e+003, 1.031265e+001
2.656975e+003, 1.047020e+001
2.658904e+003, 1.072976e+001
2.660832e+003, 1.073405e+001
2.662760e+003, 1.064741e+001
2.664689e+003, 1.072777e+001
2.666617e+003, 1.082679e+001
2.668546e+003, 1.064006e+001
2.670474e+003, 1.038362e+001
2.672403e+003, 1.044318e+001
2.674331e+003, 1.065144e+001
2.676260e+003, 1.076446e+001
2.678188e+003, 1.080752e+001
2.680117e+003, 1.079664e+001
2.682045e+003, 1.076139e+001
2.683974e+003, 1.076046e+001
2.685902e+003, 1.076488e+001
2.687831e+003, 1.068504e+001
2.689759e+003, 1.059666e+001
2.691688e+003, 1.068350e+001
2.693616e+003, 1.083048e+001
2.695544e+003, 1.083111e+001
2.697473e+003, 1.076920e+001
2.699401e+003, 1.080882e+001
2.701330e+003, 1.088744e+001
2.703258e+003, 1.088987e+001
2.705187e+003, 1.084196e+001
2.707115e+003, 1.076697e+001
2.709044e+003, 1.069358e+001
2.710972e+003, 1.066837e+001
2.712901e+003, 1.067676e+001
2.714829e+003, 1.069285e+001
2.716758e+003, 1.072533e+001
2.718686e+003, 1.080234e+001
2.720615e+003, 1.089866e+001
2.722543e+003, 1.099490e+001
2.724471e+003, 1.106031e+001
2.726400e+003, 1.100991e+001
2.728328e+003, 1.092930e+001
2.730257e+003, 1.101792e+001
2.732185e+003, 1.111718e+001
2.734114e+003, 1.086887e+001
2.736042e+003, 1.054929e+001
2.737971e+003, 1.064015e+001
2.739899e+003, 1.085969e+001
2.741828e+003, 1.081099e+001
2.743756e+003, 1.070139e+001
2.745685e+003, 1.087421e+001
2.747613e+003, 1.109680e+001
2.749542e+003, 1.100476e+001
2.751470e+003, 1.084246e+001
2.753398e+003, 1.093102e+001
2.755327e+003, 1.105903e+001
2.757255e+003, 1.096924e+001
2.759184e+003, 1.082686e+001
2.761112e+003, 1.080239e+001
2.763041e+003, 1.083025e+001
2.764969e+003, 1.088269e+001
2.766898e+003, 1.091191e+001
2.768826e+003, 1.086069e+001
2.770755e+003, 1.078688e+001
2.772683e+003, 1.071463e+001
2.774612e+003, 1.067084e+001
2.776540e+003, 1.062569e+001
2.778469e+003, 1.068574e+001
2.780397e+003, 1.105956e+001
2.782325e+003, 1.136686e+001
2.784254e+003, 1.133450e+001
2.786182e+003, 1.117766e+001
2.788111e+003, 1.092823e+001
2.790039e+003, 1.074558e+001
2.791968e+003, 1.073570e+001
2.793896e+003, 1.080428e+001
2.795825e+003, 1.099005e+001
2.797753e+003, 1.110966e+001
2.799682e+003, 1.104058e+001
2.801610e+003, 1.093653e+001
2.803539e+003, 1.080975e+001
2.805467e+003, 1.074227e+001
2.807396e+003, 1.078119e+001
2.809324e+003, 1.082259e+001
2.811252e+003, 1.081509e+001
2.813181e+003, 1.083630e+001
2.815109e+003, 1.094178e+001
2.817038e+003, 1.102716e+001
2.818966e+003, 1.111835e+001
2.820895e+003, 1.106829e+001
2.822823e+003, 1.079663e+001
2.824752e+003, 1.058665e+001
2.826680e+003, 1.049907e+001
2.828609e+003, 1.048952e+001
2.830537e+003, 1.060274e+001
2.832466e+003, 1.064326e+001
2.834394e+003, 1.057568e+001
2.836323e+003, 1.060280e+001
2.838251e+003, 1.076680e+001
2.840179e+003, 1.087279e+001
2.842108e+003, 1.089478e+001
2.844036e+003, 1.089147e+001
2.845965e+003, 1.086135e+001
2.847893e+003, 1.081003e+001
2.849822e+003, 1.074597e+001
2.851750e+003, 1.087318e+001
2.853679e+003, 1.118038e+001
2.855607e+003, 1.118907e+001
2.857536e+003, 1.093628e+001
2.859464e+003, 1.083888e+001
2.861393e+003, 1.087241e+001
2.863321e+003, 1.097118e+001
2.865250e+003, 1.109396e+001
2.867178e+003, 1.113970e+001
2.869106e+003, 1.110073e+001
2.871035e+003, 1.088268e+001
2.872963e+003, 1.061218e+001
2.874892e+003, 1.050832e+001
2.876820e+003, 1.055805e+001
2.878749e+003, 1.087845e+001
2.880677e+003, 1.120196e+001
2.882606e+003, 1.114361e+001
2.884534e+003, 1.096492e+001
2.886463e+003, 1.090456e+001
2.888391e+003, 1.088580e+001
2.890320e+003, 1.085565e+001
2.892248e+003, 1.083849e+001
2.894177e+003, 1.083310e+001
2.896105e+003, 1.087260e+001
2.898033e+003, 1.103600e+001
2.899962e+003, 1.114574e+001
2.901890e+003, 1.112721e+001
2.903819e+003, 1.105159e+001
2.905747e+003, 1.087642e+001
2.907676e+003, 1.077238e+001
2.909604e+003, 1.078646e+001
2.911533e+003, 1.084700e+001
2.913461e+003, 1.094606e+001
2.915390e+003, 1.108600e+001
2.917318e+003, 1.133444e+001
2.919247e+003, 1.140286e+001
2.921175e+003, 1.121144e+001
2.923104e+003, 1.115474e+001
2.925032e+003, 1.125059e+001
2.926960e+003, 1.130506e+001
2.928889e+003, 1.130280e+001
2.930817e+003, 1.126800e+001
2.932746e+003, 1.120479e+001
2.934674e+003, 1.118088e+001
2.936603e+003, 1.118599e+001
2.938531e+003, 1.117186e+001
2.940460e+003, 1.115006e+001
2.942388e+003, 1.116045e+001
2.944317e+003, 1.118042e+001
2.946245e+003, 1.117443e+001
2.948174e+003, 1.113726e+001
2.950102e+003, 1.103967e+001
2.952031e+003, 1.093292e+001
2.953959e+003, 1.082601e+001
2.955887e+003, 1.078880e+001
2.957816e+003, 1.093935e+001
2.959744e+003, 1.109780e+001
2.961673e+003, 1.118889e+001
2.963601e+003, 1.121610e+001
2.965530e+003, 1.115282e+001
2.967458e+003, 1.107368e+001
2.969387e+003, 1.097345e+001
2.971315e+003, 1.092358e+001
2.973244e+003, 1.094843e+001
2.975172e+003, 1.097358e+001
2.977101e+003, 1.094545e+001
2.979029e+003, 1.107329e+001
2.980958e+003, 1.146278e+001
2.982886e+003, 1.151380e+001
2.984814e+003, 1.121459e+001
2.986743e+003, 1.096929e+001
2.988671e+003, 1.080935e+001
2.990600e+003, 1.086093e+001
2.992528e+003, 1.105229e+001
2.994457e+003, 1.089667e+001
2.996385e+003, 1.058914e+001
2.998314e+003, 1.063535e+001
3.000242e+003, 1.087048e+001
3.002171e+003, 1.115217e+001
3.004099e+003, 1.133334e+001
3.006028e+003, 1.110524e+001
3.007956e+003, 1.084776e+001
3.009885e+003, 1.087690e+001
3.011813e+003, 1.095880e+001
3.013741e+003, 1.093536e+001
3.015670e+003, 1.095259e+001
3.017598e+003, 1.114936e+001
3.019527e+003, 1.118426e+001
3.021455e+003, 1.082359e+001
3.023384e+003, 1.066343e+001
3.025312e+003, 1.097643e+001
3.027241e+003, 1.122947e+001
3.029169e+003, 1.141740e+001
3.031098e+003, 1.145505e+001
3.033026e+003, 1.133524e+001
3.034955e+003, 1.121205e+001
3.036883e+003, 1.109352e+001
3.038812e+003, 1.101969e+001
3.040740e+003, 1.097248e+001
3.042668e+003, 1.083833e+001
3.044597e+003, 1.071579e+001
3.046525e+003, 1.082289e+001
3.048454e+003, 1.102690e+001
3.050382e+003, 1.124020e+001
3.052311e+003, 1.134009e+001
3.054239e+003, 1.110426e+001
3.056168e+003, 1.091579e+001
3.058096e+003, 1.111285e+001
3.060025e+003, 1.124090e+001
3.061953e+003, 1.110479e+001
3.063882e+003, 1.096198e+001
3.065810e+003, 1.083577e+001
3.067739e+003, 1.084800e+001
3.069667e+003, 1.112313e+001
3.071595e+003, 1.122620e+001
3.073524e+003, 1.114521e+001
3.075452e+003, 1.114974e+001
3.077381e+003, 1.124741e+001
3.079309e+003, 1.137045e+001
3.081238e+003, 1.146688e+001
3.083166e+003, 1.120749e+001
3.085095e+003, 1.084086e+001
3.087023e+003, 1.087441e+001
3.088952e+003, 1.105216e+001
3.090880e+003, 1.109958e+001
3.092809e+003, 1.110784e+001
3.094737e+003, 1.116103e+001
3.096666e+003, 1.118171e+001
3.098594e+003, 1.109448e+001
3.100522e+003, 1.103049e+001
3.102451e+003, 1.104188e+001
3.104379e+003, 1.106198e+001
3.106308e+003, 1.108432e+001
3.108236e+003, 1.110288e+001
3.110165e+003, 1.111289e+001
3.112093e+003, 1.116554e+001
3.114022e+003, 1.125863e+001
3.115950e+003, 1.115884e+001
3.117879e+003, 1.093534e+001
3.119807e+003, 1.079387e+001
3.121736e+003, 1.072915e+001
3.123664e+003, 1.073786e+001
3.125593e+003, 1.080684e+001
3.127521e+003, 1.100582e+001
3.129449e+003, 1.113145e+001
3.131378e+003, 1.092924e+001
3.133306e+003, 1.079770e+001
3.135235e+003, 1.095107e+001
3.137163e+003, 1.109861e+001
3.139092e+003, 1.120024e+001
3.141020e+003, 1.119014e+001
3.142949e+003, 1.099848e+001
3.144877e+003, 1.088443e+001
3.146806e+003, 1.084682e+001
3.148734e+003, 1.087229e+001
3.150663e+003, 1.094295e+001
3.152591e+003, 1.098845e+001
3.154520e+003, 1.101398e+001
3.156448e+003, 1.104596e+001
3.158376e+003, 1.104523e+001
3.160305e+003, 1.092715e+001
3.162233e+003, 1.082255e+001
3.164162e+003, 1.075246e+001
3.166090e+003, 1.087487e+001
3.168019e+003, 1.139487e+001
3.169947e+003, 1.165695e+001
3.171876e+003, 1.127589e+001
3.173804e+003, 1.112879e+001
3.175733e+003, 1.129333e+001
3.177661e+003, 1.131808e+001
3.179590e+003, 1.120084e+001
3.181518e+003, 1.110968e+001
3.183447e+003, 1.104770e+001
3.185375e+003, 1.104666e+001
3.187303e+003, 1.104094e+001
3.189232e+003, 1.093030e+001
3.191160e+003, 1.077313e+001
3.193089e+003, 1.046308e+001
3.195017e+003, 1.039652e+001
3.196946e+003, 1.089828e+001
3.198874e+003, 1.126209e+001
3.200803e+003, 1.120130e+001
3.202731e+003, 1.115452e+001
3.204660e+003, 1.116152e+001
3.206588e+003, 1.122487e+001
3.208517e+003, 1.132533e+001
3.210445e+003, 1.121923e+001
3.212374e+003, 1.100530e+001
3.214302e+003, 1.109295e+001
3.216230e+003, 1.125717e+001
3.218159e+003, 1.109936e+001
3.220087e+003, 1.092871e+001
3.222016e+003, 1.107434e+001
3.223944e+003, 1.117677e+001
3.225873e+003, 1.106003e+001
3.227801e+003, 1.095079e+001
3.229730e+003, 1.089891e+001
3.231658e+003, 1.090655e+001
3.233587e+003, 1.097831e+001
3.235515e+003, 1.105273e+001
3.237444e+003, 1.112596e+001
3.239372e+003, 1.120433e+001
3.241301e+003, 1.125728e+001
3.243229e+003, 1.117416e+001
3.245157e+003, 1.105423e+001
3.247086e+003, 1.097956e+001
3.249014e+003, 1.095634e+001
3.250943e+003, 1.100433e+001
3.252871e+003, 1.108521e+001
3.254800e+003, 1.121556e+001
3.256728e+003, 1.127051e+001
3.258657e+003, 1.120437e+001
3.260585e+003, 1.115240e+001
3.262514e+003, 1.111726e+001
3.264442e+003, 1.109737e+001
3.266371e+003, 1.106522e+001
3.268299e+003, 1.088888e+001
3.270228e+003, 1.071339e+001
3.272156e+003, 1.079663e+001
3.274084e+003, 1.090515e+001
3.276013e+003, 1.085367e+001
3.277941e+003, 1.083980e+001
3.279870e+003, 1.096118e+001
3.281798e+003, 1.108064e+001
3.283727e+003, 1.119223e+001
3.285655e+003, 1.119365e+001
3.287584e+003, 1.108554e+001
3.289512e+003, 1.107862e+001
3.291441e+003, 1.113609e+001
3.293369e+003, 1.117790e+001
3.295298e+003, 1.118474e+001
3.297226e+003, 1.115962e+001
3.299155e+003, 1.103113e+001
3.301083e+003, 1.059900e+001
3.303011e+003, 1.043666e+001
3.304940e+003, 1.105456e+001
3.306868e+003, 1.127964e+001
3.308797e+003, 1.100154e+001
3.310725e+003, 1.093216e+001
3.312654e+003, 1.106068e+001
3.314582e+003, 1.094512e+001
3.316511e+003, 1.073185e+001
3.318439e+003, 1.078690e+001
3.320368e+003, 1.088373e+001
3.322296e+003, 1.076278e+001
3.324225e+003, 1.069689e+001
3.326153e+003, 1.086667e+001
3.328082e+003, 1.097787e+001
3.330010e+003, 1.095647e+001
3.331938e+003, 1.094169e+001
3.333867e+003, 1.094394e+001
3.335795e+003, 1.097580e+001
3.337724e+003, 1.101071e+001
3.339652e+003, 1.090306e+001
3.341581e+003, 1.083118e+001
3.343509e+003, 1.118216e+001
3.345438e+003, 1.145325e+001
3.347366e+003, 1.123790e+001
3.349295e+003, 1.110521e+001
3.351223e+003, 1.129249e+001
3.353152e+003, 1.136292e+001
3.355080e+003, 1.128965e+001
3.357009e+003, 1.126279e+001
3.358937e+003, 1.126630e+001
3.360865e+003, 1.117729e+001
3.362794e+003, 1.105395e+001
3.364722e+003, 1.092866e+001
3.366651e+003, 1.088543e+001
3.368579e+003, 1.107923e+001
3.370508e+003, 1.118782e+001
3.372436e+003, 1.108584e+001
3.374365e+003, 1.108768e+001
3.376293e+003, 1.126412e+001
3.378222e+003, 1.139915e+001
3.380150e+003, 1.147084e+001
3.382079e+003, 1.135948e+001
3.384007e+003, 1.116405e+001
3.385936e+003, 1.093756e+001
3.387864e+003, 1.083877e+001
3.389792e+003, 1.102586e+001
3.391721e+003, 1.121265e+001
3.393649e+003, 1.135787e+001
3.395578e+003, 1.130815e+001
3.397506e+003, 1.106250e+001
3.399435e+003, 1.096815e+001
3.401363e+003, 1.099123e+001
3.403292e+003, 1.098869e+001
3.405220e+003, 1.097440e+001
3.407148e+003, 1.094423e+001
3.409077e+003, 1.094312e+001
3.411005e+003, 1.100800e+001
3.412934e+003, 1.109921e+001
3.414862e+003, 1.122481e+001
3.416791e+003, 1.126937e+001
3.418719e+003, 1.122525e+001
3.420648e+003, 1.100753e+001
3.422576e+003, 1.078905e+001
3.424505e+003, 1.108417e+001
3.426433e+003, 1.140753e+001
3.428362e+003, 1.112836e+001
3.430290e+003, 1.097195e+001
3.432219e+003, 1.128020e+001
3.434147e+003, 1.151553e+001
3.436075e+003, 1.160914e+001
3.438004e+003, 1.143747e+001
3.439932e+003, 1.109471e+001
3.441861e+003, 1.100753e+001
3.443789e+003, 1.105065e+001
3.445718e+003, 1.104195e+001
3.447646e+003, 1.105541e+001
3.449575e+003, 1.120642e+001
3.451503e+003, 1.123367e+001
3.453432e+003, 1.103705e+001
3.455360e+003, 1.099490e+001
3.457289e+003, 1.111927e+001
3.459217e+003, 1.117237e+001
3.461146e+003, 1.117226e+001
3.463074e+003, 1.115894e+001
3.465002e+003, 1.112937e+001
3.466931e+003, 1.110176e+001
3.468859e+003, 1.100099e+001
3.470788e+003, 1.075559e+001
3.472716e+003, 1.071259e+001
3.474645e+003, 1.094148e+001
3.476573e+003, 1.112492e+001
3.478502e+003, 1.121984e+001
3.480430e+003, 1.099618e+001
3.482359e+003, 1.072770e+001
3.484287e+003, 1.066515e+001
3.486216e+003, 1.072817e+001
3.488144e+003, 1.092307e+001
3.490073e+003, 1.108804e+001
3.492001e+003, 1.121501e+001
3.493929e+003, 1.106900e+001
3.495858e+003, 1.080053e+001
3.497786e+003, 1.100203e+001
3.499715e+003, 1.130014e+001
3.501643e+003, 1.121627e+001
3.503572e+003, 1.108433e+001
3.505500e+003, 1.104397e+001
3.507429e+003, 1.098225e+001
3.509357e+003, 1.087016e+001
3.511286e+003, 1.096320e+001
3.513214e+003, 1.119182e+001
3.515143e+003, 1.130841e+001
3.517071e+003, 1.130490e+001
3.519000e+003, 1.104056e+001
3.520928e+003, 1.090691e+001
3.522856e+003, 1.126871e+001
3.524785e+003, 1.140120e+001
3.526713e+003, 1.123496e+001
3.528642e+003, 1.110818e+001
3.530570e+003, 1.103475e+001
3.532499e+003, 1.101081e+001
3.534427e+003, 1.101401e+001
3.536356e+003, 1.100783e+001
3.538284e+003, 1.104478e+001
3.540213e+003, 1.121525e+001
3.542141e+003, 1.114888e+001
3.544070e+003, 1.080396e+001
3.545998e+003, 1.097676e+001
3.547927e+003, 1.141086e+001
3.549855e+003, 1.121733e+001
3.551783e+003, 1.089006e+001
3.553712e+003, 1.081423e+001
3.555640e+003, 1.082757e+001
3.557569e+003, 1.088962e+001
3.559497e+003, 1.095433e+001
3.561426e+003, 1.101903e+001
3.563354e+003, 1.130119e+001
3.565283e+003, 1.158785e+001
3.567211e+003, 1.145874e+001
3.569140e+003, 1.119934e+001
3.571068e+003, 1.088969e+001
3.572997e+003, 1.082428e+001
3.574925e+003, 1.114238e+001
3.576854e+003, 1.132644e+001
3.578782e+003, 1.135572e+001
3.580710e+003, 1.108697e+001
3.582639e+003, 1.083027e+001
3.584567e+003, 1.111700e+001
3.586496e+003, 1.133792e+001
3.588424e+003, 1.119644e+001
3.590353e+003, 1.109979e+001
3.592281e+003, 1.112912e+001
3.594210e+003, 1.102258e+001
3.596138e+003, 1.089093e+001
3.598067e+003, 1.106721e+001
3.599995e+003, 1.126089e+001
3.601924e+003, 1.124018e+001
3.603852e+003, 1.112381e+001
3.605781e+003, 1.082012e+001
3.607709e+003, 1.089030e+001
3.609637e+003, 1.125510e+001
3.611566e+003, 1.136191e+001
3.613494e+003, 1.133890e+001
3.615423e+003, 1.140256e+001
3.617351e+003, 1.135451e+001
3.619280e+003, 1.100986e+001
3.621208e+003, 1.079402e+001
3.623137e+003, 1.074769e+001
3.625065e+003, 1.093207e+001
3.626994e+003, 1.119809e+001
3.628922e+003, 1.117530e+001
3.630851e+003, 1.109148e+001
3.632779e+003, 1.107679e+001
3.634708e+003, 1.113669e+001
3.636636e+003, 1.129871e+001
3.638564e+003, 1.138883e+001
3.640493e+003, 1.141154e+001
3.642421e+003, 1.138866e+001
3.644350e+003, 1.138621e+001
3.646278e+003, 1.154978e+001
3.648207e+003, 1.159972e+001
3.650135e+003, 1.127321e+001
3.652064e+003, 1.122315e+001
3.653992e+003, 1.141903e+001
3.655921e+003, 1.148425e+001
3.657849e+003, 1.147784e+001
3.659778e+003, 1.153201e+001
3.661706e+003, 1.150768e+001
3.663635e+003, 1.124210e+001
3.665563e+003, 1.110021e+001
3.667491e+003, 1.110787e+001
3.669420e+003, 1.132560e+001
3.671348e+003, 1.158058e+001
3.673277e+003, 1.148934e+001
3.675205e+003, 1.133033e+001
3.677134e+003, 1.123611e+001
3.679062e+003, 1.121002e+001
3.680991e+003, 1.124931e+001
3.682919e+003, 1.138699e+001
3.684848e+003, 1.154859e+001
3.686776e+003, 1.155332e+001
3.688705e+003, 1.145853e+001
3.690633e+003, 1.118941e+001
3.692562e+003, 1.114366e+001
3.694490e+003, 1.141596e+001
3.696418e+003, 1.146999e+001
3.698347e+003, 1.137008e+001
3.700275e+003, 1.138683e+001
3.702204e+003, 1.140651e+001
3.704132e+003, 1.133605e+001
3.706061e+003, 1.125079e+001
3.707989e+003, 1.115556e+001
3.709918e+003, 1.118336e+001
3.711846e+003, 1.127945e+001
3.713775e+003, 1.121193e+001
3.715703e+003, 1.114543e+001
3.717632e+003, 1.122676e+001
3.719560e+003, 1.131790e+001
3.721489e+003, 1.138752e+001
3.723417e+003, 1.143213e+001
3.725345e+003, 1.145748e+001
3.727274e+003, 1.150058e+001
3.729202e+003, 1.151210e+001
3.731131e+003, 1.141922e+001
3.733059e+003, 1.138337e+001
3.734988e+003, 1.147434e+001
3.736916e+003, 1.142260e+001
3.738845e+003, 1.128793e+001
3.740773e+003, 1.129199e+001
3.742702e+003, 1.131035e+001
3.744630e+003, 1.123662e+001
3.746559e+003, 1.118802e+001
3.748487e+003, 1.120507e+001
3.750416e+003, 1.113421e+001
3.752344e+003, 1.104792e+001
3.754272e+003, 1.119227e+001
3.756201e+003, 1.132035e+001
3.758129e+003, 1.122264e+001
3.760058e+003, 1.123587e+001
3.761986e+003, 1.146093e+001
3.763915e+003, 1.146281e+001
3.765843e+003, 1.132640e+001
3.767772e+003, 1.117633e+001
3.769700e+003, 1.110318e+001
3.771629e+003, 1.117763e+001
3.773557e+003, 1.121312e+001
3.775486e+003, 1.117927e+001
3.777414e+003, 1.119519e+001
3.779343e+003, 1.121547e+001
3.781271e+003, 1.117711e+001
3.783199e+003, 1.109022e+001
3.785128e+003, 1.095071e+001
3.787056e+003, 1.081109e+001
3.788985e+003, 1.068474e+001
3.790913e+003, 1.064021e+001
3.792842e+003, 1.072366e+001
3.794770e+003, 1.121905e+001
3.796699e+003, 1.134402e+001
3.798627e+003, 1.078533e+001
3.800556e+003, 1.071449e+001
3.802484e+003, 1.104417e+001
3.804413e+003, 1.113132e+001
3.806341e+003, 1.110307e+001
3.808270e+003, 1.098322e+001
3.810198e+003, 1.093969e+001
3.812126e+003, 1.100432e+001
3.814055e+003, 1.119731e+001
3.815983e+003, 1.138245e+001
3.817912e+003, 1.116040e+001
3.819840e+003, 1.096213e+001
3.821769e+003, 1.110440e+001
3.823697e+003, 1.107935e+001
3.825626e+003, 1.085851e+001
3.827554e+003, 1.081841e+001
3.829483e+003, 1.087338e+001
3.831411e+003, 1.090394e+001
3.833340e+003, 1.099663e+001
3.835268e+003, 1.120613e+001
3.837197e+003, 1.125241e+001
3.839125e+003, 1.117338e+001
3.841053e+003, 1.112360e+001
3.842982e+003, 1.114147e+001
3.844910e+003, 1.133649e+001
3.846839e+003, 1.138647e+001
3.848767e+003, 1.125790e+001
3.850696e+003, 1.118803e+001
3.852624e+003, 1.114128e+001
3.854553e+003, 1.098216e+001
3.856481e+003, 1.093974e+001
3.858410e+003, 1.123705e+001
3.860338e+003, 1.127168e+001
3.862267e+003, 1.109684e+001
3.864195e+003, 1.100671e+001
3.866124e+003, 1.099291e+001
3.868052e+003, 1.108438e+001
3.869980e+003, 1.111556e+001
3.871909e+003, 1.103740e+001
3.873837e+003, 1.095863e+001
3.875766e+003, 1.091541e+001
3.877694e+003, 1.099236e+001
3.879623e+003, 1.108246e+001
3.881551e+003, 1.114671e+001
3.883480e+003, 1.123097e+001
3.885408e+003, 1.130033e+001
3.887337e+003, 1.096859e+001
3.889265e+003, 1.070530e+001
3.891194e+003, 1.105090e+001
3.893122e+003, 1.128129e+001
3.895051e+003, 1.128577e+001
3.896979e+003, 1.127850e+001
3.898907e+003, 1.126685e+001
3.900836e+003, 1.123468e+001
3.902764e+003, 1.124495e+001
3.904693e+003, 1.133617e+001
3.906621e+003, 1.135543e+001
3.908550e+003, 1.131608e+001
3.910478e+003, 1.134108e+001
3.912407e+003, 1.128227e+001
3.914335e+003, 1.090015e+001
3.916264e+003, 1.080610e+001
3.918192e+003, 1.100871e+001
3.920121e+003, 1.111430e+001
3.922049e+003, 1.115735e+001
3.923978e+003, 1.117256e+001
3.925906e+003, 1.117608e+001
3.927834e+003, 1.115829e+001
3.929763e+003, 1.127203e+001
3.931691e+003, 1.137544e+001
3.933620e+003, 1.106689e+001
3.935548e+003, 1.090468e+001
3.937477e+003, 1.114762e+001
3.939405e+003, 1.133030e+001
3.941334e+003, 1.140886e+001
3.943262e+003, 1.128402e+001
3.945191e+003, 1.119026e+001
3.947119e+003, 1.136404e+001
3.949048e+003, 1.142198e+001
3.950976e+003, 1.132628e+001
3.952905e+003, 1.125252e+001
3.954833e+003, 1.117127e+001
3.956761e+003, 1.098594e+001
3.958690e+003, 1.096847e+001
3.960618e+003, 1.115920e+001
3.962547e+003, 1.109197e+001
3.964475e+003, 1.093716e+001
3.966404e+003, 1.099189e+001
3.968332e+003, 1.114077e+001
3.970261e+003, 1.139331e+001
3.972189e+003, 1.157799e+001
3.974118e+003, 1.164745e+001
3.976046e+003, 1.137647e+001
3.977975e+003, 1.122646e+001
3.979903e+003, 1.149352e+001
3.981832e+003, 1.144494e+001
3.983760e+003, 1.116355e+001
3.985688e+003, 1.143801e+001
3.987617e+003, 1.169394e+001
3.989545e+003, 1.146494e+001
3.991474e+003, 1.135385e+001
3.993402e+003, 1.141095e+001
3.995331e+003, 1.129260e+001
3.997259e+003, 1.114759e+001
3.999188e+003, 1.111003e+001
4.001116e+003, 1.112692e+001
4.003045e+003, 1.118214e+001
4.004973e+003, 1.119483e+001
4.006902e+003, 1.117056e+001
4.008830e+003, 1.112033e+001
4.010759e+003, 1.101048e+001
4.012687e+003, 1.081783e+001
4.014615e+003, 1.109930e+001
4.016544e+003, 1.143599e+001
4.018472e+003, 1.092092e+001
4.020401e+003, 1.065034e+001
4.022329e+003, 1.105345e+001
4.024258e+003, 1.138901e+001
4.026186e+003, 1.160608e+001
4.028115e+003, 1.164593e+001
4.030043e+003, 1.150942e+001
4.031972e+003, 1.116589e+001
4.033900e+003, 1.135232e+001
4.035829e+003, 1.176759e+001
4.037757e+003, 1.151954e+001
4.039686e+003, 1.126587e+001
4.041614e+003, 1.130450e+001
4.043542e+003, 1.127896e+001
4.045471e+003, 1.120195e+001
4.047399e+003, 1.115059e+001
4.049328e+003, 1.113965e+001
4.051256e+003, 1.119237e+001
4.053185e+003, 1.126717e+001
4.055113e+003, 1.133001e+001
4.057042e+003, 1.123028e+001
4.058970e+003, 1.121501e+001
4.060899e+003, 1.144835e+001
4.062827e+003, 1.141363e+001
4.064756e+003, 1.118678e+001
4.066684e+003, 1.122200e+001
4.068613e+003, 1.122739e+001
4.070541e+003, 1.099590e+001
4.072469e+003, 1.102500e+001
4.074398e+003, 1.124749e+001
4.076326e+003, 1.124799e+001
4.078255e+003, 1.121533e+001
4.080183e+003, 1.131237e+001
4.082112e+003, 1.118955e+001
4.084040e+003, 1.095729e+001
4.085969e+003, 1.109387e+001
4.087897e+003, 1.124857e+001
4.089826e+003, 1.122966e+001
4.091754e+003, 1.115812e+001
4.093683e+003, 1.108204e+001
4.095611e+003, 1.114951e+001
4.097540e+003, 1.119276e+001
4.099468e+003, 1.111031e+001
4.101396e+003, 1.119997e+001
4.103325e+003, 1.137185e+001
4.105253e+003, 1.122234e+001
4.107182e+003, 1.106623e+001
4.109110e+003, 1.103668e+001
4.111039e+003, 1.116486e+001
4.112967e+003, 1.134555e+001
4.114896e+003, 1.118623e+001
4.116824e+003, 1.119338e+001
4.118752e+003, 1.177817e+001
4.120681e+003, 1.183587e+001
4.122609e+003, 1.158534e+001
4.124538e+003, 1.146513e+001
4.126466e+003, 1.145279e+001
4.128395e+003, 1.154991e+001
4.130323e+003, 1.146047e+001
4.132252e+003, 1.133152e+001
4.134180e+003, 1.149137e+001
4.136109e+003, 1.158646e+001
4.138037e+003, 1.152995e+001
4.139966e+003, 1.150662e+001
4.141894e+003, 1.152917e+001
4.143823e+003, 1.167532e+001
4.145751e+003, 1.163705e+001
4.147680e+003, 1.134203e+001
4.149608e+003, 1.110702e+001
4.151537e+003, 1.101059e+001
4.153465e+003, 1.122616e+001
4.155394e+003, 1.139003e+001
4.157322e+003, 1.145417e+001
4.159250e+003, 1.161510e+001
4.161179e+003, 1.175883e+001
4.163107e+003, 1.176877e+001
4.165036e+003, 1.178298e+001
4.166964e+003, 1.179640e+001
4.168893e+003, 1.171361e+001
4.170821e+003, 1.159907e+001
4.172750e+003, 1.146075e+001
4.174678e+003, 1.144767e+001
4.176606e+003, 1.151632e+001
4.178535e+003, 1.150122e+001
4.180463e+003, 1.155380e+001
4.182392e+003, 1.175634e+001
4.184320e+003, 1.161274e+001
4.186249e+003, 1.135971e+001
4.188177e+003, 1.150613e+001
4.190106e+003, 1.170773e+001
4.192034e+003, 1.186862e+001
4.193963e+003, 1.172104e+001
4.195891e+003, 1.152448e+001
4.197820e+003, 1.161690e+001
4.199748e+003, 1.168728e+001
4.201677e+003, 1.167966e+001
4.203605e+003, 1.158429e+001
4.205534e+003, 1.146871e+001
4.207462e+003, 1.133312e+001
4.209391e+003, 1.149259e+001
4.211319e+003, 1.185463e+001
4.213248e+003, 1.187752e+001
4.215176e+003, 1.182399e+001
4.217104e+003, 1.179799e+001
4.219033e+003, 1.187989e+001
4.220961e+003, 1.199247e+001
4.222890e+003, 1.194584e+001
4.224818e+003, 1.191174e+001
4.226747e+003, 1.195822e+001
4.228675e+003, 1.175516e+001
4.230604e+003, 1.156027e+001
4.232532e+003, 1.178097e+001
4.234460e+003, 1.185159e+001
4.236389e+003, 1.172665e+001
4.238317e+003, 1.171349e+001
4.240246e+003, 1.178317e+001
4.242174e+003, 1.203249e+001
4.244103e+003, 1.200173e+001
##END=



