##NAMES=Olenite
##RRUFFID=R061133
##IDEAL CHEMISTRY=NaAl_3_Al_6_(Si_6_O_18_)(BO_3_)_3_O_3_(OH)
##LOCALITY=Uvil'dy, Urals, Siberia, Russia
##OWNER=RRUFF
##SOURCE=Michael Scott
##DESCRIPTION=Blue-gray grains
##STATUS=The identification of this mineral has been confirmed only by single crystal X-ray diffraction
##URL=https://www.rruff.net/odr/rruff_sample/R061133
##DIFFRACTION SAMPLE DESCRIPTION=Single crystal, powder profile is calculated
##CELL PARAMETERS=a: 15.806 b: 15.806 c: 7.089 alpha: 90 beta: 90 gamma: 120 volume: 1533.8 crystal system: hexagonal
##FILETYPE=Raman RAW
##RAMAN WAVELENGTH=532

113.2920, 1449.804
115.2205, 1660.477
117.1490, 1890.437
119.0774, 2139.086
121.0059, 2402.669
122.9344, 2683.088
124.8628, 2976.696
126.7913, 3284.992
128.7198, 3610.982
130.6482, 3935.423
132.5767, 4255.848
134.5052, 4574.161
136.4336, 4890.401
138.3621, 5210.037
140.2906, 5523.683
142.2190, 5823.128
144.1475, 6107.327
146.0760, 6401.553
148.0044, 6719.482
149.9329, 7050.583
151.8614, 7370.800
153.7898, 7669.602
155.7183, 7970.280
157.6468, 8286.345
159.5752, 8631.629
161.5037, 8951.144
163.4322, 9231.939
165.3606, 9483.836
167.2891, 9734.566
169.2176, 9987.991
171.1460, 10234.50
173.0745, 10469.04
175.0030, 10679.67
176.9314, 10897.77
178.8599, 11138.63
180.7884, 11385.66
182.7168, 11608.57
184.6453, 11793.52
186.5738, 11963.95
188.5022, 12124.71
190.4307, 12273.70
192.3592, 12420.43
194.2876, 12569.03
196.2161, 12717.65
198.1446, 12855.37
200.0730, 12971.65
202.0015, 13085.56
203.9300, 13207.27
205.8584, 13341.19
207.7869, 13470.50
209.7154, 13597.76
211.6438, 13715.56
213.5723, 13814.69
215.5008, 13878.72
217.4292, 13945.26
219.3577, 14033.50
221.2862, 14155.02
223.2146, 14261.77
225.1431, 14340.13
227.0716, 14401.05
229.0000, 14471.48
230.9285, 14564.77
232.8570, 14653.00
234.7854, 14724.20
236.7139, 14768.16
238.6424, 14807.35
240.5708, 14840.69
242.4993, 14869.09
244.4278, 14893.49
246.3562, 14897.96
248.2847, 14914.90
250.2132, 14960.96
252.1416, 15040.87
254.0701, 15110.23
255.9986, 15155.39
257.9271, 15189.03
259.8555, 15228.14
261.7840, 15273.12
263.7125, 15323.51
265.6409, 15389.16
267.5694, 15467.22
269.4979, 15524.11
271.4263, 15539.13
273.3548, 15537.25
275.2833, 15538.43
277.2117, 15530.80
279.1402, 15541.47
281.0687, 15592.87
282.9971, 15678.08
284.9256, 15740.62
286.8541, 15760.36
288.7825, 15767.15
290.7110, 15783.63
292.6395, 15812.00
294.5679, 15838.89
296.4964, 15855.40
298.4249, 15864.77
300.3533, 15889.28
302.2818, 15940.08
304.2103, 15994.59
306.1387, 16040.29
308.0672, 16074.99
309.9957, 16113.43
311.9241, 16167.22
313.8526, 16227.27
315.7811, 16266.73
317.7095, 16269.10
319.6380, 16274.64
321.5665, 16300.87
323.4949, 16350.31
325.4234, 16397.59
327.3519, 16445.67
329.2803, 16489.97
331.2088, 16522.26
333.1373, 16536.54
335.0657, 16548.57
336.9942, 16556.69
338.9227, 16564.51
340.8511, 16600.06
342.7796, 16694.67
344.7081, 16785.48
346.6365, 16836.08
348.5650, 16836.19
350.4935, 16846.21
352.4219, 16876.32
354.3504, 16922.32
356.2789, 16976.46
358.2073, 17044.87
360.1358, 17112.07
362.0643, 17170.21
363.9927, 17216.92
365.9212, 17268.73
367.8497, 17328.31
369.7781, 17390.97
371.7066, 17456.43
373.6351, 17529.96
375.5635, 17595.76
377.4920, 17644.86
379.4205, 17678.91
381.3489, 17709.61
383.2774, 17743.72
385.2059, 17768.55
387.1343, 17774.67
389.0628, 17758.95
390.9913, 17761.33
392.9197, 17808.39
394.8482, 17867.93
396.7767, 17895.70
398.7051, 17881.86
400.6336, 17868.27
402.5621, 17858.02
404.4905, 17848.81
406.4190, 17850.55
408.3475, 17875.91
410.2759, 17905.75
412.2044, 17925.33
414.1329, 17933.51
416.0613, 17950.66
417.9898, 17992.75
419.9183, 18041.14
421.8467, 18070.28
423.7752, 18063.52
425.7037, 18055.68
427.6321, 18049.36
429.5606, 18050.63
431.4891, 18073.17
433.4175, 18147.09
435.3460, 18213.56
437.2745, 18241.58
439.2029, 18212.37
441.1314, 18202.87
443.0599, 18246.16
444.9883, 18317.62
446.9168, 18372.59
448.8453, 18387.32
450.7737, 18397.32
452.7022, 18418.76
454.6307, 18451.43
456.5591, 18478.27
458.4876, 18484.91
460.4161, 18494.29
462.3446, 18526.34
464.2730, 18600.69
466.2015, 18657.08
468.1300, 18681.80
470.0584, 18698.13
471.9869, 18721.80
473.9154, 18751.37
475.8438, 18764.37
477.7723, 18760.06
479.7008, 18745.74
481.6292, 18751.07
483.5577, 18780.59
485.4862, 18821.86
487.4146, 18880.89
489.3431, 18958.98
491.2716, 19031.39
493.2000, 19076.10
495.1285, 19103.61
497.0570, 19120.58
498.9854, 19126.74
500.9139, 19127.68
502.8424, 19128.83
504.7708, 19144.53
506.6993, 19188.01
508.6278, 19265.02
510.5562, 19316.73
512.4847, 19338.45
514.4131, 19345.98
516.3416, 19373.97
518.2701, 19431.57
520.1985, 19484.12
522.1270, 19520.84
524.0555, 19543.13
525.9839, 19571.84
527.9124, 19588.26
529.8409, 19609.17
531.7693, 19651.55
533.6978, 19717.62
535.6263, 19748.57
537.5547, 19735.44
539.4832, 19705.50
541.4117, 19695.94
543.3401, 19698.51
545.2686, 19712.87
547.1971, 19742.36
549.1255, 19781.66
551.0540, 19820.04
552.9825, 19872.14
554.9109, 19926.00
556.8394, 19973.57
558.7679, 19999.80
560.6964, 20016.14
562.6248, 20035.26
564.5533, 20056.74
566.4818, 20076.08
568.4102, 20084.97
570.3387, 20103.30
572.2672, 20135.62
574.1956, 20167.56
576.1241, 20174.92
578.0526, 20183.26
579.9811, 20205.20
581.9095, 20234.10
583.8380, 20258.16
585.7665, 20281.35
587.6949, 20292.08
589.6234, 20313.53
591.5519, 20364.65
593.4803, 20436.00
595.4088, 20483.96
597.3373, 20489.33
599.2657, 20491.12
601.1942, 20507.34
603.1227, 20546.47
605.0511, 20579.05
606.9796, 20583.88
608.9081, 20583.13
610.8365, 20594.88
612.7650, 20623.11
614.6935, 20642.15
616.6219, 20646.78
618.5504, 20660.61
620.4789, 20703.58
622.4073, 20765.71
624.3358, 20818.95
626.2643, 20858.64
628.1927, 20897.78
630.1212, 20942.52
632.0497, 20976.42
633.9781, 20999.56
635.9066, 21011.38
637.8351, 21030.47
639.7635, 21064.98
641.6920, 21107.04
643.6205, 21139.01
645.5490, 21148.09
647.4774, 21159.33
649.4059, 21182.61
651.3344, 21200.67
653.2628, 21217.57
655.1913, 21236.24
657.1198, 21274.83
659.0482, 21318.07
660.9767, 21361.36
662.9052, 21390.29
664.8336, 21402.96
666.7621, 21419.51
668.6906, 21440.17
670.6190, 21460.59
672.5475, 21481.70
674.4760, 21505.06
676.4044, 21534.91
678.3329, 21571.95
680.2614, 21632.82
682.1898, 21682.84
684.1183, 21707.00
686.0468, 21688.10
687.9752, 21687.63
689.9037, 21719.17
691.8322, 21766.21
693.7606, 21808.64
695.6891, 21840.39
697.6176, 21871.86
699.5460, 21909.27
701.4745, 21949.98
703.4030, 21984.72
705.3314, 22009.65
707.2599, 22043.16
709.1884, 22102.56
711.1168, 22158.43
713.0453, 22181.40
714.9738, 22149.63
716.9022, 22156.03
718.8307, 22248.01
720.7592, 22366.60
722.6876, 22428.68
724.6161, 22413.30
726.5446, 22401.33
728.4730, 22417.89
730.4015, 22442.73
732.3300, 22448.65
734.2584, 22412.98
736.1869, 22401.60
738.1154, 22447.64
740.0438, 22522.55
741.9723, 22557.49
743.9008, 22533.09
745.8292, 22511.91
747.7577, 22510.92
749.6862, 22526.49
751.6146, 22553.56
753.5431, 22603.79
755.4716, 22647.47
757.4000, 22678.39
759.3285, 22700.34
761.2570, 22716.15
763.1854, 22721.10
765.1139, 22729.80
767.0424, 22748.29
768.9708, 22772.04
770.8993, 22798.51
772.8278, 22833.07
774.7562, 22866.36
776.6847, 22894.83
778.6132, 22920.72
780.5416, 22941.93
782.4701, 22950.61
784.3986, 22964.97
786.3270, 23004.47
788.2555, 23056.75
790.1840, 23086.60
792.1124, 23062.14
794.0409, 23054.50
795.9694, 23082.25
797.8978, 23144.43
799.8263, 23193.68
801.7548, 23216.97
803.6832, 23235.46
805.6117, 23272.15
807.5402, 23321.71
809.4686, 23366.86
811.3971, 23411.02
813.3256, 23449.86
815.2540, 23467.97
817.1825, 23462.21
819.1110, 23466.93
821.0394, 23484.45
822.9679, 23511.18
824.8964, 23549.71
826.8248, 23599.78
828.7533, 23640.61
830.6818, 23661.64
832.6102, 23676.45
834.5387, 23698.32
836.4672, 23722.71
838.3956, 23739.21
840.3241, 23742.78
842.2526, 23764.20
844.1810, 23827.28
846.1095, 23896.91
848.0380, 23942.87
849.9664, 23953.13
851.8949, 23973.79
853.8234, 24009.72
855.7518, 24053.26
857.6803, 24093.82
859.6088, 24131.83
861.5372, 24158.15
863.4657, 24161.49
865.3942, 24150.13
867.3226, 24161.54
869.2511, 24205.34
871.1796, 24264.55
873.1080, 24341.19
875.0365, 24411.73
876.9650, 24442.52
878.8934, 24424.22
880.8219, 24417.24
882.7504, 24460.21
884.6788, 24496.83
886.6073, 24497.30
888.5358, 24474.49
890.4642, 24483.80
892.3927, 24533.43
894.3212, 24566.01
896.2496, 24593.99
898.1781, 24634.89
900.1066, 24688.48
902.0350, 24743.73
903.9635, 24784.47
905.8920, 24805.21
907.8204, 24810.55
909.7489, 24829.75
911.6774, 24892.16
913.6058, 24970.24
915.5343, 24996.35
917.4628, 24963.78
919.3912, 24930.27
921.3197, 24927.05
923.2482, 24964.53
925.1766, 25026.50
927.1051, 25087.31
929.0336, 25139.67
930.9620, 25187.60
932.8905, 25202.71
934.8190, 25182.42
936.7474, 25188.71
938.6759, 25224.09
940.6044, 25268.31
942.5328, 25295.12
944.4613, 25340.91
946.3898, 25395.91
948.3182, 25445.05
950.2467, 25488.38
952.1752, 25531.56
954.1036, 25557.18
956.0321, 25570.00
957.9606, 25591.25
959.8890, 25623.84
961.8175, 25654.38
963.7460, 25658.89
965.6744, 25655.62
967.6029, 25670.42
969.5314, 25706.01
971.4598, 25752.00
973.3883, 25796.38
975.3168, 25821.10
977.2452, 25839.56
979.1737, 25889.97
981.1022, 25972.88
983.0306, 26041.65
984.9591, 26042.62
986.8876, 26067.20
988.8160, 26118.93
990.7445, 26160.15
992.6730, 26167.95
994.6014, 26177.97
996.5299, 26222.41
998.4584, 26280.85
1000.387, 26342.09
1002.315, 26391.65
1004.244, 26418.74
1006.172, 26399.06
1008.101, 26385.12
1010.029, 26410.70
1011.958, 26463.24
1013.886, 26522.13
1015.815, 26563.69
1017.743, 26613.30
1019.672, 26663.30
1021.600, 26707.29
1023.528, 26751.89
1025.457, 26800.92
1027.385, 26822.80
1029.314, 26810.02
1031.242, 26808.18
1033.171, 26825.66
1035.099, 26855.36
1037.028, 26892.47
1038.956, 26938.27
1040.885, 26978.98
1042.813, 27013.67
1044.742, 27056.13
1046.670, 27116.80
1048.599, 27167.93
1050.527, 27193.39
1052.455, 27229.18
1054.384, 27287.81
1056.312, 27366.65
1058.241, 27405.16
1060.169, 27398.63
1062.098, 27392.64
1064.026, 27411.71
1065.955, 27467.77
1067.883, 27542.87
1069.812, 27634.74
1071.740, 27691.12
1073.669, 27721.48
1075.597, 27744.74
1077.526, 27775.40
1079.454, 27810.24
1081.382, 27831.50
1083.311, 27824.19
1085.239, 27785.51
1087.168, 27777.76
1089.096, 27833.32
1091.025, 27903.99
1092.953, 27942.26
1094.882, 27945.93
1096.810, 27958.28
1098.739, 27991.02
1100.667, 28037.29
1102.596, 28096.34
1104.524, 28167.58
1106.453, 28221.60
1108.381, 28235.23
1110.309, 28235.46
1112.238, 28217.20
1114.166, 28227.74
1116.095, 28285.43
1118.023, 28382.94
1119.952, 28464.27
1121.880, 28521.66
1123.809, 28551.03
1125.737, 28547.86
1127.666, 28539.73
1129.594, 28553.08
1131.523, 28597.41
1133.451, 28636.34
1135.380, 28665.42
1137.308, 28706.83
1139.236, 28760.31
1141.165, 28816.40
1143.093, 28858.37
1145.022, 28870.37
1146.950, 28885.46
1148.879, 28931.61
1150.807, 29001.37
1152.736, 29053.80
1154.664, 29083.17
1156.593, 29093.31
1158.521, 29060.35
1160.450, 29028.56
1162.378, 29055.25
1164.307, 29175.36
1166.235, 29271.06
1168.163, 29325.43
1170.092, 29367.77
1172.020, 29417.85
1173.949, 29474.18
1175.877, 29518.39
1177.806, 29543.44
1179.734, 29568.80
1181.663, 29606.76
1183.591, 29646.69
1185.520, 29674.16
1187.448, 29686.33
1189.377, 29698.04
1191.305, 29700.74
1193.234, 29715.82
1195.162, 29759.22
1197.090, 29825.04
1199.019, 29880.77
1200.947, 29911.92
1202.876, 29955.27
1204.804, 30031.78
1206.733, 30114.36
1208.661, 30160.06
1210.590, 30163.17
1212.518, 30182.90
1214.447, 30247.37
1216.375, 30314.05
1218.304, 30350.13
1220.232, 30358.75
1222.161, 30384.45
1224.089, 30446.68
1226.017, 30507.86
1227.946, 30547.96
1229.874, 30571.38
1231.803, 30602.79
1233.731, 30655.26
1235.660, 30701.42
1237.588, 30737.54
1239.517, 30766.96
1241.445, 30788.14
1243.374, 30799.72
1245.302, 30827.09
1247.231, 30883.70
1249.159, 30945.49
1251.088, 31012.90
1253.016, 31072.38
1254.944, 31112.98
1256.873, 31135.18
1258.801, 31161.86
1260.730, 31194.01
1262.658, 31237.58
1264.587, 31311.75
1266.515, 31395.39
1268.444, 31423.67
1270.372, 31353.26
1272.301, 31335.54
1274.229, 31434.86
1276.158, 31566.17
1278.086, 31648.61
1280.015, 31691.32
1281.943, 31729.97
1283.871, 31739.49
1285.800, 31761.52
1287.728, 31824.63
1289.657, 31906.47
1291.585, 31965.79
1293.514, 32013.15
1295.442, 32054.27
1297.371, 32082.61
1299.299, 32108.93
1301.228, 32146.34
1303.156, 32176.62
1305.085, 32197.52
1307.013, 32227.68
1308.942, 32274.53
1310.870, 32347.11
1312.798, 32410.71
1314.727, 32435.34
1316.655, 32417.96
1318.584, 32423.74
1320.512, 32465.92
1322.441, 32525.65
1324.369, 32606.32
1326.298, 32697.41
1328.226, 32775.83
1330.155, 32829.94
1332.083, 32875.00
1334.012, 32918.13
1335.940, 32951.65
1337.869, 32958.43
1339.797, 32953.95
1341.726, 32983.20
1343.654, 33043.66
1345.583, 33100.73
1347.511, 33139.00
1349.439, 33176.98
1351.368, 33239.53
1353.296, 33327.79
1355.225, 33392.01
1357.153, 33410.73
1359.082, 33442.39
1361.010, 33516.88
1362.939, 33598.48
1364.867, 33647.15
1366.796, 33677.77
1368.724, 33726.00
1370.653, 33758.84
1372.581, 33785.35
1374.510, 33835.08
1376.438, 33912.55
1378.366, 33981.22
1380.295, 34008.55
1382.223, 34025.38
1384.152, 34052.67
1386.080, 34103.67
1388.009, 34174.62
1389.937, 34242.68
1391.866, 34278.11
1393.794, 34286.53
1395.723, 34320.19
1397.651, 34388.48
1399.580, 34472.34
1401.508, 34558.68
1403.437, 34635.07
1405.365, 34682.54
1407.293, 34717.98
1409.222, 34762.28
1411.150, 34780.43
1413.079, 34786.22
1415.007, 34823.58
1416.936, 34898.21
1418.864, 34946.21
1420.793, 34917.12
1422.721, 34923.76
1424.650, 35078.29
1426.578, 35252.74
1428.507, 35304.75
1430.435, 35232.73
1432.364, 35224.47
1434.292, 35328.23
1436.220, 35402.88
1438.149, 35396.26
1440.077, 35375.35
1442.006, 35423.35
1443.934, 35561.10
1445.863, 35661.13
1447.791, 35708.89
1449.720, 35740.48
1451.648, 35734.77
1453.577, 35709.45
1455.505, 35706.59
1457.434, 35738.26
1459.362, 35799.56
1461.291, 35891.97
1463.219, 35969.41
1465.147, 36042.81
1467.076, 36121.28
1469.004, 36192.61
1470.933, 36249.36
1472.861, 36291.60
1474.790, 36309.51
1476.718, 36340.37
1478.647, 36414.65
1480.575, 36487.64
1482.504, 36511.09
1484.432, 36495.17
1486.361, 36475.88
1488.289, 36418.09
1490.218, 36397.89
1492.146, 36504.11
1494.074, 36669.14
1496.003, 36796.70
1497.931, 36877.38
1499.860, 36934.94
1501.788, 36977.50
1503.717, 37018.00
1505.645, 37035.93
1507.574, 37053.76
1509.502, 37095.14
1511.431, 37156.81
1513.359, 37214.37
1515.288, 37264.24
1517.216, 37311.96
1519.145, 37370.76
1521.073, 37429.24
1523.001, 37463.70
1524.930, 37474.99
1526.858, 37487.95
1528.787, 37493.38
1530.715, 37521.61
1532.644, 37599.50
1534.572, 37687.25
1536.501, 37760.38
1538.429, 37821.09
1540.358, 37875.44
1542.286, 37924.99
1544.215, 37962.14
1546.143, 37972.18
1548.072, 37989.88
1550.000, 38025.36
1551.928, 38076.62
1553.857, 38153.78
1555.785, 38283.54
1557.714, 38361.68
1559.642, 38340.67
1561.571, 38327.34
1563.499, 38354.43
1565.428, 38407.17
1567.356, 38472.45
1569.285, 38552.79
1571.213, 38632.92
1573.142, 38745.14
1575.070, 38811.29
1576.999, 38760.01
1578.927, 38709.03
1580.855, 38784.04
1582.784, 38956.64
1584.712, 39030.66
1586.641, 38945.41
1588.569, 38909.18
1590.498, 38976.76
1592.426, 39065.16
1594.355, 39134.60
1596.283, 39192.94
1598.212, 39262.29
1600.140, 39349.02
1602.069, 39406.11
1603.997, 39385.93
1605.926, 39394.87
1607.854, 39502.66
1609.782, 39633.21
1611.711, 39693.52
1613.639, 39690.90
1615.568, 39705.37
1617.496, 39737.91
1619.425, 39786.79
1621.353, 39855.57
1623.282, 39938.36
1625.210, 40051.65
1627.139, 40171.36
1629.067, 40236.23
1630.996, 40239.80
1632.924, 40229.66
1634.853, 40182.21
1636.781, 40165.94
1638.709, 40234.43
1640.638, 40333.66
1642.566, 40394.39
1644.495, 40422.05
1646.423, 40466.83
1648.352, 40538.71
1650.280, 40608.86
1652.209, 40659.33
1654.137, 40715.84
1656.066, 40822.54
1657.994, 40940.13
1659.923, 40979.50
1661.851, 40928.66
1663.780, 40954.09
1665.708, 41137.83
1667.636, 41293.35
1669.565, 41318.09
1671.493, 41305.68
1673.422, 41351.90
1675.350, 41441.23
1677.279, 41505.25
1679.207, 41535.61
1681.136, 41566.77
1683.064, 41609.82
1684.993, 41650.35
1686.921, 41661.52
1688.850, 41676.29
1690.778, 41757.99
1692.707, 41900.28
1694.635, 41995.29
1696.563, 42005.90
1698.492, 42043.16
1700.420, 42181.75
1702.349, 42312.41
1704.277, 42347.27
1706.206, 42327.21
1708.134, 42337.28
1710.063, 42377.78
1711.991, 42445.09
1713.920, 42572.58
1715.848, 42664.91
1717.777, 42631.82
1719.705, 42604.22
1721.634, 42726.84
1723.562, 42942.46
1725.490, 43051.80
1727.419, 43034.87
1729.347, 43022.43
1731.276, 43000.23
1733.204, 43025.59
1735.133, 43167.51
1737.061, 43325.82
1738.990, 43379.90
1740.918, 43358.65
1742.847, 43427.18
1744.775, 43630.01
1746.704, 43765.50
1748.632, 43765.12
1750.561, 43756.63
1752.489, 43781.53
1754.417, 43822.32
1756.346, 43862.66
1758.274, 43902.72
1760.203, 43943.27
1762.131, 43982.36
1764.060, 44026.60
1765.988, 44081.41
1767.917, 44135.14
1769.845, 44158.70
1771.774, 44198.32
1773.702, 44334.57
1775.631, 44545.70
1777.559, 44659.84
1779.488, 44599.41
1781.416, 44590.18
1783.344, 44675.47
1785.273, 44754.12
1787.201, 44805.94
1789.130, 44826.73
1791.058, 44777.29
1792.987, 44684.24
1794.915, 44708.03
1796.844, 44910.50
1798.772, 45056.98
1800.701, 45060.55
1802.629, 45110.97
1804.558, 45323.41
1806.486, 45536.50
1808.415, 45600.87
1810.343, 45559.79
1812.271, 45562.97
1814.200, 45618.68
1816.128, 45659.29
1818.057, 45650.71
1819.985, 45684.42
1821.914, 45843.74
1823.842, 45993.18
1825.771, 46028.94
1827.699, 46006.72
1829.628, 46038.23
1831.556, 46121.89
1833.485, 46213.15
1835.413, 46324.20
1837.342, 46387.14
1839.270, 46335.31
1841.198, 46300.02
1843.127, 46376.03
1845.055, 46493.71
1846.984, 46557.43
1848.912, 46586.22
1850.841, 46693.14
1852.769, 46911.43
1854.698, 47040.29
1856.626, 46974.87
1858.555, 46928.64
1860.483, 47004.47
1862.412, 47112.42
1864.340, 47194.02
1866.269, 47244.47
1868.197, 47230.61
1870.125, 47129.94
1872.054, 47120.21
1873.982, 47269.65
1875.911, 47408.14
1877.839, 47521.09
1879.768, 47606.99
1881.696, 47655.16
1883.625, 47681.40
1885.553, 47692.57
1887.482, 47693.69
1889.410, 47754.03
1891.339, 47907.80
1893.267, 48034.61
1895.196, 48132.78
1897.124, 48197.64
1899.052, 48177.18
1900.981, 48175.37
1902.909, 48302.16
1904.838, 48484.57
1906.766, 48555.61
1908.695, 48520.48
1910.623, 48541.37
1912.552, 48646.82
1914.480, 48726.55
1916.409, 48747.16
1918.337, 48757.07
1920.266, 48777.60
1922.194, 48797.40
1924.123, 48791.72
1926.051, 48782.25
1927.979, 48824.48
1929.908, 48918.87
1931.836, 49002.31
1933.765, 49056.89
1935.693, 49136.82
1937.622, 49287.79
1939.550, 49422.24
1941.479, 49488.85
1943.407, 49532.46
1945.336, 49598.80
1947.264, 49679.52
1949.193, 49747.54
1951.121, 49800.30
1953.050, 49853.45
1954.978, 49940.16
1956.906, 49970.10
1958.835, 49841.83
1960.763, 49775.66
1962.692, 49909.85
1964.620, 50097.75
1966.549, 50218.14
1968.477, 50278.69
1970.406, 50283.15
1972.334, 50231.99
1974.263, 50226.19
1976.191, 50280.51
1978.120, 50353.07
1980.048, 50460.17
1981.977, 50538.97
1983.905, 50523.73
1985.833, 50503.91
1987.762, 50566.18
1989.690, 50672.18
1991.619, 50756.64
1993.547, 50818.82
1995.476, 50812.04
1997.404, 50670.08
1999.333, 50630.12
2001.261, 50757.16
2003.190, 50918.50
2005.118, 51151.65
2007.047, 51329.89
2008.975, 51309.60
2010.904, 51223.29
2012.832, 51294.32
2014.760, 51489.92
2016.689, 51533.79
2018.617, 51395.05
2020.546, 51358.06
2022.474, 51476.96
2024.403, 51614.05
2026.331, 51753.20
2028.260, 51874.43
2030.188, 51969.14
2032.117, 52040.01
2034.045, 52075.98
2035.974, 52094.30
2037.902, 52139.80
2039.831, 52209.95
2041.759, 52233.59
2043.688, 52170.37
2045.616, 52175.27
2047.544, 52339.07
2049.473, 52452.22
2051.401, 52401.33
2053.330, 52371.39
2055.258, 52495.71
2057.187, 52667.53
2059.115, 52784.06
2061.044, 52845.83
2062.972, 52827.22
2064.901, 52730.21
2066.829, 52726.41
2068.758, 52846.27
2070.686, 52950.67
2072.615, 53014.14
2074.543, 53059.73
2076.471, 53077.78
2078.400, 53101.80
2080.328, 53165.42
2082.257, 53234.55
2084.185, 53262.42
2086.114, 53264.37
2088.042, 53288.89
2089.971, 53338.24
2091.899, 53381.70
2093.828, 53402.38
2095.756, 53456.18
2097.685, 53573.22
2099.613, 53677.57
2101.542, 53756.12
2103.470, 53812.63
2105.398, 53842.40
2107.327, 53857.18
2109.255, 53856.02
2111.184, 53853.09
2113.112, 53876.52
2115.041, 53924.73
2116.969, 53991.25
2118.898, 54085.01
2120.826, 54141.16
2122.755, 54130.05
2124.683, 54123.07
2126.612, 54105.32
2128.540, 54128.74
2130.469, 54249.87
2132.397, 54379.78
2134.325, 54457.65
2136.254, 54499.59
2138.182, 54517.90
2140.111, 54520.59
2142.039, 54526.84
2143.968, 54539.35
2145.896, 54643.80
2147.825, 54880.47
2149.753, 54993.29
2151.682, 54856.52
2153.610, 54771.88
2155.539, 54870.59
2157.467, 54984.18
2159.396, 55024.84
2161.324, 55057.09
2163.252, 55159.78
2165.181, 55276.52
2167.109, 55287.82
2169.038, 55224.88
2170.966, 55283.72
2172.895, 55468.19
2174.823, 55536.95
2176.752, 55450.83
2178.680, 55406.29
2180.609, 55441.59
2182.537, 55504.76
2184.466, 55594.67
2186.394, 55688.54
2188.323, 55785.98
2190.251, 55872.92
2192.179, 55948.94
2194.108, 56000.23
2196.036, 55979.92
2197.965, 55921.63
2199.893, 55956.91
2201.822, 56085.30
2203.750, 56152.18
2205.679, 56147.85
2207.607, 56141.62
2209.536, 56134.46
2211.464, 56151.20
2213.393, 56212.13
2215.321, 56270.68
2217.250, 56304.20
2219.178, 56336.76
2221.106, 56361.52
2223.035, 56411.67
2224.963, 56558.20
2226.892, 56730.09
2228.820, 56797.96
2230.749, 56777.36
2232.677, 56729.16
2234.606, 56656.13
2236.534, 56659.25
2238.463, 56755.19
2240.391, 56813.96
2242.320, 56808.20
2244.248, 56794.75
2246.177, 56754.38
2248.105, 56757.57
2250.033, 56857.75
2251.962, 56966.82
2253.890, 57047.41
2255.819, 57104.55
2257.747, 57128.58
2259.676, 57141.79
2261.604, 57194.73
2263.533, 57260.94
2265.461, 57228.60
2267.390, 57124.61
2269.318, 57166.66
2271.247, 57380.38
2273.175, 57511.45
2275.104, 57514.20
2277.032, 57500.69
2278.960, 57425.89
2280.889, 57425.67
2282.817, 57609.52
2284.746, 57750.86
2286.674, 57742.85
2288.603, 57703.64
2290.531, 57680.99
2292.460, 57676.64
2294.388, 57680.88
2296.317, 57712.04
2298.245, 57836.02
2300.174, 58001.87
2302.102, 58033.43
2304.031, 57939.48
2305.959, 57915.43
2307.887, 57972.93
2309.816, 58048.71
2311.744, 58145.49
2313.673, 58256.50
2315.601, 58406.90
2317.530, 58484.15
2319.458, 58422.60
2321.387, 58364.37
2323.315, 58354.58
2325.244, 58373.66
2327.172, 58423.98
2329.101, 58485.76
2331.029, 58559.88
2332.958, 58623.33
2334.886, 58654.97
2336.814, 58654.10
2338.743, 58595.79
2340.671, 58508.37
2342.600, 58477.45
2344.528, 58501.29
2346.457, 58569.97
2348.385, 58689.25
2350.314, 58775.04
2352.242, 58806.32
2354.171, 58846.63
2356.099, 58924.41
2358.028, 58951.77
2359.956, 58877.37
2361.885, 58840.42
2363.813, 58885.28
2365.741, 58957.28
2367.670, 59079.11
2369.598, 59159.42
2371.527, 59102.52
2373.455, 59027.88
2375.384, 59035.08
2377.312, 59082.45
2379.241, 59126.54
2381.169, 59169.14
2383.098, 59219.65
2385.026, 59270.61
2386.955, 59285.25
2388.883, 59275.70
2390.812, 59326.04
2392.740, 59438.87
2394.668, 59455.82
2396.597, 59317.79
2398.525, 59274.72
2400.454, 59367.96
2402.382, 59466.63
2404.311, 59584.80
2406.239, 59654.46
2408.168, 59651.40
2410.096, 59626.02
2412.025, 59571.20
2413.953, 59537.74
2415.882, 59557.11
2417.810, 59591.48
2419.739, 59635.30
2421.667, 59668.26
2423.595, 59655.40
2425.524, 59642.93
2427.452, 59664.81
2429.381, 59726.77
2431.309, 59892.75
2433.238, 60074.03
2435.166, 60078.61
2437.095, 59962.13
2439.023, 59891.52
2440.952, 59869.24
2442.880, 59936.64
2444.809, 60104.67
2446.737, 60179.12
2448.666, 60154.30
2450.594, 60143.25
2452.522, 60155.33
2454.451, 60169.30
2456.379, 60176.89
2458.308, 60204.21
2460.236, 60272.68
2462.165, 60331.20
2464.093, 60395.95
2466.022, 60408.31
2467.950, 60291.30
2469.879, 60247.20
2471.807, 60435.16
2473.736, 60568.88
2475.664, 60439.19
2477.593, 60293.30
2479.521, 60291.79
2481.449, 60322.93
2483.378, 60276.04
2485.306, 60240.72
2487.235, 60337.02
2489.163, 60471.30
2491.092, 60535.82
2493.020, 60554.25
2494.949, 60537.82
2496.877, 60514.38
2498.806, 60557.94
2500.734, 60647.06
2502.663, 60707.84
2504.591, 60741.12
2506.520, 60742.97
2508.448, 60720.36
2510.376, 60746.77
2512.305, 60820.95
2514.233, 60819.60
2516.162, 60713.50
2518.090, 60676.23
2520.019, 60750.50
2521.947, 60763.46
2523.876, 60684.82
2525.804, 60673.57
2527.733, 60759.52
2529.661, 60856.96
2531.590, 60977.74
2533.518, 61030.25
2535.447, 60933.30
2537.375, 60867.75
2539.303, 60883.68
2541.232, 60909.50
2543.160, 60937.26
2545.089, 60956.36
2547.017, 60927.45
2548.946, 60951.85
2550.874, 61161.39
2552.803, 61320.37
2554.731, 61248.25
2556.660, 61160.98
2558.588, 61195.32
2560.517, 61257.88
2562.445, 61302.47
2564.374, 61326.34
2566.302, 61320.68
2568.230, 61299.83
2570.159, 61253.51
2572.087, 61223.20
2574.016, 61283.21
2575.944, 61368.50
2577.873, 61391.14
2579.801, 61375.59
2581.730, 61335.89
2583.658, 61302.21
2585.587, 61339.52
2587.515, 61415.93
2589.444, 61458.32
2591.372, 61479.25
2593.301, 61517.45
2595.229, 61567.56
2597.157, 61608.13
2599.086, 61640.92
2601.014, 61679.74
2602.943, 61718.42
2604.871, 61706.12
2606.800, 61648.83
2608.728, 61645.05
2610.657, 61693.83
2612.585, 61736.02
2614.514, 61770.22
2616.442, 61783.13
2618.371, 61774.06
2620.299, 61763.27
2622.228, 61747.34
2624.156, 61761.84
2626.084, 61812.47
2628.013, 61866.50
2629.941, 61927.57
2631.870, 61905.40
2633.798, 61776.42
2635.727, 61720.09
2637.655, 61777.38
2639.584, 61842.83
2641.512, 61931.71
2643.441, 61956.78
2645.369, 61888.94
2647.298, 61919.43
2649.226, 62113.77
2651.155, 62184.66
2653.083, 61989.80
2655.011, 61909.96
2656.940, 62023.04
2658.868, 62132.63
2660.797, 62236.29
2662.725, 62289.05
2664.654, 62279.13
2666.582, 62231.66
2668.511, 62107.91
2670.439, 62037.08
2672.368, 62023.76
2674.296, 62098.73
2676.225, 62316.02
2678.153, 62467.21
2680.082, 62512.22
2682.010, 62480.91
2683.938, 62308.80
2685.867, 62189.66
2687.795, 62167.75
2689.724, 62180.15
2691.652, 62226.80
2693.581, 62292.39
2695.509, 62410.48
2697.438, 62445.24
2699.366, 62251.41
2701.295, 62157.78
2703.223, 62290.93
2705.152, 62408.83
2707.080, 62473.78
2709.009, 62527.83
2710.937, 62582.78
2712.865, 62624.92
2714.794, 62686.89
2716.722, 62668.19
2718.651, 62463.58
2720.579, 62365.22
2722.508, 62481.48
2724.436, 62525.36
2726.365, 62356.48
2728.293, 62268.58
2730.222, 62396.29
2732.150, 62503.16
2734.079, 62560.46
2736.007, 62577.83
2737.936, 62523.25
2739.864, 62546.23
2741.792, 62771.90
2743.721, 62871.85
2745.649, 62663.83
2747.578, 62549.38
2749.506, 62611.65
2751.435, 62617.51
2753.363, 62491.48
2755.292, 62446.60
2757.220, 62580.16
2759.149, 62680.95
2761.077, 62721.57
2763.006, 62736.00
2764.934, 62717.76
2766.863, 62715.95
2768.791, 62743.73
2770.719, 62761.27
2772.648, 62718.84
2774.576, 62779.29
2776.505, 62993.75
2778.433, 63103.10
2780.362, 63076.58
2782.290, 63033.26
2784.219, 62974.39
2786.147, 62976.09
2788.076, 63083.24
2790.004, 63093.68
2791.933, 62996.63
2793.861, 62943.61
2795.790, 62945.25
2797.718, 62925.09
2799.646, 62866.24
2801.575, 62928.30
2803.504, 63126.34
2805.432, 63188.62
2807.361, 63128.23
2809.289, 63137.33
2811.218, 63214.47
2813.146, 63211.59
2815.074, 63139.93
2817.003, 63145.60
2818.931, 63208.27
2820.860, 63192.46
2822.788, 63126.68
2824.717, 63128.27
2826.645, 63174.02
2828.574, 63176.61
2830.502, 63160.38
2832.431, 63219.11
2834.359, 63299.73
2836.288, 63294.48
2838.216, 63231.50
2840.145, 63104.45
2842.073, 62998.38
2844.001, 63120.30
2845.930, 63283.09
2847.858, 63213.72
2849.787, 63083.66
2851.715, 63046.25
2853.644, 63075.12
2855.572, 63203.68
2857.501, 63313.46
2859.429, 63299.36
2861.358, 63243.45
2863.286, 63161.64
2865.215, 63111.46
2867.143, 63147.71
2869.072, 63196.83
2871.000, 63232.67
2872.928, 63258.88
2874.857, 63286.84
2876.785, 63286.66
2878.714, 63202.17
2880.642, 63169.28
2882.571, 63239.46
2884.499, 63310.41
2886.428, 63380.52
2888.356, 63381.17
2890.285, 63206.21
2892.213, 63179.30
2894.142, 63379.84
2896.070, 63487.36
2897.999, 63474.84
2899.927, 63405.62
2901.855, 63265.48
2903.784, 63253.52
2905.712, 63393.32
2907.641, 63423.00
2909.569, 63358.21
2911.498, 63351.41
2913.426, 63391.28
2915.355, 63371.86
2917.283, 63312.92
2919.212, 63281.33
2921.140, 63283.02
2923.069, 63378.70
2924.997, 63483.72
2926.926, 63407.20
2928.854, 63292.36
2930.782, 63389.39
2932.711, 63514.32
2934.639, 63449.32
2936.568, 63353.53
2938.496, 63352.57
2940.425, 63375.71
2942.353, 63383.25
2944.282, 63388.75
2946.210, 63414.17
2948.139, 63407.21
2950.067, 63286.56
2951.996, 63232.54
2953.924, 63334.88
2955.853, 63428.76
2957.781, 63496.56
2959.709, 63531.95
2961.638, 63525.50
2963.566, 63515.98
2965.495, 63507.05
2967.423, 63482.54
2969.352, 63443.12
2971.280, 63486.82
2973.209, 63606.18
2975.137, 63554.68
2977.066, 63369.14
2978.994, 63266.20
2980.923, 63240.23
2982.851, 63314.68
2984.780, 63421.02
2986.708, 63425.46
2988.636, 63393.58
2990.565, 63435.27
2992.493, 63466.34
2994.422, 63382.13
2996.350, 63296.55
2998.279, 63301.14
3000.207, 63316.86
3002.136, 63286.87
3004.064, 63295.36
3005.993, 63413.04
3007.921, 63484.09
3009.850, 63430.90
3011.778, 63389.83
3013.707, 63374.86
3015.635, 63360.78
3017.563, 63344.39
3019.492, 63325.50
3021.420, 63298.63
3023.349, 63355.38
3025.277, 63475.70
3027.206, 63514.14
3029.134, 63478.09
3031.063, 63356.29
3032.991, 63228.20
3034.920, 63323.55
3036.848, 63474.02
3038.777, 63445.68
3040.705, 63375.48
3042.634, 63372.79
3044.562, 63408.89
3046.490, 63530.95
3048.419, 63568.76
3050.347, 63357.30
3052.276, 63225.58
3054.204, 63375.75
3056.133, 63410.47
3058.061, 63246.47
3059.990, 63202.73
3061.918, 63350.12
3063.847, 63398.13
3065.775, 63326.82
3067.704, 63288.52
3069.632, 63284.30
3071.561, 63340.31
3073.489, 63426.03
3075.417, 63476.54
3077.346, 63489.22
3079.274, 63434.61
3081.203, 63368.46
3083.131, 63330.74
3085.060, 63324.71
3086.988, 63377.97
3088.917, 63422.86
3090.845, 63430.24
3092.774, 63431.85
3094.702, 63461.39
3096.631, 63430.89
3098.559, 63305.36
3100.488, 63251.18
3102.416, 63282.23
3104.344, 63317.02
3106.273, 63349.67
3108.201, 63358.95
3110.130, 63351.97
3112.058, 63349.53
3113.987, 63360.07
3115.915, 63421.94
3117.844, 63478.95
3119.772, 63462.04
3121.701, 63412.59
3123.629, 63315.90
3125.558, 63266.54
3127.486, 63367.54
3129.415, 63414.09
3131.343, 63356.96
3133.271, 63267.99
3135.200, 63127.39
3137.128, 63148.32
3139.057, 63362.81
3140.985, 63390.06
3142.914, 63272.13
3144.842, 63231.58
3146.771, 63241.36
3148.699, 63234.63
3150.628, 63223.92
3152.556, 63214.00
3154.485, 63225.66
3156.413, 63323.00
3158.342, 63371.33
3160.270, 63278.51
3162.198, 63177.96
3164.127, 63079.09
3166.055, 63064.13
3167.984, 63205.31
3169.912, 63213.51
3171.841, 63092.29
3173.769, 63014.52
3175.698, 62995.21
3177.626, 63111.58
3179.555, 63279.41
3181.483, 63319.03
3183.412, 63284.18
3185.340, 63197.09
3187.269, 63110.20
3189.197, 63044.40
3191.125, 63018.63
3193.054, 63044.64
3194.982, 63098.27
3196.911, 63267.45
3198.839, 63173.14
3200.768, 62799.20
3202.696, 62752.81
3204.625, 62999.34
3206.553, 63051.30
3208.482, 62988.03
3210.410, 63014.52
3212.339, 63057.79
3214.267, 63029.67
3216.196, 62985.46
3218.124, 62969.05
3220.052, 62941.22
3221.981, 62882.18
3223.909, 62827.38
3225.838, 62773.54
3227.766, 62762.04
3229.695, 62793.27
3231.623, 62836.57
3233.552, 62879.02
3235.480, 62852.89
3237.409, 62791.57
3239.337, 62766.78
3241.266, 62746.31
3243.194, 62685.00
3245.123, 62637.20
3247.051, 62625.18
3248.979, 62660.13
3250.908, 62804.52
3252.836, 62786.88
3254.765, 62510.56
3256.693, 62458.97
3258.622, 62610.24
3260.550, 62728.11
3262.479, 62794.56
3264.407, 62744.46
3266.336, 62656.02
3268.264, 62617.26
3270.193, 62595.21
3272.121, 62565.92
3274.050, 62556.46
3275.978, 62597.22
3277.906, 62557.02
3279.835, 62353.45
3281.763, 62355.57
3283.692, 62549.99
3285.620, 62568.63
3287.549, 62483.37
3289.477, 62523.14
3291.406, 62567.20
3293.334, 62414.46
3295.263, 62254.62
3297.191, 62184.24
3299.120, 62174.05
3301.048, 62240.67
3302.977, 62287.27
3304.905, 62303.81
3306.833, 62271.88
3308.762, 62200.07
3310.690, 62163.35
3312.619, 62164.90
3314.547, 62249.70
3316.476, 62318.38
3318.404, 62235.93
3320.333, 62140.53
3322.261, 62061.95
3324.190, 62072.38
3326.118, 62266.08
3328.047, 62355.58
3329.975, 62336.50
3331.904, 62310.97
3333.832, 62279.35
3335.760, 62225.11
3337.689, 62149.26
3339.617, 62012.64
3341.546, 61918.09
3343.474, 62007.62
3345.403, 62020.91
3347.331, 61852.97
3349.260, 61776.36
3351.188, 61872.46
3353.117, 61846.61
3355.045, 61732.23
3356.974, 61738.29
3358.902, 61808.18
3360.831, 61876.39
3362.759, 61916.74
3364.688, 61914.10
3366.616, 61870.64
3368.544, 61728.25
3370.473, 61685.61
3372.401, 61767.90
3374.330, 61813.43
3376.258, 61807.08
3378.187, 61709.68
3380.115, 61566.06
3382.044, 61426.09
3383.972, 61342.36
3385.901, 61421.30
3387.829, 61452.74
3389.758, 61340.59
3391.686, 61310.06
3393.615, 61437.23
3395.543, 61446.34
3397.471, 61361.61
3399.400, 61326.13
3401.328, 61318.01
3403.257, 61334.55
3405.185, 61309.56
3407.114, 61143.53
3409.042, 61057.19
3410.971, 61201.65
3412.899, 61282.50
3414.828, 61286.91
3416.756, 61239.97
3418.685, 61168.32
3420.613, 61161.55
3422.542, 61179.96
3424.470, 61184.53
3426.398, 61174.75
3428.327, 61111.21
3430.255, 61127.14
3432.184, 61261.90
3434.112, 61309.57
3436.041, 61261.46
3437.969, 61243.86
3439.898, 61257.66
3441.826, 61328.98
3443.755, 61390.59
3445.683, 61377.97
3447.612, 61339.63
3449.540, 61275.59
3451.469, 61247.82
3453.397, 61270.51
3455.325, 61241.31
3457.254, 61185.55
3459.182, 61197.13
3461.111, 61224.25
3463.039, 61197.95
3464.968, 61165.90
3466.896, 61159.79
3468.825, 61131.56
3470.753, 61075.83
3472.682, 60975.07
3474.610, 60857.80
3476.539, 60915.07
3478.467, 61032.68
3480.396, 61053.76
3482.324, 61012.55
3484.252, 60876.14
3486.181, 60797.70
3488.109, 60817.14
3490.038, 60762.02
3491.966, 60628.47
3493.895, 60511.29
3495.823, 60432.67
3497.752, 60444.86
3499.680, 60478.27
3501.609, 60495.60
3503.537, 60495.79
3505.466, 60488.04
3507.394, 60386.81
3509.323, 60197.13
3511.251, 60113.76
3513.179, 60089.51
3515.108, 60062.07
3517.036, 60010.54
3518.965, 59894.78
3520.893, 59821.34
3522.822, 59855.55
3524.750, 59850.13
3526.679, 59806.02
3528.607, 59740.06
3530.536, 59665.37
3532.464, 59586.00
3534.393, 59537.08
3536.321, 59574.17
3538.250, 59561.84
3540.178, 59453.46
3542.106, 59421.02
3544.035, 59438.09
3545.963, 59268.05
3547.892, 59039.80
3549.820, 58893.38
3551.749, 58880.81
3553.677, 59199.91
3555.606, 59262.32
3557.534, 58977.43
3559.463, 58934.83
3561.391, 59078.82
3563.320, 59070.75
3565.248, 58994.32
3567.177, 58919.82
3569.105, 58859.47
3571.033, 58830.05
3572.962, 58759.02
3574.890, 58635.72
3576.819, 58608.85
3578.747, 58636.44
3580.676, 58622.44
3582.604, 58579.55
3584.533, 58452.49
3586.461, 58453.69
3588.390, 58670.68
3590.318, 58692.13
3592.247, 58520.51
3594.175, 58356.47
3596.104, 58238.36
3598.032, 58243.94
3599.960, 58268.71
3601.889, 58277.54
3603.817, 58235.42
3605.746, 58125.83
3607.674, 58058.32
3609.603, 58009.64
3611.531, 57927.85
3613.460, 57817.14
3615.388, 57615.57
3617.317, 57541.72
3619.245, 57717.79
3621.174, 57715.20
3623.102, 57561.41
3625.031, 57578.67
3626.959, 57660.73
3628.887, 57687.93
3630.816, 57694.89
3632.744, 57699.72
3634.673, 57676.16
3636.601, 57623.40
3638.530, 57507.03
3640.458, 57368.15
3642.387, 57306.11
3644.315, 57225.35
3646.244, 57023.22
3648.172, 56939.59
3650.101, 57053.01
3652.029, 57182.97
3653.958, 57275.29
3655.886, 57121.71
3657.814, 56961.20
3659.743, 57037.32
3661.671, 57086.60
3663.600, 56977.78
3665.528, 56989.29
3667.457, 57072.53
3669.385, 57004.16
3671.314, 56862.14
3673.242, 56685.45
3675.171, 56579.26
3677.099, 56617.64
3679.028, 56667.39
3680.956, 56710.52
3682.885, 56633.35
3684.813, 56518.11
3686.741, 56465.70
3688.670, 56455.94
3690.598, 56539.72
3692.527, 56465.73
3694.455, 56245.45
3696.384, 56190.78
3698.312, 56215.71
3700.241, 56207.14
3702.169, 56173.21
3704.098, 56093.68
3706.026, 56058.69
3707.955, 56074.88
3709.883, 56209.13
3711.812, 56333.65
3713.740, 56197.43
3715.668, 56010.59
3717.597, 55852.88
3719.525, 55732.45
3721.454, 55648.73
3723.382, 55640.30
3725.311, 55688.32
3727.239, 55827.66
3729.168, 55893.57
3731.096, 55778.28
3733.025, 55673.71
3734.953, 55601.73
3736.882, 55618.11
3738.810, 55661.09
3740.739, 55643.77
3742.667, 55591.16
3744.595, 55492.84
3746.524, 55456.03
3748.452, 55481.26
3750.381, 55490.08
3752.309, 55448.68
3754.238, 55237.20
3756.166, 55097.29
3758.095, 55150.73
3760.023, 55130.88
3761.952, 55032.93
3763.880, 54968.29
3765.809, 54925.93
3767.737, 54915.98
3769.666, 54875.98
3771.594, 54771.84
3773.522, 54754.39
3775.451, 54793.75
3777.379, 54671.90
3779.308, 54563.61
3781.236, 54686.65
3783.165, 54758.21
3785.093, 54712.52
3787.022, 54698.80
3788.950, 54677.71
3790.879, 54471.09
3792.807, 54296.96
3794.736, 54320.27
3796.664, 54369.89
3798.593, 54422.61
3800.521, 54462.79
3802.449, 54473.16
3804.378, 54429.38
3806.306, 54341.03
3808.235, 54194.83
3810.163, 54104.85
3812.092, 54072.39
3814.020, 53981.59
3815.949, 53922.54
3817.877, 54043.90
3819.806, 54101.51
3821.734, 54037.82
3823.663, 53933.42
3825.591, 53820.58
3827.520, 53773.09
3829.448, 53765.51
3831.376, 53832.68
3833.305, 53788.48
3835.233, 53625.89
3837.162, 53537.02
3839.090, 53499.16
3841.019, 53492.02
3842.947, 53471.87
3844.876, 53377.94
3846.804, 53415.75
3848.733, 53536.56
3850.661, 53529.22
3852.590, 53454.21
3854.518, 53350.52
3856.447, 53246.61
3858.375, 53113.30
3860.303, 52934.84
3862.232, 52790.20
3864.160, 52857.36
3866.089, 52893.98
3868.017, 52793.38
3869.946, 52664.92
3871.874, 52521.53
3873.803, 52282.12
3875.731, 52115.73
3877.660, 52334.91
3879.588, 52311.13
3881.517, 51915.48
3883.445, 51763.76
3885.374, 51737.29
3887.302, 51633.05
3889.230, 51571.41
3891.159, 51622.14
3893.087, 51609.13
3895.016, 51527.42
3896.944, 51448.05
3898.873, 51361.14
3900.801, 51265.23
3902.730, 51142.41
3904.658, 51010.14
3906.587, 50935.73
3908.515, 50879.70
3910.444, 50832.68
3912.372, 50790.42
3914.301, 50724.71
3916.229, 50690.29
3918.157, 50660.68
3920.086, 50451.89
3922.014, 50265.17
3923.943, 50223.54
3925.871, 50138.19
3927.800, 49998.74
3929.728, 49841.94
3931.657, 49724.25
3933.585, 49687.65
3935.514, 49634.64
3937.442, 49544.30
3939.371, 49555.54
3941.299, 49580.21
3943.228, 49532.03
3945.156, 49433.46
3947.084, 49267.10
3949.013, 49133.91
3950.941, 49062.48
3952.870, 49064.62
3954.798, 48999.79
3956.727, 48757.36
3958.655, 48660.79
3960.584, 48698.97
3962.512, 48650.90
3964.441, 48535.19
3966.369, 48374.37
3968.298, 48314.80
3970.226, 48328.00
3972.155, 48196.23
3974.083, 48040.82
3976.011, 47950.95
3977.940, 47927.04
3979.868, 47976.40
3981.797, 47890.95
3983.725, 47755.38
3985.654, 47681.00
3987.582, 47605.78
3989.511, 47514.03
3991.439, 47456.38
3993.368, 47394.40
3995.296, 47228.52
3997.225, 47113.65
3999.153, 47107.13
4001.082, 47074.46
4003.010, 47015.41
4004.938, 46828.13
4006.867, 46673.99
4008.795, 46703.73
4010.724, 46670.09
4012.652, 46603.36
4014.581, 46533.93
4016.509, 46415.88
4018.438, 46279.29
4020.366, 46243.67
4022.295, 46238.85
4024.223, 46095.25
4026.152, 45968.89
4028.080, 45998.01
4030.009, 45979.82
4031.937, 45893.39
4033.865, 45829.02
4035.794, 45744.53
4037.722, 45641.36
4039.651, 45586.09
4041.579, 45517.94
4043.508, 45394.18
4045.436, 45319.05
4047.365, 45342.13
4049.293, 45359.52
4051.222, 45355.18
4053.150, 45253.25
4055.079, 45077.66
4057.007, 45014.61
4058.936, 44928.37
4060.864, 44815.79
4062.792, 44780.67
4064.721, 44741.54
4066.649, 44735.66
4068.578, 44649.29
4070.506, 44497.20
4072.435, 44350.07
4074.363, 44221.92
4076.292, 44131.97
4078.220, 44060.44
4080.149, 44069.10
4082.077, 44084.46
4084.006, 44074.89
4085.934, 44021.62
4087.863, 43907.38
4089.791, 43751.21
4091.719, 43659.25
4093.648, 43654.00
4095.576, 43542.76
4097.505, 43410.05
4099.434, 43378.77
4101.362, 43373.32
4103.291, 43357.23
4105.219, 43339.77
4107.147, 43320.48
4109.076, 43245.00
4111.004, 43147.56
4112.933, 43021.44
4114.861, 42901.02
4116.790, 42864.45
4118.718, 42799.59
4120.646, 42747.65
4122.575, 42745.88
4124.503, 42687.32
4126.432, 42570.57
4128.360, 42458.14
4130.289, 42382.20
4132.217, 42361.64
4134.146, 42288.86
4136.074, 42278.69
4138.003, 42285.32
4139.931, 42182.52
4141.860, 42091.42
4143.788, 42055.05
4145.717, 42017.41
4147.645, 41983.95
4149.574, 41898.01
4151.502, 41783.29
4153.431, 41703.55
4155.359, 41661.83
4157.288, 41620.48
4159.216, 41564.92
4161.145, 41482.19
4163.073, 41421.29
4165.001, 41378.34
4166.930, 41285.46
4168.858, 41155.09
4170.787, 41086.16
4172.715, 41054.75
4174.644, 41053.80
4176.572, 41044.43
4178.500, 41012.75
4180.429, 40978.02
4182.357, 40927.21
4184.286, 40817.48
4186.214, 40714.45
4188.143, 40639.17
4190.071, 40609.56
4192.000, 40589.75
4193.928, 40563.27
4195.857, 40460.73
4197.785, 40260.79
4199.714, 40250.80
4201.642, 40309.57
4203.571, 40327.02
4205.499, 40244.63
4207.428, 40050.62
4209.356, 39959.38
4211.285, 39913.58
4213.213, 39857.73
4215.142, 39812.23
4217.070, 39777.07
4218.999, 39731.65
4220.927, 39679.08
4222.855, 39623.01
4224.784, 39522.68
4226.712, 39406.80
4228.641, 39513.07
4230.569, 39583.62
4232.498, 39312.12
4234.426, 39286.88
4236.354, 39457.88
4238.283, 39351.71
4240.211, 39217.37
4242.140, 39236.87
4244.068, 39158.16
4245.997, 39027.38
4247.925, 39046.40
4249.854, 39068.00
4251.782, 39021.15
4253.711, 38984.37
4255.639, 38935.58
4257.568, 38823.83
4259.496, 38745.45
4261.425, 38731.80
4263.353, 38838.24
4265.282, 38952.20
4267.210, 38879.09
4269.139, 38811.22
4271.067, 38794.39
4272.996, 38776.21
4274.924, 38754.93
4276.853, 38741.07
4278.781, 38677.04
4280.709, 38578.39
4282.638, 38656.34
4284.566, 38752.05
4286.495, 38754.37
4288.423, 38643.00
4290.352, 38475.80
4292.280, 38481.31
4294.208, 38529.69
4296.137, 38559.57
4298.065, 38567.82
4299.994, 38553.53
4301.922, 38497.75
4303.851, 38466.02
4305.779, 38487.92
4307.708, 38494.30
4309.636, 38476.02
4311.565, 38377.64
4313.493, 38388.38
4315.422, 38526.33
4317.350, 38425.03
4319.279, 38298.35
4321.207, 38340.05
4323.136, 38426.34
4325.064, 38506.61
4326.993, 38351.30
4328.921, 38243.29
4330.850, 38352.39
4332.778, 38370.70
4334.707, 38338.50
4336.635, 38378.65
4338.563, 38318.51
4340.492, 38106.03
4342.420, 38063.19
4344.349, 38110.68
4346.277, 38204.08
4348.206, 38257.33
4350.134, 38255.51
4352.063, 38121.71
4353.991, 38039.77
4355.919, 38109.89
4357.848, 38136.22
4359.776, 38119.29
4361.705, 38062.12
4363.633, 38051.68
4365.562, 38099.96
4367.490, 38098.57
4369.419, 38069.60
4371.347, 38028.75
4373.276, 38006.31
4375.204, 37993.86
4377.133, 37935.56
4379.061, 37899.14
4380.990, 37932.20
4382.918, 37877.99
4384.847, 37813.83
4386.775, 37925.47
4388.704, 37907.57
4390.632, 37720.54
4392.561, 37837.81
4394.489, 37967.40
4396.417, 37866.80
4398.346, 37811.37
4400.274, 37807.94
4402.203, 37849.96
4404.131, 37852.94
4406.060, 37791.42
4407.988, 37755.73
4409.917, 37746.68
4411.845, 37786.54
4413.773, 37722.89
4415.702, 37594.79
4417.630, 37636.60
4419.559, 37647.66
4421.487, 37539.69
4423.416, 37607.50
4425.344, 37715.64
4427.273, 37666.79
4429.201, 37587.19
4431.130, 37513.91
4433.058, 37578.90
4434.987, 37604.64
4436.915, 37442.73
4438.844, 37462.13
4440.772, 37553.11
4442.701, 37521.55
4444.629, 37520.42
4446.558, 37566.40
4448.486, 37513.53
4450.415, 37451.80
4452.343, 37425.80
4454.271, 37478.22
4456.200, 37525.13
4458.128, 37390.95
4460.057, 37314.71
4461.985, 37323.82
4463.914, 37272.74
4465.842, 37224.25
4467.771, 37213.66
4469.699, 37265.84
4471.627, 37331.80
4473.556, 37325.24
4475.484, 37293.33
4477.413, 37249.61
4479.341, 37244.56
4481.270, 37263.38
4483.198, 37303.88
4485.127, 37278.45
4487.055, 37224.18
4488.984, 37195.02
4490.912, 37165.77
4492.841, 37146.96
4494.769, 37224.21
4496.698, 37285.24
4498.626, 37266.46
4500.555, 37238.76
4502.483, 37211.41
4504.412, 37203.32
4506.340, 37161.52
4508.269, 37102.39
4510.197, 37114.84
4512.125, 37137.57
4514.054, 37149.85
4515.982, 37127.86
4517.911, 37099.46
4519.839, 37102.20
4521.768, 37024.63
4523.696, 36926.39
4525.625, 36989.04
4527.553, 36983.75
4529.481, 36869.80
4531.410, 36885.43
4533.338, 36930.74
4535.267, 36951.90
4537.195, 36983.82
4539.124, 37018.17
4541.052, 37054.40
4542.981, 37034.53
4544.909, 36974.79
4546.838, 36957.46
4548.766, 36940.40
4550.695, 36907.74
4552.623, 36841.07
4554.552, 36807.00
4556.480, 36870.06
4558.409, 36951.32
4560.337, 37001.01
4562.266, 36938.73
4564.194, 36795.13
4566.123, 36619.46
4568.051, 36584.87
4569.979, 36643.13
4571.908, 36799.84
4573.836, 36691.16
4575.765, 36578.74
4577.693, 36765.27
4579.622, 36784.07
4581.550, 36696.44
4583.479, 36732.08
4585.407, 36659.89
4587.335, 36503.79
4589.264, 36674.87
4591.192, 36773.68
4593.121, 36572.01
4595.049, 36530.57
4596.978, 36570.58
4598.906, 36647.80
4600.835, 36592.84
4602.763, 36490.57
4604.692, 36524.49
4606.620, 36605.77
4608.549, 36677.37
4610.477, 36535.27
4612.406, 36437.95
4614.334, 36500.15
4616.263, 36482.74
4618.191, 36474.51
4620.120, 36554.26
4622.048, 36531.88
4623.977, 36456.45
4625.905, 36397.29
4627.833, 36371.83
4629.762, 36373.24
4631.690, 36382.73
4633.619, 36381.12
4635.547, 36363.69
4637.476, 36327.87
4639.404, 36320.96
4641.333, 36365.52
4643.261, 36394.02
4645.189, 36399.46
4647.118, 36378.46
4649.046, 36341.41
4650.975, 36288.40
4652.903, 36183.24
4654.832, 36202.14
4656.760, 36302.50
4658.689, 36191.73
4660.617, 36164.06
4662.546, 36269.07
4664.474, 36263.65
4666.403, 36234.07
4668.331, 36239.50
4670.260, 36162.76
4672.188, 36087.35
4674.117, 36083.64
4676.045, 36094.16
4677.974, 36110.42
4679.902, 36132.41
4681.831, 36155.27
4683.759, 36161.95
4685.688, 36085.48
4687.616, 36049.16
4689.544, 36056.27
4691.473, 35865.56
4693.401, 35836.82
4695.330, 36072.29
4697.258, 36219.98
4699.187, 36208.03
4701.115, 35952.14
4703.043, 35786.49
4704.972, 35760.90
4706.900, 35955.26
4708.829, 35956.07
4710.757, 35848.63
4712.686, 35796.05
4714.614, 35786.04
4716.543, 35812.46
4718.471, 35896.66
4720.400, 35892.36
4722.328, 35806.66
4724.257, 35779.38
4726.185, 35769.83
4728.114, 35761.59
4730.042, 35708.80
4731.971, 35664.76
4733.899, 35654.09
4735.828, 35737.56
4737.756, 35779.08
4739.685, 35678.15
4741.613, 35631.63
4743.542, 35605.69
4745.470, 35550.30
4747.398, 35534.46
4749.327, 35548.39
4751.255, 35577.31
4753.184, 35625.10
4755.112, 35653.20
4757.041, 35560.90
4758.969, 35480.36
4760.897, 35435.76
4762.826, 35437.93
4764.754, 35481.89
4766.683, 35529.15
4768.611, 35354.43
4770.540, 35316.61
4772.468, 35513.32
4774.397, 35477.54
4776.325, 35390.27
4778.254, 35327.73
4780.182, 35305.67
4782.111, 35302.14
4784.039, 35306.16
4785.968, 35296.79
4787.896, 35304.31
4789.825, 35354.33
4791.753, 35289.96
4793.682, 35249.94
4795.610, 35463.82
4797.539, 35423.55
4799.467, 35267.00
4801.396, 35169.59
4803.324, 35074.05
4805.252, 35012.56
4807.181, 35068.66
4809.109, 35077.98
4811.038, 35054.25
4812.966, 35060.81
4814.895, 35052.16
4816.823, 35022.66
4818.751, 34958.78
4820.680, 34947.38
4822.608, 34975.57
4824.537, 34935.21
4826.465, 34951.82
4828.394, 35016.55
4830.322, 35009.56
4832.251, 34981.27
4834.179, 34948.88
4836.108, 34959.11
4838.036, 34870.46
4839.965, 34694.28
4841.893, 34715.28
4843.822, 34755.64
4845.750, 34751.77
4847.679, 34701.57
4849.607, 34652.49
4851.536, 34628.20
4853.464, 34724.12
4855.393, 34745.55
4857.321, 34617.14
4859.250, 34724.20
4861.178, 34777.68
4863.106, 34656.15
4865.035, 34520.80
4866.963, 34446.23
4868.892, 34464.02
4870.820, 34369.59
4872.749, 34340.43
4874.677, 34476.28
4876.605, 34425.40
4878.534, 34325.41
4880.462, 34254.64
4882.391, 34269.27
4884.319, 34303.55
4886.248, 34319.39
4888.176, 34312.26
4890.105, 34294.61
4892.033, 34274.26
4893.962, 34280.43
4895.890, 34287.69
4897.819, 34273.13
4899.747, 34343.46
4901.676, 34338.57
4903.604, 34179.14
4905.533, 34172.89
4907.461, 34186.83
4909.390, 34135.95
4911.318, 33978.57
4913.247, 33894.27
4915.175, 33972.32
4917.104, 34009.95
4919.032, 34049.02
4920.960, 34110.57
4922.889, 33919.41
4924.817, 33777.57
4926.746, 33847.53
4928.674, 33856.65
4930.603, 33802.89
4932.531, 33708.47
4934.459, 33899.37
4936.388, 33978.40
4938.316, 33774.26
4940.245, 33756.16
4942.173, 33755.48
4944.102, 33717.52
4946.030, 33719.73
4947.959, 33708.36
4949.887, 33664.18
4951.816, 33587.29
4953.744, 33517.30
4955.673, 33474.18
4957.601, 33519.59
4959.530, 33527.02
4961.458, 33484.97
4963.387, 33464.53
4965.315, 33521.49
4967.244, 33609.18
4969.172, 33503.73
4971.101, 33388.51
4973.029, 33338.74
4974.958, 33516.12
4976.886, 33473.63
4978.814, 33302.02
4980.743, 33359.02
4982.671, 33365.22
4984.600, 33311.36
4986.528, 33227.28
4988.457, 33235.68
4990.385, 33261.59
4992.313, 33174.68
4994.242, 33150.13
4996.170, 33133.08
4998.099, 33048.73
5000.027, 33134.19
5001.956, 33179.84
5003.884, 32980.47
5005.813, 32959.24
5007.741, 33003.02
5009.670, 33034.04
5011.598, 32994.24
5013.527, 32966.10
5015.455, 32984.32
5017.384, 33024.46
5019.312, 32977.15
5021.241, 32826.10
5023.169, 32814.11
5025.098, 32768.71
5027.026, 32677.60
5028.955, 32693.86
5030.883, 32755.83
5032.812, 32793.96
5034.740, 32629.75
5036.668, 32521.99
5038.597, 32496.71
5040.525, 32546.49
5042.454, 32563.73
5044.382, 32527.48
5046.311, 32411.59
5048.239, 32372.38
5050.167, 32388.01
5052.096, 32437.05
5054.024, 32501.14
5055.953, 32535.30
5057.881, 32514.34
5059.810, 32430.03
5061.738, 32332.50
5063.667, 32248.63
5065.595, 32236.89
5067.524, 32220.33
5069.452, 32192.71
5071.381, 32236.28
5073.309, 32201.76
5075.238, 32116.39
5077.166, 32079.14
5079.095, 32101.48
5081.023, 32128.40
5082.952, 32088.94
5084.880, 32018.21
5086.809, 31921.06
5088.737, 31800.54
5090.666, 31903.00
5092.594, 31986.76
5094.522, 31913.96
5096.451, 31789.48
5098.379, 31719.01
5100.308, 31721.10
5102.236, 31711.84
5104.165, 31673.21
5106.093, 31626.34
5108.021, 31639.30
5109.950, 31599.43
5111.878, 31550.16
5113.807, 31604.17
5115.735, 31430.07
5117.664, 31272.02
5119.592, 31333.38
5121.521, 31424.32
5123.449, 31458.20
5125.378, 31407.88
5127.306, 31460.62
5129.235, 31367.68
5131.163, 31144.82
5133.092, 31093.59
5135.020, 31201.28
5136.949, 31307.61
5138.877, 31110.76
5140.806, 31038.19
5142.734, 31024.45
5144.663, 30949.50
5146.591, 31149.05
5148.520, 31246.64
5150.448, 31082.06
5152.376, 30984.30
5154.305, 30955.13
5156.233, 30963.62
5158.162, 30890.07
5160.090, 30937.38
5162.019, 30987.39
5163.947, 30756.68
5165.875, 30734.20
5167.804, 30816.45
5169.732, 30877.10
5171.661, 30855.48
5173.589, 30812.33
5175.518, 30782.64
5177.446, 30844.94
5179.375, 30801.44
5181.303, 30667.88
5183.232, 30594.78
5185.160, 30624.17
5187.089, 30640.31
5189.017, 30477.99
5190.946, 30554.63
5192.874, 30612.44
5194.803, 30491.38
5196.731, 30483.51
5198.660, 30449.81
5200.588, 30377.31
5202.517, 30356.11
5204.445, 30389.85
5206.374, 30430.87
5208.302, 30433.16
5210.230, 30293.69
5212.159, 30177.16
5214.087, 30188.49
5216.016, 30198.42
5217.944, 30179.88
5219.873, 30160.16
5221.801, 30294.52
5223.729, 30309.64
5225.658, 30235.43
5227.586, 30171.01
5229.515, 30052.01
5231.443, 29995.71
5233.372, 30065.10
5235.300, 30127.16
5237.229, 30076.17
5239.157, 29923.65
5241.086, 29748.55
5243.014, 29732.31
5244.943, 29758.96
5246.871, 29630.32
5248.800, 29703.31
5250.728, 29759.31
5252.657, 29699.18
5254.585, 29687.74
5256.514, 29763.62
5258.442, 29827.19
5260.371, 29566.88
5262.299, 29630.15
5264.228, 29699.37
5266.156, 29424.62
5268.084, 29446.68
5270.013, 29498.22
5271.941, 29460.79
5273.870, 29217.41
5275.798, 29298.48
5277.727, 29486.44
5279.655, 29346.16
5281.583, 29230.28
5283.512, 29247.43
5285.440, 29416.33
5287.369, 29291.98
5289.297, 29122.76
5291.226, 29011.29
5293.154, 29045.88
5295.083, 29066.52
5297.011, 29028.13
5298.940, 28903.66
5300.868, 28886.59
5302.797, 28964.49
5304.725, 29035.32
5306.654, 28756.72
5308.582, 28798.23
5310.511, 28938.55
5312.439, 28875.55
5314.368, 28908.61
5316.296, 28823.21
5318.225, 28594.01
5320.153, 28497.06
5322.082, 28555.08
5324.010, 28681.94
5325.938, 28784.01
5327.867, 28618.18
5329.795, 28420.07
5331.724, 28319.31
5333.652, 28406.62
5335.581, 28397.29
5337.509, 28326.07
5339.438, 28306.63
5341.366, 28291.76
5343.294, 28265.52
5345.223, 28216.68
5347.151, 28077.02
5349.080, 28166.83
5351.008, 28298.52
5352.937, 28146.40
5354.865, 28149.27
5356.794, 28119.95
5358.722, 27982.19
5360.651, 27908.40
5362.579, 27889.95
5364.508, 27882.04
5366.436, 27830.13
5368.365, 27922.96
5370.293, 27912.09
5372.222, 27742.73
5374.150, 27643.43
5376.079, 27521.54
5378.007, 27468.12
5379.936, 27629.34
5381.864, 27679.59
5383.792, 27669.77
5385.721, 27615.33
5387.649, 27472.86
5389.578, 27443.99
5391.506, 27460.91
5393.435, 27440.52
5395.363, 27425.46
5397.292, 27337.39
5399.220, 27216.96
5401.148, 27229.76
5403.077, 27233.11
5405.005, 27219.73
5406.934, 27193.08
5408.862, 27124.31
5410.791, 27160.61
5412.719, 27219.42
5414.648, 27128.44
5416.576, 27004.24
5418.505, 26930.00
5420.433, 26916.59
5422.362, 26826.40
5424.290, 26773.06
5426.219, 26725.33
5428.147, 26631.63
5430.076, 26547.13
5432.004, 26540.43
5433.933, 26606.73
5435.861, 26709.90
5437.790, 26650.12
5439.718, 26544.88
5441.646, 26478.23
5443.575, 26366.30
5445.503, 26402.91
5447.432, 26498.49
5449.360, 26489.24
5451.289, 26363.45
5453.217, 26291.28
5455.146, 26297.03
5457.074, 26273.05
5459.002, 26204.75
5460.931, 26163.30
5462.859, 26180.89
5464.788, 26087.28
5466.716, 25990.47
5468.645, 25930.70
5470.573, 25931.25
5472.502, 25970.93
5474.430, 25937.20
5476.359, 25834.64
5478.287, 25785.18
5480.216, 25824.72
5482.144, 25870.47
5484.073, 25865.05
5486.001, 25824.33
5487.930, 25676.86
5489.858, 25570.28
5491.787, 25702.34
5493.715, 25627.66
5495.644, 25540.88
5497.572, 25515.15
5499.500, 25574.51
5501.429, 25509.88
5503.357, 25399.48
5505.286, 25305.79
5507.214, 25276.97
5509.143, 25220.20
5511.071, 25136.20
5513.000, 25040.13
5514.928, 24946.26
5516.856, 24960.02
5518.785, 25016.18
5520.713, 24984.92
5522.642, 24977.16
5524.570, 24965.05
5526.499, 24933.93
5528.427, 24874.46
5530.356, 24807.15
5532.284, 24726.58
5534.213, 24643.10
5536.141, 24599.71
5538.070, 24640.30
5539.998, 24648.29
5541.927, 24554.41
5543.855, 24593.41
5545.784, 24568.41
5547.712, 24513.05
5549.641, 24511.83
5551.569, 24426.06
5553.498, 24317.18
5555.426, 24247.39
5557.354, 24280.07
5559.283, 24366.56
5561.211, 24292.93
5563.140, 24118.04
5565.068, 24135.14
5566.997, 24158.00
5568.925, 24143.29
5570.854, 24078.00
5572.782, 23927.48
5574.710, 23942.17
5576.639, 23978.66
5578.567, 23937.64
5580.496, 23847.10
5582.424, 23710.01
5584.353, 23637.07
5586.281, 23686.82
5588.210, 23669.33
5590.138, 23572.18
5592.067, 23508.14
5593.995, 23569.98
5595.924, 23553.18
5597.852, 23542.58
5599.781, 23522.46
5601.709, 23446.31
5603.638, 23324.78
5605.566, 23277.43
5607.495, 23252.25
5609.423, 23117.50
5611.352, 23127.68
5613.280, 23125.32
5615.208, 23105.27
5617.137, 23149.37
5619.065, 23070.81
5620.994, 23005.95
5622.922, 23001.45
5624.851, 23047.56
5626.779, 22978.68
5628.708, 22866.96
5630.636, 22767.09
5632.564, 22734.32
5634.493, 22666.41
5636.421, 22579.94
5638.350, 22537.48
5640.278, 22700.83
5642.207, 22692.28
5644.135, 22596.24
5646.064, 22479.54
5647.992, 22361.73
5649.921, 22309.46
5651.849, 22319.75
5653.778, 22354.23
5655.706, 22324.21
5657.635, 22374.62
5659.563, 22326.65
5661.492, 22162.39
5663.420, 22083.37
5665.349, 22064.89
5667.277, 22090.20
5669.206, 22121.95
5671.134, 22068.96
5673.063, 22032.67
5674.991, 22038.38
5676.919, 22030.61
5678.848, 21856.26
5680.776, 21747.43
5682.705, 21748.90
5684.633, 21780.83
5686.562, 21662.73
5688.490, 21660.41
5690.418, 21649.70
5692.347, 21590.39
5694.275, 21514.39
5696.204, 21495.54
5698.132, 21519.27
5700.061, 21507.09
5701.989, 21290.02
5703.918, 21314.34
5705.846, 21259.00
5707.775, 21167.62
5709.703, 21258.94
5711.632, 21259.44
5713.560, 21204.82
5715.489, 21107.20
5717.417, 20982.13
5719.346, 21121.40
5721.274, 21049.12
5723.203, 20882.37
5725.131, 20827.68
5727.060, 20814.54
5728.988, 20905.87
5730.917, 20916.75
5732.845, 20760.88
5734.773, 20832.49
5736.702, 20817.02
5738.630, 20716.46
5740.559, 20594.34
5742.487, 20614.06
5744.416, 20563.81
5746.344, 20439.49
5748.272, 20334.80
5750.201, 20490.64
5752.129, 20442.19
5754.058, 20392.02
5755.986, 20331.89
5757.915, 20105.14
5759.843, 20176.91
5761.772, 20247.98
5763.700, 20231.58
5765.629, 20148.74
5767.558, 20103.96
5769.486, 20016.17
5771.415, 19963.25
5773.343, 19999.00
5775.271, 19991.16
5777.200, 19925.17
5779.128, 19876.09
5781.057, 19852.20
5782.985, 19691.57
5784.914, 19691.89
5786.842, 19651.13
5788.771, 19564.86
5790.699, 19636.86
5792.627, 19542.41
5794.556, 19419.72
5796.484, 19353.26
5798.413, 19383.59
5800.341, 19439.23
5802.270, 19439.92
5804.198, 19383.52
5806.127, 19299.54
5808.055, 19264.95
5809.984, 19252.14
5811.912, 19232.02
5813.841, 19162.34
5815.769, 18983.43
5817.698, 18997.68
5819.626, 19030.24
5821.555, 19024.50
5823.483, 18995.59
5825.412, 18978.45
5827.340, 18915.34
5829.269, 18825.78
5831.197, 18749.37
5833.125, 18804.96
5835.054, 18715.09
5836.982, 18651.16
5838.911, 18665.71
5840.839, 18701.22
5842.768, 18583.30
5844.696, 18524.43
5846.625, 18548.02
5848.553, 18598.09
5850.481, 18491.08
5852.410, 18333.96
5854.338, 18252.30
5856.267, 18259.20
5858.195, 18232.06
5860.124, 18219.23
5862.052, 18216.31
5863.981, 18156.45
5865.909, 18001.29
5867.838, 18188.57
5869.766, 18158.80
5871.695, 18046.19
5873.623, 17976.56
5875.552, 17826.57
5877.480, 17869.76
5879.409, 17903.04
5881.337, 17868.75
5883.266, 17810.64
5885.194, 17754.57
5887.123, 17679.88
5889.051, 17623.27
5890.979, 17603.06
5892.908, 17604.17
5894.836, 17490.19
5896.765, 17453.42
5898.693, 17457.33
5900.622, 17359.79
5902.550, 17363.65
5904.479, 17319.62
5906.407, 17295.65
5908.335, 17309.89
5910.264, 17239.29
5912.192, 17190.27
5914.121, 17134.07
5916.049, 17106.54
5917.978, 17141.33
5919.906, 17026.33
5921.835, 16970.02
5923.763, 16999.87
5925.692, 17048.41
5927.620, 16999.51
5929.549, 16944.79
5931.477, 16837.51
5933.406, 16774.12
5935.334, 16801.04
5937.263, 16745.94
5939.191, 16650.12
5941.120, 16642.75
5943.048, 16648.32
5944.977, 16542.01
5946.905, 16554.86
5948.833, 16540.44
5950.762, 16469.45
5952.690, 16383.37
5954.619, 16364.24
5956.547, 16342.17
5958.476, 16318.46
5960.404, 16236.29
5962.333, 16116.74
5964.261, 16229.93
5966.189, 16035.16
5968.118, 16077.59
5970.046, 16174.40
5971.975, 15956.41
5973.903, 15863.33
5975.832, 15896.46
5977.760, 15946.15
5979.689, 15897.45
5981.617, 15669.91
5983.546, 15835.14
5985.474, 15786.93
5987.403, 15651.66
5989.331, 15605.12
5991.260, 15740.38
5993.188, 15697.53
5995.117, 15585.58
5997.045, 15499.29
5998.974, 15456.85
6000.902, 15333.46
6002.831, 15376.67
6004.759, 15414.94
6006.688, 15405.20
6008.616, 15371.09
6010.544, 15362.13
6012.473, 15218.51
6014.401, 15109.50
6016.330, 15124.80
6018.258, 15251.59
6020.187, 15151.47
6022.115, 15037.06
6024.043, 14979.32
6025.972, 14972.58
6027.900, 14980.03
6029.829, 14882.23
6031.757, 14851.27
6033.686, 14811.77
6035.614, 14741.86
6037.543, 14679.14
6039.471, 14817.93
6041.400, 14800.49
6043.328, 14730.18
6045.257, 14658.00
6047.185, 14545.02
6049.114, 14611.39
6051.042, 14578.39
6052.971, 14454.27
6054.899, 14365.20
6056.828, 14452.74
6058.756, 14352.95
6060.685, 14319.37
6062.613, 14373.16
6064.542, 14395.12
6066.470, 14235.38
6068.398, 14204.35
6070.327, 14173.19
6072.255, 14134.52
6074.184, 14108.71
6076.112, 14106.81
6078.041, 13988.60
6079.969, 13921.74
6081.897, 13948.40
6083.826, 13984.91
6085.754, 13911.33
6087.683, 13681.99
6089.611, 13695.68
6091.540, 13739.08
6093.468, 13722.74
6095.397, 13674.51
6097.325, 13642.87
6099.254, 13612.85
6101.182, 13506.41
6103.111, 13427.58
6105.039, 13462.62
6106.968, 13430.82
6108.896, 13464.15
6110.825, 13425.46
6112.753, 13349.98
6114.682, 13308.59
6116.610, 13324.18
6118.539, 13309.48
6120.467, 13257.09
6122.396, 13163.36
6124.324, 13089.20
6126.252, 13161.10
6128.181, 13045.53
6130.109, 12983.40
6132.038, 12920.92
6133.966, 12886.16
6135.895, 12979.72
6137.823, 12859.21
6139.751, 12931.19
6141.680, 12812.14
6143.608, 12649.90
6145.537, 12712.76
6147.465, 12740.61
6149.394, 12648.91
6151.322, 12652.86
6153.251, 12631.84
6155.179, 12526.80
6157.108, 12516.39
6159.036, 12588.10
6160.965, 12508.84
6162.893, 12378.38
6164.822, 12327.97
6166.750, 12419.60
6168.679, 12321.43
6170.607, 12350.63
6172.536, 12318.80
6174.464, 12237.35
6176.393, 12191.10
6178.321, 12199.81
6180.250, 12064.20
6182.178, 12021.82
6184.106, 12056.19
6186.035, 12084.02
6187.963, 12046.96
6189.892, 12011.25
6191.820, 11961.53
6193.749, 11860.75
6195.677, 11783.54
6197.605, 11777.85
6199.534, 11718.02
6201.462, 11782.13
6203.391, 11656.12
6205.319, 11589.66
6207.248, 11659.33
6209.176, 11678.83
6211.105, 11531.12
6213.033, 11586.96
6214.962, 11560.90
6216.890, 11457.38
6218.819, 11390.56
6220.747, 11380.62
6222.676, 11334.38
6224.604, 11406.60
6226.533, 11348.55
6228.461, 11218.86
6230.390, 11232.13
6232.318, 11292.66
6234.247, 11073.52
6236.175, 11150.18
6238.104, 11177.19
6240.032, 11028.54
6241.960, 11037.49
6243.889, 10971.86
6245.817, 10893.02
6247.746, 10826.65
6249.674, 10798.83
6251.603, 10805.18
6253.531, 10794.53
6255.459, 10793.44
6257.388, 10788.44
6259.316, 10778.00
6261.245, 10745.94
6263.173, 10695.34
6265.102, 10707.73
6267.030, 10675.40
6268.959, 10511.08
6270.887, 10471.37
6272.816, 10514.82
6274.744, 10463.18
6276.673, 10509.33
6278.601, 10474.13
6280.530, 10370.97
6282.458, 10294.02
6284.387, 10285.41
6286.315, 10318.12
6288.244, 10313.98
6290.172, 10246.15
6292.101, 10198.64
6294.029, 10164.14
6295.958, 10129.42
6297.886, 10096.29
6299.814, 10042.53
6301.743, 10130.94
6303.671, 10104.01
6305.600, 10045.98
6307.528, 10003.89
6309.457, 9928.554
6311.385, 9877.052
6313.313, 9929.411
6315.242, 9879.371
6317.170, 9829.797
6319.099, 9813.849
6321.027, 9768.747
6322.956, 9747.167
6324.884, 9689.261
6326.813, 9697.187
6328.741, 9672.022
6330.670, 9605.064
6332.598, 9561.454
6334.527, 9543.082
6336.455, 9572.902
6338.384, 9506.699
6340.312, 9473.680
6342.241, 9463.408
6344.169, 9419.773
6346.098, 9413.201
6348.026, 9343.657
6349.955, 9410.884
6351.883, 9274.953
6353.812, 9104.729
6355.740, 9092.054
6357.668, 9110.968
6359.597, 9164.867
6361.525, 9157.220
6363.454, 9108.623
6365.382, 9083.291
6367.311, 9092.798
6369.239, 9087.993
6371.167, 8994.144
6373.096, 8955.407
6375.024, 8957.118
6376.953, 8921.749
6378.881, 8879.681
6380.810, 8871.999
6382.738, 8809.521
6384.667, 8855.233
6386.595, 8801.812
6388.524, 8799.505
6390.452, 8772.106
6392.381, 8685.045
6394.309, 8651.063
6396.238, 8724.167
6398.166, 8605.811
6400.095, 8559.037
6402.023, 8557.108
6403.952, 8523.945
6405.880, 8455.173
6407.809, 8416.857
6409.737, 8458.574
6411.666, 8391.074
6413.594, 8393.142
6415.522, 8408.820
6417.451, 8362.807
6419.379, 8289.150
6421.308, 8340.679
6423.236, 8273.589
6425.165, 8238.261
6427.093, 8212.114
6429.021, 8227.197
6430.950, 8231.763
6432.878, 8081.542
6434.807, 8119.980
6436.735, 8188.490
6438.664, 8123.328
6440.592, 8076.019
6442.521, 8043.503
6444.449, 7986.557
6446.378, 7996.824
6448.306, 7959.131
6450.235, 7952.899
6452.163, 7943.273
6454.092, 7906.346
6456.020, 7840.699
6457.949, 7777.470
6459.877, 7789.805
6461.806, 7752.347
6463.734, 7742.027
6465.663, 7723.758
6467.591, 7673.834
6469.520, 7641.986
6471.448, 7660.343
6473.376, 7660.334
6475.305, 7589.146
6477.233, 7566.301
6479.162, 7607.919
6481.090, 7609.002
6483.019, 7554.321
6484.947, 7473.271
6486.875, 7363.377
6488.804, 7429.111
6490.732, 7390.305
6492.661, 7454.750
6494.589, 7468.636
6496.518, 7413.515
6498.446, 7358.269
6500.375, 7285.733
6502.303, 7313.237
6504.232, 7237.518
6506.160, 7239.048
6508.089, 7179.473
6510.017, 7130.282
6511.946, 7161.606
6513.874, 7194.553
6515.803, 7195.921
6517.731, 7121.454
6519.660, 7103.641
6521.588, 7103.251
6523.517, 7058.457
6525.445, 6975.868
6527.374, 6924.273
6529.302, 7027.634
6531.230, 6950.312
6533.159, 6985.041
6535.087, 6999.090
6537.016, 6935.701
6538.944, 6882.828
6540.873, 6876.838
6542.801, 6857.326
6544.729, 6876.486
6546.658, 6792.221
6548.586, 6746.515
6550.515, 6751.573
6552.443, 6729.250
6554.372, 6716.956
6556.300, 6731.867
6558.229, 6614.541
6560.157, 6611.245
6562.086, 6547.839
6564.014, 6587.772
6565.943, 6592.922
6567.871, 6560.583
6569.800, 6496.800
6571.728, 6423.550
6573.657, 6486.013
6575.585, 6497.307
6577.514, 6474.923
6579.442, 6434.753
6581.371, 6424.859
6583.299, 6432.129
6585.228, 6408.779
6587.156, 6338.468
6589.084, 6279.241
6591.013, 6298.978
6592.941, 6289.548
6594.870, 6301.278
6596.798, 6257.855
6598.727, 6238.049
6600.655, 6250.063
6602.583, 6205.488
6604.512, 6140.193
6606.440, 6139.077
6608.369, 6133.831
6610.297, 6130.954
6612.226, 6094.688
6614.154, 6069.590
6616.083, 6069.397
6618.011, 6050.556
6619.940, 5987.659
6621.868, 5941.892
6623.797, 6037.213
6625.725, 6014.050
6627.654, 5907.691
6629.582, 5858.154
##END=



