##NAMES=Olivenite
##RRUFFID=R050532
##IDEAL CHEMISTRY=Cu_2_(AsO_4_)(OH)
##LOCALITY=Tsumeb mine, Tsumeb, Otavi District, Oshikoto, Namibia
##OWNER=RRUFF
##SOURCE=University of Arizona Mineral Museum
##DESCRIPTION=Dark green prismatic crystals on botryoidal bayldonite R050670
##STATUS=The identification of this mineral has been confirmed by X-ray diffraction and chemical analysis
##URL=https://www.rruff.net/odr/rruff_sample/R050532
##MEASURED CHEMISTRY=(Cu_0.99_Zn_0.01_)_2_(As_1.00_O_4_)(OH)
##DIFFRACTION SAMPLE DESCRIPTION=Powder
##CELL PARAMETERS=a: 8.6115 b: 8.23 c: 5.9382 alpha: 90.12 beta: 90 gamma: 90 volume: 420.87 crystal system: monoclinic
##FILETYPE=Raman RAW
##RAMAN WAVELENGTH=532

87.21906, 58.67513
89.14753, 59.27742
91.07600, 60.20837
93.00446, 61.59551
94.93293, 63.29541
96.86140, 65.08646
98.78986, 65.85204
100.7183, 67.68362
102.6468, 69.10688
104.5753, 67.44363
106.5037, 77.25593
108.4322, 95.17155
110.3607, 123.8776
112.2891, 186.4416
114.2176, 266.1836
116.1461, 387.3119
118.0745, 563.7585
120.0030, 806.4684
121.9315, 1069.552
123.8599, 1352.088
125.7884, 1649.770
127.7169, 1935.799
129.6453, 2179.376
131.5738, 2434.410
133.5023, 2735.599
135.4307, 3097.075
137.3592, 3491.477
139.2877, 3927.281
141.2161, 4391.787
143.1446, 4699.305
145.0731, 4939.214
147.0015, 5155.875
148.9300, 5317.500
150.8585, 5453.946
152.7869, 5518.382
154.7154, 5503.626
156.6439, 5418.696
158.5723, 5293.993
160.5008, 5111.140
162.4293, 4912.172
164.3577, 4726.586
166.2862, 4547.425
168.2147, 4391.563
170.1431, 4259.544
172.0716, 4152.380
174.0001, 4059.295
175.9285, 3990.112
177.8570, 3927.894
179.7855, 3859.031
181.7139, 3776.018
183.6424, 3691.920
185.5709, 3600.656
187.4993, 3504.056
189.4278, 3425.786
191.3563, 3365.058
193.2847, 3325.047
195.2132, 3312.919
197.1417, 3323.215
199.0701, 3363.632
200.9986, 3440.929
202.9271, 3549.985
204.8555, 3686.765
206.7840, 3865.453
208.7125, 4062.079
210.6409, 4258.364
212.5694, 4467.451
214.4979, 4647.594
216.4263, 4796.538
218.3548, 4911.833
220.2833, 4975.464
222.2117, 4984.393
224.1402, 4944.820
226.0687, 4867.385
227.9971, 4743.122
229.9256, 4593.970
231.8541, 4417.890
233.7825, 4215.154
235.7110, 4020.964
237.6395, 3834.255
239.5679, 3658.475
241.4964, 3494.692
243.4249, 3345.474
245.3533, 3207.867
247.2818, 3080.774
249.2103, 2965.979
251.1387, 2865.937
253.0672, 2781.291
254.9957, 2713.038
256.9242, 2663.433
258.8526, 2632.205
260.7811, 2620.001
262.7096, 2619.732
264.6380, 2637.792
266.5665, 2699.918
268.4950, 2819.095
270.4234, 2972.721
272.3519, 3165.937
274.2804, 3400.870
276.2088, 3635.358
278.1373, 3878.988
280.0658, 4117.643
281.9942, 4308.345
283.9227, 4452.915
285.8512, 4555.783
287.7796, 4603.764
289.7081, 4598.427
291.6366, 4578.034
293.5650, 4538.787
295.4935, 4491.139
297.4220, 4452.795
299.3504, 4420.428
301.2789, 4400.796
303.2074, 4404.664
305.1358, 4435.190
307.0643, 4444.241
308.9928, 4437.719
310.9212, 4409.015
312.8497, 4345.496
314.7782, 4239.343
316.7066, 4128.503
318.6351, 4016.592
320.5636, 3904.810
322.4920, 3809.211
324.4205, 3727.157
326.3490, 3661.161
328.2774, 3615.054
330.2059, 3592.777
332.1344, 3574.230
334.0628, 3560.437
335.9913, 3547.452
337.9198, 3528.539
339.8482, 3505.020
341.7767, 3476.719
343.7052, 3444.174
345.6336, 3409.112
347.5621, 3360.249
349.4906, 3294.057
351.4190, 3214.707
353.3475, 3127.916
355.2760, 3031.845
357.2044, 2930.289
359.1329, 2824.599
361.0614, 2715.800
362.9898, 2606.010
364.9183, 2490.757
366.8468, 2378.912
368.7752, 2276.267
370.7037, 2183.845
372.6322, 2097.534
374.5606, 2015.717
376.4891, 1939.042
378.4176, 1867.939
380.3460, 1801.096
382.2745, 1743.001
384.2030, 1693.831
386.1314, 1654.174
388.0599, 1622.758
389.9884, 1600.198
391.9168, 1581.408
393.8453, 1566.711
395.7738, 1555.130
397.7022, 1550.755
399.6307, 1553.620
401.5592, 1563.687
403.4876, 1582.174
405.4161, 1608.166
407.3446, 1641.632
409.2730, 1685.664
411.2015, 1740.277
413.1300, 1792.389
415.0584, 1843.741
416.9869, 1891.185
418.9154, 1929.333
420.8438, 1960.450
422.7723, 1979.994
424.7008, 1981.686
426.6292, 1967.283
428.5577, 1942.471
430.4862, 1903.832
432.4146, 1858.578
434.3431, 1810.863
436.2716, 1761.053
438.2000, 1713.711
440.1285, 1669.499
442.0570, 1629.164
443.9854, 1595.006
445.9139, 1569.357
447.8424, 1546.239
449.7708, 1521.257
451.6993, 1497.120
453.6278, 1475.915
455.5562, 1457.308
457.4847, 1441.275
459.4132, 1427.702
461.3416, 1418.328
463.2701, 1416.461
465.1986, 1422.701
467.1270, 1437.023
469.0555, 1457.581
470.9840, 1484.475
472.9124, 1516.681
474.8409, 1553.279
476.7694, 1598.738
478.6978, 1654.476
480.6263, 1719.939
482.5548, 1794.170
484.4832, 1879.948
486.4117, 1976.499
488.3402, 2079.552
490.2686, 2189.491
492.1971, 2302.079
494.1256, 2412.833
496.0540, 2521.937
497.9825, 2631.233
499.9110, 2743.586
501.8394, 2849.368
503.7679, 2943.069
505.6964, 3025.288
507.6248, 3097.573
509.5533, 3162.486
511.4818, 3220.173
513.4103, 3262.322
515.3387, 3277.360
517.2672, 3273.357
519.1957, 3257.131
521.1241, 3225.935
523.0526, 3176.757
524.9811, 3109.235
526.9095, 3027.946
528.8380, 2933.715
530.7665, 2824.157
532.6949, 2712.939
534.6234, 2603.281
536.5519, 2494.686
538.4803, 2389.124
540.4088, 2288.260
542.3373, 2191.828
544.2657, 2099.343
546.1942, 2016.404
548.1227, 1948.595
550.0511, 1893.657
551.9796, 1841.484
553.9081, 1789.289
555.8365, 1736.658
557.7650, 1683.920
559.6935, 1627.157
561.6219, 1565.525
563.5504, 1498.807
565.4789, 1428.362
567.4073, 1359.552
569.3358, 1296.670
571.2643, 1238.601
573.1927, 1184.104
575.1212, 1133.438
577.0497, 1087.222
578.9781, 1046.394
580.9066, 1010.479
582.8351, 978.4359
584.7635, 948.5878
586.6920, 920.3817
588.6205, 894.9038
590.5490, 870.2698
592.4774, 850.0904
594.4059, 830.6045
596.3344, 813.5898
598.2628, 800.3427
600.1913, 789.9876
602.1198, 780.8059
604.0482, 773.3019
605.9767, 766.8062
607.9052, 760.9083
609.8336, 755.5957
611.7621, 751.2292
613.6906, 748.3712
615.6190, 747.6889
617.5475, 749.2799
619.4760, 751.8936
621.4044, 752.6945
623.3329, 751.8715
625.2614, 751.6984
627.1898, 753.3026
629.1183, 755.9574
631.0468, 758.8867
632.9752, 763.2751
634.9037, 768.2237
636.8322, 772.6976
638.7606, 774.3447
640.6891, 775.9786
642.6176, 778.8915
644.5460, 782.8479
646.4745, 786.7546
648.4030, 790.3600
650.3314, 794.7574
652.2599, 800.1490
654.1884, 805.7422
656.1168, 810.8746
658.0453, 815.5323
659.9738, 819.9509
661.9022, 824.9622
663.8307, 830.5388
665.7592, 835.2532
667.6876, 836.2060
669.6161, 837.3502
671.5446, 840.5942
673.4730, 845.5504
675.4015, 848.3125
677.3300, 850.0970
679.2584, 852.5085
681.1869, 856.1668
683.1154, 858.8809
685.0438, 860.9191
686.9723, 863.7839
688.9008, 867.4001
690.8292, 871.5353
692.7577, 875.3412
694.6862, 879.0320
696.6146, 883.5253
698.5431, 887.4785
700.4716, 889.8870
702.4000, 890.7617
704.3285, 892.5745
706.2570, 895.2806
708.1854, 898.2095
710.1139, 900.7587
712.0424, 904.3682
713.9708, 909.3937
715.8993, 916.5889
717.8278, 923.2348
719.7562, 927.7626
721.6847, 929.5421
723.6132, 932.5472
725.5416, 938.0116
727.4701, 944.6376
729.3986, 950.8749
731.3270, 957.2858
733.2555, 964.6406
735.1840, 972.3755
737.1124, 980.5668
739.0409, 991.7561
740.9694, 1002.702
742.8978, 1017.014
744.8263, 1031.471
746.7548, 1047.338
748.6832, 1066.370
750.6117, 1088.550
752.5402, 1113.283
754.4686, 1140.667
756.3971, 1170.988
758.3256, 1202.065
760.2540, 1234.269
762.1825, 1274.677
764.1110, 1323.789
766.0394, 1381.470
767.9679, 1445.108
769.8964, 1514.263
771.8248, 1595.935
773.7533, 1694.793
775.6818, 1803.996
777.6102, 1923.903
779.5387, 2048.100
781.4672, 2189.123
783.3956, 2346.572
785.3241, 2524.077
787.2526, 2716.744
789.1810, 2930.407
791.1095, 3172.086
793.0380, 3438.612
794.9664, 3738.074
796.8949, 4063.163
798.8234, 4414.165
800.7518, 4832.366
802.6803, 5304.743
804.6088, 5857.542
806.5372, 6516.055
808.4657, 7275.463
810.3942, 8100.843
812.3226, 9052.808
814.2511, 10006.90
816.1796, 10962.19
818.1080, 11887.87
820.0365, 12694.28
821.9650, 13358.82
823.8934, 13925.83
825.8219, 14373.19
827.7504, 14741.23
829.6788, 15155.03
831.6073, 15541.57
833.5358, 16050.00
835.4642, 16702.49
837.3927, 17477.49
839.3212, 18560.16
841.2496, 19993.38
843.1781, 21661.11
845.1066, 23613.98
847.0350, 25806.46
848.9635, 27951.23
850.8920, 30295.50
852.8204, 32230.92
854.7489, 33758.96
856.6774, 34730.19
858.6058, 34613.94
860.5343, 33159.86
862.4628, 31085.02
864.3912, 28311.50
866.3197, 25105.64
868.2482, 22050.33
870.1766, 19074.83
872.1051, 16468.50
874.0336, 14319.51
875.9620, 12591.00
877.8905, 11158.64
879.8190, 10173.50
881.7474, 9253.069
883.6759, 8329.244
885.6044, 7417.758
887.5328, 6535.216
889.4613, 5651.848
891.3898, 4881.410
893.3182, 4257.539
895.2467, 3753.473
897.1752, 3335.958
899.1036, 3038.234
901.0321, 2782.091
902.9606, 2574.424
904.8890, 2403.975
906.8175, 2259.140
908.7460, 2140.445
910.6744, 2036.545
912.6029, 1948.125
914.5314, 1871.211
916.4598, 1805.150
918.3883, 1753.755
920.3168, 1705.300
922.2452, 1658.302
924.1737, 1612.988
926.1022, 1572.435
928.0306, 1537.484
929.9591, 1503.010
931.8876, 1466.615
933.8160, 1431.409
935.7445, 1399.833
937.6730, 1372.323
939.6014, 1348.414
941.5299, 1328.959
943.4584, 1311.679
945.3868, 1295.774
947.3153, 1281.914
949.2438, 1271.250
951.1722, 1264.937
953.1007, 1259.375
955.0292, 1254.288
956.9576, 1248.557
958.8861, 1240.573
960.8146, 1231.766
962.7430, 1218.884
964.6715, 1199.719
966.6000, 1174.857
968.5284, 1148.110
970.4569, 1118.334
972.3854, 1088.644
974.3138, 1058.102
976.2423, 1029.345
978.1708, 1005.163
980.0992, 986.4136
982.0277, 968.8203
983.9562, 950.4044
985.8846, 933.4338
987.8131, 920.6974
989.7416, 911.7874
991.6700, 901.1668
993.5985, 887.2911
995.5270, 875.3091
997.4554, 867.9313
999.3839, 863.1523
1001.312, 858.4591
1003.241, 853.8633
1005.169, 849.6436
1007.098, 844.8721
1009.026, 840.7848
1010.955, 839.1719
1012.883, 840.0150
1014.812, 840.8675
1016.740, 841.4003
1018.669, 843.6692
1020.597, 846.7696
1022.526, 849.3392
1024.454, 851.4434
1026.382, 853.7949
1028.311, 855.7366
1030.239, 856.3171
1032.168, 855.3329
1034.096, 852.7792
1036.025, 849.0519
1037.953, 843.1935
1039.882, 837.2101
1041.810, 827.1924
1043.739, 816.2945
1045.667, 804.7001
1047.596, 793.6544
1049.524, 783.2875
1051.453, 772.6224
1053.381, 763.3737
1055.309, 757.0176
1057.238, 751.2628
1059.166, 744.1732
1061.095, 736.3082
1063.023, 730.5313
1064.952, 728.0773
1066.880, 725.8520
1068.809, 723.0201
1070.737, 720.3791
1072.666, 718.8311
1074.594, 717.9355
1076.523, 716.2467
1078.451, 713.3709
1080.380, 709.9605
1082.308, 706.5908
1084.236, 703.2213
1086.165, 699.5967
1088.093, 696.0822
1090.022, 692.4413
1091.950, 688.6595
1093.879, 684.1887
1095.807, 677.9039
1097.736, 668.6882
1099.664, 661.2489
1101.593, 657.1672
1103.521, 655.3497
1105.450, 653.9161
1107.378, 652.1840
1109.307, 649.8447
1111.235, 647.2184
1113.163, 644.7620
1115.092, 642.2302
1117.020, 639.8010
1118.949, 639.0494
1120.877, 638.7099
1122.806, 637.0425
1124.734, 634.1945
1126.663, 632.1214
1128.591, 630.8895
1130.520, 630.6467
1132.448, 629.6593
1134.377, 626.4503
1136.305, 621.2930
1138.234, 616.1486
1140.162, 612.7846
1142.090, 607.6093
1144.019, 598.6840
1145.947, 588.8185
1147.876, 580.1455
1149.804, 572.2631
1151.733, 563.5015
1153.661, 554.2945
1155.590, 545.1901
1157.518, 536.1804
1159.447, 527.7917
1161.375, 521.1591
1163.304, 513.2818
1165.232, 507.6272
1167.161, 500.0269
1169.089, 493.6578
1171.017, 488.4839
1172.946, 483.1868
1174.874, 479.5011
1176.803, 478.4668
1178.731, 477.3062
1180.660, 474.9937
1182.588, 472.2464
1184.517, 469.8852
1186.445, 467.6740
1188.374, 466.2609
1190.302, 465.6367
1192.231, 464.6046
1194.159, 462.6794
1196.088, 461.0357
1198.016, 461.0915
1199.944, 460.6108
1201.873, 459.8638
1203.801, 459.4648
1205.730, 459.7416
1207.658, 460.6577
1209.587, 462.7423
1211.515, 462.9255
1213.444, 458.9704
1215.372, 453.7565
1217.301, 450.4903
1219.229, 449.8408
1221.158, 450.2767
1223.086, 450.5621
1225.015, 450.0788
1226.943, 449.7142
1228.871, 449.7810
1230.800, 449.6605
1232.728, 448.0099
1234.657, 447.1432
1236.585, 447.7162
1238.514, 448.3665
1240.442, 448.4745
1242.371, 448.5244
1244.299, 449.6743
1246.228, 452.0830
1248.156, 453.2520
1250.085, 451.8343
1252.013, 448.7733
1253.942, 446.0045
1255.870, 443.9864
1257.798, 443.3378
1259.727, 443.6457
1261.655, 443.6872
1263.584, 443.8947
1265.512, 444.7363
1267.441, 445.6504
1269.369, 445.9712
1271.298, 445.4931
1273.226, 445.0294
1275.155, 444.7064
1277.083, 443.6412
1279.012, 440.9326
1280.940, 439.0562
1282.869, 438.9724
1284.797, 439.5986
1286.725, 440.3199
1288.654, 440.4496
1290.582, 439.6562
1292.511, 438.0682
1294.439, 437.4220
1296.368, 437.6143
1298.296, 438.1519
1300.225, 439.6923
1302.153, 442.2725
1304.082, 443.5876
1306.010, 442.0455
1307.939, 441.0521
1309.867, 441.8531
1311.796, 443.3315
1313.724, 444.6674
1315.652, 446.0703
1317.581, 447.0196
1319.509, 446.7745
1321.438, 446.8787
1323.366, 447.6675
1325.295, 448.8778
1327.223, 450.5778
1329.152, 453.1683
1331.080, 454.4200
1333.009, 452.6422
1334.937, 451.1935
1336.866, 452.2174
1338.794, 454.8624
1340.723, 456.1363
1342.651, 455.1683
1344.579, 454.6497
1346.508, 456.2198
1348.436, 458.1337
1350.365, 459.3218
1352.293, 459.8799
1354.222, 460.7524
1356.150, 462.5845
1358.079, 463.7192
1360.007, 463.1299
1361.936, 462.3530
1363.864, 463.0808
1365.793, 465.8432
1367.721, 466.6992
1369.650, 463.5218
1371.578, 460.8810
1373.506, 460.4385
1375.435, 461.3959
1377.363, 463.2543
1379.292, 466.3038
1381.220, 467.9978
1383.149, 467.8307
1385.077, 466.6766
1387.006, 463.4933
1388.934, 459.5184
1390.863, 457.9497
1392.791, 459.1485
1394.720, 459.7294
1396.648, 458.7460
1398.577, 457.4622
1400.505, 455.6273
1402.433, 454.2154
1404.362, 455.2096
1406.290, 459.7709
1408.219, 461.9306
1410.147, 459.6568
1412.076, 456.4451
1414.004, 453.6801
1415.933, 451.6939
1417.861, 450.1661
1419.790, 448.9671
1421.718, 448.0834
1423.647, 448.6651
1425.575, 449.0454
1427.504, 447.2426
1429.432, 443.9180
1431.360, 442.4497
1433.289, 443.9702
1435.217, 444.1641
1437.146, 441.3303
1439.074, 437.9347
1441.003, 435.5096
1442.931, 434.1110
1444.860, 433.2797
1446.788, 433.2202
1448.717, 433.3270
1450.645, 434.0312
1452.574, 434.1236
1454.502, 432.2411
1456.431, 429.3700
1458.359, 428.1559
1460.287, 429.1688
1462.216, 429.4417
1464.144, 427.7100
1466.073, 425.8431
1468.001, 424.9726
1469.930, 424.7126
1471.858, 423.8981
1473.787, 422.2351
1475.715, 421.0729
1477.644, 421.0348
1479.572, 420.9685
1481.501, 420.2135
1483.429, 419.0096
1485.358, 418.0879
1487.286, 417.8473
1489.214, 416.7833
1491.143, 413.6208
1493.071, 411.1891
1495.000, 411.6159
1496.928, 413.0896
1498.857, 412.2457
1500.785, 408.1495
1502.714, 405.7427
1504.642, 406.3352
1506.571, 407.0385
1508.499, 406.7328
1510.428, 406.1593
1512.356, 406.4794
1514.285, 407.5953
1516.213, 407.6163
1518.141, 405.4760
1520.070, 404.0644
1521.998, 405.2714
1523.927, 406.8775
1525.855, 406.3005
1527.784, 404.2876
1529.712, 404.3360
1531.641, 407.5482
1533.569, 409.5514
1535.498, 408.3785
1537.426, 406.5515
1539.355, 405.1146
1541.283, 404.1854
1543.212, 404.7586
1545.140, 407.2712
1547.068, 409.4615
1548.997, 410.6147
1550.925, 411.5834
1552.854, 413.0721
1554.782, 414.5741
1556.711, 414.8623
1558.639, 413.6818
1560.568, 413.4468
1562.496, 415.1115
1564.425, 416.6638
1566.353, 417.4040
1568.282, 417.8409
1570.210, 418.5177
1572.139, 419.4718
1574.067, 420.6234
1575.995, 422.4132
1577.924, 423.7534
1579.852, 423.1455
1581.781, 423.0509
1583.709, 425.9258
1585.638, 431.0008
1587.566, 434.6986
1589.495, 436.8925
1591.423, 437.8070
1593.352, 436.2567
1595.280, 435.0652
1597.209, 435.6822
1599.137, 437.1652
1601.066, 437.9500
1602.994, 437.8134
1604.922, 438.3919
1606.851, 439.6727
1608.779, 441.3778
1610.708, 444.7565
1612.636, 447.4846
1614.565, 447.0887
1616.493, 444.3319
1618.422, 442.8010
1620.350, 442.5846
1622.279, 443.4349
1624.207, 446.1575
1626.136, 449.0589
1628.064, 451.8879
1629.993, 454.0683
1631.921, 454.4130
1633.849, 452.6174
1635.778, 451.8227
1637.706, 453.3307
1639.635, 453.7716
1641.563, 450.6918
1643.492, 448.1465
1645.420, 450.1444
1647.349, 455.0854
1649.277, 457.3285
1651.206, 456.0309
1653.134, 456.0755
1655.063, 459.1435
1656.991, 461.9610
1658.920, 463.0960
1660.848, 463.6780
1662.776, 464.8436
1664.705, 466.6314
1666.633, 468.9059
1668.562, 471.6515
1670.490, 474.9737
1672.419, 479.7093
1674.347, 484.0247
1676.276, 486.9803
1678.204, 488.7768
1680.133, 489.3994
1682.061, 488.8441
1683.990, 489.0644
1685.918, 490.3484
1687.847, 492.1900
1689.775, 495.4915
1691.703, 498.4400
1693.632, 499.8463
1695.560, 500.0097
1697.489, 499.5541
1699.417, 498.4525
1701.346, 496.9201
1703.274, 494.8052
1705.203, 492.5121
1707.131, 490.2386
1709.060, 487.7831
1710.988, 484.7031
1712.917, 481.3169
1714.845, 478.8943
1716.774, 477.7620
1718.702, 475.3688
1720.630, 469.6464
1722.559, 465.1867
1724.487, 464.2014
1726.416, 464.6283
1728.344, 465.2284
1730.273, 465.6883
1732.201, 464.3624
1734.130, 460.7077
1736.058, 457.9115
1737.987, 456.1830
1739.915, 455.6239
1741.844, 456.9859
1743.772, 458.9646
1745.701, 460.6234
1747.629, 461.8394
1749.557, 461.8304
1751.486, 460.1166
1753.414, 459.0501
1755.343, 459.0144
1757.271, 459.4106
1759.200, 460.0140
1761.128, 460.9273
1763.057, 462.4963
1764.985, 464.5036
1766.914, 465.9694
1768.842, 467.0411
1770.771, 467.2608
1772.699, 465.5122
1774.628, 464.4986
1776.556, 465.4922
1778.484, 467.0829
1780.413, 468.3307
1782.341, 469.0838
1784.270, 468.8673
1786.198, 467.3324
1788.127, 465.7315
1790.055, 463.6458
1791.984, 462.1754
1793.912, 461.9525
1795.841, 462.1921
1797.769, 462.3084
1799.698, 462.5313
1801.626, 463.4806
1803.555, 465.4113
1805.483, 466.5106
1807.411, 466.1479
1809.340, 465.6371
1811.268, 464.8433
1813.197, 464.1088
1815.125, 463.7762
1817.054, 463.5521
1818.982, 462.8825
1820.911, 461.7921
1822.839, 461.4347
1824.768, 462.5458
1826.696, 462.6779
1828.625, 460.5256
1830.553, 458.6357
1832.482, 457.7609
1834.410, 457.5967
1836.339, 458.3708
1838.267, 459.6642
1840.195, 459.0391
1842.124, 456.0016
1844.052, 455.0553
1845.981, 457.8516
1847.909, 460.3262
1849.838, 460.6969
1851.766, 460.9429
1853.695, 462.5954
1855.623, 464.7578
1857.552, 465.9935
1859.480, 466.3092
1861.409, 465.8904
1863.337, 464.4337
1865.266, 463.7025
1867.194, 464.8922
1869.122, 465.5957
1871.051, 464.0713
1872.979, 462.0685
1874.908, 461.2471
1876.836, 461.2797
1878.765, 461.1007
1880.693, 461.5706
1882.622, 461.1103
1884.550, 463.3250
1886.479, 465.0765
1888.407, 466.6624
1890.336, 466.7119
1892.264, 463.1766
1894.193, 458.5714
1896.121, 456.1020
1898.049, 455.6220
1899.978, 456.0522
1901.906, 458.1981
1903.835, 459.2097
1905.763, 457.8991
1907.692, 457.1200
1909.620, 458.5179
1911.549, 459.4404
1913.477, 457.7491
1915.406, 454.7561
1917.334, 452.2581
1919.263, 450.2809
1921.191, 450.0190
1923.120, 452.4341
1925.048, 453.1158
1926.976, 450.4235
1928.905, 448.0094
1930.833, 446.8087
1932.762, 446.4193
1934.690, 447.5434
1936.619, 448.7998
1938.547, 447.3271
1940.476, 443.7481
1942.404, 442.1582
1944.333, 443.0991
1946.261, 443.7320
1948.190, 443.8508
1950.118, 443.1461
1952.047, 440.5292
1953.975, 438.1485
1955.904, 437.4816
1957.832, 437.8116
1959.760, 438.4540
1961.689, 439.2263
1963.617, 438.7404
1965.546, 436.3216
1967.474, 435.1465
1969.403, 436.7334
1971.331, 437.5327
1973.260, 436.8820
1975.188, 435.3430
1977.117, 431.4611
1979.045, 428.1698
1980.974, 430.7435
1982.902, 428.4726
1984.831, 427.8227
1986.759, 430.1803
1988.688, 426.8951
1990.616, 430.1428
1992.544, 431.8773
1994.473, 429.1879
1996.401, 426.8802
1998.330, 427.3101
2000.258, 428.6514
2002.187, 429.6801
2004.115, 430.4461
2006.044, 430.9787
2007.972, 431.6772
2009.901, 431.7796
2011.829, 432.5463
2013.758, 432.9718
2015.686, 433.0492
2017.615, 432.7238
2019.543, 431.7792
2021.471, 430.7804
2023.400, 430.1508
2025.328, 429.5839
2027.257, 428.2794
2029.185, 426.6881
2031.114, 426.6311
2033.042, 428.2943
2034.971, 430.0179
2036.899, 432.3616
2038.828, 433.2741
2040.756, 431.8615
2042.685, 430.1126
2044.613, 427.7421
2046.542, 426.3692
2048.470, 427.6525
2050.398, 430.0804
2052.327, 432.1968
2054.255, 433.7403
2056.184, 433.4742
2058.112, 431.3407
2060.041, 429.8223
2061.969, 429.1523
2063.898, 428.8831
2065.826, 429.1104
2067.755, 429.4355
2069.683, 429.2707
2071.612, 429.7267
2073.540, 432.7626
2075.469, 436.0135
2077.397, 435.8748
2079.325, 433.1362
2081.254, 430.9123
2083.182, 429.1722
2085.111, 428.3056
2087.039, 428.6625
2088.968, 428.5932
2090.896, 427.0787
2092.825, 426.8615
2094.753, 430.5007
2096.682, 433.3925
2098.610, 432.0069
2100.539, 429.2052
2102.467, 427.5805
2104.396, 426.8700
2106.324, 426.4809
2108.252, 426.4381
2110.181, 427.2772
2112.109, 426.8416
2114.038, 426.2907
2115.966, 427.2211
2117.895, 425.1633
2119.823, 426.1815
2121.752, 427.2396
2123.680, 426.8874
2125.609, 426.5328
2127.537, 427.3667
2129.466, 428.6270
2131.394, 429.4997
2133.323, 429.8350
2135.251, 428.9788
2137.179, 427.0037
2139.108, 425.4007
2141.036, 424.2519
2142.965, 423.7529
2144.893, 424.0837
2146.822, 424.8561
2148.750, 426.7803
2150.679, 428.1077
2152.607, 427.7298
2154.536, 426.8477
2156.464, 426.2294
2158.393, 425.8556
2160.321, 425.6332
2162.250, 425.6138
2164.178, 426.1444
2166.106, 427.1914
2168.035, 427.9377
2169.963, 428.2669
2171.892, 428.8288
2173.820, 429.8993
2175.749, 430.6571
2177.677, 430.9620
2179.606, 430.7646
2181.534, 429.2531
2183.463, 428.1255
2185.391, 428.8222
2187.320, 430.3306
2189.248, 431.9680
2191.177, 433.2535
2193.105, 432.4704
2195.033, 429.7384
2196.962, 428.7806
2198.890, 429.8354
2200.819, 429.6772
2202.747, 427.8269
2204.676, 425.9186
2206.604, 423.5955
2208.533, 422.9858
2210.461, 426.5706
2212.390, 429.7321
2214.318, 429.8609
2216.247, 429.0636
2218.175, 428.6203
2220.104, 428.4921
2222.032, 428.8168
2223.960, 429.3831
2225.889, 429.6275
2227.817, 429.5796
2229.746, 429.2243
2231.674, 428.5390
2233.603, 429.0210
2235.531, 431.3519
2237.460, 432.1777
2239.388, 429.9556
2241.317, 428.1672
2243.245, 428.5757
2245.174, 428.5962
2247.102, 426.0803
2249.031, 423.9896
2250.959, 425.2682
2252.887, 427.3770
2254.816, 426.9469
2256.744, 425.4067
2258.673, 425.7144
2260.601, 427.5921
2262.530, 430.6411
2264.458, 434.5486
2266.387, 433.9200
2268.315, 436.7747
2270.244, 439.4097
2272.172, 436.7393
2274.101, 442.2879
2276.029, 436.8578
2277.958, 431.6645
2279.886, 428.8045
2281.814, 427.5795
2283.743, 429.1057
2285.671, 430.4839
2287.600, 429.0277
2289.528, 429.6033
2291.457, 427.0092
2293.385, 427.8910
2295.314, 427.0329
2297.242, 425.1626
2299.171, 424.9470
2301.099, 426.3719
2303.028, 428.1051
2304.956, 430.7043
2306.885, 431.3454
2308.813, 428.8469
2310.741, 427.7645
2312.670, 429.5029
2314.598, 429.9061
2316.527, 426.4144
2318.455, 424.8450
2320.384, 427.7425
2322.312, 432.7114
2324.241, 441.0009
2326.169, 447.9755
2328.098, 450.2237
2330.026, 449.0209
2331.955, 444.6753
2333.883, 438.6207
2335.812, 432.4964
2337.740, 427.0849
2339.668, 426.4899
2341.597, 429.8743
2343.525, 431.2329
2345.454, 430.3899
2347.382, 428.5494
2349.311, 425.4079
2351.239, 423.4658
2353.168, 424.0068
2355.096, 423.8206
2357.025, 421.2728
2358.953, 420.1235
2360.882, 421.8573
2362.810, 423.8292
2364.739, 425.9775
2366.667, 427.0217
2368.595, 424.6323
2370.524, 422.7258
2372.452, 425.9075
2374.381, 423.2898
2376.309, 427.3160
2378.238, 422.8630
2380.166, 422.1999
2382.095, 423.9152
2384.023, 423.9148
2385.952, 422.6000
2387.880, 422.5448
2389.809, 423.6415
2391.737, 424.7915
2393.666, 425.9248
2395.594, 426.3782
2397.522, 425.7549
2399.451, 425.6764
2401.379, 427.2592
2403.308, 427.6058
2405.236, 425.6898
2407.165, 424.1551
2409.093, 423.6152
2411.022, 423.2050
2412.950, 422.6017
2414.879, 422.2153
2416.807, 422.5578
2418.736, 422.8101
2420.664, 421.7303
2422.593, 421.1743
2424.521, 423.3455
2426.449, 426.2314
2428.378, 427.5294
2430.306, 428.0291
2432.235, 429.1860
2434.163, 430.3795
2436.092, 429.9278
2438.020, 428.4485
2439.949, 427.9603
2441.877, 428.3876
2443.806, 429.1465
2445.734, 430.3689
2447.663, 429.6627
2449.591, 426.4913
2451.520, 424.9629
2453.448, 425.3582
2455.376, 425.8177
2457.305, 426.1108
2459.233, 426.4000
2461.162, 427.2669
2463.090, 426.6884
2465.019, 422.1779
2466.947, 419.7998
2468.876, 422.6963
2470.804, 425.0761
2472.733, 425.8073
2474.661, 425.0678
2476.590, 421.0020
2478.518, 418.2262
2480.447, 421.0518
2482.375, 423.9091
2484.303, 422.2997
2486.232, 419.7582
2488.160, 418.8681
2490.089, 419.3599
2492.017, 422.5424
2493.946, 425.6836
2495.874, 423.7502
2497.803, 419.9155
2499.731, 419.2289
2501.660, 420.7455
2503.588, 422.8555
2505.517, 425.1805
2507.445, 426.4415
2509.374, 426.6700
2511.302, 426.1796
2513.230, 424.9947
2515.159, 422.8907
2517.087, 420.0590
2519.016, 419.5287
2520.944, 421.8032
2522.873, 422.3757
2524.801, 420.4885
2526.730, 418.9354
2528.658, 417.4499
2530.587, 417.2856
2532.515, 418.7525
2534.444, 420.2522
2536.372, 421.7178
2538.301, 422.3359
2540.229, 421.6458
2542.157, 420.7525
2544.086, 420.0714
2546.014, 418.9725
2547.943, 416.5170
2549.871, 415.2845
2551.800, 416.6469
2553.728, 417.7909
2555.657, 417.3788
2557.585, 416.8542
2559.514, 416.1866
2561.442, 416.4420
2563.371, 419.5810
2565.299, 421.8779
2567.228, 420.9136
2569.156, 418.8434
2571.084, 415.8739
2573.013, 413.7246
2574.941, 414.4191
2576.870, 415.6031
2578.798, 415.0262
2580.727, 414.1688
2582.655, 414.9215
2584.584, 415.8531
2586.512, 414.3471
2588.441, 412.9705
2590.369, 416.1284
2592.298, 420.1885
2594.226, 420.1404
2596.155, 417.6154
2598.083, 414.2874
2600.011, 411.1910
2601.940, 410.9934
2603.868, 412.4198
2605.797, 412.4936
2607.725, 411.8097
2609.654, 411.7306
2611.582, 412.0392
2613.511, 411.9694
2615.439, 411.6990
2617.368, 412.4168
2619.296, 413.6578
2621.225, 412.2994
2623.153, 413.2605
2625.082, 413.5944
2627.010, 413.1959
2628.938, 414.4251
2630.867, 413.7533
2632.795, 413.5323
2634.724, 413.7666
2636.652, 412.2867
2638.581, 409.3493
2640.509, 407.2935
2642.438, 406.2389
2644.366, 407.1780
2646.295, 410.2423
2648.223, 411.1004
2650.152, 409.4085
2652.080, 408.5331
2654.009, 408.4977
2655.937, 408.0102
2657.865, 407.0494
2659.794, 406.5410
2661.722, 406.6069
2663.651, 407.0319
2665.579, 408.0232
2667.508, 407.9230
2669.436, 408.3250
2671.365, 408.4547
2673.293, 407.9375
2675.222, 408.2022
2677.150, 406.7098
2679.079, 406.0003
2681.007, 406.4596
2682.936, 406.7663
2684.864, 406.9209
2686.792, 407.1617
2688.721, 407.5666
2690.649, 406.4445
2692.578, 402.8394
2694.506, 402.3990
2696.435, 402.2410
2698.363, 401.4302
2700.292, 403.9855
2702.220, 402.3957
2704.149, 404.1532
2706.077, 405.5336
2708.006, 406.3632
2709.934, 405.3369
2711.863, 406.3200
2713.791, 406.1793
2715.719, 405.1538
2717.648, 406.1449
2719.576, 405.7541
2721.505, 406.1786
2723.433, 405.2317
2725.362, 404.6150
2727.290, 404.4883
2729.219, 402.6343
2731.147, 400.8074
2733.076, 399.7189
2735.004, 399.4196
2736.933, 399.8139
2738.861, 401.0981
2740.790, 401.3801
2742.718, 400.3832
2744.646, 400.1740
2746.575, 400.7653
2748.503, 400.1635
2750.432, 398.3360
2752.360, 398.4025
2754.289, 397.2121
2756.217, 396.4123
2758.146, 396.5135
2760.074, 395.6831
2762.003, 397.3368
2763.931, 398.7950
2765.860, 399.9110
2767.788, 400.0559
2769.717, 399.9478
2771.645, 398.6310
2773.573, 397.9030
2775.502, 396.1404
2777.430, 393.8057
2779.359, 393.2060
2781.287, 393.9930
2783.216, 395.1997
2785.144, 396.3004
2787.073, 394.2116
2789.001, 390.3688
2790.930, 389.7183
2792.858, 391.3061
2794.787, 393.3587
2796.715, 395.2220
2798.644, 395.3532
2800.572, 394.1428
2802.500, 391.6496
2804.429, 389.0447
2806.357, 388.2452
2808.286, 388.8075
2810.214, 391.3782
2812.143, 393.8052
2814.071, 392.3095
2816.000, 389.7524
2817.928, 389.4340
2819.857, 389.8877
2821.785, 390.2149
2823.714, 390.0221
2825.642, 388.1361
2827.571, 386.5564
2829.499, 387.5586
2831.427, 388.6958
2833.356, 388.6707
2835.284, 387.9840
2837.213, 386.1604
2839.141, 384.9415
2841.070, 386.0545
2842.998, 386.6410
2844.927, 384.5292
2846.855, 383.8827
2848.784, 387.9256
2850.712, 391.1666
2852.641, 392.0276
2854.569, 391.6003
2856.498, 389.8573
2858.426, 387.3796
2860.354, 383.3603
2862.283, 381.7840
2864.211, 386.0995
2866.140, 387.5630
2868.068, 384.9723
2869.997, 382.9038
2871.925, 381.6651
2873.854, 382.0321
2875.782, 384.6109
2877.711, 384.9147
2879.639, 382.3606
2881.568, 381.1310
2883.496, 381.1129
2885.425, 381.1349
2887.353, 381.1392
2889.281, 381.1269
2891.210, 381.0525
2893.138, 380.3928
2895.067, 379.3569
2896.995, 378.2119
2898.924, 377.4273
2900.852, 378.2060
2902.781, 379.7423
2904.709, 380.8966
2906.638, 381.6755
2908.566, 382.2917
2910.495, 382.3508
2912.423, 381.5243
2914.352, 379.9632
2916.280, 376.0568
2918.208, 373.8284
2920.137, 377.9567
2922.065, 381.3600
2923.994, 379.9529
2925.922, 377.9308
2927.851, 375.7669
2929.779, 375.7800
2931.708, 380.6848
2933.636, 382.2314
2935.565, 377.5271
2937.493, 373.4750
2939.422, 371.2901
2941.350, 370.6628
2943.279, 371.7370
2945.207, 373.5172
2947.135, 375.9710
2949.064, 375.5853
2950.992, 372.0009
2952.921, 370.9277
2954.849, 372.1589
2956.778, 371.9642
2958.706, 370.8119
2960.635, 370.4911
2962.563, 370.3795
2964.492, 367.8569
2966.420, 365.2008
2968.349, 367.6646
2970.277, 371.3156
2972.206, 372.0005
2974.134, 371.1896
2976.063, 369.3634
2977.991, 367.9001
2979.919, 368.3230
2981.848, 368.6295
2983.776, 367.8866
2985.705, 366.9102
2987.633, 365.6241
2989.562, 364.7820
2991.490, 364.6023
2993.419, 364.2903
2995.347, 363.5844
2997.276, 363.4443
2999.204, 364.7030
3001.133, 363.7504
3003.061, 363.7405
3004.990, 364.1768
3006.918, 362.8053
3008.846, 363.9689
3010.775, 363.8780
3012.703, 362.3427
3014.632, 360.4161
3016.560, 361.4994
3018.489, 363.3526
3020.417, 362.1208
3022.346, 360.8457
3024.274, 364.7363
3026.203, 367.3058
3028.131, 362.3512
3030.060, 358.1751
3031.988, 360.4958
3033.917, 362.2855
3035.845, 360.3375
3037.773, 359.7795
3039.702, 362.0552
3041.630, 363.4912
3043.559, 362.8327
3045.487, 363.4863
3047.416, 365.7531
3049.344, 365.2263
3051.273, 365.5735
3053.201, 365.6232
3055.130, 364.5033
3057.058, 364.5713
3058.987, 363.4599
3060.915, 362.7055
3062.844, 362.4775
3064.772, 363.7530
3066.700, 364.7286
3068.629, 362.8210
3070.557, 361.3469
3072.486, 362.4916
3074.414, 363.6000
3076.343, 363.2596
3078.271, 363.2298
3080.200, 364.2682
3082.128, 363.9422
3084.057, 361.6288
3085.985, 360.8422
3087.914, 362.1255
3089.842, 363.0348
3091.771, 363.5201
3093.699, 363.3487
3095.627, 362.3177
3097.556, 358.9957
3099.484, 355.3624
3101.413, 355.2061
3103.341, 356.4570
3105.270, 357.8062
3107.198, 358.5104
3109.127, 357.5359
3111.055, 356.7379
3112.984, 357.3929
3114.912, 356.8351
3116.841, 353.7000
3118.769, 351.4601
3120.698, 350.4857
3122.626, 351.1280
3124.554, 353.2993
3126.483, 354.8746
3128.411, 355.6891
3130.340, 354.9276
3132.268, 356.3250
3134.197, 355.0341
3136.125, 357.0337
3138.054, 356.9102
3139.982, 356.0007
3141.911, 354.6342
3143.839, 354.2246
3145.768, 355.7062
3147.696, 357.4794
3149.625, 359.6087
3151.553, 360.7872
3153.481, 360.9870
3155.410, 359.6732
3157.338, 356.8445
3159.267, 356.0762
3161.195, 357.1624
3163.124, 358.9920
3165.052, 360.8127
3166.981, 360.3161
3168.909, 359.4882
3170.838, 360.8166
3172.766, 362.9130
3174.695, 365.2239
3176.623, 367.1386
3178.552, 368.8655
3180.480, 369.0613
3182.408, 366.4876
3184.337, 365.6453
3186.265, 366.9738
3188.194, 368.0526
3190.122, 368.7023
3192.051, 368.1451
3193.979, 369.5151
3195.908, 368.7745
3197.836, 371.3477
3199.765, 372.4873
3201.693, 373.6173
3203.622, 377.1019
3205.550, 378.9121
3207.479, 375.4894
3209.407, 373.3245
3211.335, 374.5582
3213.264, 375.7596
3215.192, 376.7646
3217.121, 376.8062
3219.049, 378.3399
3220.978, 377.7516
3222.906, 380.7936
3224.835, 382.3349
3226.763, 383.7982
3228.692, 388.1666
3230.620, 391.4203
3232.549, 388.4357
3234.477, 387.3561
3236.406, 393.4796
3238.334, 396.5986
3240.262, 393.4161
3242.191, 392.7990
3244.119, 395.0805
3246.048, 396.6671
3247.976, 397.5900
3249.905, 398.1217
3251.833, 399.1953
3253.762, 403.8859
3255.690, 408.1964
3257.619, 407.1680
3259.547, 406.7117
3261.476, 410.2272
3263.404, 412.7937
3265.333, 412.3281
3267.261, 413.2794
3269.189, 416.0897
3271.118, 417.5018
3273.046, 418.2636
3274.975, 423.1521
3276.903, 429.8114
3278.832, 434.3817
3280.760, 436.6823
3282.689, 434.1272
3284.617, 433.5092
3286.546, 440.1105
3288.474, 446.3781
3290.403, 451.2706
3292.331, 453.2360
3294.260, 458.0176
3296.188, 462.4078
3298.116, 464.8553
3300.045, 471.2143
3301.973, 475.7226
3303.902, 478.5613
3305.830, 482.1660
3307.759, 489.1867
3309.687, 496.2155
3311.616, 501.8226
3313.544, 507.0256
3315.473, 511.8255
3317.401, 517.6409
3319.330, 523.2908
3321.258, 529.0941
3323.187, 535.5550
3325.115, 541.8140
3327.043, 548.5383
3328.972, 556.1544
3330.900, 562.4217
3332.829, 567.6036
3334.757, 572.8615
3336.686, 576.9909
3338.614, 582.1270
3340.543, 586.9516
3342.471, 593.1451
3344.400, 595.7864
3346.328, 601.8514
3348.257, 605.6423
3350.185, 607.0977
3352.114, 608.0840
3354.042, 609.6050
3355.970, 611.6217
3357.899, 614.2664
3359.827, 617.4187
3361.756, 621.1312
3363.684, 621.6127
3365.613, 626.5002
3367.541, 625.6290
3369.470, 633.4346
3371.398, 633.8270
3373.327, 634.5873
3375.255, 642.4007
3377.184, 651.4883
3379.112, 660.0197
3381.041, 670.2787
3382.969, 682.6879
3384.897, 696.8018
3386.826, 712.9060
3388.754, 731.5916
3390.683, 753.7773
3392.611, 780.4315
3394.540, 812.8020
3396.468, 851.2962
3398.397, 895.5383
3400.325, 945.4417
3402.254, 1002.153
3404.182, 1065.840
3406.111, 1137.885
3408.039, 1218.455
3409.968, 1310.991
3411.896, 1411.935
3413.824, 1515.947
3415.753, 1627.215
3417.681, 1752.234
3419.610, 1877.869
3421.538, 2000.749
3423.467, 2136.327
3425.395, 2285.235
3427.324, 2432.369
3429.252, 2574.466
3431.181, 2707.269
3433.109, 2828.169
3435.038, 2936.884
3436.966, 3027.220
3438.895, 3100.522
3440.823, 3143.593
3442.751, 3153.027
3444.680, 3152.904
3446.608, 3139.655
3448.537, 3099.148
3450.465, 3042.214
3452.394, 2983.524
3454.322, 2913.513
3456.251, 2822.929
3458.179, 2726.979
3460.108, 2628.139
3462.036, 2527.459
3463.965, 2424.852
3465.893, 2316.765
3467.822, 2207.769
3469.750, 2103.624
3471.678, 2006.303
3473.607, 1913.713
3475.535, 1826.572
3477.464, 1746.959
3479.392, 1669.007
3481.321, 1601.841
3483.249, 1537.333
3485.178, 1475.723
3487.106, 1418.417
3489.035, 1362.776
3490.963, 1303.826
3492.892, 1252.037
3494.820, 1211.379
3496.749, 1171.300
3498.677, 1130.417
3500.605, 1087.939
3502.534, 1046.297
3504.462, 1012.479
3506.391, 980.0420
3508.319, 942.7540
3510.248, 904.9078
3512.176, 866.7542
3514.105, 832.4107
3516.033, 802.1827
3517.962, 772.0864
3519.890, 742.7479
3521.819, 715.4479
3523.747, 689.8678
3525.676, 665.5407
3527.604, 642.9055
3529.532, 621.1546
3531.461, 600.4990
3533.389, 581.4133
3535.318, 562.2531
3537.246, 544.6708
3539.175, 527.3838
3541.103, 512.0285
3543.032, 500.8498
3544.960, 489.6465
3546.889, 477.5193
3548.817, 463.6351
3550.746, 448.4579
3552.674, 436.3956
3554.603, 426.9612
3556.531, 421.2023
3558.459, 414.6157
3560.388, 402.9051
3562.316, 393.1334
3564.245, 386.3997
3566.173, 380.0189
3568.102, 373.9234
3570.030, 369.5172
3571.959, 365.2546
3573.887, 359.0528
3575.816, 353.0204
3577.744, 348.2924
3579.673, 343.1253
3581.601, 337.3152
3583.530, 332.5946
3585.458, 328.4833
3587.386, 323.6179
3589.315, 318.5233
3591.243, 311.6324
3593.172, 309.5561
3595.100, 306.2020
3597.029, 303.6483
3598.957, 303.2677
3600.886, 300.1591
3602.814, 299.6726
3604.743, 296.8871
3606.671, 294.0464
3608.600, 292.2326
3610.528, 290.3867
3612.457, 288.4286
3614.385, 285.1606
3616.313, 281.4312
3618.242, 279.1605
3620.170, 277.6121
3622.099, 276.5602
3624.027, 275.2566
3625.956, 273.5996
3627.884, 270.3473
3629.813, 266.0465
3631.741, 263.6856
3633.670, 263.4410
3635.598, 268.6273
3637.527, 270.2881
3639.455, 264.2460
3641.384, 259.5679
3643.312, 257.1278
3645.240, 257.9753
3647.169, 259.5333
3649.097, 256.8702
3651.026, 254.3938
3652.954, 254.5085
3654.883, 254.4010
3656.811, 253.4548
3658.740, 254.0101
3660.668, 254.6663
3662.597, 251.2314
3664.525, 248.3380
3666.454, 249.9499
3668.382, 250.9286
3670.311, 249.9175
3672.239, 248.1225
3674.167, 245.9512
3676.096, 244.8663
3678.024, 243.8271
3679.953, 241.1562
3681.881, 239.8886
3683.810, 241.2154
3685.738, 242.6560
3687.667, 243.8986
3689.595, 244.3076
3691.524, 243.4654
3693.452, 239.1917
3695.381, 236.9402
3697.309, 239.0038
3699.238, 239.6244
3701.166, 238.7499
3703.094, 238.0851
3705.023, 237.1164
3706.951, 236.2849
3708.880, 232.9308
3710.808, 234.5620
3712.737, 235.2065
3714.665, 234.6192
3716.594, 231.5946
3718.522, 229.1329
3720.451, 231.9212
3722.379, 234.2443
3724.308, 234.4398
3726.236, 233.0198
3728.165, 230.5055
3730.093, 230.1722
3732.021, 230.3198
3733.950, 228.4984
3735.878, 227.9223
3737.807, 229.9533
3739.735, 228.9367
3741.664, 229.6796
3743.592, 227.3753
3745.521, 229.8572
3747.449, 228.0618
3749.378, 226.9766
3751.306, 227.9480
3753.235, 228.4327
3755.163, 228.4569
3757.092, 229.3114
3759.020, 229.5827
3760.948, 226.6839
3762.877, 226.0288
3764.805, 228.8047
3766.734, 230.5921
3768.662, 230.8456
3770.591, 226.7826
3772.519, 223.2964
3774.448, 224.4319
3776.376, 226.1788
3778.305, 227.9911
3780.233, 228.4090
3782.162, 229.7118
3784.090, 229.4693
3786.019, 230.5444
3787.947, 230.7961
3789.875, 229.7666
3791.804, 229.9407
3793.732, 227.9045
3795.661, 228.6274
3797.589, 226.6680
3799.518, 225.5853
3801.446, 227.4245
3803.375, 228.2539
3805.303, 227.8764
3807.232, 226.3406
3809.160, 224.2585
3811.089, 220.9606
3813.017, 221.1170
3814.946, 220.8105
3816.874, 220.6456
3818.802, 222.6799
3820.731, 222.2989
3822.659, 223.0768
3824.588, 224.1265
3826.516, 224.5158
3828.445, 224.1415
3830.373, 221.4080
3832.302, 218.0646
3834.230, 215.9014
3836.159, 215.6219
3838.087, 213.8398
3840.016, 213.2991
3841.944, 213.3489
3843.873, 213.2865
3845.801, 214.7944
3847.729, 217.0800
3849.658, 218.2701
3851.586, 217.9404
3853.515, 216.2434
3855.443, 214.2083
3857.372, 213.5474
3859.300, 213.3547
3861.229, 213.4965
3863.157, 211.9710
3865.086, 211.8829
3867.014, 209.5002
3868.943, 210.3479
3870.871, 210.5876
3872.800, 209.2723
3874.728, 209.3218
3876.656, 208.7076
3878.585, 207.9778
3880.513, 207.9164
3882.442, 207.6480
3884.370, 207.8878
3886.299, 207.9683
3888.227, 207.8820
3890.156, 209.0520
3892.084, 209.8672
3894.013, 208.7094
3895.941, 207.7837
3897.870, 207.4341
3899.798, 207.8170
3901.727, 208.3506
3903.655, 207.8086
3905.583, 207.4560
3907.512, 208.0218
3909.440, 207.4090
3911.369, 206.4511
3913.297, 209.7333
3915.226, 211.7374
3917.154, 206.9085
3919.083, 204.7275
3921.011, 207.1286
3922.940, 205.5401
3924.868, 203.0203
3926.797, 204.4104
3928.725, 206.7491
3930.654, 208.8064
3932.582, 207.7180
3934.510, 205.9007
3936.439, 206.0484
3938.367, 205.2503
3940.296, 203.2889
3942.224, 204.5463
3944.153, 206.4380
3946.081, 206.1992
3948.010, 204.8291
3949.938, 204.9831
3951.867, 204.4187
3953.795, 203.2163
3955.724, 204.0133
3957.652, 203.4536
3959.581, 203.5386
3961.509, 204.2601
3963.438, 205.2341
3965.366, 205.8424
3967.294, 205.7472
3969.223, 204.1353
3971.151, 203.0993
3973.080, 202.8883
3975.008, 203.0229
3976.937, 202.7857
3978.865, 204.0434
3980.794, 205.4608
3982.722, 205.6433
3984.651, 205.0975
3986.579, 206.0914
3988.508, 202.9099
3990.436, 201.0683
3992.365, 200.3665
3994.293, 199.2288
3996.221, 198.9998
3998.150, 199.2215
4000.078, 199.5994
4002.007, 200.3985
4003.935, 201.8323
4005.864, 203.6720
4007.792, 201.4678
4009.721, 199.0899
4011.649, 201.1475
4013.578, 201.7605
4015.506, 200.0604
4017.435, 198.7636
4019.363, 198.7441
4021.292, 201.8743
4023.220, 203.3684
4025.148, 201.9626
4027.077, 199.7798
4029.005, 198.3554
4030.934, 199.0094
4032.862, 199.4794
4034.791, 200.6052
4036.719, 199.6441
4038.648, 196.6645
4040.576, 196.4497
4042.505, 198.0410
4044.433, 198.6446
4046.362, 198.9083
4048.290, 200.3901
4050.219, 200.6692
4052.147, 199.6910
4054.075, 197.7085
4056.004, 198.7006
4057.932, 197.6428
4059.861, 198.8372
4061.789, 197.1001
4063.718, 197.1350
4065.646, 196.4674
4067.575, 197.5127
4069.503, 198.1913
4071.432, 198.3678
4073.360, 198.0096
4075.289, 197.2421
4077.217, 198.2971
4079.146, 197.1645
4081.074, 195.1781
4083.002, 195.9088
4084.931, 196.6175
4086.859, 197.4969
4088.788, 197.9826
4090.716, 197.9287
4092.645, 198.4249
4094.573, 197.1327
4096.502, 195.9497
4098.430, 194.8859
4100.359, 196.4909
4102.287, 197.0023
4104.216, 196.8047
4106.144, 198.1111
4108.073, 198.1824
4110.001, 199.9501
4111.930, 195.8526
4113.858, 197.8368
4115.787, 195.3819
4117.715, 198.1608
4119.644, 196.4475
4121.572, 195.3822
4123.500, 196.5243
4125.429, 197.8259
4127.357, 198.1346
4129.286, 198.4151
4131.214, 197.9748
4133.143, 197.8396
4135.071, 200.6969
4137.000, 202.1452
4138.928, 199.3893
4140.856, 197.4291
4142.785, 197.9895
4144.713, 199.1561
4146.642, 199.1452
4148.570, 199.4637
4150.499, 200.3876
4152.427, 201.0818
4154.356, 200.3353
4156.284, 200.6708
4158.213, 199.4753
4160.141, 199.6909
4162.070, 201.1109
4163.998, 200.0373
4165.927, 201.8705
4167.855, 205.3602
4169.784, 203.1913
4171.712, 201.7359
4173.641, 206.2076
4175.569, 208.6333
4177.498, 209.6218
4179.426, 209.7648
4181.354, 209.0415
4183.283, 209.6219
4185.211, 209.1052
4187.140, 206.5737
4189.068, 206.4780
4190.997, 208.7426
4192.925, 212.2396
4194.854, 214.3818
4196.782, 215.2451
4198.710, 217.5451
4200.639, 218.0244
4202.567, 218.1622
4204.496, 217.1409
4206.424, 216.6184
4208.353, 214.2014
4210.281, 211.3638
4212.210, 211.8510
4214.138, 212.8520
4216.067, 214.2370
4217.995, 217.0425
4219.924, 218.5904
4221.852, 217.3248
4223.781, 216.5773
4225.709, 216.5705
4227.638, 216.9425
4229.566, 217.6140
4231.495, 218.8439
4233.423, 217.1669
4235.352, 214.7186
4237.280, 215.5294
4239.208, 216.4226
4241.137, 216.6655
4243.065, 212.5949
4244.994, 208.5569
4246.922, 211.0129
4248.851, 212.1113
4250.779, 210.4830
4252.708, 207.7311
4254.636, 206.8871
4256.564, 212.0824
4258.493, 214.1726
4260.421, 212.8924
4262.350, 212.0444
4264.278, 211.5589
4266.207, 211.1717
4268.135, 213.1095
4270.064, 216.1434
4271.992, 217.3637
4273.921, 216.0069
4275.849, 210.8654
4277.778, 210.3987
4279.706, 212.3997
4281.635, 214.1507
4283.563, 214.6859
4285.492, 213.7990
4287.420, 210.1252
4289.349, 207.1874
4291.277, 208.3088
4293.206, 212.4147
4295.134, 217.6603
4297.063, 212.0733
4298.991, 207.4095
4300.919, 210.4544
4302.848, 212.9481
4304.776, 214.1651
4306.705, 213.2083
4308.633, 211.9764
4310.562, 210.9959
4312.490, 210.3248
4314.418, 211.0119
4316.347, 215.2710
4318.275, 217.9496
4320.204, 218.3846
4322.132, 217.8347
4324.061, 216.7910
4325.989, 215.4665
4327.918, 213.8712
4329.846, 212.5697
4331.775, 212.9483
4333.703, 214.7320
4335.632, 217.7782
4337.560, 215.8349
4339.489, 213.3855
4341.417, 216.7994
4343.346, 217.4478
4345.274, 215.0028
4347.203, 213.8453
4349.131, 214.2488
4351.060, 216.4403
4352.988, 218.3350
4354.917, 219.6455
4356.845, 220.6540
4358.773, 219.5599
4360.702, 216.3313
4362.630, 218.8495
4364.559, 221.5495
4366.487, 217.7705
4368.416, 216.0401
4370.344, 216.8723
4372.272, 213.9359
4374.201, 212.1824
4376.129, 211.8637
4378.058, 208.6423
4379.986, 209.2631
4381.915, 211.4112
4383.843, 212.1433
4385.772, 211.4342
4387.700, 213.6961
4389.629, 215.5017
4391.557, 214.5543
4393.486, 214.1531
4395.414, 213.8280
4397.343, 211.5859
4399.271, 211.6040
4401.200, 211.2959
4403.128, 210.7850
4405.057, 211.7498
4406.985, 210.9543
4408.914, 211.5002
4410.842, 211.7533
4412.771, 206.4204
4414.699, 203.5876
4416.627, 205.0009
4418.556, 207.2119
4420.484, 208.1616
4422.413, 204.9953
4424.341, 205.0061
4426.270, 207.1592
4428.198, 207.1143
4430.126, 208.1432
4432.055, 208.1557
4433.983, 207.0320
4435.912, 207.1147
4437.840, 204.6321
4439.769, 203.0502
4441.697, 202.7543
4443.626, 205.8295
4445.554, 207.9212
4447.483, 207.8615
4449.411, 208.9058
4451.340, 209.3380
4453.268, 209.0018
4455.197, 208.8719
4457.125, 207.8697
4459.054, 207.1441
4460.982, 205.7053
4462.911, 204.0301
4464.839, 205.2885
4466.768, 207.0786
4468.696, 207.0200
4470.625, 209.3050
4472.553, 211.5184
4474.481, 207.1689
4476.410, 203.7831
4478.338, 202.9100
4480.267, 204.8686
4482.195, 206.6233
4484.124, 206.4737
4486.052, 206.4288
4487.980, 206.8769
4489.909, 206.3558
4491.837, 206.5369
4493.766, 206.0275
4495.694, 206.4094
4497.623, 207.1635
4499.551, 207.0953
4501.480, 209.3893
4503.408, 210.6282
4505.337, 205.6940
4507.265, 201.6762
4509.194, 199.8815
4511.122, 203.6137
4513.051, 207.1721
4514.979, 209.0313
4516.908, 207.3292
4518.836, 205.8896
4520.765, 207.2144
4522.693, 206.2731
4524.622, 204.1276
4526.550, 201.8513
4528.479, 203.0865
4530.407, 202.1225
4532.335, 204.2178
4534.264, 203.1773
4536.192, 206.8577
4538.121, 207.9548
4540.049, 208.2734
4541.978, 209.3127
4543.906, 209.8201
4545.834, 208.9198
4547.763, 208.4537
4549.691, 207.7428
4551.620, 205.9727
4553.548, 205.9325
4555.477, 204.9983
4557.405, 204.4850
4559.334, 203.9924
4561.262, 204.4881
4563.191, 207.8140
4565.119, 205.8687
4567.048, 207.2839
4568.976, 205.2569
4570.905, 207.0824
4572.833, 206.5456
4574.762, 205.2422
4576.690, 205.8135
4578.619, 205.0608
4580.547, 204.7433
4582.476, 205.1840
4584.404, 204.9529
4586.333, 206.3270
4588.261, 208.2847
4590.189, 210.0271
4592.118, 208.2732
4594.046, 209.0613
4595.975, 206.5759
4597.903, 207.9590
4599.832, 206.6279
4601.760, 206.6532
4603.688, 206.4300
4605.617, 204.1818
4607.545, 208.5332
4609.474, 212.8073
4611.402, 207.9132
4613.331, 207.6789
4615.259, 210.5305
4617.188, 209.2961
4619.116, 206.5561
4621.045, 203.7467
4622.973, 207.2059
4624.902, 208.7482
4626.830, 204.7330
4628.759, 207.9241
4630.687, 210.3271
4632.616, 206.1914
4634.544, 205.0769
4636.473, 205.1069
4638.401, 202.1701
4640.330, 202.4639
4642.258, 204.6215
4644.187, 202.6738
4646.115, 203.7260
4648.043, 204.1491
4649.972, 206.4364
4651.900, 205.1362
4653.829, 205.8786
4655.757, 206.5186
4657.686, 206.6460
4659.614, 206.3606
4661.542, 202.1597
4663.471, 199.6319
4665.399, 205.5318
4667.328, 208.8208
4669.256, 208.6491
4671.185, 209.8625
4673.113, 203.1694
4675.042, 207.6080
4676.970, 206.3174
4678.899, 205.4947
4680.827, 206.4250
4682.756, 205.5694
4684.684, 206.7990
4686.613, 205.4305
4688.541, 205.1849
4690.470, 203.0080
4692.398, 203.6610
4694.327, 202.8064
4696.255, 201.7599
4698.184, 201.6896
4700.112, 203.2394
4702.041, 205.1133
4703.969, 205.3173
4705.897, 205.2813
4707.826, 205.4509
4709.754, 205.7168
4711.683, 207.3480
4713.611, 206.1449
4715.540, 206.9500
4717.468, 206.8375
4719.396, 206.4661
4721.325, 206.9669
4723.253, 206.2045
4725.182, 205.4067
4727.110, 206.1608
4729.039, 206.2509
4730.967, 204.4249
4732.896, 202.1214
4734.824, 202.2265
4736.753, 208.9903
4738.681, 209.7925
4740.610, 207.0510
4742.538, 203.1400
4744.467, 203.3145
4746.395, 201.5614
4748.324, 203.1748
4750.252, 201.7845
4752.181, 201.6121
4754.109, 203.7499
4756.038, 206.1486
4757.966, 207.4777
4759.895, 203.0467
4761.823, 199.6823
4763.751, 199.1728
4765.680, 203.1349
4767.608, 205.6643
4769.537, 205.1140
4771.465, 206.6182
4773.394, 205.3562
4775.322, 205.3569
4777.250, 202.8681
4779.179, 204.3903
4781.107, 199.5438
4783.036, 198.8888
4784.964, 200.4833
4786.893, 203.2248
4788.821, 206.4339
4790.750, 207.6186
4792.678, 202.9924
4794.607, 204.2137
4796.535, 205.6568
4798.464, 201.4095
4800.392, 201.6561
4802.321, 203.4123
4804.249, 201.8880
4806.178, 202.3510
4808.106, 203.9192
4810.035, 205.3172
4811.963, 204.2730
4813.892, 202.1215
4815.820, 200.6536
4817.749, 201.7332
4819.677, 203.7724
4821.605, 202.9000
4823.534, 204.3393
4825.462, 206.7396
4827.391, 205.1852
4829.319, 204.0672
4831.248, 204.5939
4833.176, 204.5885
4835.104, 209.5561
4837.033, 206.0772
4838.961, 209.1654
4840.890, 209.4727
4842.818, 206.6295
4844.747, 206.1583
4846.675, 204.0669
4848.604, 201.1216
4850.532, 204.1275
4852.461, 205.1072
4854.389, 203.0839
4856.318, 201.3685
4858.246, 201.6940
4860.175, 203.4160
4862.103, 201.6659
4864.032, 202.1811
4865.960, 205.1850
4867.889, 204.0786
4869.817, 203.2007
4871.746, 202.7001
4873.674, 203.8487
4875.603, 203.5147
4877.531, 203.7776
4879.459, 204.7483
4881.388, 203.7430
4883.316, 205.0686
4885.245, 204.4252
4887.173, 203.4857
4889.102, 203.1870
4891.030, 203.6931
4892.958, 203.7296
4894.887, 205.0145
4896.815, 204.5583
4898.744, 204.3956
4900.672, 203.9924
4902.601, 202.9526
4904.529, 203.6012
4906.458, 205.8428
4908.386, 208.2222
4910.315, 209.0807
4912.243, 208.5570
4914.172, 208.0676
4916.100, 207.9029
4918.029, 207.9875
4919.957, 208.9000
4921.886, 205.8438
4923.814, 200.8328
4925.743, 200.9097
4927.671, 202.5113
4929.600, 204.3302
4931.528, 205.2173
4933.457, 204.2716
4935.385, 202.5858
4937.313, 202.0230
4939.242, 201.3159
4941.170, 200.4338
4943.099, 201.0906
4945.027, 200.4539
4946.956, 201.6147
4948.884, 204.3923
4950.813, 205.4119
4952.741, 205.5063
4954.669, 205.9537
4956.598, 203.4770
4958.526, 202.4787
4960.455, 202.1240
4962.383, 205.1079
4964.312, 201.8571
4966.240, 207.0863
4968.169, 209.0655
4970.097, 208.3601
4972.026, 205.6878
4973.954, 202.8347
4975.883, 202.2051
4977.811, 205.0539
4979.740, 204.0020
4981.668, 203.3788
4983.597, 204.2857
4985.525, 202.5345
4987.454, 200.8237
4989.382, 200.3797
4991.311, 203.7502
4993.239, 205.5901
4995.167, 205.2265
4997.096, 204.7797
4999.024, 204.2241
5000.953, 203.7328
5002.881, 203.8619
5004.810, 203.2779
5006.738, 203.3425
5008.667, 207.3777
5010.595, 206.1631
5012.523, 203.8987
5014.452, 208.4202
5016.380, 206.0544
5018.309, 202.5021
5020.237, 202.9689
5022.166, 204.9031
5024.094, 205.4394
5026.023, 203.1696
5027.951, 207.6522
5029.880, 208.5464
5031.808, 201.8231
5033.737, 202.0681
5035.665, 205.7424
5037.594, 209.5766
5039.522, 204.0772
5041.451, 199.6982
5043.379, 198.7149
5045.308, 201.5522
5047.236, 203.7142
5049.165, 204.4770
5051.093, 203.6205
5053.021, 202.7577
5054.950, 202.3268
5056.878, 202.5280
5058.807, 203.7164
5060.735, 205.6938
5062.664, 208.2849
5064.592, 205.9979
5066.521, 203.0855
5068.449, 201.7010
5070.377, 202.3746
5072.306, 202.2764
5074.234, 201.0928
5076.163, 201.8160
5078.091, 201.9764
5080.020, 200.8697
5081.948, 201.9379
5083.877, 202.3755
5085.805, 202.2486
5087.734, 203.9224
5089.662, 202.5838
5091.591, 202.1214
5093.519, 205.2975
5095.448, 204.7066
5097.376, 203.5724
5099.305, 203.5973
5101.233, 202.6371
5103.162, 204.0406
5105.090, 204.0733
5107.019, 205.7374
5108.947, 205.3557
5110.875, 205.2422
5112.804, 205.5420
5114.732, 205.1928
5116.661, 207.3725
5118.589, 205.1046
5120.518, 206.0762
5122.446, 206.5219
5124.375, 204.3830
5126.303, 204.5270
5128.231, 203.5059
5130.160, 200.7988
5132.088, 199.8655
5134.017, 200.7781
5135.945, 201.9438
5137.874, 199.7010
5139.802, 201.8228
5141.731, 206.0421
5143.659, 209.7333
5145.588, 208.9400
5147.516, 206.6474
5149.445, 204.6306
5151.373, 203.8450
5153.302, 204.6913
5155.230, 206.5120
5157.159, 207.1551
5159.087, 206.8193
5161.016, 206.0611
5162.944, 205.8772
5164.873, 204.1646
5166.801, 202.5821
5168.729, 202.4180
5170.658, 200.3187
5172.586, 201.0322
5174.515, 205.3476
5176.443, 203.4897
5178.372, 202.8826
5180.300, 203.4691
5182.229, 201.0573
5184.157, 203.0020
5186.085, 205.1195
5188.014, 202.3866
5189.942, 203.4595
5191.871, 202.0341
5193.799, 202.4291
5195.728, 199.4456
5197.656, 203.0278
5199.585, 204.4808
5201.513, 203.3315
5203.442, 202.2400
5205.370, 201.8314
5207.299, 202.6039
5209.227, 203.4595
5211.156, 202.8340
5213.084, 203.3795
5215.013, 202.5139
5216.941, 203.5950
5218.870, 202.9162
5220.798, 203.4892
5222.727, 201.1482
5224.655, 203.3362
5226.583, 201.9918
5228.512, 203.2635
5230.440, 201.6698
5232.369, 196.9952
5234.297, 199.3228
5236.226, 203.9200
5238.154, 206.8514
5240.083, 201.2795
5242.011, 203.0613
5243.939, 204.7047
5245.868, 200.6782
5247.796, 200.7498
5249.725, 202.5644
5251.653, 204.5063
5253.582, 204.6522
5255.510, 203.0854
5257.439, 202.4148
5259.367, 206.4590
5261.296, 206.2674
5263.224, 202.9467
5265.153, 198.8262
5267.081, 204.8510
5269.010, 205.6524
5270.938, 202.6073
5272.867, 204.7127
5274.795, 202.4429
5276.724, 200.2582
5278.652, 201.4856
5280.581, 205.0862
5282.509, 205.9539
5284.438, 204.1724
5286.366, 203.9629
5288.294, 200.2737
5290.223, 197.4023
5292.151, 200.1465
5294.080, 203.5936
5296.008, 203.0984
5297.937, 199.3935
5299.865, 201.9018
5301.793, 200.0617
5303.722, 198.1929
5305.650, 203.3697
5307.579, 202.4221
5309.507, 200.7983
5311.436, 200.9336
5313.364, 201.3864
5315.293, 200.4073
5317.221, 199.3718
5319.150, 200.5350
5321.078, 199.9115
5323.007, 200.5319
5324.935, 199.6821
5326.864, 201.3074
5328.792, 199.8624
5330.721, 199.0658
5332.649, 203.9590
5334.578, 199.2071
5336.506, 195.9657
5338.435, 198.7180
5340.363, 199.7735
5342.292, 198.4280
5344.220, 197.2829
5346.148, 200.9614
5348.077, 201.1293
5350.005, 199.5668
5351.934, 198.4215
5353.862, 205.9462
5355.791, 203.5091
5357.719, 198.6768
5359.647, 204.7942
5361.576, 201.5439
5363.504, 197.6078
5365.433, 196.6354
5367.361, 194.5931
5369.290, 195.7502
5371.218, 198.7104
5373.147, 201.2854
5375.075, 198.4639
5377.004, 198.1170
5378.932, 200.4317
5380.861, 196.1154
5382.789, 198.0930
5384.718, 198.6467
5386.646, 190.2012
5388.575, 195.0004
5390.503, 197.3150
5392.432, 196.3157
5394.360, 199.5557
5396.289, 201.3588
5398.217, 200.4171
5400.146, 197.2280
5402.074, 199.2707
5404.002, 198.3089
5405.931, 196.6251
5407.859, 200.5591
5409.788, 195.9341
5411.716, 193.8982
5413.645, 197.1234
5415.573, 197.4258
5417.501, 198.6492
5419.430, 199.2902
5421.358, 197.7099
5423.287, 198.8162
5425.215, 199.0570
5427.144, 196.9223
5429.072, 190.2741
5431.001, 194.5914
5432.929, 197.5202
5434.858, 194.3737
5436.786, 198.7886
5438.715, 202.5968
5440.643, 202.3755
5442.572, 202.9767
5444.500, 196.7327
5446.429, 199.3331
5448.357, 200.5026
5450.286, 197.5187
5452.214, 200.0945
5454.143, 201.0588
5456.071, 197.6513
5458.000, 200.5225
5459.928, 200.6281
5461.856, 198.2568
5463.785, 195.1266
5465.713, 196.6071
5467.642, 197.3537
5469.570, 197.5355
5471.499, 197.5548
5473.427, 197.1179
5475.355, 196.6956
5477.284, 195.7842
5479.212, 195.7359
5481.141, 195.5434
5483.069, 197.2826
5484.998, 197.8625
5486.926, 198.4301
5488.855, 200.0113
5490.783, 200.3652
5492.712, 199.7161
5494.640, 197.8950
5496.569, 198.7200
5498.497, 195.5015
5500.426, 197.1736
5502.354, 194.1079
5504.283, 193.2669
5506.211, 197.7417
5508.140, 196.7350
5510.068, 195.3891
5511.997, 195.0193
5513.925, 195.9919
5515.854, 196.9492
5517.782, 195.0601
5519.710, 191.7791
5521.639, 190.1478
5523.567, 190.7702
5525.496, 191.2421
5527.424, 193.4190
5529.353, 194.7683
5531.281, 196.3630
5533.209, 196.5438
5535.138, 195.2922
5537.066, 195.7766
5538.995, 193.6113
5540.923, 193.4182
5542.852, 193.7760
5544.780, 195.4273
5546.709, 193.9668
5548.637, 193.2320
5550.566, 191.3865
5552.494, 190.0252
5554.423, 191.6661
5556.351, 193.4712
5558.280, 190.1367
5560.208, 190.3488
5562.137, 193.9109
5564.065, 197.2827
5565.994, 193.0094
5567.922, 195.4893
5569.851, 197.1739
5571.779, 195.8915
5573.708, 195.4869
5575.636, 195.6545
5577.564, 195.6557
5579.493, 195.0236
5581.421, 193.5391
5583.350, 190.4179
5585.278, 188.8491
5587.207, 190.2923
5589.135, 190.7182
5591.063, 191.3594
5592.992, 190.9352
5594.920, 188.8278
5596.849, 190.0545
5598.777, 189.9594
5600.706, 189.5693
5602.634, 190.3167
5604.563, 188.7848
5606.491, 190.2739
5608.420, 191.7753
5610.348, 189.2748
5612.277, 188.7575
5614.205, 190.5683
5616.134, 192.2239
5618.062, 190.6952
5619.991, 189.0139
5621.919, 190.3803
5623.848, 192.3127
5625.776, 190.9333
5627.705, 191.1392
5629.633, 189.9309
5631.562, 189.2241
5633.490, 186.3901
5635.418, 185.6751
5637.347, 183.7030
5639.275, 185.6609
5641.204, 184.3366
5643.132, 187.4705
5645.061, 191.3899
5646.989, 193.4821
5648.917, 191.6951
5650.846, 185.8803
5652.774, 186.6817
5654.703, 190.3669
5656.631, 187.6320
5658.560, 188.6022
5660.488, 186.1750
5662.417, 184.6843
5664.345, 192.6604
5666.274, 190.2914
5668.202, 189.1612
5670.131, 190.0148
5672.059, 188.8032
5673.988, 186.8130
5675.916, 185.8362
5677.845, 185.8553
5679.773, 186.2368
5681.702, 189.0077
5683.630, 185.8164
5685.559, 187.9864
5687.487, 182.5545
5689.416, 188.3896
5691.344, 191.4942
5693.272, 189.8334
5695.201, 184.0405
5697.129, 182.3902
5699.058, 185.5849
5700.986, 188.5759
5702.915, 187.6809
5704.843, 189.8723
5706.771, 187.5676
5708.700, 189.6914
5710.628, 188.4363
5712.557, 185.3002
5714.485, 184.3516
5716.414, 186.4289
5718.342, 189.1701
5720.271, 184.1475
5722.199, 185.8800
5724.128, 185.5635
5726.056, 182.4669
5727.985, 187.0208
5729.913, 187.9499
5731.842, 185.5636
5733.770, 183.5838
5735.699, 183.7299
5737.627, 186.2036
5739.556, 182.9912
5741.484, 181.3711
5743.413, 181.4141
5745.341, 185.9036
5747.270, 185.5766
5749.198, 183.5382
5751.126, 184.2988
5753.055, 181.1032
5754.983, 181.2527
5756.912, 182.3610
5758.840, 179.8076
5760.769, 184.7230
5762.697, 183.3242
5764.625, 182.5791
5766.554, 184.9734
5768.482, 184.0256
5770.411, 184.9614
5772.339, 184.2931
5774.268, 182.5546
5776.196, 183.1978
5778.125, 180.4651
5780.053, 182.1872
5781.982, 182.7982
5783.910, 183.0721
5785.839, 181.0562
5787.767, 183.9556
5789.696, 182.8552
5791.624, 180.0111
5793.553, 180.2583
5795.481, 179.1532
5797.410, 178.2803
5799.338, 177.8774
5801.267, 177.5696
5803.195, 177.1268
5805.124, 177.3285
5807.052, 178.3268
5808.980, 181.7300
5810.909, 180.7527
5812.837, 182.5159
5814.766, 183.2359
5816.694, 180.1209
5818.623, 176.2254
5820.551, 177.9647
5822.479, 179.6696
5824.408, 179.9505
5826.336, 182.3603
5828.265, 176.3158
5830.193, 177.0233
5832.122, 179.6104
5834.050, 175.5247
5835.979, 177.5982
5837.907, 176.2034
5839.836, 177.5549
5841.764, 182.9811
5843.693, 182.9776
5845.621, 181.4700
5847.550, 180.0531
5849.478, 178.2256
5851.407, 175.0531
5853.335, 173.8808
5855.264, 173.6690
5857.192, 176.8602
5859.121, 175.3888
5861.049, 176.9191
5862.978, 175.4432
5864.906, 175.8019
5866.834, 176.2002
5868.763, 176.0453
5870.691, 178.1261
5872.620, 177.4917
5874.548, 175.2948
5876.477, 173.7858
5878.405, 175.2175
5880.333, 176.9426
5882.262, 175.3231
5884.190, 173.3221
5886.119, 177.4671
5888.047, 177.0872
5889.976, 174.3613
5891.904, 174.3362
5893.833, 177.3557
5895.761, 171.5996
5897.690, 175.6278
5899.618, 172.7173
5901.547, 178.1139
5903.475, 181.0646
5905.404, 181.7008
5907.332, 173.0903
5909.261, 176.4199
5911.189, 174.9645
5913.118, 173.3128
5915.046, 178.3231
5916.975, 171.0574
5918.903, 175.9621
5920.832, 176.0085
5922.760, 178.2784
5924.688, 175.7337
5926.617, 174.6759
5928.545, 178.4345
5930.474, 179.5262
5932.402, 176.4273
5934.331, 178.8385
5936.259, 171.4047
5938.188, 172.6100
5940.116, 177.5428
5942.044, 174.6859
5943.973, 177.1851
5945.901, 177.6445
5947.830, 168.8331
5949.758, 176.1444
5951.687, 176.4831
5953.615, 169.6627
5955.544, 176.4215
5957.472, 170.5881
5959.401, 169.2493
5961.329, 171.2931
5963.258, 169.8106
5965.186, 173.8876
5967.115, 172.6088
5969.043, 170.8515
5970.972, 171.1824
5972.900, 165.5959
5974.829, 170.9875
5976.757, 168.8802
5978.686, 170.5003
5980.614, 172.9654
5982.542, 168.9611
5984.471, 171.8058
5986.399, 164.0293
5988.328, 165.1399
5990.256, 165.2936
5992.185, 171.1277
5994.113, 163.4030
5996.042, 164.2667
5997.970, 168.7873
5999.898, 168.1912
6001.827, 169.7343
6003.755, 164.9441
6005.684, 166.1036
6007.612, 165.6232
6009.541, 170.8097
6011.469, 171.5224
6013.398, 166.8396
6015.326, 162.1797
6017.255, 167.7741
6019.183, 163.6494
6021.112, 164.7680
6023.040, 160.4714
6024.969, 160.8503
6026.897, 161.1553
6028.826, 163.8570
6030.754, 159.2908
6032.683, 164.1523
6034.611, 163.5649
6036.540, 164.5825
6038.468, 165.4216
6040.396, 166.1138
6042.325, 164.8299
6044.253, 164.5305
6046.182, 164.6083
6048.110, 164.0441
6050.039, 162.7822
6051.967, 165.2694
6053.896, 162.6902
6055.824, 160.6985
6057.752, 162.1372
6059.681, 161.2492
6061.609, 161.5364
6063.538, 162.8399
6065.466, 162.2215
6067.395, 163.2394
6069.323, 163.2829
6071.252, 161.0921
6073.180, 162.5933
6075.109, 162.3215
6077.037, 167.3198
6078.966, 163.0434
6080.894, 165.7471
6082.823, 165.2946
6084.751, 162.3792
6086.680, 162.6323
6088.608, 160.7887
6090.537, 160.4698
6092.465, 159.7880
6094.394, 159.9969
6096.322, 163.2948
6098.250, 162.8082
6100.179, 161.8125
6102.107, 154.8827
6104.036, 158.3199
6105.964, 158.5508
6107.893, 157.6852
6109.821, 159.4002
6111.750, 160.9166
6113.678, 160.9143
6115.606, 160.3557
6117.535, 159.5158
6119.463, 158.2374
6121.392, 159.2219
6123.320, 158.0574
6125.249, 158.2705
6127.177, 158.7381
6129.106, 156.9106
6131.034, 154.7893
6132.963, 156.1290
6134.891, 154.2216
6136.820, 153.7957
6138.748, 154.1655
6140.677, 153.7605
6142.605, 154.7091
6144.534, 154.1189
6146.462, 154.9632
6148.391, 154.2955
6150.319, 150.3661
6152.248, 155.9790
6154.176, 161.3756
6156.104, 157.2867
6158.033, 150.9960
6159.961, 152.7571
6161.890, 154.3269
6163.818, 151.3548
6165.747, 151.2782
6167.675, 153.1489
6169.604, 154.1999
6171.532, 153.8946
6173.460, 153.3273
6175.389, 153.5788
6177.317, 153.0803
6179.246, 152.1224
6181.174, 152.3274
6183.103, 154.6306
6185.031, 149.0924
6186.960, 150.4338
6188.888, 153.2270
6190.817, 151.4442
6192.745, 152.2726
6194.674, 156.9002
6196.602, 153.3760
6198.531, 151.7005
6200.459, 152.9007
6202.388, 150.5965
6204.316, 152.8408
6206.245, 151.7405
6208.173, 150.5753
6210.102, 148.2185
6212.030, 145.3528
6213.958, 148.1242
6215.887, 152.6257
6217.815, 151.6353
6219.744, 151.5143
6221.672, 152.3280
6223.601, 150.7005
6225.529, 146.6047
6227.458, 150.0699
6229.386, 149.0002
6231.314, 149.1490
6233.243, 151.2327
6235.171, 148.6765
6237.100, 151.6773
6239.028, 150.3194
6240.957, 149.2270
6242.885, 145.8165
6244.814, 146.3192
6246.742, 143.4488
6248.671, 146.3058
6250.599, 146.3171
6252.528, 146.5648
6254.456, 148.1705
6256.385, 149.6306
6258.313, 147.8109
6260.242, 147.7632
6262.170, 145.3902
6264.099, 142.2934
6266.027, 143.3678
6267.956, 142.0188
6269.884, 144.7786
6271.813, 143.0049
6273.741, 147.1225
6275.669, 149.3124
6277.598, 146.6934
6279.526, 143.1884
6281.455, 145.6626
6283.383, 145.5163
6285.312, 142.4566
6287.240, 141.6518
6289.168, 144.4533
6291.097, 146.9852
6293.025, 138.1758
6294.954, 143.5642
6296.882, 143.2966
6298.811, 143.7245
6300.739, 146.5714
6302.668, 144.1244
6304.596, 149.0911
6306.525, 145.6372
6308.453, 142.4542
6310.382, 138.3237
6312.310, 136.4714
6314.239, 143.4027
6316.167, 142.4318
6318.096, 143.4766
6320.024, 140.7342
6321.953, 140.2321
6323.881, 141.8591
6325.810, 140.5302
6327.738, 139.9334
6329.667, 139.9469
6331.595, 142.0448
6333.523, 143.0058
6335.452, 139.9709
6337.380, 136.1967
6339.309, 144.7159
6341.237, 138.7029
6343.166, 142.1642
6345.094, 142.9838
6347.022, 142.2902
6348.951, 143.6796
6350.879, 136.3538
6352.808, 137.6445
6354.736, 136.0494
6356.665, 136.3996
6358.593, 137.5942
6360.522, 137.8756
6362.450, 139.0869
6364.379, 140.2082
6366.307, 138.9750
6368.236, 138.1407
6370.164, 136.7481
6372.093, 134.8455
6374.021, 134.0005
6375.950, 134.5954
6377.878, 133.0947
6379.807, 135.1884
6381.735, 132.8013
6383.664, 135.5165
6385.592, 138.0199
6387.521, 141.1062
6389.449, 141.3110
6391.377, 138.3417
6393.306, 134.7005
6395.234, 134.4760
6397.163, 136.3503
6399.091, 136.4645
6401.020, 139.1545
6402.948, 135.6000
6404.876, 137.3683
6406.805, 139.3622
6408.733, 136.7636
6410.662, 132.7211
6412.590, 136.6893
6414.519, 132.4822
6416.447, 131.7721
6418.376, 134.6473
6420.304, 140.0112
6422.233, 141.4090
6424.161, 135.7619
6426.090, 137.5721
6428.018, 131.2622
6429.947, 136.7107
6431.875, 132.0673
6433.804, 130.9652
6435.732, 135.1573
6437.661, 130.2444
6439.589, 137.7666
6441.518, 133.8546
6443.446, 139.1322
6445.375, 138.6567
6447.303, 133.5030
6449.231, 130.7731
6451.160, 130.0915
6453.088, 126.1289
6455.017, 126.8552
6456.945, 132.8803
6458.874, 128.5390
6460.802, 131.9339
6462.730, 135.0379
6464.659, 130.2077
6466.587, 131.1898
6468.516, 134.1464
6470.444, 133.3278
6472.373, 129.9472
6474.301, 128.9699
6476.230, 131.7113
6478.158, 133.3545
6480.087, 129.0211
6482.015, 129.2736
6483.944, 126.5362
6485.872, 128.7337
6487.801, 132.6237
6489.729, 132.4312
6491.658, 128.5247
6493.586, 130.5312
6495.515, 122.4471
6497.443, 128.3757
6499.372, 130.6218
6501.300, 127.0845
6503.229, 124.4330
6505.157, 127.9805
6507.085, 126.8279
6509.014, 125.7771
6510.942, 129.6348
6512.871, 126.2995
6514.799, 125.8182
6516.728, 129.9085
6518.656, 130.3201
6520.584, 126.4360
6522.513, 121.2832
6524.441, 127.7601
6526.370, 123.8338
6528.298, 122.4147
6530.227, 123.0427
6532.155, 122.3930
6534.084, 127.3203
6536.012, 124.2246
6537.941, 123.0119
6539.869, 128.8895
6541.798, 125.2510
6543.726, 120.9027
6545.655, 122.0385
6547.583, 123.5857
6549.512, 122.3577
6551.440, 121.0279
6553.369, 121.9706
6555.297, 123.5926
6557.226, 122.9926
6559.154, 122.0511
6561.083, 124.5969
6563.011, 121.3784
6564.939, 122.6200
6566.868, 118.7024
6568.796, 117.1389
6570.725, 120.1140
6572.653, 122.9445
6574.582, 124.3476
6576.510, 125.7331
6578.438, 126.0333
6580.367, 119.7823
6582.295, 120.6767
6584.224, 117.8552
6586.152, 117.7532
6588.081, 116.6671
6590.009, 118.1494
6591.938, 122.0059
6593.866, 118.8037
6595.795, 122.2952
6597.723, 118.9527
6599.652, 121.2697
6601.580, 119.8071
6603.509, 116.0221
6605.437, 115.5857
6607.366, 118.4205
6609.294, 119.1730
6611.223, 117.1367
6613.151, 116.5132
6615.080, 116.4258
6617.008, 119.3952
6618.937, 120.8514
6620.865, 119.4149
6622.793, 116.9826
6624.722, 115.9427
6626.650, 118.6573
6628.579, 119.7556
6630.507, 122.5991
##END=



