##NAMES=Opal
##RRUFFID=R060651
##IDEAL CHEMISTRY=SiO_2_·<i>n</i>H_2_O
##LOCALITY=Mexico
##OWNER=RRUFF
##SOURCE=Gemological Institute of America
##DESCRIPTION=Orange-brown glassy fragment, variety is opal-CT, based on its X-ray diffraction pattern
##STATUS=The identification of this mineral has been confirmed by X-ray diffraction and chemical analysis
##URL=https://www.rruff.net/odr/rruff_sample/R060651
##MEASURED CHEMISTRY=Si_1.00_O_2_ · 0.31H_2_O
##DIFFRACTION SAMPLE DESCRIPTION=Powder
##FILETYPE=Raman RAW
##RAMAN WAVELENGTH=780

7.687793e+001, 5.434838e+002
7.880640e+001, 4.883457e+002
8.073486e+001, 4.677102e+002
8.266333e+001, 4.868729e+002
8.459180e+001, 5.361111e+002
8.652026e+001, 6.021940e+002
8.844873e+001, 6.837636e+002
9.037720e+001, 7.854758e+002
9.230566e+001, 9.158102e+002
9.423413e+001, 1.002340e+003
9.616260e+001, 1.059411e+003
9.809106e+001, 1.116938e+003
1.000195e+002, 1.163818e+003
1.019480e+002, 1.204026e+003
1.038765e+002, 1.233164e+003
1.058049e+002, 1.249903e+003
1.077334e+002, 1.259962e+003
1.096619e+002, 1.262680e+003
1.115903e+002, 1.260034e+003
1.135188e+002, 1.253668e+003
1.154473e+002, 1.243145e+003
1.173757e+002, 1.232377e+003
1.193042e+002, 1.220091e+003
1.212327e+002, 1.208230e+003
1.231611e+002, 1.196993e+003
1.250896e+002, 1.185716e+003
1.270181e+002, 1.172975e+003
1.289465e+002, 1.158530e+003
1.308750e+002, 1.146442e+003
1.328035e+002, 1.137287e+003
1.347319e+002, 1.129811e+003
1.366604e+002, 1.124194e+003
1.385889e+002, 1.119735e+003
1.405173e+002, 1.115855e+003
1.424458e+002, 1.112489e+003
1.443743e+002, 1.108933e+003
1.463027e+002, 1.104778e+003
1.482312e+002, 1.100862e+003
1.501597e+002, 1.097043e+003
1.520881e+002, 1.093740e+003
1.540166e+002, 1.091542e+003
1.559451e+002, 1.090276e+003
1.578735e+002, 1.088355e+003
1.598020e+002, 1.084717e+003
1.617305e+002, 1.082010e+003
1.636589e+002, 1.081177e+003
1.655874e+002, 1.080671e+003
1.675159e+002, 1.079269e+003
1.694443e+002, 1.077400e+003
1.713728e+002, 1.076684e+003
1.733013e+002, 1.078199e+003
1.752297e+002, 1.078821e+003
1.771582e+002, 1.077730e+003
1.790867e+002, 1.076654e+003
1.810151e+002, 1.076448e+003
1.829436e+002, 1.076814e+003
1.848721e+002, 1.077326e+003
1.868005e+002, 1.077986e+003
1.887290e+002, 1.078894e+003
1.906575e+002, 1.080159e+003
1.925859e+002, 1.081514e+003
1.945144e+002, 1.082719e+003
1.964429e+002, 1.084070e+003
1.983713e+002, 1.085784e+003
2.002998e+002, 1.087846e+003
2.022283e+002, 1.090499e+003
2.041567e+002, 1.093918e+003
2.060852e+002, 1.097175e+003
2.080137e+002, 1.099430e+003
2.099421e+002, 1.102116e+003
2.118706e+002, 1.106703e+003
2.137991e+002, 1.112507e+003
2.157275e+002, 1.116513e+003
2.176560e+002, 1.118286e+003
2.195845e+002, 1.121700e+003
2.215129e+002, 1.127792e+003
2.234414e+002, 1.134860e+003
2.253699e+002, 1.142865e+003
2.272983e+002, 1.150850e+003
2.292268e+002, 1.157261e+003
2.311553e+002, 1.162061e+003
2.330837e+002, 1.167225e+003
2.350122e+002, 1.172567e+003
2.369407e+002, 1.178821e+003
2.388691e+002, 1.186822e+003
2.407976e+002, 1.195232e+003
2.427261e+002, 1.203174e+003
2.446545e+002, 1.210887e+003
2.465830e+002, 1.219059e+003
2.485115e+002, 1.227683e+003
2.504399e+002, 1.236942e+003
2.523684e+002, 1.246894e+003
2.542969e+002, 1.257610e+003
2.562253e+002, 1.269059e+003
2.581538e+002, 1.281269e+003
2.600823e+002, 1.294633e+003
2.620107e+002, 1.308864e+003
2.639392e+002, 1.322383e+003
2.658677e+002, 1.334567e+003
2.677961e+002, 1.348070e+003
2.697246e+002, 1.364268e+003
2.716531e+002, 1.381025e+003
2.735815e+002, 1.397005e+003
2.755100e+002, 1.413063e+003
2.774385e+002, 1.430906e+003
2.793669e+002, 1.450389e+003
2.812954e+002, 1.469422e+003
2.832239e+002, 1.487258e+003
2.851523e+002, 1.505740e+003
2.870808e+002, 1.526161e+003
2.890093e+002, 1.546353e+003
2.909377e+002, 1.564561e+003
2.928662e+002, 1.581471e+003
2.947947e+002, 1.598768e+003
2.967231e+002, 1.616636e+003
2.986516e+002, 1.632762e+003
3.005801e+002, 1.646276e+003
3.025085e+002, 1.658746e+003
3.044370e+002, 1.671132e+003
3.063655e+002, 1.682034e+003
3.082939e+002, 1.690181e+003
3.102224e+002, 1.695935e+003
3.121509e+002, 1.699388e+003
3.140793e+002, 1.699787e+003
3.160078e+002, 1.700702e+003
3.179363e+002, 1.703668e+003
3.198647e+002, 1.705277e+003
3.217932e+002, 1.704636e+003
3.237217e+002, 1.702254e+003
3.256501e+002, 1.698051e+003
3.275786e+002, 1.692643e+003
3.295071e+002, 1.687894e+003
3.314355e+002, 1.684470e+003
3.333640e+002, 1.680184e+003
3.352925e+002, 1.674742e+003
3.372209e+002, 1.668918e+003
3.391494e+002, 1.663156e+003
3.410779e+002, 1.656700e+003
3.430063e+002, 1.649072e+003
3.449348e+002, 1.640300e+003
3.468633e+002, 1.630723e+003
3.487917e+002, 1.620588e+003
3.507202e+002, 1.608480e+003
3.526487e+002, 1.593682e+003
3.545771e+002, 1.578555e+003
3.565056e+002, 1.564630e+003
3.584341e+002, 1.549740e+003
3.603625e+002, 1.532066e+003
3.622910e+002, 1.512613e+003
3.642195e+002, 1.493892e+003
3.661479e+002, 1.476174e+003
3.680764e+002, 1.457432e+003
3.700049e+002, 1.437478e+003
3.719333e+002, 1.416928e+003
3.738618e+002, 1.395799e+003
3.757903e+002, 1.374096e+003
3.777188e+002, 1.351437e+003
3.796472e+002, 1.328452e+003
3.815757e+002, 1.306071e+003
3.835042e+002, 1.284327e+003
3.854326e+002, 1.263516e+003
3.873611e+002, 1.243842e+003
3.892896e+002, 1.224131e+003
3.912180e+002, 1.203599e+003
3.931465e+002, 1.184090e+003
3.950750e+002, 1.166574e+003
3.970034e+002, 1.150241e+003
3.989319e+002, 1.134242e+003
4.008604e+002, 1.118745e+003
4.027888e+002, 1.104656e+003
4.047173e+002, 1.091924e+003
4.066458e+002, 1.079413e+003
4.085742e+002, 1.066810e+003
4.105027e+002, 1.054649e+003
4.124312e+002, 1.043784e+003
4.143596e+002, 1.032610e+003
4.162881e+002, 1.020082e+003
4.182166e+002, 1.006726e+003
4.201450e+002, 9.936218e+002
4.220735e+002, 9.806165e+002
4.240020e+002, 9.663730e+002
4.259304e+002, 9.506581e+002
4.278589e+002, 9.349879e+002
4.297874e+002, 9.194955e+002
4.317158e+002, 9.044299e+002
4.336443e+002, 8.902679e+002
4.355728e+002, 8.761801e+002
4.375012e+002, 8.616522e+002
4.394297e+002, 8.465923e+002
4.413582e+002, 8.306081e+002
4.432866e+002, 8.137841e+002
4.452151e+002, 7.972795e+002
4.471436e+002, 7.811592e+002
4.490720e+002, 7.655957e+002
4.510005e+002, 7.510422e+002
4.529290e+002, 7.364572e+002
4.548574e+002, 7.216673e+002
4.567859e+002, 7.064874e+002
4.587144e+002, 6.902727e+002
4.606428e+002, 6.736461e+002
4.625713e+002, 6.579108e+002
4.644998e+002, 6.430952e+002
4.664282e+002, 6.290616e+002
4.683567e+002, 6.159206e+002
4.702852e+002, 6.034967e+002
4.722136e+002, 5.914639e+002
4.741421e+002, 5.804844e+002
4.760706e+002, 5.710256e+002
4.779990e+002, 5.625640e+002
4.799275e+002, 5.545192e+002
4.818560e+002, 5.471046e+002
4.837844e+002, 5.414059e+002
4.857129e+002, 5.377186e+002
4.876414e+002, 5.318387e+002
4.895698e+002, 5.227230e+002
4.914983e+002, 5.127166e+002
4.934268e+002, 5.021441e+002
4.953552e+002, 4.903537e+002
4.972837e+002, 4.759580e+002
4.992122e+002, 4.615124e+002
5.011406e+002, 4.486712e+002
5.030691e+002, 4.371991e+002
5.049976e+002, 4.268183e+002
5.069260e+002, 4.175362e+002
5.088545e+002, 4.089090e+002
5.107830e+002, 4.009248e+002
5.127114e+002, 3.936099e+002
5.146399e+002, 3.869079e+002
5.165684e+002, 3.809519e+002
5.184968e+002, 3.759565e+002
5.204253e+002, 3.714890e+002
5.223538e+002, 3.675240e+002
5.242822e+002, 3.637600e+002
5.262107e+002, 3.599522e+002
5.281392e+002, 3.560919e+002
5.300676e+002, 3.519608e+002
5.319961e+002, 3.474567e+002
5.339246e+002, 3.437699e+002
5.358530e+002, 3.411450e+002
5.377815e+002, 3.383770e+002
5.397100e+002, 3.351535e+002
5.416384e+002, 3.319168e+002
5.435669e+002, 3.286129e+002
5.454954e+002, 3.256205e+002
5.474238e+002, 3.235254e+002
5.493523e+002, 3.216602e+002
5.512808e+002, 3.188009e+002
5.532092e+002, 3.152126e+002
5.551377e+002, 3.126176e+002
5.570662e+002, 3.110165e+002
5.589946e+002, 3.088329e+002
5.609231e+002, 3.058090e+002
5.628516e+002, 3.028067e+002
5.647800e+002, 2.999237e+002
5.667085e+002, 2.973111e+002
5.686370e+002, 2.951301e+002
5.705654e+002, 2.930773e+002
5.724939e+002, 2.911302e+002
5.744224e+002, 2.890616e+002
5.763508e+002, 2.862423e+002
5.782793e+002, 2.830318e+002
5.802078e+002, 2.808887e+002
5.821362e+002, 2.797247e+002
5.840647e+002, 2.782391e+002
5.859932e+002, 2.762874e+002
5.879216e+002, 2.741486e+002
5.898501e+002, 2.716240e+002
5.917786e+002, 2.693820e+002
5.937070e+002, 2.677434e+002
5.956355e+002, 2.662492e+002
5.975640e+002, 2.646820e+002
5.994924e+002, 2.631234e+002
6.014209e+002, 2.617603e+002
6.033494e+002, 2.604289e+002
6.052778e+002, 2.586551e+002
6.072063e+002, 2.565940e+002
6.091348e+002, 2.550888e+002
6.110632e+002, 2.542357e+002
6.129917e+002, 2.534364e+002
6.149202e+002, 2.526867e+002
6.168486e+002, 2.518370e+002
6.187771e+002, 2.508689e+002
6.207056e+002, 2.497998e+002
6.226340e+002, 2.483721e+002
6.245625e+002, 2.471508e+002
6.264910e+002, 2.467049e+002
6.284194e+002, 2.464953e+002
6.303479e+002, 2.460316e+002
6.322764e+002, 2.453159e+002
6.342048e+002, 2.441958e+002
6.361333e+002, 2.427361e+002
6.380618e+002, 2.417949e+002
6.399902e+002, 2.415918e+002
6.419187e+002, 2.412085e+002
6.438472e+002, 2.402905e+002
6.457756e+002, 2.397960e+002
6.477041e+002, 2.404072e+002
6.496326e+002, 2.404663e+002
6.515610e+002, 2.388894e+002
6.534895e+002, 2.374159e+002
6.554180e+002, 2.372102e+002
6.573464e+002, 2.373987e+002
6.592749e+002, 2.372634e+002
6.612034e+002, 2.369910e+002
6.631318e+002, 2.368862e+002
6.650603e+002, 2.369358e+002
6.669888e+002, 2.370779e+002
6.689172e+002, 2.373408e+002
6.708457e+002, 2.374694e+002
6.727742e+002, 2.375802e+002
6.747026e+002, 2.370059e+002
6.766311e+002, 2.353624e+002
6.785596e+002, 2.340051e+002
6.804880e+002, 2.331885e+002
6.824165e+002, 2.328373e+002
6.843450e+002, 2.333200e+002
6.862734e+002, 2.337120e+002
6.882019e+002, 2.334953e+002
6.901304e+002, 2.329840e+002
6.920588e+002, 2.322144e+002
6.939873e+002, 2.314980e+002
6.959158e+002, 2.315146e+002
6.978442e+002, 2.320350e+002
6.997727e+002, 2.321131e+002
7.017012e+002, 2.317576e+002
7.036296e+002, 2.316826e+002
7.055581e+002, 2.319177e+002
7.074866e+002, 2.317427e+002
7.094150e+002, 2.309154e+002
7.113435e+002, 2.307063e+002
7.132720e+002, 2.318405e+002
7.152004e+002, 2.324356e+002
7.171289e+002, 2.313678e+002
7.190574e+002, 2.304102e+002
7.209858e+002, 2.302204e+002
7.229143e+002, 2.303574e+002
7.248428e+002, 2.307781e+002
7.267712e+002, 2.311735e+002
7.286997e+002, 2.310948e+002
7.306282e+002, 2.308492e+002
7.325566e+002, 2.309197e+002
7.344851e+002, 2.312717e+002
7.364136e+002, 2.317696e+002
7.383420e+002, 2.324177e+002
7.402705e+002, 2.332585e+002
7.421990e+002, 2.342839e+002
7.441274e+002, 2.356334e+002
7.460559e+002, 2.373554e+002
7.479844e+002, 2.391757e+002
7.499128e+002, 2.409963e+002
7.518413e+002, 2.430691e+002
7.537698e+002, 2.453535e+002
7.556982e+002, 2.480459e+002
7.576267e+002, 2.510591e+002
7.595552e+002, 2.547175e+002
7.614836e+002, 2.591141e+002
7.634121e+002, 2.642784e+002
7.653406e+002, 2.698455e+002
7.672690e+002, 2.765609e+002
7.691975e+002, 2.850185e+002
7.711260e+002, 2.952439e+002
7.730544e+002, 3.080199e+002
7.749829e+002, 3.221363e+002
7.769114e+002, 3.355960e+002
7.788398e+002, 3.479992e+002
7.807683e+002, 3.576939e+002
7.826968e+002, 3.646727e+002
7.846252e+002, 3.677530e+002
7.865537e+002, 3.664249e+002
7.884822e+002, 3.630419e+002
7.904106e+002, 3.572978e+002
7.923391e+002, 3.500893e+002
7.942676e+002, 3.404674e+002
7.961960e+002, 3.313858e+002
7.981245e+002, 3.232143e+002
8.000530e+002, 3.156165e+002
8.019814e+002, 3.085015e+002
8.039099e+002, 3.019696e+002
8.058384e+002, 2.959826e+002
8.077668e+002, 2.906974e+002
8.096953e+002, 2.865309e+002
8.116238e+002, 2.826837e+002
8.135522e+002, 2.783735e+002
8.154807e+002, 2.742961e+002
8.174092e+002, 2.712949e+002
8.193376e+002, 2.688082e+002
8.212661e+002, 2.661248e+002
8.231946e+002, 2.633005e+002
8.251230e+002, 2.603548e+002
8.270515e+002, 2.573900e+002
8.289800e+002, 2.548221e+002
8.309084e+002, 2.526281e+002
8.328369e+002, 2.505699e+002
8.347654e+002, 2.486654e+002
8.366938e+002, 2.463986e+002
8.386223e+002, 2.437463e+002
8.405508e+002, 2.411987e+002
8.424792e+002, 2.387497e+002
8.444077e+002, 2.367380e+002
8.463362e+002, 2.352728e+002
8.482646e+002, 2.337708e+002
8.501931e+002, 2.320895e+002
8.521216e+002, 2.304647e+002
8.540500e+002, 2.290026e+002
8.559785e+002, 2.274893e+002
8.579070e+002, 2.255100e+002
8.598354e+002, 2.241100e+002
8.617639e+002, 2.241499e+002
8.636924e+002, 2.240878e+002
8.656208e+002, 2.233125e+002
8.675493e+002, 2.222249e+002
8.694778e+002, 2.207699e+002
8.714063e+002, 2.194044e+002
8.733347e+002, 2.185312e+002
8.752632e+002, 2.178265e+002
8.771917e+002, 2.171704e+002
8.791201e+002, 2.163399e+002
8.810486e+002, 2.148171e+002
8.829771e+002, 2.131554e+002
8.849055e+002, 2.124892e+002
8.868340e+002, 2.120906e+002
8.887625e+002, 2.103566e+002
8.906909e+002, 2.079621e+002
8.926194e+002, 2.063003e+002
8.945479e+002, 2.052337e+002
8.964763e+002, 2.045559e+002
8.984048e+002, 2.040690e+002
9.003333e+002, 2.027808e+002
9.022617e+002, 2.008021e+002
9.041902e+002, 1.993130e+002
9.061187e+002, 1.983567e+002
9.080471e+002, 1.975619e+002
9.099756e+002, 1.969494e+002
9.119041e+002, 1.961069e+002
9.138325e+002, 1.949505e+002
9.157610e+002, 1.937951e+002
9.176895e+002, 1.925827e+002
9.196179e+002, 1.915195e+002
9.215464e+002, 1.904704e+002
9.234749e+002, 1.898675e+002
9.254033e+002, 1.901362e+002
9.273318e+002, 1.900172e+002
9.292603e+002, 1.892316e+002
9.311887e+002, 1.885131e+002
9.331172e+002, 1.879258e+002
9.350457e+002, 1.874699e+002
9.369741e+002, 1.871098e+002
9.389026e+002, 1.869400e+002
9.408311e+002, 1.869377e+002
9.427595e+002, 1.872442e+002
9.446880e+002, 1.880973e+002
9.466165e+002, 1.888339e+002
9.485449e+002, 1.890718e+002
9.504734e+002, 1.894576e+002
9.524019e+002, 1.903259e+002
9.543303e+002, 1.912818e+002
9.562588e+002, 1.921323e+002
9.581873e+002, 1.930487e+002
9.601157e+002, 1.944154e+002
9.620442e+002, 1.954000e+002
9.639727e+002, 1.950322e+002
9.659011e+002, 1.948616e+002
9.678296e+002, 1.960449e+002
9.697581e+002, 1.972800e+002
9.716865e+002, 1.981608e+002
9.736150e+002, 1.983048e+002
9.755435e+002, 1.974276e+002
9.774719e+002, 1.957271e+002
9.794004e+002, 1.929954e+002
9.813289e+002, 1.899413e+002
9.832573e+002, 1.871587e+002
9.851858e+002, 1.843412e+002
9.871143e+002, 1.811114e+002
9.890427e+002, 1.778102e+002
9.909712e+002, 1.746917e+002
9.928997e+002, 1.717444e+002
9.948281e+002, 1.687572e+002
9.967566e+002, 1.661423e+002
9.986851e+002, 1.645825e+002
1.000614e+003, 1.634319e+002
1.002542e+003, 1.618616e+002
1.004470e+003, 1.603366e+002
1.006399e+003, 1.594906e+002
1.008327e+003, 1.589698e+002
1.010256e+003, 1.584188e+002
1.012184e+003, 1.578394e+002
1.014113e+003, 1.568328e+002
1.016041e+003, 1.561687e+002
1.017970e+003, 1.576684e+002
1.019898e+003, 1.594323e+002
1.021827e+003, 1.584207e+002
1.023755e+003, 1.565207e+002
1.025684e+003, 1.562049e+002
1.027612e+003, 1.566507e+002
1.029541e+003, 1.568157e+002
1.031469e+003, 1.569777e+002
1.033397e+003, 1.575305e+002
1.035326e+003, 1.582801e+002
1.037254e+003, 1.591468e+002
1.039183e+003, 1.598932e+002
1.041111e+003, 1.600125e+002
1.043040e+003, 1.600177e+002
1.044968e+003, 1.604318e+002
1.046897e+003, 1.612471e+002
1.048825e+003, 1.628586e+002
1.050754e+003, 1.644913e+002
1.052682e+003, 1.648327e+002
1.054611e+003, 1.649724e+002
1.056539e+003, 1.663027e+002
1.058468e+003, 1.681055e+002
1.060396e+003, 1.694527e+002
1.062324e+003, 1.708839e+002
1.064253e+003, 1.733078e+002
1.066181e+003, 1.758468e+002
1.068110e+003, 1.773435e+002
1.070038e+003, 1.786691e+002
1.071967e+003, 1.810735e+002
1.073895e+003, 1.833750e+002
1.075824e+003, 1.844801e+002
1.077752e+003, 1.848491e+002
1.079681e+003, 1.850287e+002
1.081609e+003, 1.845138e+002
1.083538e+003, 1.824626e+002
1.085466e+003, 1.800205e+002
1.087395e+003, 1.782273e+002
1.089323e+003, 1.762465e+002
1.091251e+003, 1.733532e+002
1.093180e+003, 1.701820e+002
1.095108e+003, 1.668677e+002
1.097037e+003, 1.638257e+002
1.098965e+003, 1.615236e+002
1.100894e+003, 1.592846e+002
1.102822e+003, 1.566536e+002
1.104751e+003, 1.541179e+002
1.106679e+003, 1.518844e+002
1.108608e+003, 1.498587e+002
1.110536e+003, 1.478034e+002
1.112465e+003, 1.462412e+002
1.114393e+003, 1.457795e+002
1.116322e+003, 1.451605e+002
1.118250e+003, 1.437274e+002
1.120178e+003, 1.425274e+002
1.122107e+003, 1.419433e+002
1.124035e+003, 1.414555e+002
1.125964e+003, 1.409440e+002
1.127892e+003, 1.405212e+002
1.129821e+003, 1.402269e+002
1.131749e+003, 1.400036e+002
1.133678e+003, 1.398873e+002
1.135606e+003, 1.396947e+002
1.137535e+003, 1.393342e+002
1.139463e+003, 1.391169e+002
1.141392e+003, 1.391416e+002
1.143320e+003, 1.390276e+002
1.145249e+003, 1.387018e+002
1.147177e+003, 1.384731e+002
1.149105e+003, 1.383956e+002
1.151034e+003, 1.381333e+002
1.152962e+003, 1.376259e+002
1.154891e+003, 1.378071e+002
1.156819e+003, 1.387081e+002
1.158748e+003, 1.390509e+002
1.160676e+003, 1.388304e+002
1.162605e+003, 1.385858e+002
1.164533e+003, 1.383516e+002
1.166462e+003, 1.383493e+002
1.168390e+003, 1.385134e+002
1.170319e+003, 1.386146e+002
1.172247e+003, 1.385984e+002
1.174176e+003, 1.381809e+002
1.176104e+003, 1.375847e+002
1.178032e+003, 1.372034e+002
1.179961e+003, 1.370506e+002
1.181889e+003, 1.373109e+002
1.183818e+003, 1.376463e+002
1.185746e+003, 1.373598e+002
1.187675e+003, 1.372497e+002
1.189603e+003, 1.386580e+002
1.191532e+003, 1.398307e+002
1.193460e+003, 1.392048e+002
1.195389e+003, 1.383244e+002
1.197317e+003, 1.379814e+002
1.199246e+003, 1.378976e+002
1.201174e+003, 1.379996e+002
1.203103e+003, 1.382016e+002
1.205031e+003, 1.385968e+002
1.206959e+003, 1.387153e+002
1.208888e+003, 1.382785e+002
1.210816e+003, 1.380543e+002
1.212745e+003, 1.382726e+002
1.214673e+003, 1.385461e+002
1.216602e+003, 1.388351e+002
1.218530e+003, 1.389107e+002
1.220459e+003, 1.387187e+002
1.222387e+003, 1.387314e+002
1.224316e+003, 1.389762e+002
1.226244e+003, 1.388671e+002
1.228173e+003, 1.384008e+002
1.230101e+003, 1.378997e+002
1.232030e+003, 1.373618e+002
1.233958e+003, 1.366875e+002
1.235886e+003, 1.359690e+002
1.237815e+003, 1.354848e+002
1.239743e+003, 1.351611e+002
1.241672e+003, 1.350050e+002
1.243600e+003, 1.347667e+002
1.245529e+003, 1.339439e+002
1.247457e+003, 1.330460e+002
1.249386e+003, 1.326740e+002
1.251314e+003, 1.323428e+002
1.253243e+003, 1.316913e+002
1.255171e+003, 1.309618e+002
1.257100e+003, 1.301733e+002
1.259028e+003, 1.295120e+002
1.260957e+003, 1.292388e+002
1.262885e+003, 1.287201e+002
1.264813e+003, 1.275192e+002
1.266742e+003, 1.267391e+002
1.268670e+003, 1.266914e+002
1.270599e+003, 1.263228e+002
1.272527e+003, 1.254961e+002
1.274456e+003, 1.249317e+002
1.276384e+003, 1.246611e+002
1.278313e+003, 1.242798e+002
1.280241e+003, 1.238265e+002
1.282170e+003, 1.235842e+002
1.284098e+003, 1.235439e+002
1.286027e+003, 1.237989e+002
1.287955e+003, 1.241147e+002
1.289884e+003, 1.240022e+002
1.291812e+003, 1.237903e+002
1.293740e+003, 1.238760e+002
1.295669e+003, 1.239520e+002
1.297597e+003, 1.236508e+002
1.299526e+003, 1.235205e+002
1.301454e+003, 1.240769e+002
1.303383e+003, 1.243585e+002
1.305311e+003, 1.238148e+002
1.307240e+003, 1.235076e+002
1.309168e+003, 1.236924e+002
1.311097e+003, 1.241558e+002
1.313025e+003, 1.250081e+002
1.314954e+003, 1.252988e+002
1.316882e+003, 1.249380e+002
1.318811e+003, 1.251554e+002
1.320739e+003, 1.258487e+002
1.322667e+003, 1.262267e+002
1.324596e+003, 1.263434e+002
1.326524e+003, 1.262097e+002
1.328453e+003, 1.260440e+002
1.330381e+003, 1.261651e+002
1.332310e+003, 1.264835e+002
1.334238e+003, 1.271667e+002
1.336167e+003, 1.276301e+002
1.338095e+003, 1.274819e+002
1.340024e+003, 1.270439e+002
1.341952e+003, 1.262256e+002
1.343881e+003, 1.256910e+002
1.345809e+003, 1.256213e+002
1.347738e+003, 1.257760e+002
1.349666e+003, 1.261502e+002
1.351594e+003, 1.256657e+002
1.353523e+003, 1.244357e+002
1.355451e+003, 1.247295e+002
1.357380e+003, 1.260462e+002
1.359308e+003, 1.259837e+002
1.361237e+003, 1.252827e+002
1.363165e+003, 1.255017e+002
1.365094e+003, 1.258128e+002
1.367022e+003, 1.251446e+002
1.368951e+003, 1.242712e+002
1.370879e+003, 1.235762e+002
1.372808e+003, 1.231364e+002
1.374736e+003, 1.230653e+002
1.376665e+003, 1.231043e+002
1.378593e+003, 1.232084e+002
1.380521e+003, 1.234861e+002
1.382450e+003, 1.240395e+002
1.384378e+003, 1.239147e+002
1.386307e+003, 1.231716e+002
1.388235e+003, 1.226447e+002
1.390164e+003, 1.226041e+002
1.392092e+003, 1.247745e+002
1.394021e+003, 1.270165e+002
1.395949e+003, 1.251526e+002
1.397878e+003, 1.231949e+002
1.399806e+003, 1.252912e+002
1.401735e+003, 1.272333e+002
1.403663e+003, 1.268367e+002
1.405592e+003, 1.258372e+002
1.407520e+003, 1.244109e+002
1.409448e+003, 1.232995e+002
1.411377e+003, 1.225653e+002
1.413305e+003, 1.224147e+002
1.415234e+003, 1.228305e+002
1.417162e+003, 1.227968e+002
1.419091e+003, 1.225370e+002
1.421019e+003, 1.227821e+002
1.422948e+003, 1.233807e+002
1.424876e+003, 1.247612e+002
1.426805e+003, 1.254373e+002
1.428733e+003, 1.234854e+002
1.430662e+003, 1.223297e+002
1.432590e+003, 1.238362e+002
1.434519e+003, 1.246941e+002
1.436447e+003, 1.240046e+002
1.438375e+003, 1.233254e+002
1.440304e+003, 1.228378e+002
1.442232e+003, 1.226033e+002
1.444161e+003, 1.225348e+002
1.446089e+003, 1.221277e+002
1.448018e+003, 1.216380e+002
1.449946e+003, 1.216958e+002
1.451875e+003, 1.217732e+002
1.453803e+003, 1.210613e+002
1.455732e+003, 1.206332e+002
1.457660e+003, 1.213315e+002
1.459589e+003, 1.216324e+002
1.461517e+003, 1.211311e+002
1.463446e+003, 1.207239e+002
1.465374e+003, 1.205195e+002
1.467302e+003, 1.206393e+002
1.469231e+003, 1.209395e+002
1.471159e+003, 1.207083e+002
1.473088e+003, 1.202614e+002
1.475016e+003, 1.201369e+002
1.476945e+003, 1.200963e+002
1.478873e+003, 1.200550e+002
1.480802e+003, 1.197936e+002
1.482730e+003, 1.190311e+002
1.484659e+003, 1.183786e+002
1.486587e+003, 1.178543e+002
1.488516e+003, 1.178931e+002
1.490444e+003, 1.184718e+002
1.492373e+003, 1.183752e+002
1.494301e+003, 1.178366e+002
1.496229e+003, 1.176430e+002
1.498158e+003, 1.175610e+002
1.500086e+003, 1.171529e+002
1.502015e+003, 1.169641e+002
1.503943e+003, 1.176533e+002
1.505872e+003, 1.180853e+002
1.507800e+003, 1.177731e+002
1.509729e+003, 1.175290e+002
1.511657e+003, 1.174296e+002
1.513586e+003, 1.171909e+002
1.515514e+003, 1.168709e+002
1.517443e+003, 1.169213e+002
1.519371e+003, 1.170374e+002
1.521300e+003, 1.164545e+002
1.523228e+003, 1.161130e+002
1.525156e+003, 1.168585e+002
1.527085e+003, 1.174514e+002
1.529013e+003, 1.174625e+002
1.530942e+003, 1.171990e+002
1.532870e+003, 1.166485e+002
1.534799e+003, 1.166210e+002
1.536727e+003, 1.170101e+002
1.538656e+003, 1.173557e+002
1.540584e+003, 1.174552e+002
1.542513e+003, 1.165042e+002
1.544441e+003, 1.158629e+002
1.546370e+003, 1.166898e+002
1.548298e+003, 1.175025e+002
1.550227e+003, 1.178959e+002
1.552155e+003, 1.181326e+002
1.554083e+003, 1.182478e+002
1.556012e+003, 1.185343e+002
1.557940e+003, 1.188598e+002
1.559869e+003, 1.184948e+002
1.561797e+003, 1.181726e+002
1.563726e+003, 1.193022e+002
1.565654e+003, 1.202006e+002
1.567583e+003, 1.196622e+002
1.569511e+003, 1.190924e+002
1.571440e+003, 1.186762e+002
1.573368e+003, 1.186908e+002
1.575297e+003, 1.190777e+002
1.577225e+003, 1.193138e+002
1.579154e+003, 1.193750e+002
1.581082e+003, 1.191053e+002
1.583010e+003, 1.188881e+002
1.584939e+003, 1.191813e+002
1.586867e+003, 1.194276e+002
1.588796e+003, 1.192620e+002
1.590724e+003, 1.194486e+002
1.592653e+003, 1.200622e+002
1.594581e+003, 1.201425e+002
1.596510e+003, 1.199586e+002
1.598438e+003, 1.208658e+002
1.600367e+003, 1.216586e+002
1.602295e+003, 1.205619e+002
1.604224e+003, 1.196567e+002
1.606152e+003, 1.202691e+002
1.608081e+003, 1.207180e+002
1.610009e+003, 1.207229e+002
1.611938e+003, 1.206276e+002
1.613866e+003, 1.205036e+002
1.615794e+003, 1.209496e+002
1.617723e+003, 1.215110e+002
1.619651e+003, 1.215877e+002
1.621580e+003, 1.214806e+002
1.623508e+003, 1.213587e+002
1.625437e+003, 1.210051e+002
1.627365e+003, 1.202945e+002
1.629294e+003, 1.197773e+002
1.631222e+003, 1.194887e+002
1.633151e+003, 1.197786e+002
1.635079e+003, 1.201385e+002
1.637008e+003, 1.198828e+002
1.638936e+003, 1.191625e+002
1.640865e+003, 1.177907e+002
1.642793e+003, 1.170020e+002
1.644721e+003, 1.171005e+002
1.646650e+003, 1.171996e+002
1.648578e+003, 1.171682e+002
1.650507e+003, 1.165204e+002
1.652435e+003, 1.157220e+002
1.654364e+003, 1.154016e+002
1.656292e+003, 1.152111e+002
1.658221e+003, 1.151098e+002
1.660149e+003, 1.145645e+002
1.662078e+003, 1.134961e+002
1.664006e+003, 1.128239e+002
1.665935e+003, 1.124782e+002
1.667863e+003, 1.120701e+002
1.669792e+003, 1.116940e+002
1.671720e+003, 1.115671e+002
1.673648e+003, 1.113109e+002
1.675577e+003, 1.108147e+002
1.677505e+003, 1.100853e+002
1.679434e+003, 1.091541e+002
1.681362e+003, 1.084042e+002
1.683291e+003, 1.077886e+002
1.685219e+003, 1.071885e+002
1.687148e+003, 1.066339e+002
1.689076e+003, 1.061368e+002
1.691005e+003, 1.057187e+002
1.692933e+003, 1.054223e+002
1.694862e+003, 1.049561e+002
1.696790e+003, 1.043714e+002
1.698719e+003, 1.039516e+002
1.700647e+003, 1.037196e+002
1.702575e+003, 1.037937e+002
1.704504e+003, 1.038766e+002
1.706432e+003, 1.039723e+002
1.708361e+003, 1.036944e+002
1.710289e+003, 1.030193e+002
1.712218e+003, 1.021750e+002
1.714146e+003, 1.013339e+002
1.716075e+003, 1.008222e+002
1.718003e+003, 1.006674e+002
1.719932e+003, 1.011741e+002
1.721860e+003, 1.011260e+002
1.723789e+003, 1.000774e+002
1.725717e+003, 9.927724e+001
1.727646e+003, 9.875858e+001
1.729574e+003, 9.865640e+001
1.731502e+003, 9.866477e+001
1.733431e+003, 9.852544e+001
1.735359e+003, 9.828738e+001
1.737288e+003, 9.796043e+001
1.739216e+003, 9.747685e+001
1.741145e+003, 9.690639e+001
1.743073e+003, 9.696902e+001
1.745002e+003, 9.714709e+001
1.746930e+003, 9.652563e+001
1.748859e+003, 9.609101e+001
1.750787e+003, 9.632613e+001
1.752716e+003, 9.612202e+001
1.754644e+003, 9.540648e+001
1.756573e+003, 9.497395e+001
1.758501e+003, 9.464112e+001
1.760429e+003, 9.399464e+001
1.762358e+003, 9.339255e+001
1.764286e+003, 9.292454e+001
1.766215e+003, 9.295026e+001
1.768143e+003, 9.343356e+001
1.770072e+003, 9.308409e+001
1.772000e+003, 9.241781e+001
1.773929e+003, 9.270692e+001
1.775857e+003, 9.281517e+001
1.777786e+003, 9.155032e+001
1.779714e+003, 9.119141e+001
1.781643e+003, 9.194826e+001
1.783571e+003, 9.182923e+001
1.785500e+003, 9.128993e+001
1.787428e+003, 9.142953e+001
1.789356e+003, 9.151601e+001
1.791285e+003, 9.099422e+001
1.793213e+003, 9.045678e+001
1.795142e+003, 8.994965e+001
1.797070e+003, 8.980322e+001
1.798999e+003, 8.990413e+001
1.800927e+003, 9.023930e+001
1.802856e+003, 9.029577e+001
1.804784e+003, 8.964358e+001
1.806713e+003, 8.905510e+001
1.808641e+003, 8.862997e+001
1.810570e+003, 8.805912e+001
1.812498e+003, 8.759520e+001
1.814427e+003, 8.802119e+001
1.816355e+003, 8.805833e+001
1.818283e+003, 8.689438e+001
1.820212e+003, 8.640327e+001
1.822140e+003, 8.672902e+001
1.824069e+003, 8.648754e+001
1.825997e+003, 8.613628e+001
1.827926e+003, 8.651588e+001
1.829854e+003, 8.668639e+001
1.831783e+003, 8.629533e+001
1.833711e+003, 8.600771e+001
1.835640e+003, 8.582438e+001
1.837568e+003, 8.536516e+001
1.839497e+003, 8.477113e+001
1.841425e+003, 8.404797e+001
1.843354e+003, 8.364863e+001
1.845282e+003, 8.370510e+001
1.847210e+003, 8.307934e+001
1.849139e+003, 8.225368e+001
1.851067e+003, 8.322173e+001
1.852996e+003, 8.414837e+001
1.854924e+003, 8.341045e+001
1.856853e+003, 8.284173e+001
1.858781e+003, 8.264616e+001
1.860710e+003, 8.225146e+001
1.862638e+003, 8.181585e+001
1.864567e+003, 8.170972e+001
1.866495e+003, 8.156002e+001
1.868424e+003, 8.114068e+001
1.870352e+003, 8.085384e+001
1.872281e+003, 8.069630e+001
1.874209e+003, 8.045914e+001
1.876137e+003, 8.030418e+001
1.878066e+003, 8.062005e+001
1.879994e+003, 8.051671e+001
1.881923e+003, 7.965023e+001
1.883851e+003, 7.974876e+001
1.885780e+003, 8.026269e+001
1.887708e+003, 7.977164e+001
1.889637e+003, 7.912834e+001
1.891565e+003, 7.877902e+001
1.893494e+003, 7.852738e+001
1.895422e+003, 7.835091e+001
1.897351e+003, 7.813502e+001
1.899279e+003, 7.804461e+001
1.901208e+003, 7.841145e+001
1.903136e+003, 7.845573e+001
1.905064e+003, 7.788818e+001
1.906993e+003, 7.696338e+001
1.908921e+003, 7.606779e+001
1.910850e+003, 7.646971e+001
1.912778e+003, 7.686733e+001
1.914707e+003, 7.662720e+001
1.916635e+003, 7.632624e+001
1.918564e+003, 7.605341e+001
1.920492e+003, 7.585108e+001
1.922421e+003, 7.569077e+001
1.924349e+003, 7.562447e+001
1.926278e+003, 7.527000e+001
1.928206e+003, 7.455515e+001
1.930135e+003, 7.429398e+001
1.932063e+003, 7.437456e+001
1.933991e+003, 7.479591e+001
1.935920e+003, 7.497196e+001
1.937848e+003, 7.469038e+001
1.939777e+003, 7.433157e+001
1.941705e+003, 7.394768e+001
1.943634e+003, 7.341041e+001
1.945562e+003, 7.317261e+001
1.947491e+003, 7.382077e+001
1.949419e+003, 7.402180e+001
1.951348e+003, 7.369324e+001
1.953276e+003, 7.306349e+001
1.955205e+003, 7.244229e+001
1.957133e+003, 7.223405e+001
1.959062e+003, 7.183237e+001
1.960990e+003, 7.112746e+001
1.962918e+003, 7.137086e+001
1.964847e+003, 7.197445e+001
1.966775e+003, 7.216973e+001
1.968704e+003, 7.193504e+001
1.970632e+003, 7.110566e+001
1.972561e+003, 7.068253e+001
1.974489e+003, 7.056906e+001
1.976418e+003, 7.054009e+001
1.978346e+003, 7.048186e+001
1.980275e+003, 7.031192e+001
1.982203e+003, 7.009724e+001
1.984132e+003, 6.987329e+001
1.986060e+003, 6.995175e+001
1.987989e+003, 6.986503e+001
1.989917e+003, 6.911121e+001
1.991845e+003, 6.908980e+001
1.993774e+003, 6.976906e+001
1.995702e+003, 6.969961e+001
1.997631e+003, 6.934687e+001
1.999559e+003, 6.906091e+001
2.001488e+003, 6.871076e+001
2.003416e+003, 6.830244e+001
2.005345e+003, 6.847168e+001
2.007273e+003, 6.857872e+001
2.009202e+003, 6.770380e+001
2.011130e+003, 6.736055e+001
2.013059e+003, 6.781406e+001
2.014987e+003, 6.790766e+001
2.016916e+003, 6.767554e+001
2.018844e+003, 6.695753e+001
2.020772e+003, 6.653527e+001
2.022701e+003, 6.654597e+001
2.024629e+003, 6.609392e+001
2.026558e+003, 6.565778e+001
2.028486e+003, 6.629418e+001
2.030415e+003, 6.652003e+001
2.032343e+003, 6.600281e+001
2.034272e+003, 6.529070e+001
2.036200e+003, 6.477934e+001
2.038129e+003, 6.534609e+001
2.040057e+003, 6.556276e+001
2.041986e+003, 6.506044e+001
2.043914e+003, 6.471092e+001
2.045843e+003, 6.439790e+001
2.047771e+003, 6.372395e+001
2.049699e+003, 6.335699e+001
2.051628e+003, 6.352735e+001
2.053556e+003, 6.357491e+001
2.055485e+003, 6.346140e+001
2.057413e+003, 6.299379e+001
2.059342e+003, 6.280124e+001
2.061270e+003, 6.318163e+001
2.063199e+003, 6.304180e+001
2.065127e+003, 6.260417e+001
2.067056e+003, 6.212189e+001
2.068984e+003, 6.177407e+001
2.070913e+003, 6.162338e+001
2.072841e+003, 6.166555e+001
2.074770e+003, 6.180362e+001
2.076698e+003, 6.194217e+001
2.078626e+003, 6.200433e+001
2.080555e+003, 6.196468e+001
2.082483e+003, 6.167867e+001
2.084412e+003, 6.119702e+001
2.086340e+003, 6.047881e+001
2.088269e+003, 5.998426e+001
2.090197e+003, 5.981902e+001
2.092126e+003, 5.975322e+001
2.094054e+003, 5.968922e+001
2.095983e+003, 5.948772e+001
2.097911e+003, 5.949627e+001
2.099840e+003, 5.968957e+001
2.101768e+003, 5.941484e+001
2.103697e+003, 5.894192e+001
2.105625e+003, 5.836566e+001
2.107553e+003, 5.831490e+001
2.109482e+003, 5.864931e+001
2.111410e+003, 5.835104e+001
2.113339e+003, 5.804326e+001
2.115267e+003, 5.812590e+001
2.117196e+003, 5.806668e+001
2.119124e+003, 5.793354e+001
2.121053e+003, 5.819230e+001
2.122981e+003, 5.811089e+001
2.124910e+003, 5.729574e+001
2.126838e+003, 5.705293e+001
2.128767e+003, 5.709201e+001
2.130695e+003, 5.676977e+001
2.132624e+003, 5.648439e+001
2.134552e+003, 5.634465e+001
2.136480e+003, 5.636235e+001
2.138409e+003, 5.641723e+001
2.140337e+003, 5.629519e+001
2.142266e+003, 5.645437e+001
2.144194e+003, 5.687557e+001
2.146123e+003, 5.585691e+001
2.148051e+003, 5.483489e+001
2.149980e+003, 5.499007e+001
2.151908e+003, 5.501159e+001
2.153837e+003, 5.496785e+001
2.155765e+003, 5.621861e+001
2.157694e+003, 5.663574e+001
2.159622e+003, 5.498588e+001
2.161551e+003, 5.431380e+001
2.163479e+003, 5.432621e+001
2.165407e+003, 5.442167e+001
2.167336e+003, 5.415721e+001
2.169264e+003, 5.341882e+001
2.171193e+003, 5.382432e+001
2.173121e+003, 5.424758e+001
2.175050e+003, 5.346859e+001
2.176978e+003, 5.271006e+001
2.178907e+003, 5.226845e+001
2.180835e+003, 5.278870e+001
2.182764e+003, 5.321250e+001
2.184692e+003, 5.301713e+001
2.186621e+003, 5.283358e+001
2.188549e+003, 5.255278e+001
2.190478e+003, 5.151881e+001
2.192406e+003, 5.108667e+001
2.194334e+003, 5.150191e+001
2.196263e+003, 5.165554e+001
2.198191e+003, 5.159092e+001
2.200120e+003, 5.132555e+001
2.202048e+003, 5.093828e+001
2.203977e+003, 5.059421e+001
2.205905e+003, 5.104046e+001
2.207834e+003, 5.129880e+001
2.209762e+003, 5.090061e+001
2.211691e+003, 4.994503e+001
2.213619e+003, 4.896038e+001
2.215548e+003, 4.859767e+001
2.217476e+003, 4.886138e+001
2.219405e+003, 4.962495e+001
2.221333e+003, 4.998973e+001
2.223261e+003, 4.989463e+001
2.225190e+003, 4.905009e+001
2.227118e+003, 4.855812e+001
2.229047e+003, 4.837557e+001
2.230975e+003, 4.836716e+001
2.232904e+003, 4.824507e+001
2.234832e+003, 4.791028e+001
2.236761e+003, 4.791145e+001
2.238689e+003, 4.784668e+001
2.240618e+003, 4.736863e+001
2.242546e+003, 4.674825e+001
2.244475e+003, 4.629276e+001
2.246403e+003, 4.741585e+001
2.248332e+003, 4.767429e+001
2.250260e+003, 4.628171e+001
2.252188e+003, 4.611970e+001
2.254117e+003, 4.644726e+001
2.256045e+003, 4.649263e+001
2.257974e+003, 4.653899e+001
2.259902e+003, 4.650731e+001
2.261831e+003, 4.567917e+001
2.263759e+003, 4.554469e+001
2.265688e+003, 4.651704e+001
2.267616e+003, 4.621161e+001
2.269545e+003, 4.548064e+001
2.271473e+003, 4.529094e+001
2.273402e+003, 4.513944e+001
2.275330e+003, 4.501530e+001
2.277259e+003, 4.511842e+001
2.279187e+003, 4.502169e+001
2.281115e+003, 4.460783e+001
2.283044e+003, 4.440859e+001
2.284972e+003, 4.427382e+001
2.286901e+003, 4.401255e+001
2.288829e+003, 4.389742e+001
2.290758e+003, 4.384795e+001
2.292686e+003, 4.361501e+001
2.294615e+003, 4.334879e+001
2.296543e+003, 4.309503e+001
2.298472e+003, 4.307291e+001
2.300400e+003, 4.312140e+001
2.302329e+003, 4.321539e+001
2.304257e+003, 4.289669e+001
2.306186e+003, 4.234746e+001
2.308114e+003, 4.185897e+001
2.310042e+003, 4.159352e+001
2.311971e+003, 4.156105e+001
2.313899e+003, 4.141088e+001
2.315828e+003, 4.178408e+001
2.317756e+003, 4.315986e+001
2.319685e+003, 4.259565e+001
2.321613e+003, 4.174366e+001
2.323542e+003, 4.288587e+001
2.325470e+003, 4.328872e+001
2.327399e+003, 4.292590e+001
2.329327e+003, 4.317817e+001
2.331256e+003, 4.322468e+001
2.333184e+003, 4.279737e+001
2.335113e+003, 4.148745e+001
2.337041e+003, 4.072908e+001
2.338969e+003, 4.167395e+001
2.340898e+003, 4.128669e+001
2.342826e+003, 4.028373e+001
2.344755e+003, 4.034087e+001
2.346683e+003, 4.026004e+001
2.348612e+003, 3.990166e+001
2.350540e+003, 3.945130e+001
2.352469e+003, 3.914948e+001
2.354397e+003, 3.906418e+001
2.356326e+003, 3.860566e+001
2.358254e+003, 3.830566e+001
2.360183e+003, 3.895280e+001
2.362111e+003, 3.855505e+001
2.364040e+003, 3.781017e+001
2.365968e+003, 3.817933e+001
2.367896e+003, 3.821234e+001
2.369825e+003, 3.786801e+001
2.371753e+003, 3.816674e+001
2.373682e+003, 3.814226e+001
2.375610e+003, 3.738184e+001
2.377539e+003, 3.742262e+001
2.379467e+003, 3.754649e+001
2.381396e+003, 3.719580e+001
2.383324e+003, 3.683577e+001
2.385253e+003, 3.666821e+001
2.387181e+003, 3.704316e+001
2.389110e+003, 3.700728e+001
2.391038e+003, 3.660691e+001
2.392967e+003, 3.630151e+001
2.394895e+003, 3.613445e+001
2.396823e+003, 3.611738e+001
2.398752e+003, 3.621497e+001
2.400680e+003, 3.623909e+001
2.402609e+003, 3.609851e+001
2.404537e+003, 3.564124e+001
2.406466e+003, 3.527346e+001
2.408394e+003, 3.536951e+001
2.410323e+003, 3.555859e+001
2.412251e+003, 3.556720e+001
2.414180e+003, 3.468746e+001
2.416108e+003, 3.446587e+001
2.418037e+003, 3.481665e+001
2.419965e+003, 3.477550e+001
2.421894e+003, 3.467964e+001
2.423822e+003, 3.459960e+001
2.425750e+003, 3.434784e+001
2.427679e+003, 3.414562e+001
2.429607e+003, 3.409211e+001
2.431536e+003, 3.418371e+001
2.433464e+003, 3.420106e+001
2.435393e+003, 3.393454e+001
2.437321e+003, 3.360677e+001
2.439250e+003, 3.327216e+001
2.441178e+003, 3.294535e+001
2.443107e+003, 3.278038e+001
2.445035e+003, 3.274898e+001
2.446964e+003, 3.284123e+001
2.448892e+003, 3.271641e+001
2.450821e+003, 3.244906e+001
2.452749e+003, 3.272594e+001
2.454677e+003, 3.278448e+001
2.456606e+003, 3.241559e+001
2.458534e+003, 3.194760e+001
2.460463e+003, 3.176367e+001
2.462391e+003, 3.208069e+001
2.464320e+003, 3.194189e+001
2.466248e+003, 3.167267e+001
2.468177e+003, 3.149539e+001
2.470105e+003, 3.144251e+001
2.472034e+003, 3.138238e+001
2.473962e+003, 3.121356e+001
2.475891e+003, 3.057636e+001
2.477819e+003, 3.008029e+001
2.479748e+003, 3.096744e+001
2.481676e+003, 3.106274e+001
2.483604e+003, 3.053944e+001
2.485533e+003, 3.040838e+001
2.487461e+003, 3.037819e+001
2.489390e+003, 3.030673e+001
2.491318e+003, 2.979789e+001
2.493247e+003, 2.958127e+001
2.495175e+003, 2.972921e+001
2.497104e+003, 2.978146e+001
2.499032e+003, 2.963466e+001
2.500961e+003, 2.929941e+001
2.502889e+003, 2.899927e+001
2.504818e+003, 2.877490e+001
2.506746e+003, 2.863618e+001
2.508675e+003, 2.899917e+001
2.510603e+003, 2.921248e+001
2.512531e+003, 2.879134e+001
2.514460e+003, 2.824849e+001
2.516388e+003, 2.789111e+001
2.518317e+003, 2.803026e+001
2.520245e+003, 2.790532e+001
2.522174e+003, 2.858381e+001
2.524102e+003, 3.183430e+001
2.526031e+003, 3.091831e+001
2.527959e+003, 2.849036e+001
2.529888e+003, 2.821085e+001
2.531816e+003, 2.838180e+001
2.533745e+003, 2.843441e+001
2.535673e+003, 2.773459e+001
2.537602e+003, 2.733558e+001
2.539530e+003, 2.778848e+001
2.541458e+003, 3.050315e+001
2.543387e+003, 3.157210e+001
2.545315e+003, 3.101229e+001
2.547244e+003, 2.998900e+001
2.549172e+003, 2.885107e+001
2.551101e+003, 2.783208e+001
2.553029e+003, 2.741832e+001
2.554958e+003, 2.732945e+001
2.556886e+003, 2.742023e+001
2.558815e+003, 2.732000e+001
2.560743e+003, 2.764860e+001
2.562672e+003, 2.821544e+001
2.564600e+003, 2.782418e+001
2.566529e+003, 2.757424e+001
2.568457e+003, 2.763767e+001
2.570385e+003, 2.767167e+001
2.572314e+003, 2.753745e+001
2.574242e+003, 2.725835e+001
2.576171e+003, 2.699681e+001
2.578099e+003, 2.688396e+001
2.580028e+003, 2.686053e+001
2.581956e+003, 2.634110e+001
2.583885e+003, 2.592730e+001
2.585813e+003, 2.576116e+001
2.587742e+003, 2.564476e+001
2.589670e+003, 2.536923e+001
2.591599e+003, 2.491693e+001
2.593527e+003, 2.459227e+001
2.595456e+003, 2.451507e+001
2.597384e+003, 2.466775e+001
2.599313e+003, 2.462021e+001
2.601241e+003, 2.447367e+001
2.603169e+003, 2.428243e+001
2.605098e+003, 2.427342e+001
2.607026e+003, 2.385984e+001
2.608955e+003, 2.332446e+001
2.610883e+003, 2.639414e+001
2.612812e+003, 2.692836e+001
2.614740e+003, 2.414543e+001
2.616669e+003, 2.339453e+001
2.618597e+003, 2.315914e+001
2.620526e+003, 2.303586e+001
2.622454e+003, 2.321646e+001
2.624383e+003, 2.333330e+001
2.626311e+003, 2.336174e+001
2.628240e+003, 2.370217e+001
2.630168e+003, 2.349718e+001
2.632096e+003, 2.285637e+001
2.634025e+003, 2.262372e+001
2.635953e+003, 2.267836e+001
2.637882e+003, 2.283978e+001
2.639810e+003, 2.275933e+001
2.641739e+003, 2.254351e+001
2.643667e+003, 2.236477e+001
2.645596e+003, 2.267140e+001
2.647524e+003, 2.242108e+001
2.649453e+003, 2.200941e+001
2.651381e+003, 2.263558e+001
2.653310e+003, 2.255654e+001
2.655238e+003, 2.209109e+001
2.657167e+003, 2.202416e+001
2.659095e+003, 2.198676e+001
2.661023e+003, 2.186765e+001
2.662952e+003, 2.153909e+001
2.664880e+003, 2.177176e+001
2.666809e+003, 2.182407e+001
2.668737e+003, 2.090507e+001
2.670666e+003, 2.064045e+001
2.672594e+003, 2.069722e+001
2.674523e+003, 2.072083e+001
2.676451e+003, 2.074982e+001
2.678380e+003, 2.079977e+001
2.680308e+003, 2.086233e+001
2.682237e+003, 2.050385e+001
2.684165e+003, 2.033177e+001
2.686094e+003, 2.056820e+001
2.688022e+003, 2.077232e+001
2.689950e+003, 2.070348e+001
2.691879e+003, 2.040388e+001
2.693807e+003, 2.049936e+001
2.695736e+003, 2.046583e+001
2.697664e+003, 2.029734e+001
2.699593e+003, 2.061356e+001
2.701521e+003, 2.054338e+001
2.703450e+003, 2.008523e+001
2.705378e+003, 1.954294e+001
2.707307e+003, 1.931094e+001
2.709235e+003, 1.937919e+001
2.711164e+003, 1.980990e+001
2.713092e+003, 1.955712e+001
2.715021e+003, 1.910637e+001
2.716949e+003, 1.914214e+001
2.718877e+003, 1.914154e+001
2.720806e+003, 1.901534e+001
2.722734e+003, 1.867407e+001
2.724663e+003, 1.860228e+001
2.726591e+003, 1.863670e+001
2.728520e+003, 1.868647e+001
2.730448e+003, 1.877238e+001
2.732377e+003, 1.866516e+001
2.734305e+003, 1.836708e+001
2.736234e+003, 1.841806e+001
2.738162e+003, 1.846369e+001
2.740091e+003, 1.839690e+001
2.742019e+003, 1.803800e+001
2.743948e+003, 1.820041e+001
2.745876e+003, 1.847281e+001
2.747804e+003, 1.796063e+001
2.749733e+003, 1.804996e+001
2.751661e+003, 1.818182e+001
2.753590e+003, 1.772637e+001
2.755518e+003, 1.796298e+001
2.757447e+003, 1.823856e+001
2.759375e+003, 1.815142e+001
2.761304e+003, 1.747385e+001
2.763232e+003, 1.721267e+001
2.765161e+003, 1.749617e+001
2.767089e+003, 1.750760e+001
2.769018e+003, 1.749669e+001
2.770946e+003, 1.749204e+001
2.772875e+003, 1.744804e+001
2.774803e+003, 1.718814e+001
2.776731e+003, 1.698313e+001
2.778660e+003, 1.733710e+001
2.780588e+003, 1.702939e+001
2.782517e+003, 1.670894e+001
2.784445e+003, 1.692727e+001
2.786374e+003, 1.699036e+001
2.788302e+003, 1.676131e+001
2.790231e+003, 1.628572e+001
2.792159e+003, 1.630397e+001
2.794088e+003, 1.642537e+001
2.796016e+003, 1.645033e+001
2.797945e+003, 1.604748e+001
2.799873e+003, 1.618047e+001
2.801802e+003, 1.629100e+001
2.803730e+003, 1.565586e+001
2.805658e+003, 1.591386e+001
2.807587e+003, 1.614425e+001
2.809515e+003, 1.583921e+001
2.811444e+003, 1.574580e+001
2.813372e+003, 1.575121e+001
2.815301e+003, 1.581700e+001
2.817229e+003, 1.607654e+001
2.819158e+003, 1.601155e+001
2.821086e+003, 1.568672e+001
2.823015e+003, 1.520520e+001
2.824943e+003, 1.544663e+001
2.826872e+003, 1.567014e+001
2.828800e+003, 1.528831e+001
2.830729e+003, 1.490653e+001
2.832657e+003, 1.496618e+001
2.834585e+003, 1.540860e+001
2.836514e+003, 1.529869e+001
2.838442e+003, 1.526182e+001
2.840371e+003, 1.521327e+001
2.842299e+003, 1.470299e+001
2.844228e+003, 1.492309e+001
2.846156e+003, 1.506212e+001
2.848085e+003, 1.434059e+001
2.850013e+003, 1.434883e+001
2.851942e+003, 1.451755e+001
2.853870e+003, 1.457918e+001
2.855799e+003, 1.425074e+001
2.857727e+003, 1.425993e+001
2.859656e+003, 1.454964e+001
2.861584e+003, 1.490251e+001
2.863512e+003, 1.453435e+001
2.865441e+003, 1.432698e+001
2.867369e+003, 1.473484e+001
2.869298e+003, 1.487456e+001
2.871226e+003, 1.479543e+001
2.873155e+003, 1.459954e+001
2.875083e+003, 1.454727e+001
2.877012e+003, 1.400365e+001
2.878940e+003, 1.369541e+001
2.880869e+003, 1.445736e+001
2.882797e+003, 1.450619e+001
2.884726e+003, 1.428121e+001
2.886654e+003, 1.409534e+001
2.888583e+003, 1.437895e+001
2.890511e+003, 1.433566e+001
2.892439e+003, 1.400645e+001
2.894368e+003, 1.355608e+001
2.896296e+003, 1.393997e+001
2.898225e+003, 1.422033e+001
2.900153e+003, 1.380400e+001
2.902082e+003, 1.398205e+001
2.904010e+003, 1.395115e+001
2.905939e+003, 1.371816e+001
2.907867e+003, 1.373348e+001
2.909796e+003, 1.375358e+001
2.911724e+003, 1.368031e+001
2.913653e+003, 1.347269e+001
2.915581e+003, 1.353416e+001
2.917510e+003, 1.384905e+001
2.919438e+003, 1.411368e+001
2.921366e+003, 1.339055e+001
2.923295e+003, 1.351870e+001
2.925223e+003, 1.370755e+001
2.927152e+003, 1.319168e+001
2.929080e+003, 1.307786e+001
2.931009e+003, 1.344538e+001
2.932937e+003, 1.396461e+001
2.934866e+003, 1.350195e+001
2.936794e+003, 1.363777e+001
2.938723e+003, 1.396925e+001
2.940651e+003, 1.395908e+001
2.942580e+003, 1.389881e+001
2.944508e+003, 1.362886e+001
2.946437e+003, 1.334340e+001
2.948365e+003, 1.382702e+001
2.950293e+003, 1.377975e+001
2.952222e+003, 1.365827e+001
2.954150e+003, 1.404886e+001
2.956079e+003, 1.384308e+001
2.958007e+003, 1.357324e+001
2.959936e+003, 1.344673e+001
2.961864e+003, 1.359247e+001
2.963793e+003, 1.351095e+001
2.965721e+003, 1.352756e+001
2.967650e+003, 1.391424e+001
2.969578e+003, 1.332793e+001
2.971507e+003, 1.296445e+001
2.973435e+003, 1.310853e+001
2.975364e+003, 1.373864e+001
2.977292e+003, 1.338960e+001
2.979220e+003, 1.308948e+001
2.981149e+003, 1.338943e+001
2.983077e+003, 1.331673e+001
2.985006e+003, 1.324240e+001
2.986934e+003, 1.318852e+001
2.988863e+003, 1.308301e+001
2.990791e+003, 1.285848e+001
2.992720e+003, 1.276132e+001
2.994648e+003, 1.283231e+001
2.996577e+003, 1.282889e+001
2.998505e+003, 1.316465e+001
3.000434e+003, 1.336246e+001
3.002362e+003, 1.301381e+001
3.004291e+003, 1.312481e+001
3.006219e+003, 1.313020e+001
3.008147e+003, 1.305154e+001
3.010076e+003, 1.335500e+001
3.012004e+003, 1.298014e+001
3.013933e+003, 1.268614e+001
3.015861e+003, 1.286149e+001
3.017790e+003, 1.312751e+001
3.019718e+003, 1.315332e+001
3.021647e+003, 1.305545e+001
3.023575e+003, 1.299432e+001
3.025504e+003, 1.337456e+001
3.027432e+003, 1.332295e+001
3.029361e+003, 1.308232e+001
3.031289e+003, 1.375179e+001
3.033218e+003, 1.333011e+001
3.035146e+003, 1.300407e+001
3.037074e+003, 1.332638e+001
3.039003e+003, 1.313015e+001
3.040931e+003, 1.321643e+001
3.042860e+003, 1.333151e+001
3.044788e+003, 1.317821e+001
3.046717e+003, 1.323826e+001
3.048645e+003, 1.303197e+001
3.050574e+003, 1.283743e+001
3.052502e+003, 1.342054e+001
3.054431e+003, 1.319505e+001
3.056359e+003, 1.334564e+001
3.058288e+003, 1.389217e+001
3.060216e+003, 1.324882e+001
3.062145e+003, 1.297832e+001
3.064073e+003, 1.313807e+001
3.066001e+003, 1.355916e+001
3.067930e+003, 1.355609e+001
3.069858e+003, 1.371364e+001
3.071787e+003, 1.388874e+001
3.073715e+003, 1.379236e+001
3.075644e+003, 1.362981e+001
3.077572e+003, 1.394783e+001
3.079501e+003, 1.447389e+001
3.081429e+003, 1.455952e+001
3.083358e+003, 1.408285e+001
3.085286e+003, 1.374529e+001
3.087215e+003, 1.378955e+001
3.089143e+003, 1.407492e+001
3.091072e+003, 1.435158e+001
3.093000e+003, 1.449591e+001
3.094928e+003, 1.449975e+001
3.096857e+003, 1.460108e+001
3.098785e+003, 1.436074e+001
3.100714e+003, 1.426306e+001
3.102642e+003, 1.460008e+001
3.104571e+003, 1.476205e+001
3.106499e+003, 1.506246e+001
3.108428e+003, 1.521521e+001
3.110356e+003, 1.495186e+001
3.112285e+003, 1.559378e+001
3.114213e+003, 1.576996e+001
3.116142e+003, 1.541064e+001
3.118070e+003, 1.480989e+001
3.119999e+003, 1.526151e+001
3.121927e+003, 1.563920e+001
3.123855e+003, 1.569639e+001
3.125784e+003, 1.557382e+001
3.127712e+003, 1.552791e+001
3.129641e+003, 1.572260e+001
3.131569e+003, 1.596708e+001
3.133498e+003, 1.573109e+001
3.135426e+003, 1.585291e+001
3.137355e+003, 1.593386e+001
3.139283e+003, 1.583515e+001
3.141212e+003, 1.572728e+001
3.143140e+003, 1.627616e+001
3.145069e+003, 1.651916e+001
3.146997e+003, 1.621430e+001
3.148926e+003, 1.619730e+001
3.150854e+003, 1.587801e+001
3.152782e+003, 1.605313e+001
3.154711e+003, 1.674233e+001
3.156639e+003, 1.644241e+001
3.158568e+003, 1.647319e+001
3.160496e+003, 1.650202e+001
3.162425e+003, 1.633392e+001
3.164353e+003, 1.611093e+001
3.166282e+003, 1.612203e+001
3.168210e+003, 1.653226e+001
3.170139e+003, 1.711129e+001
3.172067e+003, 1.666768e+001
3.173996e+003, 1.655769e+001
3.175924e+003, 1.650191e+001
3.177853e+003, 1.638102e+001
3.179781e+003, 1.693664e+001
3.181709e+003, 1.704620e+001
3.183638e+003, 1.701850e+001
3.185566e+003, 1.706287e+001
3.187495e+003, 1.693316e+001
3.189423e+003, 1.709921e+001
3.191352e+003, 1.710571e+001
3.193280e+003, 1.688527e+001
3.195209e+003, 1.718201e+001
3.197137e+003, 1.688021e+001
3.199066e+003, 1.673152e+001
3.200994e+003, 1.695828e+001
3.202923e+003, 1.696534e+001
3.204851e+003, 1.670700e+001
3.206780e+003, 1.631267e+001
3.208708e+003, 1.601773e+001
3.210636e+003, 1.622165e+001
3.212565e+003, 1.651028e+001
3.214493e+003, 1.673109e+001
3.216422e+003, 1.687887e+001
3.218350e+003, 1.710251e+001
3.220279e+003, 1.648549e+001
3.222207e+003, 1.614610e+001
3.224136e+003, 1.625801e+001
3.226064e+003, 1.660455e+001
3.227993e+003, 1.634362e+001
3.229921e+003, 1.623635e+001
3.231850e+003, 1.614672e+001
3.233778e+003, 1.567619e+001
3.235707e+003, 1.586507e+001
3.237635e+003, 1.612436e+001
3.239563e+003, 1.621314e+001
3.241492e+003, 1.604324e+001
3.243420e+003, 1.549252e+001
3.245349e+003, 1.563799e+001
3.247277e+003, 1.580653e+001
3.249206e+003, 1.555650e+001
3.251134e+003, 1.529084e+001
3.253063e+003, 1.545537e+001
3.254991e+003, 1.580379e+001
3.256920e+003, 1.598600e+001
3.258848e+003, 1.552222e+001
3.260777e+003, 1.502547e+001
3.262705e+003, 1.504518e+001
3.264634e+003, 1.528375e+001
3.266562e+003, 1.503202e+001
3.268490e+003, 1.523073e+001
3.270419e+003, 1.532585e+001
3.272347e+003, 1.520760e+001
3.274276e+003, 1.495041e+001
3.276204e+003, 1.474904e+001
3.278133e+003, 1.488615e+001
3.280061e+003, 1.476156e+001
3.281990e+003, 1.419082e+001
3.283918e+003, 1.432465e+001
3.285847e+003, 1.438443e+001
3.287775e+003, 1.452975e+001
3.289704e+003, 1.474779e+001
3.291632e+003, 1.478687e+001
3.293561e+003, 1.462340e+001
3.295489e+003, 1.463841e+001
3.297417e+003, 1.473452e+001
3.299346e+003, 1.468322e+001
3.301274e+003, 1.449415e+001
3.303203e+003, 1.468304e+001
3.305131e+003, 1.447325e+001
3.307060e+003, 1.373703e+001
3.308988e+003, 1.410511e+001
3.310917e+003, 1.427504e+001
3.312845e+003, 1.420992e+001
3.314774e+003, 1.407041e+001
3.316702e+003, 1.405504e+001
3.318631e+003, 1.418635e+001
3.320559e+003, 1.379504e+001
3.322488e+003, 1.340002e+001
3.324416e+003, 1.353872e+001
3.326344e+003, 1.388600e+001
3.328273e+003, 1.379929e+001
3.330201e+003, 1.357092e+001
3.332130e+003, 1.338566e+001
3.334058e+003, 1.319245e+001
3.335987e+003, 1.334768e+001
3.337915e+003, 1.306768e+001
3.339844e+003, 1.284384e+001
3.341772e+003, 1.323028e+001
3.343701e+003, 1.299208e+001
3.345629e+003, 1.274735e+001
3.347558e+003, 1.293570e+001
3.349486e+003, 1.332235e+001
3.351415e+003, 1.306205e+001
3.353343e+003, 1.294653e+001
3.355271e+003, 1.288205e+001
3.357200e+003, 1.289192e+001
3.359128e+003, 1.300799e+001
3.361057e+003, 1.313667e+001
3.362985e+003, 1.280615e+001
3.364914e+003, 1.279969e+001
3.366842e+003, 1.303040e+001
3.368771e+003, 1.263923e+001
3.370699e+003, 1.289206e+001
3.372628e+003, 1.295502e+001
3.374556e+003, 1.282141e+001
3.376485e+003, 1.267611e+001
3.378413e+003, 1.251136e+001
3.380342e+003, 1.274964e+001
3.382270e+003, 1.311592e+001
3.384198e+003, 1.315919e+001
3.386127e+003, 1.249402e+001
3.388055e+003, 1.243211e+001
3.389984e+003, 1.241399e+001
3.391912e+003, 1.249145e+001
3.393841e+003, 1.257527e+001
3.395769e+003, 1.229195e+001
3.397698e+003, 1.195378e+001
3.399626e+003, 1.174137e+001
3.401555e+003, 1.179595e+001
3.403483e+003, 1.208569e+001
3.405412e+003, 1.222614e+001
3.407340e+003, 1.206679e+001
3.409269e+003, 1.204538e+001
3.411197e+003, 1.227270e+001
3.413125e+003, 1.262475e+001
3.415054e+003, 1.282105e+001
3.416982e+003, 1.240504e+001
3.418911e+003, 1.223913e+001
3.420839e+003, 1.245423e+001
3.422768e+003, 1.254876e+001
3.424696e+003, 1.236688e+001
3.426625e+003, 1.201834e+001
3.428553e+003, 1.207497e+001
3.430482e+003, 1.243857e+001
3.432410e+003, 1.207978e+001
3.434339e+003, 1.194430e+001
3.436267e+003, 1.175012e+001
3.438196e+003, 1.149126e+001
3.440124e+003, 1.125401e+001
3.442052e+003, 1.113375e+001
3.443981e+003, 1.118814e+001
3.445909e+003, 1.126492e+001
3.447838e+003, 1.118945e+001
3.449766e+003, 1.091553e+001
3.451695e+003, 1.060970e+001
3.453623e+003, 1.056036e+001
3.455552e+003, 1.070142e+001
##END=



