##NAMES=Orientite
##RRUFFID=R060936
##IDEAL CHEMISTRY=Ca_8_Mn^3+^_10_(SiO_4_)_3_(Si_3_O_10_)_3_(OH)_10_·4H_2_O
##LOCALITY=Cerchiara mine, Liguria, Italy
##OWNER=RRUFF
##SOURCE=Michael Scott
##DESCRIPTION=Hexagonal looking chocolate-brown crystals
##STATUS=The identification of this mineral is confirmed by single-crystal X-ray diffraction and chemical analysis
##URL=https://www.rruff.net/odr/rruff_sample/R060936
##MEASURED CHEMISTRY=(Ca_7.49_Mg_0.51_)(Mn^3+^_9.06_Al_0.94_)(Si_1.00_O_4_)_3_(Si_3.00_O_10_)_3_(OH)_10_·4H_2_O ; OH by charge balance  H_2_O assumed by stoichiometry
##DIFFRACTION SAMPLE DESCRIPTION=Single crystal, powder profile is calculated
##CELL PARAMETERS=a: 8.999 b: 19.008 c: 6.086 alpha: 90 beta: 90 gamma: 90 volume: 1041 crystal system: orthorhombic
##FILETYPE=Raman Processed
##RAMAN WAVELENGTH=532

167.0439, 2999.679
168.9724, 2995.162
170.9009, 3003.269
172.8293, 3022.208
174.7578, 3042.844
176.6863, 3056.808
178.6147, 3077.990
180.5432, 3111.935
182.4717, 3163.550
184.4001, 3219.674
186.3286, 3277.700
188.2571, 3337.826
190.1855, 3400.973
192.1140, 3469.806
194.0425, 3541.445
195.9709, 3613.388
197.8994, 3688.661
199.8279, 3762.922
201.7563, 3841.322
203.6848, 3924.135
205.6133, 3988.649
207.5418, 4018.822
209.4702, 4029.050
211.3987, 4041.819
213.3272, 4051.594
215.2556, 4067.014
217.1841, 4094.121
219.1126, 4134.740
221.0410, 4172.147
222.9695, 4215.275
224.8980, 4256.121
226.8264, 4264.271
228.7549, 4219.405
230.6834, 4162.396
232.6118, 4113.151
234.5403, 4073.063
236.4688, 4038.954
238.3972, 4007.250
240.3257, 3979.818
242.2542, 3963.979
244.1826, 3965.653
246.1111, 3974.480
248.0396, 3983.694
249.9680, 4008.274
251.8965, 4013.645
253.8250, 3988.065
255.7534, 3935.107
257.6819, 3882.088
259.6104, 3836.833
261.5388, 3790.495
263.4673, 3735.840
265.3958, 3661.831
267.3242, 3591.602
269.2527, 3529.684
271.1812, 3475.241
273.1096, 3424.102
275.0381, 3371.478
276.9666, 3323.349
278.8950, 3287.353
280.8235, 3261.380
282.7520, 3247.938
284.6804, 3250.181
286.6089, 3266.434
288.5374, 3292.150
290.4658, 3336.608
292.3943, 3386.131
294.3228, 3422.017
296.2512, 3437.931
298.1797, 3452.190
300.1082, 3475.930
302.0366, 3512.506
303.9651, 3528.425
305.8936, 3512.532
307.8220, 3480.832
309.7505, 3453.963
311.6790, 3436.040
313.6074, 3415.894
315.5359, 3387.182
317.4644, 3345.271
319.3928, 3313.390
321.3213, 3295.356
323.2498, 3284.245
325.1782, 3271.808
327.1067, 3257.574
329.0352, 3242.656
330.9637, 3227.170
332.8921, 3211.071
334.8206, 3198.297
336.7491, 3181.583
338.6775, 3173.566
340.6060, 3185.447
342.5345, 3224.432
344.4629, 3271.150
346.3914, 3317.690
348.3199, 3362.862
350.2483, 3418.802
352.1768, 3487.246
354.1053, 3563.968
356.0337, 3645.888
357.9622, 3737.433
359.8907, 3823.293
361.8191, 3901.411
363.7476, 3971.130
365.6761, 4033.214
367.6045, 4092.364
369.5330, 4141.550
371.4615, 4177.943
373.3899, 4196.902
375.3184, 4212.451
377.2469, 4222.733
379.1753, 4229.901
381.1038, 4246.111
383.0323, 4281.994
384.9607, 4315.094
386.8892, 4335.193
388.8177, 4340.693
390.7461, 4333.421
392.6746, 4305.909
394.6031, 4266.371
396.5315, 4237.251
398.4600, 4229.382
400.3885, 4218.462
402.3169, 4194.021
404.2454, 4149.611
406.1739, 4108.861
408.1023, 4061.990
410.0308, 4022.417
411.9593, 4010.562
413.8877, 4042.817
415.8162, 4072.665
417.7447, 4082.178
419.6731, 4066.160
421.6016, 4061.345
423.5301, 4076.917
425.4585, 4097.143
427.3870, 4108.289
429.3155, 4108.479
431.2439, 4104.480
433.1724, 4093.143
435.1009, 4075.718
437.0293, 4069.527
438.9578, 4077.242
440.8863, 4091.821
442.8147, 4114.028
444.7432, 4146.653
446.6717, 4168.261
448.6001, 4174.517
450.5286, 4168.354
452.4571, 4153.136
454.3855, 4121.606
456.3140, 4091.088
458.2425, 4071.394
460.1709, 4061.179
462.0994, 4041.523
464.0279, 3991.869
465.9563, 3940.528
467.8848, 3911.709
469.8133, 3908.295
471.7417, 3920.156
473.6702, 3951.692
475.5987, 3997.618
477.5271, 4046.101
479.4556, 4091.244
481.3841, 4143.310
483.3125, 4207.739
485.2410, 4289.708
487.1695, 4373.346
489.0979, 4464.111
491.0264, 4554.738
492.9549, 4640.776
494.8833, 4742.301
496.8118, 4806.092
498.7403, 4812.908
500.6687, 4760.512
502.5972, 4697.713
504.5257, 4611.566
506.4541, 4524.247
508.3826, 4447.968
510.3111, 4386.207
512.2395, 4322.081
514.1680, 4245.254
516.0964, 4165.239
518.0249, 4101.929
519.9534, 4056.073
521.8818, 4024.066
523.8103, 4010.512
525.7388, 4014.384
527.6672, 4018.530
529.5957, 4020.604
531.5242, 4025.277
533.4526, 4036.385
535.3811, 4055.135
537.3096, 4074.989
539.2380, 4099.042
541.1665, 4120.798
543.0950, 4129.956
545.0234, 4110.224
546.9519, 4091.986
548.8804, 4082.207
550.8088, 4081.434
552.7373, 4081.753
554.6658, 4082.750
556.5942, 4086.794
558.5227, 4093.956
560.4512, 4102.551
562.3796, 4122.728
564.3081, 4158.928
566.2366, 4205.770
568.1650, 4252.740
570.0935, 4293.667
572.0220, 4344.170
573.9504, 4407.230
575.8789, 4482.143
577.8074, 4574.025
579.7359, 4688.511
581.6644, 4815.331
583.5928, 4956.424
585.5213, 5117.048
587.4498, 5264.520
589.3782, 5420.932
591.3067, 5548.406
593.2352, 5613.771
595.1636, 5605.740
597.0921, 5543.921
599.0206, 5416.729
600.9490, 5235.076
602.8775, 5045.370
604.8060, 4834.779
606.7344, 4633.646
608.6629, 4454.078
610.5914, 4295.559
612.5198, 4154.461
614.4483, 4036.427
616.3768, 3931.680
618.3052, 3834.880
620.2337, 3745.009
622.1622, 3664.815
624.0906, 3597.501
626.0191, 3539.010
627.9476, 3484.915
629.8760, 3440.163
631.8045, 3392.604
633.7330, 3335.334
635.6614, 3272.669
637.5899, 3224.075
639.5184, 3193.413
641.4468, 3172.519
643.3753, 3156.289
645.3038, 3143.860
647.2322, 3143.357
649.1607, 3175.263
651.0892, 3202.837
653.0176, 3197.759
654.9461, 3144.656
656.8746, 3099.882
658.8030, 3063.575
660.7315, 3042.659
662.6600, 3047.028
664.5884, 3098.647
666.5169, 3133.770
668.4454, 3125.625
670.3738, 3090.318
672.3023, 3084.133
674.2308, 3124.218
676.1592, 3167.657
678.0877, 3202.329
680.0162, 3228.463
681.9446, 3245.589
683.8731, 3247.876
685.8016, 3244.453
687.7300, 3238.937
689.6585, 3231.608
691.5870, 3222.158
693.5154, 3208.630
695.4439, 3195.065
697.3724, 3185.917
699.3008, 3182.983
701.2293, 3174.538
703.1578, 3151.350
705.0862, 3123.445
707.0147, 3103.819
708.9432, 3101.108
710.8716, 3096.342
712.8001, 3087.545
714.7286, 3076.188
716.6570, 3064.227
718.5855, 3047.877
720.5140, 3039.084
722.4424, 3044.510
724.3709, 3062.775
726.2994, 3075.193
728.2278, 3073.084
730.1563, 3072.977
732.0848, 3085.780
734.0132, 3108.886
735.9417, 3119.399
737.8702, 3099.528
739.7986, 3080.862
741.7271, 3082.600
743.6556, 3113.733
745.5840, 3137.394
747.5125, 3156.047
749.4410, 3166.642
751.3694, 3160.946
753.2979, 3134.642
755.2264, 3122.186
757.1548, 3144.441
759.0833, 3177.208
761.0118, 3194.921
762.9402, 3187.060
764.8687, 3183.527
766.7972, 3184.784
768.7256, 3192.858
770.6541, 3214.461
772.5826, 3258.758
774.5110, 3295.206
776.4395, 3312.729
778.3680, 3316.869
780.2964, 3316.453
782.2249, 3307.944
784.1534, 3300.548
786.0818, 3299.721
788.0103, 3302.987
789.9388, 3296.982
791.8672, 3270.653
793.7957, 3248.783
795.7242, 3243.529
797.6526, 3250.450
799.5811, 3254.883
801.5096, 3253.428
803.4380, 3252.362
805.3665, 3253.119
807.2950, 3255.533
809.2234, 3262.371
811.1519, 3275.337
813.0804, 3289.353
815.0089, 3303.499
816.9373, 3316.877
818.8658, 3323.488
820.7943, 3314.068
822.7227, 3306.840
824.6512, 3312.889
826.5797, 3337.578
828.5081, 3356.993
830.4366, 3368.123
832.3651, 3378.462
834.2935, 3391.816
836.2220, 3408.013
838.1505, 3428.099
840.0789, 3452.455
842.0074, 3479.956
843.9359, 3508.475
845.8643, 3536.690
847.7928, 3572.095
849.7213, 3616.198
851.6497, 3666.835
853.5782, 3726.208
855.5067, 3799.704
857.4351, 3860.978
859.3636, 3895.327
861.2921, 3925.646
863.2205, 3972.320
865.1490, 4038.958
867.0775, 4089.403
869.0059, 4112.587
870.9344, 4119.771
872.8629, 4117.500
874.7913, 4103.472
876.7198, 4085.149
878.6483, 4062.799
880.5767, 4037.480
882.5052, 4005.634
884.4337, 3965.615
886.3621, 3941.599
888.2906, 3943.925
890.2191, 3960.829
892.1475, 3983.864
894.0760, 4010.894
896.0045, 4049.780
897.9329, 4096.794
899.8614, 4156.835
901.7899, 4237.993
903.7183, 4343.139
905.6468, 4446.660
907.5753, 4536.005
909.5037, 4630.379
911.4322, 4742.417
913.3607, 4873.416
915.2891, 5008.117
917.2176, 5150.839
919.1461, 5290.597
921.0745, 5422.332
923.0030, 5548.164
924.9315, 5655.442
926.8599, 5743.717
928.7884, 5815.190
930.7169, 5872.061
932.6453, 5915.216
934.5738, 5938.740
936.5023, 5948.498
938.4307, 5927.691
940.3592, 5863.846
942.2877, 5750.900
944.2161, 5630.799
946.1446, 5504.947
948.0731, 5371.665
950.0015, 5224.239
951.9300, 5065.525
953.8585, 4922.811
955.7869, 4797.182
957.7154, 4688.558
959.6439, 4601.745
961.5723, 4532.544
963.5008, 4462.878
965.4293, 4383.500
967.3577, 4313.489
969.2862, 4260.125
971.2147, 4221.139
973.1431, 4185.236
975.0716, 4146.265
977.0001, 4117.469
978.9285, 4109.576
980.8570, 4112.576
982.7855, 4105.803
984.7139, 4084.075
986.6424, 4064.960
988.5709, 4053.633
990.4993, 4048.440
992.4278, 4047.977
994.3563, 4057.659
996.2847, 4064.728
998.2132, 4064.682
1000.142, 4064.136
1002.070, 4071.870
1003.999, 4089.826
1005.927, 4105.182
1007.856, 4107.598
1009.784, 4111.259
1011.712, 4127.092
1013.641, 4155.290
1015.569, 4181.678
1017.498, 4208.498
1019.426, 4228.048
1021.355, 4235.281
1023.283, 4229.406
1025.212, 4222.597
1027.140, 4209.268
1029.069, 4202.354
1030.997, 4210.913
1032.926, 4231.985
1034.854, 4250.003
1036.782, 4266.120
1038.711, 4275.310
1040.639, 4270.774
1042.568, 4257.759
1044.496, 4248.085
1046.425, 4241.529
1048.353, 4240.001
1050.282, 4246.455
1052.210, 4257.817
1054.139, 4269.771
1056.067, 4282.785
1057.996, 4297.566
1059.924, 4316.986
1061.853, 4336.364
1063.781, 4351.910
1065.709, 4363.149
1067.638, 4368.166
1069.566, 4356.905
1071.495, 4348.215
1073.423, 4359.677
1075.352, 4391.505
1077.280, 4394.729
1079.209, 4333.063
1081.137, 4281.353
1083.066, 4267.964
1084.994, 4282.334
1086.923, 4284.058
1088.851, 4270.658
1090.780, 4251.525
1092.708, 4219.170
1094.637, 4187.214
1096.565, 4174.235
1098.494, 4184.136
1100.422, 4194.329
1102.350, 4205.122
1104.279, 4210.346
1106.207, 4201.158
1108.136, 4171.250
1110.064, 4159.082
1111.993, 4181.810
1113.921, 4203.456
1115.850, 4202.933
1117.778, 4184.288
1119.707, 4183.671
1121.635, 4216.016
1123.564, 4242.422
1125.492, 4254.125
1127.421, 4252.421
1129.349, 4235.156
1131.277, 4194.769
1133.206, 4172.481
1135.134, 4201.156
1137.063, 4235.984
1138.991, 4241.003
1140.920, 4207.257
1142.848, 4187.019
1144.777, 4190.946
1146.705, 4198.532
1148.634, 4198.345
1150.562, 4193.116
1152.491, 4202.344
1154.419, 4240.582
1156.348, 4269.319
1158.276, 4268.755
1160.204, 4257.084
1162.133, 4260.308
1164.061, 4280.847
1165.990, 4301.594
1167.918, 4324.829
1169.847, 4341.002
1171.775, 4339.473
1173.704, 4318.427
1175.632, 4309.908
1177.561, 4324.641
1179.489, 4341.613
1181.418, 4357.296
1183.346, 4370.455
1185.275, 4377.563
1187.203, 4376.231
1189.131, 4372.819
1191.060, 4361.903
1192.988, 4353.463
1194.917, 4361.325
1196.845, 4385.653
1198.774, 4404.279
1200.702, 4412.857
1202.631, 4418.279
1204.559, 4419.765
1206.488, 4419.894
1208.416, 4430.379
1210.345, 4456.525
1212.273, 4480.514
1214.202, 4502.677
1216.130, 4517.372
1218.058, 4515.930
1219.987, 4486.971
1221.915, 4475.477
1223.844, 4498.390
1225.772, 4523.312
1227.701, 4534.857
1229.629, 4535.217
1231.558, 4534.395
1233.486, 4529.193
1235.415, 4528.823
1237.343, 4533.300
1239.272, 4545.095
1241.200, 4570.030
1243.129, 4609.691
1245.057, 4640.037
1246.985, 4648.315
1248.914, 4655.321
1250.842, 4675.077
1252.771, 4703.200
1254.699, 4714.308
1256.628, 4690.837
1258.556, 4675.499
1260.485, 4678.676
1262.413, 4690.574
1264.342, 4702.646
1266.270, 4717.148
1268.199, 4726.610
1270.127, 4723.635
1272.056, 4723.963
1273.984, 4737.525
1275.912, 4757.939
1277.841, 4768.279
1279.769, 4763.270
1281.698, 4763.888
1283.626, 4783.674
1285.555, 4804.700
1287.483, 4811.480
1289.412, 4805.326
1291.340, 4807.268
1293.269, 4825.221
1295.197, 4842.572
1297.126, 4849.225
1299.054, 4852.796
1300.983, 4868.349
1302.911, 4908.242
1304.839, 4932.248
1306.768, 4927.402
1308.696, 4919.794
1310.625, 4924.663
1312.553, 4940.482
1314.482, 4953.645
1316.410, 4958.385
1318.339, 4970.153
1320.267, 4999.227
1322.196, 5030.539
1324.124, 5048.263
1326.053, 5052.897
1327.981, 5053.498
1329.910, 5048.468
1331.838, 5044.368
1333.766, 5047.027
1335.695, 5052.691
1337.623, 5051.780
1339.552, 5040.117
1341.480, 5046.853
1343.409, 5099.243
1345.337, 5147.731
1347.266, 5163.145
1349.194, 5151.523
1351.123, 5148.708
1353.051, 5167.021
1354.980, 5172.190
1356.908, 5146.681
1358.837, 5118.735
1360.765, 5112.679
1362.693, 5130.039
1364.622, 5146.794
1366.550, 5161.836
1368.479, 5179.804
1370.407, 5205.326
1372.336, 5232.907
1374.264, 5256.425
1376.193, 5275.859
1378.121, 5286.763
1380.050, 5275.874
1381.978, 5271.815
1383.907, 5297.671
1385.835, 5332.520
1387.764, 5340.759
1389.692, 5317.432
1391.620, 5302.708
1393.549, 5306.721
1395.477, 5319.394
1397.406, 5343.557
1399.334, 5373.215
1401.263, 5388.274
1403.191, 5387.981
1405.120, 5377.862
1407.048, 5337.823
1408.977, 5308.435
1410.905, 5318.542
1412.834, 5361.790
1414.762, 5396.358
1416.691, 5418.354
1418.619, 5436.653
1420.547, 5458.765
1422.476, 5472.311
1424.404, 5456.162
1426.333, 5413.375
1428.261, 5409.930
1430.190, 5484.844
1432.118, 5538.275
1434.047, 5540.755
1435.975, 5525.527
1437.904, 5519.053
1439.832, 5520.884
1441.761, 5528.605
1443.689, 5549.703
1445.618, 5563.365
1447.546, 5557.412
1449.474, 5548.034
1451.403, 5554.343
1453.331, 5574.248
1455.260, 5583.801
1457.188, 5572.926
1459.117, 5569.463
1461.045, 5585.515
1462.974, 5610.882
1464.902, 5639.446
1466.831, 5669.642
1468.759, 5686.054
1470.688, 5677.827
1472.616, 5674.167
1474.545, 5696.248
1476.473, 5720.128
1478.401, 5720.853
1480.330, 5698.716
1482.258, 5682.319
1484.187, 5671.379
1486.115, 5671.353
1488.044, 5692.708
1489.972, 5718.099
1491.901, 5726.219
1493.829, 5713.928
1495.758, 5720.485
1497.686, 5764.237
1499.615, 5800.597
1501.543, 5821.274
1503.472, 5833.193
1505.400, 5840.568
1507.328, 5843.944
1509.257, 5852.739
1511.185, 5878.625
1513.114, 5894.628
1515.042, 5883.135
1516.971, 5871.820
1518.899, 5888.231
1520.828, 5927.539
1522.756, 5946.585
1524.685, 5927.256
1526.613, 5920.226
1528.542, 5941.654
1530.470, 5969.168
1532.399, 5994.722
1534.327, 6015.654
1536.255, 6016.979
1538.184, 5991.818
1540.112, 5975.387
1542.041, 5983.542
1543.969, 5991.696
1545.898, 5971.042
1547.826, 5943.674
1549.755, 5966.926
1551.683, 6050.662
1553.612, 6108.566
1555.540, 6113.784
1557.469, 6109.258
1559.397, 6113.592
1561.326, 6121.430
1563.254, 6123.418
1565.182, 6119.275
1567.111, 6121.001
1569.039, 6133.364
1570.968, 6143.770
1572.896, 6147.397
1574.825, 6146.545
1576.753, 6139.971
1578.682, 6130.259
1580.610, 6135.430
1582.539, 6164.898
1584.467, 6188.250
1586.396, 6189.336
1588.324, 6188.075
1590.253, 6197.558
1592.181, 6214.791
1594.109, 6232.462
1596.038, 6251.481
1597.966, 6262.397
1599.895, 6252.966
1601.823, 6249.104
1603.752, 6274.097
1605.680, 6309.602
1607.609, 6321.753
1609.537, 6309.927
1611.466, 6292.859
1613.394, 6261.023
1615.323, 6244.759
1617.251, 6263.080
1619.180, 6293.654
1621.108, 6318.559
1623.036, 6336.569
1624.965, 6343.756
1626.893, 6333.345
1628.822, 6328.055
1630.750, 6341.629
1632.679, 6354.567
1634.607, 6354.212
1636.536, 6348.013
1638.464, 6353.777
1640.393, 6373.959
1642.321, 6397.458
1644.250, 6428.242
1646.178, 6453.045
1648.107, 6460.358
1650.035, 6462.386
1651.964, 6475.808
1653.892, 6499.078
1655.820, 6501.150
1657.749, 6466.048
1659.677, 6448.294
1661.606, 6480.141
1663.534, 6512.078
1665.463, 6517.373
1667.391, 6506.834
1669.320, 6501.360
1671.248, 6500.127
1673.177, 6511.354
1675.105, 6544.015
1677.034, 6573.871
1678.962, 6589.015
1680.891, 6600.103
1682.819, 6615.912
1684.747, 6635.242
1686.676, 6653.441
1688.604, 6670.883
1690.533, 6686.903
1692.461, 6708.597
1694.390, 6720.647
1696.318, 6704.865
1698.247, 6683.034
1700.175, 6693.101
1702.104, 6734.802
1704.032, 6744.176
1705.961, 6698.210
1707.889, 6668.336
1709.818, 6685.444
1711.746, 6710.139
1713.674, 6723.441
1715.603, 6728.522
1717.531, 6728.518
1719.460, 6722.019
1721.388, 6730.822
1723.317, 6768.680
1725.245, 6797.014
1727.174, 6795.778
1729.102, 6787.602
1731.031, 6787.239
1732.959, 6793.410
1734.888, 6799.751
1736.816, 6804.906
1738.745, 6827.040
1740.673, 6887.680
1742.601, 6929.537
1744.530, 6914.849
1746.458, 6882.572
1748.387, 6853.683
1750.315, 6834.711
1752.244, 6857.579
1754.172, 6931.877
1756.101, 6985.233
1758.029, 6999.560
1759.958, 7000.583
1761.886, 6992.902
1763.815, 6983.498
1765.743, 6978.212
1767.672, 6977.742
1769.600, 6985.522
1771.528, 7005.265
1773.457, 7015.089
1775.385, 6996.767
1777.314, 6990.440
1779.242, 7020.852
1781.171, 7064.655
1783.099, 7100.433
1785.028, 7127.582
1786.956, 7147.770
1788.885, 7159.913
1790.813, 7166.288
1792.742, 7159.005
1794.670, 7158.736
1796.599, 7184.290
1798.527, 7212.884
1800.455, 7221.630
1802.384, 7214.737
1804.312, 7208.806
1806.241, 7205.080
1808.169, 7199.699
1810.098, 7185.394
1812.026, 7179.570
1813.955, 7193.125
1815.883, 7212.225
1817.812, 7217.614
1819.740, 7218.590
1821.669, 7251.329
1823.597, 7333.138
1825.526, 7386.280
1827.454, 7388.316
1829.382, 7391.561
1831.311, 7408.478
1833.239, 7425.711
1835.168, 7439.620
1837.096, 7446.944
1839.025, 7435.168
1840.953, 7399.426
1842.882, 7388.042
1844.810, 7410.718
1846.739, 7437.710
1848.667, 7478.252
1850.596, 7503.040
1852.524, 7485.271
1854.453, 7453.187
1856.381, 7447.162
1858.309, 7463.356
1860.238, 7466.494
1862.166, 7453.342
1864.095, 7445.923
1866.023, 7445.363
1867.952, 7457.500
1869.880, 7496.778
1871.809, 7537.242
1873.737, 7547.420
1875.666, 7542.703
1877.594, 7567.031
1879.523, 7621.618
1881.451, 7652.595
1883.380, 7649.624
1885.308, 7635.061
1887.236, 7597.550
1889.165, 7571.019
1891.093, 7577.274
1893.022, 7604.030
1894.950, 7640.117
1896.879, 7683.618
1898.807, 7711.612
1900.736, 7715.054
1902.664, 7725.100
1904.593, 7770.589
1906.521, 7785.687
1908.450, 7711.599
1910.378, 7642.556
1912.307, 7670.985
1914.235, 7751.415
1916.163, 7774.758
1918.092, 7730.947
1920.020, 7718.604
1921.949, 7751.100
1923.877, 7778.984
1925.806, 7794.131
1927.734, 7802.270
1929.663, 7797.733
1931.591, 7793.910
1933.520, 7807.569
1935.448, 7831.100
1937.377, 7843.129
1939.305, 7844.113
1941.234, 7843.521
1943.162, 7840.822
1945.090, 7843.342
1947.019, 7857.495
1948.947, 7870.120
1950.876, 7864.567
1952.804, 7861.167
1954.733, 7888.928
1956.661, 7936.851
1958.590, 7964.330
1960.518, 7966.345
1962.447, 7978.222
1964.375, 8013.642
1966.304, 8038.483
1968.232, 8045.219
1970.161, 8043.577
1972.089, 8025.440
1974.017, 8010.139
1975.946, 8024.413
1977.874, 8058.983
1979.803, 8079.754
1981.731, 8086.739
1983.660, 8089.665
1985.588, 8086.365
1987.517, 8089.364
1989.445, 8100.245
1991.374, 8118.882
1993.302, 8156.152
1995.231, 8189.629
1997.159, 8191.237
1999.088, 8177.708
2001.016, 8185.623
2002.944, 8214.278
2004.873, 8238.131
2006.801, 8253.481
2008.730, 8272.530
2010.658, 8308.357
2012.587, 8332.592
2014.515, 8329.581
2016.444, 8319.438
2018.372, 8311.813
2020.301, 8308.643
2022.229, 8309.152
2024.158, 8314.348
2026.086, 8349.919
2028.015, 8429.457
2029.943, 8476.308
2031.871, 8469.771
2033.800, 8464.766
2035.728, 8476.354
2037.657, 8492.808
2039.585, 8508.149
2041.514, 8527.592
2043.442, 8566.021
2045.371, 8609.031
2047.299, 8614.147
2049.228, 8582.978
2051.156, 8581.147
2053.084, 8623.178
2055.013, 8656.069
2056.941, 8675.159
2058.870, 8680.813
2060.799, 8654.124
2062.727, 8635.886
2064.656, 8654.812
2066.584, 8693.486
2068.512, 8742.320
2070.441, 8791.518
2072.369, 8789.578
2074.298, 8731.767
2076.226, 8703.834
2078.155, 8716.542
2080.083, 8741.892
2082.012, 8786.935
2083.940, 8821.416
2085.869, 8817.154
2087.797, 8815.224
2089.726, 8849.551
2091.654, 8895.513
2093.583, 8919.742
2095.511, 8926.805
2097.439, 8936.742
2099.368, 8950.108
2101.296, 8963.088
2103.225, 8982.403
2105.153, 8991.846
2107.082, 8979.500
2109.010, 8976.246
2110.939, 8996.916
2112.867, 9021.122
2114.796, 9044.058
2116.724, 9059.604
2118.653, 9050.177
2120.581, 9030.794
2122.510, 9039.682
2124.438, 9075.356
2126.366, 9120.003
2128.295, 9180.073
2130.223, 9207.951
2132.152, 9158.088
2134.080, 9136.342
2136.009, 9187.856
2137.937, 9237.242
2139.866, 9252.627
2141.794, 9249.821
2143.723, 9233.123
2145.651, 9215.560
2147.580, 9222.880
2149.508, 9251.796
2151.437, 9276.294
2153.365, 9296.355
2155.293, 9321.379
2157.222, 9353.534
2159.150, 9381.122
2161.079, 9403.826
2163.007, 9414.318
2164.936, 9394.723
2166.864, 9380.530
2168.793, 9397.662
2170.721, 9423.958
2172.650, 9433.493
2174.578, 9437.024
2176.507, 9458.950
2178.435, 9497.337
2180.364, 9533.792
2182.292, 9568.981
2184.220, 9584.523
2186.149, 9574.483
2188.077, 9566.873
2190.006, 9567.540
2191.934, 9573.690
2193.863, 9591.063
2195.791, 9606.446
2197.720, 9609.412
2199.648, 9610.596
2201.577, 9620.106
2203.505, 9632.488
2205.434, 9638.055
2207.362, 9637.527
2209.291, 9640.593
2211.219, 9647.919
2213.147, 9642.047
2215.076, 9618.400
2217.004, 9615.155
2218.933, 9647.928
2220.861, 9676.643
2222.790, 9688.643
2224.718, 9696.604
2226.647, 9712.753
2228.575, 9718.200
2230.504, 9679.050
2232.432, 9640.055
2234.361, 9663.669
2236.289, 9723.653
2238.218, 9754.333
2240.146, 9760.670
2242.074, 9799.510
2244.003, 9870.786
2245.931, 9894.774
2247.860, 9854.287
2249.788, 9822.897
2251.717, 9812.253
2253.645, 9817.344
2255.574, 9854.335
2257.502, 9884.610
2259.431, 9888.043
2261.359, 9887.167
2263.288, 9898.696
2265.216, 9911.641
2267.145, 9914.483
2269.073, 9910.600
2271.001, 9898.452
2272.930, 9886.511
2274.858, 9910.226
2276.787, 9968.250
2278.715, 10013.82
2280.644, 10041.21
2282.572, 10063.11
2284.501, 10081.28
2286.429, 10087.33
2288.358, 10064.53
2290.286, 10051.27
2292.215, 10058.44
2294.143, 10077.13
2296.072, 10132.96
2298.000, 10167.99
2299.928, 10107.97
2301.857, 10033.79
2303.785, 10053.82
2305.714, 10119.52
2307.642, 10123.99
2309.571, 10082.06
2311.499, 10079.66
2313.428, 10120.89
2315.356, 10155.29
2317.285, 10184.23
2319.213, 10190.27
2321.142, 10155.35
2323.070, 10163.19
2324.999, 10242.21
2326.927, 10330.81
2328.855, 10452.52
2330.784, 10517.58
2332.712, 10455.81
2334.641, 10371.94
2336.569, 10318.33
2338.498, 10287.54
2340.426, 10280.63
2342.355, 10287.04
2344.283, 10289.11
2346.212, 10292.69
2348.140, 10317.79
2350.069, 10356.70
2351.997, 10369.13
2353.926, 10352.07
2355.854, 10368.71
2357.782, 10438.30
2359.711, 10480.11
2361.639, 10484.73
2363.568, 10478.64
2365.496, 10450.34
2367.425, 10446.12
2369.353, 10500.64
2371.282, 10532.76
2373.210, 10479.37
2375.139, 10442.48
2377.067, 10506.40
2378.996, 10571.24
2380.924, 10545.51
2382.853, 10497.91
2384.781, 10510.52
2386.709, 10544.64
2388.638, 10532.55
2390.566, 10493.63
2392.495, 10479.39
2394.423, 10485.78
2396.352, 10494.62
2398.280, 10506.32
2400.209, 10516.92
2402.137, 10525.76
2404.066, 10536.44
2405.994, 10542.64
2407.923, 10566.20
2409.851, 10622.60
2411.780, 10645.00
2413.708, 10605.15
2415.636, 10572.80
2417.565, 10578.13
2419.493, 10584.07
2421.422, 10567.89
2423.350, 10563.05
2425.279, 10591.95
2427.207, 10632.24
2429.136, 10684.10
2431.064, 10720.26
2432.993, 10694.84
2434.921, 10651.76
2436.850, 10644.53
2438.778, 10662.17
2440.707, 10698.10
2442.635, 10741.42
2444.563, 10753.77
2446.492, 10738.84
2448.420, 10716.12
2450.349, 10685.58
2452.277, 10689.08
2454.206, 10728.40
2456.134, 10750.79
2458.063, 10749.86
2459.991, 10745.44
2461.920, 10737.72
2463.848, 10730.66
2465.777, 10718.27
2467.705, 10717.66
2469.634, 10739.00
2471.562, 10758.09
2473.490, 10774.50
2475.419, 10779.21
2477.347, 10754.30
2479.276, 10738.43
2481.204, 10754.39
2483.133, 10778.90
2485.061, 10811.63
2486.990, 10830.08
2488.918, 10801.20
2490.847, 10766.44
2492.775, 10768.92
2494.704, 10791.82
2496.632, 10820.50
2498.561, 10850.94
2500.489, 10870.52
2502.417, 10885.71
2504.346, 10917.02
2506.274, 10957.03
2508.203, 10984.08
2510.131, 10996.65
2512.060, 10982.57
2513.988, 10947.49
2515.917, 10940.83
2517.845, 10967.48
2519.774, 10981.50
2521.702, 10982.79
2523.631, 10957.03
2525.559, 10880.07
2527.488, 10861.07
2529.416, 10923.32
2531.344, 10951.53
2533.273, 10920.44
2535.201, 10898.42
2537.130, 10913.63
2539.058, 10921.58
2540.987, 10900.92
2542.915, 10898.79
2544.844, 10935.50
2546.772, 10971.04
2548.701, 10990.88
2550.629, 11006.83
2552.558, 11019.62
2554.486, 11030.88
2556.415, 11041.44
2558.343, 11049.21
2560.271, 11052.41
2562.200, 11055.77
2564.128, 11070.31
2566.057, 11080.96
2567.985, 11069.32
2569.914, 11057.12
2571.842, 11062.90
2573.771, 11079.00
2575.699, 11105.79
2577.628, 11127.88
2579.556, 11112.66
2581.485, 11086.92
2583.413, 11107.54
2585.342, 11144.09
2587.270, 11131.77
2589.198, 11097.52
2591.127, 11109.49
2593.055, 11148.57
2594.984, 11142.26
2596.912, 11106.44
2598.841, 11131.27
2600.769, 11195.85
2602.698, 11203.56
2604.626, 11161.94
2606.555, 11139.44
2608.483, 11136.90
2610.412, 11144.33
2612.340, 11163.71
2614.269, 11183.84
2616.197, 11205.14
2618.125, 11206.76
2620.054, 11186.73
2621.982, 11186.58
2623.911, 11214.00
2625.839, 11228.73
2627.768, 11225.29
2629.696, 11225.49
2631.625, 11231.00
2633.553, 11235.42
2635.482, 11240.70
2637.410, 11232.21
2639.339, 11195.17
2641.267, 11189.12
2643.196, 11244.56
2645.124, 11264.21
2647.052, 11224.21
2648.981, 11219.34
2650.909, 11275.46
2652.838, 11310.51
2654.766, 11301.83
2656.695, 11287.03
2658.623, 11261.82
2660.552, 11254.10
2662.480, 11271.73
2664.409, 11299.14
2666.337, 11342.51
2668.266, 11366.07
2670.194, 11341.12
2672.123, 11328.19
2674.051, 11344.50
2675.979, 11366.47
2677.908, 11401.74
2679.836, 11414.45
2681.765, 11388.82
2683.693, 11359.24
2685.622, 11324.21
2687.550, 11310.19
2689.479, 11334.29
2691.407, 11364.79
2693.336, 11404.31
2695.264, 11426.58
2697.193, 11419.31
2699.121, 11400.08
2701.050, 11351.58
2702.978, 11329.96
2704.906, 11377.99
2706.835, 11418.37
2708.763, 11436.09
2710.692, 11436.15
2712.620, 11400.47
2714.549, 11388.74
2716.477, 11440.66
2718.406, 11490.91
2720.334, 11516.00
2722.263, 11531.00
2724.191, 11536.04
2726.120, 11535.83
2728.048, 11529.24
2729.977, 11524.87
2731.905, 11538.40
2733.833, 11539.76
2735.762, 11507.20
2737.690, 11485.10
2739.619, 11489.23
2741.547, 11496.61
2743.476, 11504.61
2745.404, 11502.88
2747.333, 11474.05
2749.261, 11457.12
2751.190, 11468.46
2753.118, 11478.42
2755.047, 11480.73
2756.975, 11476.23
2758.904, 11442.96
2760.832, 11441.52
2762.760, 11529.64
2764.689, 11577.56
2766.617, 11546.19
2768.546, 11518.65
2770.474, 11518.52
2772.403, 11517.03
2774.331, 11491.41
2776.260, 11488.64
2778.188, 11537.48
2780.117, 11552.38
2782.045, 11502.30
2783.974, 11489.56
2785.902, 11563.48
2787.831, 11610.78
2789.759, 11577.44
2791.688, 11585.37
2793.616, 11656.86
2795.544, 11693.29
2797.473, 11667.29
2799.401, 11660.74
2801.330, 11701.61
2803.258, 11719.75
2805.187, 11708.81
2807.115, 11697.67
2809.044, 11690.98
2810.972, 11677.45
2812.901, 11658.09
2814.829, 11622.52
2816.758, 11552.93
2818.686, 11557.14
2820.615, 11639.13
2822.543, 11696.88
2824.471, 11724.65
2826.400, 11721.38
2828.328, 11685.33
2830.257, 11663.96
2832.185, 11656.79
2834.114, 11682.42
2836.042, 11731.98
2837.971, 11739.60
2839.899, 11714.75
2841.828, 11713.74
2843.756, 11733.29
2845.685, 11756.85
2847.613, 11781.57
2849.542, 11791.90
2851.470, 11798.61
2853.398, 11844.38
2855.327, 11899.72
2857.255, 11901.84
2859.184, 11871.78
2861.112, 11830.25
2863.041, 11799.42
2864.969, 11813.60
2866.898, 11848.01
2868.826, 11886.70
2870.755, 11909.59
2872.683, 11869.43
2874.612, 11833.59
2876.540, 11884.13
2878.469, 11928.10
2880.397, 11873.23
2882.325, 11819.48
2884.254, 11845.41
2886.182, 11869.82
2888.111, 11843.05
2890.039, 11824.74
2891.968, 11855.15
2893.896, 11877.38
2895.825, 11863.83
2897.753, 11853.15
2899.682, 11850.85
2901.610, 11860.76
2903.539, 11892.76
2905.467, 11915.97
2907.396, 11915.61
2909.324, 11942.34
2911.252, 12011.09
2913.181, 12038.21
2915.109, 12001.92
2917.038, 11996.37
2918.966, 12037.27
2920.895, 12046.64
2922.823, 12026.30
2924.752, 12050.89
2926.680, 12115.24
2928.609, 12126.90
2930.537, 12096.20
2932.466, 12109.84
2934.394, 12150.42
2936.323, 12155.25
2938.251, 12140.25
2940.179, 12138.24
2942.108, 12142.42
2944.036, 12129.39
2945.965, 12125.24
2947.893, 12191.65
2949.822, 12251.98
2951.750, 12213.13
2953.679, 12163.76
2955.607, 12178.53
2957.536, 12204.22
2959.464, 12210.51
2961.393, 12219.01
2963.321, 12246.91
2965.250, 12263.77
2967.178, 12250.71
2969.106, 12237.77
2971.035, 12224.08
2972.963, 12238.20
2974.892, 12307.77
2976.820, 12350.25
2978.749, 12358.07
2980.677, 12340.71
2982.606, 12296.77
2984.534, 12276.30
2986.463, 12283.71
2988.391, 12284.74
2990.320, 12280.27
2992.248, 12264.86
2994.177, 12246.20
2996.105, 12254.29
2998.033, 12272.78
2999.962, 12244.17
3001.890, 12217.45
3003.819, 12292.08
3005.747, 12390.57
3007.676, 12450.83
3009.604, 12469.59
3011.533, 12407.66
3013.461, 12353.53
3015.390, 12369.03
3017.318, 12380.04
3019.247, 12347.81
3021.175, 12322.92
3023.104, 12335.08
3025.032, 12332.06
3026.960, 12300.49
3028.889, 12295.15
3030.817, 12332.03
3032.746, 12351.01
3034.674, 12347.08
3036.603, 12334.18
3038.531, 12314.12
3040.460, 12296.66
3042.388, 12285.24
3044.317, 12288.57
3046.245, 12303.98
3048.174, 12333.25
3050.102, 12356.92
3052.031, 12336.28
3053.959, 12307.39
3055.887, 12304.98
3057.816, 12316.59
3059.744, 12354.08
3061.673, 12370.58
3063.601, 12322.02
3065.530, 12289.70
3067.458, 12309.39
3069.387, 12324.77
3071.315, 12320.00
3073.244, 12341.10
3075.172, 12415.12
3077.101, 12422.95
3079.029, 12360.22
3080.958, 12352.05
3082.886, 12389.52
3084.814, 12389.48
3086.743, 12366.97
3088.671, 12362.66
3090.600, 12371.99
3092.528, 12378.81
3094.457, 12396.15
3096.385, 12456.13
3098.314, 12501.49
3100.242, 12454.72
3102.171, 12426.94
3104.099, 12487.91
3106.028, 12537.85
3107.956, 12559.47
3109.885, 12544.52
3111.813, 12488.59
3113.741, 12440.92
3115.670, 12405.81
3117.598, 12409.34
3119.527, 12448.51
3121.455, 12441.78
3123.384, 12403.31
3125.312, 12379.99
3127.241, 12372.10
3129.169, 12386.24
3131.098, 12412.03
3133.026, 12441.11
3134.955, 12472.88
3136.883, 12521.02
3138.812, 12548.64
3140.740, 12525.75
3142.668, 12505.49
3144.597, 12494.89
3146.525, 12502.18
3148.454, 12541.90
3150.382, 12548.46
3152.311, 12521.36
3154.239, 12513.16
3156.168, 12524.58
3158.096, 12557.63
3160.025, 12593.17
3161.953, 12573.77
3163.882, 12530.11
3165.810, 12495.61
3167.739, 12461.77
3169.667, 12403.89
3171.595, 12373.92
3173.524, 12405.03
3175.452, 12438.77
3177.381, 12461.66
3179.309, 12470.17
3181.238, 12460.62
3183.166, 12472.37
3185.095, 12506.21
3187.023, 12494.17
3188.952, 12447.91
3190.880, 12434.67
3192.809, 12445.36
3194.737, 12476.48
3196.666, 12503.19
3198.594, 12471.61
3200.522, 12464.85
3202.451, 12553.94
3204.379, 12627.21
3206.308, 12640.17
3208.236, 12620.75
3210.165, 12564.43
3212.093, 12535.37
3214.022, 12542.11
3215.950, 12560.40
3217.879, 12586.57
3219.807, 12580.15
3221.736, 12567.21
3223.664, 12612.85
3225.593, 12663.89
3227.521, 12645.17
3229.449, 12616.87
3231.378, 12608.54
3233.306, 12610.43
3235.235, 12630.23
3237.163, 12640.44
3239.092, 12639.26
3241.020, 12659.45
3242.949, 12708.21
3244.877, 12706.20
3246.806, 12668.29
3248.734, 12673.30
3250.663, 12697.82
3252.591, 12703.21
3254.520, 12705.00
3256.448, 12717.35
3258.376, 12736.64
3260.305, 12786.44
3262.233, 12793.76
3264.162, 12703.76
3266.090, 12685.79
3268.019, 12755.15
3269.947, 12772.88
3271.876, 12742.73
3273.804, 12763.62
3275.733, 12813.62
3277.661, 12848.44
3279.590, 12868.34
3281.518, 12865.80
3283.447, 12856.76
3285.375, 12842.30
3287.303, 12842.14
3289.232, 12871.11
3291.160, 12905.41
3293.089, 12948.59
3295.017, 12945.99
3296.946, 12906.20
3298.874, 12921.26
3300.803, 12962.17
3302.731, 12949.86
3304.660, 12927.16
3306.588, 12940.26
3308.517, 12957.68
3310.445, 12957.50
3312.374, 12967.12
3314.302, 12993.01
3316.230, 13034.36
3318.159, 13101.17
3320.087, 13094.34
3322.016, 13033.92
3323.944, 13019.15
3325.873, 13025.31
3327.801, 13002.26
3329.730, 12981.01
3331.658, 12983.97
3333.587, 13001.84
3335.515, 13048.37
3337.444, 13062.83
3339.372, 13029.74
3341.301, 13021.70
3343.229, 13043.89
3345.157, 13050.07
3347.086, 13037.32
3349.014, 12968.32
3350.943, 12909.73
3352.871, 12961.53
3354.800, 13023.00
3356.728, 13053.58
3358.657, 13046.19
3360.585, 12946.69
3362.514, 12941.44
3364.442, 13032.17
3366.371, 13020.93
3368.299, 12937.28
3370.228, 12905.34
3372.156, 12905.83
3374.084, 12915.27
3376.013, 12934.03
3377.941, 12966.88
3379.870, 12994.73
3381.798, 13009.79
3383.727, 13022.79
3385.655, 13037.39
3387.584, 12996.49
3389.512, 12921.38
3391.441, 12906.86
3393.369, 12919.02
3395.298, 12918.08
3397.226, 12913.87
3399.155, 12906.35
3401.083, 12909.48
3403.011, 12924.74
3404.940, 12960.58
3406.868, 13013.75
3408.797, 13006.81
3410.725, 12959.65
3412.654, 12941.03
3414.582, 12941.92
3416.511, 12962.22
3418.439, 12977.46
3420.368, 12960.88
3422.296, 12964.58
3424.225, 13002.54
3426.153, 13023.76
3428.082, 13024.22
3430.010, 13003.30
3431.938, 12978.29
3433.867, 12993.82
3435.795, 13016.80
3437.724, 13008.66
3439.652, 13003.72
3441.581, 13017.45
3443.509, 13031.63
3445.438, 13052.67
3447.366, 13014.88
3449.295, 12938.15
3451.223, 12903.60
3453.152, 12902.00
3455.080, 12936.21
3457.009, 12965.64
3458.937, 12955.49
3460.865, 12951.86
3462.794, 12967.41
3464.722, 12971.74
3466.651, 12962.54
3468.579, 12945.03
3470.508, 12923.99
3472.436, 12911.61
3474.365, 12899.29
3476.293, 12875.41
3478.222, 12857.05
3480.150, 12848.99
3482.079, 12848.92
3484.007, 12857.01
3485.936, 12884.23
3487.864, 12914.12
3489.792, 12892.64
3491.721, 12849.02
3493.649, 12796.14
3495.578, 12768.42
3497.506, 12801.35
3499.435, 12786.61
3501.363, 12698.41
3503.292, 12673.47
3505.220, 12697.43
3507.149, 12709.90
3509.077, 12704.94
3511.006, 12647.91
3512.934, 12617.07
3514.863, 12674.33
3516.791, 12714.15
3518.719, 12722.69
3520.648, 12695.07
3522.576, 12645.89
3524.505, 12648.18
3526.433, 12667.07
3528.362, 12657.57
3530.290, 12650.65
3532.219, 12666.50
3534.147, 12683.54
3536.076, 12701.93
3538.004, 12655.71
3539.933, 12566.54
3541.861, 12527.24
3543.790, 12516.44
3545.718, 12530.72
3547.646, 12523.54
3549.575, 12461.98
3551.503, 12439.66
3553.432, 12478.29
3555.360, 12505.50
3557.289, 12522.20
3559.217, 12531.51
3561.146, 12537.13
3563.074, 12546.20
3565.003, 12545.47
3566.931, 12535.05
3568.860, 12497.70
3570.788, 12437.22
3572.717, 12445.05
3574.645, 12484.74
3576.573, 12464.01
3578.502, 12448.54
3580.430, 12494.10
3582.359, 12520.80
3584.287, 12487.55
3586.216, 12476.98
3588.144, 12488.78
3590.073, 12533.69
3592.001, 12570.54
3593.930, 12514.58
3595.858, 12462.24
3597.787, 12476.68
3599.715, 12468.61
3601.644, 12427.51
3603.572, 12442.99
3605.500, 12493.64
3607.429, 12514.56
3609.357, 12517.95
3611.286, 12517.15
3613.214, 12498.07
3615.143, 12445.82
3617.071, 12441.28
3619.000, 12480.03
3620.928, 12453.88
3622.857, 12400.48
3624.785, 12381.37
3626.714, 12364.14
3628.642, 12312.84
3630.571, 12321.92
3632.499, 12404.01
3634.427, 12426.88
3636.356, 12409.79
3638.284, 12411.56
3640.213, 12427.33
3642.141, 12469.29
3644.070, 12492.39
3645.998, 12489.09
3647.927, 12444.69
3649.855, 12372.51
3651.784, 12327.38
3653.712, 12319.81
3655.641, 12400.26
3657.569, 12440.14
3659.498, 12384.58
3661.426, 12355.47
3663.354, 12366.44
3665.283, 12417.22
3667.211, 12464.29
3669.140, 12423.75
3671.068, 12386.19
3672.997, 12397.74
3674.925, 12421.81
3676.854, 12452.33
3678.782, 12455.69
3680.711, 12445.47
3682.639, 12464.93
3684.568, 12472.72
3686.496, 12432.42
3688.425, 12407.04
3690.353, 12415.99
3692.281, 12421.53
3694.210, 12422.94
3696.138, 12402.44
3698.067, 12390.00
3699.995, 12416.57
3701.924, 12439.19
3703.852, 12450.93
3705.781, 12406.06
3707.709, 12331.59
3709.638, 12336.93
3711.566, 12371.35
3713.495, 12417.10
3715.423, 12412.55
3717.352, 12320.73
3719.280, 12341.47
3721.208, 12442.01
3723.137, 12461.49
3725.065, 12443.96
3726.994, 12427.26
3728.922, 12390.74
3730.851, 12321.80
3732.779, 12358.16
3734.708, 12459.59
3736.636, 12389.95
3738.565, 12288.42
3740.493, 12272.56
3742.422, 12278.40
3744.350, 12289.88
3746.279, 12326.31
3748.207, 12375.52
3750.135, 12397.52
3752.064, 12398.78
3753.992, 12373.75
3755.921, 12354.83
3757.849, 12349.86
3759.778, 12376.16
3761.706, 12413.80
3763.635, 12373.13
3765.563, 12342.42
3767.492, 12416.93
3769.420, 12453.93
3771.349, 12426.12
3773.277, 12441.07
3775.206, 12468.76
3777.134, 12410.68
3779.063, 12363.53
3780.991, 12398.71
3782.919, 12428.40
3784.848, 12438.89
3786.776, 12417.09
3788.705, 12391.64
3790.633, 12421.91
3792.562, 12453.96
3794.490, 12467.06
3796.419, 12462.77
3798.347, 12442.74
3800.276, 12427.53
3802.204, 12421.43
3804.133, 12438.31
3806.061, 12443.36
3807.990, 12426.12
3809.918, 12411.98
3811.846, 12402.12
3813.775, 12374.20
3815.703, 12364.08
3817.632, 12429.91
3819.560, 12448.83
3821.489, 12400.15
3823.417, 12379.67
3825.346, 12383.33
3827.274, 12407.45
3829.203, 12428.08
3831.131, 12424.58
3833.060, 12436.64
3834.988, 12461.80
3836.917, 12446.68
3838.845, 12416.27
3840.773, 12401.22
3842.702, 12390.28
3844.630, 12376.18
3846.559, 12375.67
3848.487, 12387.63
3850.416, 12413.85
3852.344, 12434.56
3854.273, 12430.67
3856.201, 12442.42
3858.130, 12480.69
3860.058, 12430.53
3861.987, 12366.74
3863.915, 12437.26
3865.844, 12483.13
3867.772, 12429.07
3869.700, 12438.78
3871.629, 12502.28
3873.557, 12529.17
3875.486, 12523.97
3877.414, 12473.84
3879.343, 12425.38
3881.271, 12386.09
3883.200, 12379.62
3885.128, 12385.31
3887.057, 12359.25
3888.985, 12357.73
3890.914, 12405.01
3892.842, 12442.18
3894.771, 12458.43
3896.699, 12389.63
3898.627, 12335.58
3900.556, 12404.79
3902.484, 12436.23
3904.413, 12412.85
3906.341, 12407.87
3908.270, 12411.63
3910.198, 12420.34
3912.127, 12417.40
3914.055, 12380.76
3915.984, 12370.78
3917.912, 12389.35
3919.841, 12392.50
3921.769, 12390.42
3923.698, 12395.33
3925.626, 12396.43
3927.554, 12393.31
3929.483, 12388.41
3931.411, 12384.19
3933.340, 12391.19
3935.268, 12402.24
3937.197, 12409.92
3939.125, 12414.99
3941.054, 12404.76
3942.982, 12410.93
3944.911, 12414.59
3946.839, 12378.07
3948.768, 12363.64
3950.696, 12375.47
3952.625, 12389.29
3954.553, 12384.19
3956.481, 12342.07
3958.410, 12345.01
3960.338, 12394.39
3962.267, 12389.78
3964.195, 12368.55
3966.124, 12367.52
3968.052, 12353.84
3969.981, 12365.80
3971.909, 12392.20
3973.838, 12369.05
3975.766, 12328.67
3977.695, 12328.84
3979.623, 12335.81
3981.552, 12346.32
3983.480, 12365.41
3985.408, 12335.02
3987.337, 12337.12
3989.265, 12392.00
3991.194, 12444.25
3993.122, 12431.41
3995.051, 12340.52
3996.979, 12312.54
3998.908, 12322.25
4000.836, 12336.19
4002.765, 12344.89
4004.693, 12354.28
4006.622, 12375.13
4008.550, 12365.10
4010.479, 12352.51
4012.407, 12328.95
4014.335, 12311.27
4016.264, 12329.27
4018.192, 12370.97
4020.121, 12373.29
4022.049, 12353.77
4023.978, 12359.15
4025.906, 12356.86
4027.835, 12386.39
4029.763, 12379.54
4031.692, 12339.00
4033.620, 12358.18
4035.549, 12392.21
4037.477, 12399.25
4039.406, 12399.62
4041.334, 12397.60
4043.262, 12353.84
4045.191, 12335.00
4047.119, 12395.88
4049.048, 12446.44
4050.976, 12459.68
4052.905, 12441.67
4054.833, 12440.65
4056.762, 12448.52
4058.690, 12426.15
4060.619, 12405.02
4062.547, 12395.04
4064.476, 12390.06
4066.404, 12376.76
4068.333, 12393.45
4070.261, 12444.28
4072.189, 12401.58
4074.118, 12347.42
4076.046, 12443.51
4077.975, 12494.10
4079.903, 12439.94
4081.832, 12381.38
4083.760, 12348.70
4085.689, 12404.02
4087.617, 12430.95
4089.546, 12378.16
4091.474, 12384.87
4093.403, 12421.64
4095.331, 12400.40
4097.260, 12372.37
4099.188, 12360.49
4101.117, 12391.47
4103.045, 12443.41
4104.974, 12441.10
4106.902, 12428.98
4108.831, 12405.89
4110.759, 12420.94
4112.688, 12460.86
4114.616, 12453.72
4116.544, 12430.95
4118.473, 12386.09
4120.401, 12359.13
4122.330, 12358.97
4124.258, 12391.31
4126.187, 12427.08
4128.115, 12423.04
4130.043, 12400.35
4131.972, 12371.63
4133.900, 12372.24
4135.829, 12387.46
4137.757, 12364.40
4139.686, 12353.72
4141.614, 12378.24
4143.543, 12396.77
4145.471, 12428.43
4147.400, 12477.26
4149.328, 12492.99
4151.257, 12473.42
4153.185, 12477.92
4155.114, 12482.77
4157.042, 12474.34
4158.971, 12480.92
4160.899, 12503.42
4162.828, 12498.26
4164.756, 12468.50
4166.685, 12429.74
4168.613, 12404.55
4170.542, 12397.02
4172.470, 12422.57
4174.398, 12462.83
4176.327, 12449.54
4178.255, 12456.93
4180.184, 12515.84
4182.112, 12504.73
4184.041, 12455.81
4185.969, 12425.55
4187.897, 12427.68
4189.826, 12477.83
4191.754, 12487.57
4193.683, 12460.36
4195.611, 12468.86
4197.540, 12466.13
4199.468, 12427.73
4201.397, 12480.80
4203.325, 12556.11
4205.254, 12482.59
4207.182, 12426.84
4209.111, 12447.05
4211.039, 12449.82
4212.968, 12454.67
4214.896, 12539.95
4216.825, 12577.45
4218.753, 12524.59
4220.682, 12504.97
4222.610, 12508.92
4224.539, 12514.28
4226.467, 12525.64
4228.396, 12554.03
4230.324, 12533.08
4232.252, 12508.11
4234.181, 12593.24
4236.109, 12642.37
4238.038, 12605.99
4239.966, 12579.88
4241.895, 12571.17
4243.823, 12609.47
4245.751, 12611.02
4247.680, 12554.52
4249.608, 12557.55
4251.537, 12577.69
4253.465, 12553.67
4255.394, 12581.10
4257.322, 12674.11
4259.251, 12651.16
4261.179, 12609.71
4263.108, 12641.73
4265.036, 12646.30
4266.965, 12616.87
4268.893, 12636.05
4270.822, 12639.63
4272.750, 12571.89
4274.679, 12550.87
4276.607, 12578.57
4278.536, 12639.79
4280.464, 12667.34
4282.393, 12611.61
4284.321, 12628.34
4286.250, 12679.21
4288.178, 12634.26
4290.106, 12609.25
4292.035, 12644.97
4293.963, 12709.65
4295.892, 12770.40
4297.820, 12776.18
4299.749, 12765.28
4301.677, 12747.15
4303.605, 12730.06
4305.534, 12717.97
4307.462, 12711.29
4309.391, 12723.04
4311.319, 12748.91
4313.248, 12768.13
4315.176, 12762.50
4317.105, 12711.57
4319.033, 12721.97
4320.962, 12773.67
4322.890, 12769.63
4324.819, 12764.37
4326.747, 12777.67
4328.676, 12751.93
4330.604, 12725.97
4332.533, 12792.13
4334.461, 12820.66
4336.390, 12789.86
4338.318, 12806.08
4340.247, 12824.34
4342.175, 12783.19
4344.104, 12761.67
4346.032, 12770.21
4347.960, 12844.70
4349.889, 12882.56
4351.817, 12792.89
4353.746, 12773.72
4355.674, 12797.62
4357.603, 12780.96
4359.531, 12783.86
4361.459, 12823.97
4363.388, 12883.77
4365.316, 12929.53
4367.245, 12909.21
4369.173, 12915.05
4371.102, 12944.19
4373.030, 12843.35
4374.959, 12770.87
4376.887, 12826.95
4378.816, 12850.82
4380.744, 12840.31
4382.673, 12792.96
4384.601, 12775.00
4386.530, 12802.41
4388.458, 12874.27
4390.387, 12926.66
4392.315, 12892.49
4394.244, 12828.49
4396.172, 12774.08
4398.101, 12881.67
4400.029, 12967.01
4401.958, 12941.86
4403.886, 12913.28
4405.814, 12889.80
4407.743, 12872.80
4409.671, 12870.10
4411.600, 12878.72
4413.528, 12828.03
4415.457, 12788.10
4417.385, 12815.86
4419.313, 12864.08
4421.242, 12911.83
4423.170, 12909.97
4425.099, 12898.71
4427.027, 12889.19
4428.956, 12898.38
4430.884, 12896.19
4432.813, 12848.31
4434.741, 12828.03
4436.670, 12836.40
4438.598, 12852.96
4440.527, 12859.22
4442.455, 12845.86
4444.384, 12881.80
4446.312, 12929.56
4448.241, 12959.91
4450.169, 12927.28
4452.098, 12851.97
4454.026, 12842.94
4455.955, 12861.37
4457.883, 12899.52
4459.812, 12891.43
4461.740, 12871.99
4463.668, 12892.24
4465.597, 12884.30
4467.525, 12855.15
4469.454, 12932.66
4471.382, 12974.79
4473.311, 12917.47
4475.239, 12912.28
4477.167, 12924.02
4479.096, 12883.31
4481.024, 12883.58
4482.953, 12925.80
4484.881, 12942.22
4486.810, 12954.52
4488.738, 12976.14
4490.667, 12968.52
4492.595, 12941.40
4494.524, 12902.47
4496.452, 12864.22
4498.381, 12841.86
4500.309, 12924.66
4502.238, 12953.48
4504.166, 12873.30
4506.095, 12870.98
4508.023, 12889.39
4509.952, 12843.42
4511.880, 12867.13
4513.809, 12935.05
4515.737, 12925.87
4517.666, 12895.14
4519.594, 12856.39
4521.522, 12864.80
4523.451, 12874.15
4525.379, 12849.91
4527.308, 12811.06
4529.236, 12787.68
4531.165, 12864.64
4533.093, 12887.91
4535.021, 12834.87
4536.950, 12770.43
4538.878, 12779.44
4540.807, 12970.04
4542.735, 12991.08
4544.664, 12930.94
4546.592, 12899.88
4548.521, 12892.59
4550.449, 12895.95
4552.378, 12881.19
4554.306, 12827.61
4556.235, 12736.89
4558.163, 12776.32
4560.092, 12835.78
4562.020, 12802.26
4563.949, 12801.37
4565.877, 12819.71
4567.806, 12810.27
4569.734, 12811.15
4571.663, 12826.63
4573.591, 12872.15
4575.520, 12862.85
4577.448, 12762.67
4579.376, 12749.00
4581.305, 12791.39
4583.233, 12879.06
4585.162, 12904.26
4587.090, 12884.41
4589.019, 12875.48
4590.947, 12858.85
4592.875, 12828.96
4594.804, 12783.17
4596.732, 12756.92
4598.661, 12768.78
4600.589, 12789.58
4602.518, 12806.98
4604.446, 12808.98
4606.375, 12796.33
4608.303, 12778.32
4610.232, 12776.77
4612.160, 12788.41
4614.089, 12807.19
4616.017, 12785.03
4617.946, 12782.41
4619.874, 12828.16
4621.803, 12848.78
4623.731, 12834.47
4625.660, 12750.08
4627.588, 12745.09
4629.517, 12781.41
4631.445, 12773.45
4633.374, 12772.05
4635.302, 12781.91
4637.230, 12785.18
4639.159, 12771.75
4641.087, 12736.60
4643.016, 12769.83
4644.944, 12799.16
4646.873, 12767.36
4648.801, 12799.65
4650.729, 12855.55
4652.658, 12902.34
4654.586, 12838.74
4656.515, 12733.61
4658.443, 12773.89
4660.372, 12836.31
4662.300, 12882.59
4664.229, 12839.54
4666.157, 12797.49
4668.086, 12788.74
4670.014, 12741.95
4671.943, 12696.86
4673.871, 12677.04
4675.800, 12726.17
4677.728, 12773.25
4679.657, 12713.31
4681.585, 12682.61
4683.514, 12680.06
4685.442, 12691.57
4687.371, 12624.57
4689.299, 12516.56
4691.228, 12634.18
4693.156, 12731.89
4695.084, 12720.45
4697.013, 12696.64
4698.941, 12692.49
4700.870, 12725.23
4702.798, 12837.30
4704.727, 12901.50
4706.655, 12750.05
4708.583, 12671.15
4710.512, 12652.41
4712.440, 12663.55
4714.369, 12661.65
4716.297, 12647.80
4718.226, 12634.77
4720.154, 12649.06
4722.083, 12681.37
4724.011, 12628.31
4725.940, 12603.22
4727.868, 12636.56
4729.797, 12632.03
4731.725, 12630.45
4733.654, 12653.79
4735.582, 12631.50
4737.511, 12617.92
4739.439, 12674.77
4741.368, 12621.30
4743.296, 12551.16
4745.225, 12582.04
4747.153, 12617.10
4749.082, 12632.77
4751.010, 12593.04
4752.938, 12577.46
4754.867, 12579.22
4756.795, 12521.41
4758.724, 12560.09
4760.652, 12672.05
4762.581, 12612.08
4764.509, 12568.89
4766.438, 12601.00
4768.366, 12673.57
4770.294, 12726.42
4772.223, 12736.17
4774.151, 12678.78
4776.080, 12634.18
4778.008, 12661.77
4779.937, 12644.13
4781.865, 12610.97
4783.794, 12582.70
4785.722, 12628.31
4787.651, 12673.85
4789.579, 12602.58
4791.508, 12630.79
4793.436, 12681.91
4795.365, 12621.39
4797.293, 12567.09
4799.222, 12540.29
4801.150, 12559.92
4803.079, 12574.85
4805.007, 12575.00
4806.936, 12537.15
4808.864, 12540.64
4810.792, 12581.54
4812.721, 12616.22
4814.649, 12599.74
4816.578, 12538.22
4818.506, 12546.32
4820.435, 12537.22
4822.363, 12493.90
4824.292, 12454.33
4826.220, 12460.49
4828.148, 12527.29
4830.077, 12535.29
4832.005, 12529.37
4833.934, 12528.85
4835.862, 12508.28
4837.791, 12515.34
4839.719, 12584.95
4841.648, 12573.55
4843.576, 12545.11
4845.505, 12538.23
4847.433, 12496.87
4849.362, 12468.62
4851.290, 12492.10
4853.219, 12555.33
4855.147, 12587.22
4857.076, 12526.31
4859.004, 12491.19
4860.933, 12468.98
4862.861, 12434.49
4864.790, 12456.84
4866.718, 12500.94
4868.646, 12539.66
4870.575, 12500.90
4872.503, 12456.24
4874.432, 12509.30
4876.360, 12439.73
4878.289, 12335.17
4880.217, 12319.32
4882.146, 12345.62
4884.074, 12374.34
4886.002, 12357.04
4887.931, 12343.71
4889.859, 12345.68
4891.788, 12387.46
4893.716, 12357.21
4895.645, 12313.79
4897.573, 12358.80
4899.502, 12402.45
4901.430, 12420.17
4903.359, 12379.82
4905.287, 12372.97
4907.216, 12365.40
4909.144, 12274.78
4911.073, 12281.30
4913.001, 12328.79
4914.930, 12299.07
4916.858, 12272.44
4918.787, 12257.45
4920.715, 12255.68
4922.644, 12257.54
4924.572, 12271.72
4926.500, 12326.44
4928.429, 12301.02
4930.357, 12247.66
4932.286, 12244.79
4934.214, 12289.39
4936.143, 12309.34
4938.071, 12191.79
4940.000, 12234.44
4941.928, 12329.94
4943.856, 12315.13
4945.785, 12274.82
4947.713, 12242.35
4949.642, 12253.66
4951.570, 12241.54
4953.499, 12219.07
4955.427, 12201.91
4957.356, 12195.37
4959.284, 12186.65
4961.213, 12163.16
4963.141, 12141.50
4965.070, 12146.91
4966.998, 12197.40
4968.927, 12166.55
4970.855, 12137.53
4972.784, 12171.31
4974.712, 12179.75
4976.641, 12165.51
4978.569, 12133.36
4980.498, 12095.94
4982.426, 12050.30
4984.354, 12003.62
4986.283, 12045.86
4988.211, 12075.58
4990.140, 12051.66
4992.068, 12037.94
4993.997, 12032.42
4995.925, 12034.47
4997.854, 12078.48
4999.782, 12043.02
5001.710, 11939.21
5003.639, 11950.12
5005.567, 11981.83
5007.496, 12005.10
5009.424, 11989.90
5011.353, 12022.70
5013.281, 12069.89
5015.210, 12023.39
5017.138, 12018.14
5019.067, 12021.11
5020.995, 11940.31
5022.924, 11907.22
5024.852, 11909.49
5026.781, 11922.83
5028.709, 11885.17
5030.638, 11854.76
5032.566, 11897.58
5034.495, 11927.42
5036.423, 11936.81
5038.352, 11922.09
5040.280, 11851.02
5042.208, 11843.16
5044.137, 11944.88
5046.065, 11897.47
5047.994, 11878.38
5049.922, 11935.49
5051.851, 11921.46
5053.779, 11922.88
5055.708, 11933.45
5057.636, 11844.30
5059.564, 11784.99
5061.493, 11766.21
5063.421, 11747.56
5065.350, 11774.42
5067.278, 11812.29
5069.207, 11801.12
5071.135, 11844.92
5073.064, 11880.31
5074.992, 11828.67
5076.921, 11831.59
5078.849, 11827.62
5080.778, 11773.25
5082.706, 11761.97
5084.635, 11727.94
5086.563, 11656.32
5088.492, 11651.10
5090.420, 11667.66
5092.349, 11690.42
5094.277, 11740.91
5096.206, 11665.91
5098.134, 11542.96
5100.063, 11607.71
5101.991, 11638.25
5103.919, 11636.51
5105.848, 11661.71
5107.776, 11577.25
5109.705, 11497.31
5111.633, 11520.67
5113.562, 11499.38
5115.490, 11464.82
5117.418, 11436.91
5119.347, 11447.18
5121.275, 11467.43
5123.204, 11475.98
5125.132, 11393.65
5127.061, 11379.03
5128.989, 11429.56
5130.918, 11492.36
5132.846, 11451.15
5134.775, 11383.14
5136.703, 11402.17
5138.632, 11291.87
5140.560, 11222.47
5142.489, 11328.43
5144.417, 11292.12
5146.346, 11231.62
5148.274, 11191.73
5150.203, 11162.18
5152.131, 11162.64
5154.060, 11178.25
5155.988, 11164.99
5157.917, 11148.09
5159.845, 11134.59
5161.773, 11132.24
5163.702, 11078.50
5165.630, 11065.27
5167.559, 11145.97
5169.487, 11151.40
5171.416, 11132.04
5173.344, 11112.98
5175.272, 11116.67
5177.201, 11084.10
5179.129, 11029.97
5181.058, 11008.81
5182.986, 11005.30
5184.915, 11006.67
5186.843, 11000.59
5188.772, 11010.54
5190.700, 11000.81
5192.629, 10953.58
5194.557, 10902.00
5196.486, 10925.60
5198.414, 10990.45
5200.343, 10907.62
5202.271, 10853.63
5204.200, 10842.79
5206.128, 10873.09
5208.057, 10856.54
5209.985, 10834.03
5211.914, 10834.67
5213.842, 10864.76
5215.771, 10856.41
5217.699, 10813.59
5219.627, 10847.58
5221.556, 10861.28
5223.484, 10855.53
5225.413, 10866.26
5227.341, 10814.63
5229.270, 10772.68
5231.198, 10789.04
5233.126, 10760.73
5235.055, 10741.22
5236.983, 10741.70
5238.912, 10741.52
5240.840, 10696.03
5242.769, 10643.14
5244.697, 10653.51
5246.626, 10628.50
5248.554, 10630.20
5250.483, 10691.56
5252.411, 10648.78
5254.340, 10628.31
5256.268, 10645.70
5258.197, 10622.18
5260.125, 10603.93
5262.054, 10590.36
5263.982, 10573.14
5265.911, 10563.46
5267.839, 10550.83
5269.768, 10536.06
5271.696, 10584.25
5273.625, 10542.72
5275.553, 10465.56
5277.481, 10554.15
5279.410, 10600.18
5281.338, 10585.77
5283.267, 10500.56
5285.195, 10501.52
5287.124, 10514.35
5289.052, 10503.92
5290.980, 10423.56
5292.909, 10404.92
5294.837, 10418.62
5296.766, 10405.30
5298.694, 10395.24
5300.623, 10392.79
5302.551, 10398.17
5304.480, 10388.50
5306.408, 10371.41
5308.337, 10353.20
5310.265, 10340.75
5312.194, 10316.64
5314.122, 10336.10
5316.051, 10424.68
5317.979, 10377.70
5319.908, 10352.36
5321.836, 10368.25
5323.765, 10355.86
5325.693, 10378.61
5327.622, 10380.91
5329.550, 10323.29
5331.479, 10372.58
5333.407, 10357.79
5335.335, 10275.49
5337.264, 10288.71
5339.192, 10306.22
5341.121, 10312.25
5343.049, 10301.29
5344.978, 10286.22
5346.906, 10286.85
5348.834, 10292.46
5350.763, 10247.79
5352.691, 10220.48
5354.620, 10200.45
5356.548, 10169.22
5358.477, 10157.23
5360.405, 10161.03
5362.334, 10167.05
5364.262, 10127.74
5366.191, 10133.32
5368.119, 10155.17
5370.048, 10156.67
5371.976, 10164.46
5373.905, 10169.05
5375.833, 10157.01
5377.762, 10073.24
5379.690, 10111.76
5381.619, 10170.42
5383.547, 10139.72
5385.476, 10183.39
5387.404, 10156.78
5389.333, 10071.91
5391.261, 10059.91
5393.189, 10088.22
5395.118, 10101.27
5397.046, 10069.81
5398.975, 10101.21
5400.903, 10066.31
5402.832, 9993.702
5404.760, 10017.35
5406.688, 9993.250
5408.617, 9945.973
5410.545, 9898.753
5412.474, 9885.391
5414.402, 9921.976
5416.331, 9959.509
5418.259, 9933.923
5420.188, 9888.388
5422.116, 9865.981
5424.045, 9878.668
5425.973, 9914.955
5427.902, 9912.235
5429.830, 9881.038
5431.759, 9839.290
5433.687, 9909.483
5435.616, 9928.766
5437.544, 9890.620
5439.473, 9880.229
5441.401, 9868.029
5443.330, 9858.382
5445.258, 9849.905
5447.187, 9800.193
5449.115, 9747.427
5451.043, 9705.492
5452.972, 9668.805
5454.900, 9853.081
5456.829, 9861.399
5458.757, 9701.991
5460.686, 9813.510
5462.614, 9769.066
5464.542, 9718.710
5466.471, 9782.892
5468.399, 9750.618
5470.328, 9745.690
5472.256, 9767.482
5474.185, 9776.113
5476.113, 9769.544
5478.042, 9748.697
5479.970, 9718.914
5481.899, 9688.823
5483.827, 9696.671
5485.756, 9689.179
5487.684, 9637.869
5489.613, 9617.599
5491.541, 9586.703
5493.470, 9582.584
5495.398, 9670.186
5497.327, 9617.219
5499.255, 9591.104
5501.184, 9612.854
5503.112, 9580.337
5505.041, 9555.685
5506.969, 9548.615
5508.897, 9559.352
5510.826, 9597.140
5512.754, 9555.900
5514.683, 9493.649
5516.611, 9477.799
5518.540, 9469.795
5520.468, 9443.014
5522.396, 9424.341
5524.325, 9482.029
5526.253, 9456.323
5528.182, 9455.556
5530.110, 9486.307
5532.039, 9435.956
5533.967, 9472.032
5535.896, 9482.900
5537.824, 9424.437
5539.753, 9466.486
5541.681, 9463.899
5543.610, 9435.205
5545.538, 9416.544
5547.467, 9463.675
5549.395, 9460.997
5551.324, 9428.274
5553.252, 9437.939
5555.181, 9422.124
5557.109, 9381.033
5559.038, 9329.962
5560.966, 9291.787
5562.895, 9377.217
5564.823, 9371.808
5566.751, 9259.738
5568.680, 9286.365
5570.608, 9331.212
5572.537, 9334.256
5574.465, 9280.495
5576.394, 9232.163
5578.322, 9254.522
5580.250, 9282.753
5582.179, 9264.348
5584.107, 9227.101
5586.036, 9229.423
5587.964, 9246.445
5589.893, 9240.236
5591.821, 9250.916
5593.750, 9283.795
5595.678, 9294.666
5597.607, 9231.863
5599.535, 9197.192
5601.464, 9162.530
5603.392, 9133.627
5605.321, 9140.422
5607.249, 9115.841
5609.178, 9137.306
5611.106, 9185.771
5613.035, 9128.940
5614.963, 9184.270
5616.892, 9223.858
5618.820, 9203.628
5620.749, 9164.237
5622.677, 9149.049
5624.605, 9166.663
5626.534, 9184.342
5628.462, 9082.272
5630.391, 9123.457
5632.319, 9135.061
5634.248, 9059.134
5636.176, 9151.733
5638.104, 9077.156
5640.033, 9032.236
5641.961, 9121.215
5643.890, 9159.875
5645.818, 9088.471
5647.747, 9045.596
5649.675, 9097.890
5651.604, 9115.023
5653.532, 9092.142
5655.461, 9083.693
5657.389, 9110.917
5659.318, 9078.107
5661.246, 9129.109
5663.175, 9167.417
5665.103, 9135.367
5667.032, 9172.888
5668.960, 9147.759
5670.889, 9093.109
5672.817, 9053.618
5674.746, 9109.384
5676.674, 9087.188
5678.603, 9031.634
5680.531, 8988.501
5682.459, 8925.486
5684.388, 8932.588
5686.316, 8955.033
5688.245, 8959.313
5690.173, 9010.010
5692.102, 8975.350
5694.030, 8963.219
5695.958, 9011.163
5697.887, 8974.316
5699.815, 8874.563
5701.744, 8852.009
5703.672, 8922.848
5705.601, 8879.907
5707.529, 8875.052
5709.458, 8881.099
5711.386, 8869.323
5713.315, 8805.241
5715.243, 8814.169
5717.172, 8824.026
5719.100, 8805.874
5721.029, 8762.390
5722.957, 8784.768
5724.886, 8824.535
5726.814, 8833.926
5728.743, 8765.628
5730.671, 8858.030
5732.600, 8833.045
5734.528, 8739.888
5736.457, 8758.479
5738.385, 8734.544
5740.313, 8759.774
5742.242, 8792.806
5744.170, 8771.227
5746.099, 8793.076
5748.027, 8740.927
5749.956, 8675.312
5751.884, 8665.701
5753.813, 8721.671
5755.741, 8718.142
5757.669, 8704.955
5759.598, 8712.828
5761.526, 8667.406
5763.455, 8650.691
5765.383, 8643.229
5767.312, 8634.202
5769.240, 8631.303
5771.169, 8648.225
5773.097, 8646.713
5775.026, 8645.535
5776.954, 8696.041
5778.883, 8653.954
5780.811, 8585.221
5782.740, 8541.238
5784.668, 8544.379
5786.597, 8511.505
5788.525, 8478.971
5790.454, 8490.181
5792.382, 8548.393
5794.311, 8536.993
5796.239, 8504.796
5798.167, 8488.758
5800.096, 8478.160
5802.024, 8360.600
5803.953, 8452.282
5805.881, 8470.606
5807.810, 8399.438
5809.738, 8398.490
5811.667, 8408.647
5813.595, 8410.639
5815.523, 8416.208
5817.452, 8435.415
5819.380, 8404.930
5821.309, 8422.558
5823.237, 8419.170
5825.166, 8375.365
5827.094, 8389.813
5829.023, 8385.321
5830.951, 8379.776
5832.880, 8356.441
5834.808, 8284.063
5836.737, 8373.354
5838.665, 8373.508
5840.594, 8276.950
5842.522, 8167.657
5844.451, 8273.980
5846.379, 8264.126
5848.308, 8217.785
5850.236, 8192.539
5852.165, 8143.088
5854.093, 8187.240
5856.021, 8205.964
5857.950, 8179.936
5859.878, 8140.383
5861.807, 8114.986
5863.735, 8147.886
5865.664, 8192.295
5867.592, 8213.367
5869.521, 8223.836
5871.449, 8209.970
5873.377, 8151.424
5875.306, 8118.126
5877.234, 8226.847
5879.163, 8118.523
5881.091, 8094.729
5883.020, 8140.705
5884.948, 8173.267
5886.877, 8130.958
5888.805, 8017.408
5890.734, 8016.910
5892.662, 8093.907
5894.591, 8085.969
5896.519, 8053.775
5898.448, 8049.268
5900.376, 8042.529
5902.305, 8017.467
5904.233, 8031.880
5906.162, 8048.351
5908.090, 7991.181
5910.019, 7942.884
5911.947, 8037.167
5913.875, 8023.188
5915.804, 7994.146
5917.732, 7989.305
5919.661, 7998.789
5921.589, 7939.003
5923.518, 8001.055
5925.446, 7983.972
5927.375, 7931.198
5929.303, 7965.946
5931.231, 7898.921
5933.160, 7855.597
5935.088, 7889.337
5937.017, 7969.885
5938.945, 7986.158
5940.874, 7953.287
5942.802, 7922.601
5944.731, 7921.177
5946.659, 7941.021
5948.588, 7863.938
5950.516, 7866.253
5952.445, 7880.890
5954.373, 7890.730
5956.302, 7919.702
5958.230, 7873.515
5960.159, 7882.059
5962.087, 7863.513
5964.016, 7798.437
5965.944, 7780.609
5967.873, 7812.045
5969.801, 7852.240
5971.729, 7816.957
5973.658, 7702.639
5975.586, 7756.649
5977.515, 7734.298
5979.443, 7724.095
5981.372, 7738.424
5983.300, 7744.991
5985.229, 7758.076
5987.157, 7716.796
5989.085, 7713.331
5991.014, 7732.286
5992.942, 7686.633
5994.871, 7784.312
5996.799, 7758.031
5998.728, 7713.110
6000.656, 7727.712
6002.585, 7752.108
6004.513, 7694.425
6006.442, 7676.769
6008.370, 7700.669
6010.299, 7718.472
6012.227, 7662.938
6014.156, 7705.675
6016.084, 7675.143
6018.013, 7619.106
6019.941, 7630.654
6021.870, 7718.491
6023.798, 7633.682
6025.727, 7640.666
6027.655, 7695.028
6029.583, 7662.175
6031.512, 7617.722
6033.440, 7603.814
6035.369, 7610.604
6037.297, 7620.443
6039.226, 7623.269
6041.154, 7652.293
6043.083, 7607.100
6045.011, 7648.685
6046.939, 7676.159
6048.868, 7519.164
6050.796, 7501.983
6052.725, 7634.742
6054.653, 7671.689
6056.582, 7647.835
6058.510, 7729.024
6060.439, 7683.639
6062.367, 7592.862
6064.296, 7534.583
6066.224, 7539.166
6068.153, 7594.336
6070.081, 7651.900
6072.010, 7624.054
6073.938, 7558.147
6075.867, 7509.907
6077.795, 7507.559
6079.724, 7513.377
6081.652, 7486.156
6083.581, 7475.511
6085.509, 7482.125
6087.438, 7478.501
6089.366, 7466.776
6091.294, 7458.921
6093.223, 7482.906
6095.151, 7487.667
6097.080, 7431.153
6099.008, 7422.513
6100.937, 7515.268
6102.865, 7695.362
6104.793, 7699.451
6106.722, 7440.112
6108.650, 7466.828
6110.579, 7445.639
6112.507, 7446.064
6114.436, 7413.437
6116.364, 7349.448
6118.293, 7437.396
6120.221, 7443.166
6122.150, 7390.770
6124.078, 7358.925
6126.007, 7370.527
6127.935, 7379.957
6129.864, 7431.626
6131.792, 7411.897
6133.721, 7359.346
6135.649, 7317.083
6137.578, 7298.796
6139.506, 7315.058
6141.435, 7346.538
6143.363, 7308.968
6145.292, 7307.702
6147.220, 7423.509
6149.148, 7342.278
6151.077, 7309.721
6153.005, 7329.862
6154.934, 7337.133
6156.862, 7296.442
6158.791, 7243.262
6160.719, 7278.471
6162.647, 7276.697
6164.576, 7265.942
6166.504, 7273.931
6168.433, 7284.713
6170.361, 7233.712
6172.290, 7227.971
6174.218, 7236.599
6176.147, 7239.622
6178.075, 7241.021
6180.004, 7261.586
6181.932, 7238.083
6183.861, 7216.816
6185.789, 7219.735
6187.718, 7225.400
6189.646, 7181.126
6191.575, 7158.015
6193.503, 7214.316
6195.432, 7230.070
6197.360, 7214.937
6199.289, 7237.936
6201.217, 7221.471
6203.146, 7183.952
6205.074, 7134.130
6207.002, 7118.860
6208.931, 7146.449
6210.859, 7175.758
6212.788, 7160.688
6214.716, 7132.305
6216.645, 7154.038
6218.573, 7164.692
6220.501, 7109.189
6222.430, 7194.581
6224.358, 7080.230
6226.287, 7085.570
6228.215, 7147.190
6230.144, 7161.975
6232.072, 7121.393
6234.001, 7058.998
6235.929, 7080.494
6237.858, 7111.750
6239.786, 7081.712
6241.715, 7018.958
6243.643, 7069.485
6245.572, 7043.988
6247.500, 6946.767
6249.429, 7131.561
6251.357, 7288.504
6253.286, 7058.656
6255.214, 6991.515
6257.143, 7009.718
6259.071, 6987.334
6261.000, 7003.242
6262.928, 7028.010
6264.856, 6963.101
6266.785, 6963.644
6268.713, 6962.640
6270.642, 6964.519
6272.570, 6968.055
6274.499, 6985.815
6276.427, 7032.202
6278.355, 6962.158
6280.284, 6995.982
6282.212, 6948.337
6284.141, 6939.788
6286.069, 7007.254
6287.998, 6918.701
6289.926, 6914.173
6291.855, 6917.163
6293.783, 6896.537
6295.712, 6907.842
6297.640, 6967.369
6299.569, 6996.910
6301.497, 7016.108
6303.426, 6944.323
6305.354, 6874.175
6307.283, 6859.664
6309.211, 6878.472
6311.140, 6857.452
6313.068, 6837.796
6314.997, 6843.016
6316.925, 6830.416
6318.854, 6837.143
6320.782, 6867.000
6322.710, 6843.585
6324.639, 6850.568
6326.567, 6794.937
6328.496, 6781.468
6330.424, 6771.135
6332.353, 6763.475
6334.281, 6853.709
6336.209, 6819.664
6338.138, 6789.302
6340.066, 6765.027
6341.995, 6765.832
6343.923, 6792.009
6345.852, 6815.153
6347.780, 6782.277
6349.709, 6863.533
6351.637, 6792.124
6353.566, 6730.028
6355.494, 6758.749
6357.423, 6789.038
6359.351, 6756.335
6361.280, 6773.669
6363.208, 6757.754
6365.137, 6752.942
6367.065, 6740.432
6368.994, 6706.205
6370.922, 6739.216
6372.851, 6727.784
6374.779, 6707.340
6376.708, 6727.798
6378.636, 6748.885
6380.564, 6732.976
6382.493, 6695.656
6384.421, 6660.663
6386.350, 6750.981
6388.278, 6747.371
6390.207, 6700.848
6392.135, 6688.613
6394.063, 6707.928
6395.992, 6683.865
6397.920, 6696.002
6399.849, 6632.647
6401.777, 6639.113
6403.706, 6665.345
6405.634, 6644.953
6407.563, 6634.917
6409.491, 6581.353
6411.420, 6674.157
6413.348, 6639.465
6415.277, 6578.905
6417.205, 6583.585
6419.134, 6614.127
6421.062, 6590.622
6422.991, 6615.583
6424.919, 6540.487
6426.848, 6573.153
6428.776, 6610.860
6430.705, 6544.877
6432.633, 6443.526
6434.562, 6603.872
6436.490, 6534.846
6438.418, 6484.903
6440.347, 6496.855
6442.275, 6539.363
6444.204, 6563.011
6446.132, 6527.753
6448.061, 6567.782
6449.989, 6496.414
6451.917, 6506.032
6453.846, 6503.819
6455.774, 6454.440
6457.703, 6417.615
6459.631, 6440.813
6461.560, 6451.377
6463.488, 6464.138
6465.417, 6465.739
6467.345, 6485.157
6469.274, 6472.860
6471.202, 6405.291
6473.131, 6393.801
6475.059, 6520.047
6476.988, 6466.565
6478.916, 6445.900
6480.845, 6404.170
6482.773, 6406.294
6484.702, 6478.472
6486.630, 6429.420
6488.559, 6477.193
6490.487, 6351.507
6492.416, 6288.897
6494.344, 6318.025
6496.272, 6363.024
6498.201, 6367.410
6500.129, 6330.709
6502.058, 6357.017
6503.986, 6340.735
6505.915, 6352.158
6507.843, 6360.618
6509.771, 6323.971
6511.700, 6277.625
6513.628, 6293.028
6515.557, 6311.214
6517.485, 6211.748
6519.414, 6255.033
6521.342, 6244.392
6523.271, 6237.996
6525.199, 6260.987
6527.128, 6247.896
6529.056, 6259.917
6530.985, 6234.826
6532.913, 6240.714
6534.842, 6255.213
6536.770, 6249.392
6538.699, 6219.811
6540.627, 6193.377
6542.556, 6199.475
6544.484, 6162.569
6546.413, 6093.544
6548.341, 6142.596
6550.270, 6178.212
6552.198, 6186.458
6554.126, 6137.647
6556.055, 6044.887
6557.983, 6123.994
6559.912, 6153.365
6561.840, 6167.123
6563.769, 6122.420
6565.697, 6108.689
6567.625, 6145.169
6569.554, 6148.938
6571.482, 6068.833
6573.411, 6064.168
6575.339, 6093.625
6577.268, 6121.318
6579.196, 6116.121
6581.125, 6102.074
6583.053, 6094.611
6584.982, 6096.435
6586.910, 6106.342
6588.839, 6095.204
6590.767, 6132.181
6592.696, 6178.523
6594.624, 6112.595
6596.553, 6040.288
6598.481, 6008.884
6600.410, 6002.033
6602.338, 6024.860
6604.267, 6065.195
6606.195, 6003.659
6608.124, 5938.583
6610.052, 5970.463
6611.980, 5986.409
6613.909, 5985.533
6615.837, 5982.395
6617.766, 5943.508
6619.694, 5995.063
6621.623, 5936.849
6623.551, 5913.434
6625.479, 5879.041
6627.408, 5889.625
##END=



