##NAMES=Orthoserpierite
##RRUFFID=R060977
##IDEAL CHEMISTRY=CaCu_4_(SO_4_)_2_(OH)_6_·3H_2_O
##LOCALITY=Copper Creek, Galuiro Mountains, Pinal County, Arizona, USA
##OWNER=RRUFF
##SOURCE=Michael Scott
##DESCRIPTION=Blue-green platy crystals in masses with chrysocolla
##STATUS=The identification of this mineral has been confirmed only by X-ray diffraction
##URL=https://www.rruff.net/odr/rruff_sample/R060977
##DIFFRACTION SAMPLE DESCRIPTION=Powder
##CELL PARAMETERS=a: 22.11 b: 6.134 c: 20.37 alpha: 90 beta: 90 gamma: 90 volume: 2760 crystal system: orthorhombic
##FILETYPE=Raman RAW
##RAMAN WAVELENGTH=785

117.6382, 69.93142
119.5667, 72.22033
121.4951, 81.40857
123.4236, 104.7901
125.3521, 144.1465
127.2805, 212.3556
129.2090, 335.1936
131.1375, 430.0368
133.0659, 502.9853
134.9944, 531.0392
136.9229, 476.7257
138.8513, 379.4813
140.7798, 313.8223
142.7083, 284.2286
144.6367, 279.9846
146.5652, 317.0155
148.4937, 353.1459
150.4221, 371.3655
152.3506, 378.8802
154.2791, 381.6154
156.2075, 379.4723
158.1360, 371.5519
160.0645, 353.7339
161.9929, 340.3746
163.9214, 342.2959
165.8499, 342.0378
167.7783, 323.8965
169.7068, 292.9985
171.6353, 274.0882
173.5637, 272.5831
175.4922, 266.2821
177.4207, 249.3055
179.3491, 233.6653
181.2776, 226.9810
183.2061, 224.2547
185.1345, 217.9338
187.0630, 206.9476
188.9915, 201.8604
190.9199, 206.1588
192.8484, 207.6832
194.7769, 197.8476
196.7053, 188.8979
198.6338, 192.1825
200.5623, 204.0832
202.4907, 207.0545
204.4192, 197.7790
206.3476, 192.8843
208.2761, 195.9878
210.2046, 200.1246
212.1330, 202.5213
214.0615, 203.7905
215.9900, 204.7982
217.9184, 205.5450
219.8469, 204.1498
221.7754, 200.0477
223.7038, 195.8214
225.6323, 191.2103
227.5608, 187.8422
229.4892, 187.8211
231.4177, 189.1910
233.3462, 187.3137
235.2746, 181.2756
237.2031, 177.8096
239.1316, 178.3484
241.0600, 178.1447
242.9885, 175.2843
244.9170, 171.1809
246.8454, 166.3978
248.7739, 161.1281
250.7024, 155.7868
252.6308, 150.1335
254.5593, 145.9623
256.4878, 143.3322
258.4163, 142.4356
260.3447, 144.9666
262.2732, 147.8447
264.2017, 149.8423
266.1301, 150.3011
268.0586, 144.2900
269.9871, 130.8145
271.9155, 119.5265
273.8440, 110.6184
275.7725, 106.4083
277.7009, 113.5589
279.6294, 120.8265
281.5579, 114.8275
283.4863, 98.80647
285.4148, 93.16543
287.3433, 98.76047
289.2717, 104.4818
291.2002, 109.2051
293.1287, 112.7167
295.0571, 113.6134
296.9856, 114.4938
298.9141, 119.6453
300.8425, 127.1426
302.7710, 126.7355
304.6995, 118.0704
306.6279, 108.8614
308.5564, 97.57226
310.4849, 91.65292
312.4133, 98.30684
314.3418, 107.0820
316.2703, 110.8218
318.1987, 110.3018
320.1272, 106.5431
322.0557, 99.41096
323.9841, 96.92097
325.9126, 102.3181
327.8411, 105.7336
329.7695, 101.1348
331.6980, 96.22205
333.6264, 95.64628
335.5549, 97.60970
337.4834, 97.93039
339.4118, 96.92302
341.3403, 100.2673
343.2688, 109.7020
345.1972, 117.0992
347.1257, 120.8280
349.0542, 121.0339
350.9826, 115.8597
352.9111, 108.6750
354.8396, 103.0867
356.7680, 98.98698
358.6965, 95.66719
360.6250, 93.16370
362.5534, 90.41089
364.4819, 85.31448
366.4104, 84.15545
368.3388, 93.33357
370.2673, 102.2306
372.1958, 102.5033
374.1242, 97.78517
376.0527, 94.77879
377.9812, 93.50031
379.9096, 94.92100
381.8381, 99.54738
383.7666, 104.8962
385.6950, 113.1122
387.6235, 117.9306
389.5520, 113.7999
391.4804, 108.2193
393.4089, 109.2649
395.3374, 114.5955
397.2658, 116.6626
399.1943, 115.6928
401.1228, 116.8513
403.0512, 120.8226
404.9797, 126.6538
406.9082, 136.5716
408.8366, 145.1514
410.7651, 149.4223
412.6936, 151.7564
414.6220, 155.8932
416.5505, 160.1092
418.4790, 157.7901
420.4074, 149.0253
422.3359, 144.8778
424.2644, 148.1564
426.1928, 152.3461
428.1213, 159.6379
430.0498, 162.6600
431.9782, 154.4620
433.9067, 143.4212
435.8352, 138.2498
437.7636, 137.7887
439.6921, 138.4609
441.6206, 140.2834
443.5490, 144.4520
445.4775, 153.2438
447.4060, 157.8967
449.3344, 151.6230
451.2629, 147.5810
453.1914, 154.0300
455.1198, 161.3029
457.0483, 160.5255
458.9768, 154.1998
460.9052, 146.0315
462.8337, 136.8265
464.7622, 133.1031
466.6906, 137.0975
468.6191, 138.3923
470.5476, 130.7963
472.4760, 126.6793
474.4045, 134.1801
476.3330, 139.6799
478.2614, 130.4308
480.1899, 116.9301
482.1184, 114.1031
484.0468, 118.7088
485.9753, 123.6787
487.9038, 128.8651
489.8322, 129.7020
491.7607, 123.7041
493.6892, 118.0366
495.6176, 112.7779
497.5461, 109.3865
499.4746, 109.4715
501.4030, 110.4859
503.3315, 109.7859
505.2600, 109.1474
507.1884, 112.5831
509.1169, 118.3677
511.0454, 119.5236
512.9739, 115.3015
514.9023, 110.4788
516.8308, 103.8747
518.7593, 99.98164
520.6877, 102.4112
522.6162, 103.2861
524.5447, 98.23529
526.4731, 92.18840
528.4016, 88.65021
530.3301, 86.70532
532.2585, 84.97210
534.1870, 83.65736
536.1155, 83.67368
538.0439, 85.17013
539.9724, 86.35680
541.9009, 86.30233
543.8293, 87.66948
545.7578, 91.01797
547.6863, 95.21495
549.6147, 102.9806
551.5432, 107.9341
553.4717, 104.0753
555.4001, 97.12519
557.3286, 91.43316
559.2571, 87.97939
561.1855, 89.85487
563.1140, 96.69484
565.0425, 102.8035
566.9709, 109.9830
568.8994, 109.3931
570.8279, 90.81966
572.7563, 80.90090
574.6848, 88.77879
576.6132, 96.66720
578.5417, 97.34309
580.4702, 96.75909
582.3986, 98.79198
584.3271, 102.0122
586.2556, 104.4306
588.1840, 106.8840
590.1125, 111.7199
592.0410, 118.9361
593.9694, 127.0696
595.8979, 140.0172
597.8264, 142.0890
599.7548, 122.6144
601.6833, 111.0218
603.6118, 115.8742
605.5402, 119.6523
607.4687, 114.3440
609.3972, 109.6967
611.3256, 112.9638
613.2541, 118.1611
615.1826, 119.2462
617.1110, 118.9027
619.0395, 122.9193
620.9680, 130.1214
622.8964, 133.5608
624.8249, 133.3043
626.7534, 128.2852
628.6818, 113.5678
630.6103, 105.6400
632.5388, 108.3677
634.4672, 109.8368
636.3957, 105.6438
638.3242, 103.9295
640.2526, 110.7988
642.1811, 117.1222
644.1096, 114.5473
646.0380, 111.2852
647.9665, 116.9285
649.8950, 125.2534
651.8234, 126.2618
653.7519, 120.7738
655.6804, 109.6732
657.6088, 92.27346
659.5373, 88.53439
661.4658, 104.3847
663.3942, 113.3677
665.3227, 114.3749
667.2512, 111.1831
669.1796, 100.1386
671.1081, 95.25576
673.0366, 104.5966
674.9650, 113.8720
676.8935, 115.8084
678.8220, 115.8899
680.7504, 118.6973
682.6789, 120.3819
684.6074, 116.3104
686.5358, 109.1663
688.4643, 102.0115
690.3928, 95.89496
692.3212, 96.04876
694.2497, 102.1148
696.1782, 103.4566
698.1066, 99.20901
700.0351, 95.92754
701.9636, 93.27090
703.8920, 94.24445
705.8205, 101.3266
707.7490, 103.9191
709.6774, 96.87598
711.6059, 91.81920
713.5344, 93.19585
715.4628, 97.06427
717.3913, 105.3410
719.3198, 110.7218
721.2482, 104.1080
723.1767, 97.42017
725.1052, 105.1703
727.0336, 117.5184
728.9621, 118.8173
730.8906, 113.4691
732.8190, 113.2243
734.7475, 116.6815
736.6760, 114.6555
738.6044, 107.2829
740.5329, 106.4595
742.4614, 112.6617
744.3898, 115.1812
746.3183, 112.8935
748.2468, 110.4011
750.1752, 108.5510
752.1037, 105.0827
754.0322, 96.99163
755.9606, 94.60759
757.8891, 104.0494
759.8176, 114.3157
761.7460, 124.2845
763.6745, 129.5871
765.6030, 124.4331
767.5314, 118.5767
769.4599, 119.8604
771.3884, 122.2089
773.3168, 118.9464
775.2453, 113.9533
777.1738, 114.4636
779.1022, 115.9281
781.0307, 104.5596
782.9592, 87.86076
784.8876, 92.55944
786.8161, 113.4848
788.7446, 121.9123
790.6730, 119.2546
792.6015, 117.7756
794.5300, 117.8385
796.4584, 116.0383
798.3869, 111.9057
800.3154, 110.5258
802.2438, 112.9866
804.1723, 115.2595
806.1008, 117.5739
808.0292, 115.8430
809.9577, 105.9102
811.8862, 99.99197
813.8146, 105.0641
815.7431, 107.7304
817.6716, 99.94698
819.6000, 95.95033
821.5285, 104.4039
823.4570, 112.7556
825.3854, 115.8130
827.3139, 115.5232
829.2424, 111.0066
831.1708, 106.1166
833.0993, 103.4174
835.0278, 102.5574
836.9562, 105.1105
838.8847, 107.5930
840.8132, 104.1593
842.7416, 98.66106
844.6701, 97.96674
846.5986, 99.34544
848.5270, 94.75466
850.4555, 88.95124
852.3840, 97.11114
854.3124, 112.9164
856.2409, 114.4742
858.1694, 105.5132
860.0978, 105.6963
862.0263, 113.3743
863.9548, 111.0008
865.8832, 98.86710
867.8117, 93.61807
869.7402, 96.28023
871.6686, 98.66396
873.5971, 100.2337
875.5256, 101.2879
877.4540, 101.5965
879.3825, 102.9447
881.3110, 106.1998
883.2394, 107.7843
885.1679, 106.5607
887.0964, 105.7485
889.0248, 105.0880
890.9533, 106.0274
892.8818, 110.6155
894.8102, 113.3978
896.7387, 112.9356
898.6672, 112.1750
900.5956, 113.3004
902.5241, 111.2610
904.4526, 98.45670
906.3810, 93.18019
908.3095, 106.5463
910.2380, 118.0114
912.1664, 121.5796
914.0949, 121.3336
916.0234, 115.6001
917.9518, 111.1544
919.8803, 112.8923
921.8088, 113.5160
923.7372, 109.4188
925.6657, 103.6422
927.5942, 94.58338
929.5226, 88.74012
931.4511, 89.16988
933.3796, 94.73489
935.3080, 110.7841
937.2365, 123.7752
939.1650, 123.6934
941.0934, 119.0825
943.0219, 112.7745
944.9504, 107.9671
946.8788, 106.1702
948.8073, 107.8684
950.7358, 118.8896
952.6642, 126.7487
954.5927, 114.7559
956.5212, 103.5935
958.4496, 115.6783
960.3781, 129.5227
962.3066, 124.1427
964.2350, 115.8439
966.1635, 117.9083
968.0920, 124.2207
970.0204, 134.6320
971.9489, 141.1018
973.8774, 126.3959
975.8058, 115.6696
977.7343, 135.2549
979.6628, 165.8852
981.5912, 186.7281
983.5197, 213.4707
985.4482, 269.1529
987.3766, 328.6358
989.3051, 380.8074
991.2336, 411.3846
993.1620, 402.9093
995.0905, 370.8478
997.0190, 316.3121
998.9474, 260.0616
1000.876, 217.9463
1002.804, 186.7707
1004.733, 168.1172
1006.661, 153.8920
1008.590, 135.0584
1010.518, 119.8969
1012.447, 117.9058
1014.375, 119.5753
1016.304, 118.1091
1018.232, 116.0374
1020.161, 115.3158
1022.089, 114.7311
1024.018, 111.4586
1025.946, 110.4799
1027.875, 118.5303
1029.803, 125.7085
1031.731, 125.0147
1033.660, 122.2807
1035.588, 119.4263
1037.517, 117.7264
1039.445, 117.8047
1041.374, 119.3400
1043.302, 123.6418
1045.231, 127.1293
1047.159, 129.3114
1049.088, 128.3770
1051.016, 120.7194
1052.945, 114.9319
1054.873, 115.4936
1056.802, 116.1405
1058.730, 113.2580
1060.658, 113.4817
1062.587, 121.7599
1064.515, 126.4283
1066.444, 122.5159
1068.372, 118.6582
1070.301, 115.8428
1072.229, 117.8337
1074.158, 127.9289
1076.086, 133.3746
1078.015, 130.2958
1079.943, 128.9240
1081.871, 132.1348
1083.800, 128.9988
1085.728, 115.9829
1087.657, 114.9710
1089.585, 130.1947
1091.514, 134.3941
1093.442, 124.4377
1095.371, 117.1216
1097.299, 114.0238
1099.228, 120.0647
1101.156, 134.2007
1103.085, 138.4768
1105.013, 134.1236
1106.942, 139.0724
1108.870, 150.1360
1110.798, 144.3727
1112.727, 128.6025
1114.655, 133.0093
1116.584, 148.1673
1118.512, 144.4869
1120.441, 132.7789
1122.369, 137.3327
1124.298, 148.2691
1126.226, 148.0844
1128.155, 145.0890
1130.083, 151.6455
1132.012, 160.2049
1133.940, 164.6935
1135.869, 164.4945
1137.797, 154.9734
1139.725, 146.1310
1141.654, 149.7613
1143.582, 149.4416
1145.511, 128.7286
1147.439, 113.2019
1149.368, 117.5034
1151.296, 122.9273
1153.225, 122.3405
1155.153, 124.4051
1157.082, 136.4423
1159.010, 140.3542
1160.939, 128.9288
1162.867, 122.6684
1164.796, 123.7281
1166.724, 127.6334
1168.652, 135.2367
1170.581, 137.5541
1172.509, 134.1752
1174.438, 128.9421
1176.366, 122.6606
1178.295, 123.5071
1180.223, 129.5157
1182.152, 132.7329
1184.080, 133.0996
1186.009, 127.6825
1187.937, 121.9870
1189.866, 130.2447
1191.794, 138.3904
1193.723, 125.9903
1195.651, 111.6389
1197.579, 110.7863
1199.508, 115.0221
1201.436, 124.0859
1203.365, 127.7653
1205.293, 114.9711
1207.222, 107.7876
1209.150, 117.3738
1211.079, 125.6224
1213.007, 129.9943
1214.936, 128.6878
1216.864, 118.3164
1218.793, 111.0028
1220.721, 105.4213
1222.650, 115.0957
1224.578, 140.7887
1226.506, 143.6220
1228.435, 127.5463
1230.363, 116.1036
1232.292, 110.0676
1234.220, 114.7223
1236.149, 123.7467
1238.077, 127.3836
1240.006, 128.0384
1241.934, 127.7282
1243.863, 126.3042
1245.791, 122.5568
1247.720, 119.6800
1249.648, 119.0766
1251.577, 120.2361
1253.505, 124.0660
1255.433, 125.6462
1257.362, 123.0026
1259.290, 122.5128
1261.219, 125.4344
1263.147, 126.7268
1265.076, 125.9574
1267.004, 131.0047
1268.933, 139.7711
1270.861, 135.4676
1272.790, 125.0380
1274.718, 129.9754
1276.647, 139.5019
1278.575, 135.5879
1280.504, 128.7795
1282.432, 132.0177
1284.360, 131.9120
1286.289, 113.6378
1288.217, 104.8804
1290.146, 118.5517
1292.074, 132.4350
1294.003, 143.1414
1295.931, 140.9215
1297.860, 123.5836
1299.788, 114.5139
1301.717, 115.1936
1303.645, 119.4497
1305.574, 126.9776
1307.502, 141.1127
1309.431, 155.4437
1311.359, 157.5677
1313.287, 151.5185
1315.216, 137.3186
1317.144, 123.9141
1319.073, 113.2035
1321.001, 113.3960
1322.930, 136.7685
1324.858, 148.5554
1326.787, 138.5311
1328.715, 135.7891
1330.644, 144.2888
1332.572, 138.9957
1334.501, 121.8701
1336.429, 124.2080
1338.358, 138.3176
1340.286, 138.3205
1342.214, 131.2035
1344.143, 123.7660
1346.071, 120.3441
1348.000, 130.3968
1349.928, 137.2315
1351.857, 126.6451
1353.785, 120.8728
1355.714, 127.4900
1357.642, 133.1388
1359.571, 136.9143
1361.499, 134.5632
1363.428, 126.8265
1365.356, 120.9735
1367.285, 118.8691
1369.213, 130.3422
1371.141, 143.1362
1373.070, 136.7399
1374.998, 128.2833
1376.927, 133.8663
1378.855, 138.9179
1380.784, 135.0860
1382.712, 132.3905
1384.641, 133.1530
1386.569, 134.1133
1388.498, 135.0441
1390.426, 137.8091
1392.355, 142.1381
1394.283, 148.6004
1396.212, 153.3227
1398.140, 146.1178
1400.068, 136.7894
1401.997, 134.6772
1403.925, 133.3877
1405.854, 128.8882
1407.782, 125.5640
1409.711, 126.6285
1411.639, 123.5443
1413.568, 114.2673
1415.496, 112.2992
1417.425, 116.6332
1419.353, 121.9454
1421.282, 125.7923
1423.210, 119.5886
1425.139, 114.3982
1427.067, 124.7364
1428.995, 128.4577
1430.924, 107.5695
1432.852, 98.70594
1434.781, 114.9998
1436.709, 128.4906
1438.638, 138.1016
1440.566, 130.7576
1442.495, 113.0522
1444.423, 109.0346
1446.352, 112.7876
1448.280, 119.2757
1450.209, 124.8355
1452.137, 128.0580
1454.066, 127.2461
1455.994, 119.2166
1457.922, 120.5993
1459.851, 135.7457
1461.779, 138.0791
1463.708, 129.5336
1465.636, 120.0137
1467.565, 113.6168
1469.493, 124.9458
1471.422, 132.2215
1473.350, 112.1610
1475.279, 99.54198
1477.207, 107.5654
1479.136, 115.2662
1481.064, 119.1007
1482.993, 124.5274
1484.921, 130.5056
1486.849, 129.5484
1488.778, 123.9535
1490.706, 114.0869
1492.635, 106.8947
1494.563, 111.2059
1496.492, 112.8015
1498.420, 106.2655
1500.349, 106.0348
1502.277, 113.9744
1504.206, 122.3220
1506.134, 129.2473
1508.063, 129.9684
1509.991, 126.0745
1511.920, 116.4125
1513.848, 108.4167
1515.776, 107.4499
1517.705, 107.6957
1519.633, 107.7621
1521.562, 114.0528
1523.490, 125.3286
1525.419, 123.8014
1527.347, 115.2233
1529.276, 111.8962
1531.204, 110.6995
1533.133, 108.0328
1535.061, 107.6470
1536.990, 110.5796
1538.918, 119.3837
1540.847, 134.3428
1542.775, 125.4385
1544.703, 103.2903
1546.632, 111.4517
1548.560, 127.7578
1550.489, 125.0148
1552.417, 119.8185
1554.346, 123.6224
1556.274, 119.9613
1558.203, 103.9012
1560.131, 107.9825
1562.060, 126.5197
1563.988, 121.9154
1565.917, 109.4501
1567.845, 110.5170
1569.774, 114.1348
1571.702, 111.1213
1573.630, 115.0166
1575.559, 133.5224
1577.487, 132.9640
1579.416, 116.8427
1581.344, 117.9552
1583.273, 123.4774
1585.201, 112.8549
1587.130, 101.5099
1589.058, 97.91248
1590.987, 98.01779
1592.915, 102.9755
1594.844, 103.3841
1596.772, 100.8284
1598.701, 110.6539
1600.629, 120.5236
1602.557, 109.8812
1604.486, 101.3282
1606.414, 109.5014
1608.343, 113.6960
1610.271, 108.5170
1612.200, 108.3854
1614.128, 112.0064
1616.057, 115.3214
1617.985, 117.0573
1619.914, 116.1823
1621.842, 112.5251
1623.771, 103.7731
1625.699, 102.8602
1627.628, 111.7547
1629.556, 111.0791
1631.484, 105.8485
1633.413, 110.8015
1635.341, 113.2155
1637.270, 102.4167
1639.198, 93.14310
1641.127, 88.68938
1643.055, 94.39543
1644.984, 107.3584
1646.912, 108.0442
1648.841, 103.9988
1650.769, 104.1169
1652.698, 107.1786
1654.626, 114.1215
1656.555, 116.1730
1658.483, 112.1458
1660.411, 110.7447
1662.340, 110.8406
1664.268, 110.1198
1666.197, 107.9689
1668.125, 102.1221
1670.054, 100.5290
1671.982, 105.1686
1673.911, 102.3859
1675.839, 94.99332
1677.768, 100.7218
1679.696, 106.3969
1681.625, 90.17209
1683.553, 85.31438
1685.482, 104.4394
1687.410, 108.2185
1689.339, 97.02254
1691.267, 96.94713
1693.195, 102.9049
1695.124, 112.1374
1697.052, 114.8272
1698.981, 103.2751
1700.909, 97.96828
1702.838, 100.2041
1704.766, 103.6880
1706.695, 106.7603
1708.623, 107.4126
1710.552, 106.3079
1712.480, 102.6932
1714.409, 100.6763
1716.337, 100.3534
1718.266, 91.70950
1720.194, 81.99067
1722.122, 87.52222
1724.051, 93.84967
1725.979, 89.04935
1727.908, 90.54549
1729.836, 100.3137
1731.765, 97.18322
1733.693, 88.98405
1735.622, 91.04607
1737.550, 97.83026
1739.479, 114.6893
1741.407, 111.3314
1743.336, 83.06549
1745.264, 81.18955
1747.193, 94.51003
1749.121, 107.9716
1751.049, 110.3511
1752.978, 84.43395
1754.906, 73.18754
1756.835, 80.72941
1758.763, 91.33321
1760.692, 102.0554
1762.620, 110.7966
1764.549, 111.2667
1766.477, 94.90687
1768.406, 89.08971
1770.334, 95.08875
1772.263, 100.7437
1774.191, 104.5114
1776.120, 102.9822
1778.048, 102.1539
1779.976, 104.6178
1781.905, 107.3158
1783.833, 108.9798
1785.762, 100.8179
1787.690, 91.79700
1789.619, 91.43245
1791.547, 89.21998
1793.476, 81.73794
1795.404, 78.32391
1797.333, 79.47598
1799.261, 88.81994
1801.190, 97.90925
1803.118, 101.1588
1805.047, 107.7986
1806.975, 118.3851
1808.903, 102.6892
1810.832, 80.40233
1812.760, 88.24062
1814.689, 98.75883
1816.617, 103.3000
1818.546, 98.39391
1820.474, 86.55170
1822.403, 81.15829
1824.331, 80.73212
1826.260, 88.88898
1828.188, 89.32710
1830.117, 78.67735
1832.045, 77.35830
1833.974, 81.52325
1835.902, 80.62885
1837.830, 79.27027
1839.759, 79.99555
1841.687, 79.11102
1843.616, 77.47881
1845.544, 87.17258
1847.473, 94.66973
1849.401, 74.44874
1851.330, 72.67696
1853.258, 99.02106
1855.187, 111.2703
1857.115, 108.0272
1859.044, 83.86773
1860.972, 68.78475
1862.901, 82.13089
1864.829, 94.54265
1866.757, 101.9878
1868.686, 94.12694
1870.614, 81.74479
1872.543, 67.71693
1874.471, 69.60379
1876.400, 89.50188
1878.328, 82.97093
1880.257, 68.72946
1882.185, 80.98577
1884.114, 88.23191
1886.042, 72.71045
1887.971, 77.68260
1889.899, 92.73719
1891.828, 87.85909
1893.756, 79.09309
1895.684, 71.65941
1897.613, 69.78747
1899.541, 73.09553
1901.470, 72.18135
1903.398, 73.24223
1905.327, 83.70917
1907.255, 84.45302
1909.184, 72.59474
1911.112, 79.03928
1913.041, 86.05595
1914.969, 68.39972
1916.898, 60.77738
1918.826, 79.39598
1920.755, 75.83209
1922.683, 60.68748
1924.611, 71.43221
1926.540, 81.57519
1928.468, 77.87909
1930.397, 70.04799
1932.325, 61.86156
1934.254, 63.50844
1936.182, 70.48119
1938.111, 75.85951
1940.039, 83.33636
1941.968, 91.12583
1943.896, 65.95921
1945.825, 51.86605
1947.753, 78.29081
1949.682, 88.51750
1951.610, 78.23989
1953.538, 75.17319
1955.467, 75.19131
1957.395, 70.37922
1959.324, 74.88009
1961.252, 88.33018
1963.181, 80.81657
1965.109, 69.00352
1967.038, 69.95305
1968.966, 66.87388
1970.895, 59.44941
1972.823, 66.05045
1974.752, 73.21855
1976.680, 59.64902
1978.609, 53.43187
1980.537, 58.77480
1982.465, 74.09569
1984.394, 86.60326
1986.322, 75.42321
1988.251, 68.87537
1990.179, 69.62836
1992.108, 71.51888
1994.036, 71.99206
1995.965, 63.27283
1997.893, 60.10244
1999.822, 66.66695
2001.750, 73.38306
2003.679, 74.61480
2005.607, 64.47439
2007.536, 63.26501
2009.464, 73.58183
2011.392, 69.82710
2013.321, 63.36760
2015.249, 67.78208
2017.178, 68.00172
2019.106, 63.86356
2021.035, 63.66532
2022.963, 64.43424
2024.892, 60.00620
2026.820, 61.31804
2028.749, 69.88367
2030.677, 70.26614
2032.606, 69.19108
2034.534, 72.47509
2036.463, 64.02998
2038.391, 49.95060
2040.319, 58.80719
2042.248, 66.58016
2044.176, 59.46083
2046.105, 59.12723
2048.033, 61.93418
2049.962, 71.77058
2051.890, 75.93493
2053.819, 55.85363
2055.747, 48.76379
2057.676, 54.25482
2059.604, 66.75950
2061.532, 72.17542
2063.461, 59.99813
2065.389, 54.57168
2067.318, 57.23076
2069.246, 59.96832
2071.175, 58.57916
2073.103, 58.26416
2075.032, 60.35743
2076.960, 64.61450
2078.889, 77.04530
2080.817, 76.34605
2082.746, 60.60641
2084.674, 58.36329
2086.603, 58.24188
2088.531, 42.00454
2090.459, 43.63871
2092.388, 60.07590
2094.316, 74.06253
2096.245, 77.64020
2098.173, 65.35469
2100.102, 54.58575
2102.030, 51.03012
2103.959, 51.97602
2105.887, 48.11167
2107.816, 42.98162
2109.744, 53.36937
2111.673, 63.70916
2113.601, 54.62381
2115.530, 50.98823
2117.458, 54.46927
2119.386, 52.80057
2121.315, 48.28437
2123.243, 36.27716
2125.172, 42.09284
2127.100, 53.92190
2129.029, 41.80189
2130.957, 36.77001
2132.886, 52.27450
2134.814, 54.11671
2136.743, 48.57912
2138.671, 37.77561
2140.600, 34.83257
2142.528, 45.28282
2144.457, 55.29768
2146.385, 58.49735
2148.313, 50.46232
2150.242, 51.72997
2152.170, 55.50046
2154.099, 55.81208
2156.027, 56.98005
2157.956, 54.90610
2159.884, 53.40717
2161.813, 47.97290
2163.741, 37.82172
2165.670, 38.33106
2167.598, 44.07412
2169.527, 47.83422
2171.455, 48.77599
2173.384, 44.56037
2175.312, 43.70048
2177.240, 42.32811
2179.169, 35.20174
2181.097, 40.43779
2183.026, 52.86900
2184.954, 50.70762
2186.883, 44.61928
2188.811, 36.50880
2190.740, 30.60705
2192.668, 30.91214
2194.597, 41.95486
2196.525, 41.87967
2198.454, 34.06996
2200.382, 33.36683
2202.311, 35.08487
2204.239, 37.48262
2206.167, 39.30150
2208.096, 43.37848
2210.024, 45.86367
2211.953, 46.82872
2213.881, 46.75279
2215.810, 47.29702
2217.738, 44.73518
2219.667, 32.32700
2221.595, 34.74592
2223.524, 42.58833
2225.452, 39.05678
2227.381, 36.68554
2229.309, 36.32204
2231.238, 38.08515
2233.166, 39.31537
2235.094, 35.38859
2237.023, 29.90329
2238.951, 26.40530
2240.880, 28.87929
2242.808, 23.28296
2244.737, 14.53173
2246.665, 31.74258
2248.594, 43.63083
2250.522, 39.14348
2252.451, 38.92957
2254.379, 36.21768
2256.308, 19.10420
2258.236, 25.86577
2260.165, 46.05394
2262.093, 58.42635
2264.021, 56.80514
2265.950, 43.17411
2267.878, 35.48111
2269.807, 30.25197
2271.735, 24.74841
2273.664, 29.15133
2275.592, 37.93170
2277.521, 46.02736
2279.449, 39.81785
2281.378, 25.31784
2283.306, 24.06524
2285.235, 32.46994
2287.163, 49.49518
2289.092, 45.48805
2291.020, 40.33612
2292.948, 47.55357
2294.877, 40.80432
2296.805, 32.40515
2298.734, 47.55961
2300.662, 50.44623
2302.591, 39.31058
2304.519, 32.00972
2306.448, 28.43942
2308.376, 27.55975
2310.305, 34.13343
2312.233, 40.07227
2314.162, 39.97573
2316.090, 42.47931
2318.019, 45.88689
2319.947, 49.61842
2321.875, 41.26308
2323.804, 27.07331
2325.732, 44.02517
2327.661, 46.09307
2329.589, 25.24064
2331.518, 26.68814
2333.446, 37.06712
2335.375, 49.50780
2337.303, 43.39150
2339.232, 31.45594
2341.160, 32.94209
2343.089, 32.15541
2345.017, 30.18201
2346.946, 40.92869
2348.874, 44.39439
2350.802, 39.49721
2352.731, 24.09134
2354.659, 16.52362
2356.588, 29.39744
2358.516, 31.93028
2360.445, 28.80208
2362.373, 32.59165
2364.302, 34.33107
2366.230, 29.86581
2368.159, 22.79613
2370.087, 16.66748
2372.016, 14.76658
2373.944, 26.86619
2375.873, 25.98925
2377.801, 15.69107
2379.729, 19.24914
2381.658, 18.35886
2383.586, 11.06021
2385.515, 22.66796
2387.443, 25.60119
2389.372, 10.56007
2391.300, 17.53245
2393.229, 28.43043
2395.157, 28.41616
2397.086, 23.80260
2399.014, 24.47247
2400.943, 18.55444
2402.871, 15.28112
2404.800, 19.26020
2406.728, 15.25876
2408.656, 18.49000
2410.585, 30.06288
2412.513, 15.17903
2414.442, -1.909051
2416.370, -4.476196
2418.299, 17.31078
2420.227, 29.38476
2422.156, 21.94012
2424.084, 19.18242
2426.013, 16.11296
2427.941, 19.63859
2429.870, 1.654132
2431.798, -8.217695
2433.727, 2.504358
2435.655, 8.832649
2437.583, 24.40281
2439.512, 25.81213
2441.440, 18.08390
2443.369, 17.70798
2445.297, 32.09056
2447.226, 30.84153
2449.154, 12.01266
2451.083, 9.923717
2453.011, 17.58949
2454.940, 16.34487
2456.868, 16.43770
2458.797, 20.56412
2460.725, 24.50044
2462.654, 20.49966
2464.582, 21.04750
2466.510, 21.74232
2468.439, 18.75009
2470.367, 24.84144
2472.296, 31.48901
2474.224, 34.35365
2476.153, 28.14301
2478.081, 14.62511
2480.010, 2.743117
2481.938, -0.6528929
2483.867, 10.93765
2485.795, 19.71637
2487.724, 18.97987
2489.652, 18.76738
2491.581, 33.07133
2493.509, 37.16868
2495.438, 24.55115
2497.366, 22.99105
2499.294, 24.50545
2501.223, 22.37749
2503.151, 21.68430
2505.080, 19.77159
2507.008, 11.66154
2508.937, 6.590863
2510.865, 6.860109
2512.794, 10.62922
2514.722, 11.46176
2516.651, 15.29319
2518.579, 14.07552
2520.508, 14.71906
2522.436, 11.78177
2524.365, 5.333873
2526.293, 6.556585
2528.221, 7.827020
2530.150, 17.82910
2532.078, 20.87625
2534.007, 5.964620
2535.935, 6.463625
2537.864, 21.33519
2539.792, 20.10055
2541.721, 17.43968
2543.649, 13.46134
2545.578, 10.67945
2547.506, 5.422053
2549.435, 7.775402
2551.363, 21.75160
2553.292, 8.705063
2555.220, -5.322536
2557.148, 12.07558
2559.077, 14.04218
2561.005, 5.411009
2562.934, 12.37071
2564.862, 10.10791
2566.791, 2.844206
2568.719, 8.801709
2570.648, 10.23120
2572.576, 14.24676
2574.505, 13.23204
2576.433, 17.39825
2578.362, 19.77065
2580.290, 4.972438
2582.219, 0.4889217
2584.147, 3.542930
2586.075, 9.673783
2588.004, 16.20061
2589.932, 25.95249
2591.861, 20.19433
2593.789, 9.235045
2595.718, 7.504914
2597.646, 7.008705
2599.575, 13.17958
2601.503, 12.46476
2603.432, 13.12819
2605.360, 17.05048
2607.289, 8.409719
2609.217, 9.199182
2611.146, 10.13386
2613.074, 1.691365
2615.002, 10.63797
2616.931, 11.02660
2618.859, -11.38411
2620.788, -7.123831
2622.716, 8.810450
2624.645, 14.86370
2626.573, 10.02068
2628.502, 6.784691
2630.430, 1.338745
2632.359, 6.265651
2634.287, 5.209642
2636.216, 1.149768
2638.144, -3.550469
2640.073, 7.942544
2642.001, 20.54503
2643.929, 3.762706
2645.858, -4.800361
2647.786, -7.803859
2649.715, 6.028030
2651.643, 7.502487
2653.572, -3.221109
2655.500, 14.39355
2657.429, 7.184492
2659.357, -7.067452
2661.286, -7.357771
2663.214, -10.36737
2665.143, -0.6006237
2667.071, 15.64508
2669.000, 8.442236
2670.928, 2.113745
2672.856, 3.842038
2674.785, 12.81100
2676.713, 15.40327
2678.642, 12.46099
2680.570, 13.21907
2682.499, 9.044593
2684.427, -0.3343466
2686.356, 7.567702
2688.284, 6.391364
2690.213, 3.687603
2692.141, 10.79736
2694.070, 21.19135
2695.998, 20.34287
2697.927, -9.775537
2699.855, -9.383694
2701.783, 1.217741
2703.712, 12.53050
2705.640, 21.37361
2707.569, 14.71644
2709.497, 3.4827542E-02
2711.426, -1.626275
2713.354, -4.623523
2715.283, -9.420405
2717.211, 4.430393
2719.140, 13.90612
2721.068, 19.40179
2722.997, 24.14280
2724.925, 7.331061
2726.854, -4.353242
2728.782, -4.799107
2730.710, 1.818554
2732.639, 4.592506
2734.567, 1.380243
2736.496, 9.368914
2738.424, 3.576180
2740.353, -11.39927
2742.281, -1.578064
2744.210, 1.478275
2746.138, -0.4887515
2748.067, 0.3641852
2749.995, 2.404760
2751.924, 4.653080
2753.852, 1.076912
2755.781, 0.6831217
2757.709, 1.816994
2759.637, 0.6443583
2761.566, 3.733394
2763.494, -0.7965875
2765.423, -9.265199
2767.351, -8.927221
2769.280, 2.353538
2771.208, 14.19901
2773.137, 11.42642
2775.065, 15.74787
2776.994, 16.79737
2778.922, 9.152342
2780.851, 4.243981
2782.779, 1.484916
2784.708, -2.010130
2786.636, -19.69246
2788.564, -9.675339
2790.493, 10.05063
2792.421, 4.517803
2794.350, -0.3831176
2796.278, -2.382417
2798.207, -0.8310544
2800.135, -20.68437
2802.064, -18.92114
2803.992, 4.591206
2805.921, 8.398154
2807.849, -7.835921
2809.778, -18.92168
2811.706, 10.20789
2813.635, 3.701328
2815.563, -7.287347
2817.491, -6.970947
2819.420, -0.4873249
2821.348, 3.966216
2823.277, 8.380706
2825.205, 12.47362
2827.134, 1.196025
2829.062, -7.862290
2830.991, 3.914026
2832.919, -6.862411
2834.848, -14.21110
2836.776, -5.658383
2838.705, -3.085127
2840.633, -3.967368
2842.562, -2.704968
2844.490, 7.111411
2846.418, -1.033297
2848.347, -5.653059
2850.275, 4.334455
2852.204, -8.766857
2854.132, -9.439372
2856.061, 0.9167153
2857.989, 7.468926
2859.918, 5.817741
2861.846, 2.685963
2863.775, -2.134910
2865.703, -8.852775
2867.632, -8.768126
2869.560, -6.820686
2871.489, 5.574743
2873.417, -3.897701
2875.345, -17.45742
2877.274, -8.513274
2879.202, -12.79923
2881.131, -10.90315
2883.059, 0.2777174
2884.988, 16.55804
2886.916, 5.996587
2888.845, -11.20357
2890.773, 7.130773
2892.702, 6.893679
2894.630, 0.5280160
2896.559, 0.8519139
2898.487, -12.32673
2900.416, -0.6654940
2902.344, 14.64900
2904.272, -10.66670
2906.201, -5.252475
2908.129, -6.711349
2910.058, -18.55051
2911.986, 3.2314628E-02
2913.915, 11.62078
2915.843, 3.254771
2917.772, -1.704572
2919.700, -2.834263
2921.629, -9.029814
2923.557, -13.39063
2925.486, -7.682929
2927.414, -14.60339
2929.343, -13.55605
2931.271, 5.844838
2933.199, 0.7413267
2935.128, -6.858250
2937.056, -3.666431
2938.985, -12.46077
2940.913, -13.67131
2942.842, 0.7053631
2944.770, 9.988239
2946.699, -1.678924
2948.627, -14.40182
2950.556, -23.47703
2952.484, -9.412687
2954.413, 0.2843709
2956.341, -5.202498
2958.270, -10.87140
2960.198, -10.23645
2962.126, -18.40345
2964.055, -17.18978
2965.983, -7.570742
2967.912, -18.96070
2969.840, -17.17716
2971.769, -14.23567
2973.697, -12.13852
2975.626, -2.876746
2977.554, -1.883779
2979.483, 2.491872
2981.411, -10.13978
2983.340, -15.89606
2985.268, -8.312971
2987.197, -1.864909
2989.125, -22.85932
2991.053, -21.40491
2992.982, -5.921840
2994.910, -24.03536
2996.839, -17.48715
2998.767, -6.832199
3000.696, -30.98173
3002.624, -29.27685
3004.553, -13.22361
3006.481, -1.854877
3008.410, -17.72548
3010.338, -27.07754
3012.267, -11.86217
3014.195, -7.503297
3016.124, 4.969764
3018.052, 9.340159
3019.980, 4.963994
3021.909, 3.950960
3023.837, -20.25479
3025.766, -21.82138
3027.694, -9.159169
3029.623, -22.34018
3031.551, -14.96603
3033.480, -10.62413
3035.408, -26.01753
3037.337, -26.68129
3039.265, 1.058784
3041.194, 8.092987
3043.122, -16.55366
3045.051, -10.07115
3046.979, 6.277413
3048.907, 6.910977
3050.836, -20.50979
3052.764, -17.94304
3054.693, -14.46752
3056.621, -8.774525
3058.550, 5.976472
3060.478, -12.01614
3062.407, -15.74086
3064.335, -3.083099
3066.264, -3.851408
3068.192, -6.313218
3070.121, -5.783039
3072.049, -11.36394
3073.978, -2.035451
3075.906, -3.656231
3077.834, -16.49775
3079.763, -21.41264
3081.691, -18.44473
3083.620, -7.225410
3085.548, -10.46688
3087.477, -4.710280
3089.405, -4.147988
3091.334, 5.409185
3093.262, 0.8499016
3095.191, -30.67868
3097.119, -1.673010
3099.048, 7.028809
3100.976, 2.557729
3102.905, -3.040354
3104.833, -12.56557
3106.761, -14.44321
3108.690, -12.65548
3110.618, -19.28213
3112.547, -9.406850
3114.475, -11.93205
3116.404, -17.82893
3118.332, -10.39671
3120.261, -11.88575
3122.189, -14.65714
3124.118, -18.88809
3126.046, -26.90047
3127.975, -9.100263
3129.903, 4.047001
3131.832, 2.456779
3133.760, -29.49921
3135.688, -24.19059
3137.617, -7.744220
3139.545, 0.5257827
3141.474, -8.909289
3143.402, -23.60488
3145.331, -19.72550
3147.259, -13.53349
3149.188, -23.65361
3151.116, -6.324737
3153.045, -11.77194
3154.973, -23.39119
3156.902, -0.1972946
3158.830, -5.728959
3160.759, -17.90093
3162.687, -21.12416
3164.615, 8.840331
3166.544, -15.57266
3168.472, -24.89131
3170.401, -20.79458
3172.329, -22.60376
3174.258, -4.454216
3176.186, -12.45358
3178.115, -16.46475
3180.043, -0.1221269
3181.972, -22.90324
3183.900, -17.73706
3185.829, -12.31613
3187.757, -19.27129
3189.686, -19.65457
3191.614, -21.63520
3193.542, -18.04009
3195.471, -2.402060
3197.399, 19.52164
3199.328, -18.33916
3201.256, -22.67018
3203.185, 9.371632
3205.113, -13.14215
3207.042, -9.851877
3208.970, -16.16544
3210.899, -23.23859
3212.827, -1.834684
3214.756, -5.183241
3216.684, -7.026720
3218.613, -7.636236
3220.541, -15.82904
3222.469, -11.33419
3224.398, -2.469120
3226.326, -2.523974
3228.255, -14.25089
3230.183, 4.688276
3232.112, -7.368272
3234.040, -17.52891
3235.969, -13.04444
3237.897, -10.87079
3239.826, -26.80005
3241.754, -24.35228
3243.683, -8.545974
3245.611, -7.429397
3247.540, -2.888188
3249.468, -4.216831
3251.396, -6.737783
3253.325, -4.045887
3255.253, 5.646096
3257.182, -7.636090
3259.110, -18.32925
3261.039, -14.10051
3262.967, -9.926058
3264.896, 10.01366
3266.824, 16.97989
3268.753, 10.51793
3270.681, 3.697020
3272.610, -10.57836
3274.538, -4.998775
3276.467, -0.3817811
3278.395, -10.87460
3280.323, 1.388091
3282.252, 5.556816
3284.180, -5.127545
3286.109, -20.80201
3288.037, -16.81959
3289.966, -14.98664
3291.894, -16.73163
3293.823, -15.79582
3295.751, -10.76846
3297.680, -22.91983
3299.608, -17.66113
3301.537, -9.029827
3303.465, -2.319472
3305.394, 13.19054
3307.322, -2.753048
3309.250, 4.086908
3311.179, 11.43383
3313.107, -10.92794
3315.036, 9.996760
3316.964, 10.05129
3318.893, 3.845525
3320.821, -3.005088
3322.750, -19.00442
3324.678, -24.72643
3326.607, -17.65711
3328.535, -4.588623
3330.464, 5.906196
3332.392, -0.8459019
3334.321, 3.653007
3336.249, -2.167602
3338.177, -15.62865
3340.106, -14.39298
3342.034, -5.606046
3343.963, -19.39447
3345.891, -16.63279
3347.820, 6.925431
3349.748, -17.34163
3351.677, -34.51307
3353.605, -28.23750
3355.534, -9.960764
3357.462, 2.624652
3359.391, -10.09763
3361.319, 1.690401
3363.248, 5.308320
3365.176, -5.434450
3367.104, -11.72405
3369.033, -12.46347
3370.961, -24.86967
3372.890, -34.20821
3374.818, -28.50230
3376.747, -2.378599
3378.675, -12.81938
3380.604, -11.34667
3382.532, -13.05252
3384.461, -29.25318
3386.389, -9.725509
3388.318, -16.27483
3390.246, -21.27656
3392.175, -20.24133
3394.103, -17.67008
3396.031, -15.21171
3397.960, -12.60225
3399.888, -17.69104
3401.817, -23.92901
3403.745, -20.36213
3405.674, -8.068153
3407.602, 0.7453861
3409.531, -0.1977483
3411.459, -0.5320359
3413.388, 11.29248
3415.316, -16.23811
3417.245, -15.48350
3419.173, -8.109234
3421.102, -7.303745
3423.030, -9.532084
3424.958, 8.923050
3426.887, -2.244082
3428.815, -19.01498
3430.744, -23.36263
3432.672, -16.93983
3434.601, -42.59036
3436.529, -24.21720
3438.458, -2.055101
3440.386, 1.701014
3442.315, -6.536360
3444.243, -38.17461
3446.172, -9.932012
3448.100, 19.63618
3450.029, 27.39477
3451.957, 27.06171
3453.885, -3.456025
3455.814, -21.97277
3457.742, -23.44713
3459.671, -13.91163
3461.599, -3.582946
3463.528, -21.94290
3465.456, -35.68195
3467.385, -15.12095
3469.313, 8.339676
3471.242, 0.5394306
3473.170, 18.82636
3475.099, 1.814427
3477.027, 1.7863121E-02
3478.956, 12.79572
3480.884, 16.70136
3482.813, -21.25245
3484.741, -22.09536
3486.669, 7.499781
3488.598, 19.43903
3490.526, 2.624290
3492.455, 7.675832
3494.383, 17.38331
3496.312, -1.127768
3498.240, 1.197585
3500.169, 16.18068
3502.097, -11.57537
3504.026, -5.466407
3505.954, 17.85435
3507.883, 21.84099
3509.811, 12.15721
3511.740, 9.726161
3513.668, 16.29142
3515.596, 31.60474
3517.525, 37.00485
3519.453, 19.84823
3521.382, 1.552051
3523.310, 29.19876
3525.239, 23.88064
3527.167, 6.312788
3529.096, 5.004408
3531.024, 15.17215
3532.953, 14.96738
3534.881, -10.73179
3536.810, 8.406805
3538.738, 4.351224
3540.667, -7.714034
3542.595, -6.840761
3544.523, -11.42397
3546.452, 22.81670
3548.380, -2.549750
3550.309, -9.261413
3552.237, 19.83775
3554.166, 44.51868
3556.094, 16.90978
3558.023, -3.885257
3559.951, -6.263335
3561.880, -4.233695
3563.808, -2.303863
3565.737, 9.046581
3567.665, -12.03871
3569.594, -30.57201
3571.522, -8.783937
3573.450, 9.676185
3575.379, -1.842708
3577.307, 8.582465
3579.236, -10.84773
3581.164, -36.32431
3583.093, -18.08995
3585.021, 9.646834
3586.950, 3.528714
3588.878, 14.74592
3590.807, -10.79420
3592.735, 5.436465
3594.664, 11.55617
3596.592, -4.756236
3598.521, -11.11240
3600.449, -12.14423
3602.377, -7.605664
3604.306, -7.750153
3606.234, -2.027395
3608.163, 4.971126
3610.091, -0.9339555
3612.020, -3.079999
3613.948, 2.965827
3615.877, 34.53474
3617.805, 27.16495
3619.734, -15.81649
3621.662, -32.85242
3623.591, -17.77710
3625.519, -10.68766
3627.448, -13.29289
3629.376, 2.517661
3631.304, 17.83278
3633.233, -1.159125
3635.161, 7.392582
3637.090, 4.940779
3639.018, -12.81046
3640.947, -35.07506
3642.875, -39.86681
3644.804, -17.40207
3646.732, 4.099391
3648.661, -1.883010
3650.589, -6.449493
3652.518, -13.76498
3654.446, -24.00086
3656.375, -29.63781
3658.303, -21.43855
3660.231, 8.627164
3662.160, 8.830861
3664.088, 5.382456
3666.017, -1.735951
3667.945, -5.558261
3669.874, 18.67397
3671.802, -12.66921
3673.731, -15.85934
3675.659, -11.75453
3677.588, -23.57547
3679.516, -34.98011
3681.445, -19.69734
3683.373, -9.135530
3685.302, 3.229120
3687.230, -2.171871
3689.158, -9.708255
3691.087, -15.82716
3693.015, -17.15078
3694.944, -3.437937
3696.872, 3.886492
3698.801, -14.07994
3700.729, -15.98312
3702.658, -7.199392
3704.586, -0.3822246
3706.515, 4.282890
3708.443, 13.68667
3710.372, -14.43651
3712.300, -7.353611
3714.229, -3.326076
3716.157, -20.45630
3718.085, -26.16158
3720.014, 8.102485
3721.942, -9.817556
3723.871, -9.764268
3725.799, -11.44645
3727.728, -4.566627
3729.656, -9.466825
3731.585, -23.14382
3733.513, -7.731036
3735.442, 7.025613
3737.370, -6.718651
3739.299, -24.03458
3741.227, -9.182323
3743.156, -5.5126041E-02
3745.084, -17.27312
3747.012, -25.22462
3748.941, -16.11422
3750.869, -15.10768
3752.798, -27.35459
3754.726, 1.575297
3756.655, 2.457463
3758.583, -27.46178
3760.512, -6.608866
3762.440, -35.68555
3764.369, -49.72930
3766.297, -33.71081
3768.226, -4.026639
3770.154, -0.3292035
3772.083, -10.66354
3774.011, -1.343312
3775.939, -5.961508
3777.868, 4.953790
3779.796, -0.9763290
3781.725, -23.92947
3783.653, -22.71203
3785.582, -10.01867
3787.510, -8.951975
3789.439, 0.3708914
3791.367, 6.765912
3793.296, -27.33270
3795.224, -35.40922
3797.153, -19.76025
3799.081, -15.07585
3801.010, -21.42011
3802.938, -12.66254
3804.866, -4.207941
3806.795, -11.65243
3808.723, -6.278108
3810.652, -6.699970
3812.580, 4.253423
3814.509, 12.78220
3816.437, 0.7823597
3818.366, -18.87824
3820.294, -18.75564
3822.223, 2.704857
3824.151, 5.910188
3826.080, -20.33967
3828.008, -31.94463
3829.937, -23.65050
3831.865, -17.76984
3833.793, -14.03765
3835.722, 13.55828
3837.650, -20.54592
3839.579, -22.16091
3841.507, -18.26084
3843.436, -26.56303
3845.364, -31.81380
3847.293, -28.79475
3849.221, -31.54603
3851.150, -4.477531
3853.078, -28.05806
3855.007, -18.10243
3856.935, 10.84811
3858.864, 6.092354
3860.792, -5.944377
3862.720, -16.23167
3864.649, -43.98766
3866.577, -10.88218
3868.506, 5.3625152E-02
3870.434, -5.779033
3872.363, -0.2183147
3874.291, -11.04133
3876.220, -12.67247
3878.148, -6.808083
3880.077, -18.11273
3882.005, -30.84945
3883.934, 14.42745
3885.862, -19.46077
3887.791, -18.08438
3889.719, -4.820133
3891.647, -16.52385
3893.576, -11.44908
3895.504, -4.718880
3897.433, -30.17793
3899.361, -29.01265
3901.290, -23.40150
3903.218, -34.71928
3905.147, -33.20449
3907.075, -35.50772
3909.004, -22.64461
3910.932, -20.21491
3912.861, -11.47584
3914.789, 5.782666
3916.718, -34.83190
3918.646, -6.105248
3920.574, 0.6444249
3922.503, -11.96720
3924.431, 17.29332
3926.360, -10.20294
3928.288, -33.47684
3930.217, -17.35544
3932.145, -8.009226
3934.074, -23.47117
3936.002, -11.86843
3937.931, -17.49224
3939.859, -4.766358
3941.788, 2.289280
3943.716, -19.01582
3945.645, -18.05982
3947.573, -7.505258
3949.501, -10.10929
3951.430, -11.09545
3953.358, 4.335859
3955.287, 9.491821
3957.215, -47.74630
3959.144, -10.09608
3961.072, -24.27983
3963.001, -39.73508
3964.929, -20.98898
3966.858, -12.13552
3968.786, -10.24325
3970.715, -4.7660670E-03
3972.643, -7.778673
3974.572, -4.072003
3976.500, -13.57814
3978.428, 2.828534
3980.357, 19.85642
3982.285, -10.34428
3984.214, -13.91625
3986.142, -20.29440
3988.071, 1.952579
3989.999, 15.10316
3991.928, -36.47204
3993.856, -35.03478
3995.785, -39.57879
3997.713, -23.86034
3999.642, -18.29806
4001.570, 3.774528
4003.499, 5.600499
4005.427, -7.420902
4007.355, -56.01394
4009.284, -59.86709
4011.212, -14.30594
4013.141, 6.356280
4015.069, 2.733030
4016.998, -55.92455
4018.926, -32.53224
4020.855, -18.82268
4022.783, -7.746561
4024.712, -57.54749
4026.640, -24.39709
4028.569, -13.35410
4030.497, -29.06578
4032.426, -27.60793
4034.354, -34.24475
4036.282, -56.10410
4038.211, -40.25354
4040.139, -6.440155
4042.068, -41.33444
4043.996, -10.99643
4045.925, -32.06929
4047.853, -17.85605
4049.782, -13.17995
4051.710, -14.28744
4053.639, -8.929762
4055.567, -9.869254
4057.496, -17.81901
4059.424, -9.864616
4061.353, 9.409371
4063.281, -17.03457
4065.209, -28.24954
4067.138, -32.50830
4069.066, -33.04485
4070.995, -4.989747
4072.923, -5.908136
4074.852, 13.75558
4076.780, 3.258538
4078.709, -23.10410
4080.637, -31.31803
4082.566, -15.15742
4084.494, 8.231605
4086.423, 6.856493
4088.351, -15.95007
4090.280, 3.166306
4092.208, -8.713379
4094.136, -1.206524
4096.065, -17.03747
4097.993, -5.650227
4099.922, 25.16469
4101.850, -16.83775
4103.779, -16.95879
4105.707, -6.364023
4107.636, -15.45231
4109.564, -20.92692
4111.493, -21.37477
4113.421, -17.96227
4115.350, 0.9959299
4117.278, 8.205892
4119.207, -13.02524
4121.135, -34.00565
4123.063, -0.3481829
4124.992, -27.70253
4126.920, -36.56169
4128.849, -12.77907
4130.777, -11.79208
4132.706, -22.51415
4134.634, -25.07206
4136.563, -26.99793
4138.491, -23.08500
4140.419, -27.36125
4142.348, -34.43859
4144.276, -16.65604
4146.205, 1.446282
4148.133, -4.620855
4150.062, 9.948751
4151.990, 9.225477
4153.919, -10.54211
4155.847, 4.801066
4157.776, -5.317348
4159.704, -13.91395
4161.633, 8.328192
4163.561, -6.779560
4165.490, -8.091612
4167.418, -27.77834
4169.347, -23.60862
4171.275, 5.340994
4173.204, -2.513824
4175.132, -17.31312
4177.061, -17.22755
4178.989, -4.993971
4180.917, 20.83791
4182.846, -9.041366
4184.774, -2.874962
4186.703, 4.906672
4188.631, -12.64577
4190.560, -1.487127
4192.488, -20.24578
4194.417, 4.016166
4196.345, -1.516853
4198.273, 21.22876
4200.202, -7.624665
4202.130, -19.66507
4204.059, -25.05303
4205.987, -39.07785
4207.916, -23.46746
4209.844, 8.770263
4211.773, 6.481608
4213.701, 12.30004
4215.630, 3.713288
4217.558, -22.38473
4219.487, -6.505334
4221.415, 21.16859
4223.344, 17.70557
4225.272, -9.130533
4227.201, -14.31601
4229.129, 6.003120
4231.058, -24.54840
4232.986, -18.39229
4234.915, -29.53429
4236.843, -13.23308
4238.771, -4.122700
4240.700, -12.74165
4242.628, 28.15139
4244.557, -13.82247
4246.485, 0.6978317
4248.414, -36.78230
4250.342, -0.8440828
4252.271, 9.036036
4254.199, 5.050854
4256.127, -35.13885
4258.056, -16.01377
4259.984, 1.217208
4261.913, -1.975364
4263.841, -27.75825
4265.770, -31.47067
4267.698, -23.01649
4269.627, -16.59208
4271.555, -14.03743
4273.484, -36.29571
4275.412, -40.68448
4277.341, -19.21340
4279.269, -6.539193
4281.198, -4.457124
4283.126, -15.94976
4285.055, 7.781086
4286.983, -11.81624
4288.912, -10.63475
4290.840, -8.344265
4292.769, 9.290378
4294.697, -7.363617
##END=



