##NAMES=Oxy-schorl
##RRUFFID=R140339
##IDEAL CHEMISTRY=Na(Fe^2+^_2_Al)Al_6_(Si_6_O_18_)(BO_3_)_3_(OH)_3_O
##LOCALITY=Přibyslavice, Bohemia, Czech Republic
##OWNER=RRUFF
##SOURCE=Bob Jenkins
##DESCRIPTION=Black grains embedded in quartz and orthoclase
##STATUS=The identification of this mineral has been confirmed only by single crystal X-ray diffraction
##URL=https://www.rruff.net/odr/rruff_sample/R140339
##DIFFRACTION SAMPLE DESCRIPTION=Single crystal, powder profile is calculated
##CELL PARAMETERS=a: 15.964 b: 15.964 c: 7.1595 alpha: 90 beta: 90 gamma: 120 volume: 1580.2 crystal system: hexagonal
##FILETYPE=Raman Processed
##RAMAN WAVELENGTH=532

177.4668, 3266.455
179.3953, 3279.061
181.3237, 3283.041
183.2522, 3277.437
185.1807, 3260.913
187.1091, 3237.250
189.0376, 3208.630
190.9661, 3172.390
192.8945, 3137.627
194.8230, 3101.920
196.7515, 3068.470
198.6799, 3044.445
200.6084, 3032.497
202.5369, 3028.746
204.4653, 3033.352
206.3938, 3046.740
208.3223, 3064.112
210.2507, 3086.879
212.1792, 3114.015
214.1077, 3138.007
216.0361, 3166.892
217.9646, 3187.996
219.8931, 3192.649
221.8215, 3181.476
223.7500, 3156.424
225.6785, 3117.259
227.6069, 3063.945
229.5354, 3005.080
231.4639, 2938.411
233.3923, 2868.185
235.3208, 2797.250
237.2493, 2723.700
239.1777, 2653.852
241.1062, 2589.979
243.0347, 2532.241
244.9631, 2475.591
246.8916, 2416.929
248.8201, 2362.042
250.7485, 2314.262
252.6770, 2273.287
254.6055, 2241.074
256.5339, 2219.106
258.4624, 2207.071
260.3909, 2201.540
262.3193, 2206.854
264.2478, 2216.083
266.1763, 2225.111
268.1047, 2237.016
270.0332, 2244.709
271.9617, 2247.002
273.8901, 2244.396
275.8186, 2237.025
277.7471, 2223.719
279.6755, 2206.518
281.6040, 2185.499
283.5325, 2159.258
285.4609, 2133.627
287.3894, 2109.656
289.3179, 2087.251
291.2463, 2066.982
293.1748, 2049.202
295.1033, 2033.043
297.0317, 2018.011
298.9602, 2003.609
300.8887, 1991.026
302.8171, 1979.339
304.7456, 1969.023
306.6741, 1963.761
308.6025, 1965.022
310.5310, 1969.307
312.4595, 1975.260
314.3879, 1982.774
316.3164, 1991.803
318.2449, 2001.514
320.1733, 2012.539
322.1018, 2026.786
324.0303, 2043.460
325.9587, 2063.728
327.8872, 2088.103
329.8157, 2116.595
331.7441, 2148.745
333.6726, 2185.819
335.6011, 2225.781
337.5295, 2266.044
339.4580, 2308.540
341.3865, 2347.567
343.3149, 2382.179
345.2434, 2412.464
347.1719, 2435.451
349.1003, 2451.698
351.0288, 2460.709
352.9573, 2461.962
354.8857, 2453.721
356.8142, 2443.287
358.7427, 2430.347
360.6711, 2415.584
362.5996, 2409.201
364.5281, 2409.002
366.4565, 2418.363
368.3850, 2439.707
370.3135, 2475.267
372.2419, 2513.777
374.1704, 2561.773
376.0989, 2611.519
378.0273, 2640.115
379.9558, 2642.985
381.8843, 2632.287
383.8127, 2612.458
385.7412, 2582.316
387.6697, 2549.712
389.5981, 2513.343
391.5266, 2475.685
393.4551, 2440.010
395.3835, 2405.845
397.3120, 2373.585
399.2405, 2342.896
401.1689, 2313.504
403.0974, 2287.191
405.0259, 2264.052
406.9543, 2243.515
408.8828, 2225.764
410.8113, 2211.226
412.7397, 2197.738
414.6682, 2185.772
416.5967, 2174.792
418.5251, 2162.905
420.4536, 2150.011
422.3821, 2136.552
424.3105, 2122.385
426.2390, 2107.448
428.1675, 2092.585
430.0959, 2076.835
432.0244, 2061.419
433.9529, 2047.667
435.8813, 2035.065
437.8098, 2024.520
439.7383, 2016.905
441.6667, 2011.637
443.5952, 2007.535
445.5237, 2004.016
447.4521, 2002.056
449.3806, 2002.705
451.3091, 2006.276
453.2375, 2009.833
455.1660, 2013.123
457.0945, 2016.094
459.0229, 2018.663
460.9514, 2020.610
462.8799, 2022.346
464.8083, 2023.175
466.7368, 2023.585
468.6653, 2025.786
470.5938, 2031.275
472.5222, 2037.491
474.4507, 2042.978
476.3792, 2046.475
478.3076, 2051.960
480.2361, 2061.411
482.1646, 2072.304
484.0930, 2081.374
486.0215, 2088.089
487.9500, 2093.616
489.8784, 2097.955
491.8069, 2100.988
493.7354, 2103.928
495.6638, 2108.609
497.5923, 2111.461
499.5208, 2110.453
501.4492, 2105.469
503.3777, 2099.075
505.3062, 2091.096
507.2346, 2082.510
509.1631, 2074.657
511.0916, 2067.927
513.0200, 2061.497
514.9485, 2054.930
516.8770, 2048.479
518.8054, 2043.129
520.7339, 2037.904
522.6624, 2034.658
524.5908, 2034.382
526.5193, 2037.219
528.4478, 2041.352
530.3762, 2046.436
532.3047, 2052.573
534.2332, 2059.801
536.1616, 2068.380
538.0901, 2077.605
540.0186, 2087.854
541.9470, 2098.927
543.8755, 2110.175
545.8040, 2123.185
547.7324, 2134.846
549.6609, 2144.097
551.5894, 2150.896
553.5178, 2157.618
555.4463, 2164.792
557.3748, 2171.423
559.3032, 2176.900
561.2317, 2181.317
563.1602, 2183.005
565.0886, 2179.998
567.0171, 2174.151
568.9456, 2167.478
570.8740, 2158.625
572.8025, 2150.448
574.7310, 2143.988
576.6594, 2138.744
578.5879, 2133.094
580.5164, 2126.873
582.4448, 2120.639
584.3733, 2114.445
586.3018, 2108.214
588.2302, 2102.790
590.1587, 2098.648
592.0872, 2094.860
594.0156, 2090.839
595.9441, 2086.581
597.8726, 2081.993
599.8010, 2076.529
601.7295, 2070.824
603.6580, 2065.735
605.5864, 2061.790
607.5149, 2057.600
609.4434, 2052.627
611.3718, 2047.261
613.3003, 2042.291
615.2288, 2037.485
617.1572, 2033.638
619.0857, 2031.159
621.0142, 2030.187
622.9426, 2029.644
624.8711, 2030.019
626.7996, 2030.412
628.7280, 2030.667
630.6565, 2030.908
632.5850, 2029.732
634.5134, 2027.250
636.4419, 2023.125
638.3704, 2016.532
640.2988, 2006.136
642.2273, 1996.316
644.1558, 1986.275
646.0842, 1977.623
648.0127, 1972.221
649.9412, 1970.176
651.8696, 1971.739
653.7981, 1976.592
655.7266, 1985.047
657.6550, 1997.962
659.5835, 2016.477
661.5120, 2037.820
663.4404, 2062.868
665.3689, 2090.887
667.2974, 2117.095
669.2258, 2143.028
671.1543, 2165.272
673.0828, 2182.607
675.0112, 2194.448
676.9397, 2199.223
678.8682, 2192.366
680.7966, 2180.668
682.7251, 2168.369
684.6536, 2155.379
686.5820, 2141.920
688.5105, 2125.846
690.4390, 2110.835
692.3674, 2101.545
694.2959, 2099.405
696.2244, 2098.682
698.1528, 2097.323
700.0813, 2097.618
702.0098, 2102.337
703.9382, 2112.198
705.8667, 2125.951
707.7952, 2143.219
709.7236, 2164.054
711.6521, 2188.854
713.5806, 2218.713
715.5090, 2250.056
717.4375, 2282.855
719.3660, 2316.332
721.2944, 2347.501
723.2229, 2376.198
725.1514, 2401.962
727.0798, 2422.190
729.0083, 2437.348
730.9368, 2456.815
732.8652, 2475.906
734.7937, 2504.723
736.7222, 2548.104
738.6506, 2605.364
740.5791, 2671.946
742.5076, 2751.201
744.4360, 2836.735
746.3645, 2927.705
748.2930, 3025.888
750.2214, 3119.677
752.1499, 3208.511
754.0784, 3292.882
756.0068, 3372.860
757.9353, 3447.673
759.8638, 3523.602
761.7922, 3594.628
763.7207, 3671.620
765.6492, 3762.420
767.5776, 3865.935
769.5061, 3986.952
771.4346, 4132.884
773.3630, 4292.326
775.2915, 4466.112
777.2200, 4670.854
779.1484, 4823.155
781.0769, 4928.131
783.0054, 4971.821
784.9338, 4930.382
786.8623, 4788.267
788.7908, 4605.953
790.7192, 4368.229
792.6477, 4103.320
794.5762, 3836.757
796.5046, 3557.359
798.4331, 3311.992
800.3616, 3100.277
802.2900, 2927.575
804.2185, 2806.681
806.1470, 2752.038
808.0754, 2719.634
810.0039, 2725.915
811.9324, 2742.797
813.8608, 2738.016
815.7893, 2709.685
817.7178, 2661.530
819.6462, 2588.415
821.5747, 2499.559
823.5032, 2408.054
825.4316, 2308.314
827.3601, 2214.166
829.2886, 2125.264
831.2170, 2044.570
833.1455, 1974.169
835.0740, 1914.167
837.0024, 1864.979
838.9309, 1829.556
840.8594, 1803.355
842.7878, 1780.248
844.7163, 1762.167
846.6448, 1744.815
848.5732, 1727.734
850.5017, 1711.382
852.4302, 1696.054
854.3586, 1681.386
856.2871, 1668.952
858.2156, 1659.741
860.1440, 1652.805
862.0725, 1647.186
864.0010, 1642.859
865.9294, 1639.955
867.8579, 1638.576
869.7864, 1638.404
871.7148, 1639.126
873.6433, 1640.681
875.5718, 1642.470
877.5002, 1644.457
879.4287, 1646.465
881.3572, 1648.273
883.2856, 1649.490
885.2141, 1651.833
887.1426, 1655.764
889.0710, 1660.841
890.9995, 1666.857
892.9280, 1674.000
894.8564, 1681.685
896.7849, 1689.603
898.7134, 1698.403
900.6418, 1708.511
902.5703, 1720.009
904.4988, 1731.959
906.4272, 1743.663
908.3557, 1755.871
910.2842, 1769.471
912.2126, 1784.930
914.1411, 1797.923
916.0696, 1807.796
917.9980, 1815.398
919.9265, 1820.901
921.8550, 1824.575
923.7834, 1827.826
925.7119, 1831.831
927.6404, 1834.885
929.5688, 1836.111
931.4973, 1835.634
933.4258, 1835.620
935.3542, 1834.430
937.2827, 1835.349
939.2112, 1839.827
941.1396, 1847.226
943.0681, 1855.927
944.9966, 1866.045
946.9250, 1876.591
948.8535, 1886.910
950.7820, 1897.145
952.7104, 1907.958
954.6389, 1922.097
956.5674, 1933.230
958.4958, 1939.896
960.4243, 1943.389
962.3528, 1945.842
964.2813, 1947.314
966.2097, 1948.535
968.1382, 1949.390
970.0667, 1950.527
971.9951, 1952.578
973.9236, 1955.750
975.8521, 1958.999
977.7805, 1962.345
979.7090, 1965.216
981.6375, 1966.772
983.5659, 1966.445
985.4944, 1966.875
987.4229, 1968.939
989.3513, 1971.035
991.2798, 1972.528
993.2083, 1973.625
995.1367, 1974.594
997.0652, 1975.960
998.9937, 1977.151
1000.922, 1977.656
1002.851, 1977.775
1004.779, 1979.007
1006.708, 1981.005
1008.636, 1983.979
1010.564, 1988.113
1012.493, 1992.881
1014.421, 1997.578
1016.350, 2002.189
1018.278, 2006.446
1020.207, 2010.196
1022.135, 2013.810
1024.064, 2017.623
1025.992, 2021.746
1027.921, 2026.493
1029.849, 2031.413
1031.778, 2037.459
1033.706, 2045.033
1035.635, 2054.160
1037.563, 2065.284
1039.491, 2079.232
1041.420, 2093.726
1043.348, 2107.674
1045.277, 2121.080
1047.205, 2134.254
1049.134, 2148.662
1051.062, 2160.439
1052.991, 2170.472
1054.919, 2177.368
1056.848, 2178.328
1058.776, 2172.667
1060.705, 2162.664
1062.633, 2145.734
1064.562, 2126.115
1066.490, 2107.145
1068.418, 2088.555
1070.347, 2070.247
1072.275, 2051.680
1074.204, 2033.535
1076.132, 2015.828
1078.061, 1998.587
1079.989, 1983.092
1081.918, 1969.509
1083.846, 1957.735
1085.775, 1948.157
1087.703, 1940.431
1089.632, 1933.619
1091.560, 1927.199
1093.489, 1923.012
1095.417, 1922.959
1097.345, 1924.622
1099.274, 1925.637
1101.202, 1926.007
1103.131, 1928.213
1105.059, 1934.018
1106.988, 1940.484
1108.916, 1947.119
1110.845, 1953.618
1112.773, 1956.541
1114.702, 1953.471
1116.630, 1949.425
1118.559, 1946.264
1120.487, 1942.308
1122.416, 1934.192
1124.344, 1921.157
1126.272, 1908.567
1128.201, 1897.792
1130.129, 1888.003
1132.058, 1878.634
1133.986, 1869.765
1135.915, 1861.216
1137.843, 1852.455
1139.772, 1844.605
1141.700, 1837.736
1143.629, 1831.983
1145.557, 1828.054
1147.486, 1827.197
1149.414, 1826.049
1151.343, 1823.906
1153.271, 1821.459
1155.199, 1819.370
1157.128, 1817.619
1159.056, 1816.146
1160.985, 1815.005
1162.913, 1814.107
1164.842, 1813.710
1166.770, 1813.696
1168.699, 1813.018
1170.627, 1811.264
1172.556, 1809.646
1174.484, 1808.038
1176.413, 1806.807
1178.341, 1806.531
1180.270, 1807.561
1182.198, 1807.822
1184.126, 1806.072
1186.055, 1804.294
1187.983, 1804.014
1189.912, 1804.591
1191.840, 1803.836
1193.769, 1801.252
1195.697, 1798.777
1197.626, 1797.309
1199.554, 1796.597
1201.483, 1796.471
1203.411, 1797.285
1205.340, 1798.020
1207.268, 1797.484
1209.197, 1797.807
1211.125, 1800.079
1213.053, 1803.846
1214.982, 1807.262
1216.910, 1809.917
1218.839, 1812.272
1220.767, 1813.864
1222.696, 1815.509
1224.624, 1818.805
1226.553, 1823.964
1228.481, 1827.394
1230.410, 1827.018
1232.338, 1827.643
1234.267, 1831.871
1236.195, 1838.744
1238.124, 1845.118
1240.052, 1850.346
1241.980, 1855.938
1243.909, 1862.156
1245.837, 1868.515
1247.766, 1874.727
1249.694, 1880.815
1251.623, 1886.493
1253.551, 1891.455
1255.480, 1896.582
1257.408, 1902.375
1259.337, 1908.378
1261.265, 1913.725
1263.194, 1918.215
1265.122, 1922.988
1267.051, 1928.446
1268.979, 1934.054
1270.907, 1940.137
1272.836, 1946.357
1274.764, 1950.624
1276.693, 1951.883
1278.621, 1953.283
1280.550, 1955.636
1282.478, 1958.281
1284.407, 1960.417
1286.335, 1961.746
1288.264, 1963.928
1290.192, 1967.891
1292.121, 1971.434
1294.049, 1973.297
1295.978, 1974.454
1297.906, 1977.137
1299.834, 1981.886
1301.763, 1984.588
1303.691, 1983.261
1305.620, 1981.177
1307.548, 1980.328
1309.477, 1980.230
1311.405, 1979.314
1313.334, 1976.870
1315.262, 1975.699
1317.191, 1978.506
1319.119, 1981.331
1321.048, 1981.060
1322.976, 1977.492
1324.905, 1974.416
1326.833, 1971.736
1328.761, 1969.512
1330.690, 1968.193
1332.618, 1967.041
1334.547, 1965.184
1336.475, 1962.532
1338.404, 1959.685
1340.332, 1956.522
1342.261, 1953.410
1344.189, 1950.473
1346.118, 1947.670
1348.046, 1944.770
1349.975, 1941.631
1351.903, 1939.205
1353.832, 1937.836
1355.760, 1936.963
1357.688, 1936.697
1359.617, 1936.706
1361.545, 1936.031
1363.474, 1934.484
1365.402, 1932.932
1367.331, 1931.589
1369.259, 1930.197
1371.188, 1928.653
1373.116, 1926.905
1375.045, 1924.793
1376.973, 1921.703
1378.902, 1919.155
1380.830, 1917.778
1382.759, 1916.658
1384.687, 1915.283
1386.615, 1913.672
1388.544, 1911.687
1390.472, 1909.898
1392.401, 1906.795
1394.329, 1900.071
1396.258, 1893.364
1398.186, 1890.537
1400.115, 1890.793
1402.043, 1889.686
1403.972, 1886.104
1405.900, 1882.974
1407.829, 1882.080
1409.757, 1881.535
1411.686, 1879.401
1413.614, 1875.928
1415.542, 1873.731
1417.471, 1873.555
1419.399, 1873.807
1421.328, 1873.755
1423.256, 1873.860
1425.185, 1874.763
1427.113, 1876.528
1429.042, 1876.993
1430.970, 1874.672
1432.899, 1872.857
1434.827, 1872.986
1436.756, 1873.638
1438.684, 1873.253
1440.613, 1871.896
1442.541, 1871.598
1444.469, 1872.227
1446.398, 1874.192
1448.326, 1878.010
1450.255, 1882.635
1452.183, 1887.063
1454.112, 1891.067
1456.040, 1894.550
1457.969, 1897.293
1459.897, 1899.552
1461.826, 1900.882
1463.754, 1902.270
1465.683, 1904.638
1467.611, 1908.004
1469.540, 1912.313
1471.468, 1918.281
1473.396, 1923.490
1475.325, 1926.407
1477.253, 1928.844
1479.182, 1931.992
1481.110, 1935.729
1483.039, 1939.748
1484.967, 1944.421
1486.896, 1948.323
1488.824, 1950.744
1490.753, 1952.703
1492.681, 1954.711
1494.610, 1956.806
1496.538, 1958.976
1498.467, 1961.082
1500.395, 1963.436
1502.323, 1966.481
1504.252, 1969.197
1506.180, 1971.290
1508.109, 1972.686
1510.037, 1972.991
1511.966, 1970.897
1513.894, 1970.772
1515.823, 1973.205
1517.751, 1977.080
1519.680, 1983.125
1521.608, 1989.875
1523.537, 1994.484
1525.465, 1996.168
1527.394, 1999.254
1529.322, 2004.567
1531.250, 2010.118
1533.179, 2015.983
1535.107, 2021.304
1537.036, 2024.760
1538.964, 2026.549
1540.893, 2028.983
1542.821, 2032.831
1544.750, 2035.907
1546.678, 2037.975
1548.607, 2038.679
1550.535, 2036.640
1552.464, 2032.943
1554.392, 2031.457
1556.321, 2033.095
1558.249, 2033.056
1560.177, 2030.179
1562.106, 2025.759
1564.034, 2020.090
1565.963, 2013.764
1567.891, 2007.413
1569.820, 2000.997
1571.748, 1995.467
1573.677, 1990.801
1575.605, 1986.903
1577.534, 1984.509
1579.462, 1981.953
1581.391, 1977.423
1583.319, 1971.029
1585.248, 1964.663
1587.176, 1958.532
1589.104, 1952.449
1591.033, 1946.128
1592.961, 1940.259
1594.890, 1935.366
1596.818, 1931.174
1598.747, 1926.841
1600.675, 1922.293
1602.604, 1917.888
1604.532, 1913.199
1606.461, 1909.652
1608.389, 1908.578
1610.318, 1908.680
1612.246, 1908.329
1614.175, 1907.481
1616.103, 1906.867
1618.031, 1905.488
1619.960, 1905.242
1621.888, 1906.545
1623.817, 1908.093
1625.745, 1909.716
1627.674, 1910.768
1629.602, 1909.389
1631.531, 1904.297
1633.459, 1900.517
1635.388, 1899.394
1637.316, 1898.412
1639.245, 1897.031
1641.173, 1895.552
1643.102, 1893.898
1645.030, 1892.147
1646.958, 1892.017
1648.887, 1895.227
1650.815, 1897.370
1652.744, 1896.986
1654.672, 1896.831
1656.601, 1898.733
1658.529, 1901.560
1660.458, 1903.014
1662.386, 1902.558
1664.315, 1903.616
1666.243, 1907.689
1668.172, 1911.086
1670.100, 1912.737
1672.029, 1914.063
1673.957, 1915.842
1675.885, 1918.140
1677.814, 1921.307
1679.742, 1926.025
1681.671, 1929.562
1683.599, 1930.093
1685.528, 1931.609
1687.456, 1936.264
1689.385, 1941.436
1691.313, 1944.306
1693.242, 1945.241
1695.170, 1947.071
1697.099, 1951.175
1699.027, 1953.221
1700.956, 1952.096
1702.884, 1950.341
1704.813, 1948.292
1706.741, 1946.759
1708.669, 1946.804
1710.598, 1948.431
1712.526, 1950.612
1714.455, 1954.079
1716.383, 1956.732
1718.312, 1957.302
1720.240, 1958.197
1722.169, 1960.937
1724.097, 1964.112
1726.026, 1965.464
1727.954, 1964.842
1729.883, 1965.223
1731.811, 1968.284
1733.740, 1969.447
1735.668, 1967.417
1737.596, 1965.087
1739.525, 1964.557
1741.453, 1964.649
1743.382, 1962.866
1745.310, 1959.253
1747.239, 1959.009
1749.167, 1965.258
1751.096, 1969.582
1753.024, 1969.206
1754.953, 1968.851
1756.881, 1971.291
1758.810, 1974.266
1760.738, 1974.574
1762.667, 1972.254
1764.595, 1970.409
1766.523, 1969.255
1768.452, 1968.814
1770.380, 1969.787
1772.309, 1971.005
1774.237, 1972.363
1776.166, 1973.432
1778.094, 1973.094
1780.023, 1971.523
1781.951, 1972.021
1783.880, 1976.097
1785.808, 1978.625
1787.737, 1977.974
1789.665, 1977.391
1791.594, 1978.455
1793.522, 1979.473
1795.450, 1978.564
1797.379, 1976.116
1799.307, 1974.086
1801.236, 1972.418
1803.164, 1971.644
1805.093, 1973.169
1807.021, 1973.799
1808.950, 1971.785
1810.878, 1969.942
1812.807, 1970.197
1814.735, 1972.105
1816.664, 1974.742
1818.592, 1978.062
1820.521, 1980.636
1822.449, 1981.820
1824.377, 1982.840
1826.306, 1983.490
1828.234, 1984.328
1830.163, 1986.569
1832.091, 1988.594
1834.020, 1987.794
1835.948, 1984.836
1837.877, 1983.403
1839.805, 1984.154
1841.734, 1984.344
1843.662, 1982.956
1845.591, 1981.934
1847.519, 1982.321
1849.448, 1983.100
1851.376, 1983.243
1853.304, 1983.157
1855.233, 1984.199
1857.161, 1986.474
1859.090, 1987.165
1861.018, 1985.051
1862.947, 1984.573
1864.875, 1987.779
1866.804, 1992.084
1868.732, 1996.590
1870.661, 2000.896
1872.589, 2004.417
1874.518, 2006.937
1876.446, 2008.393
1878.375, 2007.990
1880.303, 2008.027
1882.231, 2009.722
1884.160, 2010.354
1886.088, 2009.384
1888.017, 2007.684
1889.945, 2005.900
1891.874, 2004.300
1893.802, 2003.084
1895.731, 2002.378
1897.659, 2002.238
1899.588, 2002.171
1901.516, 2003.044
1903.445, 2005.767
1905.373, 2007.441
1907.302, 2006.445
1909.230, 2004.596
1911.158, 2003.224
1913.087, 2002.312
1915.015, 2002.031
1916.944, 2002.557
1918.872, 2001.563
1920.801, 1997.983
1922.729, 1996.391
1924.658, 1999.030
1926.586, 2001.045
1928.515, 1999.549
1930.443, 1997.231
1932.372, 1996.730
1934.300, 1996.910
1936.229, 1995.083
1938.157, 1991.522
1940.085, 1989.343
1942.014, 1989.105
1943.942, 1988.980
1945.871, 1988.540
1947.799, 1988.066
1949.728, 1988.252
1951.656, 1987.847
1953.585, 1984.783
1955.513, 1980.887
1957.442, 1980.199
1959.370, 1982.845
1961.299, 1985.255
1963.227, 1987.437
1965.156, 1989.411
1967.084, 1991.102
1969.012, 1992.408
1970.941, 1992.676
1972.869, 1992.821
1974.798, 1993.593
1976.726, 1994.350
1978.655, 1994.449
1980.583, 1993.883
1982.512, 1991.408
1984.440, 1986.495
1986.369, 1985.023
1988.297, 1989.512
1990.226, 1993.265
1992.154, 1993.854
1994.083, 1993.950
1996.011, 1994.291
1997.939, 1995.084
1999.868, 1996.747
2001.796, 1998.902
2003.725, 2000.865
2005.653, 2002.695
2007.582, 2004.515
2009.510, 2006.487
2011.439, 2008.442
2013.367, 2010.771
2015.296, 2012.364
2017.224, 2011.346
2019.153, 2010.658
2021.081, 2012.643
2023.010, 2015.941
2024.938, 2019.057
2026.866, 2021.963
2028.795, 2023.649
2030.723, 2024.119
2032.652, 2025.043
2034.580, 2027.240
2036.509, 2028.609
2038.437, 2027.513
2040.366, 2027.102
2042.294, 2028.696
2044.223, 2030.883
2046.151, 2033.188
2048.080, 2034.894
2050.008, 2035.018
2051.937, 2033.748
2053.865, 2031.102
2055.793, 2026.837
2057.722, 2025.527
2059.650, 2029.318
2061.579, 2032.658
2063.507, 2034.221
2065.436, 2035.010
2067.364, 2035.000
2069.293, 2034.431
2071.221, 2033.204
2073.150, 2031.717
2075.078, 2031.090
2077.007, 2031.149
2078.935, 2029.362
2080.864, 2025.419
2082.792, 2023.443
2084.720, 2024.729
2086.649, 2025.242
2088.577, 2023.760
2090.506, 2022.445
2092.434, 2022.129
2094.363, 2022.431
2096.291, 2022.933
2098.220, 2023.644
2100.148, 2024.554
2102.077, 2025.386
2104.005, 2026.039
2105.934, 2026.464
2107.862, 2024.847
2109.791, 2018.988
2111.719, 2015.608
2113.647, 2018.606
2115.576, 2019.201
2117.504, 2014.250
2119.433, 2009.253
2121.361, 2005.701
2123.290, 2004.400
2125.218, 2007.972
2127.147, 2013.099
2129.075, 2012.341
2131.004, 2007.338
2132.932, 2006.613
2134.861, 2010.470
2136.789, 2011.901
2138.718, 2008.740
2140.646, 2007.785
2142.574, 2013.269
2144.503, 2016.749
2146.431, 2014.889
2148.360, 2012.001
2150.288, 2009.685
2152.217, 2008.297
2154.145, 2008.874
2156.074, 2010.297
2158.002, 2010.068
2159.931, 2008.384
2161.859, 2007.285
2163.788, 2006.774
2165.716, 2005.057
2167.645, 2001.339
2169.573, 2000.018
2171.501, 2003.772
2173.430, 2006.333
2175.358, 2004.795
2177.287, 2002.985
2179.215, 2002.213
2181.144, 2002.488
2183.072, 2004.267
2185.001, 2006.576
2186.929, 2007.591
2188.858, 2007.695
2190.786, 2009.440
2192.715, 2012.833
2194.643, 2013.520
2196.572, 2011.084
2198.500, 2009.285
2200.428, 2008.794
2202.357, 2008.738
2204.285, 2008.847
2206.214, 2009.449
2208.142, 2011.489
2210.071, 2012.896
2211.999, 2011.708
2213.928, 2009.909
2215.856, 2009.453
2217.785, 2009.995
2219.713, 2010.936
2221.642, 2012.357
2223.570, 2014.246
2225.499, 2016.589
2227.427, 2019.050
2229.355, 2021.449
2231.284, 2023.932
2233.212, 2026.685
2235.141, 2027.907
2237.069, 2026.189
2238.998, 2024.365
2240.926, 2023.708
2242.855, 2023.219
2244.783, 2023.171
2246.712, 2022.682
2248.640, 2020.658
2250.569, 2018.109
2252.497, 2016.095
2254.426, 2014.794
2256.354, 2014.905
2258.282, 2016.207
2260.211, 2017.370
2262.139, 2018.233
2264.068, 2020.272
2265.996, 2024.118
2267.925, 2026.368
2269.853, 2025.312
2271.782, 2024.627
2273.710, 2025.272
2275.639, 2026.150
2277.567, 2027.375
2279.496, 2028.244
2281.424, 2028.256
2283.353, 2027.792
2285.281, 2026.752
2287.209, 2025.663
2289.138, 2025.672
2291.066, 2026.158
2292.995, 2025.527
2294.923, 2024.063
2296.852, 2023.080
2298.780, 2022.563
2300.709, 2023.476
2302.637, 2026.906
2304.566, 2028.873
2306.494, 2027.929
2308.423, 2028.405
2310.351, 2032.338
2312.280, 2034.219
2314.208, 2030.627
2316.136, 2027.763
2318.065, 2030.425
2319.993, 2032.895
2321.922, 2030.545
2323.850, 2027.153
2325.779, 2025.588
2327.707, 2026.051
2329.636, 2029.876
2331.564, 2035.593
2333.493, 2039.421
2335.421, 2041.188
2337.350, 2040.019
2339.278, 2035.964
2341.207, 2030.924
2343.135, 2025.024
2345.063, 2019.483
2346.992, 2014.111
2348.920, 2011.022
2350.849, 2012.589
2352.777, 2013.308
2354.706, 2010.412
2356.634, 2009.039
2358.563, 2011.585
2360.491, 2014.194
2362.420, 2015.797
2364.348, 2015.960
2366.277, 2013.473
2368.205, 2010.466
2370.134, 2009.081
2372.062, 2008.591
2373.990, 2008.215
2375.919, 2007.849
2377.847, 2006.911
2379.776, 2005.652
2381.704, 2005.274
2383.633, 2005.764
2385.561, 2006.645
2387.490, 2007.893
2389.418, 2009.146
2391.347, 2010.209
2393.275, 2011.868
2395.204, 2014.721
2397.132, 2016.373
2399.061, 2015.159
2400.989, 2014.691
2402.917, 2015.688
2404.846, 2017.324
2406.774, 2021.119
2408.703, 2023.083
2410.631, 2020.404
2412.560, 2017.262
2414.488, 2015.586
2416.417, 2015.285
2418.345, 2017.375
2420.274, 2019.678
2422.202, 2019.094
2424.131, 2017.444
2426.059, 2017.705
2427.988, 2019.120
2429.916, 2020.083
2431.844, 2020.673
2433.773, 2021.334
2435.701, 2021.970
2437.630, 2021.510
2439.558, 2019.909
2441.487, 2019.663
2443.415, 2021.289
2445.344, 2022.201
2447.272, 2022.289
2449.201, 2021.910
2451.129, 2020.777
2453.058, 2020.263
2454.986, 2020.596
2456.915, 2021.407
2458.843, 2023.073
2460.771, 2024.354
2462.700, 2024.707
2464.628, 2024.974
2466.557, 2025.391
2468.485, 2025.876
2470.414, 2026.595
2472.342, 2027.099
2474.271, 2026.853
2476.199, 2026.659
2478.128, 2027.165
2480.056, 2027.964
2481.985, 2028.812
2483.913, 2029.524
2485.842, 2029.770
2487.770, 2029.775
2489.698, 2030.536
2491.627, 2031.072
2493.555, 2027.921
2495.484, 2023.297
2497.412, 2024.094
2499.341, 2028.757
2501.269, 2029.371
2503.198, 2026.363
2505.126, 2026.236
2507.055, 2029.118
2508.983, 2030.741
2510.912, 2030.959
2512.840, 2031.272
2514.769, 2031.810
2516.697, 2031.025
2518.625, 2028.513
2520.554, 2026.324
2522.482, 2024.595
2524.411, 2023.683
2526.339, 2024.169
2528.268, 2024.183
2530.196, 2023.137
2532.125, 2022.807
2534.053, 2023.899
2535.982, 2024.807
2537.910, 2024.257
2539.839, 2024.523
2541.767, 2027.923
2543.696, 2029.553
2545.624, 2025.866
2547.552, 2022.704
2549.481, 2022.698
2551.409, 2023.349
2553.338, 2023.358
2555.266, 2023.824
2557.195, 2026.618
2559.123, 2028.809
2561.052, 2026.795
2562.980, 2024.842
2564.909, 2026.938
2566.837, 2030.116
2568.766, 2031.931
2570.694, 2032.812
2572.623, 2033.057
2574.551, 2032.748
2576.479, 2031.717
2578.408, 2030.657
2580.336, 2030.789
2582.265, 2031.728
2584.193, 2032.636
2586.122, 2033.723
2588.050, 2035.946
2589.979, 2038.176
2591.907, 2036.787
2593.836, 2033.534
2595.764, 2035.262
2597.693, 2040.150
2599.621, 2040.003
2601.550, 2036.136
2603.478, 2035.089
2605.406, 2036.217
2607.335, 2035.359
2609.263, 2032.822
2611.192, 2031.505
2613.120, 2031.423
2615.049, 2033.148
2616.977, 2036.609
2618.906, 2038.730
2620.834, 2039.429
2622.763, 2039.512
2624.691, 2038.931
2626.620, 2039.245
2628.548, 2040.830
2630.477, 2041.414
2632.405, 2041.049
2634.333, 2039.822
2636.262, 2037.658
2638.190, 2036.381
2640.119, 2036.060
2642.047, 2037.088
2643.976, 2040.507
2645.904, 2041.109
2647.833, 2037.807
2649.761, 2035.512
2651.690, 2034.754
2653.618, 2033.474
2655.547, 2031.049
2657.475, 2031.525
2659.404, 2036.748
2661.332, 2040.459
2663.260, 2041.784
2665.189, 2041.765
2667.117, 2039.994
2669.046, 2037.953
2670.974, 2035.770
2672.903, 2033.961
2674.831, 2032.852
2676.760, 2032.034
2678.688, 2032.598
2680.617, 2031.160
2682.545, 2026.573
2684.474, 2024.017
2686.402, 2024.639
2688.331, 2025.879
2690.259, 2028.191
2692.188, 2028.756
2694.116, 2025.393
2696.044, 2023.660
2697.973, 2023.867
2699.901, 2025.343
2701.830, 2028.299
2703.758, 2030.656
2705.687, 2032.019
2707.615, 2032.283
2709.544, 2029.965
2711.472, 2029.354
2713.401, 2031.270
2715.329, 2032.983
2717.258, 2034.439
2719.186, 2034.418
2721.115, 2032.262
2723.043, 2030.337
2724.971, 2028.505
2726.900, 2028.690
2728.828, 2031.846
2730.757, 2033.320
2732.685, 2031.763
2734.614, 2031.025
2736.542, 2031.681
2738.471, 2032.747
2740.399, 2034.703
2742.328, 2035.180
2744.256, 2033.801
2746.185, 2033.108
2748.113, 2033.649
2750.042, 2034.248
2751.970, 2035.050
2753.898, 2035.167
2755.827, 2034.435
2757.755, 2033.303
2759.684, 2031.612
2761.612, 2032.123
2763.541, 2035.500
2765.469, 2037.954
2767.398, 2039.036
2769.326, 2039.319
2771.255, 2038.474
2773.183, 2039.277
2775.112, 2041.766
2777.040, 2043.191
2778.969, 2043.384
2780.897, 2042.059
2782.825, 2039.144
2784.754, 2036.809
2786.682, 2035.119
2788.611, 2035.078
2790.539, 2036.426
2792.468, 2036.088
2794.396, 2034.243
2796.325, 2033.389
2798.253, 2033.446
2800.182, 2033.783
2802.110, 2034.381
2804.039, 2035.432
2805.967, 2036.664
2807.896, 2037.576
2809.824, 2037.865
2811.752, 2035.177
2813.681, 2031.573
2815.609, 2034.027
2817.538, 2038.999
2819.466, 2039.252
2821.395, 2036.867
2823.323, 2034.505
2825.252, 2032.993
2827.180, 2034.954
2829.109, 2037.574
2831.037, 2037.532
2832.966, 2035.911
2834.894, 2032.611
2836.823, 2029.942
2838.751, 2031.323
2840.679, 2033.349
2842.608, 2033.394
2844.536, 2032.547
2846.465, 2030.957
2848.393, 2029.571
2850.322, 2029.125
2852.250, 2028.989
2854.179, 2029.254
2856.107, 2029.187
2858.036, 2027.867
2859.964, 2027.286
2861.893, 2028.166
2863.821, 2030.002
2865.750, 2033.826
2867.678, 2035.306
2869.606, 2032.072
2871.535, 2030.176
2873.463, 2032.549
2875.392, 2033.583
2877.320, 2031.814
2879.249, 2031.928
2881.177, 2035.064
2883.106, 2035.879
2885.034, 2033.139
2886.963, 2031.707
2888.891, 2031.614
2890.820, 2033.416
2892.748, 2036.951
2894.677, 2038.060
2896.605, 2036.876
2898.533, 2036.522
2900.462, 2037.023
2902.390, 2037.301
2904.319, 2037.402
2906.247, 2036.588
2908.176, 2035.703
2910.104, 2037.392
2912.033, 2039.944
2913.961, 2039.736
2915.890, 2038.490
2917.818, 2039.358
2919.747, 2040.344
2921.675, 2038.756
2923.604, 2037.016
2925.532, 2038.036
2927.460, 2038.973
2929.389, 2037.030
2931.317, 2035.387
2933.246, 2036.403
2935.174, 2036.916
2937.103, 2033.533
2939.031, 2032.727
2940.960, 2037.811
2942.888, 2042.493
2944.817, 2046.290
2946.745, 2046.682
2948.674, 2041.111
2950.602, 2037.105
2952.531, 2035.133
2954.459, 2035.264
2956.387, 2037.529
2958.316, 2038.676
2960.244, 2038.174
2962.173, 2038.739
2964.101, 2040.088
2966.030, 2039.476
2967.958, 2037.561
2969.887, 2036.776
2971.815, 2036.626
2973.744, 2034.597
2975.672, 2032.793
2977.601, 2035.539
2979.529, 2039.595
2981.458, 2041.542
2983.386, 2042.140
2985.314, 2041.598
2987.243, 2040.606
2989.171, 2039.672
2991.100, 2038.767
2993.028, 2038.531
2994.957, 2037.568
2996.885, 2034.499
2998.814, 2032.534
3000.742, 2032.639
3002.671, 2032.348
3004.599, 2031.281
3006.528, 2030.139
3008.456, 2028.885
3010.385, 2028.272
3012.313, 2028.215
3014.241, 2029.256
3016.170, 2030.863
3018.098, 2029.794
3020.027, 2027.248
3021.955, 2029.456
3023.884, 2033.322
3025.812, 2031.550
3027.741, 2028.000
3029.669, 2026.965
3031.598, 2027.142
3033.526, 2028.031
3035.455, 2028.186
3037.383, 2025.738
3039.312, 2023.688
3041.240, 2024.054
3043.168, 2024.224
3045.097, 2024.139
3047.025, 2022.724
3048.954, 2019.532
3050.882, 2016.700
3052.811, 2013.637
3054.739, 2014.751
3056.668, 2019.872
3058.596, 2023.120
3060.525, 2024.224
3062.453, 2023.365
3064.382, 2021.325
3066.310, 2020.611
3068.239, 2020.481
3070.167, 2019.402
3072.095, 2018.257
3074.024, 2018.565
3075.952, 2018.221
3077.881, 2014.241
3079.809, 2010.923
3081.738, 2010.414
3083.666, 2010.765
3085.595, 2012.051
3087.523, 2013.717
3089.452, 2016.222
3091.380, 2017.460
3093.309, 2016.934
3095.237, 2015.745
3097.166, 2013.550
3099.094, 2015.213
3101.022, 2019.197
3102.951, 2020.358
3104.879, 2019.010
3106.808, 2014.025
3108.736, 2009.060
3110.665, 2010.111
3112.593, 2012.548
3114.522, 2013.721
3116.450, 2013.647
3118.379, 2010.635
3120.307, 2009.370
3122.236, 2011.473
3124.164, 2013.730
3126.093, 2015.460
3128.021, 2016.485
3129.949, 2016.562
3131.878, 2017.080
3133.806, 2017.767
3135.735, 2016.049
3137.663, 2013.148
3139.592, 2014.125
3141.520, 2016.559
3143.449, 2016.096
3145.377, 2014.926
3147.306, 2015.358
3149.234, 2015.625
3151.163, 2014.340
3153.091, 2013.001
3155.020, 2011.951
3156.948, 2011.337
3158.876, 2011.516
3160.805, 2011.200
3162.733, 2010.322
3164.662, 2010.264
3166.590, 2011.046
3168.519, 2011.765
3170.447, 2012.258
3172.376, 2011.414
3174.304, 2010.565
3176.233, 2012.103
3178.161, 2013.981
3180.090, 2013.680
3182.018, 2013.738
3183.947, 2015.290
3185.875, 2017.264
3187.803, 2020.544
3189.732, 2021.023
3191.660, 2018.081
3193.589, 2015.682
3195.517, 2014.255
3197.446, 2014.520
3199.374, 2015.601
3201.303, 2012.218
3203.231, 2007.283
3205.160, 2006.115
3207.088, 2006.118
3209.017, 2004.691
3210.945, 2003.646
3212.874, 2003.963
3214.802, 2004.823
3216.730, 2006.114
3218.659, 2006.323
3220.587, 2004.674
3222.516, 2004.641
3224.444, 2006.362
3226.373, 2007.446
3228.301, 2007.696
3230.230, 2005.070
3232.158, 2001.622
3234.087, 2000.319
3236.015, 1999.715
3237.944, 1997.560
3239.872, 1996.755
3241.801, 1999.421
3243.729, 2000.743
3245.657, 1998.385
3247.586, 1996.359
3249.514, 1994.952
3251.443, 1992.993
3253.371, 1990.587
3255.300, 1987.967
3257.228, 1985.361
3259.157, 1982.367
3261.085, 1980.689
3263.014, 1983.572
3264.942, 1986.244
3266.871, 1985.562
3268.799, 1984.352
3270.728, 1983.392
3272.656, 1981.417
3274.584, 1977.561
3276.513, 1976.400
3278.441, 1977.451
3280.370, 1976.980
3282.298, 1975.120
3284.227, 1970.937
3286.155, 1967.178
3288.084, 1967.262
3290.012, 1968.221
3291.941, 1968.689
3293.869, 1968.281
3295.798, 1966.304
3297.726, 1966.137
3299.655, 1969.189
3301.583, 1968.048
3303.511, 1963.398
3305.440, 1961.953
3307.368, 1962.393
3309.297, 1962.399
3311.225, 1962.235
3313.154, 1962.945
3315.082, 1962.492
3317.011, 1957.844
3318.939, 1956.434
3320.868, 1960.649
3322.796, 1963.905
3324.725, 1965.531
3326.653, 1964.215
3328.582, 1961.025
3330.510, 1961.019
3332.438, 1962.489
3334.367, 1964.415
3336.295, 1964.982
3338.224, 1961.477
3340.152, 1958.759
3342.081, 1957.917
3344.009, 1958.638
3345.938, 1961.151
3347.866, 1962.733
3349.795, 1963.282
3351.723, 1962.677
3353.652, 1961.134
3355.580, 1957.719
3357.509, 1955.343
3359.437, 1956.993
3361.365, 1958.920
3363.294, 1958.972
3365.222, 1959.253
3367.151, 1959.737
3369.079, 1960.823
3371.008, 1962.343
3372.936, 1962.630
3374.865, 1962.379
3376.793, 1963.793
3378.722, 1964.590
3380.650, 1962.289
3382.579, 1959.010
3384.507, 1954.604
3386.436, 1952.690
3388.364, 1954.971
3390.292, 1956.812
3392.221, 1958.282
3394.149, 1960.207
3396.078, 1961.982
3398.006, 1961.822
3399.935, 1961.623
3401.863, 1963.813
3403.792, 1964.580
3405.720, 1960.376
3407.649, 1958.956
3409.577, 1961.073
3411.506, 1961.538
3413.434, 1960.606
3415.363, 1961.158
3417.291, 1962.413
3419.219, 1963.240
3421.148, 1963.750
3423.076, 1963.802
3425.005, 1963.652
3426.933, 1963.396
3428.862, 1962.915
3430.790, 1962.393
3432.719, 1961.113
3434.647, 1959.809
3436.576, 1960.805
3438.504, 1961.919
3440.433, 1959.143
3442.361, 1957.871
3444.290, 1961.423
3446.218, 1963.546
3448.146, 1962.465
3450.075, 1963.333
3452.003, 1965.553
3453.932, 1965.608
3455.860, 1964.288
3457.789, 1962.630
3459.717, 1961.399
3461.646, 1962.474
3463.574, 1961.811
3465.503, 1957.708
3467.431, 1957.651
3469.360, 1962.119
3471.288, 1963.872
3473.217, 1963.675
3475.145, 1962.910
3477.073, 1962.802
3479.002, 1965.955
3480.930, 1967.665
3482.859, 1966.101
3484.787, 1965.987
3486.716, 1968.113
3488.644, 1970.873
3490.573, 1973.815
3492.501, 1976.558
3494.430, 1977.811
3496.358, 1974.641
3498.287, 1972.568
3500.215, 1974.839
3502.144, 1975.360
3504.072, 1973.096
3506.000, 1973.107
3507.929, 1975.168
3509.857, 1978.016
3511.786, 1981.352
3513.714, 1985.495
3515.643, 1988.492
3517.571, 1988.703
3519.500, 1989.400
3521.428, 1991.015
3523.357, 1992.861
3525.285, 1994.636
3527.214, 1993.934
3529.142, 1994.076
3531.071, 1999.550
3532.999, 2004.858
3534.927, 2006.537
3536.856, 2010.699
3538.784, 2017.964
3540.713, 2024.073
3542.641, 2029.392
3544.570, 2035.041
3546.498, 2041.325
3548.427, 2048.308
3550.355, 2056.360
3552.284, 2066.035
3554.212, 2074.242
3556.141, 2080.628
3558.069, 2084.387
3559.998, 2087.477
3561.926, 2094.831
3563.854, 2102.898
3565.783, 2108.353
3567.711, 2114.323
3569.640, 2121.900
3571.568, 2126.386
3573.497, 2127.292
3575.425, 2122.093
3577.354, 2113.483
3579.282, 2106.411
3581.211, 2097.021
3583.139, 2083.083
3585.068, 2068.890
3586.996, 2055.595
3588.925, 2039.891
3590.853, 2023.101
3592.781, 2010.947
3594.710, 1999.253
3596.638, 1979.994
3598.567, 1966.206
3600.495, 1965.665
3602.424, 1962.170
3604.352, 1955.128
3606.281, 1952.271
3608.209, 1950.746
3610.138, 1943.971
3612.066, 1937.375
3613.995, 1933.465
3615.923, 1933.211
3617.852, 1937.479
3619.780, 1940.528
3621.708, 1942.766
3623.637, 1943.841
3625.565, 1948.522
3627.494, 1961.742
3629.422, 1979.239
3631.351, 2004.580
3633.279, 2020.547
3635.208, 2026.580
3637.136, 2023.991
3639.065, 2015.098
3640.993, 1999.170
3642.922, 1984.740
3644.850, 1975.597
3646.779, 1971.368
3648.707, 1971.750
3650.635, 1968.887
3652.564, 1963.517
3654.492, 1957.637
3656.421, 1951.228
3658.349, 1943.048
3660.278, 1937.216
3662.206, 1934.381
3664.135, 1934.945
3666.063, 1938.012
3667.992, 1940.629
3669.920, 1942.487
3671.849, 1942.947
3673.777, 1943.245
3675.706, 1944.067
3677.634, 1942.538
3679.563, 1939.308
3681.491, 1938.695
3683.419, 1940.445
3685.348, 1945.796
3687.276, 1949.475
3689.205, 1948.709
3691.133, 1947.103
3693.062, 1944.861
3694.990, 1941.896
3696.919, 1939.156
3698.847, 1938.214
3700.776, 1937.929
3702.704, 1937.956
3704.633, 1937.894
3706.561, 1937.787
3708.490, 1939.966
3710.418, 1942.559
3712.346, 1942.338
3714.275, 1941.213
3716.203, 1939.228
3718.132, 1939.067
3720.060, 1940.938
3721.989, 1943.903
3723.917, 1946.338
3725.846, 1943.732
3727.774, 1942.024
3729.703, 1946.714
3731.631, 1946.160
3733.560, 1939.863
3735.488, 1936.407
3737.417, 1934.561
3739.345, 1931.490
3741.273, 1930.002
3743.202, 1934.774
3745.130, 1933.457
3747.059, 1926.480
3748.987, 1925.216
3750.916, 1926.082
3752.844, 1921.602
3754.773, 1918.735
3756.701, 1921.710
3758.630, 1924.113
3760.558, 1925.584
3762.487, 1928.043
3764.415, 1929.675
3766.344, 1927.565
3768.272, 1924.883
3770.200, 1923.134
3772.129, 1921.241
3774.057, 1919.664
3775.986, 1919.733
3777.914, 1920.650
3779.843, 1921.385
3781.771, 1922.435
3783.700, 1924.200
3785.628, 1923.462
3787.557, 1920.927
3789.485, 1919.569
3791.414, 1919.105
3793.342, 1920.083
3795.271, 1919.556
3797.199, 1916.235
3799.127, 1917.455
3801.056, 1920.683
3802.984, 1920.203
3804.913, 1918.456
3806.841, 1916.427
3808.770, 1915.704
3810.698, 1916.456
3812.627, 1916.456
3814.555, 1916.404
3816.484, 1917.637
3818.412, 1918.438
3820.341, 1918.120
3822.269, 1917.130
3824.198, 1915.668
3826.126, 1914.734
3828.054, 1912.549
3829.983, 1904.997
3831.911, 1901.189
3833.840, 1903.527
3835.768, 1905.436
3837.697, 1906.415
3839.625, 1905.660
3841.554, 1904.123
3843.482, 1901.290
3845.411, 1901.852
3847.339, 1906.022
3849.268, 1904.566
3851.196, 1900.563
3853.125, 1896.808
3855.053, 1895.114
3856.981, 1896.063
3858.910, 1897.818
3860.838, 1899.232
3862.767, 1895.306
3864.695, 1892.172
3866.624, 1895.645
3868.552, 1898.015
3870.481, 1898.370
3872.409, 1896.019
3874.338, 1893.883
3876.266, 1898.058
3878.195, 1900.810
3880.123, 1896.999
3882.052, 1899.605
3883.980, 1905.556
3885.908, 1902.398
3887.837, 1897.660
3889.765, 1896.221
3891.694, 1896.122
3893.622, 1897.042
3895.551, 1896.862
3897.479, 1896.232
3899.408, 1895.412
3901.336, 1895.743
3903.265, 1897.823
3905.193, 1899.659
3907.122, 1900.466
3909.050, 1897.133
3910.979, 1894.443
3912.907, 1895.815
3914.835, 1896.488
3916.764, 1895.953
3918.692, 1896.926
3920.621, 1897.776
3922.549, 1896.176
3924.478, 1895.614
3926.406, 1896.949
3928.335, 1897.055
3930.263, 1896.533
3932.192, 1896.845
3934.120, 1896.371
3936.049, 1893.226
3937.977, 1893.055
3939.906, 1894.847
3941.834, 1893.861
3943.762, 1892.642
3945.691, 1893.283
3947.619, 1893.194
3949.548, 1892.380
3951.476, 1895.138
3953.405, 1897.915
3955.333, 1895.611
3957.262, 1894.374
3959.190, 1896.016
3961.119, 1896.075
3963.047, 1895.950
3964.976, 1898.890
3966.904, 1900.490
3968.833, 1899.263
3970.761, 1895.330
3972.689, 1890.760
3974.618, 1892.271
3976.546, 1895.308
3978.475, 1898.960
3980.403, 1896.914
3982.332, 1890.962
3984.260, 1895.061
3986.189, 1899.085
3988.117, 1893.008
3990.046, 1889.514
3991.974, 1889.541
3993.903, 1888.850
3995.831, 1888.130
3997.760, 1888.449
3999.688, 1888.607
4001.616, 1888.287
4003.545, 1889.439
4005.473, 1889.721
4007.402, 1883.404
4009.330, 1880.231
4011.259, 1883.383
4013.187, 1883.991
4015.116, 1883.628
4017.044, 1886.059
4018.973, 1888.317
4020.901, 1889.366
4022.830, 1888.599
4024.758, 1887.057
4026.687, 1888.947
4028.615, 1888.680
4030.543, 1881.420
4032.472, 1879.779
4034.400, 1882.323
4036.329, 1883.860
4038.257, 1882.658
4040.186, 1876.077
4042.114, 1874.284
4044.043, 1876.298
4045.971, 1875.507
4047.900, 1875.187
4049.828, 1877.967
4051.757, 1878.017
4053.685, 1875.641
4055.614, 1876.619
4057.542, 1877.806
4059.470, 1876.512
4061.399, 1876.105
4063.327, 1876.607
4065.256, 1876.795
4067.184, 1875.401
4069.113, 1869.225
4071.041, 1867.894
4072.970, 1871.022
4074.898, 1872.656
4076.827, 1872.291
4078.755, 1868.865
4080.684, 1867.056
4082.612, 1867.334
4084.541, 1869.436
4086.469, 1869.534
4088.397, 1861.847
4090.326, 1862.271
4092.254, 1870.739
4094.183, 1870.117
4096.111, 1866.722
4098.040, 1865.229
4099.968, 1862.623
4101.896, 1859.335
4103.825, 1860.138
4105.754, 1861.416
4107.682, 1860.580
4109.610, 1859.629
4111.539, 1858.884
4113.468, 1859.143
4115.396, 1858.530
4117.324, 1855.046
4119.253, 1856.283
4121.182, 1861.064
4123.110, 1859.954
4125.038, 1858.136
4126.967, 1858.588
4128.896, 1858.286
4130.824, 1857.738
4132.752, 1860.151
4134.681, 1862.800
4136.609, 1864.296
4138.538, 1865.233
4140.466, 1865.703
4142.395, 1865.883
4144.323, 1865.969
4146.251, 1866.057
4148.180, 1865.603
4150.108, 1865.299
4152.037, 1867.288
4153.965, 1867.864
4155.894, 1866.057
4157.822, 1866.456
4159.751, 1867.641
4161.679, 1866.752
4163.607, 1866.496
4165.536, 1867.340
4167.465, 1870.134
4169.393, 1872.081
4171.321, 1869.526
4173.250, 1867.589
4175.179, 1867.295
4177.107, 1869.139
4179.035, 1871.821
4180.964, 1874.663
4182.893, 1875.940
4184.821, 1875.968
4186.749, 1878.237
4188.678, 1879.904
4190.606, 1878.517
4192.535, 1878.116
4194.463, 1878.040
4196.392, 1876.175
4198.320, 1873.873
4200.249, 1871.468
4202.177, 1872.342
4204.105, 1874.712
4206.034, 1875.639
4207.962, 1876.625
4209.891, 1877.761
4211.819, 1872.532
4213.748, 1868.861
4215.676, 1876.733
4217.604, 1882.209
4219.533, 1883.672
4221.462, 1882.957
4223.390, 1880.723
4225.318, 1877.286
4227.247, 1875.351
4229.176, 1874.668
4231.104, 1872.615
4233.032, 1872.957
4234.961, 1876.738
4236.890, 1878.481
4238.818, 1878.361
4240.746, 1875.511
4242.675, 1872.240
##END=



