##NAMES=Pachnolite
##RRUFFID=R070596
##IDEAL CHEMISTRY=NaCaAlF_6_·H_2_O
##LOCALITY=Ivigtut, Arsuk, Kitaa Province, Greenland
##OWNER=RRUFF
##SOURCE=James Shigley
##DESCRIPTION=White to colorless translucent prismatic crystals
##STATUS=The identification of this mineral has been confirmed by single-crystal X-ray diffraction
##URL=https://www.rruff.net/odr/rruff_sample/R070596
##DIFFRACTION SAMPLE DESCRIPTION=Single crystal, powder profile is calculated
##CELL PARAMETERS=a: 12.115 b: 10.416 c: 15.709 alpha: 90 beta: 90.219 gamma: 90 volume: 1982.5 crystal system: monoclinic
##FILETYPE=Raman RAW
##RAMAN WAVELENGTH=532

148.2158, 7076.613
150.1443, 7122.962
152.0728, 7162.382
154.0012, 7190.521
155.9297, 7202.683
157.8582, 7219.036
159.7866, 7246.520
161.7151, 7279.734
163.6436, 7302.388
165.5720, 7299.658
167.5005, 7296.363
169.4290, 7309.697
171.3574, 7358.559
173.2859, 7397.090
175.2144, 7403.804
177.1428, 7386.126
179.0713, 7388.235
180.9998, 7422.258
182.9282, 7468.477
184.8567, 7508.723
186.7852, 7540.328
188.7136, 7579.315
190.6421, 7634.226
192.5706, 7703.489
194.4990, 7756.955
196.4275, 7790.190
198.3560, 7816.698
200.2844, 7847.880
202.2129, 7883.496
204.1414, 7918.097
206.0698, 7951.893
207.9983, 7985.947
209.9268, 8012.137
211.8552, 8009.731
213.7837, 8013.296
215.7122, 8049.262
217.6406, 8154.818
219.5691, 8240.902
221.4976, 8282.211
223.4260, 8287.073
225.3545, 8302.868
227.2830, 8349.646
229.2114, 8403.366
231.1399, 8446.720
233.0684, 8463.823
234.9968, 8483.236
236.9253, 8511.124
238.8538, 8547.723
240.7822, 8576.051
242.7107, 8585.514
244.6392, 8589.670
246.5676, 8596.512
248.4961, 8607.297
250.4246, 8622.125
252.3530, 8638.992
254.2815, 8655.112
256.2100, 8692.804
258.1384, 8776.815
260.0669, 8855.606
261.9954, 8891.482
263.9238, 8886.932
265.8523, 8891.401
267.7808, 8913.810
269.7092, 8947.401
271.6377, 8988.426
273.5662, 9048.213
275.4946, 9101.136
277.4231, 9133.186
279.3516, 9140.127
281.2800, 9155.777
283.2085, 9186.237
285.1370, 9225.874
287.0654, 9269.293
288.9939, 9322.078
290.9224, 9371.627
292.8508, 9412.321
294.7793, 9437.272
296.7078, 9464.741
298.6362, 9502.444
300.5647, 9539.530
302.4932, 9562.567
304.4216, 9560.578
306.3501, 9558.868
308.2786, 9564.854
310.2070, 9582.354
312.1355, 9601.942
314.0640, 9618.663
315.9924, 9642.775
317.9209, 9680.268
319.8494, 9736.216
321.7778, 9794.388
323.7063, 9853.840
325.6348, 9916.253
327.5632, 9977.061
329.4917, 10031.68
331.4202, 10088.93
333.3486, 10157.75
335.2771, 10258.46
337.2056, 10329.15
339.1340, 10353.04
341.0625, 10352.43
342.9910, 10356.44
344.9194, 10371.17
346.8479, 10383.58
348.7764, 10387.73
350.7048, 10381.84
352.6333, 10379.54
354.5618, 10365.12
356.4902, 10364.63
358.4187, 10395.43
360.3472, 10479.34
362.2756, 10562.60
364.2041, 10623.63
366.1326, 10679.14
368.0610, 10771.87
369.9895, 10915.60
371.9180, 11087.17
373.8464, 11281.41
375.7749, 11524.83
377.7034, 11723.78
379.6318, 11875.14
381.5603, 11978.83
383.4888, 12042.78
385.4172, 12050.33
387.3457, 12041.81
389.2742, 12033.20
391.2026, 12021.27
393.1311, 11983.83
395.0596, 11913.72
396.9880, 11824.61
398.9165, 11723.78
400.8450, 11597.61
402.7734, 11499.78
404.7019, 11442.71
406.6304, 11410.36
408.5588, 11380.54
410.4873, 11359.37
412.4158, 11330.25
414.3442, 11281.83
416.2727, 11209.83
418.2012, 11152.82
420.1296, 11116.24
422.0581, 11092.37
423.9866, 11075.22
425.9150, 11066.59
427.8435, 11052.56
429.7720, 11024.85
431.7004, 10994.58
433.6289, 10977.64
435.5574, 10973.74
437.4858, 10977.49
439.4143, 10995.68
441.3428, 11028.57
443.2712, 11055.96
445.1997, 11068.28
447.1282, 11075.43
449.0566, 11084.95
450.9851, 11094.18
452.9136, 11112.36
454.8420, 11149.10
456.7705, 11196.50
458.6990, 11237.28
460.6274, 11272.25
462.5559, 11296.39
464.4844, 11307.68
466.4128, 11313.25
468.3413, 11324.17
470.2698, 11343.56
472.1982, 11361.94
474.1267, 11379.34
476.0552, 11395.06
477.9836, 11420.05
479.9121, 11456.95
481.8406, 11492.73
483.7690, 11524.79
485.6975, 11552.89
487.6260, 11579.14
489.5544, 11598.34
491.4829, 11613.80
493.4114, 11642.72
495.3398, 11695.83
497.2683, 11746.15
499.1968, 11784.91
501.1252, 11813.87
503.0537, 11835.88
504.9822, 11841.05
506.9106, 11843.13
508.8391, 11854.20
510.7676, 11875.15
512.6960, 11897.61
514.6245, 11923.37
516.5530, 11947.81
518.4814, 11976.11
520.4099, 12017.25
522.3384, 12061.55
524.2668, 12089.36
526.1953, 12101.67
528.1238, 12122.63
530.0522, 12167.89
531.9807, 12215.05
533.9092, 12261.29
535.8376, 12310.03
537.7661, 12374.50
539.6946, 12436.89
541.6230, 12503.45
543.5515, 12594.34
545.4800, 12716.32
547.4084, 12848.66
549.3369, 12990.92
551.2654, 13158.28
553.1938, 13349.49
555.1223, 13540.04
557.0508, 13745.66
558.9792, 14006.11
560.9077, 14321.17
562.8362, 14654.04
564.7646, 15016.79
566.6931, 15355.04
568.6216, 15624.38
570.5500, 15811.24
572.4785, 15907.54
574.4070, 15913.85
576.3354, 15818.44
578.2639, 15637.06
580.1924, 15345.87
582.1208, 15038.78
584.0493, 14730.20
585.9778, 14429.53
587.9063, 14157.72
589.8347, 13925.94
591.7632, 13749.92
593.6917, 13594.80
595.6201, 13446.24
597.5486, 13309.67
599.4771, 13239.00
601.4055, 13191.71
603.3340, 13126.38
605.2625, 13043.22
607.1909, 12972.22
609.1194, 12927.26
611.0479, 12916.43
612.9763, 12931.78
614.9048, 12961.11
616.8333, 12944.86
618.7617, 12903.42
620.6902, 12890.34
622.6187, 12912.01
624.5471, 12944.36
626.4756, 12947.04
628.4041, 12929.82
630.3325, 12927.79
632.2610, 12961.15
634.1895, 13013.50
636.1179, 13043.43
638.0464, 13058.78
639.9749, 13073.17
641.9033, 13094.15
643.8318, 13121.73
645.7603, 13149.04
647.6887, 13164.64
649.6172, 13175.49
651.5457, 13199.18
653.4741, 13256.25
655.4026, 13327.57
657.3311, 13390.56
659.2595, 13439.98
661.1880, 13495.03
663.1165, 13584.08
665.0449, 13656.72
666.9734, 13695.06
668.9019, 13709.28
670.8303, 13738.23
672.7588, 13781.29
674.6873, 13822.18
676.6157, 13857.37
678.5442, 13884.37
680.4727, 13881.23
682.4011, 13853.35
684.3296, 13827.25
686.2581, 13811.99
688.1865, 13794.26
690.1150, 13778.80
692.0435, 13786.90
693.9719, 13804.14
695.9004, 13818.52
697.8289, 13811.51
699.7573, 13801.05
701.6858, 13788.92
703.6143, 13774.84
705.5427, 13752.63
707.4712, 13738.82
709.3997, 13731.35
711.3281, 13721.06
713.2566, 13715.75
715.1851, 13727.21
717.1135, 13756.77
719.0420, 13792.44
720.9705, 13847.61
722.8989, 13891.28
724.8274, 13880.43
726.7559, 13823.57
728.6843, 13801.38
730.6128, 13841.65
732.5413, 13899.27
734.4697, 13939.55
736.3982, 13959.48
738.3267, 13969.88
740.2551, 13965.30
742.1836, 13962.54
744.1121, 13967.90
746.0405, 13986.80
747.9690, 14023.02
749.8975, 14087.40
751.8259, 14155.38
753.7544, 14199.49
755.6829, 14187.24
757.6113, 14169.55
759.5398, 14148.71
761.4683, 14149.87
763.3967, 14172.92
765.3252, 14212.10
767.2537, 14232.75
769.1821, 14230.74
771.1106, 14224.57
773.0391, 14218.23
774.9675, 14193.32
776.8960, 14186.28
778.8245, 14220.66
780.7529, 14274.85
782.6814, 14315.67
784.6099, 14327.22
786.5383, 14335.68
788.4668, 14344.98
790.3953, 14359.91
792.3237, 14374.94
794.2522, 14393.43
796.1807, 14414.39
798.1091, 14445.64
800.0376, 14470.75
801.9661, 14477.72
803.8945, 14466.85
805.8230, 14468.30
807.7515, 14493.92
809.6799, 14518.54
811.6084, 14536.91
813.5369, 14551.38
815.4653, 14566.61
817.3938, 14582.46
819.3223, 14602.18
821.2507, 14621.03
823.1792, 14636.38
825.1077, 14660.03
827.0361, 14709.85
828.9646, 14755.74
830.8931, 14773.11
832.8215, 14765.24
834.7500, 14759.22
836.6785, 14756.41
838.6069, 14755.08
840.5354, 14755.60
842.4639, 14753.85
844.3923, 14768.31
846.3208, 14817.18
848.2493, 14870.33
850.1777, 14900.76
852.1062, 14906.00
854.0347, 14913.57
855.9631, 14927.59
857.8916, 14942.68
859.8201, 14955.56
861.7485, 14965.95
863.6770, 14982.67
865.6055, 15019.89
867.5339, 15057.00
869.4624, 15077.04
871.3909, 15072.81
873.3193, 15088.90
875.2478, 15136.83
877.1763, 15190.91
879.1047, 15239.43
881.0332, 15282.24
882.9617, 15316.67
884.8901, 15337.74
886.8186, 15352.78
888.7471, 15366.63
890.6755, 15380.85
892.6040, 15388.66
894.5325, 15378.45
896.4609, 15377.51
898.3894, 15405.99
900.3179, 15452.14
902.2463, 15482.88
904.1748, 15485.04
906.1033, 15495.41
908.0317, 15531.71
909.9602, 15575.32
911.8887, 15601.77
913.8171, 15594.69
915.7456, 15594.20
917.6741, 15600.04
919.6025, 15621.37
921.5310, 15665.14
923.4595, 15742.63
925.3879, 15800.68
927.3164, 15811.33
929.2449, 15803.90
931.1733, 15804.90
933.1018, 15819.61
935.0303, 15833.15
936.9587, 15845.12
938.8872, 15850.30
940.8157, 15855.91
942.7441, 15874.17
944.6726, 15901.04
946.6011, 15937.47
948.5295, 15965.95
950.4580, 15989.50
952.3865, 16020.66
954.3149, 16052.66
956.2434, 16073.32
958.1719, 16086.70
960.1003, 16116.75
962.0288, 16159.25
963.9573, 16191.84
965.8857, 16208.97
967.8142, 16235.25
969.7427, 16284.41
971.6711, 16344.46
973.5996, 16392.11
975.5281, 16419.59
977.4565, 16440.33
979.3850, 16452.13
981.3135, 16457.52
983.2419, 16486.51
985.1704, 16566.27
987.0989, 16648.61
989.0273, 16709.43
990.9558, 16732.44
992.8843, 16757.79
994.8127, 16800.93
996.7412, 16831.43
998.6697, 16817.31
1000.598, 16783.60
1002.527, 16781.39
1004.455, 16835.96
1006.384, 16876.68
1008.312, 16866.79
1010.240, 16825.70
1012.169, 16810.59
1014.097, 16825.59
1016.026, 16845.35
1017.954, 16869.05
1019.883, 16908.77
1021.811, 16980.13
1023.740, 17056.48
1025.668, 17100.06
1027.597, 17101.70
1029.525, 17104.78
1031.454, 17122.13
1033.382, 17130.74
1035.311, 17140.57
1037.239, 17175.62
1039.167, 17227.86
1041.096, 17286.38
1043.024, 17327.50
1044.953, 17358.03
1046.881, 17391.47
1048.810, 17421.72
1050.738, 17433.94
1052.667, 17437.85
1054.595, 17481.25
1056.524, 17571.64
1058.452, 17631.07
1060.381, 17619.37
1062.309, 17577.40
1064.238, 17560.80
1066.166, 17585.02
1068.094, 17620.34
1070.023, 17653.31
1071.951, 17676.80
1073.880, 17692.13
1075.808, 17723.39
1077.737, 17763.58
1079.665, 17794.88
1081.594, 17819.16
1083.522, 17844.60
1085.451, 17879.48
1087.379, 17919.50
1089.308, 17959.12
1091.236, 17983.94
1093.165, 17998.39
1095.093, 18018.57
1097.021, 18050.36
1098.950, 18067.10
1100.878, 18087.21
1102.807, 18115.57
1104.735, 18148.96
1106.664, 18182.22
1108.592, 18225.77
1110.521, 18258.56
1112.449, 18277.80
1114.378, 18305.49
1116.306, 18357.79
1118.235, 18423.14
1120.163, 18462.70
1122.092, 18454.30
1124.020, 18442.40
1125.948, 18451.13
1127.877, 18481.66
1129.805, 18517.75
1131.734, 18587.15
1133.662, 18656.63
1135.591, 18694.44
1137.519, 18712.19
1139.448, 18745.49
1141.376, 18809.79
1143.305, 18858.29
1145.233, 18866.66
1147.162, 18864.48
1149.090, 18889.30
1151.019, 18945.65
1152.947, 18994.78
1154.875, 19008.80
1156.804, 19011.55
1158.732, 19024.24
1160.661, 19051.93
1162.589, 19095.82
1164.518, 19165.62
1166.446, 19223.41
1168.375, 19258.07
1170.303, 19274.40
1172.232, 19280.10
1174.160, 19271.14
1176.089, 19289.12
1178.017, 19350.44
1179.946, 19395.21
1181.874, 19415.56
1183.802, 19436.28
1185.731, 19476.72
1187.659, 19510.12
1189.588, 19521.77
1191.516, 19528.90
1193.445, 19554.63
1195.373, 19609.57
1197.302, 19697.13
1199.230, 19742.99
1201.159, 19739.91
1203.087, 19734.58
1205.016, 19749.13
1206.944, 19786.64
1208.873, 19830.26
1210.801, 19875.07
1212.729, 19915.31
1214.658, 19958.23
1216.586, 19993.81
1218.515, 20013.34
1220.443, 20017.19
1222.372, 20035.33
1224.300, 20064.23
1226.229, 20097.17
1228.157, 20144.39
1230.086, 20207.37
1232.014, 20267.79
1233.943, 20329.97
1235.871, 20371.16
1237.800, 20384.77
1239.728, 20393.72
1241.656, 20417.65
1243.585, 20449.53
1245.513, 20494.54
1247.442, 20564.00
1249.370, 20638.75
1251.299, 20709.84
1253.227, 20772.04
1255.156, 20801.01
1257.084, 20781.64
1259.013, 20763.61
1260.941, 20754.89
1262.870, 20764.13
1264.798, 20813.20
1266.727, 20908.01
1268.655, 20976.47
1270.583, 20985.13
1272.512, 20992.19
1274.440, 21012.31
1276.369, 21047.04
1278.297, 21112.39
1280.226, 21226.36
1282.154, 21326.76
1284.083, 21401.59
1286.011, 21473.38
1287.940, 21546.10
1289.868, 21616.64
1291.797, 21659.85
1293.725, 21666.87
1295.654, 21671.85
1297.582, 21667.68
1299.510, 21663.21
1301.439, 21700.12
1303.367, 21791.04
1305.296, 21861.28
1307.224, 21877.74
1309.153, 21885.97
1311.081, 21921.21
1313.010, 21975.24
1314.938, 22010.43
1316.867, 22020.02
1318.795, 22026.27
1320.724, 22025.67
1322.652, 22028.64
1324.581, 22059.31
1326.509, 22124.24
1328.438, 22183.32
1330.366, 22232.35
1332.294, 22275.41
1334.223, 22305.18
1336.151, 22332.92
1338.080, 22371.10
1340.008, 22423.63
1341.937, 22465.23
1343.865, 22479.97
1345.794, 22500.79
1347.722, 22555.62
1349.651, 22628.40
1351.579, 22661.04
1353.508, 22639.64
1355.436, 22623.58
1357.365, 22624.62
1359.293, 22640.16
1361.221, 22672.65
1363.150, 22720.31
1365.078, 22771.10
1367.007, 22827.45
1368.935, 22879.74
1370.864, 22930.48
1372.792, 22968.17
1374.721, 22968.88
1376.649, 22930.05
1378.578, 22936.78
1380.506, 23027.15
1382.435, 23114.33
1384.363, 23185.56
1386.292, 23236.60
1388.220, 23254.21
1390.148, 23216.84
1392.077, 23212.42
1394.005, 23255.61
1395.934, 23312.47
1397.862, 23376.73
1399.791, 23441.52
1401.719, 23503.44
1403.648, 23577.40
1405.576, 23624.64
1407.505, 23600.75
1409.433, 23585.84
1411.362, 23644.19
1413.290, 23734.13
1415.219, 23750.06
1417.147, 23677.17
1419.075, 23627.05
1421.004, 23619.92
1422.932, 23646.74
1424.861, 23733.57
1426.789, 23850.21
1428.718, 23924.24
1430.646, 23942.45
1432.575, 23959.32
1434.503, 23963.63
1436.432, 23991.97
1438.360, 24072.63
1440.289, 24182.13
1442.217, 24258.10
1444.146, 24294.79
1446.074, 24317.36
1448.002, 24325.15
1449.931, 24333.93
1451.859, 24353.62
1453.788, 24394.62
1455.716, 24442.73
1457.645, 24486.96
1459.573, 24521.27
1461.502, 24516.01
1463.430, 24525.35
1465.359, 24607.92
1467.287, 24739.88
1469.216, 24796.71
1471.144, 24689.32
1473.073, 24648.86
1475.001, 24755.70
1476.929, 24880.83
1478.858, 24930.23
1480.786, 24917.05
1482.715, 24935.60
1484.643, 25002.71
1486.572, 25060.68
1488.500, 25094.71
1490.429, 25114.63
1492.357, 25122.60
1494.286, 25127.70
1496.214, 25157.23
1498.143, 25225.68
1500.071, 25260.75
1502.000, 25204.25
1503.928, 25172.64
1505.856, 25247.78
1507.785, 25382.16
1509.713, 25486.83
1511.642, 25552.10
1513.570, 25621.07
1515.499, 25699.04
1517.427, 25767.28
1519.356, 25827.67
1521.284, 25874.69
1523.213, 25879.57
1525.141, 25835.29
1527.070, 25826.97
1528.998, 25897.70
1530.927, 25961.31
1532.855, 25975.87
1534.783, 25983.57
1536.712, 26031.85
1538.640, 26113.38
1540.569, 26175.14
1542.497, 26215.26
1544.426, 26254.49
1546.354, 26282.71
1548.283, 26309.69
1550.211, 26347.75
1552.140, 26403.06
1554.068, 26475.59
1555.997, 26572.69
1557.925, 26650.20
1559.854, 26696.04
1561.782, 26738.05
1563.710, 26797.33
1565.639, 26862.10
1567.567, 26894.28
1569.496, 26863.66
1571.424, 26866.92
1573.353, 26904.33
1575.281, 26974.11
1577.210, 27129.72
1579.138, 27301.88
1581.067, 27348.51
1582.995, 27217.31
1584.924, 27171.62
1586.852, 27267.50
1588.781, 27359.24
1590.709, 27405.08
1592.637, 27435.02
1594.566, 27470.14
1596.494, 27505.96
1598.423, 27560.11
1600.351, 27680.35
1602.280, 27764.87
1604.208, 27799.98
1606.137, 27800.20
1608.065, 27747.55
1609.994, 27673.21
1611.922, 27673.38
1613.851, 27783.05
1615.779, 27854.41
1617.708, 27836.46
1619.636, 27836.69
1621.564, 27917.33
1623.493, 28017.42
1625.421, 28051.46
1627.350, 28015.94
1629.278, 28010.89
1631.207, 28041.80
1633.135, 28089.02
1635.064, 28170.74
1636.992, 28248.59
1638.921, 28292.83
1640.849, 28310.60
1642.778, 28322.58
1644.706, 28324.55
1646.635, 28352.65
1648.563, 28447.07
1650.491, 28523.93
1652.420, 28533.09
1654.348, 28522.79
1656.277, 28550.06
1658.205, 28614.10
1660.134, 28689.91
1662.062, 28803.62
1663.991, 28867.08
1665.919, 28816.21
1667.848, 28757.36
1669.776, 28764.01
1671.705, 28807.12
1673.633, 28817.32
1675.562, 28789.20
1677.490, 28777.56
1679.418, 28776.83
1681.347, 28806.35
1683.275, 28907.39
1685.204, 29008.93
1687.132, 29013.70
1689.061, 28954.07
1690.989, 29017.93
1692.918, 29281.09
1694.846, 29407.98
1696.775, 29252.49
1698.703, 29089.37
1700.632, 29018.86
1702.560, 29007.87
1704.489, 29018.68
1706.417, 29051.89
1708.345, 29111.15
1710.274, 29234.78
1712.202, 29300.16
1714.131, 29232.27
1716.059, 29165.55
1717.988, 29171.51
1719.916, 29224.35
1721.845, 29288.62
1723.773, 29367.85
1725.702, 29420.65
1727.630, 29418.56
1729.559, 29435.84
1731.487, 29515.34
1733.416, 29586.42
1735.344, 29575.10
1737.272, 29532.03
1739.201, 29580.15
1741.129, 29749.07
1743.058, 29855.76
1744.986, 29844.18
1746.915, 29845.85
1748.843, 29887.85
1750.772, 29943.71
1752.700, 30016.70
1754.629, 30088.18
1756.557, 30095.25
1758.486, 30000.60
1760.414, 29993.91
1762.343, 30150.84
1764.271, 30282.47
1766.199, 30357.24
1768.128, 30389.29
1770.056, 30359.71
1771.985, 30300.43
1773.913, 30300.87
1775.842, 30385.79
1777.770, 30453.34
1779.699, 30518.59
1781.627, 30552.83
1783.556, 30506.78
1785.484, 30475.44
1787.413, 30540.56
1789.341, 30653.99
1791.270, 30701.38
1793.198, 30668.33
1795.126, 30664.42
1797.055, 30698.62
1798.983, 30751.34
1800.912, 30854.67
1802.840, 30940.34
1804.769, 30958.16
1806.697, 30947.09
1808.626, 30977.79
1810.554, 31049.39
1812.483, 31098.04
1814.411, 31109.93
1816.340, 31124.27
1818.268, 31130.63
1820.197, 31158.88
1822.125, 31238.96
1824.053, 31333.40
1825.982, 31400.06
1827.910, 31443.93
1829.839, 31499.63
1831.767, 31584.45
1833.696, 31616.92
1835.624, 31536.50
1837.553, 31491.69
1839.481, 31571.53
1841.410, 31693.49
1843.338, 31789.24
1845.267, 31857.08
1847.195, 31887.23
1849.124, 31863.92
1851.052, 31903.85
1852.980, 32095.37
1854.909, 32216.83
1856.837, 32151.01
1858.766, 32075.89
1860.694, 32131.24
1862.623, 32247.98
1864.551, 32288.69
1866.480, 32247.82
1868.408, 32256.55
1870.337, 32360.48
1872.265, 32430.75
1874.194, 32416.72
1876.122, 32423.04
1878.051, 32528.51
1879.979, 32639.67
1881.907, 32643.29
1883.836, 32570.14
1885.764, 32549.51
1887.693, 32585.38
1889.621, 32653.99
1891.550, 32790.49
1893.478, 32887.71
1895.407, 32892.38
1897.335, 32890.04
1899.264, 32950.63
1901.192, 33022.50
1903.121, 33006.61
1905.049, 32928.20
1906.978, 32937.18
1908.906, 33050.68
1910.834, 33157.06
1912.763, 33228.59
1914.691, 33289.31
1916.620, 33338.47
1918.548, 33381.21
1920.477, 33425.79
1922.405, 33466.77
1924.334, 33497.50
1926.262, 33521.57
1928.191, 33535.26
1930.119, 33538.67
1932.048, 33544.76
1933.976, 33539.71
1935.905, 33558.27
1937.833, 33628.68
1939.761, 33708.04
1941.690, 33763.94
1943.618, 33802.07
1945.547, 33828.34
1947.475, 33839.67
1949.404, 33900.94
1951.332, 34068.69
1953.261, 34157.55
1955.189, 34045.86
1957.118, 33988.78
1959.046, 34116.93
1960.975, 34271.16
1962.903, 34327.48
1964.832, 34317.95
1966.760, 34311.20
1968.688, 34306.98
1970.617, 34297.91
1972.545, 34283.70
1974.474, 34292.62
1976.402, 34354.54
1978.331, 34409.13
1980.259, 34432.82
1982.188, 34445.41
1984.116, 34429.87
1986.045, 34425.81
1987.973, 34526.03
1989.902, 34717.96
1991.830, 34824.88
1993.759, 34791.47
1995.687, 34792.00
1997.615, 34870.80
1999.544, 34913.95
2001.472, 34863.26
2003.401, 34812.62
2005.329, 34825.38
2007.258, 34864.68
2009.186, 34890.05
2011.115, 34905.11
2013.043, 34905.17
2014.972, 34889.40
2016.900, 34939.48
2018.829, 35096.20
2020.757, 35200.23
2022.686, 35153.88
2024.614, 35139.46
2026.542, 35298.14
2028.471, 35467.89
2030.399, 35476.90
2032.328, 35411.38
2034.256, 35458.16
2036.185, 35610.52
2038.113, 35692.32
2040.042, 35669.01
2041.970, 35661.62
2043.899, 35679.11
2045.827, 35704.04
2047.756, 35770.58
2049.684, 35805.08
2051.613, 35739.76
2053.541, 35656.80
2055.469, 35633.94
2057.398, 35666.83
2059.326, 35762.19
2061.255, 35912.59
2063.183, 35973.84
2065.112, 35908.42
2067.040, 35902.27
2068.969, 36013.69
2070.897, 36128.12
2072.826, 36218.74
2074.754, 36282.85
2076.683, 36299.69
2078.611, 36305.10
2080.540, 36334.47
2082.468, 36387.96
2084.396, 36485.23
2086.325, 36640.64
2088.253, 36683.24
2090.182, 36553.41
2092.110, 36469.90
2094.039, 36450.71
2095.967, 36475.58
2097.896, 36574.95
2099.824, 36671.29
2101.753, 36715.39
2103.681, 36744.16
2105.610, 36786.26
2107.538, 36839.70
2109.467, 36908.49
2111.395, 36988.26
2113.323, 37046.01
2115.252, 37081.73
2117.180, 37084.38
2119.109, 37001.16
2121.037, 36970.19
2122.966, 37053.36
2124.894, 37140.04
2126.823, 37182.80
2128.751, 37218.11
2130.680, 37282.58
2132.608, 37350.39
2134.537, 37376.16
2136.465, 37367.71
2138.394, 37357.22
2140.322, 37345.92
2142.250, 37354.47
2144.179, 37388.64
2146.107, 37439.80
2148.036, 37520.46
2149.964, 37597.38
2151.893, 37642.61
2153.821, 37703.65
2155.750, 37825.74
2157.678, 37948.84
2159.607, 38011.00
2161.535, 38032.59
2163.464, 38058.32
2165.392, 38083.96
2167.321, 38056.88
2169.249, 37973.75
2171.177, 37984.63
2173.106, 38129.64
2175.034, 38241.90
2176.963, 38272.97
2178.891, 38307.98
2180.820, 38409.54
2182.748, 38473.48
2184.677, 38395.60
2186.605, 38303.65
2188.534, 38331.46
2190.462, 38413.32
2192.391, 38435.43
2194.319, 38415.91
2196.248, 38438.46
2198.176, 38507.71
2200.104, 38561.34
2202.033, 38586.96
2203.961, 38654.58
2205.890, 38790.40
2207.818, 38902.76
2209.747, 38949.98
2211.675, 38981.19
2213.604, 39035.07
2215.532, 39059.77
2217.461, 38988.59
2219.389, 38901.61
2221.318, 38885.71
2223.246, 38930.72
2225.175, 39026.70
2227.103, 39165.44
2229.031, 39269.44
2230.960, 39337.43
2232.888, 39328.10
2234.817, 39216.02
2236.745, 39169.41
2238.674, 39256.32
2240.602, 39339.54
2242.531, 39377.37
2244.459, 39415.77
2246.388, 39458.70
2248.316, 39518.43
2250.245, 39606.31
2252.173, 39698.67
2254.102, 39775.65
2256.030, 39828.55
2257.958, 39835.78
2259.887, 39809.35
2261.815, 39805.00
2263.744, 39827.95
2265.672, 39840.53
2267.601, 39840.03
2269.529, 39865.52
2271.458, 39948.48
2273.386, 40007.31
2275.315, 39989.63
2277.243, 39995.37
2279.172, 40085.57
2281.100, 40152.91
2283.029, 40112.41
2284.957, 40063.63
2286.885, 40116.02
2288.814, 40185.43
2290.742, 40126.19
2292.671, 40023.80
2294.599, 40089.03
2296.528, 40291.84
2298.456, 40424.14
2300.385, 40480.58
2302.313, 40507.37
2304.242, 40494.45
2306.170, 40485.80
2308.099, 40467.68
2310.027, 40506.40
2311.956, 40639.29
2313.884, 40763.08
2315.813, 40848.46
2317.741, 40895.91
2319.669, 40851.50
2321.598, 40829.85
2323.526, 40965.95
2325.455, 41121.41
2327.383, 41117.24
2329.312, 41049.64
2331.240, 41110.52
2333.169, 41246.15
2335.097, 41236.38
2337.026, 41110.85
2338.954, 41088.11
2340.883, 41177.43
2342.811, 41213.41
2344.740, 41165.20
2346.668, 41157.80
2348.596, 41220.72
2350.525, 41301.53
2352.453, 41432.20
2354.382, 41515.69
2356.310, 41482.55
2358.239, 41469.87
2360.167, 41564.84
2362.096, 41645.87
2364.024, 41609.54
2365.953, 41560.89
2367.881, 41616.07
2369.810, 41694.82
2371.738, 41660.80
2373.667, 41586.85
2375.595, 41647.55
2377.523, 41804.18
2379.452, 41868.95
2381.380, 41856.89
2383.309, 41913.65
2385.237, 42041.16
2387.166, 42160.10
2389.094, 42271.75
2391.023, 42317.79
2392.951, 42229.88
2394.880, 42196.31
2396.808, 42269.65
2398.737, 42340.59
2400.665, 42404.31
2402.594, 42451.62
2404.522, 42474.13
2406.450, 42486.97
2408.379, 42488.59
2410.307, 42491.70
2412.236, 42508.89
2414.164, 42527.32
2416.093, 42531.40
2418.021, 42536.31
2419.950, 42544.89
2421.878, 42579.13
2423.807, 42709.52
2425.735, 42889.54
2427.664, 42992.85
2429.592, 43026.95
2431.521, 43016.20
2433.449, 42960.58
2435.377, 42954.59
2437.306, 43004.42
2439.234, 43053.03
2441.163, 43099.64
2443.091, 43125.72
2445.020, 43124.68
2446.948, 43127.96
2448.877, 43154.70
2450.805, 43163.87
2452.734, 43118.58
2454.662, 43122.29
2456.591, 43240.45
2458.519, 43361.69
2460.448, 43432.52
2462.376, 43503.04
2464.304, 43599.54
2466.233, 43680.47
2468.161, 43719.89
2470.090, 43730.47
2472.018, 43710.86
2473.947, 43689.05
2475.875, 43699.82
2477.804, 43734.89
2479.732, 43783.12
2481.661, 43844.43
2483.589, 43919.71
2485.518, 43998.29
2487.446, 44042.16
2489.375, 44058.58
2491.303, 44096.46
2493.231, 44150.81
2495.160, 44189.00
2497.088, 44209.53
2499.017, 44258.52
2500.945, 44345.84
2502.874, 44427.62
2504.802, 44508.70
2506.731, 44535.62
2508.659, 44479.62
2510.588, 44480.91
2512.516, 44617.00
2514.445, 44679.25
2516.373, 44553.89
2518.302, 44504.80
2520.230, 44584.28
2522.158, 44708.84
2524.087, 44909.00
2526.015, 45049.90
2527.944, 45032.11
2529.872, 45019.71
2531.801, 45083.94
2533.729, 45165.82
2535.658, 45250.51
2537.586, 45319.22
2539.515, 45337.89
2541.443, 45357.20
2543.372, 45415.36
2545.300, 45481.25
2547.229, 45547.71
2549.157, 45588.12
2551.085, 45537.37
2553.014, 45476.75
2554.942, 45539.30
2556.871, 45650.08
2558.799, 45703.12
2560.728, 45709.15
2562.656, 45644.79
2564.585, 45569.46
2566.513, 45643.37
2568.442, 45813.16
2570.370, 45892.98
2572.299, 45897.45
2574.227, 45892.43
2576.156, 45888.77
2578.084, 46002.15
2580.012, 46204.56
2581.941, 46257.33
2583.869, 46154.63
2585.798, 46119.27
2587.726, 46161.77
2589.655, 46230.04
2591.583, 46327.67
2593.512, 46400.00
2595.440, 46438.54
2597.369, 46521.57
2599.297, 46677.18
2601.226, 46741.61
2603.154, 46640.69
2605.083, 46595.66
2607.011, 46621.59
2608.939, 46669.73
2610.868, 46747.80
2612.796, 46789.77
2614.725, 46755.68
2616.653, 46770.27
2618.582, 46902.31
2620.510, 46994.46
2622.439, 47001.64
2624.367, 47036.02
2626.296, 47125.18
2628.224, 47226.11
2630.153, 47366.02
2632.081, 47427.93
2634.010, 47293.67
2635.938, 47208.52
2637.866, 47266.95
2639.795, 47326.55
2641.723, 47356.22
2643.652, 47380.11
2645.580, 47392.09
2647.509, 47435.05
2649.437, 47555.59
2651.366, 47667.29
2653.294, 47743.16
2655.223, 47786.68
2657.151, 47752.24
2659.080, 47762.63
2661.008, 47933.55
2662.937, 48069.12
2664.865, 48021.63
2666.793, 47985.91
2668.722, 48074.64
2670.650, 48191.69
2672.579, 48306.64
2674.507, 48400.09
2676.436, 48418.99
2678.364, 48458.58
2680.293, 48618.79
2682.221, 48748.59
2684.150, 48726.47
2686.078, 48676.83
2688.007, 48699.00
2689.935, 48709.77
2691.864, 48636.95
2693.792, 48589.71
2695.720, 48670.08
2697.649, 48776.34
2699.577, 48825.91
2701.506, 48879.23
2703.434, 48969.04
2705.363, 49062.86
2707.291, 49136.30
2709.220, 49190.63
2711.148, 49241.40
2713.077, 49254.52
2715.005, 49186.10
2716.934, 49110.56
2718.862, 49072.50
2720.791, 49075.50
2722.719, 49150.56
2724.647, 49240.49
2726.576, 49315.46
2728.504, 49371.61
2730.433, 49350.59
2732.361, 49369.34
2734.290, 49554.96
2736.218, 49712.86
2738.147, 49696.46
2740.075, 49628.42
2742.004, 49531.39
2743.932, 49501.39
2745.861, 49669.22
2747.789, 49845.35
2749.718, 49935.99
2751.646, 49986.91
2753.574, 49990.18
2755.503, 49998.75
2757.431, 50037.73
2759.360, 50083.44
2761.288, 50139.55
2763.217, 50168.55
2765.145, 50110.17
2767.074, 50092.79
2769.002, 50262.00
2770.931, 50380.24
2772.859, 50273.85
2774.788, 50200.97
2776.716, 50278.70
2778.645, 50355.08
2780.573, 50338.32
2782.501, 50335.76
2784.430, 50409.77
2786.358, 50461.18
2788.287, 50430.08
2790.215, 50450.73
2792.144, 50610.83
2794.072, 50729.00
2796.001, 50717.71
2797.929, 50705.24
2799.858, 50707.03
2801.786, 50728.30
2803.715, 50771.66
2805.643, 50822.96
2807.572, 50890.55
2809.500, 50935.23
2811.428, 50961.28
2813.357, 50935.21
2815.285, 50817.66
2817.214, 50825.21
2819.142, 51026.04
2821.071, 51157.20
2822.999, 51138.98
2824.928, 51140.29
2826.856, 51155.66
2828.785, 51233.04
2830.713, 51384.85
2832.642, 51396.84
2834.570, 51224.23
2836.499, 51191.86
2838.427, 51338.09
2840.355, 51431.44
2842.284, 51476.02
2844.212, 51512.98
2846.141, 51544.20
2848.069, 51621.03
2849.998, 51729.82
2851.926, 51778.46
2853.855, 51775.22
2855.783, 51785.82
2857.712, 51807.60
2859.640, 51847.70
2861.569, 51880.35
2863.497, 51750.18
2865.426, 51586.92
2867.354, 51741.98
2869.282, 52033.73
2871.211, 52188.01
2873.139, 52239.29
2875.068, 52174.69
2876.996, 52098.54
2878.925, 52195.42
2880.853, 52296.34
2882.782, 52200.73
2884.710, 52101.69
2886.639, 52167.90
2888.567, 52283.32
2890.496, 52396.34
2892.424, 52480.66
2894.353, 52489.96
2896.281, 52519.55
2898.209, 52642.46
2900.138, 52748.86
2902.066, 52800.44
2903.995, 52819.30
2905.923, 52801.18
2907.852, 52783.88
2909.780, 52765.51
2911.709, 52786.40
2913.637, 52901.44
2915.566, 52941.59
2917.494, 52873.87
2919.423, 52876.71
2921.351, 52982.38
2923.280, 53055.63
2925.208, 53079.95
2927.136, 53121.57
2929.065, 53178.80
2930.993, 53169.32
2932.922, 53112.56
2934.850, 53183.49
2936.779, 53351.27
2938.707, 53464.54
2940.636, 53526.69
2942.564, 53526.29
2944.493, 53498.93
2946.421, 53509.20
2948.350, 53538.81
2950.278, 53558.40
2952.207, 53582.75
2954.135, 53643.15
2956.063, 53700.94
2957.992, 53727.78
2959.920, 53737.22
2961.849, 53741.46
2963.777, 53726.78
2965.706, 53645.64
2967.634, 53631.18
2969.563, 53809.26
2971.491, 53939.17
2973.420, 53919.82
2975.348, 53914.05
2977.277, 53936.90
2979.205, 53993.20
2981.134, 54100.93
2983.062, 54161.33
2984.990, 54169.46
2986.919, 54084.30
2988.847, 53917.07
2990.776, 53960.25
2992.704, 54192.93
2994.633, 54268.38
2996.561, 54237.07
2998.490, 54331.52
3000.418, 54468.88
3002.347, 54422.42
3004.275, 54327.64
3006.204, 54418.82
3008.132, 54546.55
3010.061, 54526.24
3011.989, 54483.30
3013.917, 54537.21
3015.846, 54569.16
3017.774, 54467.59
3019.703, 54404.83
3021.631, 54450.32
3023.560, 54517.44
3025.488, 54597.32
3027.417, 54651.28
3029.345, 54655.39
3031.274, 54679.63
3033.202, 54729.00
3035.131, 54792.96
3037.059, 54872.63
3038.988, 54862.91
3040.916, 54773.28
3042.844, 54835.02
3044.773, 54987.04
3046.701, 55020.48
3048.630, 54991.72
3050.558, 55023.73
3052.487, 55062.87
3054.415, 55037.17
3056.344, 54973.59
3058.272, 54813.08
3060.201, 54738.13
3062.129, 54941.64
3064.058, 55141.51
3065.986, 55245.38
3067.915, 55309.38
3069.843, 55340.71
3071.771, 55367.21
3073.700, 55405.06
3075.628, 55381.43
3077.557, 55285.24
3079.485, 55294.50
3081.414, 55414.41
3083.342, 55444.04
3085.271, 55407.38
3087.199, 55462.23
3089.128, 55569.12
3091.056, 55673.84
3092.985, 55745.97
3094.913, 55699.14
3096.842, 55649.57
3098.770, 55703.70
3100.698, 55767.80
3102.627, 55765.23
3104.555, 55786.16
3106.484, 55887.68
3108.412, 55930.63
3110.341, 55851.34
3112.269, 55844.70
3114.198, 56006.84
3116.126, 55940.14
3118.055, 55657.28
3119.983, 55544.14
3121.912, 55595.98
3123.840, 55734.77
3125.769, 55901.59
3127.697, 55879.82
3129.625, 55835.04
3131.554, 56033.52
3133.482, 56237.73
3135.411, 56175.60
3137.339, 56115.52
3139.268, 56213.67
3141.196, 56276.60
3143.125, 56185.86
3145.053, 56160.47
3146.982, 56246.89
3148.910, 56326.16
3150.839, 56389.57
3152.767, 56404.74
3154.696, 56373.95
3156.624, 56418.37
3158.552, 56482.25
3160.481, 56365.24
3162.409, 56218.85
3164.338, 56323.34
3166.266, 56477.12
3168.195, 56501.67
3170.123, 56510.29
3172.052, 56568.28
3173.980, 56620.34
3175.909, 56637.18
3177.837, 56655.34
3179.766, 56668.57
3181.694, 56711.26
3183.623, 56786.36
3185.551, 56894.38
3187.479, 57016.06
3189.408, 57022.10
3191.336, 56957.35
3193.265, 56847.66
3195.193, 56795.31
3197.122, 56985.36
3199.050, 57211.74
3200.979, 57371.68
3202.907, 57464.19
3204.836, 57468.10
3206.764, 57449.29
3208.693, 57415.79
3210.621, 57370.61
3212.550, 57311.77
3214.478, 57236.70
3216.406, 57156.34
3218.335, 57145.95
3220.263, 57186.26
3222.192, 57227.61
3224.120, 57287.34
3226.049, 57414.20
3227.977, 57521.20
3229.906, 57504.18
3231.834, 57500.24
3233.763, 57560.53
3235.691, 57585.69
3237.620, 57539.56
3239.548, 57529.82
3241.477, 57579.58
3243.405, 57580.29
3245.333, 57560.39
3247.262, 57631.36
3249.190, 57734.59
3251.119, 57756.64
3253.047, 57728.72
3254.976, 57612.60
3256.904, 57562.41
3258.833, 57706.33
3260.761, 57858.34
3262.690, 57984.21
3264.618, 58083.98
3266.547, 58156.82
3268.475, 58168.24
3270.404, 58127.38
3272.332, 58219.08
3274.260, 58361.52
3276.189, 58368.53
3278.117, 58321.20
3280.046, 58285.55
3281.974, 58288.17
3283.903, 58378.38
3285.831, 58440.69
3287.760, 58419.79
3289.688, 58417.46
3291.617, 58445.80
3293.545, 58468.69
3295.474, 58492.02
3297.402, 58572.48
3299.331, 58674.87
3301.259, 58694.76
3303.188, 58695.84
3305.116, 58717.67
3307.044, 58785.53
3308.973, 58961.73
3310.901, 59037.70
3312.830, 58833.71
3314.758, 58800.48
3316.687, 58966.93
3318.615, 59063.58
3320.544, 59098.95
3322.472, 59191.09
3324.401, 59286.05
3326.329, 59244.06
3328.258, 59192.67
3330.186, 59261.28
3332.115, 59311.46
3334.043, 59269.55
3335.971, 59275.32
3337.900, 59381.98
3339.828, 59423.23
3341.757, 59396.20
3343.685, 59419.77
3345.614, 59471.91
3347.542, 59515.73
3349.471, 59526.48
3351.399, 59430.87
3353.328, 59359.35
3355.256, 59415.50
3357.185, 59447.29
3359.113, 59416.39
3361.042, 59426.61
3362.970, 59491.89
3364.898, 59470.50
3366.827, 59412.65
3368.755, 59542.16
3370.684, 59744.01
3372.612, 59904.25
3374.541, 60003.00
3376.469, 59989.58
3378.398, 59990.45
3380.326, 60056.41
3382.255, 60098.59
3384.183, 60114.10
3386.112, 60164.49
3388.040, 60256.50
3389.969, 60425.43
3391.897, 60595.60
3393.825, 60627.03
3395.754, 60657.48
3397.682, 60788.61
3399.611, 60907.20
3401.539, 60983.84
3403.468, 61098.12
3405.396, 61256.89
3407.325, 61374.96
3409.253, 61470.71
3411.182, 61637.99
3413.110, 61818.85
3415.039, 61942.14
3416.967, 62083.07
3418.896, 62318.20
3420.824, 62481.78
3422.752, 62482.95
3424.681, 62656.18
3426.609, 62991.27
3428.538, 63261.22
3430.466, 63500.29
3432.395, 63765.64
3434.323, 64073.00
3436.252, 64404.04
3438.180, 64834.21
3440.109, 65488.34
3442.037, 66008.73
3443.966, 66360.77
3445.894, 66955.04
3447.823, 67750.20
3449.751, 68432.18
3451.679, 69240.92
3453.608, 70530.72
3455.536, 71981.29
3457.465, 73430.91
3459.393, 74974.73
3461.322, 76640.55
3463.250, 78389.47
3465.179, 80187.15
3467.107, 81811.11
3469.036, 83153.44
3470.964, 84188.69
3472.893, 84715.72
3474.821, 84414.67
3476.750, 83916.36
3478.678, 83417.08
3480.606, 82706.85
3482.535, 81775.80
3484.463, 80886.41
3486.392, 79997.63
3488.320, 78932.86
3490.249, 77918.31
3492.177, 77274.66
3494.106, 76554.23
3496.034, 75476.26
3497.963, 74535.76
3499.891, 73769.58
3501.820, 72909.98
3503.748, 71986.30
3505.677, 71111.80
3507.605, 70266.32
3509.533, 69414.74
3511.462, 68613.83
3513.390, 67863.69
3515.319, 67282.54
3517.247, 66900.71
3519.176, 66381.02
3521.104, 65783.21
3523.033, 65375.14
3524.961, 65077.28
3526.890, 64865.32
3528.818, 64639.67
3530.747, 64362.45
3532.675, 64084.21
3534.604, 63812.37
3536.532, 63615.34
3538.460, 63468.70
3540.389, 63289.14
3542.317, 63113.34
3544.246, 62925.70
3546.174, 62859.85
3548.103, 63054.73
3550.031, 63047.15
3551.960, 62803.30
3553.888, 62701.82
3555.817, 62684.65
3557.745, 62609.97
3559.674, 62497.99
3561.602, 62311.00
3563.531, 62230.08
3565.459, 62416.07
3567.387, 62375.06
3569.316, 62123.12
3571.244, 61965.09
3573.173, 61891.73
3575.101, 61947.73
3577.030, 61958.88
3578.958, 61766.79
3580.887, 61611.63
3582.815, 61538.25
3584.744, 61449.13
3586.672, 61357.73
3588.601, 61380.50
3590.529, 61412.46
3592.458, 61294.29
3594.386, 61201.78
3596.314, 61223.46
3598.243, 61210.03
3600.171, 61141.58
3602.100, 61075.93
3604.028, 60999.48
3605.957, 60829.99
3607.885, 60699.82
3609.814, 60760.84
3611.742, 60787.80
3613.671, 60717.98
3615.599, 60749.75
3617.528, 60857.86
3619.456, 60761.84
3621.385, 60648.37
3623.313, 60811.62
3625.241, 60925.73
3627.170, 60868.11
3629.098, 60737.98
3631.027, 60546.18
3632.955, 60546.80
3634.884, 60640.34
3636.812, 60622.55
3638.741, 60594.89
3640.669, 60633.66
3642.598, 60646.64
3644.526, 60590.34
3646.455, 60635.65
3648.383, 60737.28
3650.312, 60751.72
3652.240, 60699.94
3654.168, 60548.41
3656.097, 60429.54
3658.025, 60383.26
3659.954, 60346.75
3661.882, 60312.00
3663.811, 60273.16
3665.739, 60222.06
3667.668, 60143.39
3669.596, 60066.49
3671.525, 60016.84
3673.453, 59922.78
3675.382, 59786.28
3677.310, 59816.62
3679.239, 59920.47
3681.167, 59932.19
3683.095, 59952.11
3685.024, 60046.51
3686.952, 60090.14
3688.881, 60061.66
3690.809, 59954.86
3692.738, 59843.41
3694.666, 59917.96
3696.595, 60015.85
3698.523, 60070.95
3700.452, 60040.92
3702.380, 59906.21
3704.309, 59902.19
3706.237, 59971.04
3708.166, 59951.85
3710.094, 59924.86
3712.022, 59920.54
3713.951, 59986.67
3715.879, 60169.33
3717.808, 60103.98
3719.736, 59898.07
3721.665, 59825.10
3723.593, 59827.33
3725.522, 59908.60
3727.450, 59898.79
3729.379, 59716.60
3731.307, 59739.02
3733.236, 59874.68
3735.164, 59879.12
3737.093, 59838.31
3739.021, 59779.04
3740.949, 59812.12
3742.878, 60004.55
3744.806, 59922.48
3746.735, 59709.29
3748.663, 59736.01
3750.592, 59809.39
3752.520, 59815.29
3754.449, 59811.16
3756.377, 59810.10
3758.306, 59813.36
3760.234, 59804.07
3762.163, 59738.55
3764.091, 59653.76
3766.020, 59543.45
3767.948, 59533.17
3769.876, 59648.95
3771.805, 59702.16
3773.733, 59710.11
3775.662, 59695.58
3777.590, 59650.31
3779.519, 59549.87
3781.447, 59518.60
3783.376, 59562.79
3785.304, 59539.23
3787.233, 59517.61
3789.161, 59608.59
3791.090, 59692.22
3793.018, 59717.06
3794.947, 59775.57
3796.875, 59851.21
3798.803, 59818.81
3800.732, 59754.16
3802.660, 59752.76
3804.589, 59707.79
3806.517, 59595.32
3808.446, 59500.55
3810.374, 59444.07
3812.303, 59504.10
3814.231, 59559.07
3816.160, 59501.73
3818.088, 59462.50
3820.017, 59461.80
3821.945, 59534.84
3823.874, 59622.97
3825.802, 59643.24
3827.730, 59609.02
3829.659, 59499.48
3831.587, 59514.64
3833.516, 59644.62
3835.444, 59741.26
3837.373, 59780.44
3839.301, 59696.47
3841.230, 59651.54
3843.158, 59682.66
3845.087, 59613.65
3847.015, 59500.19
3848.944, 59508.16
3850.872, 59540.61
3852.801, 59533.23
3854.729, 59511.07
3856.657, 59477.59
3858.586, 59454.79
3860.514, 59449.59
3862.443, 59484.83
3864.371, 59474.14
3866.300, 59378.45
3868.228, 59279.78
3870.157, 59191.50
3872.085, 59073.63
3874.014, 59039.12
3875.942, 59182.94
3877.871, 59156.18
3879.799, 58976.48
3881.728, 59012.54
3883.656, 59108.64
3885.584, 59059.01
3887.513, 59041.45
3889.441, 59132.96
3891.370, 59049.99
3893.298, 58882.12
3895.227, 58899.09
3897.155, 58994.88
3899.084, 59127.98
3901.012, 59152.06
3902.941, 59057.41
3904.869, 58952.38
3906.798, 58885.65
3908.726, 58829.60
3910.655, 58841.76
3912.583, 59001.09
3914.511, 58976.79
3916.440, 58828.27
3918.368, 58931.09
3920.297, 58982.02
3922.225, 58787.46
3924.154, 58633.32
3926.082, 58550.77
3928.011, 58553.50
3929.939, 58609.90
3931.868, 58601.51
3933.796, 58576.68
3935.725, 58642.42
3937.653, 58656.86
3939.582, 58581.09
3941.510, 58598.14
3943.438, 58626.52
3945.367, 58608.49
3947.295, 58475.70
3949.224, 58341.15
3951.152, 58384.06
3953.081, 58480.05
3955.009, 58598.35
3956.938, 58516.18
3958.866, 58343.15
3960.795, 58376.82
3962.723, 58412.26
3964.652, 58343.24
3966.580, 58219.04
3968.509, 58105.21
3970.437, 57971.44
3972.365, 57879.63
3974.294, 58048.43
3976.222, 58093.33
3978.151, 57944.26
3980.079, 57964.64
3982.008, 58048.83
3983.936, 58073.74
3985.865, 58076.47
3987.793, 57992.53
3989.722, 58018.39
3991.650, 58092.29
3993.579, 57995.42
3995.507, 57957.89
3997.436, 58092.23
3999.364, 58059.82
4001.292, 57926.96
4003.221, 57921.73
4005.149, 57904.95
4007.078, 57793.90
4009.006, 57696.81
4010.935, 57647.67
4012.863, 57752.93
4014.792, 57862.72
4016.720, 57866.30
4018.649, 57794.63
4020.577, 57656.59
4022.506, 57705.43
4024.434, 57782.99
4026.363, 57693.21
4028.291, 57630.25
4030.219, 57634.09
4032.148, 57640.86
4034.076, 57629.53
4036.005, 57548.25
4037.933, 57482.52
4039.862, 57460.65
4041.790, 57442.06
4043.719, 57455.12
4045.647, 57421.79
4047.576, 57361.14
4049.504, 57367.40
4051.433, 57380.53
4053.361, 57360.84
4055.290, 57299.19
4057.218, 57225.36
4059.146, 57074.48
4061.075, 57005.58
4063.003, 57075.11
4064.932, 57172.14
4066.860, 57197.68
4068.789, 57113.23
4070.717, 57089.93
4072.646, 57067.48
4074.574, 56984.05
4076.503, 56944.40
4078.431, 56938.29
4080.360, 56965.75
4082.288, 57024.26
4084.217, 56978.11
4086.145, 56877.03
4088.073, 56861.28
4090.002, 56911.86
4091.930, 56888.48
4093.859, 56861.39
4095.787, 56847.75
4097.716, 56761.23
4099.645, 56785.34
4101.573, 56798.35
4103.501, 56755.25
4105.430, 56804.77
4107.358, 56798.64
4109.287, 56682.13
4111.215, 56630.46
4113.144, 56591.87
4115.072, 56528.47
4117.000, 56473.52
4118.929, 56399.74
4120.857, 56360.59
4122.786, 56370.04
4124.714, 56288.60
4126.643, 56191.31
4128.571, 56189.90
4130.500, 56280.72
4132.428, 56329.18
4134.356, 56307.68
4136.285, 56259.73
4138.214, 56257.70
4140.142, 56230.81
4142.070, 56157.82
4143.999, 56191.35
4145.928, 56115.90
4147.856, 55967.42
4149.784, 56028.66
4151.713, 56071.48
4153.642, 55998.73
4155.570, 56008.57
4157.498, 55967.75
4159.427, 55839.27
4161.355, 55814.14
4163.284, 55882.27
4165.212, 55929.45
4167.141, 55950.99
4169.069, 55752.61
4170.998, 55604.12
4172.926, 55680.36
4174.854, 55784.67
4176.783, 55921.55
4178.711, 55876.23
4180.640, 55766.09
4182.568, 55669.97
4184.497, 55590.86
4186.425, 55539.55
4188.354, 55415.96
4190.282, 55373.43
4192.211, 55610.43
4194.139, 55581.95
4196.067, 55302.98
4197.996, 55201.87
4199.925, 55219.66
4201.853, 55412.41
4203.781, 55462.84
4205.710, 55339.36
4207.639, 55180.34
4209.567, 55134.20
4211.495, 55409.42
4213.424, 55308.89
4215.353, 54893.57
4217.281, 54908.67
4219.209, 55016.26
4221.138, 55010.35
4223.066, 55038.09
4224.995, 55076.64
4226.923, 54947.57
4228.852, 54834.50
4230.780, 54874.79
4232.708, 54809.86
4234.637, 54692.60
4236.565, 54782.37
4238.494, 54804.93
4240.422, 54560.96
4242.351, 54549.93
4244.279, 54690.27
4246.208, 54803.10
4248.136, 54853.32
4250.064, 54800.19
4251.993, 54775.45
4253.922, 54772.19
4255.850, 54811.07
4257.778, 54790.47
4259.707, 54676.38
4261.636, 54559.81
4263.564, 54484.96
4265.492, 54555.82
4267.421, 54567.42
4269.350, 54477.48
4271.278, 54413.04
4273.206, 54390.80
4275.135, 54479.11
4277.063, 54445.77
4278.992, 54309.48
4280.920, 54464.51
4282.849, 54626.41
4284.777, 54595.02
4286.706, 54516.33
4288.634, 54422.94
4290.563, 54415.64
4292.491, 54402.54
4294.419, 54342.66
4296.348, 54285.87
4298.276, 54255.18
4300.205, 54327.20
4302.133, 54345.03
4304.062, 54263.40
4305.990, 54074.96
4307.919, 53929.20
4309.847, 54048.91
4311.775, 54111.18
4313.704, 54072.75
4315.633, 54216.49
4317.561, 54324.26
4319.489, 54210.55
4321.418, 54169.51
4323.347, 54185.20
4325.275, 54023.02
4327.203, 53957.13
4329.132, 54118.81
4331.061, 54109.62
4332.989, 54035.09
4334.917, 54203.32
4336.846, 54182.19
4338.774, 53905.89
4340.703, 53900.85
4342.631, 54028.26
4344.560, 54196.98
4346.488, 54214.10
4348.417, 54101.86
4350.345, 54006.58
4352.273, 54021.49
4354.202, 54258.43
4356.130, 54282.23
4358.059, 54191.20
4359.987, 54276.12
4361.916, 54265.52
4363.844, 54062.41
4365.772, 53998.29
4367.701, 53986.49
4369.630, 53918.76
4371.558, 53925.76
4373.486, 53993.65
4375.415, 53932.32
4377.344, 53860.22
4379.272, 53836.97
4381.200, 53829.88
4383.129, 53855.48
4385.058, 53997.76
4386.986, 54040.30
4388.914, 53932.73
4390.843, 53664.62
4392.771, 53504.80
4394.700, 53739.06
4396.628, 53814.62
4398.557, 53742.20
4400.485, 53735.66
4402.414, 53691.11
4404.342, 53557.19
4406.271, 53667.69
4408.199, 53797.62
4410.127, 53571.42
4412.056, 53542.48
4413.984, 53730.30
4415.913, 53685.27
4417.841, 53582.14
4419.770, 53525.69
4421.698, 53387.21
4423.627, 53251.80
4425.555, 53329.26
4427.483, 53335.20
4429.412, 53218.71
4431.341, 53245.35
4433.269, 53290.31
4435.197, 53269.82
4437.126, 53260.11
4439.055, 53252.14
4440.983, 53206.73
4442.911, 53157.20
4444.840, 53113.72
4446.769, 53099.61
4448.697, 53088.54
4450.625, 53073.72
4452.554, 52995.14
4454.482, 52901.18
4456.411, 52923.40
4458.339, 52983.93
4460.268, 53062.81
4462.196, 53006.22
4464.125, 52974.28
4466.053, 53147.23
4467.981, 53108.74
4469.910, 52951.56
4471.838, 53044.57
4473.767, 53095.19
4475.695, 53031.41
4477.624, 53005.59
4479.552, 52977.27
4481.480, 52925.11
4483.409, 52788.88
4485.338, 52629.25
4487.266, 52595.59
4489.194, 52609.60
4491.123, 52651.04
4493.052, 52589.00
4494.980, 52536.49
4496.908, 52587.64
4498.837, 52543.07
4500.766, 52489.92
4502.694, 52714.53
4504.622, 52712.80
4506.551, 52457.71
4508.479, 52492.04
4510.408, 52565.13
4512.336, 52532.33
4514.265, 52386.76
4516.193, 52247.58
4518.122, 52362.52
4520.050, 52346.24
4521.979, 52197.32
4523.907, 52226.57
4525.835, 52291.25
4527.764, 52333.90
4529.692, 52325.69
4531.621, 52273.83
4533.549, 52167.39
4535.478, 52086.98
4537.406, 52048.50
4539.335, 52086.29
4541.263, 52124.31
4543.191, 52139.18
4545.120, 52054.20
4547.049, 51965.89
4548.977, 51938.79
4550.905, 51912.66
4552.834, 51874.57
4554.763, 51788.75
4556.691, 51749.23
4558.619, 51766.02
4560.548, 51884.70
4562.477, 51879.49
4564.405, 51624.41
4566.333, 51587.39
4568.262, 51634.41
4570.190, 51672.57
4572.119, 51595.33
4574.047, 51507.69
4575.976, 51704.33
4577.904, 51732.15
4579.833, 51560.79
4581.761, 51388.07
4583.689, 51392.82
4585.618, 51745.35
4587.546, 51610.98
4589.475, 51354.12
4591.403, 51297.23
4593.332, 51311.61
4595.260, 51323.68
4597.188, 51200.07
4599.117, 51078.18
4601.046, 51014.67
4602.974, 51211.04
4604.902, 51296.36
4606.831, 51059.72
4608.760, 51014.05
4610.688, 51029.17
4612.616, 50994.91
4614.545, 51012.59
4616.474, 51062.43
4618.402, 51126.64
4620.330, 51114.78
4622.259, 51054.35
4624.188, 51132.71
4626.116, 51153.00
4628.044, 51037.99
4629.973, 50932.13
4631.901, 50802.49
4633.830, 50628.36
4635.758, 50557.38
4637.687, 50569.40
4639.615, 50667.73
4641.543, 50648.40
4643.472, 50574.37
4645.400, 50702.10
4647.329, 50730.07
4649.257, 50622.33
4651.186, 50574.65
4653.114, 50574.09
4655.043, 50609.35
4656.971, 50440.33
4658.899, 50286.14
4660.828, 50358.83
4662.757, 50362.65
4664.685, 50311.00
4666.613, 50201.10
4668.542, 50243.18
4670.471, 50365.18
4672.399, 50335.79
4674.327, 50300.85
4676.256, 50302.03
4678.185, 50486.53
4680.113, 50418.66
4682.041, 49968.28
4683.970, 49983.16
4685.898, 50141.58
4687.827, 50254.71
4689.755, 50173.76
4691.684, 50020.63
4693.612, 49921.36
4695.541, 49911.36
4697.469, 49877.53
4699.397, 49528.49
4701.326, 49448.50
4703.254, 49613.34
4705.183, 49742.80
4707.111, 49842.72
4709.040, 49892.00
4710.968, 49563.57
4712.896, 49343.63
4714.825, 49388.22
4716.754, 49342.03
4718.682, 49327.28
4720.610, 49459.82
4722.539, 49495.26
4724.468, 49430.05
4726.396, 49235.94
4728.324, 49174.11
4730.253, 49195.47
4732.182, 49230.19
4734.110, 49193.98
4736.038, 49123.60
4737.967, 49117.07
4739.896, 49166.41
4741.824, 49225.45
4743.752, 49084.30
4745.681, 48993.31
4747.609, 49004.84
4749.538, 48991.90
4751.466, 48928.90
4753.395, 48804.36
4755.323, 48782.92
4757.251, 48770.57
4759.180, 48715.11
4761.108, 48778.90
4763.037, 48827.90
4764.965, 48705.47
4766.894, 48857.02
4768.822, 48999.63
4770.751, 48797.03
4772.679, 48650.94
4774.607, 48556.71
4776.536, 48421.55
4778.465, 48401.02
4780.393, 48448.29
4782.321, 48468.44
4784.250, 48362.89
4786.179, 48189.95
4788.107, 48133.43
4790.035, 48109.99
4791.964, 48095.00
4793.893, 48085.59
4795.821, 48048.31
4797.749, 47988.46
4799.678, 47940.45
4801.606, 47970.39
4803.535, 48091.39
4805.463, 47941.59
4807.392, 47754.94
4809.320, 47636.82
4811.249, 47716.17
4813.177, 47784.46
4815.105, 47709.29
4817.034, 47667.50
4818.962, 47634.88
4820.891, 47592.66
4822.819, 47458.55
4824.748, 47400.72
4826.676, 47652.81
4828.604, 47527.03
4830.533, 47291.54
4832.462, 47215.25
4834.390, 47178.09
4836.318, 47173.88
4838.247, 47266.61
4840.176, 47077.59
4842.104, 46843.38
4844.032, 46926.21
4845.961, 46955.34
4847.890, 46919.72
4849.818, 46821.57
4851.746, 46931.59
4853.675, 47103.75
4855.604, 47027.43
4857.532, 46864.95
4859.460, 46739.88
4861.389, 46919.09
4863.317, 46953.84
4865.246, 46860.64
4867.174, 46774.25
4869.103, 46780.61
4871.031, 46829.82
4872.959, 46783.15
4874.888, 46627.37
4876.816, 46449.97
4878.745, 46514.07
4880.673, 46518.11
4882.602, 46442.82
4884.530, 46376.75
4886.459, 46309.91
4888.387, 46265.81
4890.315, 46361.75
4892.244, 46360.98
4894.173, 46284.79
4896.101, 46397.33
4898.029, 46383.20
4899.958, 46260.96
4901.887, 46268.74
4903.815, 46225.61
4905.743, 46124.12
4907.672, 46052.72
4909.601, 45998.87
4911.529, 45955.47
4913.457, 45914.33
4915.386, 45898.69
4917.314, 45875.28
4919.243, 45643.03
4921.171, 45703.07
4923.100, 45959.97
4925.028, 45910.35
4926.957, 45782.52
4928.885, 45643.49
4930.813, 45532.59
4932.742, 45488.50
4934.670, 45483.00
4936.599, 45418.69
4938.527, 45414.75
4940.456, 45464.16
4942.384, 45550.99
4944.313, 45523.65
4946.241, 45426.56
4948.170, 45368.66
4950.098, 45317.08
4952.026, 45298.27
4953.955, 45382.78
4955.884, 45400.59
4957.812, 45327.69
4959.740, 45109.13
4961.669, 45014.57
4963.598, 44982.82
4965.526, 44914.00
4967.454, 44908.28
4969.383, 44949.37
4971.312, 45024.48
4973.240, 45011.30
4975.168, 44957.11
4977.097, 44906.98
4979.025, 44884.96
4980.954, 44821.93
4982.882, 44671.08
4984.811, 44528.75
4986.739, 44456.08
4988.667, 44490.99
4990.596, 44502.30
4992.524, 44480.11
4994.453, 44419.30
4996.381, 44276.97
4998.310, 44185.41
5000.238, 44193.79
5002.167, 44225.01
5004.095, 44221.08
5006.023, 44167.47
5007.952, 44080.29
5009.881, 44060.94
5011.809, 44073.46
5013.737, 43905.03
5015.666, 43836.45
5017.595, 43851.38
5019.523, 43733.64
5021.451, 43792.41
5023.380, 43932.25
5025.309, 43933.04
5027.237, 43837.04
5029.165, 43724.39
5031.094, 43688.51
5033.022, 43659.02
5034.951, 43633.13
5036.879, 43611.19
5038.808, 43501.86
5040.736, 43403.08
5042.665, 43384.06
5044.593, 43223.95
5046.521, 43202.79
5048.450, 43430.31
5050.378, 43192.92
5052.307, 43009.77
5054.235, 43015.88
5056.164, 43092.91
5058.092, 43089.60
5060.021, 43025.70
5061.949, 43092.77
5063.878, 43014.96
5065.806, 42892.94
5067.734, 43044.66
5069.663, 42865.58
5071.592, 42595.75
5073.520, 42649.72
5075.448, 42609.83
5077.377, 42542.54
5079.306, 42507.17
5081.234, 42557.06
5083.162, 42550.74
5085.091, 42429.52
5087.020, 42434.60
5088.948, 42328.90
5090.876, 42090.50
5092.805, 42109.83
5094.733, 42160.09
5096.662, 42149.09
5098.590, 41916.56
5100.519, 41976.87
5102.447, 42129.09
5104.375, 41906.06
5106.304, 41865.24
5108.232, 41860.31
5110.161, 41723.11
5112.089, 41720.28
5114.018, 41766.59
5115.946, 41800.57
5117.875, 41755.79
5119.803, 41608.57
5121.731, 41411.96
5123.660, 41583.81
5125.589, 41629.54
5127.517, 41522.48
5129.445, 41446.43
5131.374, 41318.97
5133.303, 41250.53
5135.231, 41427.34
5137.159, 41331.43
5139.088, 41176.28
5141.017, 41143.14
5142.945, 41029.06
5144.873, 40894.25
5146.802, 40804.54
5148.730, 41084.02
5150.659, 41090.68
5152.587, 40858.45
5154.516, 40918.36
5156.444, 40756.16
5158.373, 40555.09
5160.301, 40643.50
5162.229, 40546.84
5164.158, 40486.07
5166.086, 40616.05
5168.015, 40636.71
5169.943, 40508.62
5171.872, 40282.88
5173.800, 40343.35
5175.729, 40265.29
5177.657, 40078.08
5179.586, 39999.29
5181.514, 40139.56
5183.442, 40291.29
5185.371, 40238.52
5187.300, 40117.98
5189.228, 39991.02
5191.156, 39894.73
5193.085, 39979.48
5195.014, 40021.95
5196.942, 39947.13
5198.870, 39657.65
5200.799, 39600.09
5202.728, 39650.47
5204.656, 39561.59
5206.584, 39583.10
5208.513, 39564.01
5210.441, 39418.12
5212.370, 39396.85
5214.298, 39501.09
5216.227, 39607.16
5218.155, 39250.52
5220.083, 39078.26
5222.012, 39100.48
5223.940, 39271.85
5225.869, 39137.75
5227.797, 38973.31
5229.726, 38959.05
5231.654, 39075.60
5233.583, 39096.42
5235.511, 39000.17
5237.439, 38922.42
5239.368, 38800.16
5241.297, 38662.55
5243.225, 38531.28
5245.153, 38597.78
5247.082, 38633.65
5249.011, 38539.64
5250.939, 38559.58
5252.867, 38553.99
5254.796, 38504.73
5256.725, 38457.41
5258.653, 38373.47
5260.581, 38308.73
5262.510, 38329.31
5264.438, 38294.07
5266.367, 38206.45
5268.295, 38102.66
5270.224, 38171.46
5272.152, 38117.85
5274.081, 37953.24
5276.009, 37739.73
5277.938, 37691.58
5279.866, 37691.88
5281.794, 37662.50
5283.723, 37728.39
5285.651, 37667.39
5287.580, 37539.26
5289.508, 37678.33
5291.437, 37614.89
5293.365, 37496.95
5295.294, 37516.11
5297.222, 37425.71
5299.150, 37363.27
5301.079, 37346.13
5303.008, 37185.32
5304.936, 37102.70
5306.864, 37107.52
5308.793, 37166.92
5310.722, 37018.41
5312.650, 36872.09
5314.578, 36833.31
5316.507, 36863.94
5318.436, 36751.95
5320.364, 36595.84
5322.292, 36612.44
5324.221, 36691.55
5326.149, 36661.89
5328.078, 36486.88
5330.006, 36605.75
5331.935, 36608.02
5333.863, 36449.22
5335.792, 36175.17
5337.720, 36146.77
5339.648, 36182.08
5341.577, 36154.35
5343.505, 36121.59
5345.434, 36020.92
5347.362, 35918.10
5349.291, 35979.73
5351.219, 35928.19
5353.147, 35855.12
5355.076, 35837.04
5357.005, 35820.80
5358.933, 35777.97
5360.861, 35711.89
5362.790, 35642.57
5364.719, 35533.96
5366.647, 35474.72
5368.575, 35491.30
5370.504, 35328.51
5372.433, 35209.50
5374.361, 35180.07
5376.289, 35251.29
5378.218, 35210.54
5380.146, 35137.30
5382.075, 35083.31
5384.003, 35080.61
5385.932, 35029.93
5387.860, 34931.17
5389.789, 34807.64
5391.717, 34733.29
5393.646, 34645.19
5395.574, 34524.99
5397.502, 34423.18
5399.431, 34463.57
5401.359, 34503.49
5403.288, 34359.07
5405.216, 34341.37
5407.145, 34387.50
5409.073, 34430.91
5411.002, 34377.11
5412.930, 34236.08
5414.858, 34120.64
5416.787, 34112.60
5418.716, 34137.45
5420.644, 34045.09
5422.572, 33875.62
5424.501, 33750.08
5426.430, 33793.86
5428.358, 33884.25
5430.286, 33934.40
5432.215, 33862.09
5434.144, 33724.19
5436.072, 33562.83
5438.000, 33408.28
5439.929, 33386.99
5441.857, 33440.38
5443.786, 33472.15
5445.714, 33241.52
5447.643, 33159.87
5449.571, 33178.54
5451.500, 33213.46
5453.428, 33024.13
5455.356, 32921.31
5457.285, 32928.42
5459.213, 32993.52
5461.142, 32809.79
5463.070, 32664.75
5464.999, 32645.31
5466.927, 32650.52
5468.855, 32542.47
5470.784, 32445.11
5472.713, 32443.52
5474.641, 32421.88
5476.569, 32341.80
5478.498, 32264.84
5480.427, 32277.84
5482.355, 32342.47
5484.283, 32269.64
5486.212, 32109.53
5488.141, 32208.42
5490.069, 32221.09
5491.997, 32134.67
5493.926, 31980.70
5495.854, 31925.52
5497.783, 31820.41
5499.711, 31749.29
5501.640, 31818.14
5503.568, 31740.89
5505.497, 31753.65
5507.425, 31780.40
5509.354, 31537.36
5511.282, 31635.78
5513.210, 31541.06
5515.139, 31151.99
5517.067, 31127.42
5518.996, 31299.70
5520.924, 31341.11
5522.853, 31089.37
5524.781, 31200.42
5526.710, 31152.24
5528.638, 31006.31
5530.566, 30950.44
5532.495, 31013.79
5534.424, 31022.93
5536.352, 30954.51
5538.280, 30848.83
5540.209, 30800.23
5542.138, 30718.09
5544.066, 30594.88
5545.994, 30526.41
5547.923, 30513.25
5549.852, 30548.91
5551.780, 30592.88
5553.708, 30432.01
5555.637, 30461.28
5557.565, 30479.01
5559.494, 30307.43
5561.422, 30268.17
5563.351, 30152.44
5565.279, 30037.67
5567.208, 30054.90
5569.136, 30038.04
5571.064, 29919.26
5572.993, 29789.46
5574.921, 29847.58
5576.850, 29799.79
5578.778, 29682.17
5580.707, 29591.63
5582.635, 29708.68
5584.563, 29587.12
5586.492, 29494.64
5588.421, 29484.62
5590.349, 29279.07
5592.277, 29256.14
5594.206, 29262.88
5596.135, 29213.14
5598.063, 29239.04
5599.991, 29109.22
5601.920, 28952.45
5603.849, 28872.85
5605.777, 28898.58
5607.705, 28979.84
5609.634, 28973.60
5611.563, 28819.29
5613.491, 28961.87
5615.419, 28898.67
5617.348, 28798.33
5619.276, 28865.64
5621.205, 28779.74
5623.133, 28625.58
5625.062, 28496.92
5626.990, 28461.47
5628.918, 28537.03
5630.847, 28392.80
5632.775, 28178.89
5634.704, 28166.22
5636.632, 28150.18
5638.561, 28206.01
5640.489, 28183.51
5642.418, 27886.74
5644.346, 27986.95
5646.274, 27985.87
5648.203, 27817.73
5650.132, 27593.48
5652.060, 27757.28
5653.988, 27804.59
5655.917, 27663.23
5657.846, 27437.76
5659.774, 27429.41
5661.702, 27399.71
5663.631, 27305.39
5665.560, 27170.58
5667.488, 27259.08
5669.416, 27331.07
5671.345, 27346.19
5673.273, 27343.15
5675.202, 27278.63
5677.130, 27246.71
5679.059, 27205.11
5680.987, 27083.08
5682.916, 27061.73
5684.844, 26998.96
5686.772, 26863.80
5688.701, 26674.51
5690.629, 26567.31
5692.558, 26603.76
5694.486, 26649.92
5696.415, 26573.57
5698.343, 26492.46
5700.271, 26589.69
5702.200, 26646.04
5704.129, 26456.50
5706.057, 26393.21
5707.985, 26368.93
5709.914, 26338.36
5711.843, 26275.97
5713.771, 26125.45
5715.699, 26096.59
5717.628, 26083.18
5719.557, 26029.35
5721.485, 26150.32
5723.413, 25926.00
5725.342, 25688.26
5727.271, 25648.23
5729.199, 25761.96
5731.127, 25721.64
5733.056, 25624.70
5734.984, 25532.83
5736.913, 25414.76
5738.841, 25511.75
5740.770, 25578.14
5742.698, 25544.19
5744.626, 25466.58
5746.555, 25302.75
5748.483, 25294.12
5750.412, 25359.68
5752.340, 25304.83
5754.269, 25237.02
5756.197, 25238.62
5758.126, 25186.71
5760.054, 24993.89
5761.982, 24991.28
5763.911, 24914.50
5765.840, 24857.71
5767.768, 24865.05
5769.696, 24707.30
5771.625, 24726.05
5773.554, 24712.67
5775.482, 24599.59
5777.410, 24529.63
5779.339, 24503.81
5781.268, 24519.43
5783.196, 24507.11
5785.124, 24350.71
5787.053, 24264.38
5788.981, 24330.56
5790.910, 24361.72
5792.838, 24173.62
5794.767, 24250.93
5796.695, 24160.66
5798.624, 24041.49
5800.552, 24033.51
5802.480, 24123.39
5804.409, 24092.24
5806.337, 23933.65
5808.266, 23759.21
5810.194, 23752.72
5812.123, 23811.90
5814.051, 23707.13
5815.979, 23565.36
5817.908, 23572.82
5819.837, 23508.56
5821.765, 23414.25
5823.693, 23287.01
5825.622, 23184.59
5827.551, 23442.66
5829.479, 23421.80
5831.407, 23375.00
5833.336, 23377.51
5835.265, 23290.79
5837.193, 23134.42
5839.121, 23105.54
5841.050, 23146.13
5842.979, 23134.49
5844.907, 22958.24
5846.835, 22785.03
5848.764, 22822.54
5850.692, 22999.83
5852.621, 22803.97
5854.549, 22755.13
5856.478, 22685.60
5858.406, 22624.17
5860.334, 22689.85
5862.263, 22578.08
5864.191, 22393.98
5866.120, 22315.45
5868.048, 22396.03
5869.977, 22434.18
5871.905, 22334.26
5873.834, 22239.47
5875.762, 22188.33
5877.690, 22143.39
5879.619, 22110.16
5881.548, 22086.85
5883.476, 22071.43
5885.404, 22041.77
5887.333, 21866.81
5889.262, 21931.40
5891.190, 21946.26
5893.118, 21866.62
5895.047, 21835.21
5896.976, 21806.72
5898.904, 21650.70
5900.832, 21551.50
5902.761, 21627.63
5904.689, 21786.98
5906.618, 21713.88
5908.546, 21667.58
5910.475, 21619.35
5912.403, 21371.79
5914.332, 21329.52
5916.260, 21355.44
5918.188, 21337.14
5920.117, 21263.68
5922.045, 21237.50
5923.974, 21277.79
5925.902, 21218.01
5927.831, 21134.18
5929.759, 21143.67
5931.688, 21037.08
5933.616, 21020.26
5935.545, 21054.08
5937.473, 21034.68
5939.401, 20854.43
5941.330, 20874.78
5943.259, 20838.52
5945.187, 20762.51
5947.115, 20683.44
5949.044, 20519.97
5950.973, 20511.57
5952.901, 20523.24
5954.829, 20530.36
5956.758, 20548.48
5958.687, 20460.32
5960.615, 20319.73
5962.543, 20309.90
5964.472, 20367.59
5966.400, 20270.73
5968.329, 20346.30
5970.257, 20271.45
5972.186, 20170.15
5974.114, 20154.48
5976.042, 20180.77
5977.971, 20112.32
5979.899, 20155.10
5981.828, 20105.11
5983.756, 19844.66
5985.685, 19892.24
5987.613, 19782.77
5989.542, 19695.86
5991.470, 19710.25
5993.398, 19779.13
5995.327, 19564.19
5997.256, 19577.97
5999.184, 19567.25
6001.112, 19505.20
6003.041, 19568.31
6004.970, 19264.43
6006.898, 19304.91
6008.826, 19362.69
6010.755, 19266.01
6012.684, 19164.25
6014.612, 19174.73
6016.540, 19156.00
6018.469, 19108.13
6020.397, 19062.43
6022.326, 19052.30
6024.254, 19023.11
6026.183, 19024.29
6028.111, 18954.03
6030.040, 18806.87
6031.968, 18821.16
6033.896, 18766.46
6035.825, 18727.47
6037.753, 18734.74
6039.682, 18743.84
6041.610, 18560.71
6043.539, 18524.58
6045.467, 18497.60
6047.396, 18499.30
6049.324, 18549.65
6051.253, 18534.13
6053.181, 18374.87
6055.109, 18434.88
6057.038, 18420.21
6058.967, 18148.90
6060.895, 18243.36
6062.823, 18276.70
6064.752, 18236.62
6066.681, 18155.91
6068.609, 18064.43
6070.537, 17967.95
6072.466, 17965.03
6074.395, 17953.17
6076.323, 17906.02
6078.251, 17850.72
6080.180, 17863.71
6082.108, 17856.74
6084.037, 17902.37
6085.965, 17791.45
6087.894, 17533.67
6089.822, 17591.55
6091.750, 17617.27
6093.679, 17632.90
6095.607, 17578.25
6097.536, 17468.32
6099.464, 17426.37
6101.393, 17394.99
6103.321, 17330.40
6105.250, 17338.16
6107.178, 17361.33
6109.106, 17182.75
6111.035, 17250.87
6112.964, 17295.89
6114.892, 17199.94
6116.820, 17085.42
6118.749, 17136.53
6120.678, 16997.50
6122.606, 17076.64
6124.534, 17086.50
6126.463, 16965.65
6128.392, 16814.47
6130.320, 16783.75
6132.248, 16758.50
6134.177, 16750.52
6136.105, 16720.50
6138.034, 16642.05
6139.962, 16514.72
6141.891, 16534.07
6143.819, 16490.36
6145.748, 16503.71
6147.676, 16558.89
6149.604, 16457.83
6151.533, 16352.38
6153.461, 16346.81
6155.390, 16425.15
6157.318, 16448.18
6159.247, 16311.32
6161.175, 16221.56
6163.104, 16168.73
6165.032, 16265.47
6166.961, 16280.31
6168.889, 16126.81
6170.817, 16114.13
6172.746, 15864.20
6174.675, 15932.35
6176.603, 15895.97
6178.531, 15787.72
6180.460, 15971.34
6182.389, 15965.98
6184.317, 15831.22
6186.245, 15719.93
6188.174, 15729.26
6190.103, 15821.17
6192.031, 15786.02
6193.959, 15781.71
6195.888, 15685.18
6197.816, 15580.09
6199.745, 15526.14
6201.673, 15498.30
6203.602, 15335.97
6205.530, 15427.61
6207.458, 15412.75
6209.387, 15360.43
6211.315, 15374.67
6213.244, 15307.99
6215.172, 15186.53
6217.101, 15214.32
6219.029, 15219.89
6220.958, 15131.40
6222.886, 15037.55
6224.814, 15158.59
6226.743, 15114.03
6228.672, 15157.82
6230.600, 15105.06
6232.528, 14948.69
6234.457, 14972.97
6236.386, 14973.21
6238.314, 14823.96
6240.242, 14848.53
6242.171, 14886.73
6244.100, 14767.17
6246.028, 14714.27
6247.956, 14698.90
6249.885, 14638.71
6251.813, 14636.28
6253.742, 14572.93
6255.670, 14355.20
6257.599, 14489.74
6259.527, 14591.90
6261.456, 14456.17
6263.384, 14342.50
6265.313, 14329.02
6267.241, 14293.44
6269.169, 14287.11
6271.098, 14223.55
6273.026, 14151.42
6274.955, 14128.62
6276.883, 14140.81
6278.812, 14117.20
6280.740, 13981.24
6282.669, 13982.66
6284.597, 13971.16
6286.525, 13953.98
6288.454, 13937.23
6290.383, 13871.26
6292.311, 13835.77
6294.239, 13809.77
6296.168, 13825.04
6298.097, 13870.80
6300.025, 13849.83
6301.953, 13663.82
6303.882, 13635.11
6305.811, 13526.04
6307.739, 13563.78
6309.667, 13588.53
6311.596, 13501.53
6313.524, 13442.74
6315.453, 13452.14
6317.381, 13444.96
6319.310, 13440.96
6321.238, 13387.76
6323.167, 13303.74
6325.095, 13283.31
6327.023, 13283.62
6328.952, 13237.23
6330.880, 13213.53
6332.809, 13236.91
6334.737, 13227.70
6336.666, 13117.51
6338.594, 13210.54
6340.522, 13127.45
6342.451, 12999.31
6344.380, 13040.01
6346.308, 13098.93
6348.236, 12978.09
6350.165, 12937.81
6352.094, 12820.64
6354.022, 12860.79
6355.950, 12814.46
6357.879, 12790.34
6359.808, 12865.52
6361.736, 12724.86
6363.664, 12711.38
6365.593, 12654.51
6367.521, 12660.53
6369.450, 12642.80
6371.378, 12579.65
6373.307, 12588.63
6375.235, 12588.81
6377.164, 12554.56
6379.092, 12422.18
6381.021, 12406.27
6382.949, 12458.72
6384.877, 12427.41
6386.806, 12479.09
6388.734, 12448.23
6390.663, 12365.40
6392.591, 12271.39
6394.520, 12225.95
6396.448, 12218.35
6398.377, 12188.41
6400.305, 12293.59
6402.233, 12201.26
6404.162, 12102.11
6406.091, 12086.61
6408.019, 12078.75
6409.947, 12001.34
6411.876, 11935.83
6413.805, 12058.52
6415.733, 11983.92
6417.661, 11996.36
6419.590, 11918.27
6421.519, 11760.90
6423.447, 11804.30
6425.375, 11832.97
6427.304, 11804.37
6429.232, 11797.60
6431.161, 11875.10
6433.089, 11875.06
6435.018, 11718.51
6436.946, 11573.86
6438.875, 11633.72
6440.803, 11616.58
6442.731, 11676.03
6444.660, 11631.21
6446.588, 11520.22
6448.517, 11469.75
6450.445, 11451.57
6452.374, 11478.46
6454.302, 11434.14
6456.230, 11356.55
6458.159, 11306.39
6460.088, 11308.74
6462.016, 11332.78
6463.944, 11300.70
6465.873, 11328.05
6467.802, 11327.98
6469.730, 11342.48
6471.658, 11302.14
6473.587, 11237.08
6475.516, 11183.64
6477.444, 11078.83
6479.372, 11180.43
6481.301, 11206.86
6483.229, 11094.56
6485.158, 11010.52
6487.086, 11071.37
6489.015, 11147.19
6490.943, 10891.43
6492.872, 10885.20
6494.800, 10990.69
6496.729, 10924.72
6498.657, 10884.06
6500.585, 10956.54
6502.514, 10989.76
6504.442, 10823.85
6506.371, 10757.23
6508.299, 10846.85
6510.228, 10687.57
6512.156, 10632.19
6514.085, 10632.73
6516.013, 10633.15
6517.941, 10710.41
6519.870, 10675.44
6521.799, 10544.99
6523.727, 10511.31
6525.655, 10571.74
6527.584, 10551.46
6529.513, 10456.11
6531.441, 10390.84
6533.369, 10364.54
6535.298, 10330.07
6537.227, 10419.32
6539.155, 10412.22
6541.083, 10356.75
6543.012, 10269.62
6544.940, 10230.85
6546.869, 10301.08
6548.797, 10209.10
6550.726, 10172.53
6552.654, 10031.44
6554.583, 10133.09
6556.511, 10159.47
6558.439, 10068.03
6560.368, 10062.31
6562.296, 10185.82
6564.225, 10167.21
6566.153, 10049.34
6568.082, 9963.226
6570.010, 9879.361
6571.938, 9838.665
6573.867, 9918.898
6575.796, 9993.196
6577.724, 9763.521
6579.652, 9805.825
6581.581, 9847.150
6583.510, 9776.341
6585.438, 9823.166
6587.366, 9829.786
6589.295, 9759.772
6591.224, 9760.393
6593.152, 9847.679
6595.080, 9719.660
6597.009, 9834.452
6598.938, 9747.609
6600.866, 9673.682
6602.794, 9694.065
6604.723, 9698.993
6606.651, 9648.003
6608.580, 9634.080
6610.508, 9499.905
6612.437, 9463.169
6614.365, 9424.139
6616.293, 9490.004
6618.222, 9469.317
6620.150, 9421.284
6622.079, 9408.278
6624.007, 9333.606
6625.936, 9314.895
6627.864, 9321.424
##END=



