##NAMES=Palermoite
##RRUFFID=R120141
##IDEAL CHEMISTRY=Li_2_SrAl_4_(PO_4_)_4_(OH)_4_
##LOCALITY=Palermo No. 1 mine, Groton, New Hampshire, USA
##OWNER=RRUFF
##SOURCE=Benjamin N. Schumer
##DESCRIPTION=Striated, colorless, elongated prismatic crystals, associated with quartz, radiating childrenite, natropalermoite (R130092), and lefontite (R140539).
##STATUS=The identification of this mineral is confirmed by single-crystal X-ray diffraction and chemical analysis
##URL=https://www.rruff.net/odr/rruff_sample/R120141
##MEASURED CHEMISTRY=(Li_1.87_Na_0.14_)(Sr_0.79_Ca_0.21_)(Al_3.89_Fe_0.01_)(PO_4_)_4.06_(OH)_3.99_
##DIFFRACTION SAMPLE DESCRIPTION=Single crystal, powder profile is calculated
##CELL PARAMETERS=a: 11.577 b: 15.879 c: 7.3276 alpha: 90 beta: 90 gamma: 90 volume: 1347 crystal system: orthorhombic
##FILETYPE=Raman Processed
##RAMAN WAVELENGTH=532

198.1795, 937.9719
200.1080, 942.3527
202.0365, 928.1737
203.9649, 913.9538
205.8934, 907.1956
207.8219, 908.8483
209.7503, 912.5202
211.6788, 918.0222
213.6073, 924.6368
215.5357, 930.0516
217.4642, 932.8444
219.3927, 935.7852
221.3211, 940.1702
223.2496, 945.9304
225.1781, 953.2772
227.1065, 963.3588
229.0350, 975.1323
230.9635, 986.5709
232.8919, 996.7429
234.8204, 1007.302
236.7489, 1018.429
238.6773, 1029.977
240.6058, 1040.749
242.5343, 1050.384
244.4627, 1059.135
246.3912, 1067.491
248.3197, 1077.578
250.2481, 1086.126
252.1766, 1091.331
254.1051, 1093.446
256.0335, 1093.035
257.9620, 1088.694
259.8905, 1081.750
261.8189, 1074.124
263.7474, 1065.298
265.6759, 1058.257
267.6043, 1053.729
269.5328, 1051.381
271.4613, 1051.645
273.3897, 1056.634
275.3182, 1063.574
277.2467, 1069.770
279.1751, 1075.586
281.1036, 1078.782
283.0321, 1077.583
284.9605, 1071.758
286.8890, 1065.100
288.8175, 1057.073
290.7459, 1049.529
292.6744, 1043.659
294.6029, 1039.659
296.5313, 1036.959
298.4598, 1036.166
300.3883, 1037.493
302.3167, 1040.258
304.2452, 1043.706
306.1737, 1047.792
308.1021, 1052.182
310.0306, 1056.287
311.9591, 1063.556
313.8875, 1074.047
315.8160, 1087.569
317.7445, 1103.938
319.6729, 1125.923
321.6014, 1147.225
323.5299, 1165.591
325.4583, 1179.939
327.3868, 1192.510
329.3153, 1203.102
331.2437, 1209.156
333.1722, 1209.848
335.1007, 1203.919
337.0291, 1195.350
338.9576, 1185.161
340.8861, 1174.409
342.8145, 1164.188
344.7430, 1153.486
346.6715, 1144.953
348.5999, 1139.704
350.5284, 1139.626
352.4569, 1139.742
354.3853, 1140.060
356.3138, 1140.787
358.2423, 1141.824
360.1707, 1141.876
362.0992, 1143.269
364.0277, 1147.312
365.9561, 1153.820
367.8846, 1158.042
369.8131, 1158.852
371.7415, 1157.568
373.6700, 1155.264
375.5985, 1151.678
377.5269, 1148.181
379.4554, 1145.219
381.3839, 1143.291
383.3123, 1142.094
385.2408, 1141.336
387.1693, 1142.170
389.0977, 1144.766
391.0262, 1149.401
392.9547, 1155.269
394.8831, 1161.763
396.8116, 1169.792
398.7401, 1179.678
400.6685, 1191.195
402.5970, 1206.116
404.5255, 1224.711
406.4539, 1246.921
408.3824, 1271.794
410.3109, 1301.951
412.2393, 1330.827
414.1678, 1355.611
416.0963, 1374.417
418.0247, 1390.481
419.9532, 1403.835
421.8817, 1414.979
423.8102, 1423.443
425.7386, 1431.348
427.6671, 1438.714
429.5956, 1446.323
431.5240, 1453.881
433.4525, 1459.828
435.3810, 1461.424
437.3094, 1460.207
439.2379, 1455.586
441.1664, 1450.657
443.0948, 1445.035
445.0233, 1438.049
446.9518, 1430.553
448.8802, 1423.119
450.8087, 1415.848
452.7372, 1409.169
454.6656, 1403.292
456.5941, 1397.391
458.5226, 1391.125
460.4510, 1384.519
462.3795, 1379.236
464.3080, 1375.744
466.2364, 1373.919
468.1649, 1373.405
470.0934, 1374.349
472.0218, 1377.362
473.9503, 1382.537
475.8788, 1389.633
477.8072, 1397.758
479.7357, 1407.739
481.6642, 1418.366
483.5926, 1427.520
485.5211, 1432.847
487.4496, 1440.299
489.3780, 1452.535
491.3065, 1470.000
493.2350, 1486.868
495.1634, 1501.168
497.0919, 1516.069
499.0204, 1533.686
500.9488, 1554.832
502.8773, 1575.262
504.8058, 1593.704
506.7342, 1610.426
508.6627, 1626.436
510.5912, 1642.003
512.5197, 1655.685
514.4481, 1665.908
516.3766, 1674.411
518.3051, 1682.813
520.2335, 1692.860
522.1620, 1702.999
524.0905, 1712.409
526.0189, 1721.119
527.9474, 1731.104
529.8759, 1744.481
531.8043, 1756.213
533.7328, 1765.038
535.6613, 1769.305
537.5897, 1769.738
539.5182, 1765.758
541.4467, 1758.890
543.3751, 1749.304
545.3036, 1736.919
547.2321, 1725.529
549.1605, 1715.916
551.0890, 1707.816
553.0175, 1700.170
554.9459, 1692.485
556.8744, 1686.113
558.8029, 1681.380
560.7313, 1678.057
562.6598, 1677.339
564.5883, 1680.012
566.5167, 1684.182
568.4452, 1688.948
570.3737, 1694.701
572.3021, 1703.391
574.2306, 1715.729
576.1591, 1731.053
578.0875, 1748.000
580.0160, 1766.605
581.9445, 1787.420
583.8729, 1806.326
585.8014, 1830.042
587.7299, 1864.604
589.6583, 1909.606
591.5868, 1965.050
593.5153, 2035.936
595.4437, 2116.279
597.3722, 2196.431
599.3007, 2284.573
601.2291, 2355.127
603.1576, 2405.672
605.0861, 2432.259
607.0145, 2435.092
608.9430, 2402.321
610.8715, 2362.019
612.7999, 2315.517
614.7284, 2265.105
616.6569, 2221.692
618.5853, 2182.849
620.5138, 2152.430
622.4423, 2133.531
624.3707, 2125.910
626.2992, 2122.008
628.2277, 2122.586
630.1561, 2125.164
632.0846, 2128.852
634.0131, 2133.092
635.9415, 2136.357
637.8700, 2137.370
639.7985, 2138.073
641.7269, 2140.049
643.6554, 2143.198
645.5839, 2148.469
647.5123, 2156.084
649.4408, 2165.830
651.3693, 2177.887
653.2977, 2194.020
655.2262, 2207.679
657.1547, 2219.183
659.0831, 2226.780
661.0116, 2225.640
662.9401, 2212.184
664.8685, 2193.439
666.7970, 2167.247
668.7255, 2135.881
670.6539, 2107.032
672.5824, 2080.608
674.5109, 2057.541
676.4393, 2038.329
678.3678, 2023.432
680.2963, 2009.799
682.2247, 1996.541
684.1532, 1984.875
686.0817, 1976.021
688.0101, 1969.783
689.9386, 1965.075
691.8671, 1961.661
693.7955, 1960.226
695.7240, 1961.236
697.6525, 1965.050
699.5809, 1968.814
701.5094, 1971.529
703.4379, 1974.899
705.3663, 1980.442
707.2948, 1988.445
709.2233, 1995.368
711.1517, 1999.694
713.0802, 2003.005
715.0087, 2006.784
716.9371, 2011.404
718.8656, 2016.095
720.7941, 2020.917
722.7225, 2025.744
724.6510, 2030.499
726.5795, 2035.021
728.5079, 2040.251
730.4364, 2046.335
732.3649, 2053.155
734.2933, 2060.980
736.2218, 2071.187
738.1503, 2079.947
740.0787, 2084.586
742.0072, 2087.661
743.9357, 2093.780
745.8641, 2105.134
747.7926, 2115.026
749.7211, 2119.955
751.6495, 2123.024
753.5780, 2130.212
755.5065, 2142.810
757.4349, 2155.095
759.3634, 2165.536
761.2919, 2174.493
763.2203, 2182.040
765.1488, 2187.019
767.0773, 2192.223
769.0057, 2199.732
770.9342, 2208.401
772.8627, 2214.111
774.7911, 2215.350
776.7196, 2218.515
778.6481, 2227.761
780.5765, 2240.419
782.5050, 2251.275
784.4335, 2258.452
786.3619, 2265.844
788.2904, 2274.601
790.2189, 2282.566
792.1473, 2289.802
794.0758, 2297.235
796.0043, 2305.036
797.9327, 2311.613
799.8612, 2316.739
801.7897, 2323.250
803.7181, 2333.235
805.6466, 2342.684
807.5751, 2349.807
809.5035, 2356.582
811.4320, 2364.095
813.3605, 2371.555
815.2889, 2380.205
817.2174, 2388.142
819.1459, 2398.646
821.0743, 2409.001
823.0028, 2419.192
824.9313, 2428.026
826.8597, 2435.275
828.7882, 2442.485
830.7167, 2450.930
832.6451, 2461.094
834.5736, 2472.117
836.5021, 2483.433
838.4305, 2492.671
840.3590, 2501.742
842.2875, 2511.819
844.2159, 2521.345
846.1444, 2527.666
848.0729, 2532.195
850.0013, 2538.143
851.9298, 2545.683
853.8583, 2552.422
855.7867, 2557.598
857.7152, 2562.996
859.6437, 2568.923
861.5721, 2575.954
863.5006, 2583.411
865.4291, 2590.812
867.3575, 2596.594
869.2860, 2602.333
871.2145, 2609.272
873.1429, 2616.813
875.0714, 2624.099
876.9999, 2629.331
878.9283, 2634.824
880.8568, 2641.663
882.7853, 2648.888
884.7137, 2654.293
886.6422, 2659.895
888.5707, 2668.845
890.4991, 2681.541
892.4276, 2694.160
894.3561, 2705.248
896.2845, 2715.728
898.2130, 2726.321
900.1415, 2735.431
902.0699, 2743.367
903.9984, 2749.901
905.9269, 2758.507
907.8553, 2769.022
909.7838, 2779.289
911.7123, 2788.044
913.6407, 2795.455
915.5692, 2803.617
917.4977, 2814.222
919.4261, 2826.843
921.3546, 2839.983
923.2831, 2853.753
925.2115, 2868.226
927.1400, 2880.797
929.0685, 2890.823
930.9969, 2903.525
932.9254, 2921.369
934.8539, 2942.251
936.7823, 2963.510
938.7108, 2984.166
940.6393, 3006.613
942.5677, 3031.853
944.4962, 3059.840
946.4247, 3089.607
948.3531, 3121.124
950.2816, 3154.234
952.2101, 3188.281
954.1385, 3225.903
956.0670, 3268.759
957.9955, 3317.329
959.9240, 3371.032
961.8524, 3430.831
963.7809, 3492.472
965.7094, 3552.485
967.6378, 3607.463
969.5663, 3666.609
971.4948, 3731.353
973.4232, 3795.716
975.3517, 3855.157
977.2802, 3910.763
979.2086, 3965.358
981.1371, 4020.488
983.0656, 4074.679
984.9940, 4127.184
986.9225, 4178.373
988.8510, 4232.118
990.7794, 4289.388
992.7079, 4348.066
994.6364, 4408.918
996.5648, 4473.656
998.4933, 4545.060
1000.422, 4616.557
1002.350, 4677.722
1004.279, 4723.945
1006.207, 4756.227
1008.136, 4776.234
1010.064, 4785.638
1011.993, 4793.173
1013.921, 4805.438
1015.849, 4821.364
1017.778, 4837.772
1019.706, 4851.403
1021.635, 4868.375
1023.563, 4885.422
1025.492, 4890.946
1027.420, 4874.818
1029.349, 4833.378
1031.277, 4759.958
1033.206, 4657.777
1035.134, 4539.871
1037.063, 4413.929
1038.991, 4284.027
1040.920, 4162.556
1042.848, 4051.099
1044.776, 3955.565
1046.705, 3878.592
1048.633, 3819.164
1050.562, 3773.435
1052.490, 3739.597
1054.419, 3714.430
1056.347, 3696.404
1058.276, 3683.726
1060.204, 3676.901
1062.133, 3678.062
1064.061, 3685.936
1065.990, 3703.788
1067.918, 3733.157
1069.847, 3768.352
1071.775, 3806.148
1073.703, 3841.396
1075.632, 3878.685
1077.560, 3906.422
1079.489, 3917.660
1081.417, 3911.039
1083.346, 3891.816
1085.274, 3860.877
1087.203, 3827.207
1089.131, 3793.741
1091.060, 3763.030
1092.988, 3738.649
1094.917, 3723.195
1096.845, 3710.445
1098.774, 3696.078
1100.702, 3683.997
1102.630, 3677.016
1104.559, 3675.396
1106.487, 3674.154
1108.416, 3671.073
1110.344, 3666.499
1112.273, 3664.298
1114.201, 3665.791
1116.130, 3668.634
1118.058, 3670.914
1119.987, 3673.416
1121.915, 3680.836
1123.844, 3690.156
1125.772, 3696.902
1127.701, 3698.786
1129.629, 3703.419
1131.557, 3710.896
1133.486, 3722.079
1135.414, 3737.985
1137.343, 3757.431
1139.271, 3774.276
1141.200, 3787.126
1143.128, 3799.561
1145.057, 3811.734
1146.985, 3820.950
1148.914, 3826.085
1150.842, 3827.112
1152.771, 3826.115
1154.699, 3822.761
1156.628, 3819.372
1158.556, 3817.386
1160.484, 3817.395
1162.413, 3818.871
1164.341, 3822.060
1166.270, 3825.986
1168.198, 3830.675
1170.127, 3836.354
1172.055, 3843.794
1173.984, 3853.355
1175.912, 3862.777
1177.841, 3870.172
1179.769, 3877.496
1181.698, 3886.571
1183.626, 3897.341
1185.555, 3906.987
1187.483, 3914.232
1189.411, 3921.339
1191.340, 3929.810
1193.268, 3940.055
1195.197, 3949.447
1197.125, 3956.264
1199.054, 3962.343
1200.982, 3970.318
1202.911, 3978.812
1204.839, 3984.270
1206.768, 3987.081
1208.696, 3992.499
1210.625, 4002.451
1212.553, 4012.480
1214.482, 4021.557
1216.410, 4030.549
1218.339, 4040.421
1220.267, 4052.053
1222.195, 4063.415
1224.124, 4072.353
1226.052, 4079.017
1227.981, 4086.147
1229.909, 4094.465
1231.838, 4103.080
1233.766, 4112.375
1235.695, 4121.447
1237.623, 4129.142
1239.552, 4135.958
1241.480, 4144.609
1243.409, 4156.015
1245.337, 4167.343
1247.266, 4177.602
1249.194, 4185.347
1251.122, 4191.711
1253.051, 4197.441
1254.979, 4205.110
1256.908, 4216.905
1258.836, 4228.392
1260.765, 4235.523
1262.693, 4240.250
1264.622, 4247.797
1266.550, 4259.416
1268.479, 4269.737
1270.407, 4277.914
1272.336, 4285.048
1274.264, 4290.796
1276.193, 4296.095
1278.121, 4304.875
1280.049, 4319.148
1281.978, 4332.456
1283.906, 4341.245
1285.835, 4349.518
1287.763, 4362.191
1289.692, 4378.445
1291.620, 4392.490
1293.549, 4402.321
1295.477, 4411.168
1297.406, 4419.727
1299.334, 4428.297
1301.263, 4437.451
1303.191, 4447.582
1305.120, 4456.555
1307.048, 4465.634
1308.976, 4472.895
1310.905, 4475.780
1312.833, 4476.701
1314.762, 4481.255
1316.690, 4491.174
1318.619, 4500.376
1320.547, 4506.885
1322.476, 4514.265
1324.404, 4525.193
1326.333, 4537.943
1328.261, 4548.318
1330.190, 4555.518
1332.118, 4564.024
1334.047, 4576.151
1335.975, 4588.568
1337.903, 4599.009
1339.832, 4611.343
1341.760, 4619.344
1343.689, 4634.028
1345.617, 4647.091
1347.546, 4657.063
1349.474, 4664.978
1351.403, 4671.107
1353.331, 4675.276
1355.260, 4681.807
1357.188, 4692.058
1359.117, 4703.724
1361.045, 4718.202
1362.974, 4732.864
1364.902, 4743.247
1366.830, 4747.790
1368.759, 4754.740
1370.687, 4765.964
1372.616, 4776.163
1374.544, 4783.834
1376.473, 4789.474
1378.401, 4793.704
1380.330, 4796.947
1382.258, 4800.517
1384.187, 4804.493
1386.115, 4810.406
1388.044, 4819.829
1389.972, 4831.059
1391.901, 4840.968
1393.829, 4848.739
1395.757, 4857.589
1397.686, 4869.388
1399.614, 4879.923
1401.543, 4886.739
1403.471, 4891.493
1405.400, 4898.181
1407.328, 4908.563
1409.257, 4917.155
1411.185, 4922.274
1413.114, 4927.750
1415.042, 4934.971
1416.971, 4943.992
1418.899, 4955.493
1420.828, 4971.464
1422.756, 4983.720
1424.684, 4988.266
1426.613, 4992.212
1428.541, 4999.425
1430.470, 5008.759
1432.398, 5018.500
1434.327, 5029.196
1436.255, 5041.271
1438.184, 5056.086
1440.112, 5070.622
1442.041, 5082.104
1443.969, 5091.543
1445.898, 5101.924
1447.826, 5112.955
1449.755, 5122.900
1451.683, 5131.356
1453.611, 5138.517
1455.540, 5144.815
1457.468, 5150.089
1459.397, 5154.354
1461.325, 5157.700
1463.254, 5163.108
1465.182, 5172.531
1467.111, 5183.407
1469.039, 5194.500
1470.968, 5205.701
1472.896, 5217.542
1474.825, 5229.541
1476.753, 5240.675
1478.682, 5250.965
1480.610, 5261.675
1482.538, 5272.432
1484.467, 5283.214
1486.395, 5295.920
1488.324, 5312.110
1490.252, 5326.714
1492.181, 5336.263
1494.109, 5345.392
1496.038, 5357.231
1497.966, 5368.791
1499.895, 5374.544
1501.823, 5374.091
1503.752, 5374.614
1505.680, 5378.814
1507.609, 5384.312
1509.537, 5391.104
1511.465, 5399.036
1513.394, 5408.336
1515.322, 5419.218
1517.251, 5430.950
1519.179, 5441.987
1521.108, 5454.071
1523.036, 5468.547
1524.965, 5481.898
1526.893, 5490.325
1528.822, 5494.524
1530.750, 5498.406
1532.679, 5502.117
1534.607, 5505.953
1536.536, 5509.097
1538.464, 5513.409
1540.392, 5516.300
1542.321, 5520.233
1544.249, 5530.523
1546.178, 5548.567
1548.106, 5567.646
1550.035, 5584.366
1551.963, 5601.048
1553.892, 5617.487
1555.820, 5632.884
1557.749, 5646.674
1559.677, 5658.604
1561.606, 5669.151
1563.534, 5679.950
1565.463, 5689.331
1567.391, 5697.862
1569.319, 5705.162
1571.248, 5709.500
1573.176, 5716.659
1575.105, 5716.285
1577.033, 5726.109
1578.962, 5731.838
1580.890, 5732.673
1582.819, 5732.959
1584.747, 5734.510
1586.676, 5737.171
1588.604, 5741.826
1590.533, 5750.072
1592.461, 5760.777
1594.390, 5774.622
1596.318, 5789.421
1598.246, 5802.923
1600.175, 5815.768
1602.103, 5828.418
1604.032, 5840.665
1605.960, 5853.840
1607.889, 5869.461
1609.817, 5881.584
1611.746, 5887.271
1613.674, 5891.964
1615.603, 5901.127
1617.531, 5912.174
1619.460, 5917.079
1621.388, 5914.978
1623.317, 5918.755
1625.245, 5932.753
1627.173, 5947.876
1629.102, 5960.814
1631.030, 5972.273
1632.959, 5982.674
1634.887, 5992.079
1636.816, 6001.420
1638.744, 6011.328
1640.673, 6018.553
1642.601, 6019.608
1644.530, 6022.323
1646.458, 6032.814
1648.387, 6047.482
1650.315, 6060.753
1652.244, 6072.627
1654.172, 6083.563
1656.100, 6092.183
1658.029, 6101.667
1659.957, 6114.416
1661.886, 6125.909
1663.814, 6131.173
1665.743, 6133.255
1667.671, 6140.360
1669.600, 6153.985
1671.528, 6165.380
1673.457, 6172.832
1675.385, 6180.173
1677.314, 6187.190
1679.242, 6196.236
1681.171, 6209.502
1683.099, 6225.664
1685.027, 6241.480
1686.956, 6256.311
1688.884, 6269.396
1690.813, 6281.061
1692.741, 6289.742
1694.670, 6292.222
1696.598, 6293.176
1698.527, 6299.682
1700.455, 6310.670
1702.384, 6316.060
1704.312, 6313.659
1706.241, 6312.631
1708.169, 6317.397
1710.098, 6322.152
1712.026, 6321.745
1713.954, 6321.184
1715.883, 6328.148
1717.811, 6342.141
1719.740, 6354.667
1721.668, 6363.470
1723.597, 6373.962
1725.525, 6388.666
1727.454, 6402.401
1729.382, 6411.410
1731.311, 6416.795
1733.239, 6420.671
1735.168, 6423.313
1737.096, 6424.332
1739.025, 6422.912
1740.953, 6425.005
1742.881, 6435.181
1744.810, 6446.995
1746.738, 6456.864
1748.667, 6465.603
1750.595, 6473.669
1752.524, 6481.097
1754.452, 6491.250
1756.381, 6505.436
1758.309, 6519.455
1760.238, 6533.175
1762.166, 6545.020
1764.095, 6550.717
1766.023, 6554.682
1767.952, 6564.420
1769.880, 6578.886
1771.808, 6591.425
1773.737, 6601.189
1775.665, 6609.728
1777.594, 6619.577
1779.522, 6626.888
1781.451, 6630.689
1783.379, 6631.484
1785.308, 6627.351
1787.236, 6619.581
1789.165, 6618.523
1791.093, 6626.126
1793.022, 6633.925
1794.950, 6639.768
1796.879, 6646.396
1798.807, 6656.804
1800.735, 6667.351
1802.664, 6673.091
1804.592, 6675.455
1806.521, 6681.381
1808.449, 6691.477
1810.378, 6701.333
1812.306, 6708.546
1814.235, 6717.056
1816.163, 6729.623
1818.092, 6741.314
1820.020, 6747.610
1821.949, 6750.393
1823.877, 6754.792
1825.806, 6761.964
1827.734, 6768.192
1829.662, 6774.975
1831.591, 6780.546
1833.519, 6783.648
1835.448, 6787.236
1837.376, 6791.708
1839.305, 6797.491
1841.233, 6805.372
1843.162, 6814.708
1845.090, 6823.751
1847.019, 6832.942
1848.947, 6839.628
1850.876, 6842.204
1852.804, 6845.023
1854.733, 6850.768
1856.661, 6857.006
1858.589, 6860.396
1860.518, 6863.147
1862.446, 6871.726
1864.375, 6886.438
1866.303, 6898.854
1868.232, 6906.704
1870.160, 6916.034
1872.089, 6931.506
1874.017, 6944.004
1875.946, 6945.859
1877.874, 6944.905
1879.803, 6950.752
1881.731, 6953.579
1883.660, 6957.190
1885.588, 6965.131
1887.516, 6967.763
1889.445, 6977.145
1891.373, 6986.292
1893.302, 6993.175
1895.230, 6999.010
1897.159, 7006.781
1899.087, 7013.267
1901.016, 7010.656
1902.944, 7001.234
1904.873, 7001.328
1906.801, 7014.207
1908.730, 7024.564
1910.658, 7028.963
1912.587, 7032.386
1914.515, 7034.134
1916.443, 7037.430
1918.372, 7046.152
1920.300, 7057.546
1922.229, 7065.700
1924.157, 7070.604
1926.086, 7079.686
1928.014, 7096.597
1929.943, 7108.978
1931.871, 7112.503
1933.800, 7115.751
1935.728, 7121.698
1937.657, 7127.035
1939.585, 7129.505
1941.514, 7130.924
1943.442, 7135.030
1945.371, 7141.942
1947.299, 7145.298
1949.228, 7144.211
1951.156, 7143.231
1953.084, 7140.781
1955.013, 7142.433
1956.941, 7152.493
1958.870, 7164.388
1960.798, 7174.986
1962.727, 7184.571
1964.655, 7191.493
1966.584, 7197.265
1968.512, 7210.195
1970.441, 7231.443
1972.369, 7245.940
1974.298, 7247.896
1976.226, 7249.554
1978.155, 7255.229
1980.083, 7260.341
1982.011, 7263.932
1983.940, 7265.757
1985.868, 7263.076
1987.797, 7258.647
1989.725, 7261.847
1991.654, 7273.486
1993.582, 7286.635
1995.511, 7305.203
1997.439, 7315.717
1999.368, 7311.500
2001.296, 7305.854
2003.225, 7301.264
2005.153, 7299.040
2007.082, 7303.302
2009.010, 7309.759
2010.938, 7308.878
2012.867, 7303.026
2014.795, 7304.550
2016.724, 7314.442
2018.652, 7324.702
2020.581, 7332.932
2022.509, 7343.375
2024.438, 7361.034
2026.366, 7375.114
2028.295, 7375.874
2030.223, 7373.990
2032.152, 7381.626
2034.080, 7394.518
2036.009, 7402.969
2037.937, 7407.161
2039.865, 7406.652
2041.794, 7394.766
2043.722, 7391.886
2045.651, 7405.745
2047.579, 7417.017
2049.508, 7417.943
2051.436, 7420.279
2053.365, 7435.103
2055.293, 7449.512
2057.222, 7445.777
2059.150, 7432.163
2061.079, 7431.979
2063.007, 7444.088
2064.936, 7453.881
2066.864, 7460.677
2068.792, 7466.615
2070.721, 7470.513
2072.649, 7477.769
2074.578, 7495.085
2076.506, 7509.058
2078.435, 7508.100
2080.363, 7503.341
2082.292, 7506.607
2084.220, 7513.768
2086.149, 7515.724
2088.077, 7513.076
2090.006, 7514.322
2091.934, 7522.888
2093.863, 7526.854
2095.791, 7523.397
2097.719, 7521.395
2099.648, 7521.426
2101.576, 7523.510
2103.505, 7528.496
2105.433, 7534.062
2107.362, 7539.116
2109.290, 7546.414
2111.219, 7552.154
2113.147, 7561.850
2115.076, 7571.187
2117.004, 7579.893
2118.933, 7589.744
2120.861, 7599.149
2122.790, 7607.927
2124.718, 7613.529
2126.646, 7618.064
2128.575, 7624.961
2130.503, 7627.264
2132.432, 7622.188
2134.360, 7613.878
2136.289, 7604.943
2138.217, 7598.109
2140.146, 7597.668
2142.074, 7602.759
2144.003, 7607.373
2145.931, 7610.561
2147.860, 7618.062
2149.788, 7629.924
2151.717, 7643.445
2153.645, 7663.165
2155.573, 7674.760
2157.502, 7668.169
2159.430, 7661.174
2161.359, 7663.673
2163.287, 7669.883
2165.216, 7674.466
2167.144, 7678.956
2169.073, 7685.694
2171.001, 7694.269
2172.930, 7704.731
2174.858, 7716.640
2176.787, 7723.341
2178.715, 7723.331
2180.644, 7722.766
2182.572, 7723.440
2184.500, 7721.590
2186.429, 7713.027
2188.357, 7707.743
2190.286, 7714.251
2192.214, 7721.961
2194.143, 7723.393
2196.071, 7721.717
2198.000, 7718.982
2199.928, 7716.325
2201.857, 7717.870
2203.785, 7723.218
2205.714, 7726.318
2207.642, 7727.107
2209.571, 7729.573
2211.499, 7734.356
2213.427, 7741.406
2215.356, 7752.428
2217.284, 7761.501
2219.213, 7762.165
2221.141, 7765.202
2223.070, 7778.055
2224.998, 7790.958
2226.927, 7796.345
2228.855, 7797.853
2230.784, 7799.560
2232.712, 7801.896
2234.641, 7806.343
2236.569, 7812.729
2238.498, 7814.712
2240.426, 7812.042
2242.354, 7814.058
2244.283, 7821.997
2246.211, 7828.073
2248.140, 7830.272
2250.068, 7832.064
2251.997, 7834.510
2253.925, 7837.323
2255.854, 7840.756
2257.782, 7844.600
2259.711, 7850.640
2261.639, 7854.554
2263.568, 7849.845
2265.496, 7841.282
2267.425, 7835.714
2269.353, 7833.258
2271.281, 7835.651
2273.210, 7842.531
2275.138, 7848.462
2277.067, 7853.724
2278.995, 7856.967
2280.924, 7857.136
2282.852, 7857.204
2284.781, 7855.822
2286.709, 7854.959
2288.638, 7853.959
2290.566, 7853.607
2292.495, 7854.375
2294.423, 7856.208
2296.352, 7860.055
2298.280, 7865.062
2300.208, 7871.098
2302.137, 7877.671
2304.065, 7883.949
2305.994, 7889.903
2307.922, 7896.421
2309.851, 7902.248
2311.779, 7900.963
2313.708, 7891.226
2315.636, 7892.987
2317.565, 7910.861
2319.493, 7916.050
2321.422, 7903.874
2323.350, 7896.800
2325.279, 7901.030
2327.207, 7905.366
2329.135, 7907.572
2331.064, 7908.524
2332.992, 7904.565
2334.921, 7903.677
2336.849, 7909.181
2338.778, 7918.570
2340.706, 7934.089
2342.635, 7948.154
2344.563, 7952.606
2346.492, 7950.501
2348.420, 7943.756
2350.349, 7936.413
2352.277, 7940.373
2354.206, 7940.780
2356.134, 7946.012
2358.063, 7956.420
2359.991, 7961.796
2361.919, 7980.086
2363.848, 7989.038
2365.776, 7985.403
2367.705, 7980.068
2369.633, 7973.448
2371.562, 7969.137
2373.490, 7969.552
2375.419, 7971.349
2377.347, 7976.021
2379.276, 7977.720
2381.204, 7969.257
2383.133, 7961.731
2385.061, 7962.016
2386.990, 7966.600
2388.918, 7974.914
2390.846, 7983.943
2392.775, 7990.263
2394.703, 7994.190
2396.632, 7996.085
2398.560, 7995.271
2400.489, 7987.810
2402.417, 7976.018
2404.346, 7978.024
2406.274, 7974.490
2408.203, 7972.069
2410.131, 7980.393
2412.060, 7975.544
2413.988, 7985.589
2415.917, 7997.489
2417.845, 8010.001
2419.773, 8020.546
2421.702, 8026.882
2423.630, 8032.726
2425.559, 8039.347
2427.487, 8045.022
2429.416, 8049.229
2431.344, 8053.462
2433.273, 8059.255
2435.201, 8064.230
2437.130, 8067.222
2439.058, 8067.994
2440.987, 8065.899
2442.915, 8062.007
2444.844, 8057.332
2446.772, 8052.706
2448.700, 8049.272
2450.629, 8047.604
2452.557, 8046.616
2454.486, 8048.333
2456.414, 8058.916
2458.343, 8075.739
2460.271, 8088.056
2462.200, 8095.693
2464.128, 8102.800
2466.057, 8108.710
2467.985, 8108.827
2469.914, 8101.792
2471.842, 8097.485
2473.771, 8097.677
2475.699, 8099.549
2477.627, 8103.815
2479.556, 8111.315
2481.484, 8124.687
2483.413, 8129.466
2485.341, 8116.909
2487.270, 8108.962
2489.198, 8117.049
2491.127, 8120.773
2493.055, 8108.374
2494.984, 8102.511
2496.912, 8117.622
2498.841, 8131.852
2500.769, 8136.202
2502.698, 8137.380
2504.626, 8136.078
2506.554, 8134.901
2508.483, 8136.808
2510.411, 8137.860
2512.340, 8134.541
2514.268, 8130.536
2516.197, 8130.184
2518.125, 8131.792
2520.054, 8133.104
2521.982, 8134.113
2523.911, 8132.572
2525.839, 8131.005
2527.768, 8137.292
2529.696, 8146.768
2531.625, 8147.357
2533.553, 8141.892
2535.481, 8138.502
2537.410, 8138.199
2539.338, 8143.563
2541.267, 8153.481
2543.195, 8161.567
2545.124, 8166.543
2547.052, 8166.789
2548.981, 8170.760
2550.909, 8171.683
2552.838, 8169.839
2554.766, 8171.337
2556.695, 8164.401
2558.623, 8159.349
2560.552, 8158.685
2562.480, 8155.886
2564.408, 8150.307
2566.337, 8144.761
2568.265, 8137.534
2570.194, 8134.443
2572.122, 8135.664
2574.051, 8140.248
2575.979, 8148.164
2577.908, 8157.889
2579.836, 8170.246
2581.765, 8180.563
2583.693, 8185.904
2585.622, 8191.006
2587.550, 8194.751
2589.479, 8201.277
2591.407, 8215.552
2593.335, 8223.528
2595.264, 8217.163
2597.192, 8209.069
2599.121, 8204.642
2601.049, 8200.493
2602.978, 8193.910
2604.906, 8190.417
2606.835, 8197.793
2608.763, 8203.328
2610.692, 8198.587
2612.620, 8194.067
2614.549, 8196.452
2616.477, 8199.752
2618.406, 8198.566
2620.334, 8197.760
2622.262, 8202.724
2624.191, 8207.740
2626.119, 8207.198
2628.048, 8207.401
2629.976, 8212.347
2631.905, 8221.138
2633.833, 8235.739
2635.762, 8248.883
2637.690, 8253.159
2639.619, 8251.032
2641.547, 8240.812
2643.476, 8230.866
2645.404, 8235.472
2647.333, 8241.626
2649.261, 8229.896
2651.189, 8238.974
2653.118, 8226.169
2655.046, 8242.721
2656.975, 8244.276
2658.903, 8239.688
2660.832, 8240.707
2662.760, 8243.678
2664.689, 8245.375
2666.617, 8245.458
2668.546, 8243.249
2670.474, 8240.056
2672.403, 8237.502
2674.331, 8235.918
2676.260, 8235.989
2678.188, 8237.078
2680.116, 8237.917
2682.045, 8238.876
2683.973, 8239.692
2685.902, 8240.976
2687.830, 8243.038
2689.759, 8246.681
2691.687, 8258.909
2693.616, 8270.130
2695.544, 8261.349
2697.473, 8244.014
2699.401, 8237.751
2701.330, 8239.073
2703.258, 8242.520
2705.187, 8247.544
2707.115, 8255.460
2709.043, 8261.646
2710.972, 8255.381
2712.900, 8244.128
2714.829, 8239.093
2716.757, 8240.261
2718.686, 8250.806
2720.614, 8265.722
2722.543, 8278.040
2724.471, 8286.797
2726.400, 8285.341
2728.328, 8282.725
2730.257, 8298.649
2732.185, 8295.935
2734.114, 8315.550
2736.042, 8303.892
2737.970, 8303.877
2739.899, 8308.513
2741.827, 8309.279
2743.756, 8309.141
2745.684, 8312.312
2747.613, 8316.060
2749.541, 8317.909
2751.470, 8315.973
2753.398, 8305.650
2755.327, 8293.472
2757.255, 8287.859
2759.184, 8284.163
2761.112, 8275.827
2763.041, 8269.484
2764.969, 8273.255
2766.897, 8281.158
2768.826, 8289.923
2770.754, 8297.432
2772.683, 8297.209
2774.611, 8299.018
2776.540, 8314.551
2778.468, 8329.126
2780.397, 8332.219
2782.325, 8329.902
2784.254, 8325.573
2786.182, 8318.308
2788.111, 8305.053
2790.039, 8293.849
2791.968, 8293.564
2793.896, 8292.409
2795.824, 8283.982
2797.753, 8277.275
2799.681, 8277.073
2801.610, 8278.815
2803.538, 8276.567
2805.467, 8281.166
2807.395, 8299.375
2809.324, 8313.610
2811.252, 8317.807
2813.181, 8315.507
2815.109, 8303.167
2817.038, 8293.393
2818.966, 8291.359
2820.895, 8287.223
2822.823, 8279.348
2824.751, 8272.562
2826.680, 8267.131
2828.608, 8266.390
2830.537, 8271.710
2832.465, 8277.732
2834.394, 8284.184
2836.322, 8285.582
2838.251, 8279.930
2840.179, 8278.539
2842.108, 8283.866
2844.036, 8288.734
2845.965, 8293.658
2847.893, 8293.299
2849.822, 8296.392
2851.750, 8298.689
2853.678, 8296.936
2855.607, 8299.543
2857.535, 8297.146
2859.464, 8289.787
2861.392, 8280.132
2863.321, 8279.669
2865.249, 8285.928
2867.178, 8289.551
2869.106, 8291.476
2871.035, 8289.824
2872.963, 8288.952
2874.892, 8301.214
2876.820, 8316.390
2878.749, 8321.206
2880.677, 8320.066
2882.605, 8316.414
2884.534, 8313.450
2886.462, 8317.559
2888.391, 8320.547
2890.319, 8312.128
2892.248, 8305.499
2894.176, 8313.694
2896.105, 8320.342
2898.033, 8314.954
2899.962, 8308.891
2901.890, 8306.152
2903.819, 8304.813
2905.747, 8305.403
2907.676, 8304.351
2909.604, 8298.516
2911.532, 8296.524
2913.461, 8301.566
2915.389, 8303.711
2917.318, 8299.302
2919.246, 8299.410
2921.175, 8296.823
2923.103, 8293.654
2925.032, 8293.712
2926.960, 8288.884
2928.889, 8292.773
2930.817, 8293.913
2932.746, 8292.145
2934.674, 8284.653
2936.603, 8273.458
2938.531, 8265.457
2940.459, 8261.728
2942.388, 8266.990
2944.316, 8276.028
2946.245, 8277.083
2948.173, 8275.644
2950.102, 8279.821
2952.030, 8285.399
2953.959, 8287.561
2955.887, 8289.502
2957.816, 8294.592
2959.744, 8298.716
2961.673, 8299.644
2963.601, 8298.600
2965.530, 8296.155
2967.458, 8292.206
2969.386, 8287.167
2971.315, 8281.364
2973.243, 8275.167
2975.172, 8269.147
2977.100, 8261.126
2979.029, 8262.150
2980.957, 8275.465
2982.886, 8281.493
2984.814, 8279.180
2986.743, 8276.778
2988.671, 8274.249
2990.600, 8268.309
2992.528, 8260.323
2994.457, 8259.087
2996.385, 8260.734
2998.313, 8251.776
3000.242, 8254.991
3002.170, 8245.611
3004.099, 8253.955
3006.027, 8250.546
3007.956, 8245.552
3009.884, 8244.677
3011.813, 8247.666
3013.741, 8254.749
3015.670, 8264.614
3017.598, 8280.229
3019.527, 8288.259
3021.455, 8281.905
3023.384, 8274.223
3025.312, 8267.288
3027.240, 8261.682
3029.169, 8258.280
3031.097, 8250.950
3033.026, 8239.838
3034.954, 8236.737
3036.883, 8241.495
3038.811, 8245.046
3040.740, 8246.973
3042.668, 8243.294
3044.597, 8237.747
3046.525, 8236.498
3048.454, 8238.369
3050.382, 8243.173
3052.311, 8248.694
3054.239, 8254.185
3056.167, 8258.367
3058.096, 8259.676
3060.024, 8261.144
3061.953, 8265.613
3063.881, 8265.730
3065.810, 8257.008
3067.738, 8252.029
3069.667, 8254.708
3071.595, 8257.403
3073.524, 8260.259
3075.452, 8257.343
3077.381, 8257.315
3079.309, 8247.723
3081.238, 8250.245
3083.166, 8243.035
3085.094, 8234.538
3087.023, 8247.053
3088.951, 8261.955
3090.880, 8256.286
3092.808, 8244.949
3094.737, 8240.302
3096.665, 8235.317
3098.594, 8223.301
3100.522, 8216.242
3102.451, 8220.965
3104.379, 8223.367
3106.308, 8220.396
3108.236, 8218.877
3110.165, 8219.309
3112.093, 8221.580
3114.021, 8225.749
3115.950, 8224.536
3117.878, 8219.483
3119.807, 8213.763
3121.735, 8209.218
3123.664, 8209.325
3125.592, 8209.856
3127.521, 8214.635
3129.449, 8219.143
3131.378, 8226.314
3133.306, 8237.068
3135.235, 8242.060
3137.163, 8248.164
3139.092, 8258.460
3141.020, 8257.133
3142.948, 8270.063
3144.877, 8274.840
3146.805, 8271.774
3148.734, 8269.160
3150.662, 8266.839
3152.591, 8260.436
3154.519, 8253.608
3156.448, 8253.167
3158.376, 8258.039
3160.305, 8269.968
3162.233, 8282.066
3164.162, 8288.203
3166.090, 8292.443
3168.019, 8292.154
3169.947, 8298.072
3171.875, 8304.884
3173.804, 8328.049
3175.732, 8323.877
3177.661, 8328.905
3179.589, 8342.377
3181.518, 8339.955
3183.446, 8348.774
3185.375, 8339.857
3187.303, 8356.560
3189.232, 8355.977
3191.160, 8353.922
3193.089, 8363.424
3195.017, 8376.611
3196.946, 8391.811
3198.874, 8404.666
3200.802, 8412.963
3202.731, 8422.046
3204.659, 8432.272
3206.588, 8446.665
3208.516, 8463.533
3210.445, 8462.646
3212.373, 8476.526
3214.302, 8466.371
3216.230, 8487.337
3218.159, 8487.888
3220.087, 8482.592
3222.016, 8480.788
3223.944, 8482.370
3225.873, 8489.103
3227.801, 8494.003
3229.729, 8495.232
3231.658, 8495.195
3233.586, 8494.524
3235.515, 8493.704
3237.443, 8493.356
3239.372, 8492.957
3241.300, 8494.653
3243.229, 8505.929
3245.157, 8518.878
3247.086, 8525.634
3249.014, 8527.298
3250.943, 8520.937
3252.871, 8516.157
3254.800, 8520.379
3256.728, 8510.251
3258.656, 8476.214
3260.585, 8458.021
3262.513, 8456.223
3264.442, 8447.216
3266.370, 8435.118
3268.299, 8431.803
3270.227, 8432.407
3272.156, 8431.745
3274.084, 8428.061
3276.013, 8423.990
3277.941, 8417.525
3279.870, 8408.487
3281.798, 8401.604
3283.727, 8386.454
3285.655, 8377.889
3287.583, 8376.858
3289.512, 8365.224
3291.440, 8349.578
3293.369, 8353.479
3295.297, 8341.212
3297.226, 8345.693
3299.154, 8329.758
3301.083, 8324.379
3303.011, 8319.607
3304.940, 8314.612
3306.868, 8303.179
3308.797, 8284.658
3310.725, 8273.232
3312.654, 8268.868
3314.582, 8261.131
3316.510, 8252.567
3318.439, 8250.813
3320.367, 8247.881
3322.296, 8234.786
3324.224, 8220.123
3326.153, 8207.396
3328.081, 8196.669
3330.010, 8188.927
3331.938, 8181.255
3333.867, 8173.331
3335.795, 8167.761
3337.724, 8163.132
3339.652, 8156.409
3341.581, 8148.084
3343.509, 8139.803
3345.438, 8129.713
3347.366, 8117.663
3349.294, 8104.257
3351.223, 8091.791
3353.151, 8075.034
3355.080, 8054.208
3357.008, 8039.114
3358.937, 8029.737
3360.865, 8025.929
3362.794, 8025.646
3364.722, 8027.052
3366.651, 8027.601
3368.579, 8022.971
3370.508, 8020.931
3372.436, 8016.072
3374.365, 8009.749
3376.293, 8006.204
3378.221, 8002.316
3380.150, 7996.006
3382.078, 7995.706
3384.007, 7994.927
3385.935, 7990.653
3387.864, 7983.310
3389.792, 7969.470
3391.721, 7960.728
3393.649, 7964.346
3395.578, 7965.450
3397.506, 7963.513
3399.435, 7961.755
3401.363, 7960.679
3403.292, 7961.098
3405.220, 7962.374
3407.148, 7963.838
3409.077, 7964.089
3411.005, 7961.393
3412.934, 7957.038
3414.862, 7950.704
3416.791, 7944.853
3418.719, 7940.057
3420.648, 7932.522
3422.576, 7924.277
3424.505, 7919.253
3426.433, 7915.571
3428.362, 7909.928
3430.290, 7906.978
3432.219, 7907.852
3434.147, 7910.899
3436.075, 7915.398
3438.004, 7918.106
3439.932, 7918.076
3441.861, 7914.635
3443.789, 7907.219
3445.718, 7890.899
3447.646, 7877.851
3449.575, 7880.150
3451.503, 7879.501
3453.432, 7870.335
3455.360, 7871.097
3457.289, 7866.598
3459.217, 7875.187
3461.146, 7861.131
3463.074, 7858.927
3465.002, 7857.698
3466.931, 7850.080
3468.859, 7838.370
3470.788, 7820.563
3472.716, 7815.579
3474.645, 7808.734
3476.573, 7802.488
3478.502, 7803.153
3480.430, 7796.556
3482.359, 7793.228
3484.287, 7789.576
3486.216, 7779.841
3488.144, 7759.103
3490.073, 7745.366
3492.001, 7741.583
3493.929, 7743.396
3495.858, 7745.056
3497.786, 7725.792
3499.715, 7702.255
3501.643, 7696.908
3503.572, 7694.426
3505.500, 7691.351
3507.429, 7684.431
3509.357, 7673.341
3511.286, 7659.521
3513.214, 7645.787
3515.143, 7647.509
3517.071, 7649.981
3519.000, 7630.481
3520.928, 7614.527
3522.856, 7618.300
3524.785, 7622.341
3526.713, 7625.357
3528.642, 7615.457
3530.570, 7616.324
3532.499, 7600.654
3534.427, 7605.589
3536.356, 7595.019
3538.284, 7585.524
3540.213, 7585.271
3542.141, 7582.666
3544.070, 7576.964
3545.998, 7572.912
3547.927, 7569.533
3549.855, 7564.834
3551.783, 7561.403
3553.712, 7556.523
3555.640, 7554.541
3557.569, 7549.794
3559.497, 7547.418
3561.426, 7538.363
3563.354, 7534.086
3565.283, 7521.851
3567.211, 7511.839
3569.140, 7503.255
3571.068, 7495.952
3572.997, 7490.319
3574.925, 7487.644
3576.854, 7479.656
3578.782, 7467.704
3580.710, 7461.841
3582.639, 7459.682
3584.567, 7459.521
3586.496, 7458.886
3588.424, 7457.025
3590.353, 7450.808
3592.281, 7451.109
3594.210, 7438.688
3596.138, 7445.667
3598.067, 7443.177
3599.995, 7434.892
3601.924, 7420.226
3603.852, 7410.061
3605.781, 7410.123
3607.709, 7411.315
3609.637, 7412.204
3611.566, 7401.259
3613.494, 7387.540
3615.423, 7383.920
3617.351, 7382.968
3619.280, 7382.469
3621.208, 7379.212
3623.137, 7372.912
3625.065, 7366.360
3626.994, 7360.457
3628.922, 7358.106
3630.851, 7355.003
3632.779, 7346.575
3634.708, 7340.309
3636.636, 7337.490
3638.564, 7341.093
3640.493, 7346.495
3642.421, 7333.983
3644.350, 7316.024
3646.278, 7302.427
3648.207, 7297.735
3650.135, 7313.917
3652.064, 7312.434
3653.992, 7295.315
3655.921, 7287.474
3657.849, 7283.472
3659.778, 7273.552
3661.706, 7264.879
3663.635, 7261.582
3665.563, 7259.908
3667.491, 7259.168
3669.420, 7257.691
3671.348, 7254.460
3673.277, 7246.133
3675.205, 7238.195
3677.134, 7236.288
3679.062, 7231.563
3680.991, 7223.574
3682.919, 7214.866
3684.848, 7205.619
3686.776, 7189.984
3688.705, 7181.390
3690.633, 7196.224
3692.562, 7201.374
3694.490, 7189.516
3696.418, 7184.671
3698.347, 7184.323
3700.275, 7177.307
3702.204, 7170.620
3704.132, 7173.876
3706.061, 7169.574
3707.989, 7153.174
3709.918, 7136.323
3711.846, 7119.956
3713.775, 7104.150
3715.703, 7090.311
3717.632, 7076.671
3719.560, 7073.021
3721.489, 7084.979
3723.417, 7087.239
3725.345, 7081.781
3727.274, 7077.218
3729.202, 7073.600
3731.131, 7072.286
3733.059, 7066.648
3734.988, 7059.964
3736.916, 7045.823
3738.845, 7042.690
3740.773, 7031.297
3742.702, 7020.498
3744.630, 7018.464
3746.559, 7017.440
3748.487, 7016.376
3750.416, 7014.611
3752.344, 7010.826
3754.272, 6997.369
3756.201, 6987.852
3758.129, 6993.711
3760.058, 6995.180
3761.986, 6988.316
3763.915, 6979.869
3765.843, 6968.959
3767.772, 6958.382
3769.700, 6946.804
3771.629, 6932.362
3773.557, 6925.410
3775.486, 6909.735
3777.414, 6905.877
3779.343, 6906.314
3781.271, 6898.940
3783.199, 6890.937
3785.128, 6885.115
3787.056, 6880.347
3788.985, 6876.648
3790.913, 6880.711
3792.842, 6884.353
3794.770, 6876.635
3796.699, 6865.541
3798.627, 6852.263
3800.556, 6846.189
3802.484, 6835.062
3804.413, 6831.936
3806.341, 6817.103
3808.270, 6807.636
3810.198, 6798.328
3812.126, 6788.072
3814.055, 6787.046
3815.983, 6779.995
3817.912, 6781.452
3819.840, 6774.995
3821.769, 6779.987
3823.697, 6782.671
3825.626, 6781.674
3827.554, 6780.509
3829.483, 6776.181
3831.411, 6761.150
3833.340, 6749.996
3835.268, 6748.562
3837.197, 6742.413
3839.125, 6732.155
3841.053, 6721.007
3842.982, 6711.009
3844.910, 6703.882
3846.839, 6698.123
3848.767, 6692.978
3850.696, 6687.095
3852.624, 6683.040
3854.553, 6677.803
3856.481, 6674.557
3858.410, 6672.452
3860.338, 6666.244
3862.267, 6661.833
3864.195, 6663.720
3866.124, 6650.526
3868.052, 6637.296
3869.980, 6631.808
3871.909, 6636.794
3873.837, 6630.710
3875.766, 6619.188
3877.694, 6611.607
3879.623, 6604.480
3881.551, 6597.363
3883.480, 6589.935
3885.408, 6582.643
3887.337, 6583.680
3889.265, 6584.003
3891.194, 6571.134
3893.122, 6565.366
3895.051, 6568.506
3896.979, 6563.123
3898.907, 6551.580
3900.836, 6535.639
3902.764, 6526.513
3904.693, 6528.073
3906.621, 6532.608
3908.550, 6536.319
3910.478, 6531.225
3912.407, 6522.436
3914.335, 6512.570
3916.264, 6505.361
3918.192, 6499.650
3920.121, 6493.482
3922.049, 6488.149
3923.978, 6481.376
3925.906, 6470.845
3927.834, 6457.446
3929.763, 6453.642
3931.691, 6456.527
3933.620, 6460.229
3935.548, 6454.642
3937.477, 6441.935
3939.405, 6436.852
3941.334, 6436.728
3943.262, 6440.677
3945.191, 6440.318
3947.119, 6430.497
3949.048, 6417.249
3950.976, 6402.683
3952.905, 6401.682
3954.833, 6405.040
3956.761, 6397.565
3958.690, 6394.667
3960.618, 6390.408
3962.547, 6392.410
3964.475, 6379.952
3966.404, 6373.687
3968.332, 6370.721
3970.261, 6373.009
3972.189, 6368.354
3974.118, 6356.823
3976.046, 6345.853
3977.975, 6340.427
3979.903, 6337.894
3981.832, 6335.235
3983.760, 6333.188
3985.688, 6334.370
3987.617, 6333.796
3989.545, 6322.956
3991.474, 6309.477
3993.402, 6296.616
3995.331, 6287.355
3997.259, 6281.142
3999.188, 6279.026
4001.116, 6271.851
4003.045, 6270.715
4004.973, 6262.344
4006.902, 6265.705
4008.830, 6264.693
4010.759, 6257.997
4012.687, 6251.169
4014.615, 6245.914
4016.544, 6237.856
4018.472, 6226.971
4020.401, 6218.776
4022.329, 6211.278
4024.258, 6209.499
4026.186, 6204.549
4028.115, 6205.564
4030.043, 6201.522
4031.972, 6204.368
4033.900, 6206.554
4035.829, 6201.913
4037.757, 6195.388
4039.686, 6186.417
4041.614, 6171.139
4043.542, 6162.455
4045.471, 6156.370
4047.399, 6144.249
4049.328, 6139.271
4051.256, 6134.190
4053.185, 6139.987
4055.113, 6127.004
4057.042, 6122.524
4058.970, 6118.686
4060.899, 6111.059
4062.827, 6105.102
4064.756, 6100.067
4066.684, 6093.988
4068.613, 6085.469
4070.541, 6073.056
4072.469, 6065.127
4074.398, 6061.370
4076.326, 6057.247
4078.255, 6047.967
4080.183, 6043.667
4082.112, 6025.492
4084.040, 6031.329
4085.969, 6034.799
4087.897, 6030.228
4089.826, 6013.614
4091.754, 6002.955
4093.683, 5996.695
4095.611, 5983.945
4097.540, 5975.593
4099.468, 5977.275
4101.396, 5972.847
4103.325, 5963.625
4105.253, 5957.251
4107.182, 5950.510
4109.110, 5943.439
4111.039, 5928.902
4112.967, 5925.116
4114.896, 5911.380
4116.824, 5911.740
4118.753, 5903.428
4120.681, 5894.641
4122.610, 5886.063
4124.538, 5878.771
4126.467, 5872.837
4128.395, 5868.030
4130.324, 5864.949
4132.252, 5863.372
4134.181, 5859.934
4136.109, 5853.104
4138.038, 5842.925
4139.966, 5839.529
4141.895, 5839.542
4143.823, 5820.333
4145.751, 5805.497
4147.680, 5812.042
4149.608, 5813.694
4151.537, 5807.549
4153.465, 5797.220
4155.394, 5788.083
4157.322, 5781.213
4159.250, 5777.400
4161.179, 5779.224
4163.107, 5773.841
4165.036, 5762.692
4166.964, 5761.471
4168.893, 5742.267
4170.821, 5749.021
4172.750, 5745.378
4174.678, 5735.019
4176.607, 5717.008
4178.535, 5703.332
4180.464, 5694.612
4182.392, 5691.241
4184.321, 5690.590
4186.249, 5689.096
4188.178, 5684.959
4190.106, 5681.019
4192.035, 5677.789
4193.963, 5672.269
4195.892, 5664.384
4197.820, 5655.244
4199.749, 5643.924
4201.677, 5629.815
4203.605, 5616.856
4205.534, 5605.272
4207.462, 5595.951
4209.391, 5590.775
4211.319, 5585.424
4213.248, 5580.256
4215.176, 5580.179
4217.104, 5571.480
4219.033, 5568.068
4220.961, 5561.404
4222.890, 5555.745
4224.818, 5551.361
4226.747, 5542.141
4228.675, 5533.168
4230.604, 5527.754
4232.532, 5520.133
4234.461, 5510.791
4236.389, 5510.763
4238.318, 5509.934
4240.246, 5497.805
4242.175, 5489.164
4244.103, 5485.789
4246.032, 5479.430
4247.960, 5467.167
4249.889, 5464.436
4251.817, 5440.767
4253.746, 5449.864
4255.674, 5434.528
4257.603, 5418.543
4259.531, 5414.673
4261.459, 5401.226
4263.388, 5383.793
4265.316, 5374.820
4267.245, 5370.753
4269.173, 5370.262
4271.102, 5357.227
4273.030, 5341.115
4274.958, 5335.170
4276.887, 5333.132
4278.815, 5333.650
4280.744, 5322.302
4282.672, 5308.432
4284.601, 5297.811
4286.529, 5292.542
4288.458, 5291.024
4290.386, 5290.680
4292.315, 5283.877
4294.243, 5265.617
4296.172, 5255.298
4298.100, 5249.799
4300.029, 5239.053
4301.957, 5229.891
4303.886, 5224.238
4305.814, 5218.993
4307.743, 5213.660
4309.671, 5207.937
4311.600, 5200.312
4313.528, 5190.912
4315.457, 5185.382
4317.385, 5176.265
4319.313, 5157.873
4321.242, 5146.308
4323.170, 5141.043
4325.099, 5137.647
4327.027, 5132.564
4328.956, 5124.202
4330.884, 5112.531
4332.813, 5101.209
4334.741, 5096.833
4336.669, 5089.499
4338.598, 5078.872
4340.526, 5070.530
4342.455, 5064.831
4344.383, 5064.774
4346.312, 5048.313
4348.240, 5025.080
4350.169, 5024.385
4352.097, 5018.855
4354.026, 4999.037
4355.954, 4994.292
4357.883, 4993.361
4359.811, 4980.212
4361.740, 4973.114
4363.668, 4972.546
4365.597, 4967.683
4367.525, 4962.154
4369.454, 4959.118
4371.382, 4948.877
4373.311, 4935.666
4375.239, 4930.091
4377.167, 4919.249
4379.096, 4901.016
4381.024, 4892.213
4382.953, 4884.586
4384.881, 4869.242
4386.810, 4870.806
4388.738, 4880.560
4390.667, 4868.824
4392.595, 4855.743
4394.523, 4847.376
4396.452, 4835.216
4398.380, 4823.046
4400.309, 4813.426
4402.237, 4809.783
4404.166, 4809.847
4406.094, 4809.870
4408.023, 4800.407
4409.951, 4778.117
4411.880, 4760.221
4413.808, 4746.678
4415.737, 4735.644
4417.665, 4731.825
4419.594, 4732.781
4421.522, 4721.983
4423.451, 4711.531
4425.379, 4708.593
4427.308, 4699.489
4429.236, 4690.179
4431.165, 4692.697
4433.093, 4686.854
4435.021, 4671.665
4436.950, 4658.204
4438.878, 4644.513
4440.807, 4629.409
4442.735, 4625.472
4444.664, 4625.265
4446.592, 4618.219
4448.521, 4610.383
4450.449, 4601.724
4452.377, 4586.248
4454.306, 4575.908
4456.234, 4565.948
4458.163, 4566.132
4460.091, 4549.366
4462.020, 4535.769
4463.948, 4532.886
4465.877, 4536.978
4467.805, 4526.574
4469.734, 4515.226
4471.662, 4508.377
4473.591, 4498.532
4475.519, 4486.073
4477.448, 4469.201
4479.376, 4462.140
4481.305, 4463.370
4483.233, 4470.759
4485.162, 4464.896
4487.090, 4442.079
4489.019, 4423.603
4490.947, 4412.302
4492.875, 4412.727
4494.804, 4412.777
4496.732, 4410.606
4498.661, 4403.272
4500.589, 4391.477
4502.518, 4375.963
4504.446, 4371.425
4506.375, 4368.322
4508.303, 4362.932
4510.231, 4344.017
4512.160, 4324.491
4514.088, 4323.546
4516.017, 4318.384
4517.945, 4307.944
4519.874, 4295.963
4521.802, 4292.380
4523.731, 4284.816
4525.659, 4278.237
4527.588, 4275.134
4529.516, 4265.977
4531.445, 4258.880
4533.373, 4250.476
4535.302, 4233.729
4537.230, 4217.255
4539.159, 4203.535
4541.087, 4195.512
4543.016, 4190.420
4544.944, 4186.655
4546.873, 4186.396
4548.801, 4185.521
4550.729, 4180.688
4552.658, 4170.018
4554.586, 4155.668
4556.515, 4139.788
4558.443, 4132.549
4560.372, 4134.217
4562.300, 4127.137
4564.229, 4115.534
4566.157, 4101.357
4568.085, 4109.617
4570.014, 4119.417
4571.942, 4109.898
4573.871, 4083.035
4575.799, 4054.012
4577.728, 4064.982
4579.656, 4060.586
4581.585, 4034.409
4583.513, 4025.144
4585.442, 4018.699
4587.370, 4009.592
4589.299, 3999.549
4591.227, 3992.219
4593.156, 3993.137
4595.084, 3986.345
4597.013, 3975.241
4598.941, 3966.688
4600.870, 3959.681
4602.798, 3952.929
4604.727, 3941.907
4606.655, 3929.991
4608.583, 3918.678
4610.512, 3909.290
4612.440, 3901.719
4614.369, 3894.825
4616.297, 3889.954
4618.226, 3885.045
4620.154, 3882.921
4622.083, 3873.331
4624.011, 3869.979
4625.939, 3854.832
4627.868, 3839.277
4629.796, 3827.335
4631.725, 3825.457
4633.653, 3825.253
4635.582, 3823.273
4637.510, 3813.801
4639.439, 3801.804
4641.367, 3789.567
4643.296, 3783.203
4645.224, 3776.094
4647.153, 3758.131
4649.081, 3759.315
4651.010, 3768.516
4652.938, 3755.539
4654.867, 3741.420
4656.795, 3729.798
4658.724, 3719.777
4660.652, 3712.340
4662.581, 3707.293
4664.509, 3700.255
4666.438, 3690.411
4668.366, 3677.105
4670.294, 3674.454
4672.223, 3672.017
4674.151, 3658.915
4676.080, 3648.754
4678.008, 3639.895
4679.937, 3627.543
4681.865, 3621.668
4683.793, 3620.167
4685.722, 3617.279
4687.650, 3610.267
4689.579, 3599.429
4691.507, 3588.772
4693.436, 3578.420
4695.364, 3568.542
4697.293, 3554.733
4699.221, 3545.234
4701.150, 3543.468
4703.078, 3540.485
4705.007, 3535.580
4706.935, 3528.896
4708.864, 3519.129
4710.792, 3510.068
4712.721, 3505.841
4714.649, 3501.509
4716.578, 3495.240
4718.506, 3483.488
4720.435, 3475.561
4722.363, 3469.340
4724.292, 3453.515
4726.220, 3447.343
4728.148, 3449.311
4730.077, 3437.445
4732.005, 3424.513
4733.934, 3414.985
4735.862, 3412.784
4737.791, 3408.726
4739.719, 3399.197
4741.647, 3394.661
4743.576, 3388.848
4745.504, 3378.022
4747.433, 3371.793
4749.361, 3363.902
4751.290, 3347.894
4753.218, 3338.011
4755.147, 3330.971
4757.075, 3323.022
4759.004, 3315.417
4760.932, 3307.754
4762.861, 3295.986
4764.789, 3297.323
4766.718, 3303.256
4768.646, 3295.094
4770.575, 3285.177
4772.503, 3274.882
4774.432, 3259.748
4776.360, 3252.457
4778.289, 3251.405
4780.217, 3238.822
4782.146, 3230.317
4784.074, 3227.949
4786.002, 3227.684
4787.931, 3224.078
4789.859, 3215.969
4791.788, 3207.141
4793.716, 3195.449
4795.645, 3181.138
4797.573, 3175.582
4799.501, 3173.085
4801.430, 3170.824
4803.358, 3159.654
4805.287, 3147.241
4807.215, 3137.923
4809.144, 3134.885
4811.072, 3130.862
4813.001, 3120.690
4814.929, 3112.593
4816.858, 3109.972
4818.786, 3115.954
4820.715, 3108.611
4822.643, 3096.635
4824.572, 3088.416
4826.500, 3079.092
4828.429, 3069.987
4830.357, 3063.147
4832.286, 3054.204
4834.214, 3045.865
4836.143, 3042.516
4838.071, 3031.078
4840.000, 3018.800
4841.928, 3016.013
4843.856, 3013.394
4845.785, 3008.518
4847.713, 2999.604
4849.642, 2987.097
4851.570, 2975.979
4853.499, 2974.175
4855.427, 2968.773
4857.355, 2961.289
4859.284, 2956.241
4861.212, 2947.037
4863.141, 2937.223
4865.069, 2934.440
4866.998, 2931.713
4868.926, 2926.597
4870.855, 2914.988
4872.783, 2906.449
4874.712, 2900.371
4876.640, 2893.630
4878.569, 2887.307
4880.497, 2881.726
4882.426, 2879.453
4884.354, 2870.941
4886.283, 2859.340
4888.211, 2850.979
4890.140, 2843.026
4892.068, 2835.788
4893.997, 2830.212
4895.925, 2825.953
4897.854, 2820.998
4899.782, 2812.148
4901.710, 2804.729
4903.639, 2797.819
4905.567, 2788.052
4907.496, 2781.616
4909.424, 2778.126
4911.353, 2778.255
4913.281, 2766.996
4915.209, 2754.087
4917.138, 2754.907
4919.066, 2751.297
4920.995, 2744.024
4922.923, 2734.250
4924.852, 2728.203
4926.780, 2727.870
4928.709, 2736.105
4930.637, 2738.354
4932.566, 2733.084
4934.494, 2719.086
4936.423, 2700.100
4938.351, 2684.714
4940.280, 2679.430
4942.208, 2673.556
4944.137, 2666.663
4946.065, 2657.726
4947.994, 2656.909
4949.922, 2655.567
4951.851, 2649.069
4953.779, 2636.315
4955.708, 2624.603
4957.636, 2617.706
4959.564, 2617.226
4961.493, 2615.042
4963.421, 2608.233
4965.350, 2603.951
4967.278, 2593.804
4969.207, 2577.273
4971.135, 2566.655
4973.063, 2561.517
4974.992, 2560.446
4976.920, 2560.218
4978.849, 2552.654
4980.777, 2540.177
4982.706, 2533.700
4984.634, 2528.410
4986.563, 2523.840
4988.491, 2522.407
4990.420, 2513.950
4992.348, 2503.543
4994.277, 2502.537
4996.205, 2498.842
4998.134, 2491.624
5000.062, 2479.938
5001.991, 2471.315
5003.919, 2465.590
5005.848, 2462.251
5007.776, 2460.829
5009.705, 2457.165
5011.633, 2447.391
5013.562, 2442.342
5015.490, 2436.110
5017.418, 2426.656
5019.347, 2423.196
5021.275, 2414.089
5023.204, 2398.471
5025.132, 2398.510
5027.061, 2397.467
5028.989, 2391.930
5030.917, 2388.231
5032.846, 2379.648
5034.774, 2368.390
5036.703, 2361.164
5038.631, 2360.194
5040.560, 2359.938
5042.488, 2351.556
5044.417, 2344.152
5046.345, 2338.488
5048.274, 2334.336
5050.202, 2329.273
5052.131, 2321.574
5054.059, 2309.719
5055.988, 2300.256
5057.916, 2294.452
5059.845, 2292.217
5061.773, 2288.473
5063.702, 2283.600
5065.630, 2278.310
5067.559, 2275.052
5069.487, 2270.614
5071.416, 2264.254
5073.344, 2254.638
5075.272, 2253.621
5077.201, 2255.585
5079.129, 2252.913
5081.058, 2238.539
5082.986, 2224.231
5084.915, 2219.068
5086.843, 2219.652
5088.771, 2217.230
5090.700, 2208.823
5092.628, 2206.785
5094.557, 2197.984
5096.485, 2182.256
5098.414, 2177.710
5100.342, 2178.504
5102.271, 2178.784
5104.199, 2168.834
5106.128, 2160.110
5108.056, 2154.046
5109.985, 2151.901
5111.913, 2145.569
5113.842, 2138.884
5115.770, 2134.434
5117.699, 2133.682
5119.627, 2133.762
5121.556, 2132.544
5123.484, 2124.587
5125.413, 2116.503
5127.341, 2108.899
5129.270, 2097.960
5131.198, 2091.927
5133.126, 2089.389
5135.055, 2088.166
5136.983, 2074.628
5138.912, 2062.653
5140.840, 2063.545
5142.769, 2059.474
5144.697, 2058.027
5146.625, 2060.173
5148.554, 2056.819
5150.482, 2045.150
5152.411, 2032.081
5154.339, 2035.313
5156.268, 2033.449
5158.196, 2026.348
5160.125, 2015.529
5162.053, 2013.760
5163.982, 2012.470
5165.910, 2006.897
5167.839, 2000.546
5169.767, 1996.993
5171.696, 1994.078
5173.624, 1976.957
5175.553, 1975.742
5177.481, 1980.749
5179.410, 1971.834
5181.338, 1966.067
5183.267, 1960.572
5185.195, 1952.100
5187.124, 1943.521
5189.052, 1940.151
5190.980, 1940.912
5192.909, 1931.045
5194.837, 1926.199
5196.766, 1926.199
5198.694, 1927.533
5200.623, 1915.605
5202.551, 1907.269
5204.479, 1917.731
5206.408, 1915.588
5208.336, 1907.432
5210.265, 1896.729
5212.193, 1885.628
5214.122, 1876.741
5216.050, 1871.137
5217.979, 1871.128
5219.907, 1868.625
5221.836, 1863.314
5223.764, 1855.500
5225.693, 1851.112
5227.621, 1843.675
5229.550, 1833.939
5231.478, 1831.366
5233.407, 1829.595
5235.335, 1826.472
5237.264, 1819.600
5239.192, 1816.146
5241.121, 1812.864
5243.049, 1808.059
5244.978, 1804.988
5246.906, 1797.641
5248.834, 1788.080
5250.763, 1784.897
5252.691, 1780.299
5254.620, 1776.739
5256.548, 1777.323
5258.477, 1771.475
5260.405, 1762.739
5262.333, 1754.130
5264.262, 1752.375
5266.190, 1744.654
5268.119, 1737.004
5270.047, 1743.889
5271.976, 1738.837
5273.904, 1730.266
5275.833, 1723.995
5277.761, 1728.371
5279.690, 1721.939
5281.618, 1710.010
5283.547, 1715.662
5285.475, 1709.766
5287.404, 1700.122
5289.332, 1693.929
5291.261, 1692.765
5293.189, 1689.100
5295.118, 1681.943
5297.046, 1673.568
5298.975, 1672.215
5300.903, 1670.604
5302.832, 1660.446
5304.760, 1656.229
5306.688, 1654.409
5308.617, 1652.436
5310.545, 1645.922
5312.474, 1641.871
5314.402, 1639.322
5316.331, 1636.068
5318.259, 1627.835
5320.188, 1620.636
5322.116, 1617.461
5324.044, 1622.069
5325.973, 1613.749
5327.901, 1601.791
5329.830, 1600.682
5331.758, 1601.057
5333.687, 1598.459
5335.615, 1591.985
5337.544, 1584.193
5339.472, 1577.199
5341.401, 1572.520
5343.329, 1572.568
5345.258, 1567.225
5347.186, 1560.096
5349.115, 1553.317
5351.043, 1548.950
5352.972, 1545.847
5354.900, 1542.749
5356.829, 1538.547
5358.757, 1532.958
5360.686, 1529.568
5362.614, 1527.801
5364.542, 1520.157
5366.471, 1515.308
5368.399, 1510.336
5370.328, 1501.933
5372.256, 1499.973
5374.185, 1495.935
5376.113, 1491.266
5378.042, 1500.279
5379.970, 1506.561
5381.898, 1504.136
5383.827, 1490.216
5385.755, 1478.117
5387.684, 1471.916
5389.612, 1469.701
5391.541, 1467.250
5393.469, 1459.041
5395.398, 1448.956
5397.326, 1440.329
5399.255, 1440.442
5401.183, 1439.380
5403.112, 1435.165
5405.040, 1427.651
5406.969, 1428.239
5408.897, 1429.398
5410.826, 1427.251
5412.754, 1419.510
5414.683, 1410.328
5416.611, 1404.563
5418.540, 1405.803
5420.468, 1397.882
5422.396, 1392.333
5424.325, 1391.332
5426.253, 1393.666
5428.182, 1384.553
5430.110, 1378.914
5432.039, 1381.250
5433.967, 1373.387
5435.896, 1366.525
5437.824, 1362.791
5439.752, 1362.963
5441.681, 1358.223
5443.609, 1351.764
5445.538, 1346.458
5447.466, 1346.067
5449.395, 1346.978
5451.323, 1344.394
5453.252, 1337.048
5455.180, 1329.883
5457.109, 1325.988
5459.037, 1323.088
5460.966, 1318.408
5462.894, 1314.028
5464.823, 1307.363
5466.751, 1300.878
5468.680, 1301.610
5470.608, 1297.403
5472.537, 1295.459
5474.465, 1297.370
5476.394, 1291.511
5478.322, 1284.424
5480.250, 1277.889
5482.179, 1272.568
5484.107, 1270.660
5486.036, 1266.251
5487.964, 1260.533
5489.893, 1257.616
5491.821, 1256.469
5493.750, 1253.855
5495.678, 1249.226
5497.606, 1245.279
5499.535, 1234.181
##END=



