##NAMES=Pararealgar
##RRUFFID=R140447
##IDEAL CHEMISTRY=As_4_S_4_
##LOCALITY=Getchell mine, Adam Peak, Potosi District, Osgood Mts, Humboldt County, Nevada, USA
##OWNER=RRUFF
##SOURCE=Rock Currier
##DESCRIPTION=Yellow-orange, vitreous-opaque, poorly crystalline to amorphous, secondary alteration coating on realgar, associated with realgar and calcite.
##STATUS=The identification of this mineral has been confirmed by single-crystal X-ray diffraction
##URL=https://www.rruff.net/odr/rruff_sample/R140447
##DIFFRACTION SAMPLE DESCRIPTION=Single crystal, powder profile is calculated
##CELL PARAMETERS=a: 9.937 b: 9.706 c: 8.531 alpha: 90 beta: 97.37 gamma: 90 volume: 816 crystal system: monoclinic
##FILETYPE=Raman RAW
##RAMAN WAVELENGTH=532

102.2566, 1302.089
104.1851, 1318.143
106.1135, 1357.735
108.0420, 1439.412
109.9705, 1521.044
111.8989, 1605.135
113.8274, 1692.731
115.7559, 1776.898
117.6843, 1878.240
119.6128, 1969.937
121.5413, 2036.677
123.4697, 2077.484
125.3982, 2115.125
127.3267, 2147.197
129.2551, 2177.101
131.1836, 2221.302
133.1121, 2283.449
135.0405, 2353.351
136.9690, 2424.673
138.8975, 2498.131
140.8259, 2568.880
142.7544, 2634.531
144.6829, 2694.792
146.6113, 2753.386
148.5398, 2804.359
150.4683, 2856.577
152.3967, 2918.993
154.3252, 3019.093
156.2537, 3104.443
158.1821, 3152.879
160.1106, 3166.527
162.0391, 3185.460
163.9675, 3206.661
165.8960, 3237.916
167.8245, 3294.242
169.7529, 3380.113
171.6814, 3481.425
173.6099, 3592.552
175.5383, 3718.487
177.4668, 3837.767
179.3953, 3936.784
181.3237, 4028.763
183.2522, 4141.858
185.1807, 4304.255
187.1091, 4461.592
189.0376, 4592.029
190.9661, 4696.836
192.8945, 4770.742
194.8230, 4799.179
196.7515, 4794.991
198.6799, 4785.286
200.6084, 4774.998
202.5369, 4756.506
204.4653, 4718.554
206.3938, 4650.210
208.3223, 4595.541
210.2507, 4554.334
212.1792, 4526.831
214.1077, 4551.622
216.0361, 4645.969
217.9646, 4775.357
219.8931, 4920.945
221.8215, 5081.560
223.7500, 5256.813
225.6785, 5444.315
227.6069, 5644.510
229.5354, 5860.566
231.4639, 6201.362
233.3923, 6479.491
235.3208, 6594.941
237.2493, 6520.439
239.1777, 6319.339
241.1062, 5958.649
243.0347, 5445.250
244.9631, 4995.640
246.8916, 4618.890
248.8201, 4306.644
250.7485, 4047.542
252.6770, 3870.181
254.6055, 3719.749
256.5339, 3593.616
258.4624, 3492.800
260.3909, 3415.139
262.3193, 3357.114
264.2478, 3327.133
266.1763, 3333.823
268.1047, 3388.874
270.0332, 3466.546
271.9617, 3601.832
273.8901, 3769.468
275.8186, 3873.191
277.7471, 3853.145
279.6755, 3796.741
281.6040, 3748.833
283.5325, 3698.207
285.4609, 3680.644
287.3894, 3715.053
289.3179, 3792.257
291.2463, 3885.136
293.1748, 4005.399
295.1033, 4131.003
297.0317, 4245.227
298.9602, 4342.479
300.8887, 4453.425
302.8171, 4583.737
304.7456, 4731.576
306.6741, 4899.586
308.6025, 5117.440
310.5310, 5328.267
312.4595, 5504.183
314.3879, 5643.683
316.3164, 5768.984
318.2449, 5880.958
320.1733, 5982.690
322.1018, 6080.914
324.0303, 6156.896
325.9587, 6250.149
327.8872, 6379.955
329.8157, 6551.382
331.7441, 6726.915
333.6726, 6924.218
335.6011, 7116.928
337.5295, 7263.768
339.4580, 7350.398
341.3865, 7419.766
343.3149, 7490.854
345.2434, 7568.433
347.1719, 7617.468
349.1003, 7656.237
351.0288, 7658.220
352.9573, 7599.733
354.8857, 7473.149
356.8142, 7312.899
358.7427, 7129.974
360.6711, 6925.294
362.5996, 6703.946
364.5281, 6461.339
366.4565, 6208.296
368.3850, 5945.497
370.3135, 5665.661
372.2419, 5403.705
374.1704, 5160.278
376.0989, 4937.463
378.0273, 4738.989
379.9558, 4571.378
381.8843, 4418.229
383.8127, 4274.700
385.7412, 4142.749
387.6697, 4009.066
389.5981, 3867.945
391.5266, 3726.086
393.4551, 3591.867
395.3835, 3461.369
397.3120, 3344.332
399.2405, 3244.481
401.1689, 3161.504
403.0974, 3087.430
405.0259, 3022.766
406.9543, 2965.450
408.8828, 2914.316
410.8113, 2868.771
412.7397, 2830.805
414.6682, 2802.828
416.5967, 2782.672
418.5251, 2764.948
420.4536, 2749.270
422.3821, 2735.988
424.3105, 2725.865
426.2390, 2718.583
428.1675, 2711.918
430.0959, 2705.033
432.0244, 2698.487
433.9529, 2692.855
435.8813, 2687.446
437.8098, 2683.771
439.7383, 2682.555
441.6667, 2683.390
443.5952, 2685.771
445.5237, 2691.453
447.4521, 2697.170
449.3806, 2701.389
451.3091, 2703.910
453.2375, 2706.278
455.1660, 2708.562
457.0945, 2710.849
459.0229, 2713.246
460.9514, 2716.042
462.8799, 2718.641
464.8083, 2720.956
466.7368, 2722.969
468.6653, 2724.829
470.5938, 2727.858
472.5222, 2729.439
474.4507, 2728.007
476.3792, 2720.483
478.3076, 2715.883
480.2361, 2715.638
482.1646, 2718.149
484.0930, 2720.892
486.0215, 2723.585
487.9500, 2726.901
489.8784, 2731.231
491.8069, 2736.365
493.7354, 2740.145
495.6638, 2741.481
497.5923, 2742.161
499.5208, 2743.427
501.4492, 2745.603
503.3777, 2746.485
505.3062, 2744.446
507.2346, 2741.690
509.1631, 2741.404
511.0916, 2744.419
513.0200, 2748.471
514.9485, 2754.110
516.8770, 2760.675
518.8054, 2765.756
520.7339, 2766.308
522.6624, 2767.637
524.5908, 2772.431
526.5193, 2781.147
528.4478, 2788.253
530.3762, 2790.920
532.3047, 2792.434
534.2332, 2795.862
536.1616, 2803.107
538.0901, 2808.947
540.0186, 2812.152
541.9470, 2813.768
543.8755, 2816.664
545.8040, 2822.488
547.7324, 2828.272
549.6609, 2832.808
551.5894, 2835.975
553.5178, 2841.146
555.4463, 2850.313
557.3748, 2859.605
559.3032, 2865.316
561.2317, 2866.701
563.1602, 2869.062
565.0886, 2873.027
567.0171, 2878.301
568.9456, 2884.901
570.8740, 2895.215
572.8025, 2904.195
574.7310, 2910.563
576.6594, 2915.362
578.5879, 2921.120
580.5164, 2928.382
582.4448, 2936.547
584.3733, 2945.835
586.3018, 2956.655
588.2302, 2965.759
590.1587, 2971.615
592.0872, 2976.873
594.0156, 2983.528
595.9441, 2991.798
597.8726, 2999.384
599.8010, 3004.821
601.7295, 3009.609
603.6580, 3015.837
605.5864, 3026.179
607.5149, 3034.108
609.4434, 3035.441
611.3718, 3033.840
613.3003, 3037.110
615.2288, 3049.831
617.1572, 3062.452
619.0857, 3071.506
621.0142, 3076.834
622.9426, 3083.613
624.8711, 3092.793
626.7996, 3102.574
628.7280, 3112.215
630.6565, 3121.759
632.5850, 3130.784
634.5134, 3138.285
636.4419, 3145.804
638.3704, 3154.705
640.2988, 3165.327
642.2273, 3176.165
644.1558, 3187.780
646.0842, 3199.025
648.0127, 3208.365
649.9412, 3214.666
651.8696, 3220.802
653.7981, 3227.324
655.7266, 3234.347
657.6550, 3242.360
659.5835, 3254.470
661.5120, 3264.253
663.4404, 3267.439
665.3689, 3265.680
667.2974, 3267.665
669.2258, 3275.790
671.1543, 3286.243
673.0828, 3297.704
675.0112, 3309.945
676.9397, 3321.844
678.8682, 3332.891
680.7966, 3342.688
682.7251, 3351.477
684.6536, 3359.585
686.5820, 3364.284
688.5105, 3364.250
690.4390, 3362.162
692.3674, 3360.771
694.2959, 3360.666
696.2244, 3361.195
698.1528, 3363.699
700.0813, 3366.820
702.0098, 3368.587
703.9382, 3368.175
705.8667, 3367.860
707.7952, 3367.202
709.7236, 3366.847
711.6521, 3368.872
713.5806, 3375.184
715.5090, 3380.189
717.4375, 3380.653
719.3660, 3377.922
721.2944, 3376.238
723.2229, 3375.469
725.1514, 3375.753
727.0798, 3377.388
729.0083, 3380.233
730.9368, 3382.940
732.8652, 3386.959
734.7937, 3389.089
736.7222, 3387.243
738.6506, 3381.693
740.5791, 3376.862
742.5076, 3373.333
744.4360, 3370.553
746.3645, 3368.194
748.2930, 3366.232
750.2214, 3365.569
752.1499, 3368.991
754.0784, 3371.625
756.0068, 3370.283
757.9353, 3364.417
759.8638, 3359.626
761.7922, 3356.093
763.7207, 3354.351
765.6492, 3355.092
767.5776, 3358.710
769.5061, 3362.543
771.4346, 3366.575
773.3630, 3369.798
775.2915, 3371.359
777.2200, 3370.674
779.1484, 3369.625
781.0769, 3368.480
783.0054, 3367.379
784.9338, 3366.458
786.8623, 3365.695
788.7908, 3366.171
790.7192, 3370.356
792.6477, 3374.987
794.5762, 3376.198
796.5046, 3372.185
798.4331, 3370.124
800.3616, 3370.660
802.2900, 3373.994
804.2185, 3381.125
806.1470, 3395.385
808.0754, 3407.147
810.0039, 3413.882
811.9324, 3417.672
813.8608, 3420.697
815.7893, 3421.637
817.7178, 3424.763
819.6462, 3432.043
821.5747, 3441.262
823.5032, 3449.172
825.4316, 3455.134
827.3601, 3460.898
829.2886, 3467.891
831.2170, 3474.598
833.1455, 3478.523
835.0740, 3478.169
837.0024, 3480.053
838.9309, 3488.401
840.8594, 3499.015
842.7878, 3505.849
844.7163, 3503.112
846.6448, 3503.731
848.5732, 3510.759
850.5017, 3520.558
852.4302, 3527.876
854.3586, 3532.022
856.2871, 3536.813
858.2156, 3545.121
860.1440, 3554.090
862.0725, 3559.918
864.0010, 3556.778
865.9294, 3558.957
867.8579, 3569.788
869.7864, 3584.676
871.7148, 3598.664
873.6433, 3612.306
875.5718, 3621.471
877.5002, 3620.386
879.4287, 3616.687
881.3572, 3618.268
883.2856, 3629.294
885.2141, 3636.763
887.1426, 3638.337
889.0710, 3637.660
890.9995, 3638.197
892.9280, 3640.274
894.8564, 3643.275
896.7849, 3647.131
898.7134, 3652.211
900.6418, 3658.839
902.5703, 3667.224
904.4988, 3675.172
906.4272, 3680.511
908.3557, 3686.174
910.2842, 3694.411
912.2126, 3705.790
914.1411, 3714.398
916.0696, 3717.517
917.9980, 3719.742
919.9265, 3723.867
921.8550, 3729.899
923.7834, 3735.991
925.7119, 3744.013
927.6404, 3750.958
929.5688, 3755.056
931.4973, 3756.581
933.4258, 3760.702
935.3542, 3769.459
937.2827, 3778.320
939.2112, 3783.879
941.1396, 3787.786
943.0681, 3795.673
944.9966, 3809.654
946.9250, 3823.292
948.8535, 3834.102
950.7820, 3842.500
952.7104, 3850.098
954.6389, 3856.167
956.5674, 3862.096
958.4958, 3869.114
960.4243, 3876.017
962.3528, 3880.132
964.2813, 3880.422
966.2097, 3883.612
968.1382, 3893.963
970.0667, 3907.262
971.9951, 3919.398
973.9236, 3930.081
975.8521, 3939.989
977.7805, 3948.395
979.7090, 3955.901
981.6375, 3962.489
983.5659, 3967.485
985.4944, 3972.841
987.4229, 3978.672
989.3513, 3984.783
991.2798, 3992.806
993.2083, 4002.333
995.1367, 4007.934
997.0652, 4005.783
998.9937, 4004.990
1000.922, 4009.290
1002.851, 4018.037
1004.779, 4027.009
1006.708, 4032.855
1008.636, 4042.083
1010.564, 4059.606
1012.493, 4079.458
1014.421, 4091.393
1016.350, 4093.144
1018.278, 4094.468
1020.207, 4097.456
1022.135, 4102.167
1024.064, 4109.604
1025.992, 4122.638
1027.921, 4131.678
1029.849, 4132.603
1031.778, 4133.276
1033.706, 4139.292
1035.635, 4150.809
1037.563, 4160.968
1039.491, 4167.771
1041.420, 4174.458
1043.348, 4182.385
1045.277, 4190.986
1047.205, 4199.140
1049.134, 4207.373
1051.062, 4214.521
1052.991, 4221.405
1054.919, 4227.611
1056.848, 4231.856
1058.776, 4230.906
1060.705, 4234.733
1062.633, 4247.389
1064.562, 4262.830
1066.490, 4274.925
1068.418, 4283.295
1070.347, 4291.907
1072.275, 4300.757
1074.204, 4309.724
1076.132, 4319.296
1078.061, 4329.352
1079.989, 4336.924
1081.918, 4340.091
1083.846, 4343.136
1085.775, 4346.940
1087.703, 4351.354
1089.632, 4356.262
1091.560, 4362.548
1093.489, 4367.367
1095.417, 4369.841
1097.345, 4371.421
1099.274, 4373.544
1101.202, 4376.542
1103.131, 4379.896
1105.059, 4382.457
1106.988, 4386.708
1108.916, 4394.034
1110.845, 4403.990
1112.773, 4413.370
1114.702, 4418.972
1116.630, 4426.685
1118.559, 4440.285
1120.487, 4455.625
1122.416, 4465.042
1124.344, 4467.319
1126.272, 4470.776
1128.201, 4478.710
1130.129, 4487.810
1132.058, 4496.133
1133.986, 4503.812
1135.915, 4510.425
1137.843, 4513.825
1139.772, 4518.557
1141.700, 4527.333
1143.629, 4538.681
1145.557, 4547.216
1147.486, 4550.634
1149.414, 4554.766
1151.343, 4559.937
1153.271, 4566.266
1155.199, 4574.479
1157.128, 4584.572
1159.056, 4593.338
1160.985, 4597.867
1162.913, 4604.192
1164.842, 4617.372
1166.770, 4635.849
1168.699, 4648.952
1170.627, 4651.649
1172.556, 4657.203
1174.484, 4668.686
1176.413, 4683.729
1178.341, 4700.200
1180.270, 4719.696
1182.198, 4733.527
1184.126, 4736.337
1186.055, 4737.294
1187.983, 4740.106
1189.912, 4744.860
1191.840, 4753.023
1193.769, 4767.661
1195.697, 4779.893
1197.626, 4786.013
1199.554, 4789.681
1201.483, 4794.269
1203.411, 4799.535
1205.340, 4808.517
1207.268, 4823.128
1209.197, 4839.108
1211.125, 4854.166
1213.053, 4867.929
1214.982, 4880.980
1216.910, 4893.683
1218.839, 4903.314
1220.767, 4906.423
1222.696, 4907.841
1224.624, 4913.796
1226.553, 4924.813
1228.481, 4934.817
1230.410, 4944.175
1232.338, 4952.247
1234.267, 4956.263
1236.195, 4958.666
1238.124, 4968.407
1240.052, 4990.928
1241.980, 5008.488
1243.909, 5015.016
1245.837, 5018.237
1247.766, 5024.136
1249.694, 5033.015
1251.623, 5042.431
1253.551, 5051.286
1255.480, 5062.467
1257.408, 5081.416
1259.337, 5101.381
1261.265, 5109.864
1263.194, 5104.781
1265.122, 5102.849
1267.051, 5106.955
1268.979, 5115.708
1270.907, 5131.563
1272.836, 5152.227
1274.764, 5164.587
1276.693, 5162.151
1278.621, 5163.965
1280.550, 5176.040
1282.478, 5192.179
1284.407, 5206.992
1286.335, 5220.319
1288.264, 5231.873
1290.192, 5238.841
1292.121, 5247.315
1294.049, 5261.045
1295.978, 5276.880
1297.906, 5288.802
1299.834, 5296.303
1301.763, 5303.377
1303.691, 5309.346
1305.620, 5316.539
1307.548, 5327.618
1309.477, 5341.034
1311.405, 5351.825
1313.334, 5358.188
1315.262, 5367.116
1317.191, 5383.958
1319.119, 5401.405
1321.048, 5413.962
1322.976, 5421.313
1324.905, 5428.839
1326.833, 5435.057
1328.761, 5442.818
1330.690, 5453.014
1332.618, 5464.643
1334.547, 5477.003
1336.475, 5490.632
1338.404, 5502.792
1340.332, 5511.802
1342.261, 5521.669
1344.189, 5537.087
1346.118, 5552.964
1348.046, 5558.175
1349.975, 5550.495
1351.903, 5551.856
1353.832, 5572.306
1355.760, 5594.704
1357.688, 5610.626
1359.617, 5621.771
1361.545, 5631.686
1363.474, 5640.045
1365.402, 5648.732
1367.331, 5658.557
1369.259, 5668.249
1371.188, 5677.531
1373.116, 5686.107
1375.045, 5692.451
1376.973, 5692.508
1378.902, 5696.484
1380.830, 5707.868
1382.759, 5721.388
1384.687, 5733.341
1386.615, 5743.968
1388.544, 5755.553
1390.472, 5769.437
1392.401, 5781.923
1394.329, 5791.838
1396.258, 5800.198
1398.186, 5806.666
1400.115, 5811.652
1402.043, 5818.986
1403.972, 5829.538
1405.900, 5840.466
1407.829, 5850.747
1409.757, 5861.213
1411.686, 5873.538
1413.614, 5887.664
1415.542, 5899.237
1417.471, 5907.180
1419.399, 5914.444
1421.328, 5919.317
1423.256, 5925.104
1425.185, 5935.491
1427.113, 5950.708
1429.042, 5963.618
1430.970, 5972.345
1432.899, 5980.788
1434.827, 5992.603
1436.756, 6003.490
1438.684, 6008.427
1440.613, 6007.468
1442.541, 6008.945
1444.469, 6010.262
1446.398, 6017.911
1448.326, 6035.370
1450.255, 6057.393
1452.183, 6079.798
1454.112, 6101.658
1456.040, 6118.951
1457.969, 6128.958
1459.897, 6138.269
1461.826, 6149.967
1463.754, 6161.313
1465.683, 6168.599
1467.611, 6173.407
1469.540, 6183.739
1471.468, 6202.690
1473.396, 6221.154
1475.325, 6236.923
1477.253, 6250.037
1479.182, 6257.975
1481.110, 6262.242
1483.039, 6273.412
1484.967, 6295.613
1486.896, 6314.735
1488.824, 6322.765
1490.753, 6331.274
1492.681, 6349.320
1494.610, 6374.621
1496.538, 6394.233
1498.467, 6407.089
1500.395, 6416.088
1502.323, 6415.441
1504.252, 6417.360
1506.180, 6432.079
1508.109, 6454.032
1510.037, 6466.877
1511.966, 6464.001
1513.894, 6466.730
1515.823, 6479.418
1517.751, 6493.185
1519.680, 6504.762
1521.608, 6515.021
1523.537, 6524.609
1525.465, 6532.331
1527.394, 6544.530
1529.322, 6564.153
1531.250, 6583.964
1533.179, 6603.716
1535.107, 6621.165
1537.036, 6632.283
1538.964, 6637.811
1540.893, 6646.411
1542.821, 6659.723
1544.750, 6673.601
1546.678, 6688.595
1548.607, 6702.125
1550.535, 6710.515
1552.464, 6715.589
1554.392, 6723.588
1556.321, 6735.466
1558.249, 6746.318
1560.177, 6755.971
1562.106, 6764.030
1564.034, 6768.751
1565.963, 6773.167
1567.891, 6782.597
1569.820, 6797.534
1571.748, 6812.041
1573.677, 6823.884
1575.605, 6836.421
1577.534, 6851.380
1579.462, 6866.075
1581.391, 6877.786
1583.319, 6886.545
1585.248, 6894.568
1587.176, 6902.110
1589.104, 6909.433
1591.033, 6917.063
1592.961, 6924.688
1594.890, 6931.323
1596.818, 6937.748
1598.747, 6947.132
1600.675, 6960.891
1602.604, 6972.458
1604.532, 6979.728
1606.461, 6988.017
1608.389, 6999.856
1610.318, 7014.342
1612.246, 7030.322
1614.175, 7047.875
1616.103, 7065.685
1618.031, 7080.720
1619.960, 7098.070
1621.888, 7120.114
1623.817, 7139.943
1625.745, 7150.880
1627.674, 7155.913
1629.602, 7165.552
1631.531, 7184.406
1633.459, 7198.250
1635.388, 7206.570
1637.316, 7213.388
1639.245, 7219.165
1641.173, 7225.468
1643.102, 7233.687
1645.030, 7243.844
1646.958, 7255.632
1648.887, 7270.602
1650.815, 7284.478
1652.744, 7294.682
1654.672, 7305.943
1656.601, 7320.855
1658.529, 7338.180
1660.458, 7355.885
1662.386, 7373.834
1664.315, 7392.043
1666.243, 7414.687
1668.172, 7431.863
1670.100, 7438.091
1672.029, 7442.403
1673.957, 7449.297
1675.885, 7459.659
1677.814, 7476.982
1679.742, 7504.634
1681.671, 7529.519
1683.599, 7549.128
1685.528, 7568.229
1687.456, 7590.893
1689.385, 7610.743
1691.313, 7619.361
1693.242, 7618.554
1695.170, 7621.554
1697.099, 7629.936
1699.027, 7639.006
1700.956, 7648.540
1702.884, 7659.823
1704.813, 7677.214
1706.741, 7694.867
1708.669, 7704.084
1710.598, 7705.640
1712.526, 7712.139
1714.455, 7725.673
1716.383, 7740.100
1718.312, 7754.308
1720.240, 7769.441
1722.169, 7787.016
1724.097, 7804.281
1726.026, 7817.072
1727.954, 7824.861
1729.883, 7831.845
1731.811, 7836.896
1733.740, 7842.643
1735.668, 7852.117
1737.596, 7860.673
1739.525, 7867.825
1741.453, 7873.884
1743.382, 7877.119
1745.310, 7877.901
1747.239, 7887.046
1749.167, 7910.416
1751.096, 7931.399
1753.024, 7944.181
1754.953, 7957.201
1756.881, 7975.105
1758.810, 7993.477
1760.738, 8006.682
1762.667, 8014.850
1764.595, 8022.331
1766.523, 8030.002
1768.452, 8037.844
1770.380, 8045.647
1772.309, 8055.531
1774.237, 8069.115
1776.166, 8084.583
1778.094, 8100.298
1780.023, 8115.805
1781.951, 8128.255
1783.880, 8135.414
1785.808, 8143.905
1787.737, 8153.290
1789.665, 8164.613
1791.594, 8180.116
1793.522, 8195.880
1795.450, 8207.707
1797.379, 8216.291
1799.307, 8225.904
1801.236, 8237.833
1803.164, 8245.947
1805.093, 8247.312
1807.021, 8250.807
1808.950, 8259.123
1810.878, 8271.322
1812.807, 8288.024
1814.735, 8308.032
1816.664, 8329.058
1818.592, 8350.917
1820.521, 8366.528
1822.449, 8370.012
1824.377, 8378.094
1826.306, 8397.669
1828.234, 8417.706
1830.163, 8434.054
1832.091, 8446.724
1834.020, 8454.662
1835.948, 8459.232
1837.877, 8466.568
1839.805, 8478.062
1841.734, 8489.380
1843.662, 8499.605
1845.591, 8509.872
1847.519, 8520.953
1849.448, 8531.490
1851.376, 8539.339
1853.304, 8545.937
1855.233, 8555.893
1857.161, 8569.655
1859.090, 8578.267
1861.018, 8577.744
1862.947, 8583.390
1864.875, 8601.825
1866.804, 8625.294
1868.732, 8651.718
1870.661, 8678.563
1872.589, 8702.501
1874.518, 8722.527
1876.446, 8738.172
1878.375, 8746.328
1880.303, 8755.241
1882.231, 8769.802
1884.160, 8778.974
1886.088, 8776.341
1888.017, 8774.347
1889.945, 8786.188
1891.874, 8804.777
1893.802, 8814.681
1895.731, 8816.123
1897.659, 8823.076
1899.588, 8835.482
1901.516, 8850.781
1903.445, 8871.677
1905.373, 8887.989
1907.302, 8892.089
1909.230, 8893.927
1911.158, 8903.182
1913.087, 8916.412
1915.015, 8924.074
1916.944, 8926.629
1918.872, 8935.811
1920.801, 8954.365
1922.729, 8971.475
1924.658, 8985.275
1926.586, 8995.031
1928.515, 8994.545
1930.443, 8994.960
1932.372, 9009.778
1934.300, 9030.595
1936.229, 9039.099
1938.157, 9036.521
1940.085, 9038.338
1942.014, 9046.937
1943.942, 9055.099
1945.871, 9059.181
1947.799, 9065.255
1949.728, 9076.652
1951.656, 9089.900
1953.585, 9104.147
1955.513, 9117.865
1957.442, 9126.876
1959.370, 9131.409
1961.299, 9138.229
1963.227, 9147.503
1965.156, 9158.984
1967.084, 9169.591
1969.012, 9185.488
1970.941, 9213.662
1972.869, 9239.940
1974.798, 9251.685
1976.726, 9256.573
1978.655, 9268.473
1980.583, 9286.658
1982.512, 9298.059
1984.440, 9302.000
1986.369, 9311.968
1988.297, 9334.249
1990.226, 9353.299
1992.154, 9362.627
1994.083, 9370.291
1996.011, 9377.769
1997.939, 9386.406
1999.868, 9397.189
2001.796, 9409.940
2003.725, 9426.232
2005.653, 9446.324
2007.582, 9464.767
2009.510, 9482.071
2011.439, 9497.391
2013.367, 9507.278
2015.296, 9519.249
2017.224, 9536.766
2019.153, 9553.739
2021.081, 9565.165
2023.010, 9572.875
2024.938, 9579.643
2026.866, 9586.312
2028.795, 9597.297
2030.723, 9616.706
2032.652, 9627.954
2034.580, 9626.839
2036.509, 9628.885
2038.437, 9631.785
2040.366, 9645.091
2042.294, 9684.216
2044.223, 9720.706
2046.151, 9725.504
2048.080, 9716.822
2050.008, 9725.674
2051.937, 9748.943
2053.865, 9769.247
2055.793, 9787.093
2057.722, 9799.735
2059.650, 9802.503
2061.579, 9810.288
2063.507, 9830.405
2065.436, 9848.221
2067.364, 9854.771
2069.293, 9857.974
2071.221, 9865.017
2073.150, 9872.861
2075.078, 9875.510
2077.007, 9874.012
2078.935, 9877.034
2080.864, 9886.269
2082.792, 9892.745
2084.720, 9896.022
2086.649, 9898.697
2088.577, 9899.826
2090.506, 9904.954
2092.434, 9918.518
2094.363, 9934.747
2096.291, 9950.179
2098.220, 9963.814
2100.148, 9970.317
2102.077, 9972.709
2104.005, 9987.522
2105.934, 10016.21
2107.862, 10030.06
2109.791, 10021.31
2111.719, 10014.00
2113.647, 10013.82
2115.576, 10011.47
2117.504, 10006.00
2119.433, 10000.95
2121.361, 9995.811
2123.290, 9995.011
2125.218, 10002.05
2127.147, 10015.30
2129.075, 10033.94
2131.004, 10055.37
2132.932, 10069.73
2134.861, 10075.65
2136.789, 10086.58
2138.718, 10106.33
2140.646, 10121.18
2142.574, 10123.14
2144.503, 10128.67
2146.431, 10149.03
2148.360, 10166.80
2150.288, 10167.64
2152.217, 10166.22
2154.145, 10179.74
2156.074, 10200.25
2158.002, 10210.61
2159.931, 10212.05
2161.859, 10217.04
2163.788, 10225.68
2165.716, 10226.50
2167.645, 10215.43
2169.573, 10213.59
2171.501, 10230.26
2173.430, 10246.92
2175.358, 10259.76
2177.287, 10269.78
2179.215, 10274.46
2181.144, 10279.47
2183.072, 10289.40
2185.001, 10301.80
2186.929, 10312.81
2188.858, 10322.44
2190.786, 10332.66
2192.715, 10343.34
2194.643, 10357.28
2196.572, 10376.56
2198.500, 10388.04
2200.428, 10388.56
2202.357, 10388.63
2204.285, 10388.81
2206.214, 10392.77
2208.142, 10401.85
2210.071, 10414.36
2211.999, 10432.94
2213.928, 10450.65
2215.856, 10459.58
2217.785, 10464.26
2219.713, 10472.72
2221.642, 10484.82
2223.570, 10496.89
2225.499, 10508.86
2227.427, 10523.09
2229.355, 10538.60
2231.284, 10559.16
2233.212, 10588.85
2235.141, 10605.39
2237.069, 10591.65
2238.998, 10583.25
2240.926, 10603.86
2242.855, 10620.66
2244.783, 10611.16
2246.712, 10597.62
2248.640, 10600.49
2250.569, 10612.22
2252.497, 10621.97
2254.426, 10630.67
2256.354, 10640.55
2258.282, 10651.26
2260.211, 10662.30
2262.139, 10673.11
2264.068, 10684.24
2265.996, 10695.35
2267.925, 10705.53
2269.853, 10712.06
2271.782, 10721.86
2273.710, 10740.19
2275.639, 10757.02
2277.567, 10771.37
2279.496, 10780.91
2281.424, 10780.34
2283.353, 10778.18
2285.281, 10780.72
2287.209, 10786.67
2289.138, 10796.12
2291.066, 10807.35
2292.995, 10816.07
2294.923, 10823.27
2296.852, 10832.40
2298.780, 10843.94
2300.709, 10857.75
2302.637, 10876.80
2304.566, 10889.11
2306.494, 10886.75
2308.423, 10893.35
2310.351, 10918.08
2312.280, 10937.42
2314.208, 10941.29
2316.136, 10944.03
2318.065, 10955.82
2319.993, 10966.02
2321.922, 10964.14
2323.850, 10961.41
2325.779, 10972.40
2327.707, 10987.47
2329.636, 10984.64
2331.564, 10974.70
2333.493, 10996.66
2335.421, 11043.10
2337.350, 11057.67
2339.278, 11041.53
2341.207, 11036.11
2343.135, 11045.96
2345.063, 11050.53
2346.992, 11046.18
2348.920, 11045.49
2350.849, 11053.22
2352.777, 11061.37
2354.706, 11062.17
2356.634, 11070.97
2358.563, 11099.94
2360.491, 11124.20
2362.420, 11128.86
2364.348, 11129.28
2366.277, 11134.94
2368.205, 11143.07
2370.134, 11152.57
2372.062, 11162.79
2373.990, 11174.52
2375.919, 11185.66
2377.847, 11187.93
2379.776, 11184.21
2381.704, 11189.48
2383.633, 11203.45
2385.561, 11219.53
2387.490, 11237.46
2389.418, 11258.11
2391.347, 11282.15
2393.275, 11299.12
2395.204, 11303.08
2397.132, 11309.21
2399.061, 11317.13
2400.989, 11329.56
2402.917, 11355.92
2404.846, 11372.72
2406.774, 11368.17
2408.703, 11364.79
2410.631, 11374.11
2412.560, 11386.45
2414.488, 11397.23
2416.417, 11407.58
2418.345, 11416.59
2420.274, 11426.90
2422.202, 11441.28
2424.131, 11458.29
2426.059, 11476.51
2427.988, 11495.32
2429.916, 11516.03
2431.844, 11536.04
2433.773, 11545.80
2435.701, 11546.88
2437.630, 11548.79
2439.558, 11552.15
2441.487, 11556.49
2443.415, 11560.98
2445.344, 11572.29
2447.272, 11577.33
2449.201, 11581.89
2451.129, 11595.04
2453.058, 11593.84
2454.986, 11606.94
2456.915, 11623.65
2458.843, 11645.58
2460.771, 11663.04
2462.700, 11672.25
2464.628, 11678.60
2466.557, 11681.32
2468.485, 11685.30
2470.414, 11695.75
2472.342, 11703.91
2474.271, 11702.71
2476.199, 11700.39
2478.128, 11700.98
2480.056, 11705.63
2481.985, 11719.06
2483.913, 11733.47
2485.842, 11736.17
2487.770, 11748.47
2489.698, 11746.42
2491.627, 11763.30
2493.555, 11773.44
2495.484, 11778.39
2497.412, 11779.91
2499.341, 11779.96
2501.269, 11785.12
2503.198, 11795.04
2505.126, 11806.51
2507.055, 11818.89
2508.983, 11833.44
2510.912, 11849.66
2512.840, 11857.27
2514.769, 11854.83
2516.697, 11856.63
2518.625, 11866.32
2520.554, 11872.73
2522.482, 11868.00
2524.411, 11875.66
2526.339, 11906.36
2528.268, 11924.39
2530.196, 11921.50
2532.125, 11917.73
2534.053, 11914.38
2535.982, 11918.06
2537.910, 11937.80
2539.839, 11952.76
2541.767, 11954.54
2543.696, 11953.08
2545.624, 11946.45
2547.552, 11945.01
2549.481, 11954.90
2551.409, 11968.81
2553.338, 11990.34
2555.266, 12006.26
2557.195, 12000.65
2559.123, 11996.95
2561.052, 12016.46
2562.980, 12040.01
2564.909, 12049.35
2566.837, 12055.56
2568.766, 12067.98
2570.694, 12082.53
2572.623, 12096.27
2574.551, 12108.59
2576.479, 12118.41
2578.408, 12127.82
2580.336, 12143.60
2582.265, 12159.83
2584.193, 12159.04
2586.122, 12176.08
2588.050, 12168.64
2589.979, 12195.13
2591.907, 12208.27
2593.836, 12211.70
2595.764, 12218.80
2597.693, 12228.01
2599.621, 12234.86
2601.550, 12239.36
2603.478, 12237.60
2605.406, 12244.84
2607.335, 12248.02
2609.263, 12251.64
2611.192, 12258.05
2613.120, 12256.95
2615.049, 12261.24
2616.977, 12270.58
2618.906, 12284.24
2620.834, 12301.24
2622.763, 12311.68
2624.691, 12314.40
2626.620, 12327.16
2628.548, 12334.21
2630.477, 12339.72
2632.405, 12353.06
2634.333, 12352.23
2636.262, 12363.74
2638.190, 12372.25
2640.119, 12375.86
2642.047, 12379.85
2643.976, 12385.09
2645.904, 12386.53
2647.833, 12395.38
2649.761, 12403.01
2651.690, 12408.97
2653.618, 12417.98
2655.547, 12423.59
2657.475, 12432.92
2659.404, 12441.15
2661.332, 12445.61
2663.260, 12460.17
2665.189, 12458.74
2667.117, 12474.01
2669.046, 12482.40
2670.974, 12480.24
2672.903, 12476.12
2674.831, 12471.86
2676.760, 12468.07
2678.688, 12465.27
2680.617, 12464.16
2682.545, 12464.66
2684.474, 12470.86
2686.402, 12486.46
2688.331, 12495.37
2690.259, 12490.55
2692.188, 12490.46
2694.116, 12497.90
2696.044, 12509.65
2697.973, 12524.37
2699.901, 12545.49
2701.830, 12576.47
2703.758, 12597.53
2705.687, 12601.01
2707.615, 12601.22
2709.544, 12594.71
2711.472, 12594.78
2713.401, 12603.78
2715.329, 12613.81
2717.258, 12624.38
2719.186, 12635.42
2721.115, 12652.47
2723.043, 12659.03
2724.971, 12643.44
2726.900, 12644.49
2728.828, 12669.32
2730.757, 12691.03
2732.685, 12705.52
2734.614, 12712.02
2736.542, 12701.03
2738.471, 12703.43
2740.399, 12728.80
2742.328, 12744.42
2744.256, 12748.12
2746.185, 12746.34
2748.113, 12737.61
2750.042, 12742.91
2751.970, 12775.81
2753.898, 12791.80
2755.827, 12784.98
2757.755, 12782.14
2759.684, 12784.79
2761.612, 12791.51
2763.541, 12802.56
2765.469, 12815.55
2767.398, 12830.84
2769.326, 12843.36
2771.255, 12852.30
2773.183, 12859.08
2775.112, 12863.30
2777.040, 12868.03
2778.969, 12873.87
2780.897, 12877.01
2782.825, 12877.63
2784.754, 12879.62
2786.682, 12883.26
2788.611, 12892.18
2790.539, 12905.21
2792.468, 12909.26
2794.396, 12904.79
2796.325, 12896.24
2798.253, 12884.76
2800.182, 12881.29
2802.110, 12885.03
2804.039, 12894.56
2805.967, 12908.17
2807.896, 12923.11
2809.824, 12936.90
2811.752, 12937.88
2813.681, 12932.17
2815.609, 12936.36
2817.538, 12945.97
2819.466, 12951.56
2821.395, 12954.93
2823.323, 12958.16
2825.252, 12961.95
2827.180, 12969.57
2829.109, 12977.06
2831.037, 12981.25
2832.966, 12981.68
2834.894, 12976.53
2836.823, 12969.56
2838.751, 12961.83
2840.679, 12957.97
2842.608, 12965.58
2844.536, 12973.65
2846.465, 12971.18
2848.393, 12970.22
2850.322, 12984.89
2852.250, 12994.93
2854.179, 12983.65
2856.107, 12976.23
2858.036, 12985.00
2859.964, 12998.60
2861.893, 13014.51
2863.821, 13029.39
2865.750, 13040.58
2867.678, 13050.03
2869.606, 13056.82
2871.535, 13062.01
2873.463, 13066.41
2875.392, 13069.30
2877.320, 13072.94
2879.249, 13074.30
2881.177, 13073.60
2883.106, 13075.77
2885.034, 13080.16
2886.963, 13097.10
2888.891, 13100.48
2890.820, 13108.80
2892.748, 13122.04
2894.677, 13122.66
2896.605, 13141.95
2898.533, 13152.27
2900.462, 13155.66
2902.390, 13168.31
2904.319, 13187.40
2906.247, 13196.48
2908.176, 13199.17
2910.104, 13202.46
2912.033, 13206.90
2913.961, 13215.17
2915.890, 13224.47
2917.818, 13233.12
2919.747, 13237.96
2921.675, 13233.31
2923.604, 13226.91
2925.532, 13223.89
2927.460, 13224.90
2929.389, 13235.14
2931.317, 13243.10
2933.246, 13240.95
2935.174, 13239.11
2937.103, 13239.88
2939.031, 13246.22
2940.960, 13263.86
2942.888, 13274.31
2944.817, 13270.88
2946.745, 13270.00
2948.674, 13281.69
2950.602, 13281.31
2952.531, 13290.83
2954.459, 13301.63
2956.387, 13304.50
2958.316, 13325.10
2960.244, 13323.72
2962.173, 13333.80
2964.101, 13352.91
2966.030, 13351.12
2967.958, 13336.70
2969.887, 13340.96
2971.815, 13356.76
2973.744, 13364.87
2975.672, 13370.07
2977.601, 13376.88
2979.529, 13386.13
2981.458, 13399.14
2983.386, 13410.90
2985.314, 13416.36
2987.243, 13419.25
2989.171, 13422.48
2991.100, 13425.96
2993.028, 13433.64
2994.957, 13437.22
2996.885, 13430.59
2998.814, 13426.98
3000.742, 13431.69
3002.671, 13427.70
3004.599, 13409.47
3006.528, 13400.56
3008.456, 13406.06
3010.385, 13413.59
3012.313, 13422.58
3014.241, 13430.17
3016.170, 13436.17
3018.098, 13450.13
3020.027, 13449.20
3021.955, 13463.56
3023.884, 13451.26
3025.812, 13448.87
3027.741, 13451.42
3029.669, 13453.81
3031.598, 13456.15
3033.526, 13451.46
3035.455, 13455.11
3037.383, 13485.95
3039.312, 13507.46
3041.240, 13500.37
3043.168, 13483.28
3045.097, 13454.98
3047.025, 13440.79
3048.954, 13449.59
3050.882, 13455.94
3052.811, 13453.21
3054.739, 13456.68
3056.668, 13465.32
3058.596, 13479.15
3060.525, 13478.73
3062.453, 13493.92
3064.382, 13482.69
3066.310, 13478.81
3068.239, 13479.85
3070.167, 13481.23
3072.095, 13484.45
3074.024, 13494.91
3075.952, 13501.23
3077.881, 13486.56
3079.809, 13475.62
3081.738, 13485.10
3083.666, 13491.19
3085.595, 13486.62
3087.523, 13480.63
3089.452, 13473.32
3091.380, 13479.55
3093.309, 13482.69
3095.237, 13513.77
3097.166, 13508.28
3099.094, 13525.08
3101.022, 13554.64
3102.951, 13562.09
3104.879, 13555.32
3106.808, 13548.74
3108.736, 13543.29
3110.665, 13540.03
3112.593, 13539.98
3114.522, 13543.84
3116.450, 13551.69
3118.379, 13555.53
3120.307, 13579.00
3122.236, 13571.78
3124.164, 13572.39
3126.093, 13586.42
3128.021, 13608.92
3129.949, 13639.93
3131.878, 13661.63
3133.806, 13672.63
3135.735, 13671.49
3137.663, 13662.07
3139.592, 13657.24
3141.520, 13653.55
3143.449, 13639.81
3145.377, 13630.25
3147.306, 13645.75
3149.234, 13660.88
3151.163, 13658.18
3153.091, 13652.50
3155.020, 13641.82
3156.948, 13646.90
3158.876, 13650.29
3160.805, 13655.69
3162.733, 13671.65
3164.662, 13666.21
3166.590, 13681.35
3168.519, 13666.40
3170.447, 13682.41
3172.376, 13661.68
3174.304, 13705.78
3176.233, 13730.06
3178.161, 13742.06
3180.090, 13736.85
3182.018, 13739.38
3183.947, 13768.11
3185.875, 13790.12
3187.803, 13788.49
3189.732, 13789.75
3191.660, 13797.64
3193.589, 13794.86
3195.517, 13780.22
3197.446, 13772.96
3199.374, 13771.38
3201.303, 13767.57
3203.231, 13763.11
3205.160, 13764.06
3207.088, 13763.83
3209.017, 13753.39
3210.945, 13745.08
3212.874, 13742.50
3214.802, 13749.86
3216.730, 13771.88
3218.659, 13792.58
3220.587, 13809.47
3222.516, 13807.42
3224.444, 13814.92
3226.373, 13815.53
3228.301, 13807.66
3230.230, 13807.74
3232.158, 13797.10
3234.087, 13783.58
3236.015, 13773.34
3237.944, 13766.13
3239.872, 13771.91
3241.801, 13806.66
3243.729, 13820.96
3245.657, 13782.39
3247.586, 13760.44
3249.514, 13758.91
3251.443, 13755.26
3253.371, 13749.58
3255.300, 13747.50
3257.228, 13746.33
3259.157, 13734.56
3261.085, 13723.73
3263.014, 13724.61
3264.942, 13733.27
3266.871, 13758.29
3268.799, 13765.23
3270.728, 13734.25
3272.656, 13714.66
3274.584, 13714.54
3276.513, 13715.15
3278.441, 13715.92
3280.370, 13717.68
3282.298, 13718.85
3284.227, 13711.40
3286.155, 13704.74
3288.084, 13710.44
3290.012, 13718.40
3291.941, 13727.61
3293.869, 13723.87
3295.798, 13697.54
3297.726, 13685.41
3299.655, 13696.54
3301.583, 13708.24
3303.511, 13719.22
3305.440, 13715.05
3307.368, 13706.21
3309.297, 13719.95
3311.225, 13733.67
3313.154, 13719.28
3315.082, 13704.92
3317.011, 13704.53
3318.939, 13709.72
3320.868, 13720.65
3322.796, 13730.08
3324.725, 13736.58
3326.653, 13733.82
3328.582, 13725.18
3330.510, 13728.86
3332.438, 13738.96
3334.367, 13753.88
3336.295, 13763.57
3338.224, 13756.93
3340.152, 13749.88
3342.081, 13744.19
3344.009, 13745.03
3345.938, 13753.06
3347.866, 13761.21
3349.795, 13767.95
3351.723, 13766.31
3353.652, 13760.82
3355.580, 13757.31
3357.509, 13758.67
3359.437, 13768.36
3361.365, 13779.37
3363.294, 13786.89
3365.222, 13793.09
3367.151, 13796.61
3369.079, 13797.41
3371.008, 13795.96
3372.936, 13803.74
3374.865, 13802.37
3376.793, 13811.42
3378.722, 13805.12
3380.650, 13800.22
3382.579, 13801.34
3384.507, 13813.52
3386.436, 13819.24
3388.364, 13812.44
3390.292, 13804.13
3392.221, 13795.42
3394.149, 13794.88
3396.078, 13799.94
3398.006, 13805.38
3399.935, 13814.53
3401.863, 13821.15
3403.792, 13827.04
3405.720, 13840.42
3407.649, 13842.21
3409.577, 13857.16
3411.506, 13873.21
3413.434, 13888.42
3415.363, 13892.36
3417.291, 13893.86
3419.219, 13911.54
3421.148, 13923.32
3423.076, 13904.27
3425.005, 13890.87
3426.933, 13894.83
3428.862, 13885.92
3430.790, 13888.79
3432.719, 13891.67
3434.647, 13893.72
3436.576, 13898.65
3438.504, 13895.63
3440.433, 13894.40
3442.361, 13899.78
3444.290, 13902.54
3446.218, 13909.33
3448.146, 13917.70
3450.075, 13921.70
3452.003, 13924.00
3453.932, 13921.40
3455.860, 13921.23
3457.789, 13910.41
3459.717, 13900.25
3461.646, 13894.44
3463.574, 13887.74
3465.503, 13879.10
3467.431, 13872.06
3469.360, 13866.33
3471.288, 13867.42
3473.217, 13871.35
3475.145, 13871.49
3477.073, 13869.19
3479.002, 13867.17
3480.930, 13862.97
3482.859, 13865.57
3484.787, 13869.09
3486.716, 13871.75
3488.644, 13882.28
3490.573, 13888.62
3492.501, 13896.53
3494.430, 13898.29
3496.358, 13882.38
3498.287, 13864.29
3500.215, 13848.85
3502.144, 13843.46
3504.072, 13851.21
3506.000, 13858.43
3507.929, 13865.74
3509.857, 13872.18
3511.786, 13881.69
3513.714, 13907.59
3515.643, 13920.41
3517.571, 13891.08
3519.500, 13885.13
3521.428, 13909.77
3523.357, 13919.90
3525.285, 13917.23
3527.214, 13906.41
3529.142, 13899.16
3531.071, 13912.80
3532.999, 13923.24
3534.927, 13916.65
3536.856, 13915.97
3538.784, 13923.63
3540.713, 13906.68
3542.641, 13918.82
3544.570, 13899.62
3546.498, 13925.77
3548.427, 13915.58
3550.355, 13905.18
3552.284, 13905.88
3554.212, 13908.28
3556.141, 13911.74
3558.069, 13902.32
3559.998, 13888.53
3561.926, 13890.43
3563.854, 13895.91
3565.783, 13889.74
3567.711, 13894.13
3569.640, 13900.09
3571.568, 13904.83
3573.497, 13916.07
3575.425, 13921.54
3577.354, 13931.34
3579.282, 13937.45
3581.211, 13935.80
3583.139, 13921.01
3585.068, 13917.64
3586.996, 13934.68
3588.925, 13945.26
3590.853, 13950.04
3592.781, 13950.18
3594.710, 13954.11
3596.638, 13956.86
3598.567, 13998.18
3600.495, 13971.31
3602.424, 13969.84
3604.352, 13995.05
3606.281, 13972.33
3608.209, 13931.85
3610.138, 13932.02
3612.066, 13941.71
3613.995, 13944.63
3615.923, 13946.36
3617.852, 13949.45
3619.780, 13948.33
3621.708, 13944.00
3623.637, 13931.79
3625.565, 13928.57
3627.494, 13958.99
3629.422, 13984.52
3631.351, 13985.84
3633.279, 13987.40
3635.208, 13991.05
3637.136, 14004.44
3639.065, 14018.93
3640.993, 14017.76
3642.922, 14011.37
3644.850, 13999.57
3646.779, 13993.43
3648.707, 13993.57
3650.635, 14006.22
3652.564, 14002.25
3654.492, 14015.57
3656.421, 14006.86
3658.349, 14015.71
3660.278, 14018.87
3662.206, 14011.67
3664.135, 14012.14
3666.063, 14019.75
3667.992, 14031.78
3669.920, 14038.99
3671.849, 14024.18
3673.777, 14019.28
3675.706, 14037.34
3677.634, 14046.06
3679.563, 14045.29
3681.491, 14045.17
3683.419, 14044.61
3685.348, 14048.73
3687.276, 14054.19
3689.205, 14055.87
3691.133, 14066.38
3693.062, 14065.52
3694.990, 14063.52
3696.919, 14058.86
3698.847, 14044.51
3700.776, 14035.97
3702.704, 14043.02
3704.633, 14053.90
3706.561, 14066.57
3708.490, 14076.80
3710.418, 14079.86
3712.346, 14060.76
3714.275, 14044.96
3716.203, 14046.09
3718.132, 14058.75
3720.060, 14081.00
3721.989, 14079.43
3723.917, 14068.12
3725.846, 14068.59
3727.774, 14078.72
3729.703, 14106.17
3731.631, 14117.86
3733.560, 14111.39
3735.488, 14114.75
3737.417, 14117.79
3739.345, 14096.84
3741.273, 14079.06
3743.202, 14087.55
3745.130, 14085.50
3747.059, 14073.85
3748.987, 14071.41
3750.916, 14071.06
3752.844, 14052.72
3754.773, 14042.55
3756.701, 14053.93
3758.630, 14071.95
3760.558, 14092.40
3762.487, 14102.42
3764.415, 14102.69
3766.344, 14091.50
3768.272, 14079.67
3770.200, 14071.85
3772.129, 14075.01
3774.057, 14086.03
3775.986, 14074.38
3777.914, 14063.69
3779.843, 14083.09
3781.771, 14098.22
3783.700, 14089.38
3785.628, 14103.90
3787.557, 14126.31
3789.485, 14096.87
3791.414, 14064.65
3793.342, 14069.56
3795.271, 14084.52
3797.199, 14108.76
3799.127, 14102.61
3801.056, 14078.21
3802.984, 14059.88
3804.913, 14045.84
3806.841, 14032.53
3808.770, 14036.12
3810.698, 14034.72
3812.627, 14057.63
3814.555, 14051.29
3816.484, 14069.26
3818.412, 14085.63
3820.341, 14094.10
3822.269, 14069.22
3824.198, 14063.37
3826.126, 14016.76
3828.054, 14021.44
3829.983, 13991.34
3831.911, 13976.93
3833.840, 13990.65
3835.768, 14013.38
3837.697, 14033.99
3839.625, 14022.72
3841.554, 14004.33
3843.482, 13987.54
3845.411, 13987.29
3847.339, 14004.37
3849.268, 14003.44
3851.196, 13993.26
3853.125, 13981.59
3855.053, 13974.14
3856.981, 13970.79
3858.910, 13990.55
3860.838, 13985.18
3862.767, 14008.69
3864.695, 13990.56
3866.624, 13994.99
3868.552, 13990.79
3870.481, 13976.52
3872.409, 13990.13
3874.338, 14013.75
3876.266, 14024.19
3878.195, 14021.74
3880.123, 13998.63
3882.052, 13986.06
3883.980, 13984.03
3885.908, 13989.53
3887.837, 13998.58
3889.765, 14011.20
3891.694, 14013.28
3893.622, 14003.38
3895.551, 14013.91
3897.479, 14026.03
3899.408, 14001.48
3901.336, 13991.82
3903.265, 14016.98
3905.193, 14025.19
3907.122, 14020.05
3909.050, 14020.49
3910.979, 14020.64
3912.907, 14014.86
3914.835, 14020.13
3916.764, 14036.28
3918.692, 14038.92
3920.621, 14037.10
3922.549, 14043.33
3924.478, 14043.26
3926.406, 14035.38
3928.335, 14032.95
3930.263, 14035.21
3932.192, 14041.55
3934.120, 14041.70
3936.049, 14023.79
3937.977, 14019.64
3939.906, 14026.42
3941.834, 14035.04
3943.762, 14035.93
3945.691, 14039.52
3947.619, 14041.27
3949.548, 14038.57
3951.476, 14040.96
3953.405, 14035.52
3955.333, 14032.96
3957.262, 14032.80
3959.190, 14034.75
3961.119, 14047.50
3963.047, 14061.47
3964.976, 14052.44
3966.904, 14057.00
3968.833, 14059.47
3970.761, 14088.16
3972.689, 14063.76
3974.618, 14076.75
3976.546, 14083.53
3978.475, 14052.78
3980.403, 14039.13
3982.332, 14043.65
3984.260, 14041.94
3986.189, 14043.96
3988.117, 14045.19
3990.046, 14046.07
3991.974, 14047.97
3993.903, 14046.64
3995.831, 14045.10
3997.760, 14044.27
3999.688, 14037.04
4001.616, 14029.85
4003.545, 14020.28
4005.473, 14014.79
4007.402, 14030.41
4009.330, 14036.01
4011.259, 14021.52
4013.187, 14018.50
4015.116, 14021.07
4017.044, 14011.63
4018.973, 14009.93
4020.901, 14022.79
4022.830, 14027.22
4024.758, 14025.54
4026.687, 14034.36
4028.615, 14030.76
4030.543, 14020.88
4032.472, 14012.55
4034.400, 13994.38
4036.329, 13984.75
4038.257, 13972.23
4040.186, 13964.90
4042.114, 13961.90
4044.043, 13960.38
4045.971, 13941.83
4047.900, 13942.24
4049.828, 13943.76
4051.757, 13943.80
4053.685, 13956.16
4055.614, 13954.71
4057.542, 13963.72
4059.470, 13963.91
4061.399, 13961.84
4063.327, 13957.89
4065.256, 13948.58
4067.184, 13941.40
4069.113, 13941.45
4071.041, 13947.94
4072.970, 13957.13
4074.898, 13950.31
4076.827, 13940.47
4078.755, 13937.48
4080.684, 13934.84
4082.612, 13931.70
4084.541, 13923.98
4086.469, 13911.22
4088.397, 13887.11
4090.326, 13882.18
4092.254, 13896.96
4094.183, 13906.16
4096.111, 13910.34
4098.040, 13909.98
4099.968, 13896.26
4101.896, 13896.70
4103.825, 13892.21
4105.754, 13886.36
4107.682, 13887.23
4109.610, 13885.83
4111.539, 13883.58
4113.468, 13885.17
4115.396, 13881.81
4117.324, 13865.32
4119.253, 13859.56
4121.182, 13865.75
4123.110, 13886.19
4125.038, 13897.22
4126.967, 13878.46
4128.896, 13874.76
4130.824, 13885.68
4132.752, 13907.81
4134.681, 13919.43
4136.609, 13897.35
4138.538, 13896.13
4140.466, 13909.97
4142.395, 13925.93
4144.323, 13934.40
4146.251, 13930.20
4148.180, 13927.81
4150.108, 13928.45
4152.037, 13937.88
4153.965, 13937.63
4155.894, 13923.04
4157.822, 13926.63
4159.751, 13940.74
4161.679, 13958.39
4163.607, 13958.04
4165.536, 13964.38
4167.465, 13946.23
4169.393, 13961.36
4171.321, 13950.84
4173.250, 13944.47
4175.179, 13947.71
4177.107, 13947.49
4179.035, 13950.15
4180.964, 13962.27
4182.893, 13970.65
4184.821, 13973.02
4186.749, 13964.70
4188.678, 13957.59
4190.606, 13962.16
4192.535, 13959.86
4194.463, 13952.71
4196.392, 13948.44
4198.320, 13943.15
4200.249, 13936.75
4202.177, 13924.67
4204.105, 13913.80
4206.034, 13920.15
4207.962, 13911.69
4209.891, 13912.30
4211.819, 13914.34
4213.748, 13909.39
4215.676, 13923.75
4217.604, 13916.61
4219.533, 13933.06
4221.462, 13917.77
4223.390, 13937.10
4225.318, 13925.99
4227.247, 13904.90
4229.176, 13884.41
4231.104, 13885.03
4233.032, 13889.50
4234.961, 13889.44
4236.890, 13901.51
4238.818, 13911.38
4240.746, 13886.06
4242.675, 13856.56
##END=



