##NAMES=Parafransoletite
##RRUFFID=R130056
##IDEAL CHEMISTRY=Ca_3_Be_2_(PO_4_)_2_(PO_3_OH)_2_·4H_2_O
##LOCALITY=Tip Top mine, Custer, South Dakota, USA
##OWNER=RRUFF
##SOURCE=Thomas A. Loomis
##DESCRIPTION=White bladed crystals
##STATUS=The identification of this mineral has been confirmed only by single crystal X-ray diffraction
##URL=https://www.rruff.net/odr/rruff_sample/R130056
##DIFFRACTION SAMPLE DESCRIPTION=Single crystal, powder profile is calculated
##CELL PARAMETERS=a: 7.3406 b: 7.719 c: 7.077 alpha: 94.912 beta: 96.768 gamma: 101.86 volume: 387.2 crystal system: triclinic
##FILETYPE=Raman RAW
##RAMAN WAVELENGTH=780

7.826855e+001, 5.250467e+003
8.019702e+001, 4.965141e+003
8.212549e+001, 4.858818e+003
8.405396e+001, 4.983378e+003
8.598242e+001, 5.252667e+003
8.791089e+001, 5.564149e+003
8.983936e+001, 5.914004e+003
9.176782e+001, 6.240052e+003
9.369629e+001, 6.257430e+003
9.562476e+001, 5.931591e+003
9.755322e+001, 5.670137e+003
9.948169e+001, 5.466904e+003
1.014102e+002, 5.307554e+003
1.033386e+002, 5.180879e+003
1.052671e+002, 5.083418e+003
1.071956e+002, 5.015819e+003
1.091240e+002, 4.954385e+003
1.110525e+002, 4.891143e+003
1.129810e+002, 4.823375e+003
1.149094e+002, 4.743520e+003
1.168379e+002, 4.648658e+003
1.187664e+002, 4.565386e+003
1.206948e+002, 4.487795e+003
1.226233e+002, 4.428432e+003
1.245518e+002, 4.392608e+003
1.264802e+002, 4.374053e+003
1.284087e+002, 4.362524e+003
1.303372e+002, 4.357164e+003
1.322656e+002, 4.369006e+003
1.341941e+002, 4.411700e+003
1.361226e+002, 4.454442e+003
1.380510e+002, 4.493046e+003
1.399795e+002, 4.526698e+003
1.419080e+002, 4.552253e+003
1.438364e+002, 4.570299e+003
1.457649e+002, 4.596646e+003
1.476934e+002, 4.641580e+003
1.496218e+002, 4.682222e+003
1.515503e+002, 4.712153e+003
1.534788e+002, 4.738646e+003
1.554072e+002, 4.766512e+003
1.573357e+002, 4.795756e+003
1.592642e+002, 4.827494e+003
1.611926e+002, 4.871842e+003
1.631211e+002, 4.903935e+003
1.650496e+002, 4.915382e+003
1.669780e+002, 4.920560e+003
1.689065e+002, 4.916218e+003
1.708350e+002, 4.912012e+003
1.727634e+002, 4.945403e+003
1.746919e+002, 5.031815e+003
1.766204e+002, 5.133367e+003
1.785488e+002, 5.270918e+003
1.804773e+002, 5.396748e+003
1.824058e+002, 5.486149e+003
1.843342e+002, 5.548398e+003
1.862627e+002, 5.595742e+003
1.881912e+002, 5.626274e+003
1.901196e+002, 5.647862e+003
1.920481e+002, 5.677064e+003
1.939766e+002, 5.669786e+003
1.959050e+002, 5.599237e+003
1.978335e+002, 5.487277e+003
1.997620e+002, 5.337942e+003
2.016904e+002, 5.149935e+003
2.036189e+002, 4.991179e+003
2.055474e+002, 4.861458e+003
2.074758e+002, 4.756575e+003
2.094043e+002, 4.680066e+003
2.113328e+002, 4.625254e+003
2.132612e+002, 4.594282e+003
2.151897e+002, 4.581297e+003
2.171182e+002, 4.564613e+003
2.190466e+002, 4.543507e+003
2.209751e+002, 4.523102e+003
2.229036e+002, 4.504402e+003
2.248320e+002, 4.485395e+003
2.267605e+002, 4.463322e+003
2.286890e+002, 4.441276e+003
2.306174e+002, 4.426754e+003
2.325459e+002, 4.419416e+003
2.344744e+002, 4.398147e+003
2.364028e+002, 4.357793e+003
2.383313e+002, 4.318968e+003
2.402598e+002, 4.284563e+003
2.421882e+002, 4.258437e+003
2.441167e+002, 4.246000e+003
2.460452e+002, 4.244220e+003
2.479736e+002, 4.245113e+003
2.499021e+002, 4.249246e+003
2.518306e+002, 4.244358e+003
2.537590e+002, 4.223841e+003
2.556875e+002, 4.199378e+003
2.576160e+002, 4.176301e+003
2.595444e+002, 4.150606e+003
2.614729e+002, 4.115729e+003
2.634014e+002, 4.073740e+003
2.653298e+002, 4.034911e+003
2.672583e+002, 4.002030e+003
2.691868e+002, 3.964764e+003
2.711152e+002, 3.910026e+003
2.730437e+002, 3.863023e+003
2.749722e+002, 3.840152e+003
2.769006e+002, 3.831324e+003
2.788291e+002, 3.820493e+003
2.807576e+002, 3.807646e+003
2.826860e+002, 3.792225e+003
2.846145e+002, 3.768547e+003
2.865430e+002, 3.753121e+003
2.884714e+002, 3.757054e+003
2.903999e+002, 3.762163e+003
2.923284e+002, 3.751020e+003
2.942568e+002, 3.733562e+003
2.961853e+002, 3.730816e+003
2.981138e+002, 3.745044e+003
3.000422e+002, 3.752736e+003
3.019707e+002, 3.748365e+003
3.038992e+002, 3.740225e+003
3.058276e+002, 3.726997e+003
3.077561e+002, 3.713040e+003
3.096846e+002, 3.701323e+003
3.116130e+002, 3.691850e+003
3.135415e+002, 3.684548e+003
3.154700e+002, 3.678562e+003
3.173984e+002, 3.678615e+003
3.193269e+002, 3.695593e+003
3.212554e+002, 3.703346e+003
3.231838e+002, 3.688786e+003
3.251123e+002, 3.667340e+003
3.270408e+002, 3.652091e+003
3.289692e+002, 3.640403e+003
3.308977e+002, 3.623652e+003
3.328262e+002, 3.599189e+003
3.347546e+002, 3.576671e+003
3.366831e+002, 3.556146e+003
3.386116e+002, 3.537749e+003
3.405400e+002, 3.522855e+003
3.424685e+002, 3.509031e+003
3.443970e+002, 3.494065e+003
3.463254e+002, 3.478616e+003
3.482539e+002, 3.464390e+003
3.501824e+002, 3.449544e+003
3.521108e+002, 3.442797e+003
3.540393e+002, 3.449335e+003
3.559678e+002, 3.453395e+003
3.578962e+002, 3.447307e+003
3.598247e+002, 3.440324e+003
3.617532e+002, 3.435525e+003
3.636816e+002, 3.435285e+003
3.656101e+002, 3.447681e+003
3.675386e+002, 3.476358e+003
3.694670e+002, 3.496239e+003
3.713955e+002, 3.503375e+003
3.733240e+002, 3.513365e+003
3.752524e+002, 3.531414e+003
3.771809e+002, 3.552493e+003
3.791094e+002, 3.574267e+003
3.810378e+002, 3.596544e+003
3.829663e+002, 3.618271e+003
3.848948e+002, 3.639399e+003
3.868232e+002, 3.662735e+003
3.887517e+002, 3.685560e+003
3.906802e+002, 3.722315e+003
3.926086e+002, 3.779750e+003
3.945371e+002, 3.845755e+003
3.964656e+002, 3.921826e+003
3.983940e+002, 3.997524e+003
4.003225e+002, 4.066053e+003
4.022510e+002, 4.125538e+003
4.041794e+002, 4.169928e+003
4.061079e+002, 4.200652e+003
4.080364e+002, 4.201935e+003
4.099648e+002, 4.162572e+003
4.118933e+002, 4.116644e+003
4.138218e+002, 4.069184e+003
4.157502e+002, 4.026012e+003
4.176787e+002, 3.990161e+003
4.196072e+002, 3.961003e+003
4.215356e+002, 3.940043e+003
4.234641e+002, 3.925634e+003
4.253926e+002, 3.907057e+003
4.273210e+002, 3.882643e+003
4.292495e+002, 3.861012e+003
4.311780e+002, 3.840779e+003
4.331064e+002, 3.829058e+003
4.350349e+002, 3.825181e+003
4.369634e+002, 3.833323e+003
4.388918e+002, 3.864709e+003
4.408203e+002, 3.908705e+003
4.427488e+002, 3.945069e+003
4.446772e+002, 3.973342e+003
4.466057e+002, 3.985605e+003
4.485342e+002, 3.981829e+003
4.504626e+002, 3.958676e+003
4.523911e+002, 3.905919e+003
4.543196e+002, 3.848054e+003
4.562480e+002, 3.788106e+003
4.581765e+002, 3.732638e+003
4.601050e+002, 3.686694e+003
4.620334e+002, 3.650940e+003
4.639619e+002, 3.631220e+003
4.658904e+002, 3.628074e+003
4.678188e+002, 3.615859e+003
4.697473e+002, 3.585834e+003
4.716758e+002, 3.558434e+003
4.736042e+002, 3.533019e+003
4.755327e+002, 3.513758e+003
4.774612e+002, 3.503831e+003
4.793896e+002, 3.499460e+003
4.813181e+002, 3.496829e+003
4.832466e+002, 3.497187e+003
4.851750e+002, 3.504090e+003
4.871035e+002, 3.518032e+003
4.890320e+002, 3.533190e+003
4.909604e+002, 3.541781e+003
4.928889e+002, 3.564609e+003
4.948174e+002, 3.610661e+003
4.967458e+002, 3.659449e+003
4.986743e+002, 3.710429e+003
5.006028e+002, 3.754778e+003
5.025313e+002, 3.782202e+003
5.044597e+002, 3.801034e+003
5.063882e+002, 3.825800e+003
5.083167e+002, 3.856519e+003
5.102451e+002, 3.885875e+003
5.121736e+002, 3.919715e+003
5.141021e+002, 3.936410e+003
5.160305e+002, 3.931708e+003
5.179590e+002, 3.917047e+003
5.198875e+002, 3.884987e+003
5.218159e+002, 3.858488e+003
5.237444e+002, 3.855322e+003
5.256729e+002, 3.861487e+003
5.276013e+002, 3.861533e+003
5.295298e+002, 3.858155e+003
5.314583e+002, 3.862422e+003
5.333867e+002, 3.875818e+003
5.353152e+002, 3.887901e+003
5.372437e+002, 3.898542e+003
5.391721e+002, 3.908591e+003
5.411006e+002, 3.918185e+003
5.430291e+002, 3.926808e+003
5.449575e+002, 3.926520e+003
5.468860e+002, 3.933530e+003
5.488145e+002, 3.956857e+003
5.507429e+002, 3.994270e+003
5.526714e+002, 4.050991e+003
5.545999e+002, 4.120823e+003
5.565283e+002, 4.171824e+003
5.584568e+002, 4.205335e+003
5.603853e+002, 4.202704e+003
5.623137e+002, 4.156851e+003
5.642422e+002, 4.100340e+003
5.661707e+002, 4.036275e+003
5.680991e+002, 3.971775e+003
5.700276e+002, 3.907836e+003
5.719561e+002, 3.846062e+003
5.738845e+002, 3.792127e+003
5.758130e+002, 3.737770e+003
5.777415e+002, 3.663930e+003
5.796699e+002, 3.579597e+003
5.815984e+002, 3.518640e+003
5.835269e+002, 3.479714e+003
5.854553e+002, 3.444262e+003
5.873838e+002, 3.408849e+003
5.893123e+002, 3.386194e+003
5.912407e+002, 3.385621e+003
5.931692e+002, 3.387038e+003
5.950977e+002, 3.388187e+003
5.970261e+002, 3.386695e+003
5.989546e+002, 3.379528e+003
6.008831e+002, 3.370786e+003
6.028115e+002, 3.369709e+003
6.047400e+002, 3.367881e+003
6.066685e+002, 3.347860e+003
6.085969e+002, 3.312292e+003
6.105254e+002, 3.273135e+003
6.124539e+002, 3.229843e+003
6.143823e+002, 3.193908e+003
6.163108e+002, 3.171464e+003
6.182393e+002, 3.146444e+003
6.201677e+002, 3.112487e+003
6.220962e+002, 3.082366e+003
6.240247e+002, 3.060919e+003
6.259531e+002, 3.043910e+003
6.278816e+002, 3.030260e+003
6.298101e+002, 3.018278e+003
6.317385e+002, 3.005509e+003
6.336670e+002, 2.993204e+003
6.355955e+002, 2.984515e+003
6.375239e+002, 2.979125e+003
6.394524e+002, 2.972767e+003
6.413809e+002, 2.965518e+003
6.433093e+002, 2.956590e+003
6.452378e+002, 2.942889e+003
6.471663e+002, 2.932897e+003
6.490947e+002, 2.930926e+003
6.510232e+002, 2.926642e+003
6.529517e+002, 2.913036e+003
6.548801e+002, 2.901457e+003
6.568086e+002, 2.901842e+003
6.587371e+002, 2.903657e+003
6.606655e+002, 2.897769e+003
6.625940e+002, 2.887323e+003
6.645225e+002, 2.876037e+003
6.664509e+002, 2.864875e+003
6.683794e+002, 2.860114e+003
6.703079e+002, 2.863103e+003
6.722363e+002, 2.859156e+003
6.741648e+002, 2.845287e+003
6.760933e+002, 2.837382e+003
6.780217e+002, 2.839006e+003
6.799502e+002, 2.838542e+003
6.818787e+002, 2.832480e+003
6.838071e+002, 2.825527e+003
6.857356e+002, 2.821331e+003
6.876641e+002, 2.814208e+003
6.895925e+002, 2.795153e+003
6.915210e+002, 2.777841e+003
6.934495e+002, 2.779501e+003
6.953779e+002, 2.788410e+003
6.973064e+002, 2.784057e+003
6.992349e+002, 2.769671e+003
7.011633e+002, 2.756384e+003
7.030918e+002, 2.744460e+003
7.050203e+002, 2.739989e+003
7.069487e+002, 2.743794e+003
7.088772e+002, 2.739145e+003
7.108057e+002, 2.721859e+003
7.127341e+002, 2.711130e+003
7.146626e+002, 2.715288e+003
7.165911e+002, 2.715172e+003
7.185195e+002, 2.697202e+003
7.204480e+002, 2.684586e+003
7.223765e+002, 2.689850e+003
7.243049e+002, 2.698264e+003
7.262334e+002, 2.702801e+003
7.281619e+002, 2.703492e+003
7.300903e+002, 2.697418e+003
7.320188e+002, 2.689352e+003
7.339473e+002, 2.688968e+003
7.358757e+002, 2.693198e+003
7.378042e+002, 2.692624e+003
7.397327e+002, 2.688098e+003
7.416611e+002, 2.683327e+003
7.435896e+002, 2.678529e+003
7.455181e+002, 2.678593e+003
7.474465e+002, 2.685764e+003
7.493750e+002, 2.687878e+003
7.513035e+002, 2.680275e+003
7.532319e+002, 2.673766e+003
7.551604e+002, 2.669164e+003
7.570889e+002, 2.667216e+003
7.590173e+002, 2.671247e+003
7.609458e+002, 2.673630e+003
7.628743e+002, 2.668912e+003
7.648027e+002, 2.663870e+003
7.667312e+002, 2.662624e+003
7.686597e+002, 2.664045e+003
7.705881e+002, 2.669687e+003
7.725166e+002, 2.675217e+003
7.744451e+002, 2.673364e+003
7.763735e+002, 2.667566e+003
7.783020e+002, 2.667539e+003
7.802305e+002, 2.670794e+003
7.821589e+002, 2.662831e+003
7.840874e+002, 2.642914e+003
7.860159e+002, 2.625315e+003
7.879443e+002, 2.608813e+003
7.898728e+002, 2.600673e+003
7.918013e+002, 2.605392e+003
7.937297e+002, 2.610568e+003
7.956582e+002, 2.620318e+003
7.975867e+002, 2.622322e+003
7.995151e+002, 2.608172e+003
8.014436e+002, 2.599980e+003
8.033721e+002, 2.609865e+003
8.053005e+002, 2.615118e+003
8.072290e+002, 2.602295e+003
8.091575e+002, 2.587587e+003
8.110859e+002, 2.575689e+003
8.130144e+002, 2.571284e+003
8.149429e+002, 2.585840e+003
8.168713e+002, 2.600922e+003
8.187998e+002, 2.596679e+003
8.207283e+002, 2.583630e+003
8.226567e+002, 2.575383e+003
8.245852e+002, 2.570624e+003
8.265137e+002, 2.566488e+003
8.284421e+002, 2.563087e+003
8.303706e+002, 2.561449e+003
8.322991e+002, 2.561205e+003
8.342275e+002, 2.558805e+003
8.361560e+002, 2.554203e+003
8.380845e+002, 2.550563e+003
8.400129e+002, 2.548158e+003
8.419414e+002, 2.542624e+003
8.438699e+002, 2.533027e+003
8.457983e+002, 2.528303e+003
8.477268e+002, 2.530488e+003
8.496553e+002, 2.532596e+003
8.515837e+002, 2.534896e+003
8.535122e+002, 2.529844e+003
8.554407e+002, 2.509778e+003
8.573691e+002, 2.496225e+003
8.592976e+002, 2.500505e+003
8.612261e+002, 2.504024e+003
8.631545e+002, 2.500043e+003
8.650830e+002, 2.494948e+003
8.670115e+002, 2.490349e+003
8.689399e+002, 2.486695e+003
8.708684e+002, 2.485756e+003
8.727969e+002, 2.484018e+003
8.747253e+002, 2.478700e+003
8.766538e+002, 2.471563e+003
8.785823e+002, 2.461618e+003
8.805107e+002, 2.453336e+003
8.824392e+002, 2.453989e+003
8.843677e+002, 2.458344e+003
8.862961e+002, 2.458877e+003
8.882246e+002, 2.457407e+003
8.901531e+002, 2.457878e+003
8.920815e+002, 2.458574e+003
8.940100e+002, 2.452541e+003
8.959385e+002, 2.444367e+003
8.978669e+002, 2.450143e+003
8.997954e+002, 2.466327e+003
9.017239e+002, 2.473876e+003
9.036523e+002, 2.474283e+003
9.055808e+002, 2.486012e+003
9.075093e+002, 2.509737e+003
9.094377e+002, 2.540337e+003
9.113662e+002, 2.578137e+003
9.132947e+002, 2.618345e+003
9.152231e+002, 2.661032e+003
9.171516e+002, 2.705647e+003
9.190801e+002, 2.754468e+003
9.210085e+002, 2.798683e+003
9.229370e+002, 2.826242e+003
9.248655e+002, 2.873058e+003
9.267939e+002, 2.940871e+003
9.287224e+002, 3.024791e+003
9.306509e+002, 3.125999e+003
9.325793e+002, 3.240464e+003
9.345078e+002, 3.371734e+003
9.364363e+002, 3.508566e+003
9.383647e+002, 3.663163e+003
9.402932e+002, 3.791746e+003
9.422217e+002, 3.895209e+003
9.441501e+002, 3.944172e+003
9.460786e+002, 3.927004e+003
9.480071e+002, 3.857582e+003
9.499355e+002, 3.726577e+003
9.518640e+002, 3.573092e+003
9.537925e+002, 3.396671e+003
9.557209e+002, 3.234182e+003
9.576494e+002, 3.101991e+003
9.595779e+002, 2.989376e+003
9.615063e+002, 2.888961e+003
9.634348e+002, 2.810049e+003
9.653633e+002, 2.757019e+003
9.672917e+002, 2.728149e+003
9.692202e+002, 2.729430e+003
9.711487e+002, 2.745041e+003
9.730771e+002, 2.768362e+003
9.750056e+002, 2.798552e+003
9.769341e+002, 2.835714e+003
9.788625e+002, 2.878443e+003
9.807910e+002, 2.916622e+003
9.827195e+002, 2.970522e+003
9.846479e+002, 3.055148e+003
9.865764e+002, 3.165730e+003
9.885049e+002, 3.303011e+003
9.904333e+002, 3.458812e+003
9.923618e+002, 3.638882e+003
9.942903e+002, 3.818816e+003
9.962188e+002, 3.992128e+003
9.981472e+002, 4.130776e+003
1.000076e+003, 4.214931e+003
1.002004e+003, 4.235294e+003
1.003933e+003, 4.168923e+003
1.005861e+003, 4.044350e+003
1.007790e+003, 3.873199e+003
1.009718e+003, 3.686235e+003
1.011646e+003, 3.515321e+003
1.013575e+003, 3.358505e+003
1.015503e+003, 3.212662e+003
1.017432e+003, 3.079634e+003
1.019360e+003, 2.960781e+003
1.021289e+003, 2.857425e+003
1.023217e+003, 2.773810e+003
1.025146e+003, 2.705122e+003
1.027074e+003, 2.647450e+003
1.029003e+003, 2.598605e+003
1.030931e+003, 2.556734e+003
1.032860e+003, 2.520788e+003
1.034788e+003, 2.490009e+003
1.036717e+003, 2.463436e+003
1.038645e+003, 2.436529e+003
1.040573e+003, 2.415781e+003
1.042502e+003, 2.409787e+003
1.044430e+003, 2.414800e+003
1.046359e+003, 2.427175e+003
1.048287e+003, 2.446724e+003
1.050216e+003, 2.472694e+003
1.052144e+003, 2.506477e+003
1.054073e+003, 2.555177e+003
1.056001e+003, 2.607856e+003
1.057930e+003, 2.658945e+003
1.059858e+003, 2.699054e+003
1.061787e+003, 2.723348e+003
1.063715e+003, 2.724041e+003
1.065644e+003, 2.682561e+003
1.067572e+003, 2.622383e+003
1.069500e+003, 2.563769e+003
1.071429e+003, 2.505353e+003
1.073357e+003, 2.439687e+003
1.075286e+003, 2.380517e+003
1.077214e+003, 2.341257e+003
1.079143e+003, 2.315415e+003
1.081071e+003, 2.302259e+003
1.083000e+003, 2.293959e+003
1.084928e+003, 2.283148e+003
1.086857e+003, 2.275220e+003
1.088785e+003, 2.276330e+003
1.090714e+003, 2.279577e+003
1.092642e+003, 2.277347e+003
1.094571e+003, 2.278458e+003
1.096499e+003, 2.293098e+003
1.098427e+003, 2.307182e+003
1.100356e+003, 2.313602e+003
1.102284e+003, 2.314423e+003
1.104213e+003, 2.308761e+003
1.106141e+003, 2.300642e+003
1.108070e+003, 2.293985e+003
1.109998e+003, 2.282431e+003
1.111927e+003, 2.261636e+003
1.113855e+003, 2.237821e+003
1.115784e+003, 2.207978e+003
1.117712e+003, 2.184470e+003
1.119641e+003, 2.172841e+003
1.121569e+003, 2.165379e+003
1.123498e+003, 2.159152e+003
1.125426e+003, 2.158658e+003
1.127354e+003, 2.169006e+003
1.129283e+003, 2.176223e+003
1.131211e+003, 2.175305e+003
1.133140e+003, 2.176258e+003
1.135068e+003, 2.182642e+003
1.136997e+003, 2.186066e+003
1.138925e+003, 2.186837e+003
1.140854e+003, 2.178617e+003
1.142782e+003, 2.158217e+003
1.144711e+003, 2.138843e+003
1.146639e+003, 2.121408e+003
1.148568e+003, 2.108591e+003
1.150496e+003, 2.102107e+003
1.152425e+003, 2.085599e+003
1.154353e+003, 2.056821e+003
1.156281e+003, 2.041980e+003
1.158210e+003, 2.042090e+003
1.160138e+003, 2.038729e+003
1.162067e+003, 2.031370e+003
1.163995e+003, 2.020460e+003
1.165924e+003, 2.007377e+003
1.167852e+003, 2.002386e+003
1.169781e+003, 2.004138e+003
1.171709e+003, 2.007113e+003
1.173638e+003, 2.010929e+003
1.175566e+003, 2.015583e+003
1.177495e+003, 2.019448e+003
1.179423e+003, 2.017795e+003
1.181352e+003, 2.013747e+003
1.183280e+003, 2.011647e+003
1.185208e+003, 2.010728e+003
1.187137e+003, 2.010072e+003
1.189065e+003, 2.009807e+003
1.190994e+003, 2.014101e+003
1.192922e+003, 2.013365e+003
1.194851e+003, 1.995511e+003
1.196779e+003, 1.978172e+003
1.198708e+003, 1.973483e+003
1.200636e+003, 1.969946e+003
1.202565e+003, 1.962581e+003
1.204493e+003, 1.953660e+003
1.206422e+003, 1.942539e+003
1.208350e+003, 1.933937e+003
1.210279e+003, 1.929321e+003
1.212207e+003, 1.927749e+003
1.214135e+003, 1.931435e+003
1.216064e+003, 1.923743e+003
1.217992e+003, 1.898826e+003
1.219921e+003, 1.886046e+003
1.221849e+003, 1.890184e+003
1.223778e+003, 1.890758e+003
1.225706e+003, 1.886243e+003
1.227635e+003, 1.885087e+003
1.229563e+003, 1.886866e+003
1.231492e+003, 1.879053e+003
1.233420e+003, 1.864960e+003
1.235349e+003, 1.866884e+003
1.237277e+003, 1.877143e+003
1.239206e+003, 1.871452e+003
1.241134e+003, 1.858422e+003
1.243063e+003, 1.854699e+003
1.244991e+003, 1.855006e+003
1.246919e+003, 1.853195e+003
1.248848e+003, 1.850011e+003
1.250776e+003, 1.844558e+003
1.252705e+003, 1.840384e+003
1.254633e+003, 1.842456e+003
1.256562e+003, 1.843117e+003
1.258490e+003, 1.834866e+003
1.260419e+003, 1.830030e+003
1.262347e+003, 1.836074e+003
1.264276e+003, 1.840520e+003
1.266204e+003, 1.840781e+003
1.268133e+003, 1.839123e+003
1.270061e+003, 1.834864e+003
1.271990e+003, 1.831929e+003
1.273918e+003, 1.831042e+003
1.275846e+003, 1.827045e+003
1.277775e+003, 1.819777e+003
1.279703e+003, 1.817735e+003
1.281632e+003, 1.820541e+003
1.283560e+003, 1.825695e+003
1.285489e+003, 1.831769e+003
1.287417e+003, 1.835466e+003
1.289346e+003, 1.836286e+003
1.291274e+003, 1.829536e+003
1.293203e+003, 1.823703e+003
1.295131e+003, 1.832115e+003
1.297060e+003, 1.839106e+003
1.298988e+003, 1.830019e+003
1.300917e+003, 1.820755e+003
1.302845e+003, 1.820917e+003
1.304773e+003, 1.820374e+003
1.306702e+003, 1.815358e+003
1.308630e+003, 1.809140e+003
1.310559e+003, 1.800674e+003
1.312487e+003, 1.799717e+003
1.314416e+003, 1.810843e+003
1.316344e+003, 1.808005e+003
1.318273e+003, 1.788248e+003
1.320201e+003, 1.792475e+003
1.322130e+003, 1.815686e+003
1.324058e+003, 1.818306e+003
1.325987e+003, 1.807461e+003
1.327915e+003, 1.802418e+003
1.329844e+003, 1.800302e+003
1.331772e+003, 1.795935e+003
1.333700e+003, 1.792685e+003
1.335629e+003, 1.796391e+003
1.337557e+003, 1.798987e+003
1.339486e+003, 1.795629e+003
1.341414e+003, 1.789358e+003
1.343343e+003, 1.777711e+003
1.345271e+003, 1.774022e+003
1.347200e+003, 1.783464e+003
1.349128e+003, 1.788887e+003
1.351057e+003, 1.787806e+003
1.352985e+003, 1.783335e+003
1.354914e+003, 1.776356e+003
1.356842e+003, 1.774139e+003
1.358771e+003, 1.774405e+003
1.360699e+003, 1.765410e+003
1.362627e+003, 1.753113e+003
1.364556e+003, 1.748406e+003
1.366484e+003, 1.748154e+003
1.368413e+003, 1.750637e+003
1.370341e+003, 1.753093e+003
1.372270e+003, 1.753582e+003
1.374198e+003, 1.753278e+003
1.376127e+003, 1.753378e+003
1.378055e+003, 1.751170e+003
1.379984e+003, 1.743755e+003
1.381912e+003, 1.741254e+003
1.383841e+003, 1.745160e+003
1.385769e+003, 1.747977e+003
1.387698e+003, 1.748997e+003
1.389626e+003, 1.739825e+003
1.391554e+003, 1.726852e+003
1.393483e+003, 1.734844e+003
1.395411e+003, 1.748837e+003
1.397340e+003, 1.746027e+003
1.399268e+003, 1.738691e+003
1.401197e+003, 1.737370e+003
1.403125e+003, 1.734751e+003
1.405054e+003, 1.724437e+003
1.406982e+003, 1.717464e+003
1.408911e+003, 1.715492e+003
1.410839e+003, 1.722434e+003
1.412768e+003, 1.744836e+003
1.414696e+003, 1.750754e+003
1.416625e+003, 1.740494e+003
1.418553e+003, 1.731101e+003
1.420481e+003, 1.723267e+003
1.422410e+003, 1.720576e+003
1.424338e+003, 1.720123e+003
1.426267e+003, 1.718891e+003
1.428195e+003, 1.715947e+003
1.430124e+003, 1.709517e+003
1.432052e+003, 1.703671e+003
1.433981e+003, 1.699478e+003
1.435909e+003, 1.699128e+003
1.437838e+003, 1.704437e+003
1.439766e+003, 1.703446e+003
1.441695e+003, 1.694623e+003
1.443623e+003, 1.690222e+003
1.445552e+003, 1.690364e+003
1.447480e+003, 1.697784e+003
1.449408e+003, 1.705833e+003
1.451337e+003, 1.699139e+003
1.453265e+003, 1.688908e+003
1.455194e+003, 1.686828e+003
1.457122e+003, 1.684329e+003
1.459051e+003, 1.674435e+003
1.460979e+003, 1.670645e+003
1.462908e+003, 1.677912e+003
1.464836e+003, 1.678338e+003
1.466765e+003, 1.670352e+003
1.468693e+003, 1.668769e+003
1.470622e+003, 1.671266e+003
1.472550e+003, 1.660752e+003
1.474479e+003, 1.647026e+003
1.476407e+003, 1.648424e+003
1.478335e+003, 1.653674e+003
1.480264e+003, 1.655088e+003
1.482192e+003, 1.652162e+003
1.484121e+003, 1.639582e+003
1.486049e+003, 1.633347e+003
1.487978e+003, 1.638520e+003
1.489906e+003, 1.637051e+003
1.491835e+003, 1.628493e+003
1.493763e+003, 1.625522e+003
1.495692e+003, 1.627266e+003
1.497620e+003, 1.631890e+003
1.499549e+003, 1.636558e+003
1.501477e+003, 1.638222e+003
1.503406e+003, 1.638082e+003
1.505334e+003, 1.638398e+003
1.507262e+003, 1.634370e+003
1.509191e+003, 1.621235e+003
1.511119e+003, 1.612369e+003
1.513048e+003, 1.609467e+003
1.514976e+003, 1.604830e+003
1.516905e+003, 1.599268e+003
1.518833e+003, 1.596789e+003
1.520762e+003, 1.596906e+003
1.522690e+003, 1.600593e+003
1.524619e+003, 1.603641e+003
1.526547e+003, 1.602574e+003
1.528476e+003, 1.602109e+003
1.530404e+003, 1.605764e+003
1.532333e+003, 1.600589e+003
1.534261e+003, 1.582758e+003
1.536189e+003, 1.580233e+003
1.538118e+003, 1.589085e+003
1.540046e+003, 1.583959e+003
1.541975e+003, 1.574681e+003
1.543903e+003, 1.580673e+003
1.545832e+003, 1.585253e+003
1.547760e+003, 1.573580e+003
1.549689e+003, 1.565976e+003
1.551617e+003, 1.568882e+003
1.553546e+003, 1.571254e+003
1.555474e+003, 1.571549e+003
1.557403e+003, 1.572086e+003
1.559331e+003, 1.572080e+003
1.561260e+003, 1.567126e+003
1.563188e+003, 1.561417e+003
1.565116e+003, 1.560046e+003
1.567045e+003, 1.561029e+003
1.568973e+003, 1.568323e+003
1.570902e+003, 1.565226e+003
1.572830e+003, 1.546399e+003
1.574759e+003, 1.539347e+003
1.576687e+003, 1.544076e+003
1.578616e+003, 1.542967e+003
1.580544e+003, 1.539111e+003
1.582473e+003, 1.541117e+003
1.584401e+003, 1.542681e+003
1.586330e+003, 1.536851e+003
1.588258e+003, 1.531465e+003
1.590187e+003, 1.529772e+003
1.592115e+003, 1.528724e+003
1.594043e+003, 1.528141e+003
1.595972e+003, 1.525100e+003
1.597900e+003, 1.520927e+003
1.599829e+003, 1.521660e+003
1.601757e+003, 1.522818e+003
1.603686e+003, 1.519638e+003
1.605614e+003, 1.514753e+003
1.607543e+003, 1.507961e+003
1.609471e+003, 1.503164e+003
1.611400e+003, 1.500813e+003
1.613328e+003, 1.503131e+003
1.615257e+003, 1.508241e+003
1.617185e+003, 1.503502e+003
1.619114e+003, 1.494079e+003
1.621042e+003, 1.483177e+003
1.622970e+003, 1.478207e+003
1.624899e+003, 1.488153e+003
1.626827e+003, 1.487212e+003
1.628756e+003, 1.464948e+003
1.630684e+003, 1.463424e+003
1.632613e+003, 1.478634e+003
1.634541e+003, 1.479564e+003
1.636470e+003, 1.471633e+003
1.638398e+003, 1.459064e+003
1.640327e+003, 1.447675e+003
1.642255e+003, 1.439392e+003
1.644184e+003, 1.436894e+003
1.646112e+003, 1.441390e+003
1.648041e+003, 1.438804e+003
1.649969e+003, 1.431160e+003
1.651897e+003, 1.432059e+003
1.653826e+003, 1.437271e+003
1.655754e+003, 1.448572e+003
1.657683e+003, 1.447386e+003
1.659611e+003, 1.419555e+003
1.661540e+003, 1.402930e+003
1.663468e+003, 1.403263e+003
1.665397e+003, 1.406773e+003
1.667325e+003, 1.411076e+003
1.669254e+003, 1.413067e+003
1.671182e+003, 1.411476e+003
1.673111e+003, 1.401199e+003
1.675039e+003, 1.393627e+003
1.676968e+003, 1.392924e+003
1.678896e+003, 1.395398e+003
1.680824e+003, 1.399799e+003
1.682753e+003, 1.393252e+003
1.684681e+003, 1.382565e+003
1.686610e+003, 1.383808e+003
1.688538e+003, 1.385429e+003
1.690467e+003, 1.375772e+003
1.692395e+003, 1.370868e+003
1.694324e+003, 1.376079e+003
1.696252e+003, 1.377008e+003
1.698181e+003, 1.373722e+003
1.700109e+003, 1.367995e+003
1.702038e+003, 1.361533e+003
1.703966e+003, 1.355524e+003
1.705895e+003, 1.350945e+003
1.707823e+003, 1.348561e+003
1.709751e+003, 1.347330e+003
1.711680e+003, 1.347393e+003
1.713608e+003, 1.345322e+003
1.715537e+003, 1.340534e+003
1.717465e+003, 1.326456e+003
1.719394e+003, 1.317585e+003
1.721322e+003, 1.328125e+003
1.723251e+003, 1.329677e+003
1.725179e+003, 1.311755e+003
1.727108e+003, 1.308326e+003
1.729036e+003, 1.315807e+003
1.730965e+003, 1.318029e+003
1.732893e+003, 1.317282e+003
1.734822e+003, 1.316331e+003
1.736750e+003, 1.311998e+003
1.738678e+003, 1.302925e+003
1.740607e+003, 1.291797e+003
1.742535e+003, 1.280633e+003
1.744464e+003, 1.284545e+003
1.746392e+003, 1.292034e+003
1.748321e+003, 1.285372e+003
1.750249e+003, 1.277765e+003
1.752178e+003, 1.274024e+003
1.754106e+003, 1.270702e+003
1.756035e+003, 1.267229e+003
1.757963e+003, 1.263721e+003
1.759892e+003, 1.259657e+003
1.761820e+003, 1.250620e+003
1.763749e+003, 1.247390e+003
1.765677e+003, 1.260556e+003
1.767605e+003, 1.263080e+003
1.769534e+003, 1.252970e+003
1.771462e+003, 1.248979e+003
1.773391e+003, 1.248271e+003
1.775319e+003, 1.244221e+003
1.777248e+003, 1.239844e+003
1.779176e+003, 1.236433e+003
1.781105e+003, 1.235294e+003
1.783033e+003, 1.236519e+003
1.784962e+003, 1.235998e+003
1.786890e+003, 1.233654e+003
1.788819e+003, 1.230906e+003
1.790747e+003, 1.224736e+003
1.792676e+003, 1.207010e+003
1.794604e+003, 1.201308e+003
1.796532e+003, 1.210900e+003
1.798461e+003, 1.209819e+003
1.800389e+003, 1.203462e+003
1.802318e+003, 1.203580e+003
1.804246e+003, 1.203268e+003
1.806175e+003, 1.198239e+003
1.808103e+003, 1.192867e+003
1.810032e+003, 1.187679e+003
1.811960e+003, 1.189036e+003
1.813889e+003, 1.191133e+003
1.815817e+003, 1.179430e+003
1.817746e+003, 1.172259e+003
1.819674e+003, 1.180477e+003
1.821603e+003, 1.182189e+003
1.823531e+003, 1.175158e+003
1.825459e+003, 1.165427e+003
1.827388e+003, 1.157363e+003
1.829316e+003, 1.159925e+003
1.831245e+003, 1.162256e+003
1.833173e+003, 1.161087e+003
1.835102e+003, 1.158403e+003
1.837030e+003, 1.154956e+003
1.838959e+003, 1.154223e+003
1.840887e+003, 1.152303e+003
1.842816e+003, 1.139694e+003
1.844744e+003, 1.137242e+003
1.846673e+003, 1.150234e+003
1.848601e+003, 1.150162e+003
1.850530e+003, 1.139731e+003
1.852458e+003, 1.130127e+003
1.854386e+003, 1.122919e+003
1.856315e+003, 1.120631e+003
1.858243e+003, 1.117980e+003
1.860172e+003, 1.114418e+003
1.862100e+003, 1.111899e+003
1.864029e+003, 1.109737e+003
1.865957e+003, 1.107039e+003
1.867886e+003, 1.103352e+003
1.869814e+003, 1.098699e+003
1.871743e+003, 1.090382e+003
1.873671e+003, 1.080268e+003
1.875600e+003, 1.080677e+003
1.877528e+003, 1.084316e+003
1.879457e+003, 1.085562e+003
1.881385e+003, 1.084293e+003
1.883313e+003, 1.080330e+003
1.885242e+003, 1.076534e+003
1.887170e+003, 1.072317e+003
1.889099e+003, 1.063856e+003
1.891027e+003, 1.058438e+003
1.892956e+003, 1.062198e+003
1.894884e+003, 1.065545e+003
1.896813e+003, 1.067351e+003
1.898741e+003, 1.060814e+003
1.900670e+003, 1.053180e+003
1.902598e+003, 1.051921e+003
1.904527e+003, 1.052572e+003
1.906455e+003, 1.055159e+003
1.908384e+003, 1.046732e+003
1.910312e+003, 1.033402e+003
1.912240e+003, 1.031514e+003
1.914169e+003, 1.032346e+003
1.916097e+003, 1.032365e+003
1.918026e+003, 1.029947e+003
1.919954e+003, 1.025570e+003
1.921883e+003, 1.024844e+003
1.923811e+003, 1.023191e+003
1.925740e+003, 1.014359e+003
1.927668e+003, 1.009578e+003
1.929597e+003, 1.010988e+003
1.931525e+003, 1.003071e+003
1.933454e+003, 9.935726e+002
1.935382e+003, 1.002507e+003
1.937311e+003, 1.004484e+003
1.939239e+003, 9.893694e+002
1.941167e+003, 9.857382e+002
1.943096e+003, 9.901940e+002
1.945024e+003, 9.819156e+002
1.946953e+003, 9.724064e+002
1.948881e+003, 9.692778e+002
1.950810e+003, 9.698384e+002
1.952738e+003, 9.724127e+002
1.954667e+003, 9.653604e+002
1.956595e+003, 9.579058e+002
1.958524e+003, 9.606655e+002
1.960452e+003, 9.653008e+002
1.962381e+003, 9.701965e+002
1.964309e+003, 9.665278e+002
1.966238e+003, 9.607990e+002
1.968166e+003, 9.657844e+002
1.970094e+003, 9.670500e+002
1.972023e+003, 9.571945e+002
1.973951e+003, 9.545171e+002
1.975880e+003, 9.559001e+002
1.977808e+003, 9.549949e+002
1.979737e+003, 9.490226e+002
1.981665e+003, 9.305742e+002
1.983594e+003, 9.284322e+002
1.985522e+003, 9.381594e+002
1.987451e+003, 9.361476e+002
1.989379e+003, 9.283557e+002
1.991308e+003, 9.157002e+002
1.993236e+003, 9.101452e+002
1.995165e+003, 9.112273e+002
1.997093e+003, 9.030548e+002
1.999021e+003, 8.975524e+002
2.000950e+003, 9.064207e+002
2.002878e+003, 9.090889e+002
2.004807e+003, 9.019847e+002
2.006735e+003, 8.917717e+002
2.008664e+003, 8.839719e+002
2.010592e+003, 8.870481e+002
2.012521e+003, 8.863599e+002
2.014449e+003, 8.787869e+002
2.016378e+003, 8.615976e+002
2.018306e+003, 8.481791e+002
2.020235e+003, 8.634857e+002
2.022163e+003, 8.743339e+002
2.024092e+003, 8.742810e+002
2.026020e+003, 8.721947e+002
2.027948e+003, 8.688423e+002
2.029877e+003, 8.632757e+002
2.031805e+003, 8.596006e+002
2.033734e+003, 8.586754e+002
2.035662e+003, 8.534733e+002
2.037591e+003, 8.479904e+002
2.039519e+003, 8.516294e+002
2.041448e+003, 8.508082e+002
2.043376e+003, 8.419848e+002
2.045305e+003, 8.383000e+002
2.047233e+003, 8.381267e+002
2.049162e+003, 8.410123e+002
2.051090e+003, 8.373954e+002
2.053019e+003, 8.231073e+002
2.054947e+003, 8.244699e+002
2.056875e+003, 8.300540e+002
2.058804e+003, 8.167617e+002
2.060732e+003, 8.110416e+002
2.062661e+003, 8.235062e+002
2.064589e+003, 8.289907e+002
2.066518e+003, 8.270232e+002
2.068446e+003, 8.128294e+002
2.070375e+003, 8.049807e+002
2.072303e+003, 8.103047e+002
2.074232e+003, 8.110461e+002
2.076160e+003, 8.094568e+002
2.078089e+003, 8.090631e+002
2.080017e+003, 8.063323e+002
2.081946e+003, 8.001400e+002
2.083874e+003, 7.995319e+002
2.085802e+003, 7.969098e+002
2.087731e+003, 7.794081e+002
2.089659e+003, 7.723848e+002
2.091588e+003, 7.806584e+002
2.093516e+003, 7.769890e+002
2.095445e+003, 7.700696e+002
2.097373e+003, 7.673542e+002
2.099302e+003, 7.708853e+002
2.101230e+003, 7.784096e+002
2.103159e+003, 7.679879e+002
2.105087e+003, 7.553649e+002
2.107016e+003, 7.529867e+002
2.108944e+003, 7.517350e+002
2.110873e+003, 7.497777e+002
2.112801e+003, 7.427597e+002
2.114729e+003, 7.386664e+002
2.116658e+003, 7.435039e+002
2.118586e+003, 7.438733e+002
2.120515e+003, 7.407481e+002
2.122443e+003, 7.396082e+002
2.124372e+003, 7.393085e+002
2.126300e+003, 7.400342e+002
2.128229e+003, 7.323766e+002
2.130157e+003, 7.224922e+002
2.132086e+003, 7.226328e+002
2.134014e+003, 7.234950e+002
2.135943e+003, 7.225886e+002
2.137871e+003, 7.167715e+002
2.139800e+003, 7.124512e+002
2.141728e+003, 7.210072e+002
2.143656e+003, 7.223452e+002
2.145585e+003, 7.145396e+002
2.147513e+003, 7.149234e+002
2.149442e+003, 7.135892e+002
2.151370e+003, 6.991068e+002
2.153299e+003, 6.976893e+002
2.155227e+003, 7.062229e+002
2.157156e+003, 7.053178e+002
2.159084e+003, 7.005612e+002
2.161013e+003, 6.937403e+002
2.162941e+003, 6.874903e+002
2.164870e+003, 6.834520e+002
2.166798e+003, 6.863826e+002
2.168727e+003, 6.872755e+002
2.170655e+003, 6.837058e+002
2.172583e+003, 6.829182e+002
2.174512e+003, 6.827973e+002
2.176440e+003, 6.812065e+002
2.178369e+003, 6.793776e+002
2.180297e+003, 6.775364e+002
2.182226e+003, 6.759288e+002
2.184154e+003, 6.746755e+002
2.186083e+003, 6.747043e+002
2.188011e+003, 6.597464e+002
2.189940e+003, 6.424348e+002
2.191868e+003, 6.559846e+002
2.193797e+003, 6.629761e+002
2.195725e+003, 6.554459e+002
2.197654e+003, 6.562107e+002
2.199582e+003, 6.570630e+002
2.201510e+003, 6.462891e+002
2.203439e+003, 6.389450e+002
2.205367e+003, 6.359827e+002
2.207296e+003, 6.366045e+002
2.209224e+003, 6.361526e+002
2.211153e+003, 6.318334e+002
2.213081e+003, 6.318204e+002
2.215010e+003, 6.322991e+002
2.216938e+003, 6.258995e+002
2.218867e+003, 6.216750e+002
2.220795e+003, 6.205237e+002
2.222724e+003, 6.105618e+002
2.224652e+003, 6.025485e+002
2.226581e+003, 6.046573e+002
2.228509e+003, 6.119572e+002
2.230438e+003, 6.199352e+002
2.232366e+003, 6.203567e+002
2.234294e+003, 6.125339e+002
2.236223e+003, 5.955429e+002
2.238151e+003, 5.943391e+002
2.240080e+003, 5.985978e+002
2.242008e+003, 6.000084e+002
2.243937e+003, 6.031202e+002
2.245865e+003, 6.046829e+002
2.247794e+003, 5.847643e+002
2.249722e+003, 5.780148e+002
2.251651e+003, 5.955823e+002
2.253579e+003, 5.930230e+002
2.255508e+003, 5.807730e+002
2.257436e+003, 5.676681e+002
2.259365e+003, 5.649099e+002
2.261293e+003, 5.705500e+002
2.263221e+003, 5.759918e+002
2.265150e+003, 5.756461e+002
2.267078e+003, 5.681620e+002
2.269007e+003, 5.633727e+002
2.270935e+003, 5.623062e+002
2.272864e+003, 5.677422e+002
2.274792e+003, 5.715533e+002
2.276721e+003, 5.716067e+002
2.278649e+003, 5.625783e+002
2.280578e+003, 5.561593e+002
2.282506e+003, 5.558289e+002
2.284435e+003, 5.503561e+002
2.286363e+003, 5.462327e+002
2.288292e+003, 5.531613e+002
2.290220e+003, 5.541161e+002
2.292148e+003, 5.498207e+002
2.294077e+003, 5.441915e+002
2.296005e+003, 5.402748e+002
2.297934e+003, 5.387908e+002
2.299862e+003, 5.213216e+002
2.301791e+003, 5.107456e+002
2.303719e+003, 5.301992e+002
2.305648e+003, 5.445505e+002
2.307576e+003, 5.486696e+002
2.309505e+003, 5.332237e+002
2.311433e+003, 5.185362e+002
2.313362e+003, 5.100509e+002
2.315290e+003, 5.240087e+002
2.317219e+003, 5.267524e+002
2.319147e+003, 4.975934e+002
2.321075e+003, 5.085792e+002
2.323004e+003, 5.274998e+002
2.324932e+003, 5.108050e+002
2.326861e+003, 4.986412e+002
2.328789e+003, 4.954967e+002
2.330718e+003, 4.983281e+002
2.332646e+003, 4.973340e+002
2.334575e+003, 4.903942e+002
2.336503e+003, 4.922364e+002
2.338432e+003, 4.945935e+002
2.340360e+003, 4.916114e+002
2.342289e+003, 4.847534e+002
2.344217e+003, 4.782876e+002
2.346146e+003, 4.804999e+002
2.348074e+003, 4.814440e+002
2.350002e+003, 4.798435e+002
2.351931e+003, 4.775016e+002
2.353859e+003, 4.740876e+002
2.355788e+003, 4.696354e+002
2.357716e+003, 4.657973e+002
2.359645e+003, 4.637611e+002
2.361573e+003, 4.657669e+002
2.363502e+003, 4.652146e+002
2.365430e+003, 4.642612e+002
2.367359e+003, 4.695969e+002
2.369287e+003, 4.663551e+002
2.371216e+003, 4.561975e+002
2.373144e+003, 4.562748e+002
2.375073e+003, 4.583306e+002
2.377001e+003, 4.594020e+002
2.378929e+003, 4.622656e+002
2.380858e+003, 4.615759e+002
2.382786e+003, 4.513279e+002
2.384715e+003, 4.482975e+002
2.386643e+003, 4.497628e+002
2.388572e+003, 4.514385e+002
2.390500e+003, 4.533021e+002
2.392429e+003, 4.539541e+002
2.394357e+003, 4.465366e+002
2.396286e+003, 4.419047e+002
2.398214e+003, 4.423169e+002
2.400143e+003, 4.410718e+002
2.402071e+003, 4.357878e+002
2.404000e+003, 4.255938e+002
2.405928e+003, 4.288218e+002
2.407856e+003, 4.349226e+002
2.409785e+003, 4.346555e+002
2.411713e+003, 4.283199e+002
2.413642e+003, 4.204234e+002
2.415570e+003, 4.186511e+002
2.417499e+003, 4.171495e+002
2.419427e+003, 4.151570e+002
2.421356e+003, 4.123568e+002
2.423284e+003, 4.114081e+002
2.425213e+003, 4.122513e+002
2.427141e+003, 4.105201e+002
2.429070e+003, 4.079245e+002
2.430998e+003, 4.053487e+002
2.432927e+003, 3.968494e+002
2.434855e+003, 3.906108e+002
2.436783e+003, 3.963802e+002
2.438712e+003, 3.925295e+002
2.440640e+003, 3.884110e+002
2.442569e+003, 4.010644e+002
2.444497e+003, 4.039477e+002
2.446426e+003, 3.988861e+002
2.448354e+003, 3.954643e+002
2.450283e+003, 3.892134e+002
2.452211e+003, 3.808719e+002
2.454140e+003, 3.759677e+002
2.456068e+003, 3.753238e+002
2.457997e+003, 3.787767e+002
2.459925e+003, 3.791059e+002
2.461854e+003, 3.764469e+002
2.463782e+003, 3.705455e+002
2.465710e+003, 3.684336e+002
2.467639e+003, 3.685428e+002
2.469567e+003, 3.699380e+002
2.471496e+003, 3.653327e+002
2.473424e+003, 3.610023e+002
2.475353e+003, 3.640912e+002
2.477281e+003, 3.604413e+002
2.479210e+003, 3.567323e+002
2.481138e+003, 3.685583e+002
2.483067e+003, 3.672183e+002
2.484995e+003, 3.584218e+002
2.486924e+003, 3.654341e+002
2.488852e+003, 3.734607e+002
2.490781e+003, 3.752647e+002
2.492709e+003, 3.491987e+002
2.494637e+003, 3.408686e+002
2.496566e+003, 3.549780e+002
2.498494e+003, 3.636016e+002
2.500423e+003, 3.598266e+002
2.502351e+003, 3.448172e+002
2.504280e+003, 3.443078e+002
2.506208e+003, 3.425449e+002
2.508137e+003, 3.318166e+002
2.510065e+003, 3.344309e+002
2.511994e+003, 3.366617e+002
2.513922e+003, 3.266661e+002
2.515851e+003, 3.361768e+002
2.517779e+003, 3.437353e+002
2.519708e+003, 3.262334e+002
2.521636e+003, 3.192275e+002
2.523564e+003, 3.212691e+002
2.525493e+003, 3.328322e+002
2.527421e+003, 3.261880e+002
2.529350e+003, 3.183651e+002
2.531278e+003, 3.347124e+002
2.533207e+003, 3.322571e+002
2.535135e+003, 3.212753e+002
2.537064e+003, 3.249370e+002
2.538992e+003, 3.168134e+002
2.540921e+003, 3.050789e+002
2.542849e+003, 3.133952e+002
2.544778e+003, 3.187692e+002
2.546706e+003, 3.180466e+002
2.548635e+003, 3.102806e+002
2.550563e+003, 3.022761e+002
2.552491e+003, 2.971460e+002
2.554420e+003, 3.036740e+002
2.556348e+003, 3.031588e+002
2.558277e+003, 2.964299e+002
2.560205e+003, 2.990530e+002
2.562134e+003, 2.999594e+002
2.564062e+003, 2.972417e+002
2.565991e+003, 2.920743e+002
2.567919e+003, 2.906652e+002
2.569848e+003, 2.919598e+002
2.571776e+003, 2.844430e+002
2.573705e+003, 2.833729e+002
2.575633e+003, 2.889355e+002
2.577562e+003, 2.838447e+002
2.579490e+003, 2.822668e+002
2.581418e+003, 2.858703e+002
2.583347e+003, 2.809651e+002
2.585275e+003, 2.763071e+002
2.587204e+003, 2.748866e+002
2.589132e+003, 2.830915e+002
2.591061e+003, 2.836888e+002
2.592989e+003, 2.738580e+002
2.594918e+003, 2.733846e+002
2.596846e+003, 2.741109e+002
2.598775e+003, 2.738906e+002
2.600703e+003, 2.763374e+002
2.602632e+003, 2.758404e+002
2.604560e+003, 2.713021e+002
2.606489e+003, 2.653265e+002
2.608417e+003, 2.651848e+002
2.610345e+003, 2.709732e+002
2.612274e+003, 2.721861e+002
2.614202e+003, 2.616100e+002
2.616131e+003, 2.437840e+002
2.618059e+003, 2.552606e+002
2.619988e+003, 2.624699e+002
2.621916e+003, 2.586901e+002
2.623845e+003, 2.568859e+002
2.625773e+003, 2.540210e+002
2.627702e+003, 2.486069e+002
2.629630e+003, 2.331908e+002
2.631559e+003, 2.355741e+002
2.633487e+003, 2.518585e+002
2.635416e+003, 2.532716e+002
2.637344e+003, 2.482464e+002
2.639272e+003, 2.422644e+002
2.641201e+003, 2.447201e+002
2.643129e+003, 2.462654e+002
2.645058e+003, 2.452942e+002
2.646986e+003, 2.425422e+002
2.648915e+003, 2.348198e+002
2.650843e+003, 2.281121e+002
2.652772e+003, 2.373567e+002
2.654700e+003, 2.351113e+002
2.656629e+003, 2.273322e+002
2.658557e+003, 2.266073e+002
2.660486e+003, 2.354740e+002
2.662414e+003, 2.428713e+002
2.664343e+003, 2.351964e+002
2.666271e+003, 2.275107e+002
2.668199e+003, 2.249104e+002
2.670128e+003, 2.310222e+002
2.672056e+003, 2.299601e+002
2.673985e+003, 2.271823e+002
2.675913e+003, 2.276554e+002
2.677842e+003, 2.193193e+002
2.679770e+003, 2.151761e+002
2.681699e+003, 2.218557e+002
2.683627e+003, 2.190986e+002
2.685556e+003, 2.152925e+002
2.687484e+003, 2.150052e+002
2.689413e+003, 2.204677e+002
2.691341e+003, 2.233828e+002
2.693270e+003, 2.214780e+002
2.695198e+003, 2.179108e+002
2.697126e+003, 2.142522e+002
2.699055e+003, 2.121250e+002
2.700983e+003, 2.171603e+002
2.702912e+003, 2.182056e+002
2.704840e+003, 2.138601e+002
2.706769e+003, 2.044761e+002
2.708697e+003, 2.010420e+002
2.710626e+003, 2.009361e+002
2.712554e+003, 1.978329e+002
2.714483e+003, 1.922626e+002
2.716411e+003, 1.878564e+002
2.718340e+003, 1.896351e+002
2.720268e+003, 1.888985e+002
2.722197e+003, 1.859368e+002
2.724125e+003, 1.804426e+002
2.726053e+003, 1.843181e+002
2.727982e+003, 1.847719e+002
2.729910e+003, 1.756245e+002
2.731839e+003, 1.926957e+002
2.733767e+003, 2.004301e+002
2.735696e+003, 1.901671e+002
2.737624e+003, 1.873359e+002
2.739553e+003, 1.842628e+002
2.741481e+003, 1.802960e+002
2.743410e+003, 1.762664e+002
2.745338e+003, 1.878202e+002
2.747267e+003, 2.007225e+002
2.749195e+003, 1.880974e+002
2.751124e+003, 1.806891e+002
2.753052e+003, 1.794971e+002
2.754980e+003, 1.830898e+002
2.756909e+003, 1.767144e+002
2.758837e+003, 1.665911e+002
2.760766e+003, 1.579154e+002
2.762694e+003, 1.687058e+002
2.764623e+003, 1.734549e+002
2.766551e+003, 1.677914e+002
2.768480e+003, 1.701739e+002
2.770408e+003, 1.750084e+002
2.772337e+003, 1.764405e+002
2.774265e+003, 1.612912e+002
2.776194e+003, 1.571687e+002
2.778122e+003, 1.629056e+002
2.780051e+003, 1.778455e+002
2.781979e+003, 1.667751e+002
2.783907e+003, 1.554487e+002
2.785836e+003, 1.653166e+002
2.787764e+003, 1.660843e+002
2.789693e+003, 1.608850e+002
2.791621e+003, 1.534457e+002
2.793550e+003, 1.656703e+002
2.795478e+003, 1.617857e+002
2.797407e+003, 1.484984e+002
2.799335e+003, 1.614692e+002
2.801264e+003, 1.625064e+002
2.803192e+003, 1.568014e+002
2.805121e+003, 1.548513e+002
2.807049e+003, 1.586540e+002
2.808978e+003, 1.578962e+002
2.810906e+003, 1.486460e+002
2.812834e+003, 1.445931e+002
2.814763e+003, 1.457717e+002
2.816691e+003, 1.484209e+002
2.818620e+003, 1.368238e+002
2.820548e+003, 1.425239e+002
2.822477e+003, 1.537325e+002
2.824405e+003, 1.384503e+002
2.826334e+003, 1.402444e+002
2.828262e+003, 1.466827e+002
2.830191e+003, 1.466453e+002
2.832119e+003, 1.369965e+002
2.834048e+003, 1.374521e+002
2.835976e+003, 1.499286e+002
2.837905e+003, 1.527625e+002
2.839833e+003, 1.492103e+002
2.841761e+003, 1.442869e+002
2.843690e+003, 1.457612e+002
2.845618e+003, 1.381811e+002
2.847547e+003, 1.336439e+002
2.849475e+003, 1.437903e+002
2.851404e+003, 1.420343e+002
2.853332e+003, 1.403898e+002
2.855261e+003, 1.418705e+002
2.857189e+003, 1.380799e+002
2.859118e+003, 1.393821e+002
2.861046e+003, 1.401816e+002
2.862975e+003, 1.299530e+002
2.864903e+003, 1.277282e+002
2.866832e+003, 1.256811e+002
2.868760e+003, 1.191859e+002
2.870688e+003, 1.176724e+002
2.872617e+003, 1.216880e+002
2.874545e+003, 1.272369e+002
2.876474e+003, 1.227931e+002
2.878402e+003, 1.158008e+002
2.880331e+003, 1.134035e+002
2.882259e+003, 1.221737e+002
2.884188e+003, 1.238237e+002
2.886116e+003, 1.222071e+002
2.888045e+003, 1.199545e+002
2.889973e+003, 1.189752e+002
2.891902e+003, 1.166208e+002
2.893830e+003, 1.161778e+002
2.895759e+003, 1.265140e+002
2.897687e+003, 1.241539e+002
2.899615e+003, 1.169045e+002
2.901544e+003, 1.108048e+002
2.903472e+003, 1.177535e+002
2.905401e+003, 1.207433e+002
2.907329e+003, 1.174327e+002
2.909258e+003, 1.110480e+002
2.911186e+003, 1.127744e+002
2.913115e+003, 1.109926e+002
2.915043e+003, 9.681344e+001
2.916972e+003, 1.113936e+002
2.918900e+003, 1.172473e+002
2.920829e+003, 1.099302e+002
2.922757e+003, 1.117997e+002
2.924686e+003, 1.148841e+002
2.926614e+003, 1.162049e+002
2.928542e+003, 1.141879e+002
2.930471e+003, 1.068939e+002
2.932399e+003, 1.006761e+002
2.934328e+003, 9.756217e+001
2.936256e+003, 9.577764e+001
2.938185e+003, 9.970301e+001
2.940113e+003, 1.049873e+002
2.942042e+003, 1.074023e+002
2.943970e+003, 1.165860e+002
2.945899e+003, 1.184945e+002
2.947827e+003, 1.101027e+002
2.949756e+003, 9.241367e+001
2.951684e+003, 8.454082e+001
2.953613e+003, 8.567311e+001
2.955541e+003, 9.342744e+001
2.957469e+003, 9.863216e+001
2.959398e+003, 9.788686e+001
2.961326e+003, 9.501203e+001
2.963255e+003, 1.040797e+002
2.965183e+003, 9.793839e+001
2.967112e+003, 8.983734e+001
2.969040e+003, 9.202548e+001
2.970969e+003, 9.118632e+001
2.972897e+003, 9.836651e+001
2.974826e+003, 1.069688e+002
2.976754e+003, 9.934287e+001
2.978683e+003, 9.016769e+001
2.980611e+003, 8.751698e+001
2.982540e+003, 9.198278e+001
2.984468e+003, 7.905967e+001
2.986396e+003, 8.151801e+001
2.988325e+003, 8.953319e+001
2.990253e+003, 8.188079e+001
2.992182e+003, 7.785563e+001
2.994110e+003, 7.890990e+001
2.996039e+003, 8.310834e+001
2.997967e+003, 8.489315e+001
2.999896e+003, 8.660181e+001
3.001824e+003, 8.762851e+001
3.003753e+003, 8.675185e+001
3.005681e+003, 7.119304e+001
3.007610e+003, 6.584002e+001
3.009538e+003, 7.207395e+001
3.011467e+003, 8.180726e+001
3.013395e+003, 8.278848e+001
3.015323e+003, 8.118368e+001
3.017252e+003, 8.092960e+001
3.019180e+003, 8.452215e+001
3.021109e+003, 7.418004e+001
3.023037e+003, 6.274467e+001
3.024966e+003, 6.580698e+001
3.026894e+003, 7.304910e+001
3.028823e+003, 7.238756e+001
3.030751e+003, 6.645654e+001
3.032680e+003, 6.769322e+001
3.034608e+003, 7.463703e+001
3.036537e+003, 7.869346e+001
3.038465e+003, 7.558527e+001
3.040394e+003, 6.389920e+001
3.042322e+003, 6.224759e+001
3.044250e+003, 6.745736e+001
3.046179e+003, 7.308966e+001
3.048107e+003, 6.916905e+001
3.050036e+003, 6.291683e+001
3.051964e+003, 5.626606e+001
3.053893e+003, 4.705539e+001
3.055821e+003, 5.755313e+001
3.057750e+003, 6.797123e+001
3.059678e+003, 6.919995e+001
3.061607e+003, 5.442146e+001
3.063535e+003, 7.322978e+001
3.065464e+003, 8.007074e+001
3.067392e+003, 4.947478e+001
3.069321e+003, 7.118065e+001
3.071249e+003, 7.136205e+001
3.073177e+003, 5.976594e+001
3.075106e+003, 6.253265e+001
3.077034e+003, 6.638239e+001
3.078963e+003, 6.159367e+001
3.080891e+003, 5.503267e+001
3.082820e+003, 6.219973e+001
3.084748e+003, 5.340559e+001
3.086677e+003, 5.195336e+001
3.088605e+003, 6.108628e+001
3.090534e+003, 6.141578e+001
3.092462e+003, 5.417265e+001
3.094391e+003, 5.112141e+001
3.096319e+003, 5.581527e+001
3.098248e+003, 5.460669e+001
3.100176e+003, 5.780989e+001
3.102104e+003, 5.901150e+001
3.104033e+003, 5.369928e+001
3.105961e+003, 4.671576e+001
3.107890e+003, 4.875970e+001
3.109818e+003, 5.168329e+001
3.111747e+003, 4.643639e+001
3.113675e+003, 5.004713e+001
3.115604e+003, 4.798646e+001
3.117532e+003, 4.531379e+001
3.119461e+003, 5.405549e+001
3.121389e+003, 6.990849e+001
3.123318e+003, 6.178296e+001
3.125246e+003, 4.399149e+001
3.127175e+003, 5.730624e+001
3.129103e+003, 5.389814e+001
3.131031e+003, 5.057946e+001
3.132960e+003, 4.947135e+001
3.134888e+003, 3.942741e+001
3.136817e+003, 3.868316e+001
3.138745e+003, 3.607814e+001
3.140674e+003, 3.229070e+001
3.142602e+003, 4.440946e+001
3.144531e+003, 4.374795e+001
3.146459e+003, 4.948959e+001
3.148388e+003, 6.234993e+001
3.150316e+003, 4.821434e+001
3.152245e+003, 5.500974e+001
3.154173e+003, 5.858946e+001
3.156102e+003, 5.045482e+001
3.158030e+003, 5.697523e+001
3.159958e+003, 4.539082e+001
3.161887e+003, 3.160276e+001
3.163815e+003, 2.700280e+001
3.165744e+003, 3.659138e+001
3.167672e+003, 3.622667e+001
3.169601e+003, 3.154448e+001
3.171529e+003, 3.084565e+001
3.173458e+003, 4.965650e+001
3.175386e+003, 5.383849e+001
3.177315e+003, 4.972116e+001
3.179243e+003, 4.391898e+001
3.181172e+003, 3.372614e+001
3.183100e+003, 4.855174e+001
3.185029e+003, 5.306250e+001
3.186957e+003, 3.626767e+001
3.188885e+003, 4.436367e+001
3.190814e+003, 4.261989e+001
3.192742e+003, 4.033362e+001
3.194671e+003, 4.243971e+001
3.196599e+003, 3.960640e+001
3.198528e+003, 4.060505e+001
3.200456e+003, 3.996815e+001
3.202385e+003, 3.980102e+001
3.204313e+003, 5.710015e+001
3.206242e+003, 4.644002e+001
3.208170e+003, 3.242373e+001
3.210099e+003, 2.992803e+001
3.212027e+003, 4.400939e+001
3.213956e+003, 5.649383e+001
3.215884e+003, 5.254900e+001
3.217813e+003, 3.869735e+001
3.219741e+003, 3.513670e+001
3.221669e+003, 3.979297e+001
3.223598e+003, 4.563662e+001
3.225526e+003, 4.663004e+001
3.227455e+003, 3.563344e+001
3.229383e+003, 3.621441e+001
3.231312e+003, 3.785225e+001
3.233240e+003, 3.624329e+001
3.235169e+003, 2.953656e+001
3.237097e+003, 4.330465e+001
3.239026e+003, 3.942797e+001
3.240954e+003, 3.345899e+001
3.242883e+003, 4.251017e+001
3.244811e+003, 3.654555e+001
3.246740e+003, 2.667160e+001
3.248668e+003, 3.434425e+001
3.250596e+003, 5.835751e+001
3.252525e+003, 3.755365e+001
3.254453e+003, 3.739774e+001
3.256382e+003, 3.794418e+001
3.258310e+003, 3.234227e+001
3.260239e+003, 3.807543e+001
3.262167e+003, 3.797817e+001
3.264096e+003, 3.388975e+001
3.266024e+003, 2.866406e+001
3.267953e+003, 2.464599e+001
3.269881e+003, 3.015063e+001
3.271810e+003, 3.069456e+001
3.273738e+003, 3.441045e+001
3.275667e+003, 5.067456e+001
3.277595e+003, 4.347367e+001
3.279523e+003, 4.288456e+001
3.281452e+003, 4.099260e+001
3.283380e+003, 3.490011e+001
3.285309e+003, 5.652539e+001
3.287237e+003, 5.153675e+001
3.289166e+003, 3.978471e+001
3.291094e+003, 3.643008e+001
3.293023e+003, 4.609389e+001
3.294951e+003, 3.533751e+001
3.296880e+003, 2.690901e+001
3.298808e+003, 2.717443e+001
3.300737e+003, 3.276480e+001
3.302665e+003, 2.687403e+001
3.304594e+003, 3.260223e+001
3.306522e+003, 3.859306e+001
3.308450e+003, 3.527279e+001
3.310379e+003, 2.118042e+001
3.312307e+003, 4.319340e+001
3.314236e+003, 4.033585e+001
3.316164e+003, 1.776544e+001
3.318093e+003, 2.589638e+001
3.320021e+003, 3.543644e+001
3.321950e+003, 3.017970e+001
3.323878e+003, 2.380614e+001
3.325807e+003, 3.026338e+001
3.327735e+003, 4.467406e+001
3.329664e+003, 3.226024e+001
3.331592e+003, 2.445216e+001
3.333521e+003, 3.086267e+001
3.335449e+003, 3.280045e+001
3.337377e+003, 2.702478e+001
3.339306e+003, 2.267666e+001
3.341234e+003, 2.534290e+001
3.343163e+003, 3.570771e+001
3.345091e+003, 3.455490e+001
3.347020e+003, 4.438905e+001
3.348948e+003, 3.871955e+001
3.350877e+003, 1.971434e+001
3.352805e+003, 2.492016e+001
3.354734e+003, 3.205145e+001
3.356662e+003, 2.389036e+001
3.358591e+003, 1.454594e+001
3.360519e+003, 1.943398e+001
3.362448e+003, 3.068086e+001
3.364376e+003, 2.441677e+001
3.366304e+003, 2.163815e+001
3.368233e+003, 2.699037e+001
3.370161e+003, 2.865643e+001
3.372090e+003, 3.507954e+001
3.374018e+003, 2.928578e+001
3.375947e+003, 2.022479e+001
3.377875e+003, 1.863518e+001
3.379804e+003, 2.817053e+001
3.381732e+003, 2.035609e+001
3.383661e+003, 1.421367e+001
3.385589e+003, 1.385465e+001
3.387518e+003, 1.365565e+001
3.389446e+003, 1.714312e+001
3.391375e+003, 8.934813e+000
3.393303e+003, 1.439129e+001
3.395231e+003, 3.201913e+001
3.397160e+003, 2.444127e+001
3.399088e+003, 3.494634e+001
3.401017e+003, 2.645959e+001
3.402945e+003, 1.774765e+001
3.404874e+003, 2.843648e+001
3.406802e+003, 4.300946e+001
3.408731e+003, 3.037035e+001
3.410659e+003, 1.972093e+001
3.412588e+003, 1.746801e+001
3.414516e+003, 1.735083e+001
3.416445e+003, 2.129900e+001
3.418373e+003, 2.975844e+001
3.420302e+003, 2.890682e+001
3.422230e+003, 2.102201e+001
3.424158e+003, 2.058167e+001
3.426087e+003, 1.548172e+001
3.428015e+003, 1.193898e+001
3.429944e+003, 8.993797e+000
3.431872e+003, 8.609577e+000
3.433801e+003, 1.929943e+001
3.435729e+003, 1.027075e+001
3.437658e+003, 9.104263e+000
3.439586e+003, 1.200231e+001
3.441515e+003, 1.215574e+001
3.443443e+003, 1.286183e+001
3.445372e+003, 6.305182e+000
3.447300e+003, -5.308570e-001
3.449229e+003, -1.304377e+000
3.451157e+003, 6.973504e+000
3.453085e+003, 2.485127e+001
3.455014e+003, 1.684615e+001
3.456942e+003, 1.023140e+001
##END=



