##NAMES=Paravauxite
##RRUFFID=R050577
##IDEAL CHEMISTRY=Fe^2+^Al_2_(PO_4_)_2_(OH)_2_·8H_2_O
##LOCALITY=Llallagua, Bolivia
##OWNER=RRUFF
##SOURCE=University of Arizona Mineral Museum
##DESCRIPTION=Colorless bladed crystal
##STATUS=The identification of this mineral has been confirmed by X-ray diffraction and chemical analysis
##URL=https://www.rruff.net/odr/rruff_sample/R050577
##MEASURED CHEMISTRY=(Fe^2+^_0.93_Mg_0.04_Mn_0.03_)Al_2_(PO_4_)_2_((OH)_0.93_F_0.07_)_2_·8H_2_O
##DIFFRACTION SAMPLE DESCRIPTION=Powder
##CELL PARAMETERS=a: 5.2272 b: 10.5494 c: 6.961 alpha: 106.92 beta: 110.72 gamma: 72.13 volume: 334.47 crystal system: triclinic
##FILETYPE=Raman RAW
##RAMAN WAVELENGTH=780

81.48875, 0.0000000E+00
83.41722, 323.6704
85.34569, 334.3589
87.27415, 342.3838
89.20262, 354.2485
91.13109, 359.0372
93.05956, 361.4442
94.98802, 365.5533
96.91649, 360.0215
98.84496, 355.3134
100.7734, 351.7189
102.7019, 349.9857
104.6304, 349.1844
106.5588, 349.4805
108.4873, 351.8737
110.4158, 354.4777
112.3442, 359.1263
114.2727, 366.0867
116.2011, 377.1670
118.1296, 391.6013
120.0581, 411.0244
121.9865, 437.4848
123.9150, 466.6294
125.8435, 498.2510
127.7719, 530.4098
129.7004, 556.8906
131.6289, 578.2871
133.5574, 593.0136
135.4858, 599.8635
137.4143, 600.5508
139.3428, 595.9035
141.2712, 586.2921
143.1997, 571.6541
145.1281, 551.7757
147.0566, 530.9542
148.9851, 508.7494
150.9135, 487.3019
152.8420, 466.3802
154.7705, 447.1080
156.6989, 431.6006
158.6274, 419.6688
160.5559, 411.3258
162.4843, 406.4932
164.4128, 405.8519
166.3413, 410.6625
168.2697, 418.6447
170.1982, 427.8395
172.1267, 437.9798
174.0551, 446.9543
175.9836, 455.8756
177.9121, 460.2706
179.8405, 456.6977
181.7690, 450.5908
183.6975, 444.2100
185.6259, 439.1896
187.5544, 441.5139
189.4829, 452.2440
191.4113, 467.9086
193.3398, 492.8590
195.2683, 516.7175
197.1967, 535.8662
199.1252, 548.4863
201.0537, 550.8866
202.9821, 541.7221
204.9106, 533.8625
206.8391, 529.9546
208.7675, 527.3089
210.6960, 526.0369
212.6245, 525.0530
214.5529, 522.9407
216.4814, 519.7849
218.4099, 516.0730
220.3383, 507.4875
222.2668, 505.6375
224.1953, 513.2029
226.1237, 527.2799
228.0522, 549.1536
229.9807, 575.4877
231.9091, 599.8544
233.8376, 626.1809
235.7661, 636.9935
237.6945, 628.7205
239.6230, 609.3608
241.5515, 575.9261
243.4799, 536.6105
245.4084, 499.5066
247.3369, 464.3871
249.2654, 437.9212
251.1938, 423.6578
253.1223, 413.1491
255.0508, 404.6908
256.9792, 400.5015
258.9077, 402.0749
260.8362, 408.8000
262.7646, 419.5487
264.6931, 434.5313
266.6216, 453.5644
268.5500, 475.8220
270.4785, 502.9340
272.4070, 537.3653
274.3354, 575.7090
276.2639, 618.6276
278.1924, 665.1581
280.1208, 697.3362
282.0493, 717.3928
283.9778, 717.8660
285.9062, 691.5584
287.8347, 654.0248
289.7632, 607.2145
291.6916, 558.0979
293.6201, 515.9631
295.5486, 481.1949
297.4770, 451.7809
299.4055, 428.7091
301.3340, 407.3021
303.2624, 385.7067
305.1909, 366.5698
307.1194, 351.4753
309.0478, 339.5458
310.9763, 329.3058
312.9048, 320.9414
314.8332, 313.4093
316.7617, 306.7090
318.6902, 300.8336
320.6186, 296.0870
322.5471, 291.8446
324.4756, 287.4561
326.4040, 283.4477
328.3325, 281.1454
330.2609, 280.5316
332.1894, 280.4065
334.1179, 280.7286
336.0463, 281.5103
337.9748, 283.3528
339.9033, 284.9897
341.8317, 285.6958
343.7602, 285.6866
345.6887, 285.0640
347.6171, 283.9283
349.5456, 283.9523
351.4741, 285.7165
353.4025, 287.4890
355.3310, 288.1844
357.2595, 289.3947
359.1879, 292.0542
361.1164, 295.8022
363.0449, 300.0315
364.9733, 304.7316
366.9018, 310.1917
368.8303, 316.6570
370.7587, 323.2001
372.6872, 330.2988
374.6157, 336.5799
376.5441, 341.2047
378.4726, 344.7571
380.4011, 347.8602
382.3295, 350.6206
384.2580, 353.0143
386.1865, 354.4584
388.1149, 357.8451
390.0434, 361.9582
391.9719, 370.3495
393.9003, 384.4751
395.8288, 403.1199
397.7573, 426.6674
399.6857, 453.4805
401.6142, 481.7334
403.5427, 512.4537
405.4711, 535.3774
407.3996, 545.1740
409.3281, 553.2351
411.2565, 556.8853
413.1850, 563.8094
415.1135, 575.4581
417.0419, 595.7229
418.9704, 629.1309
420.8989, 675.5944
422.8273, 733.5465
424.7558, 809.5602
426.6843, 884.5693
428.6127, 974.6650
430.5412, 1041.564
432.4697, 1080.809
434.3981, 1082.368
436.3266, 1032.276
438.2551, 943.4929
440.1835, 841.5967
442.1120, 721.8317
444.0405, 618.8530
445.9689, 532.7129
447.8974, 461.3439
449.8259, 407.4352
451.7543, 364.4442
453.6828, 332.0735
455.6113, 306.9785
457.5397, 287.1673
459.4682, 272.0735
461.3967, 260.0204
463.3251, 251.5268
465.2536, 243.9941
467.1821, 237.3370
469.1105, 231.9253
471.0390, 228.7013
472.9675, 225.3632
474.8959, 220.6827
476.8244, 215.3351
478.7529, 209.7400
480.6813, 204.0747
482.6098, 198.8537
484.5383, 194.0494
486.4667, 189.1311
488.3952, 183.8282
490.3237, 179.5468
492.2521, 177.0516
494.1806, 174.9929
496.1091, 172.6434
498.0375, 170.5002
499.9660, 169.0580
501.8945, 168.3192
503.8229, 168.1458
505.7514, 168.4678
507.6799, 168.7223
509.6083, 168.6882
511.5368, 169.9841
513.4653, 173.9118
515.3937, 177.4015
517.3222, 178.8643
519.2507, 180.3265
521.1791, 183.1831
523.1076, 186.7477
525.0361, 190.0216
526.9645, 193.0927
528.8930, 196.3463
530.8215, 199.8144
532.7499, 203.6539
534.6784, 208.0499
536.6069, 212.3892
538.5353, 217.0695
540.4638, 220.9656
542.3923, 223.3173
544.3207, 225.0625
546.2492, 226.4538
548.1777, 228.0428
550.1061, 230.8208
552.0346, 234.7538
553.9631, 239.6338
555.8915, 245.3874
557.8200, 252.3297
559.7485, 260.4148
561.6769, 269.9326
563.6054, 281.9906
565.5339, 294.0796
567.4623, 304.9264
569.3908, 315.2635
571.3193, 325.7779
573.2477, 336.3473
575.1762, 346.6256
577.1047, 356.7708
579.0331, 367.7537
580.9616, 379.5778
582.8901, 392.2817
584.8185, 407.0856
586.7470, 420.8290
588.6755, 433.9447
590.6039, 444.7423
592.5324, 451.3332
594.4609, 456.4076
596.3893, 462.9184
598.3178, 468.7136
600.2463, 470.5087
602.1747, 468.6874
604.1032, 465.7390
606.0317, 459.9660
607.9601, 451.4635
609.8886, 441.9881
611.8171, 428.3373
613.7455, 414.1802
615.6740, 398.3071
617.6025, 379.7083
619.5309, 360.2004
621.4594, 339.4595
623.3879, 319.7745
625.3163, 303.7235
627.2448, 289.9299
629.1733, 275.4869
631.1017, 260.5125
633.0302, 246.3737
634.9587, 232.9824
636.8871, 221.7408
638.8156, 212.9832
640.7441, 204.9734
642.6725, 197.5790
644.6010, 190.3682
646.5295, 182.8030
648.4579, 175.8990
650.3864, 170.5054
652.3149, 165.6126
654.2433, 160.0698
656.1718, 154.5220
658.1003, 150.2146
660.0287, 146.9789
661.9572, 143.8906
663.8857, 140.9698
665.8141, 138.8745
667.7426, 137.7107
669.6711, 136.9104
671.5995, 136.5453
673.5280, 136.0213
675.4565, 134.9440
677.3849, 134.0358
679.3134, 133.6157
681.2419, 133.2641
683.1703, 132.5844
685.0988, 132.0285
687.0273, 132.1449
688.9557, 132.6593
690.8842, 133.2336
692.8127, 133.8192
694.7411, 134.0772
696.6696, 134.0140
698.5980, 133.9906
700.5265, 134.0004
702.4550, 134.4605
704.3834, 135.7117
706.3119, 136.7168
708.2404, 137.2843
710.1688, 137.7140
712.0973, 137.3996
714.0258, 137.7891
715.9542, 140.5088
717.8827, 143.3096
719.8112, 144.2014
721.7396, 144.2290
723.6681, 144.5391
725.5966, 145.0186
727.5250, 145.3279
729.4535, 145.5875
731.3820, 146.5172
733.3104, 148.2236
735.2389, 149.4214
737.1674, 150.1982
739.0958, 150.1142
741.0243, 148.4409
742.9528, 147.2936
744.8812, 147.2419
746.8097, 147.0711
748.7382, 146.3749
750.6666, 145.4701
752.5951, 144.6217
754.5236, 143.7380
756.4520, 142.5305
758.3805, 141.2736
760.3090, 140.2971
762.2374, 139.2955
764.1659, 138.5607
766.0944, 137.6280
768.0228, 136.9056
769.9513, 136.2920
771.8798, 135.1746
773.8082, 133.5337
775.7367, 132.3908
777.6652, 131.7636
779.5936, 131.0114
781.5221, 130.1434
783.4506, 129.2872
785.3790, 128.2938
787.3075, 127.7359
789.2360, 128.2575
791.1644, 128.2006
793.0929, 126.2283
795.0214, 124.5751
796.9498, 124.9099
798.8783, 125.1167
800.8068, 123.1263
802.7352, 121.0989
804.6637, 121.4201
806.5922, 122.6611
808.5206, 123.1262
810.4491, 122.9649
812.3776, 122.1195
814.3060, 120.9490
816.2345, 120.8640
818.1630, 121.6516
820.0914, 122.0232
822.0199, 121.9966
823.9484, 122.4928
825.8768, 122.4120
827.8053, 122.2480
829.7338, 122.5182
831.6622, 122.4474
833.5907, 122.2124
835.5192, 122.4935
837.4476, 122.7098
839.3761, 122.5265
841.3046, 121.3904
843.2330, 120.6122
845.1615, 120.8596
847.0900, 121.0358
849.0184, 120.6581
850.9469, 120.2035
852.8754, 119.6614
854.8038, 119.3598
856.7323, 119.8545
858.6608, 120.5216
860.5892, 120.5494
862.5177, 120.4963
864.4462, 121.4736
866.3746, 122.5322
868.3031, 121.8284
870.2316, 120.3389
872.1600, 120.3451
874.0885, 121.3784
876.0170, 121.7694
877.9454, 121.5561
879.8739, 121.0697
881.8024, 120.2897
883.7308, 120.0303
885.6593, 120.3724
887.5878, 121.0958
889.5162, 122.3841
891.4447, 122.9481
893.3732, 123.7812
895.3016, 124.6862
897.2301, 124.8714
899.1586, 126.3904
901.0870, 126.3598
903.0155, 127.3367
904.9440, 130.2753
906.8724, 132.4894
908.8009, 133.0173
910.7294, 133.6967
912.6578, 135.0724
914.5863, 136.7587
916.5148, 138.6801
918.4432, 140.6150
920.3717, 142.1383
922.3002, 144.3186
924.2286, 148.5684
926.1571, 152.3043
928.0856, 153.2932
930.0140, 154.4610
931.9425, 157.7716
933.8710, 161.7664
935.7994, 165.7587
937.7279, 169.3899
939.6564, 171.7575
941.5848, 174.3173
943.5133, 178.6184
945.4418, 183.8481
947.3702, 188.5335
949.2987, 193.9976
951.2272, 201.7795
953.1556, 211.7802
955.0841, 223.6574
957.0126, 237.9487
958.9410, 255.3032
960.8695, 275.7765
962.7980, 300.0907
964.7264, 327.5445
966.6549, 356.3105
968.5834, 386.9145
970.5118, 418.9120
972.4403, 454.2931
974.3688, 497.1829
976.2972, 549.2490
978.2257, 614.9521
980.1542, 694.2995
982.0826, 790.4476
984.0111, 900.1246
985.9396, 1017.506
987.8680, 1135.666
989.7965, 1227.414
991.7250, 1287.286
993.6534, 1279.477
995.5819, 1205.946
997.5104, 1092.667
999.4388, 942.5869
1001.367, 797.4845
1003.296, 658.8694
1005.224, 541.1755
1007.153, 444.9957
1009.081, 367.2786
1011.010, 308.7067
1012.938, 262.4027
1014.867, 228.9082
1016.795, 202.1662
1018.724, 182.6064
1020.652, 166.1909
1022.580, 152.9322
1024.509, 142.6885
1026.437, 135.7575
1028.366, 129.7155
1030.294, 124.5089
1032.223, 121.1038
1034.151, 119.8282
1036.080, 117.9277
1038.008, 115.2486
1039.937, 113.2026
1041.865, 111.6870
1043.794, 111.3096
1045.722, 112.2023
1047.651, 113.3387
1049.579, 114.7229
1051.507, 116.4443
1053.436, 118.5767
1055.364, 120.4857
1057.293, 122.1085
1059.221, 123.3858
1061.150, 124.4255
1063.078, 123.2775
1065.007, 119.9061
1066.935, 117.5084
1068.864, 116.0609
1070.792, 113.9249
1072.721, 111.1524
1074.649, 108.8340
1076.578, 107.0877
1078.506, 106.4816
1080.434, 106.9715
1082.363, 108.4035
1084.291, 110.5210
1086.220, 112.1316
1088.148, 113.5499
1090.077, 115.6538
1092.005, 118.0897
1093.934, 120.1929
1095.862, 122.1026
1097.791, 124.0188
1099.719, 125.8311
1101.648, 127.3230
1103.576, 128.1531
1105.505, 127.5377
1107.433, 125.8527
1109.361, 123.5070
1111.290, 120.8337
1113.218, 118.8456
1115.147, 117.0246
1117.075, 114.1022
1119.004, 110.8483
1120.932, 108.3361
1122.861, 106.4973
1124.789, 105.4938
1126.718, 104.9553
1128.646, 104.1068
1130.575, 103.4850
1132.503, 103.9110
1134.432, 104.9457
1136.360, 106.3168
1138.288, 107.7807
1140.217, 109.0256
1142.145, 110.3542
1144.074, 111.7276
1146.002, 113.6300
1147.931, 116.6152
1149.859, 120.0365
1151.788, 123.5032
1153.716, 127.2728
1155.645, 131.6684
1157.573, 135.7910
1159.502, 139.5491
1161.430, 142.8058
1163.359, 145.4664
1165.287, 147.3590
1167.215, 149.0016
1169.144, 148.2042
1171.072, 144.0893
1173.001, 138.7480
1174.929, 132.3722
1176.858, 125.5126
1178.786, 118.0458
1180.715, 111.6555
1182.643, 106.5867
1184.572, 101.8322
1186.500, 97.22332
1188.429, 92.74641
1190.357, 88.55683
1192.286, 85.65339
1194.214, 83.88570
1196.142, 81.87592
1198.071, 79.81374
1199.999, 78.69790
1201.928, 78.22737
1203.856, 77.64575
1205.785, 76.95557
1207.713, 76.02408
1209.642, 74.92622
1211.570, 73.77322
1213.499, 72.88396
1215.427, 72.54642
1217.356, 72.44511
1219.284, 72.31812
1221.213, 72.45184
1223.141, 73.50948
1225.069, 74.06161
1226.998, 72.75282
1228.926, 71.82479
1230.855, 72.66755
1232.783, 73.07567
1234.712, 72.10803
1236.640, 71.33296
1238.569, 71.00552
1240.497, 70.88553
1242.426, 71.10271
1244.354, 71.00806
1246.283, 70.41737
1248.211, 69.83353
1250.140, 69.35036
1252.068, 69.44118
1253.996, 70.01489
1255.925, 70.63510
1257.853, 71.15856
1259.782, 70.96777
1261.710, 70.41075
1263.639, 70.05136
1265.567, 69.83011
1267.496, 69.74124
1269.424, 69.63305
1271.353, 69.43491
1273.281, 69.42076
1275.210, 69.77368
1277.138, 70.16801
1279.067, 70.24768
1280.995, 70.50208
1282.923, 70.70538
1284.852, 70.60163
1286.780, 70.66228
1288.709, 70.40517
1290.637, 70.46843
1292.566, 70.43409
1294.494, 70.30348
1296.423, 70.46448
1298.351, 70.84801
1300.280, 71.02085
1302.208, 70.98280
1304.137, 70.88148
1306.065, 70.93723
1307.994, 71.57138
1309.922, 72.36240
1311.850, 73.23367
1313.779, 73.76087
1315.707, 72.90266
1317.636, 71.69166
1319.564, 70.73671
1321.493, 70.56487
1323.421, 71.31552
1325.350, 72.05782
1327.278, 72.88504
1329.207, 73.18401
1331.135, 72.80772
1333.064, 72.25026
1334.992, 71.59026
1336.921, 71.38235
1338.849, 71.60013
1340.777, 71.93726
1342.706, 71.97010
1344.634, 70.92229
1346.563, 70.07903
1348.491, 71.37514
1350.420, 72.88333
1352.348, 72.73875
1354.277, 72.18835
1356.205, 72.14629
1358.134, 72.04309
1360.062, 71.24924
1361.991, 70.97422
1363.919, 70.89774
1365.848, 70.80791
1367.776, 71.10570
1369.704, 71.18948
1371.633, 71.85009
1373.561, 72.12733
1375.490, 72.29136
1377.418, 72.08452
1379.347, 71.71102
1381.275, 71.57473
1383.204, 71.59300
1385.132, 71.78107
1387.061, 72.15569
1388.989, 72.96202
1390.918, 73.31788
1392.846, 72.77757
1394.775, 72.45389
1396.703, 72.50453
1398.631, 72.55065
1400.560, 72.51955
1402.488, 72.76854
1404.417, 72.65543
1406.345, 73.11663
1408.274, 72.58870
1410.202, 72.55947
1412.131, 72.57963
1414.059, 72.11810
1415.988, 71.96125
1417.916, 72.39819
1419.845, 72.65408
1421.773, 72.62048
1423.702, 72.76350
1425.630, 73.05363
1427.558, 73.41591
1429.487, 73.95616
1431.415, 73.54223
1433.344, 73.67188
1435.272, 73.55881
1437.201, 73.19325
1439.129, 73.12672
1441.058, 72.80043
1442.986, 72.46951
1444.915, 72.30241
1446.843, 72.27496
1448.771, 72.10463
1450.700, 72.25332
1452.628, 71.83772
1454.557, 72.56313
1456.485, 73.17680
1458.414, 73.32777
1460.342, 73.11979
1462.271, 72.97334
1464.199, 72.89573
1466.128, 72.76817
1468.056, 72.29373
1469.985, 72.25703
1471.913, 71.64587
1473.842, 71.92844
1475.770, 71.98364
1477.698, 71.86356
1479.627, 71.60619
1481.555, 71.16031
1483.484, 70.78677
1485.412, 71.00832
1487.341, 71.44499
1489.269, 71.84370
1491.198, 71.81062
1493.126, 70.99140
1495.055, 70.50217
1496.983, 70.51855
1498.912, 70.49436
1500.840, 70.65053
1502.769, 70.99284
1504.697, 71.39882
1506.625, 71.47342
1508.554, 71.12528
1510.482, 70.72517
1512.411, 70.37917
1514.339, 70.09215
1516.268, 70.09921
1518.196, 69.79700
1520.125, 69.90382
1522.053, 69.48348
1523.982, 69.47048
1525.910, 69.40827
1527.839, 69.20146
1529.767, 69.14603
1531.696, 69.36033
1533.624, 69.59294
1535.552, 69.76607
1537.481, 69.66759
1539.409, 70.35570
1541.338, 70.81618
1543.266, 71.25672
1545.195, 71.06506
1547.123, 70.18343
1549.052, 69.85405
1550.980, 69.94747
1552.909, 70.85156
1554.837, 71.87189
1556.766, 71.55766
1558.694, 70.76841
1560.623, 70.00855
1562.551, 69.78835
1564.479, 70.05391
1566.408, 70.25911
1568.336, 70.72580
1570.265, 71.16672
1572.193, 71.45879
1574.122, 71.61962
1576.050, 71.72601
1577.979, 71.73518
1579.907, 71.73878
1581.836, 71.77467
1583.764, 71.87810
1585.693, 72.13100
1587.621, 72.40791
1589.550, 72.69071
1591.478, 73.43026
1593.406, 73.31264
1595.335, 73.40083
1597.263, 73.54286
1599.192, 72.96130
1601.120, 72.75977
1603.049, 73.85455
1604.977, 74.87407
1606.906, 75.83641
1608.834, 76.34297
1610.763, 77.17673
1612.691, 77.07143
1614.620, 78.14820
1616.548, 77.80772
1618.477, 77.59457
1620.405, 78.27730
1622.333, 78.95623
1624.262, 79.73747
1626.190, 80.32014
1628.119, 80.71338
1630.047, 81.88783
1631.976, 83.02042
1633.904, 82.88436
1635.833, 82.92244
1637.761, 83.86950
1639.690, 84.48676
1641.618, 84.87145
1643.547, 85.23466
1645.475, 85.22123
1647.404, 85.25426
1649.332, 85.31904
1651.260, 84.93534
1653.189, 84.81914
1655.117, 85.44988
1657.046, 86.01812
1658.974, 86.08510
1660.903, 85.00510
1662.831, 83.97389
1664.760, 84.44938
1666.688, 84.94389
1668.617, 85.05263
1670.545, 85.08986
1672.474, 85.06987
1674.402, 84.62660
1676.331, 83.77718
1678.259, 84.36360
1680.188, 85.31429
1682.116, 84.89682
1684.044, 84.32478
1685.973, 83.94205
1687.901, 83.48995
1689.830, 82.41946
1691.758, 81.56268
1693.687, 80.38223
1695.615, 79.15933
1697.544, 78.56657
1699.472, 77.23375
1701.401, 75.74259
1703.329, 75.16457
1705.258, 74.45247
1707.186, 72.82231
1709.115, 71.48713
1711.043, 70.71809
1712.971, 69.94673
1714.900, 68.40051
1716.828, 66.84881
1718.757, 65.91596
1720.685, 65.10870
1722.614, 64.52805
1724.542, 63.96012
1726.471, 62.88758
1728.399, 62.58185
1730.328, 61.34719
1732.256, 61.56580
1734.185, 61.31346
1736.113, 60.59552
1738.042, 59.89433
1739.970, 59.20727
1741.898, 58.53234
1743.827, 58.57735
1745.755, 58.42716
1747.684, 58.04427
1749.612, 57.76964
1751.541, 57.34034
1753.469, 57.05231
1755.398, 56.34461
1757.326, 56.31838
1759.255, 56.00896
1761.183, 55.65179
1763.112, 55.66907
1765.040, 55.34351
1766.969, 55.03447
1768.897, 54.90886
1770.825, 54.37613
1772.754, 53.75120
1774.682, 53.72950
1776.611, 53.87628
1778.539, 54.24524
1780.468, 54.42283
1782.396, 54.09495
1784.325, 54.15863
1786.253, 54.27875
1788.182, 53.77205
1790.110, 53.30964
1792.039, 52.79964
1793.967, 52.73896
1795.896, 51.68325
1797.824, 52.57632
1799.752, 52.98992
1801.681, 52.65049
1803.609, 52.43196
1805.538, 52.13932
1807.466, 51.44148
1809.395, 51.04174
1811.323, 52.43218
1813.252, 53.19151
1815.180, 51.95758
1817.109, 51.37451
1819.037, 51.52653
1820.966, 51.34202
1822.894, 51.23753
1824.823, 50.98440
1826.751, 51.19102
1828.679, 50.71631
1830.608, 51.72609
1832.536, 50.31996
1834.465, 49.84140
1836.393, 50.42302
1838.322, 51.00704
1840.250, 50.84043
1842.179, 49.93801
1844.107, 49.22146
1846.036, 49.09507
1847.964, 48.96976
1849.893, 49.87770
1851.821, 49.64889
1853.750, 50.28817
1855.678, 51.13195
1857.606, 51.27209
1859.535, 50.55613
1861.463, 49.64109
1863.392, 49.61293
1865.320, 49.44733
1867.249, 50.52757
1869.177, 49.87256
1871.106, 50.39984
1873.034, 50.73283
1874.963, 50.08776
1876.891, 49.84673
1878.820, 49.86013
1880.748, 49.27498
1882.677, 48.73821
1884.605, 48.92556
1886.533, 49.31898
1888.462, 49.93990
1890.390, 50.30386
1892.319, 49.90163
1894.247, 49.77565
1896.176, 49.74493
1898.104, 49.53465
1900.033, 49.34579
1901.961, 49.06908
1903.890, 48.89586
1905.818, 48.81165
1907.747, 49.10345
1909.675, 48.78492
1911.604, 48.27936
1913.532, 49.17543
1915.460, 49.60758
1917.389, 48.68409
1919.317, 47.95244
1921.246, 47.62193
1923.174, 47.66819
1925.103, 47.86089
1927.031, 48.08271
1928.960, 48.22811
1930.888, 47.70094
1932.817, 46.84393
1934.745, 46.56948
1936.674, 46.68373
1938.602, 46.90401
1940.531, 47.45131
1942.459, 47.50028
1944.387, 47.41374
1946.316, 47.36114
1948.244, 47.01394
1950.173, 46.79261
1952.101, 46.77534
1954.030, 46.50229
1955.958, 46.31672
1957.887, 46.73554
1959.815, 46.69482
1961.744, 46.28369
1963.672, 45.52301
1965.601, 45.46598
1967.529, 45.10675
1969.458, 45.03859
1971.386, 44.96767
1973.314, 45.13228
1975.243, 45.49723
1977.171, 45.54322
1979.100, 45.89373
1981.028, 45.35639
1982.957, 45.52713
1984.885, 45.44175
1986.814, 45.10071
1988.742, 45.32532
1990.671, 44.56314
1992.599, 44.46238
1994.528, 44.60386
1996.456, 44.56789
1998.385, 44.69666
2000.313, 44.58216
2002.241, 44.52259
2004.170, 44.32899
2006.098, 44.53970
2008.027, 43.85808
2009.955, 43.18750
2011.884, 43.04155
2013.812, 43.59742
2015.741, 43.51759
2017.669, 42.84068
2019.598, 42.26197
2021.526, 41.93364
2023.455, 41.89005
2025.383, 42.75920
2027.312, 43.37777
2029.240, 42.87447
2031.168, 42.79909
2033.097, 43.12642
2035.025, 42.88161
2036.954, 42.33497
2038.882, 41.96900
2040.811, 41.80809
2042.739, 41.71213
2044.668, 41.65004
2046.596, 41.51912
2048.525, 41.34442
2050.453, 41.27835
2052.382, 41.59174
2054.310, 41.48396
2056.239, 41.01394
2058.167, 41.51487
2060.095, 41.05706
2062.024, 40.44619
2063.952, 40.12574
2065.881, 39.79882
2067.809, 39.67822
2069.738, 39.60668
2071.666, 39.74126
2073.595, 39.76006
2075.523, 39.93206
2077.452, 40.19888
2079.380, 39.90863
2081.309, 39.60838
2083.237, 39.79644
2085.166, 39.37104
2087.094, 39.34730
2089.022, 39.40225
2090.951, 39.11122
2092.879, 39.42145
2094.808, 39.32536
2096.736, 39.10631
2098.665, 38.57548
2100.593, 38.11756
2102.522, 38.01274
2104.450, 37.80520
2106.379, 37.61749
2108.307, 37.18026
2110.236, 36.99093
2112.164, 37.46687
2114.093, 37.33074
2116.021, 36.93752
2117.949, 37.37688
2119.878, 37.29349
2121.806, 37.35828
2123.735, 37.32719
2125.663, 36.50787
2127.592, 36.19860
2129.520, 36.47515
2131.449, 36.78673
2133.377, 36.83654
2135.306, 36.67056
2137.234, 36.75080
2139.163, 35.48657
2141.091, 36.40790
2143.020, 36.23997
2144.948, 35.68260
2146.876, 36.68567
2148.805, 37.04545
2150.733, 36.58695
2152.662, 36.15392
2154.590, 35.60337
2156.519, 35.70766
2158.447, 35.76444
2160.376, 35.53391
2162.304, 36.10704
2164.233, 36.61266
2166.161, 36.09457
2168.090, 35.32964
2170.018, 35.50223
2171.947, 36.18805
2173.875, 36.40063
2175.803, 36.09258
2177.732, 35.71893
2179.660, 35.54970
2181.589, 34.92863
2183.517, 34.64754
2185.446, 34.71066
2187.374, 34.42012
2189.303, 35.59794
2191.231, 34.47615
2193.160, 34.74328
2195.088, 35.13668
2197.017, 34.23107
2198.945, 33.60708
2200.874, 34.05056
2202.802, 34.15949
2204.730, 33.83797
2206.659, 33.80474
2208.587, 33.98507
2210.516, 33.87104
2212.444, 33.91925
2214.373, 33.81366
2216.301, 33.50237
2218.230, 34.17804
2220.158, 34.72278
2222.087, 33.76665
2224.015, 33.21894
2225.944, 33.23891
2227.872, 33.25757
2229.801, 33.22506
2231.729, 33.35701
2233.657, 32.92240
2235.586, 32.59572
2237.514, 33.86961
2239.443, 34.62637
2241.371, 34.50410
2243.300, 34.50220
2245.228, 34.04467
2247.157, 33.88333
2249.085, 33.68422
2251.014, 33.21579
2252.942, 33.47949
2254.871, 33.09228
2256.799, 33.43000
2258.728, 33.45601
2260.656, 33.01239
2262.584, 32.87769
2264.513, 32.78260
2266.441, 32.92191
2268.370, 32.75877
2270.298, 32.75022
2272.227, 33.95702
2274.155, 34.47352
2276.084, 34.35864
2278.012, 34.42263
2279.941, 34.22414
2281.869, 33.93641
2283.798, 33.26471
2285.726, 32.59748
2287.655, 33.06564
2289.583, 34.08712
2291.511, 34.40387
2293.440, 34.28916
2295.368, 33.63856
2297.297, 32.73375
2299.225, 33.49273
2301.154, 34.54826
2303.082, 34.26818
2305.011, 33.57460
2306.939, 33.35961
2308.868, 33.94723
2310.796, 34.26438
2312.725, 33.85807
2314.653, 34.16557
2316.582, 33.85300
2318.510, 33.86327
2320.438, 33.38214
2322.367, 32.76827
2324.295, 32.68551
2326.224, 32.65215
2328.152, 32.77605
2330.081, 33.39400
2332.009, 33.28153
2333.938, 33.29309
2335.866, 33.19902
2337.795, 32.72120
2339.723, 32.54699
2341.652, 31.76754
2343.580, 31.24299
2345.509, 31.36395
2347.437, 31.76175
2349.365, 32.24004
2351.294, 32.16322
2353.222, 31.44958
2355.151, 30.92491
2357.079, 30.94822
2359.008, 31.15908
2360.936, 32.05272
2362.865, 32.16751
2364.793, 31.85268
2366.722, 31.33321
2368.650, 31.05192
2370.579, 30.89767
2372.507, 30.50175
2374.436, 30.48176
2376.364, 30.75003
2378.292, 29.86629
2380.221, 29.55599
2382.149, 30.49803
2384.078, 31.35509
2386.006, 31.73361
2387.935, 30.93216
2389.863, 30.41166
2391.792, 30.39673
2393.720, 30.25901
2395.649, 29.69412
2397.577, 29.74941
2399.506, 29.61401
2401.434, 29.58565
2403.363, 29.63629
2405.291, 29.72889
2407.219, 29.76906
2409.148, 29.26995
2411.076, 29.85512
2413.005, 30.02978
2414.933, 28.54228
2416.862, 28.07074
2418.790, 28.49004
2420.719, 29.01072
2422.647, 28.66023
2424.576, 27.81091
2426.504, 28.35430
2428.433, 28.34039
2430.361, 27.07099
2432.290, 27.30292
2434.218, 28.04947
2436.146, 29.04756
2438.075, 29.45374
2440.003, 29.40009
2441.932, 28.24017
2443.860, 27.82078
2445.789, 27.84326
2447.717, 27.86027
2449.646, 27.58081
2451.574, 27.71807
2453.503, 27.54372
2455.431, 27.80285
2457.360, 27.39434
2459.288, 27.40485
2461.217, 27.67521
2463.145, 27.96387
2465.073, 27.89956
2467.002, 26.98980
2468.930, 27.72644
2470.859, 27.47831
2472.787, 27.05806
2474.716, 27.31691
2476.644, 27.28349
2478.573, 26.93017
2480.501, 27.25057
2482.430, 27.37538
2484.358, 27.56864
2486.287, 27.92231
2488.215, 28.13984
2490.144, 28.17031
2492.072, 27.72766
2494.000, 27.14663
2495.929, 26.68286
2497.857, 26.73922
2499.786, 26.61894
2501.714, 26.15130
2503.643, 26.38161
2505.571, 26.20962
2507.500, 26.75670
2509.428, 26.53116
2511.357, 27.12177
2513.285, 27.98629
2515.214, 28.06008
2517.142, 27.89009
2519.071, 28.30767
2520.999, 28.07520
2522.927, 27.30068
2524.856, 27.53147
2526.784, 26.42799
2528.713, 27.18705
2530.641, 26.95373
2532.570, 26.58257
2534.498, 26.26753
2536.427, 25.76194
2538.355, 26.18276
2540.284, 27.22594
2542.212, 26.96201
2544.141, 26.82354
2546.069, 27.35680
2547.998, 26.97335
2549.926, 26.92569
2551.854, 27.47641
2553.783, 26.89192
2555.711, 27.01702
2557.640, 28.00609
2559.568, 26.38587
2561.497, 25.23827
2563.425, 25.59066
2565.354, 26.68795
2567.282, 26.92687
2569.211, 25.99194
2571.139, 25.91424
2573.068, 26.31350
2574.996, 26.70463
2576.925, 26.46646
2578.853, 26.83548
2580.781, 26.78065
2582.710, 26.49657
2584.638, 26.94307
2586.567, 26.00482
2588.495, 26.42753
2590.424, 26.56696
2592.352, 26.60145
2594.281, 26.74118
2596.209, 27.20902
2598.138, 26.69595
2600.066, 26.79805
2601.995, 26.65873
2603.923, 25.40214
2605.852, 26.21308
2607.780, 26.60927
2609.708, 24.60503
2611.637, 25.73288
2613.565, 26.80329
2615.494, 25.61832
2617.422, 25.51906
2619.351, 25.53619
2621.279, 25.17605
2623.208, 25.47292
2625.136, 25.86428
2627.065, 26.16563
2628.993, 26.04633
2630.922, 25.81858
2632.850, 25.66767
2634.779, 25.35800
2636.707, 25.04597
2638.635, 24.99859
2640.564, 25.79834
2642.492, 26.33094
2644.421, 26.21858
2646.349, 26.38452
2648.278, 26.04464
2650.206, 26.00914
2652.135, 26.05116
2654.063, 25.66933
2655.992, 26.07501
2657.920, 25.89036
2659.849, 25.78752
2661.777, 26.05066
2663.706, 25.96144
2665.634, 26.23968
2667.563, 26.23784
2669.491, 26.67308
2671.419, 27.11140
2673.348, 27.10633
2675.276, 25.75183
2677.205, 25.83138
2679.133, 27.10534
2681.062, 25.00229
2682.990, 24.61763
2684.919, 26.08092
2686.847, 27.77898
2688.776, 27.39245
2690.704, 25.84980
2692.633, 25.70463
2694.561, 26.22071
2696.490, 26.56875
2698.418, 26.27847
2700.346, 27.17714
2702.275, 27.75450
2704.203, 26.94729
2706.132, 26.79651
2708.060, 27.17292
2709.989, 28.02700
2711.917, 28.42631
2713.846, 28.11826
2715.774, 27.45318
2717.703, 28.32153
2719.631, 28.87098
2721.560, 28.39900
2723.488, 26.88948
2725.417, 26.33505
2727.345, 26.74116
2729.273, 27.85852
2731.202, 28.73790
2733.130, 28.68262
2735.059, 28.54542
2736.987, 28.33787
2738.916, 27.78521
2740.844, 27.80979
2742.773, 28.57575
2744.701, 29.25948
2746.630, 28.82505
2748.558, 28.30184
2750.487, 28.94566
2752.415, 30.50196
2754.344, 30.34200
2756.272, 29.69963
2758.200, 28.67549
2760.129, 29.89594
2762.057, 30.15088
2763.986, 29.25020
2765.914, 29.69136
2767.843, 29.38594
2769.771, 29.29523
2771.700, 30.51984
2773.628, 30.99636
2775.557, 31.39697
2777.485, 31.89982
2779.414, 32.75665
2781.342, 32.98196
2783.271, 32.06648
2785.199, 32.32118
2787.127, 33.24226
2789.056, 34.14262
2790.984, 34.58836
2792.913, 34.30758
2794.841, 33.47927
2796.770, 32.65525
2798.698, 33.22710
2800.627, 33.10381
2802.555, 34.22431
2804.484, 34.54434
2806.412, 35.72534
2808.341, 37.51892
2810.269, 36.39230
2812.198, 36.37047
2814.126, 37.56787
2816.054, 35.79608
2817.983, 35.67320
2819.911, 36.74515
2821.840, 38.00834
2823.768, 38.06273
2825.697, 37.93700
2827.625, 38.92655
2829.554, 40.07389
2831.482, 39.67029
2833.411, 40.02904
2835.339, 38.09493
2837.268, 39.42417
2839.196, 40.00030
2841.125, 39.59704
2843.053, 40.50718
2844.981, 41.62107
2846.910, 42.03651
2848.838, 41.69289
2850.767, 41.15330
2852.695, 41.24319
2854.624, 41.93114
2856.552, 42.43256
2858.481, 43.08513
2860.409, 43.66097
2862.338, 43.71386
2864.266, 44.41777
2866.195, 43.77115
2868.123, 43.18682
2870.052, 43.29323
2871.980, 45.15674
2873.908, 45.63925
2875.837, 44.75727
2877.765, 44.07111
2879.694, 44.94631
2881.622, 45.21636
2883.551, 45.03811
2885.479, 45.27396
2887.408, 46.33936
2889.336, 45.98798
2891.265, 44.97298
2893.193, 45.91101
2895.122, 47.32738
2897.050, 48.48755
2898.979, 46.96653
2900.907, 47.04579
2902.835, 47.92801
2904.764, 48.06152
2906.692, 47.84354
2908.621, 47.28392
2910.549, 46.71279
2912.478, 46.99290
2914.406, 46.74504
2916.335, 46.45331
2918.263, 46.58598
2920.191, 46.95687
2922.120, 47.00200
2924.048, 46.46869
2925.977, 46.81637
2927.905, 46.04896
2929.834, 46.29201
2931.762, 45.70133
2933.691, 46.45144
2935.619, 46.54637
2937.548, 46.49134
2939.476, 44.23763
2941.405, 43.57624
2943.333, 44.15377
2945.261, 45.59560
2947.190, 45.97142
2949.118, 45.57541
2951.047, 45.07750
2952.975, 45.74654
2954.904, 44.62791
2956.832, 44.98177
2958.761, 44.60346
2960.689, 44.74120
2962.618, 43.98792
2964.546, 43.10801
2966.475, 42.65658
2968.403, 42.38494
2970.332, 42.23142
2972.260, 42.37758
2974.188, 42.24007
2976.117, 42.55093
2978.045, 42.19134
2979.974, 40.50193
2981.902, 40.19857
2983.831, 41.22010
2985.759, 41.91314
2987.688, 40.57889
2989.616, 39.82354
2991.545, 39.58553
2993.473, 39.72413
2995.402, 40.45737
2997.330, 40.17245
2999.259, 39.76244
3001.187, 38.56517
3003.115, 38.68975
3005.044, 37.34095
3006.972, 37.59597
3008.901, 37.47902
3010.829, 37.16425
3012.758, 37.63253
3014.686, 36.85387
3016.615, 37.15342
3018.543, 37.50024
3020.472, 36.43120
3022.400, 37.09623
3024.329, 37.19262
3026.257, 36.09324
3028.186, 37.23749
3030.114, 36.74771
3032.042, 35.46336
3033.971, 34.81443
3035.899, 34.51394
3037.828, 33.16795
3039.756, 34.34646
3041.685, 34.92700
3043.613, 35.43182
3045.542, 35.12499
3047.470, 33.41441
3049.399, 33.23476
3051.327, 33.70192
3053.256, 34.50019
3055.184, 33.65097
3057.113, 32.72718
3059.041, 32.59678
3060.969, 31.86100
3062.898, 32.25898
3064.826, 33.81229
3066.755, 32.79194
3068.683, 33.25691
3070.612, 31.47221
3072.540, 32.59865
3074.469, 33.20206
3076.397, 32.56255
3078.326, 33.39126
3080.254, 31.94083
3082.183, 33.42610
3084.111, 32.64463
3086.040, 31.69709
3087.968, 31.27398
3089.896, 31.48502
3091.825, 31.37193
3093.753, 32.54836
3095.682, 31.51104
3097.610, 31.37416
3099.539, 30.26436
3101.467, 31.16350
3103.396, 31.42773
3105.324, 31.41250
3107.253, 31.85674
3109.181, 31.76129
3111.110, 31.48035
3113.038, 31.39359
3114.967, 30.74287
3116.895, 29.84217
3118.823, 29.64918
3120.752, 29.13599
3122.680, 29.19744
3124.609, 28.59882
3126.537, 28.51739
3128.466, 28.33874
3130.394, 28.94199
3132.323, 29.33598
3134.251, 29.20438
3136.180, 29.83293
3138.108, 30.09108
3140.037, 30.49939
3141.965, 30.66637
3143.894, 30.72016
3145.822, 30.43810
3147.750, 29.64940
3149.679, 29.01823
3151.607, 27.46028
3153.536, 27.14582
3155.464, 27.58891
3157.393, 28.51818
3159.321, 28.69156
3161.250, 28.73333
3163.178, 28.56878
3165.107, 28.09392
3167.035, 27.46595
3168.964, 26.54598
3170.892, 25.77383
3172.821, 25.95664
3174.749, 25.46889
3176.677, 26.26251
3178.606, 27.50372
3180.534, 26.90845
3182.463, 27.24281
3184.391, 25.68372
3186.320, 26.52969
3188.248, 25.37779
3190.177, 24.75425
3192.105, 22.95929
3194.034, 22.30982
3195.962, 22.31186
3197.891, 23.63062
3199.819, 23.05350
3201.748, 23.62971
3203.676, 24.48914
3205.604, 24.02811
3207.533, 24.63945
3209.461, 24.24287
3211.390, 24.18405
3213.318, 23.27921
3215.247, 23.40074
3217.175, 22.55064
3219.104, 21.10495
3221.032, 22.22910
3222.961, 23.61056
3224.889, 22.37388
3226.818, 23.19023
3228.746, 23.08568
3230.675, 22.97333
3232.603, 22.92871
3234.531, 22.04346
3236.460, 22.08206
3238.388, 21.17388
3240.317, 20.37578
3242.245, 20.51044
3244.174, 20.22850
3246.102, 20.34830
3248.031, 20.32126
3249.959, 20.31163
3251.888, 21.00219
3253.816, 20.73326
3255.745, 21.72245
3257.673, 22.68566
3259.602, 21.50014
3261.530, 20.52783
3263.458, 21.69156
3265.387, 22.09890
3267.315, 20.02802
3269.244, 21.14417
3271.172, 21.60770
3273.101, 20.66733
3275.029, 19.63056
3276.958, 21.60315
3278.886, 22.07968
3280.815, 20.76716
3282.743, 19.03422
3284.672, 18.87288
3286.600, 20.56948
3288.529, 20.91869
3290.457, 20.23741
3292.385, 20.15649
3294.314, 20.46344
3296.242, 20.32617
3298.171, 19.07696
3300.099, 17.37616
3302.028, 19.85611
3303.956, 18.37107
3305.885, 17.19645
3307.813, 18.38446
3309.742, 19.02497
3311.670, 17.47408
3313.599, 16.27758
3315.527, 16.30520
3317.456, 17.54513
3319.384, 16.83739
3321.313, 17.04397
3323.241, 17.53600
3325.169, 17.34945
3327.098, 16.97222
3329.026, 17.21687
3330.955, 16.64195
3332.883, 16.88019
3334.812, 15.77639
3336.740, 16.72435
3338.669, 16.62139
3340.597, 15.58337
3342.526, 13.64747
3344.454, 14.60306
3346.383, 12.66255
3348.311, 13.15001
3350.240, 15.63676
3352.168, 12.82871
3354.096, 13.58307
3356.025, 13.71507
3357.953, 12.90516
3359.882, 12.37483
3361.810, 13.10275
3363.739, 12.64243
3365.667, 12.33568
3367.596, 12.63555
3369.524, 11.68391
3371.453, 11.11662
3373.381, 11.34727
3375.310, 11.81934
3377.238, 12.17425
3379.167, 11.41529
3381.095, 11.12650
3383.023, 11.40019
3384.952, 11.55784
3386.880, 11.41547
3388.809, 12.17541
3390.737, 12.99404
3392.666, 13.07276
3394.594, 12.47374
3396.523, 11.73134
3398.451, 11.33353
3400.380, 12.71104
3402.308, 14.02999
3404.237, 12.88850
3406.165, 11.80914
3408.094, 11.86049
3410.022, 12.19271
3411.950, 12.70531
3413.879, 14.15605
3415.807, 13.36259
3417.736, 14.36834
3419.664, 11.86631
3421.593, 10.74580
3423.521, 9.107404
3425.450, 11.46471
3427.378, 11.79043
3429.307, 10.56699
3431.235, 10.54725
3433.164, 9.824198
3435.092, 9.203209
3437.021, 8.354488
3438.949, 8.286261
3440.877, 6.484664
3442.806, 6.339239
3444.734, 6.022856
3446.663, 7.138518
3448.591, 8.589047
3450.520, 6.143419
3452.448, 6.617837
3454.377, 6.163094
3456.305, 5.144065
3458.234, 4.600737
3460.162, 4.790729
3462.091, 7.153201
3464.019, 8.028136
3465.948, 6.676449
3467.876, 4.676541
3469.804, 6.143770
3471.733, 4.736299
3473.661, 5.862728
3475.590, 6.303524
3477.518, 3.709967
3479.447, 5.072568
3481.375, 4.221566
3483.304, 3.027476
3485.232, 3.760342
3487.161, 3.067392
3489.089, 2.399531
3491.018, 3.163719
3492.946, 3.929109
3494.875, 4.382698
3496.803, 5.050459
3498.731, 5.066176
3500.660, 5.006042
3502.588, 4.646930
3504.517, 4.592483
3506.445, 3.761680
3508.374, 4.006115
3510.302, 4.031934
3512.231, 4.875244
3514.159, 5.089447
3516.088, 4.311972
3518.016, 5.371957
3519.945, 4.763403
3521.873, 4.114120
3523.802, 3.595402
3525.730, 3.758618
3527.658, 3.277813
3529.587, 3.278155
3531.515, 3.842678
3533.444, 3.752803
3535.372, 6.023883
3537.301, 7.605839
3539.229, 5.622300
3541.158, 3.899121
3543.086, 4.442854
3545.015, 6.287278
3546.943, 7.342653
3548.872, 5.836774
3550.800, 6.147290
3552.729, 6.346095
3554.657, 6.316180
3556.585, 6.795236
3558.514, 7.634353
3560.442, 6.477345
3562.371, 6.989682
3564.299, 7.357150
3566.228, 6.712655
3568.156, 7.401288
3570.085, 5.695296
3572.013, 7.261794
3573.942, 7.848842
3575.870, 6.587341
3577.799, 5.859139
3579.727, 5.134950
3581.656, 5.388177
3583.584, 5.489555
3585.512, 5.734745
3587.441, 6.054305
3589.369, 6.258913
3591.298, 5.725395
3593.226, 6.641913
3595.155, 7.024205
3597.083, 6.867459
3599.012, 5.825725
3600.940, 5.602046
3602.869, 5.996195
3604.797, 6.178681
3606.726, 6.195235
3608.654, 5.948941
3610.583, 5.999184
3612.511, 5.903357
3614.439, 5.810955
3616.368, 5.733562
3618.296, 5.012441
3620.225, 5.527869
3622.153, 5.550752
3624.082, 5.544261
3626.010, 3.640817
3627.939, 4.727207
3629.867, 4.011781
3631.796, 1.972801
3633.724, 4.202579
3635.653, 1.519848
3637.581, 2.250651
3639.510, 3.699461
3641.438, 2.682375
3643.366, 3.908617
3645.295, 3.601285
3647.223, 2.628117
3649.152, 1.234018
3651.080, 1.403385
3653.009, 0.9721702
3654.937, 1.396884
3656.866, 1.424782
3658.794, 2.593816
3660.723, 3.325027
3662.651, 3.246964
3664.580, 4.066104
3666.508, 2.205355
3668.437, 2.109260
3670.365, 4.186354
3672.293, 2.268214
3674.222, 0.7490727
3676.150, 5.055476
3678.079, 1.881320
3680.007, 2.466014
3681.936, 1.957518
3683.864, 1.065107
3685.793, 1.319256
3687.721, 2.422877
3689.650, 1.326914
3691.578, 2.400431
3693.507, 0.4717797
3695.435, 0.3014542
3697.364, 1.446594
3699.292, 1.335643
3701.220, 1.970205
3703.149, 0.7784303
3705.077, 5.3467151E-02
3707.006, 0.3093109
3708.934, -0.2241330
3710.863, 3.347167
3712.791, 0.2609805
3714.720, 0.7601064
3716.648, 2.042761
3718.577, 0.2685042
3720.505, -0.8816949
3722.434, -0.1296210
3724.362, -0.8126376
3726.291, -0.2546704
3728.219, -0.5538605
3730.147, -0.2625211
3732.076, -0.3142331
3734.004, 0.5434148
3735.933, 9.0083830E-02
3737.861, 0.6343578
3739.790, 2.130714
3741.718, 1.614438
3743.647, 2.531505
3745.575, 2.671266
3747.504, 0.9154999
3749.432, 0.9092476
3751.361, -0.2083062
3753.289, 4.7182020E-02
3755.218, 1.098623
3757.146, 1.246237
3759.074, 1.180906
3761.003, 1.842192
3762.931, 1.574371
3764.860, 0.7216972
3766.788, 1.216134
3768.717, 1.043742
3770.645, 0.5002277
3772.574, 0.3071967
3774.502, 0.7346383
3776.431, -5.4179791E-02
3778.359, 1.299991
3780.288, 1.127481
3782.216, 1.808411
3784.145, 2.247753
3786.073, 1.675574
3788.001, 2.262465
3789.930, 1.788863
3791.858, 0.6615378
3793.787, 0.4102674
3795.715, 0.1326751
3797.644, -0.1964133
3799.572, -0.4736739
3801.501, -1.350937
3803.429, -0.4512947
3805.358, 1.332359
3807.286, 0.3697674
3809.215, 0.2139592
3811.143, 0.5143829
3813.072, -4.8076000E-02
3815.000, 8.5222498E-02
3816.928, 0.8740553
3818.857, 1.723612
3820.785, 0.8387491
3822.714, 0.3280255
3824.642, 0.3321674
3826.571, 0.3663735
3828.499, 0.6179960
3830.428, 0.1248096
3832.356, 0.3864519
3834.285, 0.2037626
3836.213, -0.7356612
3838.142, -0.1947191
3840.070, 1.031232
3841.999, 0.4451788
3843.927, -2.2692131E-02
3845.855, -0.4607226
3847.784, -0.1372305
3849.712, 2.639490
3851.641, 1.042058
3853.569, 0.7681559
3855.498, 1.789553
3857.426, -1.076006
3859.355, -0.8672691
3861.283, -1.379200
3863.212, -1.491813
3865.140, -0.3977025
3867.069, 0.2807619
3868.997, -0.3901833
3870.926, -1.090085
3872.854, 0.5163364
3874.782, 1.259694
3876.711, 2.117309
3878.639, 1.536366
3880.568, -1.290743
3882.496, -0.1667704
3884.425, 1.764322
3886.353, -2.429853
3888.282, 0.1555560
3890.210, 2.283054
3892.139, 0.7026075
3894.067, -0.1137990
3895.996, 0.9740878
3897.924, 1.455239
3899.853, 0.6692219
3901.781, 0.4581836
3903.709, 0.8766542
3905.638, 0.8619758
3907.566, 2.154526
3909.495, 3.052645
3911.423, 2.907370
3913.352, 2.550589
3915.280, 2.274289
3917.209, 0.7860802
3919.137, 0.3704352
3921.066, 0.1867330
3922.994, -8.3381273E-02
3924.923, 0.7363579
3926.851, 0.6715950
3928.780, 0.7954572
3930.708, 0.4091635
3932.636, -0.1295681
3934.565, -1.000697
3936.493, -1.313040
3938.422, -2.215888
3940.350, -2.149260
3942.279, -2.016936
3944.207, -0.8474875
3946.136, -1.199437
3948.064, -0.2207763
3949.993, 0.1639468
3951.921, 2.910228
3953.850, -1.420976
3955.778, 6.7813590E-02
3957.707, 1.843025
3959.635, 1.6815679E-02
3961.563, 0.9743425
3963.492, 1.784525
3965.420, 0.6572820
3967.349, 0.2529751
3969.277, 1.948636
3971.206, 0.5237010
3973.134, 1.140263
3975.063, 0.5951804
3976.991, -0.2998937
3978.920, -1.187136
3980.848, 1.194833
3982.777, 1.166116
3984.705, 1.076969
3986.634, 0.8146811
3988.562, 0.6232634
3990.490, 5.7293631E-02
3992.419, -1.064379
3994.347, 0.9560813
3996.276, 2.452396
3998.204, 1.103879
4000.133, -0.8623819
4002.061, 1.275609
4003.990, 0.2045071
4005.918, -1.339836
4007.847, 0.3104493
4009.775, 1.454541
4011.704, 2.905055
4013.632, 0.4930406
4015.561, -1.333566
4017.489, 2.650925
4019.417, 0.4841646
4021.346, 0.7590624
4023.274, 1.403547
4025.203, -4.2214431E-02
4027.131, -0.3310390
4029.060, 0.3603801
4030.988, 1.114020
4032.917, 1.621989
4034.845, 1.678654
4036.774, 1.373983
4038.702, 1.603013
4040.631, 0.2457093
4042.559, 1.158608
4044.488, 0.9344962
4046.416, -0.1128254
4048.344, 0.2518998
4050.273, 0.8129054
4052.201, 1.063867
4054.130, 0.2124394
4056.058, 7.7582709E-02
4057.987, 0.3072707
4059.915, 1.083373
4061.844, 0.1071056
4063.772, -0.9978113
4065.701, 0.7428986
4067.629, 2.485741
4069.558, 0.1223009
4071.486, -1.342335
4073.415, -0.1696661
4075.343, -0.2950046
4077.271, 0.9273609
4079.200, -0.4339109
4081.128, -0.2194114
4083.057, 1.251225
4084.985, 0.8854248
4086.914, -0.8778703
4088.842, -2.421820
4090.771, -2.050713
4092.699, 0.6280068
4094.628, 0.6093490
4096.556, 0.5114713
4098.484, 0.9262350
4100.413, 0.8437368
4102.341, -2.6762990E-02
4104.270, 1.209941
4106.198, 0.3063855
4108.127, 0.8360599
4110.055, 1.278832
4111.984, 1.690250
4113.912, 1.263667
4115.841, -0.7277574
4117.769, 0.5971420
4119.698, 9.7491004E-02
4121.626, 0.8154269
4123.555, 0.5709402
4125.483, 6.7812778E-02
4127.412, -4.9152259E-02
4129.340, -0.2813042
4131.269, -0.1601601
4133.197, 0.8366861
4135.125, 0.7716049
4137.054, -0.2472120
4138.982, 1.411653
4140.911, -0.1953383
4142.839, 0.3088110
4144.768, 1.720944
4146.696, 1.616354
4148.625, -0.7928738
4150.553, -0.6199154
4152.481, 0.3939222
4154.410, -0.4549298
4156.338, -7.8520283E-02
4158.267, 0.1010663
4160.195, 0.3895518
4162.124, 2.000955
4164.052, -1.505373
4165.981, 0.3519003
4167.909, -1.282544
4169.838, -0.5250514
4171.766, 0.1741822
4173.695, 0.2156287
4175.623, 4.1998461E-02
4177.552, 0.3418863
4179.480, 0.6506297
4181.409, 0.5946645
4183.337, 1.224346
4185.266, 1.076235
4187.194, -0.1772527
4189.123, -0.7834638
4191.051, 0.7668579
4192.979, 2.755702
4194.908, -0.5366260
4196.836, -0.1865387
4198.765, 2.118710
4200.693, 1.491216
4202.622, 2.063596
4204.550, 0.3126517
4206.479, 1.709521
4208.407, 1.093288
4210.335, 0.4575316
4212.264, 1.803337
4214.192, 0.3907430
4216.121, -0.1879748
4218.049, 2.1537511E-02
4219.978, -7.6554507E-02
4221.906, 0.2873025
4223.835, 1.670451
4225.763, -0.3079171
4227.692, 2.066019
4229.620, 0.9032227
4231.549, -0.8571045
4233.477, -0.4109880
4235.406, 0.3229862
4237.334, 0.5575197
4239.263, -0.1054762
4241.191, -0.5903597
4243.120, 0.9878142
4245.048, 1.043278
4246.977, 1.779281
4248.905, 7.0386462E-02
4250.833, 0.6666076
4252.762, -1.023633
4254.690, 2.834183
4256.619, 1.997073
4258.547, 1.872689
4260.476, 0.8575975
4262.404, -0.9398003
4264.333, -0.1051514
4266.261, 1.179304
4268.189, -0.3341052
4270.118, -0.1730992
4272.046, 0.3394642
4273.975, -0.7993673
4275.903, -0.1274808
4277.832, 0.5111791
4279.760, -0.3944211
4281.689, 0.9085919
4283.617, 1.486222
4285.546, -1.312024
4287.474, -1.510424
4289.403, 0.6169807
4291.331, 1.122574
4293.260, -8.7977678E-02
4295.188, -2.505862
4297.117, 1.5304890E-02
4299.045, -0.5473945
4300.974, 0.7980698
4302.902, -0.3421873
4304.831, -0.3705287
4306.759, 1.3046240E-02
4308.688, -0.8771417
4310.616, 0.6500632
4312.544, -1.622252
4314.473, -0.7978181
4316.401, -0.6167163
4318.330, -1.767486
4320.258, -0.3045315
4322.187, 1.704636
4324.115, -1.327419
4326.043, -1.943335
4327.972, -1.793543
4329.900, 0.3540788
4331.829, 1.213261
4333.757, 1.093364
4335.686, 0.9487848
4337.614, -0.3305164
4339.543, -1.102655
4341.471, -0.1228038
4343.400, 1.589338
4345.328, 1.661604
4347.257, -0.7832481
4349.185, 1.051588
4351.114, -1.501031
4353.042, -0.4682083
4354.971, 0.5786236
4356.899, -7.5873160E-03
4358.828, -0.4545934
4360.756, 1.524515
4362.685, 1.565142
4364.613, -0.2834727
4366.542, -0.7894749
4368.470, -0.4981610
4370.398, 0.1324389
4372.327, -0.2793009
4374.255, -1.821286
4376.184, -1.051040
4378.112, 1.708470
##END=



