##NAMES=Pararealgar
##RRUFFID=R140447
##IDEAL CHEMISTRY=As_4_S_4_
##LOCALITY=Getchell mine, Adam Peak, Potosi District, Osgood Mts, Humboldt County, Nevada, USA
##OWNER=RRUFF
##SOURCE=Rock Currier
##DESCRIPTION=Yellow-orange, vitreous-opaque, poorly crystalline to amorphous, secondary alteration coating on realgar, associated with realgar and calcite.
##STATUS=The identification of this mineral has been confirmed by single-crystal X-ray diffraction
##URL=https://www.rruff.net/odr/rruff_sample/R140447
##DIFFRACTION SAMPLE DESCRIPTION=Single crystal, powder profile is calculated
##CELL PARAMETERS=a: 9.937 b: 9.706 c: 8.531 alpha: 90 beta: 97.37 gamma: 90 volume: 816 crystal system: monoclinic
##FILETYPE=Raman RAW
##RAMAN WAVELENGTH=780

94.23413, 9936.049
96.16260, 10068.43
98.09106, 10294.95
100.0195, 10629.17
101.9480, 11059.64
103.8765, 11618.73
105.8049, 12361.21
107.7334, 13162.89
109.6619, 13924.19
111.5903, 14777.78
113.5188, 15923.07
115.4473, 17345.95
117.3757, 18720.05
119.3042, 20415.75
121.2327, 21536.82
123.1611, 21586.61
125.0896, 21085.69
127.0181, 20548.45
128.9465, 19967.88
130.8750, 19694.49
132.8035, 19788.29
134.7319, 20157.93
136.6604, 20905.96
138.5889, 21851.22
140.5173, 22915.79
142.4458, 24084.14
144.3743, 24884.29
146.3027, 24928.57
148.2312, 25088.95
150.1597, 25441.80
152.0881, 26010.36
154.0166, 27091.70
155.9451, 28543.00
157.8735, 29032.54
159.8020, 27851.03
161.7305, 26650.22
163.6589, 25156.20
165.5874, 24041.79
167.5159, 23705.03
169.4443, 24047.87
171.3728, 24831.25
173.3013, 26605.93
175.2297, 27809.74
177.1582, 28363.99
179.0867, 28421.57
181.0151, 27673.48
182.9436, 26636.96
184.8721, 26170.48
186.8005, 26347.80
188.7290, 26984.42
190.6575, 28256.52
192.5859, 29655.38
194.5144, 31092.22
196.4429, 32479.11
198.3713, 33768.25
200.2998, 34957.64
202.2283, 35899.77
204.1567, 36820.12
206.0852, 36907.52
208.0137, 35403.69
209.9421, 33544.84
211.8706, 31781.94
213.7991, 30291.08
215.7275, 29803.40
217.6560, 30338.67
219.5845, 31456.92
221.5129, 33146.96
223.4414, 35379.66
225.3699, 37832.23
227.2983, 40912.10
229.2268, 45897.10
231.1553, 52729.97
233.0837, 57357.55
235.0122, 59786.13
236.9407, 59627.56
238.8691, 55834.66
240.7976, 50292.90
242.7261, 43159.57
244.6545, 35203.65
246.5830, 28832.79
248.5115, 24007.04
250.4399, 20164.30
252.3684, 17499.16
254.2969, 15389.44
256.2253, 13690.70
258.1538, 12351.37
260.0823, 11355.87
262.0107, 10686.83
263.9392, 10252.50
265.8677, 10046.40
267.7961, 10093.93
269.7246, 10401.42
271.6531, 10949.12
273.5815, 11975.95
275.5100, 13132.25
277.4385, 13838.60
279.3669, 14125.23
281.2954, 14177.25
283.2239, 13796.60
285.1523, 13607.25
287.0808, 13715.65
289.0093, 14061.51
290.9377, 14684.40
292.8662, 15497.88
294.7947, 16347.86
296.7231, 17236.98
298.6516, 18093.78
300.5801, 18695.62
302.5085, 19563.57
304.4370, 20781.89
306.3655, 22327.67
308.2939, 24350.52
310.2224, 26655.04
312.1509, 28887.83
314.0793, 31132.07
316.0078, 32879.73
317.9363, 33835.31
319.8647, 34705.00
321.7932, 35526.89
323.7217, 36463.66
325.6501, 37502.74
327.5786, 38759.54
329.5071, 40686.00
331.4355, 43605.90
333.3640, 46369.86
335.2925, 49293.15
337.2209, 51624.99
339.1494, 52910.71
341.0779, 53738.47
343.0063, 54574.29
344.9348, 55342.70
346.8633, 55838.82
348.7917, 56203.95
350.7202, 55734.09
352.6487, 54262.98
354.5771, 52334.86
356.5056, 49980.70
358.4341, 47347.43
360.3625, 44467.10
362.2910, 41426.94
364.2195, 38449.77
366.1479, 35554.76
368.0764, 32575.95
370.0049, 29411.40
371.9333, 26430.32
373.8618, 23690.03
375.7903, 21227.72
377.7188, 19009.12
379.6472, 17082.20
381.5757, 15578.51
383.5042, 14506.60
385.4326, 13538.94
387.3611, 12703.48
389.2896, 11827.92
391.2180, 10825.25
393.1465, 9867.332
395.0750, 8993.447
397.0034, 8222.184
398.9319, 7581.706
400.8604, 7063.228
402.7888, 6636.155
404.7173, 6297.952
406.6458, 6010.469
408.5742, 5775.350
410.5027, 5574.051
412.4312, 5406.478
414.3596, 5262.856
416.2881, 5139.575
418.2166, 5036.432
420.1450, 4957.718
422.0735, 4900.528
424.0020, 4847.395
425.9304, 4797.513
427.8589, 4753.101
429.7874, 4718.553
431.7158, 4684.151
433.6443, 4640.671
435.5728, 4601.991
437.5012, 4584.936
439.4297, 4580.177
441.3582, 4566.657
443.2866, 4545.048
445.2151, 4522.923
447.1436, 4499.655
449.0720, 4480.169
451.0005, 4467.448
452.9290, 4455.560
454.8574, 4441.623
456.7859, 4428.043
458.7144, 4417.508
460.6428, 4409.103
462.5713, 4400.687
464.4998, 4392.200
466.4282, 4386.890
468.3567, 4389.950
470.2852, 4386.897
472.2136, 4375.816
474.1421, 4359.096
476.0706, 4332.673
477.9990, 4305.214
479.9275, 4284.586
481.8560, 4268.700
483.7844, 4254.600
485.7129, 4242.411
487.6414, 4227.329
489.5698, 4208.174
491.4983, 4187.424
493.4268, 4159.742
495.3552, 4138.208
497.2837, 4135.220
499.2122, 4132.571
501.1406, 4114.487
503.0691, 4089.051
504.9976, 4069.553
506.9260, 4055.974
508.8545, 4044.948
510.7830, 4038.744
512.7114, 4028.369
514.6399, 4010.653
516.5684, 3994.434
518.4968, 3982.920
520.4253, 3972.613
522.3538, 3963.281
524.2822, 3952.763
526.2107, 3937.193
528.1392, 3918.546
530.0676, 3904.117
531.9961, 3894.483
533.9246, 3887.135
535.8530, 3882.699
537.7815, 3878.432
539.7100, 3874.663
541.6384, 3869.080
543.5669, 3858.051
545.4954, 3847.516
547.4238, 3841.213
549.3523, 3837.460
551.2808, 3834.314
553.2092, 3831.547
555.1377, 3828.274
557.0662, 3824.542
558.9946, 3818.852
560.9231, 3809.888
562.8516, 3804.758
564.7800, 3808.780
566.7085, 3810.364
568.6370, 3803.657
570.5654, 3795.130
572.4939, 3788.227
574.4224, 3782.593
576.3508, 3777.250
578.2793, 3772.808
580.2078, 3772.394
582.1362, 3775.585
584.0647, 3775.682
585.9932, 3771.821
587.9216, 3766.225
589.8501, 3757.525
591.7786, 3750.497
593.7070, 3751.717
595.6355, 3748.422
597.5640, 3729.848
599.4924, 3706.900
601.4209, 3690.418
603.3494, 3678.575
605.2778, 3667.319
607.2063, 3656.963
609.1348, 3649.212
611.0632, 3644.128
612.9917, 3641.165
614.9202, 3641.246
616.8486, 3641.202
618.7771, 3641.227
620.7056, 3640.137
622.6340, 3636.086
624.5625, 3632.495
626.4910, 3632.181
628.4194, 3633.011
630.3479, 3632.171
632.2764, 3630.887
634.2048, 3632.205
636.1333, 3635.857
638.0618, 3638.081
639.9902, 3639.216
641.9187, 3637.613
643.8472, 3629.507
645.7756, 3625.470
647.7041, 3631.842
649.6326, 3633.379
651.5610, 3620.009
653.4895, 3607.921
655.4180, 3610.750
657.3464, 3614.616
659.2749, 3607.120
661.2034, 3593.152
663.1318, 3577.966
665.0603, 3563.447
666.9888, 3561.857
668.9172, 3575.587
670.8457, 3577.946
672.7742, 3565.932
674.7026, 3553.732
676.6311, 3540.142
678.5596, 3532.271
680.4880, 3535.167
682.4165, 3536.700
684.3450, 3531.225
686.2734, 3523.779
688.2019, 3517.325
690.1304, 3510.490
692.0588, 3500.720
693.9873, 3490.552
695.9158, 3485.124
697.8442, 3482.930
699.7727, 3477.412
701.7012, 3468.686
703.6296, 3464.454
705.5581, 3465.088
707.4866, 3462.673
709.4150, 3456.083
711.3435, 3448.311
713.2720, 3439.870
715.2004, 3430.832
717.1289, 3423.386
719.0574, 3412.180
720.9858, 3388.754
722.9143, 3369.050
724.8428, 3367.182
726.7712, 3370.552
728.6997, 3367.955
730.6282, 3360.433
732.5566, 3347.073
734.4851, 3330.760
736.4136, 3320.579
738.3420, 3315.284
740.2705, 3309.200
742.1990, 3301.860
744.1274, 3291.692
746.0559, 3278.164
747.9844, 3263.089
749.9128, 3245.412
751.8413, 3229.498
753.7698, 3216.969
755.6982, 3205.332
757.6267, 3193.885
759.5552, 3183.842
761.4836, 3176.899
763.4121, 3170.343
765.3406, 3163.432
767.2690, 3154.784
769.1975, 3139.824
771.1260, 3124.443
773.0544, 3117.334
774.9829, 3115.243
776.9114, 3112.283
778.8398, 3107.803
780.7683, 3098.570
782.6968, 3084.155
784.6252, 3074.304
786.5537, 3071.707
788.4822, 3064.375
790.4106, 3049.996
792.3391, 3035.773
794.2676, 3020.218
796.1960, 3008.626
798.1245, 3003.223
800.0530, 2999.249
801.9814, 2996.979
803.9099, 2993.185
805.8384, 2984.589
807.7668, 2976.952
809.6953, 2974.981
811.6238, 2973.334
813.5522, 2967.825
815.4807, 2960.980
817.4092, 2954.704
819.3376, 2948.906
821.2661, 2943.856
823.1946, 2939.033
825.1230, 2933.650
827.0515, 2927.574
828.9800, 2919.342
830.9084, 2909.531
832.8369, 2903.366
834.7654, 2901.113
836.6938, 2898.083
838.6223, 2894.256
840.5508, 2890.528
842.4792, 2886.721
844.4077, 2884.976
846.3362, 2886.240
848.2646, 2884.499
850.1931, 2878.059
852.1216, 2870.152
854.0500, 2860.895
855.9785, 2852.152
857.9070, 2844.945
859.8354, 2837.902
861.7639, 2827.949
863.6924, 2822.049
865.6208, 2828.917
867.5493, 2832.781
869.4778, 2820.469
871.4063, 2806.626
873.3347, 2803.036
875.2632, 2801.895
877.1917, 2795.121
879.1201, 2787.339
881.0486, 2785.289
882.9771, 2784.954
884.9055, 2781.210
886.8340, 2774.447
888.7625, 2762.902
890.6909, 2749.990
892.6194, 2744.688
894.5479, 2743.870
896.4763, 2737.355
898.4048, 2726.789
900.3333, 2720.779
902.2617, 2719.048
904.1902, 2716.213
906.1187, 2712.144
908.0471, 2707.571
909.9756, 2702.393
911.9041, 2697.504
913.8325, 2692.633
915.7610, 2688.557
917.6895, 2684.946
919.6179, 2682.577
921.5464, 2682.723
923.4749, 2681.650
925.4033, 2680.744
927.3318, 2676.067
929.2603, 2664.949
931.1887, 2655.591
933.1172, 2649.379
935.0457, 2644.208
936.9741, 2639.630
938.9026, 2635.892
940.8311, 2632.785
942.7595, 2631.202
944.6880, 2633.563
946.6165, 2632.791
948.5449, 2625.119
950.4734, 2616.446
952.4019, 2608.743
954.3303, 2601.495
956.2588, 2592.957
958.1873, 2587.453
960.1157, 2589.103
962.0442, 2591.341
963.9727, 2592.813
965.9011, 2590.779
967.8296, 2578.524
969.7581, 2569.111
971.6865, 2577.806
973.6150, 2582.855
975.5435, 2563.361
977.4719, 2541.527
979.4004, 2532.857
981.3289, 2530.991
983.2573, 2535.104
985.1858, 2538.579
987.1143, 2534.422
989.0427, 2527.797
990.9712, 2522.773
992.8997, 2518.849
994.8281, 2516.780
996.7566, 2514.007
998.6851, 2506.913
1000.614, 2498.205
1002.542, 2489.823
1004.470, 2482.929
1006.399, 2480.317
1008.327, 2478.782
1010.256, 2474.127
1012.184, 2468.277
1014.113, 2464.296
1016.041, 2460.195
1017.970, 2451.427
1019.898, 2442.761
1021.827, 2442.262
1023.755, 2444.537
1025.684, 2442.078
1027.612, 2437.951
1029.541, 2437.002
1031.469, 2436.114
1033.397, 2430.176
1035.326, 2422.321
1037.254, 2416.037
1039.183, 2410.962
1041.111, 2406.923
1043.040, 2403.748
1044.968, 2402.486
1046.897, 2400.992
1048.825, 2395.159
1050.754, 2388.924
1052.682, 2389.029
1054.611, 2389.740
1056.539, 2383.490
1058.468, 2374.377
1060.396, 2364.164
1062.324, 2356.787
1064.253, 2359.538
1066.181, 2364.581
1068.110, 2363.273
1070.038, 2359.941
1071.967, 2359.877
1073.895, 2359.170
1075.824, 2353.721
1077.752, 2346.084
1079.681, 2335.706
1081.609, 2327.602
1083.538, 2327.521
1085.466, 2329.809
1087.395, 2332.451
1089.323, 2332.428
1091.251, 2325.990
1093.180, 2318.030
1095.108, 2310.062
1097.037, 2304.171
1098.965, 2303.429
1100.894, 2302.777
1102.822, 2301.115
1104.751, 2296.433
1106.679, 2283.954
1108.608, 2273.907
1110.536, 2272.627
1112.465, 2271.644
1114.393, 2266.534
1116.322, 2262.955
1118.250, 2264.116
1120.178, 2264.387
1122.107, 2263.161
1124.035, 2258.913
1125.964, 2249.492
1127.892, 2241.094
1129.821, 2234.724
1131.749, 2230.509
1133.678, 2229.417
1135.606, 2227.492
1137.535, 2222.875
1139.463, 2222.136
1141.392, 2228.339
1143.320, 2228.055
1145.249, 2218.418
1147.177, 2211.176
1149.105, 2207.333
1151.034, 2206.766
1152.962, 2209.929
1154.891, 2208.322
1156.819, 2201.538
1158.748, 2194.604
1160.676, 2187.799
1162.605, 2183.841
1164.533, 2182.557
1166.462, 2183.658
1168.390, 2186.225
1170.319, 2186.503
1172.247, 2184.771
1174.176, 2181.281
1176.104, 2176.678
1178.032, 2172.228
1179.961, 2167.677
1181.889, 2161.558
1183.818, 2156.083
1185.746, 2155.897
1187.675, 2155.603
1189.603, 2148.422
1191.532, 2141.037
1193.460, 2137.827
1195.389, 2136.932
1197.317, 2139.815
1199.246, 2139.678
1201.174, 2131.059
1203.103, 2123.323
1205.031, 2120.570
1206.959, 2118.242
1208.888, 2114.773
1210.816, 2112.607
1212.745, 2112.647
1214.673, 2113.120
1216.602, 2113.995
1218.530, 2113.155
1220.459, 2110.305
1222.387, 2103.794
1224.316, 2093.562
1226.244, 2090.924
1228.173, 2095.264
1230.101, 2093.729
1232.030, 2086.789
1233.958, 2076.009
1235.886, 2064.739
1237.815, 2065.129
1239.743, 2070.850
1241.672, 2070.552
1243.600, 2066.525
1245.529, 2060.909
1247.457, 2054.683
1249.386, 2047.517
1251.314, 2042.108
1253.243, 2041.976
1255.171, 2041.922
1257.100, 2038.025
1259.028, 2035.354
1260.957, 2037.381
1262.885, 2037.494
1264.813, 2032.375
1266.742, 2029.340
1268.670, 2029.939
1270.599, 2029.506
1272.527, 2027.407
1274.456, 2028.108
1276.384, 2031.826
1278.313, 2031.085
1280.241, 2026.468
1282.170, 2021.538
1284.098, 2017.359
1286.027, 2018.987
1287.955, 2021.833
1289.884, 2015.408
1291.812, 2008.089
1293.740, 2010.633
1295.669, 2013.618
1297.597, 2008.539
1299.526, 2004.277
1301.454, 2007.932
1303.383, 2008.025
1305.311, 1997.824
1307.240, 1990.893
1309.168, 1991.833
1311.097, 1990.416
1313.025, 1984.548
1314.954, 1981.273
1316.882, 1981.090
1318.811, 1984.557
1320.739, 1990.291
1322.667, 1984.210
1324.596, 1972.065
1326.524, 1971.146
1328.453, 1975.209
1330.381, 1974.587
1332.310, 1972.697
1334.238, 1974.518
1336.167, 1974.013
1338.095, 1963.256
1340.024, 1956.879
1341.952, 1962.573
1343.881, 1964.441
1345.809, 1957.818
1347.738, 1954.513
1349.666, 1956.493
1351.594, 1953.081
1353.523, 1944.376
1355.451, 1940.171
1357.380, 1939.703
1359.308, 1939.328
1361.237, 1937.872
1363.165, 1932.143
1365.094, 1924.963
1367.022, 1918.470
1368.951, 1913.455
1370.879, 1911.237
1372.808, 1909.221
1374.736, 1905.118
1376.665, 1903.525
1378.593, 1908.309
1380.521, 1906.657
1382.450, 1896.649
1384.378, 1889.885
1386.307, 1886.699
1388.235, 1885.176
1390.164, 1884.562
1392.092, 1881.804
1394.021, 1879.175
1395.949, 1881.446
1397.878, 1883.438
1399.806, 1879.164
1401.735, 1875.681
1403.663, 1878.075
1405.592, 1879.100
1407.520, 1876.482
1409.448, 1873.360
1411.377, 1870.576
1413.305, 1865.290
1415.234, 1857.600
1417.162, 1852.700
1419.091, 1850.200
1421.019, 1850.071
1422.948, 1850.270
1424.876, 1846.651
1426.805, 1843.465
1428.733, 1844.189
1430.662, 1845.915
1432.590, 1848.622
1434.519, 1847.983
1436.447, 1842.327
1438.375, 1836.989
1440.304, 1832.550
1442.232, 1832.352
1444.161, 1834.755
1446.089, 1829.880
1448.018, 1822.453
1449.946, 1821.967
1451.875, 1823.616
1453.803, 1823.573
1455.732, 1822.103
1457.660, 1818.396
1459.589, 1815.436
1461.517, 1814.400
1463.446, 1809.965
1465.374, 1801.798
1467.302, 1798.812
1469.231, 1799.713
1471.159, 1796.343
1473.088, 1791.136
1475.016, 1788.233
1476.945, 1785.944
1478.873, 1783.164
1480.802, 1779.684
1482.730, 1775.167
1484.659, 1770.473
1486.587, 1765.527
1488.516, 1761.381
1490.444, 1758.161
1492.373, 1758.584
1494.301, 1760.665
1496.229, 1758.696
1498.158, 1753.901
1500.086, 1745.490
1502.015, 1738.723
1503.943, 1737.893
1505.872, 1738.188
1507.800, 1739.622
1509.729, 1738.245
1511.657, 1732.836
1513.586, 1732.734
1515.514, 1736.564
1517.443, 1738.148
1519.371, 1736.600
1521.300, 1726.761
1523.228, 1718.797
1525.156, 1721.505
1527.085, 1722.355
1529.013, 1715.728
1530.942, 1713.083
1532.870, 1717.293
1534.799, 1711.720
1536.727, 1698.867
1538.656, 1692.395
1540.584, 1689.800
1542.513, 1687.666
1544.441, 1686.364
1546.370, 1686.050
1548.298, 1686.918
1550.227, 1689.527
1552.155, 1689.051
1554.083, 1684.855
1556.012, 1682.858
1557.940, 1682.128
1559.869, 1679.080
1561.797, 1674.558
1563.726, 1669.036
1565.654, 1663.828
1567.583, 1660.171
1569.511, 1656.245
1571.440, 1651.491
1573.368, 1649.600
1575.297, 1650.418
1577.225, 1650.867
1579.154, 1650.861
1581.082, 1651.740
1583.010, 1650.480
1584.939, 1641.873
1586.867, 1634.814
1588.796, 1633.757
1590.724, 1632.328
1592.653, 1630.099
1594.581, 1630.760
1596.510, 1631.869
1598.438, 1622.038
1600.367, 1611.131
1602.295, 1612.146
1604.224, 1612.365
1606.152, 1603.161
1608.081, 1596.798
1610.009, 1596.188
1611.938, 1592.800
1613.866, 1587.579
1615.794, 1587.381
1617.723, 1588.459
1619.651, 1585.416
1621.580, 1582.038
1623.508, 1580.755
1625.437, 1577.759
1627.365, 1571.463
1629.294, 1568.201
1631.222, 1567.574
1633.151, 1567.351
1635.079, 1565.598
1637.008, 1558.070
1638.936, 1549.890
1640.865, 1543.152
1642.793, 1537.591
1644.721, 1533.061
1646.650, 1533.450
1648.578, 1537.094
1650.507, 1535.215
1652.435, 1530.553
1654.364, 1525.231
1656.292, 1521.325
1658.221, 1519.793
1660.149, 1519.075
1662.078, 1518.823
1664.006, 1517.557
1665.935, 1515.361
1667.863, 1513.747
1669.792, 1510.687
1671.720, 1502.271
1673.648, 1495.230
1675.577, 1492.645
1677.505, 1489.462
1679.434, 1485.213
1681.362, 1478.581
1683.291, 1472.041
1685.219, 1470.587
1687.148, 1471.217
1689.076, 1474.221
1691.005, 1472.772
1692.933, 1463.199
1694.862, 1461.776
1696.790, 1466.476
1698.719, 1462.364
1700.647, 1456.238
1702.575, 1458.799
1704.504, 1458.095
1706.432, 1443.810
1708.361, 1438.367
1710.289, 1444.158
1712.218, 1443.186
1714.146, 1438.353
1716.075, 1436.257
1718.003, 1433.408
1719.932, 1426.149
1721.860, 1422.022
1723.789, 1424.103
1725.717, 1420.031
1727.646, 1411.516
1729.574, 1406.630
1731.502, 1402.744
1733.431, 1395.987
1735.359, 1393.027
1737.288, 1396.889
1739.216, 1396.555
1741.145, 1391.766
1743.073, 1390.364
1745.002, 1388.949
1746.930, 1380.811
1748.859, 1374.314
1750.787, 1372.825
1752.716, 1373.229
1754.644, 1374.490
1756.573, 1369.731
1758.501, 1361.596
1760.429, 1351.553
1762.358, 1345.655
1764.286, 1349.009
1766.215, 1350.356
1768.143, 1348.417
1770.072, 1344.672
1772.000, 1340.370
1773.929, 1337.816
1775.857, 1335.560
1777.786, 1334.343
1779.714, 1328.441
1781.643, 1317.512
1783.571, 1313.771
1785.500, 1314.673
1787.428, 1315.817
1789.356, 1315.489
1791.285, 1312.142
1793.213, 1307.416
1795.142, 1301.254
1797.070, 1299.187
1798.999, 1298.024
1800.927, 1289.779
1802.856, 1282.588
1804.784, 1282.836
1806.713, 1279.497
1808.641, 1271.183
1810.570, 1271.486
1812.498, 1274.637
1814.427, 1269.183
1816.355, 1264.228
1818.283, 1264.714
1820.212, 1261.885
1822.140, 1255.226
1824.069, 1254.083
1825.997, 1254.088
1827.926, 1248.085
1829.854, 1241.392
1831.783, 1235.033
1833.711, 1233.557
1835.640, 1235.819
1837.568, 1233.884
1839.497, 1229.588
1841.425, 1224.941
1843.354, 1218.026
1845.282, 1208.160
1847.210, 1205.722
1849.139, 1207.636
1851.067, 1202.793
1852.996, 1196.962
1854.924, 1195.218
1856.853, 1190.853
1858.781, 1183.489
1860.710, 1184.205
1862.638, 1187.415
1864.567, 1182.593
1866.495, 1177.163
1868.424, 1174.357
1870.352, 1172.880
1872.281, 1172.054
1874.209, 1168.211
1876.137, 1163.700
1878.066, 1160.989
1879.994, 1157.887
1881.923, 1153.652
1883.851, 1151.299
1885.780, 1149.525
1887.708, 1143.563
1889.637, 1139.766
1891.565, 1145.150
1893.494, 1143.823
1895.422, 1135.542
1897.351, 1132.159
1899.279, 1128.989
1901.208, 1119.653
1903.136, 1113.292
1905.064, 1113.301
1906.993, 1113.366
1908.921, 1112.603
1910.850, 1108.231
1912.778, 1103.671
1914.707, 1100.689
1916.635, 1097.714
1918.564, 1094.448
1920.492, 1089.083
1922.421, 1083.986
1924.349, 1081.586
1926.278, 1079.859
1928.206, 1078.299
1930.135, 1075.230
1932.063, 1070.793
1933.991, 1063.780
1935.920, 1059.050
1937.848, 1058.736
1939.777, 1054.109
1941.705, 1047.191
1943.634, 1048.411
1945.562, 1049.529
1947.491, 1043.655
1949.419, 1039.892
1951.348, 1038.627
1953.276, 1035.989
1955.205, 1032.916
1957.133, 1030.844
1959.062, 1027.590
1960.990, 1022.753
1962.918, 1017.296
1964.847, 1011.868
1966.775, 1006.495
1968.704, 1003.853
1970.632, 1007.026
1972.561, 1000.887
1974.489, 991.5018
1976.418, 997.3057
1978.346, 1001.593
1980.275, 993.2654
1982.203, 988.4730
1984.132, 986.7013
1986.060, 982.7625
1987.989, 978.7509
1989.917, 976.1901
1991.845, 972.7943
1993.774, 968.8615
1995.702, 971.1536
1997.631, 970.5656
1999.559, 957.9061
2001.488, 951.1024
2003.416, 953.0065
2005.345, 951.7502
2007.273, 948.5371
2009.202, 943.5847
2011.130, 941.2578
2013.059, 942.0983
2014.987, 938.2767
2016.916, 932.2171
2018.844, 925.7933
2020.772, 922.8463
2022.701, 923.9391
2024.629, 921.1351
2026.558, 916.0749
2028.486, 909.8489
2030.415, 906.8876
2032.343, 908.0428
2034.272, 902.1200
2036.200, 895.2044
2038.129, 900.2032
2040.057, 901.8705
2041.986, 896.3030
2043.914, 889.9460
2045.843, 884.2031
2047.771, 881.6509
2049.699, 877.9740
2051.628, 871.5879
2053.556, 869.1063
2055.485, 868.5295
2057.413, 867.1617
2059.342, 863.9743
2061.270, 857.6656
2063.199, 857.9048
2065.127, 859.1766
2067.056, 852.0921
2068.984, 846.7438
2070.913, 846.7018
2072.841, 843.5741
2074.770, 839.4860
2076.698, 837.3618
2078.626, 835.4071
2080.555, 833.1901
2082.483, 824.0594
2084.412, 814.9113
2086.340, 814.6585
2088.269, 814.0663
2090.197, 811.2896
2092.126, 811.4969
2094.054, 811.0665
2095.983, 805.8634
2097.911, 801.2891
2099.840, 798.2881
2101.768, 796.8190
2103.697, 795.3853
2105.625, 793.1215
2107.553, 788.4926
2109.482, 782.3090
2111.410, 778.4607
2113.339, 776.4579
2115.267, 776.5655
2117.196, 775.0751
2119.124, 771.9058
2121.053, 767.1822
2122.981, 763.0599
2124.910, 760.6833
2126.838, 754.1236
2128.767, 748.6262
2130.695, 758.6656
2132.624, 760.1605
2134.552, 746.4350
2136.480, 739.8728
2138.409, 739.2899
2140.337, 746.8371
2142.266, 746.9630
2144.194, 738.3550
2146.123, 734.2059
2148.051, 731.5209
2149.980, 727.8192
2151.908, 726.1234
2153.837, 725.6837
2155.765, 722.3146
2157.694, 718.9699
2159.622, 717.0741
2161.551, 716.0511
2163.479, 714.6093
2165.407, 709.2120
2167.336, 705.6928
2169.264, 705.5006
2171.193, 700.3649
2173.121, 694.8782
2175.050, 693.4932
2176.978, 694.7320
2178.907, 697.0742
2180.835, 694.0824
2182.764, 690.2235
2184.692, 688.0490
2186.621, 681.5519
2188.549, 674.5457
2190.478, 677.7152
2192.406, 677.8649
2194.334, 672.1998
2196.263, 668.8027
2198.191, 665.9037
2200.120, 661.4388
2202.048, 656.3315
2203.977, 651.2880
2205.905, 648.0479
2207.834, 646.6359
2209.762, 647.6512
2211.691, 645.7660
2213.619, 642.4114
2215.548, 639.7292
2217.476, 637.4548
2219.405, 635.4892
2221.333, 633.9518
2223.261, 632.7961
2225.190, 633.4922
2227.118, 627.0903
2229.047, 618.5610
2230.975, 620.8336
2232.904, 623.7010
2234.832, 623.9573
2236.761, 638.1967
2238.689, 652.6378
2240.618, 659.3710
2242.546, 640.4644
2244.475, 607.6843
2246.403, 600.0677
2248.332, 598.0687
2250.260, 595.5975
2252.188, 596.4598
2254.117, 597.9631
2256.045, 597.9159
2257.974, 593.6693
2259.902, 587.0795
2261.831, 585.3538
2263.759, 585.3129
2265.688, 585.6215
2267.616, 581.0662
2269.545, 575.2414
2271.473, 571.7854
2273.402, 570.3901
2275.330, 569.9310
2277.259, 566.7340
2279.187, 563.7533
2281.115, 561.8814
2283.044, 559.2275
2284.972, 556.3646
2286.901, 553.7264
2288.829, 552.1863
2290.758, 550.4296
2292.686, 543.7973
2294.615, 539.7365
2296.543, 540.2379
2298.472, 539.0490
2300.400, 536.6915
2302.329, 533.0429
2304.257, 531.3580
2306.186, 529.3351
2308.114, 520.0850
2310.042, 518.0300
2311.971, 524.6366
2313.899, 526.5234
2315.828, 523.6105
2317.756, 515.0126
2319.685, 513.0138
2321.613, 513.6295
2323.542, 511.5299
2325.470, 510.6147
2327.399, 510.3969
2329.327, 506.8017
2331.256, 503.0061
2333.184, 499.9081
2335.113, 495.1830
2337.041, 492.4098
2338.969, 494.4954
2340.898, 494.6043
2342.826, 492.1400
2344.755, 484.4373
2346.683, 482.3133
2348.612, 485.2593
2350.540, 484.7613
2352.469, 482.5367
2354.397, 479.4545
2356.326, 479.7485
2358.254, 480.2495
2360.183, 478.7869
2362.111, 472.7054
2364.040, 465.7752
2365.968, 465.0060
2367.896, 463.9556
2369.825, 461.4935
2371.753, 455.9419
2373.682, 453.7003
2375.610, 457.7364
2377.539, 453.0162
2379.467, 449.1847
2381.396, 455.1613
2383.324, 452.3671
2385.253, 445.5499
2387.181, 441.5121
2389.110, 441.2309
2391.038, 442.5645
2392.967, 438.2048
2394.895, 433.7619
2396.823, 430.6311
2398.752, 427.4777
2400.680, 425.2286
2402.609, 424.2542
2404.537, 426.6574
2406.466, 427.1962
2408.394, 420.6247
2410.323, 419.2360
2412.251, 420.2787
2414.180, 416.3484
2416.108, 414.9874
2418.037, 416.0619
2419.965, 416.4295
2421.894, 413.9786
2423.822, 409.2630
2425.750, 410.1001
2427.679, 409.1233
2429.607, 402.9760
2431.536, 398.0834
2433.464, 395.7918
2435.393, 399.1170
2437.321, 396.0112
2439.250, 390.6648
2441.178, 388.8869
2443.107, 388.2399
2445.035, 387.7675
2446.964, 386.3277
2448.892, 383.8534
2450.821, 380.7889
2452.749, 379.0291
2454.677, 376.4853
2456.606, 372.7584
2458.534, 372.8871
2460.463, 372.2560
2462.391, 368.5473
2464.320, 366.3204
2466.248, 362.9731
2468.177, 356.3533
2470.105, 360.4602
2472.034, 365.7308
2473.962, 361.9708
2475.891, 357.7740
2477.819, 354.8435
2479.748, 354.8719
2481.676, 354.0528
2483.604, 352.4976
2485.533, 351.7235
2487.461, 350.7037
2489.390, 349.0089
2491.318, 345.8803
2493.247, 342.0927
2495.175, 338.6471
2497.104, 340.1885
2499.032, 339.8577
2500.961, 336.0612
2502.889, 335.0050
2504.818, 334.9010
2506.746, 334.8474
2508.675, 333.8033
2510.603, 331.9231
2512.531, 329.3340
2514.460, 324.5091
2516.388, 320.9960
2518.317, 322.9105
2520.245, 322.6517
2522.174, 320.4206
2524.102, 315.9421
2526.031, 315.3698
2527.959, 315.5309
2529.888, 312.1000
2531.816, 308.0248
2533.745, 306.0754
2535.673, 311.0712
2537.602, 310.2274
2539.530, 305.7596
2541.458, 304.8792
2543.387, 302.8636
2545.315, 299.9872
2547.244, 298.3458
2549.172, 298.9571
2551.101, 300.3974
2553.029, 297.4713
2554.958, 295.9184
2556.886, 295.4804
2558.815, 290.9973
2560.743, 287.5728
2562.672, 286.6132
2564.600, 290.6631
2566.529, 289.3125
2568.457, 283.1428
2570.385, 284.3438
2572.314, 282.7767
2574.242, 277.9721
2576.171, 280.8703
2578.099, 280.6411
2580.028, 275.7746
2581.956, 274.7488
2583.885, 273.2941
2585.813, 270.6699
2587.742, 272.4232
2589.670, 271.2963
2591.599, 266.0507
2593.527, 264.4922
2595.456, 263.9953
2597.384, 263.3626
2599.313, 258.0582
2601.241, 254.5550
2603.169, 254.5096
2605.098, 256.1883
2607.026, 256.0956
2608.955, 253.8105
2610.883, 253.9438
2612.812, 252.1763
2614.740, 248.4084
2616.669, 248.7500
2618.597, 250.3483
2620.526, 251.3136
2622.454, 246.6867
2624.383, 242.7728
2626.311, 241.1845
2628.240, 242.2851
2630.168, 241.7426
2632.096, 239.1848
2634.025, 235.9066
2635.953, 235.0998
2637.882, 235.7461
2639.810, 233.2065
2641.739, 233.1375
2643.667, 233.7161
2645.596, 227.2541
2647.524, 225.6277
2649.453, 227.7088
2651.381, 229.3208
2653.310, 226.6154
2655.238, 222.6873
2657.167, 223.0467
2659.095, 222.3271
2661.023, 220.1243
2662.952, 216.1759
2664.880, 216.9034
2666.809, 218.0330
2668.737, 214.9708
2670.666, 213.3584
2672.594, 211.6193
2674.523, 208.2708
2676.451, 207.4052
2678.380, 207.4395
2680.308, 207.2180
2682.237, 205.5753
2684.165, 204.5851
2686.094, 204.6580
2688.022, 200.1812
2689.950, 196.9110
2691.879, 196.5106
2693.807, 196.9668
2695.736, 196.0805
2697.664, 194.0647
2699.593, 194.2791
2701.521, 191.5020
2703.450, 187.3659
2705.378, 188.2722
2707.307, 188.5937
2709.235, 188.7475
2711.164, 191.8039
2713.092, 189.9462
2715.021, 186.8384
2716.949, 188.2311
2718.877, 184.9229
2720.806, 182.0395
2722.734, 184.5762
2724.663, 183.5827
2726.591, 180.7944
2728.520, 177.3829
2730.448, 179.6945
2732.377, 179.2282
2734.305, 174.3013
2736.234, 173.5630
2738.162, 172.9118
2740.091, 171.6250
2742.019, 170.3446
2743.948, 168.9133
2745.876, 168.4108
2747.804, 171.4004
2749.733, 167.3666
2751.661, 162.7999
2753.590, 164.3817
2755.518, 161.2428
2757.447, 158.8123
2759.375, 160.0388
2761.304, 161.6495
2763.232, 158.9262
2765.161, 152.9662
2767.089, 154.5469
2769.018, 154.5420
2770.946, 153.1106
2772.875, 155.8945
2774.803, 156.3411
2776.731, 154.3949
2778.660, 150.1225
2780.588, 149.9655
2782.517, 149.4431
2784.445, 144.6250
2786.374, 144.8045
2788.302, 145.6452
2790.231, 145.3786
2792.159, 144.0549
2794.088, 144.1737
2796.016, 144.6711
2797.945, 141.4389
2799.873, 140.4269
2801.802, 140.5931
2803.730, 140.0956
2805.658, 137.5012
2807.587, 136.8608
2809.515, 139.5795
2811.444, 138.1450
2813.372, 136.2275
2815.301, 135.0565
2817.229, 134.4861
2819.158, 131.7356
2821.086, 128.8760
2823.015, 130.3598
2824.943, 132.2741
2826.872, 132.2732
2828.800, 128.7937
2830.729, 129.0104
2832.657, 127.9013
2834.585, 124.4890
2836.514, 122.7184
2838.442, 121.8811
2840.371, 121.8277
2842.299, 122.9656
2844.228, 122.5546
2846.156, 121.0094
2848.085, 118.7316
2850.013, 117.1917
2851.942, 116.6193
2853.870, 116.7925
2855.799, 116.7770
2857.727, 114.5375
2859.656, 111.5692
2861.584, 110.2862
2863.512, 111.0232
2865.441, 110.5215
2867.369, 107.5782
2869.298, 108.4422
2871.226, 110.5664
2873.155, 111.5039
2875.083, 105.4825
2877.012, 103.4336
2878.940, 104.3881
2880.869, 106.0740
2882.797, 107.2796
2884.726, 106.1702
2886.654, 103.1897
2888.583, 103.9334
2890.511, 102.4454
2892.439, 99.87550
2894.368, 100.0668
2896.296, 99.74281
2898.225, 99.28275
2900.153, 99.03545
2902.082, 99.93217
2904.010, 98.49750
2905.939, 96.08876
2907.867, 97.75003
2909.796, 96.15224
2911.724, 93.58772
2913.653, 92.44884
2915.581, 93.65688
2917.510, 92.55641
2919.438, 89.37664
2921.366, 89.00951
2923.295, 88.58875
2925.223, 87.51263
2927.152, 85.76484
2929.080, 85.86732
2931.009, 86.39455
2932.937, 86.75294
2934.866, 87.31126
2936.794, 85.65337
2938.723, 83.79421
2940.651, 83.78036
2942.580, 83.93166
2944.508, 83.74660
2946.437, 83.42867
2948.365, 84.07448
2950.293, 84.27831
2952.222, 83.01610
2954.150, 79.24162
2956.079, 80.96171
2958.007, 81.27995
2959.936, 79.23899
2961.864, 77.78579
2963.793, 76.37289
2965.721, 75.51120
2967.650, 75.61116
2969.578, 74.39559
2971.507, 73.75309
2973.435, 73.77637
2975.364, 73.77029
2977.292, 71.99252
2979.220, 70.68285
2981.149, 71.15354
2983.077, 73.28621
2985.006, 73.86751
2986.934, 72.56801
2988.863, 69.83958
2990.791, 71.12205
2992.720, 69.68464
2994.648, 65.14692
2996.577, 65.78381
2998.505, 66.54051
3000.434, 67.57898
3002.362, 69.42825
3004.291, 66.78288
3006.219, 65.19672
3008.147, 65.01283
3010.076, 64.07140
3012.004, 61.57413
3013.933, 60.20068
3015.861, 60.93189
3017.790, 60.15606
3019.718, 62.24775
3021.647, 63.78848
3023.575, 60.63022
3025.504, 59.68211
3027.432, 58.55091
3029.361, 57.48235
3031.289, 58.66024
3033.218, 59.40156
3035.146, 59.46749
3037.074, 58.93159
3039.003, 58.01204
3040.931, 56.50142
3042.860, 55.65992
3044.788, 56.23163
3046.717, 53.49062
3048.645, 51.81293
3050.574, 51.74304
3052.502, 52.19861
3054.431, 49.95722
3056.359, 50.17406
3058.288, 52.93119
3060.216, 52.49572
3062.145, 49.80680
3064.073, 47.97512
3066.001, 48.87526
3067.930, 52.30659
3069.858, 50.58709
3071.787, 47.02615
3073.715, 46.61033
3075.644, 48.59983
3077.572, 49.81084
3079.501, 49.54324
3081.429, 48.04656
3083.358, 49.22852
3085.286, 49.67299
3087.215, 48.51819
3089.143, 47.57889
3091.072, 47.72241
3093.000, 45.74453
3094.928, 41.59864
3096.857, 43.86478
3098.785, 44.61941
3100.714, 44.31904
3102.642, 44.01485
3104.571, 42.69034
3106.499, 43.71428
3108.428, 44.65281
3110.356, 42.69593
3112.285, 41.45684
3114.213, 41.58766
3116.142, 41.99320
3118.070, 40.89028
3119.999, 39.53424
3121.927, 51.60725
3123.855, 63.94283
3125.784, 45.78466
3127.712, 40.25965
3129.641, 38.44361
3131.569, 37.11015
3133.498, 38.44604
3135.426, 37.16541
3137.355, 37.06929
3139.283, 38.48579
3141.212, 37.26958
3143.140, 38.31905
3145.069, 39.07585
3146.997, 38.05349
3148.926, 35.01133
3150.854, 35.36856
3152.782, 36.66077
3154.711, 36.81720
3156.639, 33.35775
3158.568, 34.71072
3160.496, 35.35075
3162.425, 33.48055
3164.353, 35.60974
3166.282, 33.43538
3168.210, 31.14211
3170.139, 31.46205
3172.067, 33.62713
3173.996, 34.44371
3175.924, 33.75433
3177.853, 32.09762
3179.781, 30.81280
3181.709, 31.03577
3183.638, 31.66044
3185.566, 31.72425
3187.495, 30.39465
3189.423, 28.52757
3191.352, 28.31991
3193.280, 29.44336
3195.209, 26.79825
3197.137, 29.34801
3199.066, 29.99353
3200.994, 27.07711
3202.923, 27.48997
3204.851, 26.38789
3206.780, 25.87222
3208.708, 26.37358
3210.636, 26.38310
3212.565, 24.46777
3214.493, 24.30340
3216.422, 25.58191
3218.350, 25.03211
3220.279, 24.90948
3222.207, 24.91558
3224.136, 24.90140
3226.064, 24.83175
3227.993, 24.78883
3229.921, 25.60558
3231.850, 25.40561
3233.778, 21.77708
3235.707, 21.24836
3237.635, 22.48297
3239.563, 23.60789
3241.492, 23.37357
3243.420, 22.13509
3245.349, 21.74792
3247.277, 21.77027
3249.206, 21.83180
3251.134, 22.49275
3253.063, 23.22087
3254.991, 22.26770
3256.920, 20.60943
3258.848, 22.76322
3260.777, 22.36566
3262.705, 20.72838
3264.634, 20.10867
3266.562, 22.76414
3268.490, 19.26625
3270.419, 19.15499
3272.347, 19.98773
3274.276, 17.26050
3276.204, 20.03802
3278.133, 20.68474
3280.061, 19.21358
3281.990, 17.26320
3283.918, 17.43871
3285.847, 17.70244
3287.775, 19.28100
3289.704, 20.97047
3291.632, 19.14752
3293.561, 18.95224
3295.489, 19.79095
3297.417, 20.83190
3299.346, 21.15522
3301.274, 16.20612
3303.203, 17.46193
3305.131, 19.87690
3307.060, 19.32775
3308.988, 17.50297
3310.917, 19.46771
3312.845, 21.18958
3314.774, 21.07917
3316.702, 19.63310
3318.631, 16.46316
3320.559, 16.94965
3322.488, 17.96795
3324.416, 16.15418
3326.344, 15.22470
3328.273, 14.41120
3330.201, 14.73163
3332.130, 15.94984
3334.058, 16.28123
3335.987, 17.97689
3337.915, 17.70422
3339.844, 15.93344
3341.772, 14.22351
3343.701, 14.02939
3345.629, 13.80607
3347.558, 15.88308
3349.486, 18.37420
3351.415, 14.82891
3353.343, 16.22546
3355.271, 17.56393
3357.200, 16.73100
3359.128, 14.42036
3361.057, 15.93907
3362.985, 15.63034
3364.914, 15.57005
3366.842, 16.02757
3368.771, 15.06179
3370.699, 16.92134
3372.628, 15.21873
3374.556, 11.68326
3376.485, 9.751027
3378.413, 13.42601
3380.342, 14.01638
3382.270, 12.94803
3384.198, 12.65601
3386.127, 14.99334
3388.055, 15.63506
3389.984, 12.67090
3391.912, 12.33465
3393.841, 15.17623
3395.769, 14.18519
3397.698, 12.92704
3399.626, 12.77470
3401.555, 13.33397
3403.483, 14.17118
3405.412, 16.33962
3407.340, 14.31874
3409.269, 12.65027
3411.197, 14.17268
3413.125, 18.76089
3415.054, 18.41682
3416.982, 18.15890
3418.911, 20.50060
3420.839, 22.41747
3422.768, 17.68364
3424.696, 16.59976
3426.625, 14.68476
3428.553, 14.65712
3430.482, 16.77934
3432.410, 16.39284
3434.339, 14.29115
3436.267, 12.62787
3438.196, 11.52482
3440.124, 10.88985
3442.052, 11.29114
3443.981, 11.46579
3445.909, 12.87955
3447.838, 12.78882
3449.766, 10.14630
3451.695, 11.35934
3453.623, 9.978751
3455.552, 9.019527
##END=



