##NAMES=Parakeldyshite
##RRUFFID=R120048
##IDEAL CHEMISTRY=Na_2_ZrSi_2_O_7_
##LOCALITY=Alluaiv Mt., Lovozero Massif, Kola Peninsula, Murmanskaja Oblast', Northern Region, Russia
##OWNER=RRUFF
##SOURCE=Donald Doell
##DESCRIPTION=White massive
##STATUS=The identification of this mineral has been confirmed only by single crystal X-ray diffraction
##URL=https://www.rruff.net/odr/rruff_sample/R120048
##DIFFRACTION SAMPLE DESCRIPTION=Single crystal, powder profile is calculated
##CELL PARAMETERS=a: 6.605 b: 8.81 c: 5.421 alpha: 87.24 beta: 85.67 gamma: 71.45 volume: 298.11 crystal system: triclinic
##FILETYPE=Raman Processed
##RAMAN WAVELENGTH=780

88.96094, 1613.420
90.88940, 1886.750
92.81787, 2146.523
94.74634, 2326.592
96.67480, 2291.596
98.60327, 2209.315
100.5317, 2102.020
102.4602, 2013.424
104.3887, 1935.963
106.3171, 1873.500
108.2456, 1822.919
110.1741, 1783.443
112.1025, 1754.797
114.0310, 1735.300
115.9595, 1727.480
117.8879, 1732.047
119.8164, 1739.130
121.7449, 1745.960
123.6733, 1751.385
125.6018, 1753.749
127.5303, 1752.563
129.4587, 1751.225
131.3872, 1749.382
133.3157, 1747.327
135.2441, 1743.854
137.1726, 1741.123
139.1011, 1739.839
141.0295, 1740.664
142.9580, 1747.131
144.8865, 1760.236
146.8149, 1775.024
148.7434, 1789.376
150.6719, 1805.432
152.6003, 1824.348
154.5288, 1846.199
156.4573, 1871.949
158.3857, 1903.038
160.3142, 1929.412
162.2427, 1950.798
164.1711, 1964.144
166.0996, 1962.611
168.0281, 1952.806
169.9565, 1949.155
171.8850, 1951.459
173.8135, 1959.641
175.7419, 1983.630
177.6704, 2001.765
179.5989, 2006.587
181.5273, 2001.754
183.4558, 1991.344
185.3843, 1975.890
187.3127, 1959.119
189.2412, 1939.489
191.1697, 1921.993
193.0981, 1909.516
195.0266, 1898.197
196.9551, 1883.197
198.8835, 1866.177
200.8120, 1852.471
202.7405, 1841.877
204.6689, 1836.641
206.5974, 1838.808
208.5259, 1843.974
210.4543, 1850.267
212.3828, 1857.631
214.3113, 1866.103
216.2397, 1875.883
218.1682, 1885.581
220.0967, 1895.828
222.0251, 1904.982
223.9536, 1910.132
225.8821, 1915.776
227.8105, 1925.347
229.7390, 1938.901
231.6675, 1957.430
233.5959, 1984.503
235.5244, 2011.630
237.4529, 2041.530
239.3813, 2067.879
241.3098, 2087.807
243.2383, 2101.294
245.1667, 2107.558
247.0952, 2106.467
249.0237, 2097.278
250.9521, 2077.004
252.8806, 2054.052
254.8091, 2027.172
256.7375, 2002.336
258.6660, 1983.820
260.5945, 1971.663
262.5229, 1966.845
264.4514, 1971.206
266.3799, 1978.174
268.3083, 1991.009
270.2368, 2000.635
272.1653, 2003.444
274.0938, 1999.873
276.0222, 1988.146
277.9507, 1967.107
279.8792, 1951.666
281.8076, 1942.297
283.7361, 1936.563
285.6646, 1931.300
287.5930, 1932.866
289.5215, 1945.974
291.4500, 1968.028
293.3784, 1994.154
295.3069, 2024.785
297.2354, 2053.881
299.1638, 2081.468
301.0923, 2106.682
303.0208, 2128.866
304.9492, 2148.994
306.8777, 2164.836
308.8062, 2179.133
310.7346, 2200.337
312.6631, 2227.737
314.5916, 2264.723
316.5200, 2310.611
318.4485, 2369.049
320.3770, 2442.764
322.3054, 2526.455
324.2339, 2624.014
326.1624, 2727.838
328.0908, 2819.840
330.0193, 2901.668
331.9477, 2942.147
333.8762, 2928.788
335.8047, 2883.883
337.7331, 2796.310
339.6616, 2699.497
341.5901, 2614.753
343.5185, 2544.112
345.4470, 2491.471
347.3755, 2457.046
349.3039, 2429.073
351.2324, 2409.034
353.1609, 2389.625
355.0893, 2366.163
357.0178, 2345.708
358.9463, 2331.122
360.8747, 2324.629
362.8032, 2328.873
364.7317, 2343.910
366.6601, 2368.956
368.5886, 2406.321
370.5171, 2450.334
372.4455, 2499.591
374.3740, 2555.417
376.3025, 2624.681
378.2309, 2697.281
380.1594, 2768.690
382.0879, 2835.795
384.0163, 2860.680
385.9448, 2825.850
387.8733, 2776.386
389.8017, 2699.688
391.7302, 2630.372
393.6587, 2575.649
395.5871, 2541.534
397.5156, 2535.762
399.4441, 2553.536
401.3725, 2578.533
403.3010, 2622.994
405.2295, 2637.718
407.1579, 2618.312
409.0864, 2578.129
411.0149, 2506.470
412.9433, 2429.570
414.8718, 2360.483
416.8003, 2299.651
418.7287, 2249.226
420.6572, 2209.598
422.5857, 2173.979
424.5141, 2142.779
426.4426, 2114.417
428.3711, 2088.273
430.2995, 2065.899
432.2280, 2048.784
434.1565, 2035.359
436.0849, 2024.699
438.0134, 2016.731
439.9419, 2011.516
441.8703, 2009.540
443.7988, 2007.439
445.7273, 2004.655
447.6557, 2003.407
449.5842, 2003.929
451.5127, 2006.565
453.4411, 2012.694
455.3696, 2019.652
457.2981, 2024.089
459.2265, 2026.936
461.1550, 2032.594
463.0835, 2041.146
465.0119, 2049.104
466.9404, 2055.951
468.8689, 2063.295
470.7973, 2073.516
472.7258, 2081.693
474.6543, 2084.905
476.5827, 2085.780
478.5112, 2086.794
480.4397, 2087.897
482.3681, 2088.663
484.2966, 2089.146
486.2251, 2089.855
488.1535, 2090.171
490.0820, 2092.984
492.0105, 2098.677
493.9389, 2107.492
495.8674, 2120.254
497.7959, 2135.383
499.7243, 2150.438
501.6528, 2167.257
503.5813, 2193.425
505.5097, 2226.531
507.4382, 2248.924
509.3667, 2259.519
511.2951, 2258.243
513.2236, 2238.817
515.1521, 2215.922
517.0806, 2188.086
519.0090, 2162.862
520.9375, 2145.041
522.8660, 2132.958
524.7944, 2124.459
526.7229, 2119.499
528.6514, 2118.592
530.5798, 2122.118
532.5083, 2127.336
534.4368, 2135.093
536.3652, 2143.104
538.2937, 2152.869
540.2222, 2160.714
542.1506, 2166.376
544.0791, 2168.256
546.0076, 2163.687
547.9360, 2154.834
549.8645, 2143.514
551.7930, 2130.149
553.7214, 2120.173
555.6499, 2114.369
557.5784, 2110.100
559.5068, 2106.750
561.4353, 2105.783
563.3638, 2108.143
565.2922, 2111.969
567.2207, 2117.903
569.1492, 2123.340
571.0776, 2127.115
573.0061, 2128.573
574.9345, 2125.690
576.8630, 2118.878
578.7914, 2113.177
580.7199, 2108.099
582.6484, 2106.839
584.5768, 2111.148
586.5053, 2114.478
588.4338, 2114.836
590.3622, 2115.515
592.2907, 2118.066
594.2192, 2121.358
596.1476, 2124.659
598.0761, 2128.200
600.0046, 2132.900
601.9330, 2138.110
603.8615, 2141.425
605.7900, 2142.799
607.7184, 2141.730
609.6469, 2137.920
611.5754, 2133.410
613.5038, 2127.437
615.4323, 2123.900
617.3608, 2125.746
619.2892, 2127.787
621.2177, 2127.418
623.1462, 2126.598
625.0746, 2126.917
627.0031, 2127.861
628.9316, 2128.250
630.8600, 2128.556
632.7885, 2131.519
634.7170, 2136.761
636.6454, 2137.987
638.5739, 2133.838
640.5024, 2133.344
642.4308, 2140.208
644.3593, 2145.941
646.2878, 2147.014
648.2162, 2148.288
650.1447, 2152.974
652.0732, 2156.915
654.0016, 2155.655
655.9301, 2152.758
657.8586, 2152.456
659.7870, 2154.454
661.7155, 2158.681
663.6440, 2164.633
665.5724, 2169.107
667.5009, 2171.694
669.4294, 2175.941
671.3578, 2183.783
673.2863, 2189.332
675.2148, 2189.272
677.1432, 2190.891
679.0717, 2196.842
681.0002, 2203.429
682.9286, 2208.156
684.8571, 2213.479
686.7856, 2222.049
688.7141, 2231.943
690.6425, 2241.899
692.5710, 2250.960
694.4995, 2255.923
696.4279, 2257.262
698.3564, 2260.515
700.2849, 2265.133
702.2133, 2274.918
704.1418, 2292.703
706.0703, 2310.818
707.9987, 2328.148
709.9272, 2347.862
711.8557, 2371.678
713.7841, 2396.272
715.7126, 2426.256
717.6411, 2448.580
719.5695, 2455.667
721.4980, 2450.078
723.4265, 2429.056
725.3549, 2400.248
727.2834, 2373.225
729.2119, 2348.646
731.1403, 2328.655
733.0688, 2313.168
734.9973, 2300.865
736.9257, 2291.886
738.8542, 2285.737
740.7827, 2282.875
742.7111, 2280.168
744.6396, 2277.304
746.5681, 2274.190
748.4965, 2270.765
750.4250, 2267.001
752.3535, 2261.561
754.2819, 2258.083
756.2104, 2259.413
758.1389, 2262.053
760.0673, 2264.240
761.9958, 2266.365
763.9243, 2268.883
765.8527, 2271.567
767.7812, 2273.637
769.7097, 2275.489
771.6381, 2278.574
773.5666, 2282.477
775.4951, 2285.551
777.4235, 2287.733
779.3520, 2289.633
781.2805, 2291.251
783.2089, 2293.647
785.1374, 2297.461
787.0659, 2299.492
788.9943, 2297.861
790.9228, 2298.142
792.8513, 2303.299
794.7797, 2308.025
796.7082, 2310.778
798.6367, 2313.335
800.5651, 2316.168
802.4936, 2319.387
804.4221, 2323.073
806.3505, 2327.190
808.2790, 2331.985
810.2075, 2337.013
812.1359, 2340.971
814.0644, 2345.364
815.9929, 2352.821
817.9213, 2362.318
819.8498, 2372.360
821.7783, 2382.260
823.7067, 2388.833
825.6352, 2392.174
827.5637, 2396.690
829.4921, 2402.363
831.4206, 2410.140
833.3491, 2420.735
835.2775, 2431.566
837.2060, 2444.745
839.1345, 2454.510
841.0629, 2457.069
842.9914, 2463.645
844.9199, 2478.093
846.8483, 2492.152
848.7768, 2505.265
850.7053, 2514.957
852.6337, 2519.608
854.5622, 2521.324
856.4907, 2518.711
858.4191, 2516.700
860.3476, 2517.861
862.2761, 2521.388
864.2045, 2527.646
866.1330, 2534.984
868.0615, 2538.424
869.9899, 2545.372
871.9184, 2566.690
873.8469, 2596.708
875.7753, 2626.935
877.7038, 2658.017
879.6323, 2690.849
881.5607, 2725.729
883.4892, 2763.441
885.4177, 2804.010
887.3461, 2845.875
889.2746, 2889.654
891.2031, 2946.194
893.1315, 3015.191
895.0600, 3095.177
896.9885, 3186.071
898.9169, 3284.937
900.8454, 3392.732
902.7739, 3476.326
904.7023, 3534.844
906.6308, 3537.683
908.5593, 3475.937
910.4877, 3386.557
912.4162, 3267.294
914.3447, 3156.638
916.2731, 3060.098
918.2016, 2979.712
920.1301, 2915.602
922.0585, 2868.599
923.9870, 2842.949
925.9155, 2827.626
927.8439, 2819.457
929.7724, 2821.482
931.7009, 2834.891
933.6293, 2857.721
935.5578, 2897.460
937.4863, 2934.277
939.4147, 2969.748
941.3432, 2985.058
943.2717, 2964.022
945.2001, 2927.933
947.1286, 2883.396
949.0571, 2837.764
950.9855, 2789.985
952.9140, 2751.034
954.8425, 2727.281
956.7709, 2718.929
958.6994, 2728.520
960.6279, 2750.899
962.5563, 2783.938
964.4848, 2823.955
966.4133, 2875.307
968.3417, 2923.549
970.2702, 2960.797
972.1987, 2978.114
974.1271, 2960.141
976.0556, 2918.470
977.9841, 2862.809
979.9125, 2800.285
981.8410, 2738.890
983.7695, 2681.580
985.6979, 2634.388
987.6264, 2595.016
989.5549, 2559.090
991.4833, 2526.934
993.4118, 2499.607
995.3403, 2476.531
997.2687, 2456.227
999.1972, 2439.263
1001.126, 2426.710
1003.054, 2419.013
1004.983, 2417.321
1006.911, 2421.645
1008.840, 2433.504
1010.768, 2450.849
1012.696, 2467.112
1014.625, 2482.331
1016.553, 2499.484
1018.482, 2515.224
1020.410, 2517.140
1022.339, 2506.812
1024.267, 2489.389
1026.196, 2465.691
1028.124, 2436.904
1030.053, 2405.132
1031.981, 2377.445
1033.910, 2353.518
1035.838, 2331.311
1037.767, 2311.465
1039.695, 2296.826
1041.624, 2286.432
1043.552, 2277.480
1045.480, 2269.865
1047.409, 2263.400
1049.337, 2258.292
1051.266, 2255.881
1053.194, 2255.281
1055.123, 2254.021
1057.051, 2252.290
1058.980, 2250.658
1060.908, 2248.884
1062.837, 2245.544
1064.765, 2241.799
1066.694, 2240.933
1068.622, 2241.582
1070.550, 2241.152
1072.479, 2239.460
1074.407, 2234.824
1076.336, 2229.573
1078.264, 2228.927
1080.193, 2230.737
1082.121, 2232.352
1084.050, 2232.496
1085.978, 2227.834
1087.907, 2221.174
1089.835, 2215.309
1091.764, 2211.884
1093.692, 2215.566
1095.620, 2221.195
1097.549, 2221.946
1099.477, 2220.465
1101.406, 2220.112
1103.334, 2219.025
1105.263, 2213.635
1107.191, 2208.107
1109.120, 2207.929
1111.048, 2207.801
1112.977, 2201.219
1114.905, 2195.125
1116.834, 2195.994
1118.762, 2197.927
1120.691, 2196.908
1122.619, 2195.705
1124.547, 2196.424
1126.476, 2196.545
1128.404, 2194.114
1130.333, 2191.547
1132.261, 2190.210
1134.190, 2188.510
1136.118, 2186.200
1138.047, 2182.479
1139.975, 2174.997
1141.904, 2171.722
1143.832, 2177.449
1145.761, 2181.184
1147.689, 2178.969
1149.618, 2178.139
1151.546, 2181.585
1153.474, 2180.545
1155.403, 2171.951
1157.331, 2167.104
1159.260, 2168.360
1161.188, 2169.789
1163.117, 2170.902
1165.045, 2168.298
1166.974, 2161.543
1168.902, 2158.024
1170.831, 2158.084
1172.759, 2160.406
1174.688, 2164.224
1176.616, 2164.622
1178.545, 2162.244
1180.473, 2161.456
1182.401, 2161.780
1184.330, 2160.616
1186.258, 2158.699
1188.187, 2157.991
1190.115, 2157.620
1192.044, 2155.392
1193.972, 2152.565
1195.901, 2150.518
1197.829, 2149.123
1199.758, 2148.672
1201.686, 2148.202
1203.615, 2146.397
1205.543, 2144.924
1207.472, 2144.758
1209.400, 2145.982
1211.328, 2149.791
1213.257, 2153.427
1215.185, 2156.021
1217.114, 2157.702
1219.042, 2158.429
1220.971, 2158.107
1222.899, 2155.504
1224.828, 2154.978
1226.756, 2158.052
1228.685, 2159.949
1230.613, 2159.918
1232.542, 2160.044
1234.470, 2160.371
1236.399, 2161.613
1238.327, 2163.785
1240.255, 2166.091
1242.184, 2168.340
1244.112, 2168.011
1246.041, 2166.974
1247.969, 2172.336
1249.898, 2180.881
1251.826, 2186.599
1253.755, 2190.714
1255.683, 2193.224
1257.612, 2196.856
1259.540, 2204.500
1261.469, 2213.714
1263.397, 2224.398
1265.326, 2233.489
1267.254, 2237.401
1269.182, 2243.771
1271.111, 2255.983
1273.039, 2267.921
1274.968, 2277.639
1276.896, 2290.729
1278.825, 2308.443
1280.753, 2324.086
1282.682, 2336.958
1284.610, 2354.328
1286.539, 2375.939
1288.467, 2396.541
1290.396, 2416.675
1292.324, 2439.360
1294.253, 2463.708
1296.181, 2486.682
1298.109, 2510.920
1300.038, 2540.981
1301.966, 2572.980
1303.895, 2603.373
1305.823, 2633.684
1307.752, 2667.080
1309.680, 2696.856
1311.609, 2721.100
1313.537, 2739.197
1315.466, 2749.419
1317.394, 2756.657
1319.323, 2761.051
1321.251, 2762.780
1323.180, 2760.301
1325.108, 2764.220
1327.036, 2774.258
1328.965, 2782.927
1330.893, 2792.786
1332.822, 2813.353
1334.750, 2842.759
1336.679, 2879.521
1338.607, 2920.714
1340.536, 2963.068
1342.464, 3008.691
1344.393, 3058.759
1346.321, 3112.667
1348.250, 3170.827
1350.178, 3231.021
1352.107, 3294.022
1354.035, 3354.329
1355.964, 3411.921
1357.892, 3461.417
1359.820, 3502.270
1361.749, 3527.073
1363.677, 3536.175
1365.606, 3531.213
1367.534, 3512.402
1369.463, 3477.157
1371.391, 3431.983
1373.320, 3381.009
1375.248, 3329.734
1377.177, 3278.393
1379.105, 3234.555
1381.034, 3200.735
1382.962, 3175.062
1384.891, 3157.176
1386.819, 3147.135
1388.747, 3144.985
1390.676, 3155.913
1392.604, 3178.851
1394.533, 3203.906
1396.461, 3229.708
1398.390, 3254.714
1400.318, 3276.628
1402.247, 3293.506
1404.175, 3302.890
1406.104, 3301.639
1408.032, 3293.131
1409.961, 3276.607
1411.889, 3257.636
1413.818, 3237.284
1415.746, 3215.279
1417.674, 3190.574
1419.603, 3171.934
1421.531, 3159.225
1423.460, 3145.026
1425.388, 3132.021
1427.317, 3131.521
1429.245, 3134.313
1431.174, 3129.179
1433.102, 3120.728
1435.031, 3109.777
1436.959, 3101.368
1438.888, 3098.327
1440.816, 3096.070
1442.745, 3093.684
1444.673, 3091.549
1446.601, 3089.631
1448.530, 3087.991
1450.458, 3087.043
1452.387, 3090.431
1454.315, 3094.520
1456.244, 3090.984
1458.172, 3087.606
1460.101, 3090.923
1462.029, 3096.601
1463.958, 3104.394
1465.886, 3109.479
1467.815, 3110.405
1469.743, 3112.281
1471.672, 3115.538
1473.600, 3115.795
1475.528, 3113.373
1477.457, 3110.557
1479.385, 3105.376
1481.314, 3092.939
1483.242, 3079.128
1485.171, 3070.105
1487.099, 3058.033
1489.028, 3039.671
1490.956, 3020.702
1492.885, 3001.978
1494.813, 2984.537
1496.742, 2968.237
1498.670, 2950.900
1500.599, 2933.226
1502.527, 2916.711
1504.455, 2900.649
1506.384, 2883.115
1508.312, 2867.781
1510.241, 2858.697
1512.169, 2848.104
1514.098, 2833.839
1516.026, 2820.686
1517.955, 2808.715
1519.883, 2798.375
1521.812, 2788.765
1523.740, 2781.054
1525.669, 2768.561
1527.597, 2738.786
1529.526, 2709.990
1531.454, 2694.891
1533.382, 2679.773
1535.311, 2660.609
1537.239, 2643.501
1539.168, 2628.792
1541.096, 2608.589
1543.025, 2584.250
1544.953, 2558.044
1546.882, 2533.677
1548.810, 2516.955
1550.739, 2500.529
1552.667, 2480.119
1554.596, 2461.863
1556.524, 2447.485
1558.453, 2432.230
1560.381, 2415.962
1562.309, 2406.285
1564.238, 2399.685
1566.166, 2388.432
1568.095, 2375.423
1570.023, 2361.360
1571.952, 2350.910
1573.880, 2347.092
1575.809, 2340.581
1577.737, 2329.918
1579.666, 2319.995
1581.594, 2311.356
1583.523, 2303.713
1585.451, 2298.623
1587.380, 2299.602
1589.308, 2301.982
1591.236, 2303.939
1593.165, 2303.975
1595.093, 2301.533
1597.022, 2298.307
1598.950, 2294.697
1600.879, 2293.516
1602.807, 2292.497
1604.736, 2286.333
1606.664, 2280.135
1608.593, 2278.894
1610.521, 2277.339
1612.450, 2274.610
1614.378, 2268.629
1616.307, 2259.532
1618.235, 2253.199
1620.163, 2248.601
1622.092, 2244.905
1624.020, 2238.710
1625.949, 2224.807
1627.877, 2211.699
1629.806, 2201.856
1631.734, 2194.996
1633.663, 2191.206
1635.591, 2185.947
1637.520, 2178.487
1639.448, 2165.212
1641.377, 2151.234
1643.305, 2141.490
1645.234, 2130.136
1647.162, 2113.573
1649.090, 2102.260
1651.019, 2096.973
1652.947, 2094.854
1654.876, 2092.921
1656.804, 2082.904
1658.733, 2071.966
1660.661, 2064.840
1662.590, 2059.127
1664.518, 2054.646
1666.447, 2049.484
1668.375, 2043.349
1670.304, 2033.132
1672.232, 2021.644
1674.161, 2013.373
1676.089, 2006.010
1678.017, 1998.146
1679.946, 1990.636
1681.874, 1983.576
1683.803, 1975.766
1685.731, 1966.440
1687.660, 1952.565
1689.588, 1937.313
1691.517, 1923.736
1693.445, 1911.290
1695.374, 1899.497
1697.302, 1890.482
1699.231, 1883.879
1701.159, 1873.245
1703.088, 1860.840
1705.016, 1851.171
1706.944, 1842.509
1708.873, 1834.012
1710.801, 1825.548
1712.730, 1817.220
1714.658, 1808.364
1716.587, 1799.944
1718.515, 1796.228
1720.444, 1793.879
1722.372, 1790.400
1724.301, 1785.488
1726.229, 1777.920
1728.158, 1771.455
1730.086, 1765.982
1732.015, 1758.617
1733.943, 1752.048
1735.871, 1751.814
1737.800, 1751.214
1739.728, 1746.839
1741.657, 1742.161
1743.585, 1737.761
1745.514, 1733.458
1747.442, 1729.368
1749.371, 1724.640
1751.299, 1722.130
1753.228, 1724.092
1755.156, 1725.983
1757.085, 1726.802
1759.013, 1727.777
1760.942, 1728.241
1762.870, 1724.842
1764.798, 1722.086
1766.727, 1723.724
1768.655, 1726.086
1770.584, 1728.439
1772.512, 1733.377
1774.441, 1739.658
1776.369, 1742.335
1778.298, 1744.599
1780.226, 1748.969
1782.155, 1754.616
1784.083, 1761.305
1786.012, 1771.024
1787.940, 1781.980
1789.869, 1789.164
1791.797, 1793.145
1793.725, 1791.306
1795.654, 1793.842
1797.582, 1803.733
1799.511, 1804.954
1801.439, 1800.652
1803.368, 1802.266
1805.296, 1805.644
1807.225, 1809.771
1809.153, 1809.211
1811.082, 1802.415
1813.010, 1795.592
1814.939, 1789.358
1816.867, 1786.378
1818.796, 1782.631
1820.724, 1775.357
1822.652, 1766.370
1824.581, 1755.783
1826.509, 1745.544
1828.438, 1735.551
1830.366, 1724.499
1832.295, 1715.606
1834.223, 1711.049
1836.152, 1706.569
1838.080, 1701.643
1840.009, 1698.819
1841.937, 1697.146
1843.866, 1695.058
1845.794, 1694.120
1847.723, 1695.292
1849.651, 1694.812
1851.579, 1692.742
1853.508, 1692.010
1855.436, 1690.516
1857.365, 1686.044
1859.293, 1679.982
1861.222, 1672.616
1863.150, 1661.070
1865.079, 1646.945
1867.007, 1633.966
1868.936, 1621.536
1870.864, 1609.736
1872.793, 1596.998
1874.721, 1583.070
1876.650, 1566.910
1878.578, 1550.295
1880.506, 1535.500
1882.435, 1521.473
1884.363, 1507.685
1886.292, 1496.780
1888.220, 1486.983
1890.149, 1470.676
1892.077, 1453.920
1894.006, 1442.619
1895.934, 1429.034
1897.863, 1412.158
1899.791, 1403.182
1901.720, 1396.941
1903.648, 1385.158
1905.577, 1373.330
1907.505, 1363.769
1909.433, 1354.846
1911.362, 1346.406
1913.290, 1336.765
1915.219, 1329.211
1917.147, 1327.620
1919.076, 1322.954
1921.004, 1313.854
1922.933, 1306.799
1924.861, 1300.764
1926.790, 1294.115
1928.718, 1288.397
1930.647, 1284.091
1932.575, 1280.660
1934.504, 1277.462
1936.432, 1273.081
1938.360, 1267.953
1940.289, 1262.128
1942.217, 1257.086
1944.146, 1253.007
1946.074, 1249.112
1948.003, 1246.673
1949.931, 1248.635
1951.860, 1246.754
1953.788, 1240.346
1955.717, 1239.073
1957.645, 1239.621
1959.574, 1236.238
1961.502, 1234.527
1963.431, 1236.036
1965.359, 1235.396
1967.287, 1233.134
1969.216, 1230.441
1971.144, 1228.537
1973.073, 1228.505
1975.001, 1227.152
1976.930, 1224.450
1978.858, 1220.967
1980.787, 1216.924
1982.715, 1212.983
1984.644, 1206.321
1986.572, 1197.760
1988.501, 1196.935
1990.429, 1195.497
1992.358, 1185.009
1994.286, 1175.027
1996.214, 1166.924
1998.143, 1157.304
2000.071, 1148.580
2002.000, 1143.815
2003.928, 1138.436
2005.857, 1131.222
2007.785, 1122.596
2009.714, 1114.329
2011.642, 1109.680
2013.571, 1104.289
2015.499, 1096.902
2017.428, 1089.854
2019.356, 1083.358
2021.285, 1077.760
2023.213, 1072.574
2025.141, 1067.666
2027.070, 1063.615
2028.998, 1059.666
2030.927, 1054.531
2032.855, 1047.972
2034.784, 1039.727
2036.712, 1034.880
2038.641, 1032.189
2040.569, 1028.978
2042.498, 1025.448
2044.426, 1021.590
2046.355, 1020.454
2048.283, 1019.932
2050.212, 1014.893
2052.140, 1009.107
2054.068, 1003.874
2055.997, 999.3895
2057.925, 995.6534
2059.854, 992.7296
2061.782, 990.0755
2063.711, 987.4131
2065.639, 986.0157
2067.568, 985.1224
2069.496, 983.1014
2071.425, 980.8932
2073.353, 978.5659
2075.281, 977.1973
2077.210, 976.3174
2079.138, 975.7496
2081.067, 973.8096
2082.995, 969.5794
2084.924, 966.4101
2086.852, 965.1731
2088.781, 968.5474
2090.709, 969.5244
2092.638, 965.8575
2094.566, 960.5524
2096.495, 954.9305
2098.423, 950.7116
2100.352, 946.5984
2102.280, 942.1761
2104.208, 935.9222
2106.137, 928.2587
2108.065, 919.0921
2109.994, 911.1398
2111.922, 904.5186
2113.851, 896.4725
2115.779, 888.7682
2117.708, 882.8383
2119.636, 876.9413
2121.565, 870.9737
2123.493, 865.4658
2125.422, 859.3445
2127.350, 851.5897
2129.279, 847.7402
2131.207, 845.7930
2133.135, 840.6159
2135.064, 834.5358
2136.992, 828.2411
2138.921, 823.6090
2140.849, 820.6832
2142.778, 820.9692
2144.706, 818.4385
2146.635, 812.2032
2148.563, 805.4083
2150.492, 800.0791
2152.420, 800.0820
2154.349, 795.3640
2156.277, 786.8814
2158.206, 787.0106
2160.134, 787.0432
2162.063, 781.5989
2163.991, 777.5466
2165.919, 774.5018
2167.848, 770.0334
2169.776, 767.7644
2171.705, 769.2691
2173.633, 767.8881
2175.562, 764.6776
2177.490, 760.9554
2179.419, 755.7911
2181.347, 749.5938
2183.276, 747.1768
2185.204, 744.8781
2187.133, 740.6119
2189.061, 734.7234
2190.990, 729.0043
2192.918, 728.1849
2194.846, 728.3729
2196.775, 728.2572
2198.703, 722.0345
2200.632, 714.9489
2202.560, 714.1117
2204.489, 712.4099
2206.417, 709.5522
2208.346, 708.4011
2210.274, 707.6775
2212.203, 707.0185
2214.131, 703.8129
2216.060, 699.0667
2217.988, 694.5133
2219.917, 690.2333
2221.845, 686.2579
2223.773, 682.7313
2225.702, 679.9229
2227.630, 678.5176
2229.559, 676.1165
2231.487, 673.3569
2233.416, 672.4274
2235.344, 672.5421
2237.273, 673.8593
2239.201, 670.6709
2241.130, 666.7382
2243.058, 665.7351
2244.987, 664.0142
2246.915, 661.4332
2248.844, 659.8080
2250.772, 657.0278
2252.700, 652.2199
2254.629, 648.9290
2256.557, 646.4130
2258.486, 643.8826
2260.414, 641.3334
2262.343, 638.3596
2264.271, 632.7524
2266.200, 626.9074
2268.128, 621.6791
2270.057, 620.5750
2271.985, 620.3965
2273.914, 617.1721
2275.842, 613.9336
2277.771, 610.8082
2279.699, 606.3032
2281.627, 603.1143
2283.556, 602.0974
2285.484, 600.9584
2287.413, 599.3851
2289.341, 596.7464
2291.270, 595.0505
2293.198, 593.6552
2295.127, 590.1098
2297.055, 586.7866
2298.984, 584.4493
2300.912, 580.6890
2302.841, 577.2187
2304.769, 575.9447
2306.698, 573.9319
2308.626, 571.5018
2310.554, 570.2123
2312.483, 567.0120
2314.411, 561.6051
2316.340, 558.5824
2318.268, 557.1356
2320.197, 557.1715
2322.125, 554.7332
2324.054, 551.0776
2325.982, 547.6270
2327.911, 546.0286
2329.839, 545.7504
2331.768, 544.1595
2333.696, 541.8417
2335.625, 538.9567
2337.553, 534.4380
2339.481, 531.2803
2341.410, 532.2357
2343.338, 529.3216
2345.267, 524.4272
2347.195, 521.4568
2349.124, 520.8353
2351.052, 521.9032
2352.981, 521.8811
2354.909, 520.3873
2356.838, 517.3759
2358.766, 513.9489
2360.695, 510.5089
2362.623, 507.0341
2364.552, 505.4574
2366.480, 504.7025
2368.408, 502.7681
2370.337, 500.2662
2372.265, 497.6610
2374.194, 496.7607
2376.122, 495.5763
2378.051, 493.2196
2379.979, 491.7957
2381.908, 490.1497
2383.836, 487.1326
2385.765, 484.8683
2387.693, 483.4517
2389.622, 483.3293
2391.550, 481.4920
2393.479, 478.1501
2395.407, 474.5128
2397.335, 472.6376
2399.264, 472.7983
2401.192, 470.3584
2403.121, 467.5061
2405.049, 465.3216
2406.978, 463.1101
2408.906, 460.7989
2410.835, 458.2226
2412.763, 457.2574
2414.692, 456.7324
2416.620, 454.6123
2418.549, 450.5365
2420.477, 445.6281
2422.406, 443.8959
2424.334, 441.8632
2426.262, 439.0129
2428.191, 439.0197
2430.119, 438.3150
2432.048, 435.2685
2433.976, 431.5591
2435.905, 428.2636
2437.833, 426.7132
2439.762, 423.5339
2441.690, 420.1302
2443.619, 418.5213
2445.547, 417.3250
2447.476, 416.3142
2449.404, 415.8156
2451.333, 413.6251
2453.261, 410.1436
2455.189, 408.5902
2457.118, 407.6423
2459.046, 406.8257
2460.975, 404.9230
2462.903, 403.7086
2464.832, 404.1050
2466.760, 401.3179
2468.689, 397.4006
2470.617, 393.7707
2472.546, 390.8837
2474.474, 388.9587
2476.403, 388.3240
2478.331, 386.9094
2480.260, 384.9756
2482.188, 383.1118
2484.116, 381.1683
2486.045, 378.9081
2487.973, 375.5519
2489.902, 372.7229
2491.830, 370.9178
2493.759, 370.8830
2495.687, 370.8305
2497.616, 370.2368
2499.544, 368.7427
2501.473, 366.7058
2503.401, 364.4959
2505.330, 365.6285
2507.258, 364.7019
2509.187, 359.2164
2511.115, 358.8252
2513.043, 358.8296
2514.972, 356.0322
2516.900, 354.0591
2518.829, 352.1700
2520.757, 349.5293
2522.686, 347.7249
2524.614, 346.9768
2526.543, 347.4850
2528.471, 348.4415
2530.400, 348.4578
2532.328, 346.0333
2534.257, 343.6773
2536.185, 341.2690
2538.114, 338.2588
2540.042, 334.6369
2541.970, 331.1787
2543.899, 329.0277
2545.827, 328.4327
2547.756, 328.7781
2549.684, 329.0364
2551.613, 328.9552
2553.541, 327.9132
2555.470, 323.9374
2557.398, 319.9453
2559.327, 316.7387
2561.255, 315.0933
2563.184, 313.7410
2565.112, 312.2188
2567.041, 309.8045
2568.969, 307.9185
2570.897, 306.6531
2572.826, 305.5985
2574.754, 303.3453
2576.683, 300.2095
2578.611, 298.2854
2580.540, 297.7482
2582.468, 297.8934
2584.397, 294.6636
2586.325, 292.4981
2588.254, 292.1509
2590.182, 291.1706
2592.111, 289.9782
2594.039, 288.6870
2595.968, 287.2565
2597.896, 285.1476
2599.824, 282.4478
2601.753, 280.3708
2603.681, 279.3943
2605.610, 279.2334
2607.538, 277.7818
2609.467, 275.1049
2611.395, 271.8250
2613.324, 270.9078
2615.252, 270.3594
2617.181, 269.4535
2619.109, 267.4544
2621.038, 265.4013
2622.966, 263.6443
2624.895, 262.2455
2626.823, 261.9239
2628.751, 261.9422
2630.680, 259.0283
2632.608, 258.4752
2634.537, 259.2844
2636.465, 255.4446
2638.394, 253.8444
2640.322, 253.8696
2642.251, 251.1166
2644.179, 249.1801
2646.108, 248.1933
2648.036, 247.3304
2649.965, 247.4411
2651.893, 246.9545
2653.822, 242.8808
2655.750, 239.5349
2657.678, 237.8383
2659.607, 238.6537
2661.535, 237.5228
2663.464, 235.1380
2665.392, 232.5382
2667.321, 231.5375
2669.249, 230.7977
2671.178, 229.1144
2673.106, 227.9801
2675.035, 227.3246
2676.963, 226.9863
2678.892, 226.5377
2680.820, 225.4790
2682.749, 223.6953
2684.677, 221.9747
2686.605, 220.6964
2688.534, 219.7350
2690.462, 217.4588
2692.391, 215.0423
2694.319, 213.0210
2696.248, 211.8829
2698.176, 210.8929
2700.105, 210.1285
2702.033, 210.6546
2703.962, 210.5539
2705.890, 209.4016
2707.819, 206.7688
2709.747, 205.1392
2711.676, 203.8954
2713.604, 201.6017
2715.532, 200.5982
2717.461, 199.8139
2719.389, 198.0344
2721.318, 195.9523
2723.246, 194.8234
2725.175, 195.5072
2727.103, 194.6376
2729.032, 193.1308
2730.960, 191.5454
2732.889, 191.2069
2734.817, 190.3290
2736.746, 188.7278
2738.674, 188.0085
2740.603, 186.4975
2742.531, 184.5822
2744.459, 184.0252
2746.388, 182.5924
2748.316, 180.8512
2750.245, 179.7909
2752.173, 179.8609
2754.102, 179.2180
2756.030, 176.5122
2757.959, 176.0839
2759.887, 174.9711
2761.816, 172.2370
2763.744, 172.4140
2765.673, 171.4030
2767.601, 169.0116
2769.530, 168.6118
2771.458, 168.4067
2773.386, 167.8786
2775.315, 166.4209
2777.243, 167.1689
2779.172, 167.8540
2781.100, 165.9050
2783.029, 163.7424
2784.957, 161.4641
2786.886, 159.0738
2788.814, 157.3157
2790.743, 157.4589
2792.671, 158.8963
2794.600, 156.5094
2796.528, 156.5357
2798.457, 157.7180
2800.385, 155.8987
2802.313, 153.7936
2804.242, 152.7001
2806.170, 153.3410
2808.099, 151.2015
2810.027, 149.1688
2811.956, 148.3903
2813.884, 146.9402
2815.813, 145.8586
2817.741, 145.2781
2819.670, 144.7891
2821.598, 144.4729
2823.527, 143.7753
2825.455, 141.6861
2827.384, 140.4647
2829.312, 139.8584
2831.240, 139.6296
2833.169, 137.5754
2835.097, 136.8701
2837.026, 137.4028
2838.954, 135.4953
2840.883, 135.6942
2842.811, 136.0977
2844.740, 133.5309
2846.668, 131.7370
2848.597, 131.0697
2850.525, 131.3513
2852.454, 127.7629
2854.382, 126.5733
2856.311, 128.1150
2858.239, 128.0551
2860.167, 127.4725
2862.096, 126.5984
2864.024, 125.4829
2865.953, 124.8390
2867.881, 124.0368
2869.810, 122.8891
2871.738, 122.1248
2873.667, 121.4690
2875.595, 120.9931
2877.524, 121.3677
2879.452, 119.8841
2881.381, 118.3307
2883.309, 118.2422
2885.238, 116.8824
2887.166, 115.4029
2889.094, 114.3001
2891.023, 113.9157
2892.951, 113.4998
2894.880, 113.3214
2896.808, 114.1261
2898.737, 111.7886
2900.665, 110.8143
2902.594, 112.5646
2904.522, 109.6527
2906.451, 112.7727
2908.379, 116.7359
2910.308, 110.9291
2912.236, 107.1269
2914.165, 106.2679
2916.093, 107.5193
2918.021, 105.7175
2919.950, 104.7872
2921.878, 104.7099
2923.807, 103.5737
2925.735, 102.1316
2927.664, 101.6691
2929.592, 102.7792
2931.521, 104.7160
2933.449, 105.9633
2935.378, 105.7114
2937.306, 102.6558
2939.235, 100.7032
2941.163, 99.61079
2943.092, 98.94933
2945.020, 97.83075
2946.948, 97.51403
2948.877, 97.78845
2950.805, 98.03912
2952.734, 96.03729
2954.662, 94.04868
2956.591, 93.58585
2958.519, 92.83687
2960.448, 92.44615
2962.376, 91.94113
2964.305, 90.27612
2966.233, 90.11108
2968.162, 89.47910
2970.090, 87.58377
2972.019, 87.73232
2973.947, 86.83012
2975.875, 85.65234
2977.804, 85.91845
2979.732, 84.32978
2981.661, 83.90727
2983.589, 84.97504
2985.518, 83.45631
2987.446, 83.56911
2989.375, 83.34710
2991.303, 80.59143
2993.232, 79.39100
2995.160, 79.22743
2997.089, 79.30437
2999.017, 78.46169
3000.946, 77.60149
3002.874, 76.75219
3004.802, 75.87413
3006.731, 74.75540
3008.659, 74.08762
3010.588, 73.76646
3012.516, 73.49432
3014.445, 73.31457
3016.373, 73.34955
3018.302, 73.07439
3020.230, 70.58634
3022.159, 70.08099
3024.087, 69.97830
3026.016, 68.96541
3027.944, 68.42643
3029.873, 67.99220
3031.801, 67.81887
3033.729, 68.19815
3035.658, 67.61909
3037.586, 67.30287
3039.515, 67.28942
3041.443, 66.24546
3043.372, 64.77338
3045.300, 63.98715
3047.229, 64.15952
3049.157, 62.86434
3051.086, 62.34700
3053.014, 61.90741
3054.943, 60.10833
3056.871, 60.52929
3058.800, 59.93858
3060.728, 58.74573
3062.656, 59.94411
3064.585, 58.62164
3066.513, 57.88028
3068.442, 58.66432
3070.370, 58.09768
3072.299, 56.98913
3074.227, 56.88351
3076.156, 58.35490
3078.084, 56.67650
3080.013, 55.32619
3081.941, 54.91240
3083.870, 55.26034
3085.798, 55.50510
3087.727, 55.36132
3089.655, 55.05907
3091.583, 55.06882
3093.512, 54.00498
3095.440, 52.95792
3097.369, 52.37807
3099.297, 52.29776
3101.226, 52.08046
3103.154, 51.87493
3105.083, 51.60709
3107.011, 50.51050
3108.940, 49.98645
3110.868, 49.86683
3112.797, 49.84794
3114.725, 49.27910
3116.654, 49.85620
3118.582, 50.06309
3120.510, 48.48618
3122.439, 49.33268
3124.367, 48.48515
3126.296, 47.38496
3128.224, 48.16825
3130.153, 47.73621
3132.081, 46.48644
3134.010, 45.39706
3135.938, 45.46989
3137.867, 47.05786
3139.795, 45.90970
3141.724, 43.86622
3143.652, 45.43930
3145.581, 44.02865
3147.509, 43.89933
3149.438, 45.01920
3151.366, 44.55617
3153.294, 44.52256
3155.223, 43.83690
3157.151, 42.78285
3159.080, 42.49454
3161.008, 43.90030
3162.937, 44.20093
3164.865, 43.01570
3166.794, 41.37939
3168.722, 42.36393
3170.651, 42.89145
3172.579, 42.13218
3174.508, 41.02313
3176.436, 41.95565
3178.365, 41.79793
3180.293, 40.67774
3182.221, 41.55389
3184.150, 41.23358
3186.078, 39.81538
3188.007, 38.85226
3189.935, 40.88848
3191.864, 40.52085
3193.792, 39.56454
3195.721, 39.05497
3197.649, 39.26654
3199.578, 39.07418
3201.506, 38.87008
3203.435, 38.83011
3205.363, 39.02508
3207.292, 38.00444
3209.220, 37.35706
3211.148, 37.52583
3213.077, 38.54074
3215.005, 38.41053
3216.934, 37.94075
3218.862, 37.54316
3220.791, 37.42405
3222.719, 36.77186
3224.648, 37.71412
3226.576, 38.56813
3228.505, 37.75513
3230.433, 38.59183
3232.362, 38.27208
3234.290, 37.99481
3236.219, 38.47707
3238.147, 37.07312
3240.075, 37.47644
3242.004, 38.56458
3243.932, 39.39936
3245.861, 39.83652
3247.789, 40.37366
3249.718, 39.82821
3251.646, 38.86722
3253.575, 39.89054
3255.503, 39.87294
3257.432, 40.52970
3259.360, 41.16660
3261.289, 40.04586
3263.217, 39.49006
3265.146, 40.46226
3267.074, 41.96665
3269.002, 42.92623
3270.931, 43.73558
3272.859, 44.08873
3274.788, 44.43036
3276.716, 45.14695
3278.645, 46.43811
3280.573, 48.38633
3282.502, 50.01662
3284.430, 51.08221
3286.359, 51.98905
3288.287, 54.29492
3290.216, 55.67057
3292.144, 56.10046
3294.073, 56.58151
3296.001, 58.60757
3297.929, 60.25153
3299.858, 60.85579
3301.786, 60.90229
3303.715, 63.27955
3305.643, 60.64467
3307.572, 59.78142
3309.500, 61.53519
3311.429, 61.97449
3313.357, 62.16167
3315.286, 61.85139
3317.214, 61.62005
3319.143, 61.94094
3321.071, 61.34588
3323.000, 63.57412
3324.928, 65.29256
3326.856, 65.48117
3328.785, 67.01417
3330.713, 68.71369
3332.642, 70.63373
3334.570, 73.33654
3336.499, 77.15585
3338.427, 80.44903
3340.356, 84.41437
3342.284, 87.92310
3344.213, 91.16884
3346.141, 96.78883
3348.070, 101.4071
3349.998, 104.8424
3351.927, 108.6463
3353.855, 113.9377
3355.783, 114.8972
3357.712, 116.0497
3359.640, 116.7804
3361.569, 116.1788
3363.497, 113.9007
3365.426, 111.7581
3367.354, 107.8295
3369.283, 103.8771
3371.211, 101.8475
3373.140, 99.26994
3375.068, 95.67966
3376.997, 91.88372
3378.925, 88.97287
3380.854, 87.92473
3382.782, 85.97603
3384.710, 84.79732
3386.639, 83.19314
3388.567, 80.33360
3390.496, 77.33325
3392.424, 75.70589
3394.353, 73.43326
3396.281, 71.26589
3398.210, 70.45528
3400.138, 67.59000
3402.067, 64.52279
3403.995, 63.98407
3405.924, 64.39352
3407.852, 60.72234
3409.781, 58.73588
3411.709, 57.20316
3413.637, 55.77771
3415.566, 54.31327
3417.494, 52.49915
3419.423, 51.64158
3421.351, 50.40667
3423.280, 48.20967
3425.208, 45.40412
3427.137, 44.13256
3429.065, 43.69875
3430.994, 43.04398
3432.922, 41.19264
3434.851, 38.37299
3436.779, 40.25119
3438.708, 38.41875
3440.636, 37.65600
3442.564, 37.45185
3444.493, 34.22472
3446.421, 34.06638
3448.350, 34.13060
3450.278, 33.96117
3452.207, 33.62693
3454.135, 33.18739
3456.064, 32.88984
##END=



