##NAMES=Parabutlerite
##RRUFFID=R070547
##IDEAL CHEMISTRY=Fe^3+^(SO_4_)(OH)·2H_2_O
##LOCALITY=Chuquicamata mine, Calama, El Loa Province, Antofogasta, Chile
##OWNER=RRUFF
##SOURCE=James Shigley
##DESCRIPTION=Granular aggregate of orange microcrystals
##STATUS=The identification of this mineral has been confirmed by single-crystal X-ray diffraction
##URL=https://www.rruff.net/odr/rruff_sample/R070547
##DIFFRACTION SAMPLE DESCRIPTION=Single crystal, powder profile is calculated
##CELL PARAMETERS=a: 7.396 b: 20.051 c: 7.227 alpha: 90 beta: 90 gamma: 90 volume: 1071.8 crystal system: orthorhombic
##FILETYPE=Raman RAW
##RAMAN WAVELENGTH=532

139.7515, 1293.621
141.6799, 1437.503
143.6084, 1578.388
145.5369, 1715.345
147.4653, 1814.097
149.3938, 1852.756
151.3223, 1891.959
153.2507, 1931.794
155.1792, 1970.119
157.1077, 2011.578
159.0361, 2058.510
160.9646, 2108.856
162.8931, 2158.358
164.8215, 2207.209
166.7500, 2255.945
168.6785, 2305.757
170.6069, 2359.655
172.5354, 2410.544
174.4639, 2455.268
176.3923, 2497.182
178.3208, 2542.308
180.2493, 2588.915
182.1777, 2638.511
184.1062, 2692.969
186.0347, 2752.382
187.9631, 2812.301
189.8916, 2872.495
191.8201, 2933.176
193.7485, 2992.263
195.6770, 3046.289
197.6055, 3100.768
199.5339, 3156.912
201.4624, 3215.104
203.3909, 3282.642
205.3193, 3363.220
207.2478, 3452.352
209.1763, 3539.672
211.1047, 3623.563
213.0332, 3706.661
214.9617, 3790.529
216.8901, 3873.836
218.8186, 3953.061
220.7471, 4029.512
222.6755, 4101.677
224.6040, 4165.769
226.5325, 4215.580
228.4609, 4262.466
230.3894, 4314.999
232.3179, 4381.402
234.2463, 4427.367
236.1748, 4442.508
238.1033, 4433.812
240.0317, 4410.595
241.9602, 4366.277
243.8887, 4310.598
245.8171, 4251.806
247.7456, 4194.322
249.6741, 4107.295
251.6025, 3963.314
253.5310, 3788.926
255.4595, 3627.638
257.3879, 3489.501
259.3164, 3355.660
261.2449, 3218.995
263.1733, 3078.518
265.1018, 2944.617
267.0303, 2819.166
268.9587, 2699.893
270.8872, 2582.443
272.8157, 2459.398
274.7441, 2349.129
276.6726, 2260.454
278.6011, 2197.946
280.5295, 2131.037
282.4580, 2055.700
284.3865, 1978.806
286.3149, 1905.126
288.2434, 1832.921
290.1719, 1769.159
292.1003, 1716.755
294.0288, 1676.045
295.9573, 1635.036
297.8857, 1587.684
299.8142, 1544.712
301.7427, 1511.874
303.6711, 1493.182
305.5996, 1477.028
307.5281, 1461.030
309.4565, 1445.630
311.3850, 1433.760
313.3135, 1428.658
315.2419, 1424.340
317.1704, 1416.702
319.0989, 1400.625
321.0273, 1391.225
322.9558, 1391.633
324.8843, 1398.001
326.8127, 1404.631
328.7412, 1410.538
330.6697, 1417.932
332.5981, 1427.278
334.5266, 1439.743
336.4551, 1453.232
338.3835, 1462.734
340.3120, 1476.070
342.2405, 1500.405
344.1689, 1543.027
346.0974, 1587.748
348.0259, 1629.875
349.9543, 1670.702
351.8828, 1717.213
353.8113, 1770.343
355.7397, 1828.679
357.6682, 1890.968
359.5967, 1958.235
361.5251, 2027.372
363.4536, 2093.306
365.3821, 2162.634
367.3105, 2242.233
369.2390, 2340.315
371.1675, 2436.597
373.0959, 2523.749
375.0244, 2599.037
376.9529, 2674.890
378.8813, 2754.729
380.8098, 2837.685
382.7383, 2917.928
384.6667, 2995.804
386.5952, 3066.538
388.5237, 3124.627
390.4521, 3175.499
392.3806, 3238.013
394.3091, 3320.986
396.2375, 3402.959
398.1660, 3475.480
400.0945, 3540.865
402.0229, 3603.969
403.9514, 3667.635
405.8799, 3717.520
407.8083, 3751.995
409.7368, 3772.445
411.6653, 3782.961
413.5938, 3782.566
415.5222, 3767.307
417.4507, 3735.865
419.3792, 3681.032
421.3076, 3620.641
423.2361, 3564.785
425.1646, 3510.537
427.0930, 3450.799
429.0215, 3384.533
430.9500, 3326.020
432.8784, 3281.514
434.8069, 3245.881
436.7354, 3227.336
438.6638, 3237.608
440.5923, 3272.242
442.5208, 3318.107
444.4492, 3369.664
446.3777, 3434.878
448.3062, 3519.318
450.2346, 3622.223
452.1631, 3731.717
454.0916, 3838.650
456.0200, 3939.951
457.9485, 4047.430
459.8770, 4172.173
461.8054, 4307.852
463.7339, 4444.858
465.6624, 4566.816
467.5908, 4656.794
469.5193, 4708.479
471.4478, 4740.875
473.3762, 4753.886
475.3047, 4742.522
477.2332, 4699.122
479.1616, 4618.853
481.0901, 4506.188
483.0186, 4377.031
484.9470, 4234.773
486.8755, 4068.844
488.8040, 3889.064
490.7324, 3701.403
492.6609, 3511.653
494.5894, 3311.311
496.5178, 3129.536
498.4463, 2983.333
500.3748, 2871.316
502.3032, 2770.642
504.2317, 2660.369
506.1602, 2561.552
508.0886, 2485.696
510.0171, 2430.071
511.9456, 2384.493
513.8740, 2350.301
515.8025, 2323.310
517.7310, 2299.990
519.6594, 2273.816
521.5879, 2263.015
523.5164, 2281.942
525.4448, 2322.266
527.3733, 2368.538
529.3018, 2410.102
531.2302, 2446.920
533.1587, 2483.422
535.0872, 2523.492
537.0156, 2568.701
538.9441, 2620.097
540.8726, 2680.626
542.8010, 2748.774
544.7295, 2819.159
546.6580, 2871.576
548.5864, 2903.180
550.5149, 2925.048
552.4434, 2945.471
554.3718, 2962.292
556.3003, 2964.475
558.2288, 2949.708
560.1572, 2919.151
562.0857, 2870.216
564.0142, 2803.832
565.9426, 2727.967
567.8711, 2644.768
569.7996, 2564.953
571.7280, 2494.737
573.6565, 2435.707
575.5850, 2381.554
577.5134, 2325.801
579.4419, 2263.829
581.3704, 2210.800
583.2988, 2180.399
585.2273, 2167.375
587.1558, 2168.667
589.0842, 2169.023
591.0127, 2164.599
592.9412, 2156.033
594.8696, 2153.809
596.7981, 2167.161
598.7266, 2194.209
600.6550, 2214.948
602.5835, 2224.778
604.5120, 2231.730
606.4404, 2244.308
608.3689, 2258.199
610.2974, 2264.789
612.2258, 2263.478
614.1543, 2258.760
616.0828, 2252.189
618.0112, 2245.290
619.9397, 2232.072
621.8682, 2208.999
623.7966, 2178.376
625.7251, 2149.078
627.6536, 2121.688
629.5820, 2089.348
631.5105, 2046.087
633.4390, 1999.573
635.3674, 1958.706
637.2959, 1927.659
639.2244, 1897.005
641.1528, 1862.132
643.0813, 1820.444
645.0098, 1780.834
646.9382, 1744.291
648.8667, 1707.683
650.7952, 1665.896
652.7236, 1623.078
654.6521, 1587.417
656.5806, 1563.952
658.5090, 1540.735
660.4375, 1510.357
662.3660, 1473.923
664.2944, 1444.330
666.2229, 1424.870
668.1514, 1407.542
670.0798, 1388.037
672.0083, 1367.654
673.9368, 1350.807
675.8652, 1338.989
677.7937, 1328.784
679.7222, 1316.736
681.6506, 1301.120
683.5791, 1287.550
685.5076, 1278.095
687.4360, 1272.640
689.3645, 1268.611
691.2930, 1265.355
693.2214, 1261.237
695.1499, 1256.047
697.0784, 1251.825
699.0068, 1248.003
700.9353, 1244.114
702.8638, 1238.830
704.7922, 1229.852
706.7207, 1219.429
708.6492, 1212.958
710.5776, 1215.920
712.5061, 1217.882
714.4346, 1214.381
716.3630, 1204.803
718.2915, 1199.171
720.2200, 1200.686
722.1484, 1202.381
724.0769, 1200.522
726.0054, 1196.230
727.9338, 1192.963
729.8623, 1190.439
731.7908, 1188.714
733.7192, 1189.402
735.6477, 1193.298
737.5762, 1196.080
739.5046, 1197.642
741.4331, 1197.192
743.3616, 1194.179
745.2900, 1187.681
747.2185, 1182.501
749.1470, 1180.504
751.0754, 1178.219
753.0039, 1172.829
754.9324, 1165.340
756.8608, 1160.104
758.7893, 1159.113
760.7178, 1159.090
762.6462, 1158.142
764.5747, 1155.191
766.5032, 1155.195
768.4316, 1161.883
770.3601, 1168.286
772.2886, 1168.718
774.2170, 1163.107
776.1455, 1157.284
778.0740, 1151.904
780.0024, 1147.413
781.9309, 1143.449
783.8594, 1139.656
785.7878, 1136.144
787.7163, 1132.282
789.6448, 1131.415
791.5732, 1135.274
793.5017, 1142.725
795.4302, 1144.550
797.3586, 1133.681
799.2871, 1121.733
801.2156, 1117.166
803.1440, 1124.722
805.0725, 1127.304
807.0010, 1118.569
808.9294, 1106.371
810.8579, 1102.065
812.7864, 1107.000
814.7148, 1111.384
816.6433, 1112.160
818.5718, 1113.211
820.5002, 1116.354
822.4287, 1122.537
824.3572, 1126.682
826.2856, 1128.479
828.2141, 1127.868
830.1426, 1125.972
832.0710, 1122.472
833.9995, 1121.408
835.9280, 1127.268
837.8564, 1132.781
839.7849, 1129.248
841.7134, 1114.097
843.6418, 1108.927
845.5703, 1123.779
847.4988, 1141.956
849.4272, 1151.801
851.3557, 1152.002
853.2842, 1150.929
855.2126, 1148.781
857.1411, 1148.053
859.0696, 1149.772
860.9980, 1150.882
862.9265, 1150.515
864.8550, 1147.794
866.7834, 1151.152
868.7119, 1158.502
870.6404, 1169.007
872.5688, 1177.304
874.4973, 1181.686
876.4258, 1181.995
878.3542, 1182.005
880.2827, 1186.383
882.2112, 1193.119
884.1396, 1202.378
886.0681, 1206.720
887.9966, 1208.479
889.9250, 1211.575
891.8535, 1217.087
893.7820, 1226.098
895.7104, 1237.297
897.6389, 1245.019
899.5674, 1245.823
901.4958, 1248.224
903.4243, 1253.959
905.3528, 1258.805
907.2813, 1262.047
909.2097, 1270.856
911.1382, 1282.870
913.0667, 1293.336
914.9951, 1298.991
916.9236, 1305.407
918.8521, 1324.386
920.7805, 1335.692
922.7090, 1329.433
924.6375, 1318.797
926.5659, 1328.822
928.4944, 1355.558
930.4229, 1373.876
932.3513, 1376.026
934.2798, 1373.457
936.2083, 1374.827
938.1367, 1384.503
940.0652, 1398.817
941.9937, 1413.033
943.9221, 1426.411
945.8506, 1441.848
947.7791, 1460.679
949.7075, 1475.458
951.6360, 1489.558
953.5645, 1509.750
955.4929, 1538.643
957.4214, 1567.542
959.3499, 1593.864
961.2783, 1617.073
963.2068, 1644.561
965.1353, 1681.500
967.0637, 1732.611
968.9922, 1786.913
970.9207, 1844.467
972.8491, 1904.247
974.7776, 1964.157
976.7061, 2025.512
978.6345, 2096.167
980.5630, 2174.689
982.4915, 2263.839
984.4199, 2372.257
986.3484, 2502.259
988.2769, 2641.607
990.2053, 2776.163
992.1338, 2926.094
994.0623, 3096.503
995.9907, 3280.585
997.9192, 3459.941
999.8477, 3643.802
1001.776, 3849.265
1003.705, 4069.604
1005.633, 4307.875
1007.562, 4568.543
1009.490, 4848.190
1011.418, 5116.221
1013.347, 5369.813
1015.275, 5616.167
1017.204, 5857.990
1019.132, 6095.453
1021.061, 6312.431
1022.989, 6495.555
1024.918, 6636.625
1026.846, 6734.167
1028.775, 6789.801
1030.703, 6772.888
1032.632, 6665.918
1034.560, 6516.941
1036.489, 6345.622
1038.417, 6153.188
1040.345, 5947.020
1042.274, 5732.167
1044.202, 5525.755
1046.131, 5312.918
1048.059, 5089.464
1049.988, 4903.200
1051.916, 4797.316
1053.845, 4740.448
1055.773, 4710.380
1057.702, 4695.854
1059.630, 4703.534
1061.559, 4741.717
1063.487, 4802.342
1065.416, 4874.136
1067.344, 4977.879
1069.272, 5125.355
1071.201, 5318.836
1073.129, 5529.096
1075.058, 5752.028
1076.986, 5988.303
1078.915, 6235.567
1080.843, 6490.041
1082.772, 6767.466
1084.700, 7083.561
1086.629, 7419.657
1088.557, 7749.341
1090.486, 8071.361
1092.414, 8390.608
1094.343, 8716.944
1096.271, 9024.055
1098.199, 9303.563
1100.128, 9558.304
1102.056, 9764.237
1103.985, 9916.844
1105.913, 9998.713
1107.842, 10024.02
1109.770, 9985.396
1111.699, 9864.927
1113.627, 9649.684
1115.556, 9370.014
1117.484, 9010.774
1119.413, 8618.920
1121.341, 8207.737
1123.270, 7776.512
1125.198, 7336.611
1127.126, 6874.834
1129.055, 6435.107
1130.983, 6056.687
1132.912, 5719.304
1134.840, 5391.364
1136.769, 5063.086
1138.697, 4763.582
1140.626, 4502.703
1142.554, 4277.102
1144.483, 4080.210
1146.411, 3910.421
1148.340, 3762.953
1150.268, 3643.067
1152.197, 3545.359
1154.125, 3466.766
1156.053, 3403.374
1157.982, 3340.318
1159.910, 3273.537
1161.839, 3214.491
1163.767, 3168.236
1165.696, 3134.364
1167.624, 3107.322
1169.553, 3086.397
1171.481, 3073.087
1173.410, 3079.643
1175.338, 3082.100
1177.267, 3066.250
1179.195, 3036.087
1181.124, 3010.429
1183.052, 2990.259
1184.980, 2970.262
1186.909, 2954.692
1188.837, 2942.718
1190.766, 2927.737
1192.694, 2909.034
1194.623, 2891.609
1196.551, 2874.232
1198.480, 2860.386
1200.408, 2854.357
1202.337, 2854.053
1204.265, 2847.125
1206.194, 2828.128
1208.122, 2809.234
1210.051, 2802.202
1211.979, 2796.246
1213.907, 2768.453
1215.836, 2702.722
1217.764, 2646.003
1219.693, 2611.043
1221.621, 2576.774
1223.550, 2526.891
1225.478, 2461.295
1227.407, 2399.316
1229.335, 2341.363
1231.264, 2284.921
1233.192, 2227.853
1235.121, 2172.067
1237.049, 2120.250
1238.978, 2072.715
1240.906, 2028.763
1242.834, 1990.521
1244.763, 1954.140
1246.691, 1915.472
1248.620, 1874.533
1250.548, 1842.269
1252.477, 1826.482
1254.405, 1809.775
1256.334, 1785.164
1258.262, 1757.445
1260.191, 1735.175
1262.119, 1718.078
1264.048, 1705.612
1265.976, 1702.051
1267.905, 1698.904
1269.833, 1690.608
1271.761, 1680.369
1273.690, 1672.038
1275.618, 1663.837
1277.547, 1656.771
1279.475, 1656.317
1281.404, 1655.265
1283.332, 1643.733
1285.261, 1620.713
1287.189, 1604.689
1289.118, 1600.179
1291.046, 1602.020
1292.975, 1610.350
1294.903, 1621.316
1296.832, 1629.847
1298.760, 1633.434
1300.688, 1629.842
1302.617, 1613.304
1304.545, 1601.927
1306.474, 1607.042
1308.402, 1622.518
1310.331, 1631.405
1312.259, 1631.540
1314.188, 1631.962
1316.116, 1634.831
1318.045, 1637.606
1319.973, 1638.711
1321.902, 1635.677
1323.830, 1631.132
1325.759, 1628.640
1327.687, 1628.058
1329.615, 1627.940
1331.544, 1625.516
1333.472, 1623.854
1335.401, 1623.664
1337.329, 1621.234
1339.258, 1613.595
1341.186, 1606.140
1343.115, 1600.580
1345.043, 1598.156
1346.972, 1601.850
1348.900, 1615.789
1350.829, 1622.467
1352.757, 1617.099
1354.686, 1588.661
1356.614, 1616.836
1358.542, 1632.994
1360.471, 1637.781
1362.399, 1597.139
1364.328, 1615.160
1366.256, 1609.671
1368.185, 1603.218
1370.113, 1629.495
1372.042, 1595.461
1373.970, 1621.218
1375.899, 1623.108
1377.827, 1635.922
1379.756, 1625.081
1381.684, 1621.546
1383.613, 1641.674
1385.541, 1648.699
1387.469, 1635.135
1389.398, 1648.643
1391.326, 1613.782
1393.255, 1621.366
1395.183, 1647.262
1397.112, 1634.888
1399.040, 1648.828
1400.969, 1621.157
1402.897, 1620.758
1404.826, 1622.695
1406.754, 1627.037
1408.683, 1632.347
1410.611, 1632.758
1412.540, 1623.846
1414.468, 1620.522
1416.396, 1624.872
1418.325, 1630.641
1420.253, 1635.720
1422.182, 1641.416
1424.110, 1645.844
1426.039, 1642.925
1427.967, 1646.464
1429.896, 1665.092
1431.824, 1661.161
1433.753, 1689.751
1435.681, 1706.324
1437.610, 1711.526
1439.538, 1671.299
1441.467, 1689.734
1443.395, 1684.660
1445.323, 1678.621
1447.252, 1705.313
1449.180, 1671.694
1451.109, 1697.866
1453.037, 1700.171
1454.966, 1713.399
1456.894, 1702.973
1458.823, 1699.854
1460.751, 1720.395
1462.680, 1727.836
1464.608, 1714.687
1466.537, 1728.610
1468.465, 1694.164
1470.394, 1702.162
1472.322, 1728.473
1474.250, 1716.513
1476.179, 1730.869
1478.107, 1735.202
1480.036, 1693.989
1481.964, 1731.985
1483.893, 1735.726
1485.821, 1704.293
1487.750, 1739.576
1489.678, 1712.993
1491.607, 1708.492
1493.535, 1716.182
1495.464, 1722.060
1497.392, 1747.834
1499.321, 1771.356
1501.249, 1775.213
1503.177, 1762.934
1505.106, 1753.400
1507.034, 1744.485
1508.963, 1739.965
1510.891, 1744.529
1512.820, 1751.694
1514.748, 1754.875
1516.677, 1756.304
1518.605, 1767.127
1520.534, 1791.844
1522.462, 1810.698
1524.391, 1817.365
1526.319, 1820.228
1528.248, 1823.340
1530.176, 1825.773
1532.104, 1825.679
1534.033, 1823.513
1535.961, 1820.374
1537.890, 1811.643
1539.818, 1808.458
1541.747, 1825.113
1543.675, 1847.112
1545.604, 1849.627
1547.532, 1832.464
1549.461, 1828.301
1551.389, 1847.590
1553.318, 1865.513
1555.246, 1870.584
1557.175, 1870.406
1559.103, 1874.000
1561.031, 1881.156
1562.960, 1885.191
1564.888, 1881.590
1566.817, 1886.949
1568.745, 1917.734
1570.674, 1948.482
1572.602, 1957.742
1574.531, 1951.080
1576.459, 1949.879
1578.388, 1955.658
1580.316, 1964.134
1582.245, 1977.028
1584.173, 1989.352
1586.102, 1995.335
1588.030, 2000.639
1589.958, 2018.208
1591.887, 2050.002
1593.815, 2068.821
1595.744, 2063.334
1597.672, 2058.713
1599.601, 2061.467
1601.529, 2070.551
1603.458, 2090.036
1605.386, 2119.649
1607.315, 2133.830
1609.243, 2121.438
1611.172, 2117.836
1613.100, 2135.409
1615.029, 2157.729
1616.957, 2175.096
1618.885, 2188.966
1620.814, 2205.779
1622.742, 2226.967
1624.671, 2245.393
1626.599, 2264.607
1628.528, 2275.970
1630.456, 2269.856
1632.385, 2259.550
1634.313, 2260.710
1636.242, 2274.019
1638.170, 2289.943
1640.099, 2313.960
1642.027, 2329.574
1643.956, 2329.906
1645.884, 2325.772
1647.813, 2320.194
1649.741, 2315.809
1651.669, 2322.998
1653.598, 2351.806
1655.526, 2360.032
1657.455, 2320.754
1659.383, 2292.961
1661.312, 2301.658
1663.240, 2322.316
1665.169, 2330.998
1667.097, 2327.575
1669.026, 2316.346
1670.954, 2289.502
1672.883, 2269.317
1674.811, 2266.311
1676.740, 2260.745
1678.668, 2240.169
1680.596, 2212.530
1682.525, 2192.020
1684.453, 2180.146
1686.382, 2170.383
1688.310, 2164.806
1690.239, 2158.672
1692.167, 2152.545
1694.096, 2143.982
1696.024, 2124.096
1697.953, 2099.909
1699.881, 2099.989
1701.810, 2134.555
1703.738, 2156.314
1705.667, 2154.312
1707.595, 2148.734
1709.523, 2140.128
1711.452, 2134.159
1713.380, 2140.137
1715.309, 2155.663
1717.237, 2157.579
1719.166, 2139.683
1721.094, 2128.159
1723.023, 2129.955
1724.951, 2134.881
1726.880, 2142.880
1728.808, 2149.878
1730.737, 2148.554
1732.665, 2139.444
1734.594, 2138.379
1736.522, 2148.303
1738.450, 2157.291
1740.379, 2166.906
1742.307, 2169.919
1744.236, 2155.336
1746.164, 2137.558
1748.093, 2138.413
1750.021, 2156.762
1751.950, 2170.715
1753.878, 2179.680
1755.807, 2183.017
1757.735, 2174.856
1759.664, 2168.450
1761.592, 2173.946
1763.521, 2183.040
1765.449, 2182.105
1767.377, 2172.626
1769.306, 2170.670
1771.234, 2179.387
1773.163, 2188.121
1775.091, 2196.375
1777.020, 2200.963
1778.948, 2193.853
1780.877, 2185.799
1782.805, 2193.297
1784.734, 2213.538
1786.662, 2226.307
1788.591, 2228.731
1790.519, 2230.188
1792.448, 2230.346
1794.376, 2233.602
1796.304, 2246.691
1798.233, 2261.116
1800.161, 2268.012
1802.090, 2267.382
1804.018, 2255.639
1805.947, 2226.982
1807.875, 2211.020
1809.804, 2224.438
1811.732, 2235.680
1813.661, 2229.434
1815.589, 2218.606
1817.518, 2214.562
1819.446, 2217.261
1821.375, 2227.523
1823.303, 2250.163
1825.231, 2263.585
1827.160, 2254.475
1829.088, 2252.834
1831.017, 2273.302
1832.945, 2296.264
1834.874, 2305.808
1836.802, 2305.880
1838.731, 2306.851
1840.659, 2308.924
1842.588, 2311.109
1844.516, 2317.167
1846.445, 2318.618
1848.373, 2309.653
1850.302, 2302.474
1852.230, 2304.043
1854.158, 2310.779
1856.087, 2317.074
1858.015, 2322.861
1859.944, 2333.951
1861.872, 2353.536
1863.801, 2366.447
1865.729, 2366.590
1867.658, 2365.667
1869.586, 2371.426
1871.515, 2374.743
1873.443, 2363.915
1875.372, 2345.679
1877.300, 2336.136
1879.229, 2335.563
1881.157, 2351.558
1883.085, 2397.016
1885.014, 2423.711
1886.942, 2402.860
1888.871, 2379.581
1890.799, 2383.918
1892.728, 2397.837
1894.656, 2392.339
1896.585, 2373.723
1898.513, 2380.776
1900.442, 2422.719
1902.370, 2448.620
1904.299, 2441.042
1906.227, 2432.808
1908.156, 2432.627
1910.084, 2434.623
1912.012, 2435.871
1913.941, 2435.938
1915.869, 2431.619
1917.798, 2422.424
1919.726, 2425.519
1921.655, 2455.093
1923.583, 2470.136
1925.512, 2459.367
1927.440, 2448.233
1929.369, 2443.546
1931.297, 2442.426
1933.226, 2443.542
1935.154, 2445.843
1937.083, 2445.514
1939.011, 2442.346
1940.939, 2447.376
1942.868, 2463.911
1944.796, 2477.962
1946.725, 2483.809
1948.653, 2492.978
1950.582, 2520.059
1952.510, 2544.164
1954.439, 2540.756
1956.367, 2523.134
1958.296, 2521.135
1960.224, 2533.514
1962.153, 2535.275
1964.081, 2519.085
1966.010, 2509.965
1967.938, 2518.364
1969.866, 2527.227
1971.795, 2531.874
1973.723, 2535.146
1975.652, 2536.857
1977.580, 2539.811
1979.509, 2552.014
1981.437, 2573.816
1983.366, 2584.650
1985.294, 2579.200
1987.223, 2575.546
1989.151, 2570.164
1991.080, 2574.885
1993.008, 2605.081
1994.937, 2633.408
1996.865, 2642.553
1998.793, 2640.374
2000.722, 2634.240
2002.650, 2626.564
2004.579, 2629.319
2006.507, 2643.991
2008.436, 2657.094
2010.364, 2667.508
2012.293, 2675.280
2014.221, 2680.321
2016.150, 2682.611
2018.078, 2675.930
2020.007, 2671.278
2021.935, 2685.448
2023.864, 2710.224
2025.792, 2719.283
2027.720, 2709.794
2029.649, 2711.667
2031.577, 2729.380
2033.506, 2748.712
2035.434, 2778.187
2037.363, 2793.904
2039.291, 2776.728
2041.220, 2757.758
2043.148, 2760.054
2045.077, 2769.439
2047.005, 2762.083
2048.934, 2746.054
2050.862, 2752.806
2052.791, 2783.996
2054.719, 2804.316
2056.647, 2804.861
2058.576, 2808.076
2060.504, 2822.125
2062.433, 2833.766
2064.361, 2836.732
2066.290, 2837.048
2068.218, 2840.989
2070.147, 2845.420
2072.075, 2841.102
2074.004, 2830.989
2075.932, 2840.030
2077.861, 2874.051
2079.789, 2892.421
2081.718, 2886.554
2083.646, 2881.855
2085.574, 2884.378
2087.503, 2885.797
2089.431, 2876.475
2091.360, 2871.435
2093.288, 2888.443
2095.217, 2912.684
2097.145, 2925.092
2099.074, 2926.833
2101.002, 2918.518
2102.931, 2896.334
2104.859, 2891.243
2106.788, 2918.029
2108.716, 2936.791
2110.645, 2939.608
2112.573, 2941.535
2114.501, 2946.910
2116.430, 2950.975
2118.358, 2949.971
2120.287, 2946.916
2122.215, 2945.358
2124.144, 2944.856
2126.072, 2943.508
2128.001, 2941.848
2129.929, 2943.181
2131.858, 2948.365
2133.786, 2953.308
2135.715, 2957.915
2137.643, 2961.908
2139.572, 2966.047
2141.500, 2968.668
2143.428, 2963.343
2145.357, 2961.698
2147.285, 2976.408
2149.214, 2997.941
2151.142, 3014.677
2153.071, 3025.570
2154.999, 3022.313
2156.928, 3005.368
2158.856, 3002.798
2160.785, 3020.580
2162.713, 3027.627
2164.642, 3012.477
2166.570, 3001.191
2168.499, 3007.400
2170.427, 3011.424
2172.355, 2995.649
2174.284, 2982.993
2176.212, 2993.584
2178.141, 3018.854
2180.069, 3054.089
2181.998, 3092.653
2183.926, 3099.125
2185.855, 3072.406
2187.783, 3066.320
2189.712, 3086.715
2191.640, 3097.817
2193.569, 3092.248
2195.497, 3083.893
2197.426, 3076.104
2199.354, 3067.634
2201.282, 3056.145
2203.211, 3046.801
2205.139, 3041.273
2207.068, 3042.036
2208.996, 3058.991
2210.925, 3082.491
2212.853, 3082.769
2214.782, 3062.401
2216.710, 3071.011
2218.639, 3111.245
2220.567, 3130.162
2222.496, 3116.453
2224.424, 3112.581
2226.353, 3130.567
2228.281, 3147.786
2230.209, 3158.530
2232.138, 3163.726
2234.066, 3163.069
2235.995, 3158.543
2237.923, 3150.607
2239.852, 3141.688
2241.780, 3131.102
2243.709, 3123.426
2245.637, 3132.654
2247.566, 3156.275
2249.494, 3179.962
2251.423, 3203.178
2253.351, 3202.859
2255.280, 3166.967
2257.208, 3154.393
2259.136, 3198.650
2261.065, 3222.801
2262.993, 3189.177
2264.922, 3163.481
2266.850, 3180.040
2268.779, 3200.209
2270.707, 3203.036
2272.636, 3195.475
2274.564, 3176.026
2276.493, 3155.991
2278.421, 3155.381
2280.350, 3169.999
2282.278, 3188.343
2284.207, 3209.993
2286.135, 3230.622
2288.063, 3251.114
2289.992, 3266.116
2291.920, 3276.289
2293.849, 3277.556
2295.777, 3256.336
2297.706, 3250.114
2299.634, 3282.589
2301.563, 3302.894
2303.491, 3275.950
2305.420, 3250.562
2307.348, 3262.812
2309.277, 3286.354
2311.205, 3303.865
2313.134, 3312.556
2315.062, 3302.496
2316.990, 3281.612
2318.919, 3272.071
2320.847, 3273.544
2322.776, 3282.565
2324.704, 3299.428
2326.633, 3301.133
2328.561, 3282.769
2330.490, 3277.356
2332.418, 3291.223
2334.347, 3310.806
2336.275, 3342.801
2338.204, 3364.536
2340.132, 3366.005
2342.061, 3362.990
2343.989, 3363.239
2345.917, 3359.877
2347.846, 3341.034
2349.774, 3325.076
2351.703, 3329.761
2353.631, 3345.583
2355.560, 3366.317
2357.488, 3386.056
2359.417, 3390.520
2361.345, 3381.899
2363.274, 3372.388
2365.202, 3361.693
2367.131, 3354.234
2369.059, 3350.484
2370.988, 3350.744
2372.916, 3357.293
2374.844, 3357.836
2376.773, 3346.703
2378.701, 3345.042
2380.630, 3360.983
2382.558, 3381.073
2384.487, 3411.066
2386.415, 3429.432
2388.344, 3419.546
2390.272, 3378.829
2392.201, 3415.920
2394.129, 3438.827
2396.058, 3448.308
2397.986, 3404.623
2399.915, 3429.218
2401.843, 3426.222
2403.771, 3421.938
2405.700, 3455.679
2407.628, 3418.894
2409.557, 3451.705
2411.485, 3456.507
2413.414, 3473.893
2415.342, 3463.518
2417.271, 3461.506
2419.199, 3486.936
2421.128, 3496.921
2423.056, 3482.721
2424.985, 3499.944
2426.913, 3460.573
2428.842, 3470.560
2430.770, 3501.749
2432.698, 3488.126
2434.627, 3505.043
2436.555, 3510.105
2438.484, 3461.867
2440.412, 3505.879
2442.341, 3509.763
2444.269, 3472.451
2446.198, 3512.810
2448.126, 3480.830
2450.055, 3474.451
2451.983, 3487.298
2453.912, 3479.771
2455.840, 3503.948
2457.769, 3497.264
2459.697, 3487.676
2461.625, 3489.895
2463.554, 3458.033
2465.482, 3488.935
2467.411, 3476.691
2469.339, 3488.229
2471.268, 3495.700
2473.196, 3502.616
2475.125, 3517.345
2477.053, 3541.138
2478.982, 3547.473
2480.910, 3531.273
2482.839, 3517.200
2484.767, 3508.635
2486.696, 3503.856
2488.624, 3503.432
2490.552, 3507.108
2492.481, 3517.755
2494.409, 3528.618
2496.338, 3540.953
2498.266, 3547.582
2500.195, 3540.597
2502.123, 3535.365
2504.052, 3539.487
2505.980, 3545.663
2507.909, 3551.299
2509.837, 3555.391
2511.766, 3555.335
2513.694, 3555.959
2515.623, 3562.636
2517.551, 3571.252
2519.479, 3585.190
2521.408, 3593.175
2523.336, 3571.433
2525.265, 3541.553
2527.193, 3539.147
2529.122, 3554.833
2531.050, 3569.375
2532.979, 3583.180
2534.907, 3599.484
2536.836, 3616.323
2538.764, 3631.802
2540.693, 3643.883
2542.621, 3639.677
2544.550, 3620.346
2546.478, 3614.129
2548.406, 3623.368
2550.335, 3619.563
2552.263, 3602.865
2554.192, 3596.320
2556.120, 3602.307
2558.049, 3607.608
2559.977, 3607.485
2561.906, 3616.342
2563.834, 3640.264
2565.763, 3654.705
2567.691, 3655.375
2569.620, 3655.929
2571.548, 3659.408
2573.477, 3657.736
2575.405, 3645.159
2577.333, 3637.206
2579.262, 3645.454
2581.190, 3646.008
2583.119, 3626.272
2585.047, 3615.057
2586.976, 3621.035
2588.904, 3633.003
2590.833, 3651.848
2592.761, 3666.952
2594.690, 3670.622
2596.618, 3674.328
2598.547, 3683.549
2600.475, 3693.598
2602.404, 3704.755
2604.332, 3711.730
2606.260, 3706.264
2608.189, 3701.509
2610.117, 3704.430
2612.046, 3712.271
2613.974, 3731.622
2615.903, 3745.734
2617.831, 3735.792
2619.760, 3722.660
2621.688, 3721.470
2623.617, 3728.026
2625.545, 3743.266
2627.474, 3758.413
2629.402, 3761.644
2631.331, 3759.842
2633.259, 3756.089
2635.188, 3756.210
2637.116, 3776.931
2639.044, 3799.461
2640.973, 3791.099
2642.901, 3777.502
2644.830, 3809.887
2646.758, 3855.798
2648.687, 3854.671
2650.615, 3827.923
2652.544, 3804.272
2654.472, 3790.389
2656.401, 3803.302
2658.329, 3830.480
2660.258, 3847.142
2662.186, 3857.598
2664.115, 3880.224
2666.043, 3904.738
2667.971, 3897.579
2669.900, 3873.108
2671.828, 3864.079
2673.757, 3866.707
2675.685, 3872.961
2677.614, 3878.416
2679.542, 3858.374
2681.471, 3825.105
2683.399, 3831.129
2685.328, 3865.042
2687.256, 3897.397
2689.185, 3926.281
2691.113, 3947.927
2693.042, 3960.698
2694.970, 3945.836
2696.898, 3913.957
2698.827, 3920.860
2700.755, 3952.909
2702.684, 3959.184
2704.612, 3945.665
2706.541, 3937.689
2708.469, 3936.724
2710.398, 3955.695
2712.326, 3988.481
2714.255, 4006.898
2716.183, 4012.377
2718.112, 4007.568
2720.040, 3994.903
2721.969, 3979.500
2723.897, 3964.965
2725.825, 3973.294
2727.754, 3999.677
2729.682, 4034.759
2731.611, 4070.830
2733.539, 4078.751
2735.468, 4066.038
2737.396, 4060.974
2739.325, 4061.247
2741.253, 4057.213
2743.182, 4050.026
2745.110, 4040.270
2747.039, 4031.382
2748.967, 4035.927
2750.896, 4049.151
2752.824, 4058.075
2754.752, 4062.328
2756.681, 4053.740
2758.609, 4042.476
2760.538, 4056.758
2762.466, 4083.686
2764.395, 4097.095
2766.323, 4098.872
2768.252, 4085.984
2770.180, 4069.776
2772.109, 4076.167
2774.037, 4094.003
2775.966, 4105.646
2777.894, 4114.321
2779.823, 4131.819
2781.751, 4144.912
2783.679, 4117.853
2785.608, 4086.508
2787.536, 4100.608
2789.465, 4134.936
2791.393, 4166.297
2793.322, 4189.905
2795.250, 4191.737
2797.179, 4190.319
2799.107, 4211.263
2801.036, 4231.836
2802.964, 4226.033
2804.893, 4216.707
2806.821, 4229.675
2808.750, 4243.218
2810.678, 4232.311
2812.606, 4224.351
2814.535, 4238.545
2816.463, 4259.372
2818.392, 4278.092
2820.320, 4296.903
2822.249, 4320.954
2824.177, 4339.823
2826.106, 4347.160
2828.034, 4352.594
2829.963, 4362.225
2831.891, 4369.810
2833.820, 4370.667
2835.748, 4372.487
2837.677, 4377.862
2839.605, 4380.907
2841.533, 4372.275
2843.462, 4376.049
2845.390, 4408.278
2847.319, 4437.442
2849.247, 4463.631
2851.176, 4476.314
2853.104, 4471.208
2855.033, 4467.070
2856.961, 4464.260
2858.890, 4470.247
2860.818, 4484.132
2862.747, 4510.604
2864.675, 4551.420
2866.604, 4564.906
2868.532, 4541.899
2870.460, 4532.311
2872.389, 4538.328
2874.317, 4553.339
2876.246, 4576.901
2878.174, 4594.990
2880.103, 4608.216
2882.031, 4623.445
2883.960, 4638.688
2885.888, 4633.076
2887.817, 4618.019
2889.745, 4642.448
2891.674, 4688.226
2893.602, 4721.438
2895.531, 4740.946
2897.459, 4733.233
2899.387, 4721.393
2901.316, 4751.896
2903.244, 4787.176
2905.173, 4780.457
2907.101, 4766.946
2909.030, 4781.340
2910.958, 4803.504
2912.887, 4817.661
2914.815, 4834.381
2916.744, 4864.613
2918.672, 4890.505
2920.601, 4902.521
2922.529, 4906.314
2924.458, 4892.306
2926.386, 4898.049
2928.314, 4950.179
2930.243, 4985.958
2932.171, 4969.787
2934.100, 4977.291
2936.028, 5021.496
2937.957, 5062.288
2939.885, 5097.107
2941.814, 5108.032
2943.742, 5083.924
2945.671, 5080.240
2947.599, 5097.194
2949.528, 5119.413
2951.456, 5146.979
2953.385, 5192.401
2955.313, 5246.030
2957.241, 5248.180
2959.170, 5223.284
2961.098, 5257.662
2963.027, 5317.140
2964.955, 5341.585
2966.884, 5350.986
2968.812, 5369.187
2970.741, 5393.301
2972.669, 5424.294
2974.598, 5453.894
2976.526, 5476.408
2978.455, 5493.752
2980.383, 5499.450
2982.312, 5512.677
2984.240, 5543.367
2986.168, 5577.014
2988.097, 5603.771
2990.025, 5646.067
2991.954, 5727.264
2993.882, 5776.987
2995.811, 5782.763
2997.739, 5797.891
2999.668, 5829.149
3001.596, 5858.094
3003.525, 5883.125
3005.453, 5913.205
3007.382, 5946.920
3009.310, 5972.737
3011.239, 5993.692
3013.167, 6017.667
3015.095, 6045.207
3017.024, 6073.555
3018.952, 6108.844
3020.881, 6169.444
3022.809, 6226.460
3024.738, 6240.011
3026.666, 6251.084
3028.595, 6284.058
3030.523, 6331.043
3032.452, 6392.422
3034.380, 6461.112
3036.309, 6554.332
3038.237, 6615.704
3040.166, 6628.508
3042.094, 6646.798
3044.022, 6677.610
3045.951, 6727.910
3047.879, 6801.550
3049.808, 6856.203
3051.736, 6893.637
3053.665, 6940.441
3055.593, 6996.239
3057.522, 7061.773
3059.450, 7130.591
3061.379, 7177.409
3063.307, 7226.082
3065.236, 7331.634
3067.164, 7426.552
3069.093, 7410.188
3071.021, 7405.372
3072.949, 7496.453
3074.878, 7593.605
3076.806, 7676.535
3078.735, 7715.559
3080.663, 7668.575
3082.592, 7684.779
3084.520, 7792.578
3086.449, 7914.359
3088.377, 8051.036
3090.306, 8123.764
3092.234, 8136.856
3094.163, 8168.553
3096.091, 8222.743
3098.020, 8317.648
3099.948, 8430.094
3101.876, 8518.042
3103.805, 8584.188
3105.733, 8614.277
3107.662, 8650.219
3109.590, 8721.579
3111.519, 8815.912
3113.447, 8941.454
3115.376, 9051.625
3117.304, 9127.366
3119.233, 9193.750
3121.161, 9247.159
3123.090, 9324.529
3125.018, 9428.918
3126.947, 9498.664
3128.875, 9533.582
3130.803, 9606.247
3132.732, 9705.810
3134.660, 9797.856
3136.589, 9878.565
3138.517, 9933.479
3140.446, 9986.172
3142.374, 10066.83
3144.303, 10149.48
3146.231, 10218.12
3148.160, 10281.13
3150.088, 10324.34
3152.017, 10397.23
3153.945, 10516.54
3155.874, 10619.40
3157.802, 10696.33
3159.730, 10759.37
3161.659, 10809.60
3163.587, 10888.28
3165.516, 10984.36
3167.444, 11054.37
3169.373, 11119.66
3171.301, 11238.08
3173.230, 11350.95
3175.158, 11384.29
3177.087, 11412.96
3179.015, 11483.58
3180.944, 11557.21
3182.872, 11614.98
3184.801, 11693.72
3186.729, 11812.75
3188.657, 11873.25
3190.586, 11851.33
3192.514, 11906.06
3194.443, 12019.90
3196.371, 12104.63
3198.300, 12159.88
3200.228, 12165.62
3202.157, 12163.48
3204.085, 12204.87
3206.014, 12262.20
3207.942, 12320.14
3209.871, 12379.60
3211.799, 12442.41
3213.728, 12495.41
3215.656, 12532.65
3217.584, 12570.09
3219.513, 12614.17
3221.441, 12608.89
3223.370, 12573.65
3225.298, 12631.81
3227.227, 12726.94
3229.155, 12712.02
3231.084, 12676.68
3233.012, 12731.46
3234.941, 12797.08
3236.869, 12832.13
3238.798, 12851.02
3240.726, 12855.73
3242.655, 12867.06
3244.583, 12886.90
3246.511, 12928.52
3248.440, 12989.24
3250.368, 13094.93
3252.297, 13213.39
3254.225, 13240.17
3256.154, 13220.22
3258.082, 13209.96
3260.011, 13222.37
3261.939, 13275.89
3263.868, 13343.89
3265.796, 13430.03
3267.725, 13490.53
3269.653, 13509.75
3271.582, 13546.98
3273.510, 13610.69
3275.438, 13645.98
3277.367, 13662.98
3279.295, 13735.41
3281.224, 13816.89
3283.152, 13808.82
3285.081, 13799.59
3287.009, 13893.69
3288.938, 13971.83
3290.866, 13947.69
3292.795, 13959.33
3294.723, 14035.08
3296.652, 14101.98
3298.580, 14150.83
3300.509, 14196.47
3302.437, 14236.10
3304.365, 14248.73
3306.294, 14256.13
3308.222, 14294.05
3310.151, 14337.03
3312.079, 14362.00
3314.008, 14385.99
3315.936, 14416.57
3317.865, 14433.52
3319.793, 14429.66
3321.722, 14423.43
3323.650, 14418.18
3325.579, 14433.57
3327.507, 14457.99
3329.436, 14450.97
3331.364, 14437.80
3333.292, 14447.49
3335.221, 14454.32
3337.149, 14437.14
3339.078, 14417.57
3341.006, 14400.67
3342.935, 14366.71
3344.863, 14311.71
3346.792, 14278.90
3348.720, 14261.01
3350.649, 14227.01
3352.577, 14173.98
3354.506, 14064.11
3356.434, 13979.35
3358.363, 13984.82
3360.291, 13991.26
3362.219, 13963.96
3364.148, 13918.38
3366.076, 13851.94
3368.005, 13824.61
3369.933, 13825.51
3371.862, 13793.29
3373.790, 13735.25
3375.719, 13662.04
3377.647, 13576.77
3379.576, 13473.81
3381.504, 13377.61
3383.433, 13290.36
3385.361, 13241.32
3387.290, 13247.24
3389.218, 13200.58
3391.146, 13114.84
3393.075, 13081.45
3395.003, 13056.76
3396.932, 12960.09
3398.860, 12863.61
3400.789, 12821.07
3402.717, 12777.90
3404.646, 12712.27
3406.574, 12646.66
3408.503, 12581.69
3410.431, 12502.51
3412.360, 12419.60
3414.288, 12390.99
3416.217, 12363.34
3418.145, 12260.63
3420.073, 12149.20
3422.002, 12056.12
3423.930, 11994.88
3425.859, 11975.78
3427.787, 11912.30
3429.716, 11799.14
3431.644, 11729.06
3433.573, 11682.95
3435.501, 11609.67
3437.430, 11548.70
3439.358, 11580.90
3441.287, 11558.91
3443.215, 11400.78
3445.144, 11288.44
3447.072, 11255.78
3449.000, 11203.15
3450.929, 11138.27
3452.857, 11101.11
3454.786, 11072.97
3456.714, 11030.70
3458.643, 10976.59
3460.571, 10902.97
3462.500, 10831.74
3464.428, 10764.35
3466.357, 10724.94
3468.285, 10707.71
3470.214, 10618.32
3472.142, 10506.06
3474.071, 10477.66
3475.999, 10460.79
3477.927, 10393.49
3479.856, 10337.50
3481.784, 10306.73
3483.713, 10280.92
3485.641, 10255.70
3487.570, 10214.10
3489.498, 10165.19
3491.427, 10137.78
3493.355, 10109.51
3495.284, 10065.78
3497.212, 10004.72
3499.141, 9921.439
3501.069, 9828.964
3502.998, 9724.465
3504.926, 9683.424
3506.854, 9669.543
3508.783, 9590.288
3510.711, 9485.411
3512.640, 9386.404
3514.568, 9293.248
3516.497, 9223.765
3518.425, 9113.327
3520.354, 8960.279
3522.282, 8828.071
3524.211, 8707.066
3526.139, 8567.479
3528.068, 8419.654
3529.996, 8267.016
3531.925, 8124.394
3533.853, 7998.218
3535.781, 7882.064
3537.710, 7774.299
3539.638, 7650.524
3541.567, 7527.298
3543.495, 7464.842
3545.424, 7406.563
3547.352, 7299.602
3549.281, 7202.360
3551.209, 7132.178
3553.138, 7057.234
3555.066, 6975.792
3556.995, 6905.613
3558.923, 6845.397
3560.852, 6801.359
3562.780, 6747.928
3564.708, 6651.869
3566.637, 6582.523
3568.565, 6563.238
3570.494, 6516.299
3572.422, 6443.791
3574.351, 6358.682
3576.279, 6289.549
3578.208, 6301.268
3580.136, 6289.847
3582.065, 6194.096
3583.993, 6142.205
3585.922, 6165.943
3587.850, 6130.866
3589.779, 6053.649
3591.707, 5963.964
3593.635, 5889.656
3595.564, 5856.968
3597.492, 5842.663
3599.421, 5862.785
3601.349, 5829.055
3603.278, 5751.741
3605.206, 5701.351
3607.135, 5679.123
3609.063, 5716.529
3610.992, 5730.498
3612.920, 5648.269
3614.849, 5610.684
3616.777, 5634.897
3618.706, 5638.593
3620.634, 5620.916
3622.563, 5575.703
3624.491, 5531.540
3626.419, 5510.772
3628.348, 5497.870
3630.276, 5492.669
3632.205, 5470.335
3634.133, 5437.634
3636.062, 5441.817
3637.990, 5458.333
3639.919, 5448.782
3641.847, 5447.434
3643.776, 5496.341
3645.704, 5477.477
3647.633, 5391.811
3649.561, 5357.942
3651.490, 5354.723
3653.418, 5335.746
3655.346, 5323.992
3657.275, 5341.731
3659.203, 5350.025
3661.132, 5342.916
3663.060, 5332.426
3664.989, 5320.549
3666.917, 5320.627
3668.846, 5311.940
3670.774, 5267.408
3672.703, 5238.254
3674.631, 5235.434
3676.560, 5244.924
3678.488, 5260.338
3680.417, 5253.225
3682.345, 5245.872
3684.273, 5265.781
3686.202, 5273.777
3688.130, 5255.918
3690.059, 5251.386
3691.987, 5258.911
3693.916, 5264.157
3695.844, 5254.878
3697.773, 5202.000
3699.701, 5172.339
3701.630, 5196.085
3703.558, 5191.109
3705.487, 5158.988
3707.415, 5163.539
3709.344, 5185.100
3711.272, 5202.469
3713.200, 5219.790
3715.129, 5240.560
3717.057, 5258.213
3718.986, 5265.808
3720.914, 5195.307
3722.843, 5119.723
3724.771, 5138.176
3726.700, 5167.096
3728.628, 5181.323
3730.557, 5167.793
3732.485, 5136.254
3734.414, 5179.093
3736.342, 5226.958
3738.271, 5179.002
3740.199, 5142.809
3742.127, 5159.755
3744.056, 5168.311
3745.984, 5164.646
3747.913, 5157.440
3749.841, 5150.406
3751.770, 5153.861
3753.698, 5148.059
3755.627, 5124.497
3757.555, 5118.037
3759.484, 5126.241
3761.412, 5132.514
3763.341, 5129.477
3765.269, 5092.792
3767.198, 5088.451
3769.126, 5137.957
3771.054, 5152.023
3772.983, 5138.644
3774.911, 5125.204
3776.840, 5122.574
3778.768, 5149.814
3780.697, 5155.302
3782.625, 5129.498
3784.554, 5140.442
3786.482, 5165.520
3788.411, 5147.691
3790.339, 5124.129
3792.268, 5107.758
3794.196, 5122.381
3796.125, 5165.131
3798.053, 5161.891
3799.981, 5139.628
3801.910, 5132.111
3803.838, 5138.145
3805.767, 5174.364
3807.695, 5159.627
3809.624, 5103.704
3811.552, 5050.018
3813.481, 5031.223
3815.409, 5116.389
3817.338, 5160.140
3819.266, 5099.902
3821.195, 5090.831
3823.123, 5112.341
3825.052, 5115.189
3826.980, 5110.321
3828.908, 5100.748
3830.837, 5105.480
3832.765, 5127.680
3834.694, 5117.511
3836.622, 5092.408
3838.551, 5065.103
3840.479, 5063.851
3842.408, 5102.177
3844.336, 5123.141
3846.265, 5125.679
3848.193, 5118.734
3850.122, 5111.334
3852.050, 5106.506
3853.979, 5116.533
3855.907, 5143.488
3857.835, 5137.235
3859.764, 5112.540
3861.692, 5097.916
3863.621, 5090.527
3865.549, 5089.444
3867.478, 5091.372
3869.406, 5093.683
3871.335, 5099.824
3873.263, 5112.137
3875.192, 5125.354
3877.120, 5107.789
3879.049, 5067.667
3880.977, 5086.637
3882.906, 5121.496
3884.834, 5102.031
3886.762, 5084.917
3888.691, 5093.283
3890.619, 5120.285
3892.548, 5148.990
3894.476, 5127.594
3896.405, 5094.439
3898.333, 5067.435
3900.262, 5062.580
3902.190, 5087.326
3904.119, 5112.023
3906.047, 5124.684
3907.976, 5097.275
3909.904, 5087.611
3911.833, 5105.048
3913.761, 5123.922
3915.689, 5143.053
3917.618, 5120.056
3919.546, 5092.582
3921.475, 5086.080
3923.403, 5069.664
3925.332, 5047.066
3927.260, 5033.275
3929.189, 5028.858
3931.117, 5044.272
3933.046, 5050.854
3934.974, 5041.193
3936.903, 5057.297
3938.831, 5083.940
3940.760, 5088.325
3942.688, 5086.903
3944.616, 5090.491
3946.545, 5070.357
3948.473, 5041.458
3950.402, 5048.753
3952.330, 5060.503
3954.259, 5057.849
3956.187, 5062.482
3958.116, 5074.538
3960.044, 5086.843
3961.973, 5093.735
3963.901, 5097.875
3965.830, 5080.137
3967.758, 5025.534
3969.687, 5004.649
3971.615, 5012.717
3973.543, 5041.240
3975.472, 5063.008
3977.400, 5071.905
3979.329, 5059.647
3981.257, 5040.198
3983.186, 5037.313
3985.114, 5043.989
3987.043, 5059.242
3988.971, 5058.564
3990.900, 5062.993
3992.828, 5071.371
3994.757, 5058.544
3996.685, 5018.529
3998.614, 5012.069
4000.542, 5043.711
4002.470, 5059.194
4004.399, 5062.574
4006.327, 5055.314
4008.256, 5041.520
4010.184, 5044.222
4012.113, 5044.127
4014.041, 5030.707
4015.970, 5040.101
4017.898, 5063.592
4019.827, 5076.611
4021.755, 5088.271
4023.684, 5090.305
4025.612, 5049.302
4027.541, 5028.855
4029.469, 5046.960
4031.397, 5065.095
4033.326, 5070.733
4035.254, 5064.462
4037.183, 5049.133
4039.111, 5028.260
4041.040, 5047.861
4042.968, 5091.028
4044.897, 5071.416
4046.825, 5040.455
4048.754, 5053.769
4050.682, 5061.914
4052.611, 5032.278
4054.539, 4983.002
4056.468, 4965.054
4058.396, 4972.458
4060.324, 4987.794
4062.253, 5002.478
4064.181, 4995.105
4066.110, 4988.783
4068.038, 4987.380
4069.967, 4979.696
4071.895, 4982.006
4073.824, 4982.873
4075.752, 4958.981
4077.681, 4954.658
4079.609, 4971.218
4081.538, 4959.149
4083.466, 4951.669
4085.395, 4979.539
4087.323, 4986.460
4089.251, 4976.178
4091.180, 4973.753
4093.108, 4963.510
4095.037, 4968.929
4096.965, 4966.479
4098.894, 4958.549
4100.822, 4954.815
4102.751, 4945.214
4104.679, 4944.158
4106.607, 4945.036
4108.536, 4935.429
4110.465, 4940.326
4112.393, 4954.023
4114.321, 4926.705
4116.250, 4906.581
4118.179, 4945.630
4120.107, 4966.045
4122.035, 4946.802
4123.964, 4975.696
4125.893, 4989.636
4127.821, 4928.731
4129.749, 4913.974
4131.678, 4937.018
4133.606, 4946.846
4135.535, 4940.175
4137.463, 4921.498
4139.392, 4928.010
4141.320, 4952.043
4143.249, 4923.551
4145.177, 4889.550
4147.105, 4896.973
4149.034, 4929.967
4150.962, 4978.530
4152.891, 4971.014
4154.819, 4944.862
4156.748, 4962.222
4158.676, 4941.774
4160.604, 4873.342
4162.533, 4893.121
4164.462, 4925.530
4166.390, 4871.708
4168.318, 4868.283
4170.247, 4921.039
4172.176, 4879.547
4174.104, 4832.007
4176.032, 4874.318
4177.961, 4897.473
4179.890, 4891.449
4181.818, 4904.104
4183.746, 4906.166
4185.675, 4859.370
4187.604, 4836.975
4189.532, 4844.009
4191.460, 4876.323
4193.389, 4891.974
4195.317, 4855.027
4197.246, 4826.371
4199.174, 4811.806
4201.103, 4831.628
4203.031, 4860.139
4204.959, 4881.303
4206.888, 4866.976
4208.816, 4826.108
4210.745, 4837.572
4212.673, 4859.913
4214.602, 4873.188
4216.530, 4845.697
4218.459, 4793.930
4220.387, 4812.211
4222.315, 4847.064
4224.244, 4868.581
4226.173, 4870.743
4228.101, 4860.135
4230.029, 4844.805
4231.958, 4837.230
4233.887, 4846.468
4235.815, 4869.021
4237.743, 4887.688
4239.672, 4853.771
4241.601, 4826.919
4243.529, 4828.598
4245.457, 4840.141
4247.386, 4846.117
4249.314, 4804.626
4251.243, 4799.072
4253.171, 4856.940
4255.100, 4829.465
4257.028, 4782.360
4258.957, 4805.115
4260.885, 4823.892
4262.813, 4823.263
4264.742, 4837.782
4266.670, 4846.539
4268.599, 4824.494
4270.527, 4821.601
4272.456, 4838.929
4274.384, 4817.560
4276.313, 4792.463
4278.241, 4781.155
4280.170, 4799.222
4282.098, 4832.262
4284.026, 4832.246
4285.955, 4818.344
4287.884, 4795.264
4289.812, 4807.417
4291.740, 4832.958
4293.669, 4825.496
4295.598, 4813.958
4297.526, 4806.169
4299.454, 4813.259
4301.383, 4816.285
4303.312, 4783.583
4305.240, 4774.505
4307.168, 4792.841
4309.097, 4795.898
4311.025, 4795.611
4312.954, 4802.291
4314.882, 4797.782
4316.811, 4788.091
4318.739, 4810.517
4320.667, 4811.536
4322.596, 4767.767
4324.524, 4746.080
4326.453, 4745.636
4328.381, 4766.665
4330.310, 4777.902
4332.238, 4772.447
4334.167, 4744.148
4336.095, 4735.988
4338.023, 4816.952
4339.952, 4836.738
4341.881, 4796.092
4343.809, 4775.942
4345.737, 4759.419
4347.666, 4728.927
4349.595, 4739.580
4351.523, 4770.526
4353.451, 4787.364
4355.380, 4774.041
4357.309, 4721.620
4359.237, 4746.977
4361.165, 4778.648
4363.094, 4723.247
4365.022, 4712.343
4366.951, 4746.786
4368.879, 4770.250
4370.808, 4767.438
4372.736, 4721.901
4374.665, 4722.887
4376.593, 4750.208
4378.521, 4779.758
4380.450, 4760.966
4382.378, 4692.896
4384.307, 4712.461
4386.235, 4751.594
4388.164, 4762.710
4390.092, 4751.484
4392.021, 4727.517
4393.949, 4702.535
4395.878, 4698.729
4397.806, 4722.133
4399.734, 4727.038
4401.663, 4731.142
4403.592, 4767.951
4405.520, 4785.449
4407.448, 4777.244
4409.377, 4730.797
4411.306, 4700.779
4413.234, 4728.527
4415.162, 4724.873
4417.091, 4715.981
4419.020, 4768.503
4420.948, 4762.324
4422.876, 4684.040
4424.805, 4664.594
4426.733, 4670.678
4428.662, 4685.890
4430.590, 4699.756
4432.519, 4704.994
4434.447, 4686.791
4436.375, 4662.565
4438.304, 4639.443
4440.232, 4635.779
4442.161, 4643.568
4444.089, 4660.491
4446.018, 4668.207
4447.946, 4667.828
4449.875, 4661.214
4451.803, 4659.408
4453.731, 4665.089
4455.660, 4655.836
4457.589, 4647.592
4459.517, 4656.060
4461.445, 4638.798
4463.374, 4617.006
4465.303, 4665.912
4467.231, 4680.144
4469.159, 4642.407
4471.088, 4614.092
4473.017, 4602.982
4474.945, 4617.910
4476.873, 4615.889
4478.802, 4611.336
4480.730, 4651.878
4482.659, 4662.160
4484.587, 4628.868
4486.516, 4643.348
4488.444, 4672.537
4490.373, 4699.358
4492.301, 4700.958
4494.229, 4679.602
4496.158, 4626.151
4498.086, 4607.444
4500.015, 4626.827
4501.943, 4643.871
4503.872, 4647.848
4505.800, 4631.115
4507.729, 4626.411
4509.657, 4625.087
4511.586, 4615.884
4513.514, 4598.261
4515.442, 4578.329
4517.371, 4587.186
4519.300, 4586.335
4521.228, 4562.525
4523.156, 4577.314
4525.085, 4604.041
4527.014, 4623.634
4528.942, 4615.301
4530.870, 4592.250
4532.799, 4585.034
4534.728, 4578.180
4536.656, 4569.803
4538.584, 4578.444
4540.513, 4597.263
4542.441, 4625.604
4544.370, 4637.238
4546.298, 4633.793
4548.227, 4604.980
4550.155, 4638.543
4552.083, 4699.384
4554.012, 4610.105
4555.940, 4561.250
4557.869, 4612.128
4559.797, 4593.393
4561.726, 4571.006
4563.654, 4605.928
4565.583, 4607.598
4567.511, 4598.957
4569.439, 4638.064
4571.368, 4625.809
4573.297, 4568.811
4575.225, 4546.981
4577.153, 4545.984
4579.082, 4559.148
4581.011, 4547.063
4582.939, 4528.246
4584.867, 4518.979
4586.796, 4509.770
4588.725, 4504.937
4590.653, 4509.333
4592.581, 4537.050
4594.510, 4575.614
4596.438, 4561.215
4598.367, 4560.601
4600.295, 4595.168
4602.224, 4553.144
4604.152, 4510.630
4606.081, 4537.628
4608.009, 4510.794
4609.938, 4474.133
4611.866, 4501.944
4613.794, 4515.305
4615.723, 4504.001
4617.651, 4457.788
4619.580, 4437.977
4621.508, 4458.576
4623.437, 4453.691
4625.365, 4451.084
4627.294, 4466.175
4629.222, 4487.891
4631.150, 4502.398
4633.079, 4495.932
4635.008, 4475.897
4636.936, 4461.088
4638.864, 4490.124
4640.793, 4518.228
4642.722, 4534.092
4644.650, 4511.185
4646.578, 4505.031
4648.507, 4527.663
4650.436, 4479.628
4652.364, 4445.671
4654.292, 4483.173
4656.221, 4467.893
4658.149, 4442.851
4660.078, 4467.195
4662.006, 4481.050
4663.935, 4486.196
4665.863, 4498.481
4667.792, 4498.601
4669.720, 4483.098
4671.648, 4439.885
4673.577, 4418.603
4675.505, 4434.255
4677.434, 4466.648
4679.362, 4480.676
4681.291, 4459.198
4683.219, 4448.715
4685.147, 4452.826
4687.076, 4474.929
4689.005, 4489.503
4690.933, 4497.136
4692.861, 4507.571
4694.790, 4485.672
4696.719, 4443.316
4698.647, 4406.078
4700.575, 4407.589
4702.504, 4439.197
4704.433, 4439.683
4706.361, 4427.669
4708.289, 4409.705
4710.218, 4437.283
4712.146, 4458.771
4714.075, 4450.496
4716.003, 4413.939
4717.932, 4389.269
4719.860, 4423.116
4721.789, 4427.969
4723.717, 4412.383
4725.646, 4378.538
4727.574, 4392.427
4729.502, 4428.436
4731.431, 4434.680
4733.359, 4431.542
4735.288, 4422.020
4737.216, 4399.670
4739.145, 4387.682
4741.073, 4390.372
4743.002, 4413.961
4744.930, 4407.233
4746.858, 4360.083
4748.787, 4349.635
4750.716, 4341.575
4752.644, 4318.766
4754.572, 4331.650
4756.501, 4345.797
4758.430, 4340.198
4760.358, 4328.097
4762.286, 4321.109
4764.215, 4333.264
4766.144, 4322.027
4768.072, 4311.209
4770.000, 4335.184
4771.929, 4351.116
4773.857, 4355.907
4775.786, 4345.084
4777.714, 4352.409
4779.643, 4371.434
4781.571, 4386.826
4783.500, 4363.706
4785.428, 4318.934
4787.356, 4322.741
4789.285, 4318.163
4791.213, 4301.716
4793.142, 4347.769
4795.070, 4349.989
4796.999, 4295.247
4798.927, 4260.853
4800.855, 4267.016
4802.784, 4319.118
4804.713, 4306.752
4806.641, 4277.613
4808.569, 4253.310
4810.498, 4240.563
4812.427, 4242.188
4814.355, 4261.553
4816.283, 4284.450
4818.212, 4291.320
4820.141, 4269.099
4822.069, 4280.225
4823.997, 4282.297
4825.926, 4222.547
4827.854, 4221.115
4829.783, 4239.160
4831.711, 4237.003
4833.640, 4268.671
4835.568, 4294.553
4837.497, 4251.300
4839.425, 4252.361
4841.354, 4261.402
4843.282, 4222.804
4845.210, 4177.371
4847.139, 4157.134
4849.067, 4225.729
4850.996, 4240.978
4852.924, 4215.018
4854.853, 4174.429
4856.781, 4160.442
4858.710, 4169.510
4860.638, 4200.945
4862.566, 4181.478
4864.495, 4139.227
4866.424, 4144.702
4868.352, 4160.797
4870.280, 4171.083
4872.209, 4141.892
4874.138, 4147.537
4876.066, 4174.103
4877.994, 4168.552
4879.923, 4159.529
4881.852, 4156.164
4883.780, 4177.273
4885.708, 4154.232
4887.637, 4118.836
4889.565, 4186.946
4891.494, 4209.196
4893.422, 4185.776
4895.351, 4185.292
4897.279, 4122.950
4899.208, 4043.736
4901.136, 4095.725
4903.064, 4125.602
4904.993, 4123.552
4906.921, 4127.841
4908.850, 4112.625
4910.778, 4094.159
4912.707, 4129.534
4914.635, 4129.259
4916.563, 4104.459
4918.492, 4108.916
4920.421, 4109.874
4922.349, 4099.350
4924.277, 4061.649
4926.206, 4064.305
4928.135, 4086.487
4930.063, 4068.674
4931.991, 4076.135
4933.920, 4090.906
4935.849, 4066.045
4937.777, 4075.211
4939.705, 4093.306
4941.634, 4057.755
4943.563, 4068.340
4945.491, 4082.452
4947.419, 4022.119
4949.348, 4017.628
4951.276, 4032.963
4953.205, 4009.884
4955.133, 4000.678
4957.062, 4008.417
4958.990, 4035.143
4960.918, 4072.705
4962.847, 4083.524
4964.775, 4034.839
4966.704, 3997.646
4968.632, 3993.202
4970.561, 4048.424
4972.489, 4025.106
4974.418, 3987.711
4976.346, 3974.100
4978.274, 4014.239
4980.203, 4030.485
4982.132, 3986.975
4984.060, 3986.373
4985.988, 3971.764
4987.917, 3923.923
4989.846, 3947.436
4991.774, 3958.605
4993.702, 3942.013
4995.631, 3964.485
4997.560, 3966.673
4999.488, 3944.692
5001.416, 3961.995
5003.345, 3953.931
5005.273, 3924.742
5007.202, 3927.043
5009.130, 3908.100
5011.059, 3888.024
5012.987, 3938.397
5014.916, 3935.659
5016.844, 3905.678
5018.772, 3905.635
5020.701, 3897.229
5022.629, 3895.215
5024.558, 3926.743
5026.486, 3909.457
5028.415, 3877.705
5030.343, 3856.844
5032.271, 3882.252
5034.200, 3887.170
5036.129, 3842.159
5038.057, 3856.959
5039.985, 3870.358
5041.914, 3857.012
5043.843, 3835.288
5045.771, 3860.560
5047.699, 3918.354
5049.628, 3868.491
5051.557, 3815.245
5053.485, 3787.944
5055.413, 3820.991
5057.342, 3813.466
5059.271, 3781.146
5061.199, 3765.749
5063.127, 3794.386
5065.056, 3826.508
5066.984, 3818.618
5068.913, 3758.233
5070.841, 3719.341
5072.770, 3765.926
5074.698, 3770.721
5076.626, 3748.773
5078.555, 3715.570
5080.483, 3747.355
5082.412, 3761.510
5084.340, 3742.988
5086.269, 3743.455
5088.197, 3735.945
5090.126, 3725.800
5092.054, 3740.219
5093.982, 3764.522
5095.911, 3769.328
5097.840, 3708.073
5099.768, 3708.910
5101.696, 3737.987
5103.625, 3765.162
5105.554, 3751.199
5107.482, 3742.441
5109.410, 3756.857
5111.339, 3747.422
5113.268, 3738.043
5115.196, 3734.152
5117.124, 3721.380
5119.053, 3713.729
5120.981, 3710.824
5122.910, 3706.339
5124.838, 3695.021
5126.767, 3692.615
5128.695, 3719.438
5130.624, 3717.794
5132.552, 3706.178
5134.480, 3699.578
5136.409, 3682.623
5138.337, 3677.470
5140.266, 3685.093
5142.194, 3660.000
5144.123, 3641.446
5146.051, 3637.488
5147.979, 3654.567
5149.908, 3647.611
5151.837, 3638.085
5153.765, 3658.284
5155.693, 3677.196
5157.622, 3686.880
5159.551, 3682.986
5161.479, 3658.975
5163.407, 3633.839
5165.336, 3614.932
5167.265, 3600.496
5169.193, 3617.930
5171.121, 3637.102
5173.050, 3586.377
5174.979, 3567.858
5176.907, 3572.245
5178.835, 3578.884
5180.764, 3594.644
5182.692, 3595.681
5184.621, 3573.558
5186.549, 3579.073
5188.478, 3579.732
5190.406, 3568.795
5192.334, 3550.091
5194.263, 3518.521
5196.191, 3490.114
5198.120, 3482.889
5200.048, 3500.425
5201.977, 3514.351
5203.905, 3509.212
5205.834, 3527.485
5207.762, 3495.622
5209.690, 3433.946
5211.619, 3474.552
5213.548, 3498.965
5215.476, 3504.259
5217.404, 3515.757
5219.333, 3461.188
5221.262, 3441.452
5223.190, 3506.434
5225.118, 3498.966
5227.047, 3482.701
5228.976, 3471.851
5230.904, 3435.897
5232.832, 3461.443
5234.761, 3484.264
5236.689, 3391.138
5238.618, 3404.663
5240.546, 3426.535
5242.475, 3404.261
5244.403, 3364.120
5246.332, 3377.415
5248.260, 3428.533
5250.188, 3445.063
5252.117, 3446.483
5254.045, 3427.158
5255.974, 3375.292
5257.902, 3367.849
5259.831, 3366.609
5261.759, 3361.269
5263.688, 3392.022
5265.616, 3389.037
5267.545, 3365.057
5269.473, 3368.178
5271.401, 3301.795
5273.330, 3278.354
5275.259, 3366.263
5277.187, 3370.531
5279.115, 3370.521
5281.044, 3372.879
5282.973, 3324.249
5284.901, 3318.869
5286.829, 3334.960
5288.758, 3346.927
5290.687, 3315.473
5292.615, 3292.302
5294.543, 3295.364
5296.472, 3314.387
5298.400, 3317.043
5300.329, 3320.843
5302.257, 3358.286
5304.186, 3338.872
5306.114, 3290.580
5308.042, 3239.283
5309.971, 3254.190
5311.899, 3258.530
5313.828, 3252.665
5315.756, 3266.509
5317.685, 3242.449
5319.613, 3233.561
5321.542, 3264.167
5323.470, 3233.401
5325.398, 3238.573
5327.327, 3262.943
5329.256, 3206.890
5331.184, 3222.099
5333.112, 3225.371
5335.041, 3165.140
5336.970, 3196.557
5338.898, 3241.116
5340.826, 3259.632
5342.755, 3205.217
5344.684, 3202.788
5346.612, 3203.446
5348.540, 3166.700
5350.469, 3169.772
5352.397, 3170.469
5354.326, 3164.324
5356.254, 3167.700
5358.183, 3152.682
5360.111, 3126.513
5362.040, 3100.869
5363.968, 3140.580
5365.896, 3148.014
5367.825, 3116.722
5369.753, 3078.572
5371.682, 3059.536
5373.610, 3075.939
5375.539, 3124.527
5377.467, 3093.152
5379.396, 3097.030
5381.324, 3118.027
5383.253, 3089.651
5385.181, 3059.478
5387.109, 3044.204
5389.038, 3048.751
5390.967, 3060.617
5392.895, 3080.846
5394.823, 3094.303
5396.752, 3082.793
5398.681, 3064.818
5400.609, 3046.269
5402.537, 3036.265
5404.466, 3069.781
5406.395, 3058.697
5408.323, 3036.048
5410.251, 3040.399
5412.180, 3027.622
5414.108, 3024.906
5416.037, 3033.896
5417.965, 3045.694
5419.894, 2994.688
5421.822, 2959.195
5423.750, 2980.030
5425.679, 2985.915
5427.607, 3002.077
5429.536, 3010.954
5431.464, 2976.224
5433.393, 2957.574
5435.321, 2951.197
5437.250, 2954.253
5439.178, 2970.839
5441.106, 2958.525
5443.035, 2944.820
5444.964, 2950.846
5446.892, 2923.936
5448.820, 2916.547
5450.749, 2930.697
5452.678, 2955.372
5454.606, 2929.692
5456.534, 2920.118
5458.463, 2937.724
5460.392, 2878.801
5462.320, 2868.209
5464.248, 2864.387
5466.177, 2825.498
5468.105, 2861.776
5470.034, 2899.188
5471.962, 2907.532
5473.891, 2867.491
5475.819, 2865.133
5477.748, 2868.670
5479.676, 2861.818
5481.604, 2843.855
5483.533, 2843.737
5485.461, 2837.027
5487.390, 2807.486
5489.318, 2822.829
5491.247, 2838.552
5493.175, 2840.529
5495.104, 2824.518
5497.032, 2846.807
5498.961, 2821.328
5500.889, 2761.738
5502.817, 2799.583
5504.746, 2806.324
5506.675, 2786.731
5508.603, 2758.156
5510.531, 2772.240
5512.460, 2786.322
5514.389, 2796.238
5516.317, 2804.005
5518.245, 2796.018
5520.174, 2789.028
5522.103, 2775.120
5524.031, 2733.856
5525.959, 2755.919
5527.888, 2761.414
5529.816, 2734.472
5531.745, 2711.375
5533.673, 2734.847
5535.602, 2727.732
5537.530, 2675.974
5539.458, 2704.164
5541.387, 2727.678
5543.315, 2730.543
5545.244, 2716.455
5547.172, 2731.487
5549.101, 2713.043
5551.029, 2682.618
5552.958, 2675.791
5554.886, 2650.306
5556.814, 2655.420
5558.743, 2682.099
5560.672, 2698.748
5562.600, 2654.811
5564.528, 2631.421
5566.457, 2650.911
5568.386, 2701.409
5570.314, 2656.693
5572.242, 2629.691
5574.171, 2651.412
5576.100, 2619.434
5578.028, 2614.322
5579.956, 2621.205
5581.885, 2624.568
5583.813, 2619.477
5585.742, 2603.196
5587.670, 2601.603
5589.599, 2626.873
5591.527, 2595.708
5593.456, 2585.360
5595.384, 2578.453
5597.313, 2549.613
5599.241, 2545.701
5601.169, 2573.961
5603.098, 2581.013
5605.026, 2517.271
5606.955, 2566.789
5608.883, 2571.459
5610.812, 2542.653
5612.740, 2556.940
5614.669, 2558.636
5616.597, 2527.215
5618.525, 2497.377
5620.454, 2538.703
5622.383, 2528.052
5624.311, 2499.469
5626.239, 2472.475
5628.168, 2456.263
5630.097, 2484.203
5632.025, 2498.138
5633.953, 2494.687
5635.882, 2512.582
5637.811, 2453.876
5639.739, 2416.949
5641.667, 2430.573
5643.596, 2473.709
5645.524, 2489.244
5647.453, 2491.168
5649.381, 2475.557
5651.310, 2398.539
5653.238, 2448.488
5655.167, 2464.581
5657.095, 2422.164
5659.023, 2414.994
5660.952, 2426.708
5662.880, 2423.644
5664.809, 2404.478
5666.737, 2391.203
5668.666, 2410.301
5670.594, 2422.571
5672.522, 2417.530
5674.451, 2409.742
5676.380, 2389.435
5678.308, 2387.668
5680.236, 2395.805
5682.165, 2365.914
5684.094, 2366.446
5686.022, 2366.453
5687.950, 2359.437
5689.879, 2353.749
5691.808, 2380.470
5693.736, 2372.222
5695.664, 2345.296
5697.593, 2352.280
5699.521, 2290.953
5701.450, 2288.368
5703.378, 2314.021
5705.307, 2289.436
5707.235, 2322.295
5709.164, 2318.681
5711.092, 2296.988
5713.021, 2301.909
5714.949, 2298.966
5716.877, 2300.023
5718.806, 2302.735
5720.734, 2300.129
5722.663, 2233.618
5724.591, 2240.002
5726.520, 2275.587
5728.448, 2285.526
5730.377, 2248.814
5732.305, 2233.903
5734.233, 2245.855
5736.162, 2268.292
5738.091, 2257.812
5740.019, 2273.238
5741.947, 2269.001
5743.876, 2241.686
5745.805, 2242.508
5747.733, 2242.748
5749.661, 2210.694
5751.590, 2184.624
5753.519, 2254.385
5755.447, 2232.161
5757.375, 2213.607
5759.304, 2210.444
5761.232, 2199.000
5763.161, 2204.441
5765.089, 2188.515
5767.018, 2187.819
5768.946, 2224.585
5770.875, 2159.213
5772.803, 2156.363
5774.731, 2168.831
5776.660, 2158.329
5778.588, 2150.038
5780.517, 2160.532
5782.445, 2144.948
5784.374, 2122.684
5786.302, 2164.851
5788.230, 2125.164
5790.159, 2129.715
5792.088, 2151.911
5794.016, 2115.699
5795.944, 2077.029
5797.873, 2101.525
5799.802, 2127.285
5801.730, 2103.798
5803.658, 2070.714
5805.587, 2082.918
5807.516, 2101.118
5809.444, 2097.398
5811.372, 2050.910
5813.301, 2044.699
5815.229, 2055.453
5817.158, 2076.848
5819.086, 2112.020
5821.015, 2069.108
5822.943, 2047.567
5824.872, 2057.101
5826.800, 2074.981
5828.729, 2042.788
5830.657, 2041.095
5832.585, 2052.260
5834.514, 2052.980
5836.442, 2027.720
5838.371, 2017.043
5840.299, 2029.096
5842.228, 2039.278
5844.156, 2024.736
5846.085, 2048.331
5848.013, 2015.762
5849.941, 1988.469
5851.870, 2002.334
5853.799, 2004.335
5855.727, 2001.963
5857.655, 2014.751
5859.584, 2030.009
5861.513, 2014.580
5863.441, 2035.959
5865.369, 1997.795
5867.298, 1954.618
5869.227, 1956.057
5871.155, 1969.138
5873.083, 1954.905
5875.012, 1966.349
5876.940, 1990.341
5878.869, 1966.062
5880.797, 1934.400
5882.726, 1919.057
5884.654, 1933.313
5886.583, 1966.214
5888.511, 1940.772
5890.439, 1909.906
5892.368, 1878.971
5894.296, 1867.852
5896.225, 1902.788
5898.153, 1910.695
5900.082, 1880.516
5902.010, 1873.477
5903.938, 1911.623
5905.867, 1905.687
5907.796, 1908.034
5909.724, 1919.932
5911.652, 1928.199
5913.581, 1920.477
5915.510, 1931.179
5917.438, 1937.459
5919.366, 1906.496
5921.295, 1850.841
5923.224, 1863.064
5925.152, 1875.664
5927.080, 1876.385
5929.009, 1863.659
5930.938, 1842.592
5932.866, 1853.652
5934.794, 1831.077
5936.723, 1828.600
5938.651, 1843.086
5940.580, 1800.498
5942.508, 1852.386
5944.437, 1841.029
5946.365, 1814.617
5948.293, 1820.707
5950.222, 1814.209
5952.150, 1806.409
5954.079, 1787.462
5956.007, 1785.973
5957.936, 1824.324
5959.864, 1772.846
5961.793, 1770.055
5963.721, 1787.670
5965.649, 1798.305
5967.578, 1793.949
5969.507, 1743.543
5971.435, 1755.193
5973.363, 1787.893
5975.292, 1796.290
5977.221, 1770.647
5979.149, 1791.316
5981.077, 1758.888
5983.006, 1721.656
5984.935, 1733.632
5986.863, 1753.839
5988.791, 1768.201
5990.720, 1775.374
5992.648, 1763.793
5994.577, 1729.044
5996.505, 1713.567
5998.434, 1713.792
6000.362, 1723.023
6002.291, 1739.236
6004.219, 1757.519
6006.147, 1712.813
6008.076, 1701.621
6010.004, 1698.220
6011.933, 1697.593
6013.861, 1720.632
6015.790, 1691.912
6017.718, 1667.850
6019.646, 1678.506
6021.575, 1699.447
6023.504, 1667.431
6025.432, 1656.343
6027.360, 1657.360
6029.289, 1648.269
6031.218, 1636.614
6033.146, 1666.697
6035.074, 1680.889
6037.003, 1649.563
6038.932, 1633.348
6040.860, 1653.133
6042.788, 1644.019
6044.717, 1663.884
6046.646, 1662.282
6048.574, 1652.369
6050.502, 1646.409
6052.431, 1622.422
6054.359, 1633.030
6056.288, 1653.278
6058.216, 1643.801
6060.145, 1608.071
6062.073, 1622.342
6064.001, 1612.427
6065.930, 1596.239
6067.858, 1589.541
6069.787, 1590.698
6071.715, 1576.717
6073.644, 1546.031
6075.572, 1564.509
6077.501, 1593.263
6079.429, 1595.948
6081.357, 1573.764
6083.286, 1565.678
6085.215, 1560.183
6087.143, 1554.664
6089.071, 1553.710
6091.000, 1565.250
6092.929, 1540.248
6094.857, 1547.085
6096.785, 1550.269
6098.714, 1537.271
6100.643, 1531.760
6102.571, 1531.925
6104.499, 1518.037
6106.428, 1474.847
6108.356, 1460.459
6110.285, 1532.157
6112.213, 1509.965
6114.142, 1505.966
6116.070, 1508.998
6117.999, 1499.128
6119.927, 1476.101
6121.855, 1481.970
6123.784, 1539.531
6125.712, 1524.439
6127.641, 1484.801
6129.569, 1482.664
6131.498, 1486.591
6133.426, 1502.862
6135.354, 1467.381
6137.283, 1448.548
6139.212, 1463.434
6141.140, 1448.240
6143.068, 1473.085
6144.997, 1460.179
6146.926, 1446.989
6148.854, 1440.713
6150.782, 1423.900
6152.711, 1431.099
6154.640, 1420.445
6156.568, 1422.948
6158.496, 1427.447
6160.425, 1418.414
6162.354, 1411.762
6164.282, 1403.769
6166.210, 1417.286
6168.139, 1411.804
6170.067, 1401.520
6171.996, 1445.022
6173.924, 1409.462
6175.853, 1384.767
6177.781, 1401.138
6179.709, 1423.111
6181.638, 1412.931
6183.566, 1396.855
6185.495, 1368.824
6187.423, 1373.709
6189.352, 1389.117
6191.280, 1389.154
6193.209, 1372.555
6195.137, 1354.423
6197.065, 1381.997
6198.994, 1389.247
6200.923, 1367.895
6202.851, 1347.899
6204.779, 1350.267
6206.708, 1344.420
6208.637, 1345.318
6210.565, 1330.918
6212.493, 1319.256
6214.422, 1364.390
6216.351, 1321.882
6218.279, 1329.606
6220.207, 1342.569
6222.136, 1345.656
6224.064, 1344.608
6225.993, 1327.439
6227.921, 1305.914
6229.850, 1329.772
6231.778, 1325.546
6233.707, 1301.050
6235.635, 1314.343
6237.563, 1298.904
6239.492, 1290.458
6241.420, 1315.588
6243.349, 1324.831
6245.277, 1304.959
6247.206, 1298.076
6249.134, 1275.997
6251.063, 1315.669
6252.991, 1281.236
6254.920, 1252.769
6256.848, 1290.025
6258.776, 1277.506
6260.705, 1253.061
6262.634, 1233.946
6264.562, 1223.747
6266.490, 1227.502
6268.419, 1242.858
6270.348, 1250.647
6272.276, 1284.048
6274.204, 1234.615
6276.133, 1215.527
6278.062, 1239.756
6279.990, 1247.320
6281.918, 1235.653
6283.847, 1239.412
6285.775, 1225.513
6287.704, 1209.003
6289.632, 1220.325
6291.561, 1259.970
6293.489, 1216.304
6295.417, 1207.433
6297.346, 1229.583
6299.274, 1213.164
6301.203, 1184.902
6303.131, 1206.711
6305.060, 1181.712
6306.988, 1179.534
6308.917, 1183.363
6310.845, 1158.960
6312.773, 1153.413
6314.702, 1215.551
6316.631, 1207.653
6318.559, 1193.113
6320.487, 1205.033
6322.416, 1208.964
6324.345, 1198.808
6326.273, 1189.646
6328.201, 1177.851
6330.130, 1172.393
6332.059, 1170.890
6333.987, 1170.844
6335.915, 1165.762
6337.844, 1154.980
6339.772, 1150.697
6341.701, 1143.558
6343.629, 1118.706
6345.558, 1120.883
6347.486, 1135.805
6349.415, 1139.885
6351.343, 1139.427
6353.271, 1116.214
6355.200, 1117.845
6357.128, 1110.314
6359.057, 1117.779
6360.985, 1133.443
6362.914, 1114.026
6364.842, 1103.509
6366.771, 1119.766
6368.699, 1110.804
6370.628, 1086.427
6372.556, 1079.004
6374.484, 1099.999
6376.413, 1118.049
6378.342, 1119.640
6380.270, 1122.231
6382.198, 1107.647
6384.127, 1096.943
6386.056, 1096.738
6387.984, 1081.368
6389.912, 1086.603
6391.841, 1077.952
6393.770, 1101.935
6395.698, 1108.535
6397.626, 1085.549
6399.555, 1061.354
6401.483, 1041.619
6403.412, 1031.137
6405.340, 1075.463
6407.269, 1071.951
6409.197, 1054.187
6411.125, 1062.031
6413.054, 1063.878
6414.982, 1056.196
6416.911, 1058.884
6418.839, 1049.375
6420.768, 1051.207
6422.696, 1063.684
6424.625, 1060.301
6426.553, 1023.471
6428.481, 1025.651
6430.410, 1017.887
6432.339, 1038.839
6434.267, 1033.439
6436.195, 1013.728
6438.124, 1023.662
6440.053, 993.8522
6441.981, 982.1884
6443.909, 1008.394
6445.838, 1007.836
6447.767, 1005.057
6449.695, 1002.608
6451.623, 970.7239
6453.552, 967.2798
6455.480, 984.9717
6457.409, 983.1329
6459.337, 987.3353
6461.266, 984.5752
6463.194, 973.2518
6465.123, 970.4598
6467.051, 950.4739
6468.979, 959.4719
6470.908, 975.2400
6472.836, 968.0365
6474.765, 953.3599
6476.693, 972.8320
6478.622, 1034.187
6480.550, 974.7955
6482.479, 958.5646
6484.407, 976.9373
6486.336, 971.5583
6488.264, 952.1448
6490.192, 951.2111
6492.121, 971.7909
6494.050, 973.2369
6495.978, 944.1860
6497.906, 947.1600
6499.835, 969.9702
6501.764, 933.9977
6503.692, 899.4250
6505.620, 942.6737
6507.549, 948.9786
6509.478, 918.0980
6511.406, 956.6967
6513.334, 950.7578
6515.263, 926.4774
6517.191, 930.8015
6519.120, 942.7069
6521.048, 903.9547
6522.977, 904.3574
6524.905, 917.7114
6526.833, 920.4928
6528.762, 919.4386
6530.690, 913.1663
6532.619, 901.9048
6534.547, 890.9769
6536.476, 880.2902
6538.404, 894.5039
6540.333, 918.3155
6542.261, 905.1600
6544.189, 917.8693
6546.118, 924.0690
6548.047, 891.8803
6549.975, 879.0178
6551.903, 885.9501
6553.832, 904.3113
6555.761, 869.9985
6557.689, 868.8951
6559.617, 881.9137
6561.546, 875.9172
##END=



