##NAMES=Pararealgar
##RRUFFID=R150123
##IDEAL CHEMISTRY=As_4_S_4_
##LOCALITY=U.S. Borax mine, Kramer Borate deposit, Boron, California, USA
##OWNER=RRUFF
##SOURCE=Michael Scott S106210
##DESCRIPTION=Yellowish-orange granular, within a rind of realgar
##STATUS=The identification of this mineral has been confirmed by single-crystal X-ray diffraction
##URL=https://www.rruff.net/odr/rruff_sample/R150123
##DIFFRACTION SAMPLE DESCRIPTION=Single crystal, powder profile is calculated
##CELL PARAMETERS=a: 9.937 b: 9.687 c: 8.532 alpha: 90 beta: 97.16 gamma: 90 volume: 815 crystal system: monoclinic
##FILETYPE=Raman RAW
##RAMAN WAVELENGTH=532

106.1135, 403.6570
108.0420, 437.0380
109.9705, 469.5704
111.8989, 501.1984
113.8274, 532.5096
115.7559, 561.2932
117.6843, 592.5683
119.6128, 620.8500
121.5413, 642.2618
123.4697, 656.3914
125.3982, 670.4242
127.3267, 685.5487
129.2551, 701.5140
131.1836, 717.4159
133.1121, 730.7377
135.0405, 744.5185
136.9690, 760.3973
138.8975, 779.9570
140.8259, 798.8940
142.7544, 816.2440
144.6829, 831.8745
146.6113, 846.7864
148.5398, 861.1823
150.4683, 874.7333
152.3967, 886.9991
154.3252, 896.3655
156.2537, 906.1465
158.1821, 917.3743
160.1106, 930.0122
162.0391, 942.7504
163.9675, 952.9408
165.8960, 963.3762
167.8245, 979.1615
169.7529, 1003.058
171.6814, 1027.635
173.6099, 1049.008
175.5383, 1064.456
177.4668, 1082.870
179.3953, 1107.035
181.3237, 1134.281
183.2522, 1159.311
185.1807, 1184.089
187.1091, 1204.677
189.0376, 1219.627
190.9661, 1227.007
192.8945, 1231.936
194.8230, 1233.124
196.7515, 1231.977
198.6799, 1231.413
200.6084, 1231.490
202.5369, 1232.137
204.4653, 1232.733
206.3938, 1231.850
208.3223, 1234.390
210.2507, 1241.091
212.1792, 1251.550
214.1077, 1267.828
216.0361, 1291.280
217.9646, 1319.040
219.8931, 1350.613
221.8215, 1387.498
223.7500, 1422.606
225.6785, 1454.885
227.6069, 1484.188
229.5354, 1509.831
231.4639, 1538.019
233.3923, 1558.204
235.3208, 1565.383
237.2493, 1557.346
239.1777, 1539.479
241.1062, 1512.397
243.0347, 1475.549
244.9631, 1434.714
246.8916, 1386.249
248.8201, 1336.258
250.7485, 1288.819
252.6770, 1241.518
254.6055, 1200.354
256.5339, 1166.433
258.4624, 1139.797
260.3909, 1118.891
262.3193, 1103.825
264.2478, 1094.909
266.1763, 1093.054
268.1047, 1101.519
270.0332, 1113.015
271.9617, 1132.390
273.8901, 1155.968
275.8186, 1169.524
277.7471, 1165.432
279.6755, 1154.674
281.6040, 1141.810
283.5325, 1123.648
285.4609, 1111.406
287.3894, 1109.403
289.3179, 1115.879
291.2463, 1125.814
293.1748, 1138.547
295.1033, 1154.657
297.0317, 1175.752
298.9602, 1202.089
300.8887, 1229.341
302.8171, 1256.320
304.7456, 1283.138
306.6741, 1310.967
308.6025, 1338.551
310.5310, 1367.983
312.4595, 1401.671
314.3879, 1440.578
316.3164, 1476.784
318.2449, 1508.826
320.1733, 1537.247
322.1018, 1563.124
324.0303, 1583.598
325.9587, 1604.963
327.8872, 1631.029
329.8157, 1663.382
331.7441, 1691.758
333.6726, 1714.338
335.6011, 1733.145
337.5295, 1751.685
339.4580, 1771.638
341.3865, 1788.166
343.3149, 1799.540
345.2434, 1804.784
347.1719, 1808.171
349.1003, 1811.783
351.0288, 1812.335
352.9573, 1807.163
354.8857, 1796.262
356.8142, 1780.639
358.7427, 1760.336
360.6711, 1735.643
362.5996, 1710.506
364.5281, 1686.615
366.4565, 1661.244
368.3850, 1632.153
370.3135, 1597.987
372.2419, 1565.045
374.1704, 1534.408
376.0989, 1505.714
378.0273, 1477.733
379.9558, 1451.436
381.8843, 1424.698
383.8127, 1396.477
385.7412, 1366.305
387.6697, 1336.930
389.5981, 1308.602
391.5266, 1280.975
393.4551, 1253.672
395.3835, 1226.279
397.3120, 1199.636
399.2405, 1173.052
401.1689, 1146.177
403.0974, 1123.972
405.0259, 1107.500
406.9543, 1094.264
408.8828, 1083.244
410.8113, 1074.882
412.7397, 1066.625
414.6682, 1056.981
416.5967, 1046.979
418.5251, 1039.854
420.4536, 1036.796
422.3821, 1035.000
424.3105, 1033.933
426.2390, 1033.542
428.1675, 1032.766
430.0959, 1030.581
432.0244, 1028.236
433.9529, 1027.219
435.8813, 1028.362
437.8098, 1029.028
439.7383, 1027.409
441.6667, 1024.492
443.5952, 1023.942
445.5237, 1028.765
447.4521, 1033.702
449.3806, 1036.057
451.3091, 1035.383
453.2375, 1035.462
455.1660, 1037.330
457.0945, 1040.125
459.0229, 1042.872
460.9514, 1046.072
462.8799, 1048.675
464.8083, 1050.443
466.7368, 1051.400
468.6653, 1051.763
470.5938, 1049.948
472.5222, 1049.177
474.4507, 1051.476
476.3792, 1060.555
478.3076, 1066.174
480.2361, 1065.821
482.1646, 1062.935
484.0930, 1062.131
486.0215, 1064.312
487.9500, 1066.912
489.8784, 1069.249
491.8069, 1071.243
493.7354, 1072.771
495.6638, 1073.239
497.5923, 1073.644
499.5208, 1074.522
501.4492, 1075.913
503.3777, 1077.475
505.3062, 1079.513
507.2346, 1081.666
509.1631, 1083.400
511.0916, 1084.695
513.0200, 1085.877
514.9485, 1086.820
516.8770, 1087.686
518.8054, 1089.077
520.7339, 1091.724
522.6624, 1094.273
524.5908, 1095.741
526.5193, 1095.749
528.4478, 1097.019
530.3762, 1101.017
532.3047, 1105.508
534.2332, 1108.515
536.1616, 1109.157
538.0901, 1109.486
540.0186, 1109.730
541.9470, 1109.978
543.8755, 1110.304
545.8040, 1110.417
547.7324, 1111.586
549.6609, 1114.826
551.5894, 1120.676
553.5178, 1125.170
555.4463, 1127.213
557.3748, 1128.821
559.3032, 1131.340
561.2317, 1134.687
563.1602, 1137.799
565.0886, 1139.536
567.0171, 1141.008
568.9456, 1143.645
570.8740, 1150.895
572.8025, 1155.387
574.7310, 1153.654
576.6594, 1148.399
578.5879, 1147.006
580.5164, 1152.850
582.4448, 1159.010
584.3733, 1162.622
586.3018, 1163.110
588.2302, 1164.057
590.1587, 1164.961
592.0872, 1166.623
594.0156, 1169.855
595.9441, 1174.851
597.8726, 1179.584
599.8010, 1183.541
601.7295, 1187.025
603.6580, 1190.360
605.5864, 1193.126
607.5149, 1196.311
609.4434, 1200.000
611.3718, 1204.252
613.3003, 1209.334
615.2288, 1217.066
617.1572, 1223.242
619.0857, 1225.776
621.0142, 1224.481
622.9426, 1224.765
624.8711, 1228.063
626.7996, 1231.671
628.7280, 1233.696
630.6565, 1233.875
632.5850, 1235.897
634.5134, 1242.422
636.4419, 1249.686
638.3704, 1254.076
640.2988, 1253.767
642.2273, 1255.010
644.1558, 1259.869
646.0842, 1266.297
648.0127, 1271.749
649.9412, 1276.124
651.8696, 1279.434
653.7981, 1281.412
655.7266, 1282.376
657.6550, 1283.433
659.5835, 1284.026
661.5120, 1285.778
663.4404, 1290.423
665.3689, 1297.378
667.2974, 1302.833
669.2258, 1304.560
671.1543, 1306.316
673.0828, 1309.644
675.0112, 1314.698
676.9397, 1319.102
678.8682, 1321.804
680.7966, 1324.133
682.7251, 1327.254
684.6536, 1331.739
686.5820, 1334.202
688.5105, 1332.527
690.4390, 1329.981
692.3674, 1330.659
694.2959, 1336.392
696.2244, 1340.101
698.1528, 1337.988
700.0813, 1334.137
702.0098, 1333.958
703.9382, 1340.474
705.8667, 1345.722
707.7952, 1347.121
709.7236, 1346.233
711.6521, 1347.545
713.5806, 1352.785
715.5090, 1356.980
717.4375, 1356.360
719.3660, 1352.926
721.2944, 1353.344
723.2229, 1363.462
725.1514, 1371.719
727.0798, 1373.778
729.0083, 1369.928
730.9368, 1368.283
732.8652, 1370.620
734.7937, 1373.083
736.7222, 1373.618
738.6506, 1372.346
740.5791, 1371.883
742.5076, 1373.911
744.4360, 1375.590
746.3645, 1375.046
748.2930, 1371.761
750.2214, 1370.108
752.1499, 1371.066
754.0784, 1373.189
756.0068, 1375.818
757.9353, 1379.157
759.8638, 1382.061
761.7922, 1384.396
763.7207, 1386.366
765.6492, 1388.014
767.5776, 1389.155
769.5061, 1390.264
771.4346, 1391.008
773.3630, 1391.665
775.2915, 1392.250
777.2200, 1392.396
779.1484, 1393.560
781.0769, 1397.314
783.0054, 1401.494
784.9338, 1403.572
786.8623, 1402.641
788.7908, 1402.441
790.7192, 1404.510
792.6477, 1407.135
794.5762, 1408.147
796.5046, 1406.354
798.4331, 1406.547
800.3616, 1410.383
802.2900, 1416.234
804.2185, 1422.210
806.1470, 1429.651
808.0754, 1434.761
810.0039, 1435.339
811.9324, 1433.855
813.8608, 1433.071
815.7893, 1432.504
817.7178, 1433.826
819.6462, 1437.890
821.5747, 1443.607
823.5032, 1449.555
825.4316, 1457.680
827.3601, 1463.132
829.2886, 1463.495
831.2170, 1461.683
833.1455, 1461.684
835.0740, 1463.982
837.0024, 1466.938
838.9309, 1470.761
840.8594, 1474.723
842.7878, 1477.758
844.7163, 1478.330
846.6448, 1479.845
848.5732, 1483.302
850.5017, 1487.458
852.4302, 1490.387
854.3586, 1491.567
856.2871, 1493.654
858.2156, 1497.682
860.1440, 1502.972
862.0725, 1508.849
864.0010, 1517.027
865.9294, 1523.066
867.8579, 1525.035
869.7864, 1525.371
871.7148, 1527.063
873.6433, 1530.067
875.5718, 1533.587
877.5002, 1538.345
879.4287, 1542.916
881.3572, 1546.015
883.2856, 1547.583
885.2141, 1547.982
887.1426, 1545.487
889.0710, 1543.231
890.9995, 1545.186
892.9280, 1552.353
894.8564, 1557.913
896.7849, 1559.750
898.7134, 1560.484
900.6418, 1561.893
902.5703, 1563.957
904.4988, 1566.466
906.4272, 1568.778
908.3557, 1571.681
910.2842, 1575.901
912.2126, 1581.712
914.1411, 1586.470
916.0696, 1589.470
917.9980, 1591.809
919.9265, 1594.143
921.8550, 1596.545
923.7834, 1598.766
925.7119, 1600.515
927.6404, 1602.865
929.5688, 1606.527
931.4973, 1611.640
933.4258, 1616.923
935.3542, 1622.648
937.2827, 1628.245
939.2112, 1633.085
941.1396, 1637.420
943.0681, 1642.313
944.9966, 1648.357
946.9250, 1653.453
948.8535, 1655.515
950.7820, 1655.921
952.7104, 1658.921
954.6389, 1668.540
956.5674, 1675.743
958.4958, 1678.232
960.4243, 1678.138
962.3528, 1679.121
964.2813, 1681.572
966.2097, 1684.196
968.1382, 1686.232
970.0667, 1688.787
971.9951, 1692.926
973.9236, 1698.873
975.8521, 1705.599
977.7805, 1714.459
979.7090, 1722.529
981.6375, 1727.252
983.5659, 1727.835
985.4944, 1728.017
987.4229, 1726.072
989.3513, 1725.499
991.2798, 1729.464
993.2083, 1737.250
995.1367, 1743.469
997.0652, 1746.784
998.9937, 1749.974
1000.922, 1754.567
1002.851, 1760.160
1004.779, 1764.034
1006.708, 1762.262
1008.636, 1763.339
1010.564, 1771.289
1012.493, 1782.134
1014.421, 1788.846
1016.350, 1790.145
1018.278, 1791.602
1020.207, 1795.371
1022.135, 1799.906
1024.064, 1803.845
1025.992, 1807.036
1027.921, 1810.687
1029.849, 1815.427
1031.778, 1820.294
1033.706, 1824.245
1035.635, 1827.162
1037.563, 1831.475
1039.491, 1838.009
1041.420, 1844.623
1043.348, 1850.388
1045.277, 1855.258
1047.205, 1859.202
1049.134, 1862.768
1051.062, 1864.531
1052.991, 1862.633
1054.919, 1859.548
1056.848, 1859.785
1058.776, 1865.226
1060.705, 1871.529
1062.633, 1878.959
1064.562, 1886.866
1066.490, 1894.814
1068.418, 1902.658
1070.347, 1909.198
1072.275, 1912.329
1074.204, 1915.869
1076.132, 1922.409
1078.061, 1931.823
1079.989, 1939.065
1081.918, 1943.897
1083.846, 1946.792
1085.775, 1946.225
1087.703, 1943.973
1089.632, 1944.458
1091.560, 1948.477
1093.489, 1952.754
1095.417, 1957.107
1097.345, 1961.429
1099.274, 1966.140
1101.202, 1971.511
1103.131, 1975.193
1105.059, 1974.122
1106.988, 1974.147
1108.916, 1978.763
1110.845, 1987.486
1112.773, 1993.861
1114.702, 1993.510
1116.630, 1995.739
1118.559, 2005.104
1120.487, 2017.318
1122.416, 2024.800
1124.344, 2026.950
1126.272, 2028.140
1128.201, 2028.554
1130.129, 2029.260
1132.058, 2030.692
1133.986, 2032.887
1135.915, 2037.031
1137.843, 2045.224
1139.772, 2053.230
1141.700, 2059.308
1143.629, 2064.042
1145.557, 2069.656
1147.486, 2077.417
1149.414, 2083.980
1151.343, 2088.116
1153.271, 2091.298
1155.199, 2095.166
1157.128, 2099.721
1159.056, 2103.699
1160.985, 2106.130
1162.913, 2108.979
1164.842, 2112.748
1166.770, 2117.676
1168.699, 2125.149
1170.627, 2138.562
1172.556, 2149.459
1174.484, 2154.668
1176.413, 2157.453
1178.341, 2161.714
1180.270, 2167.570
1182.198, 2173.956
1184.126, 2181.353
1186.055, 2188.341
1187.983, 2193.762
1189.912, 2198.058
1191.840, 2202.915
1193.769, 2208.845
1195.697, 2214.913
1197.626, 2222.667
1199.554, 2229.888
1201.483, 2233.185
1203.411, 2230.635
1205.340, 2232.277
1207.268, 2240.806
1209.197, 2251.173
1211.125, 2261.778
1213.053, 2272.086
1214.982, 2279.755
1216.910, 2282.490
1218.839, 2285.922
1220.767, 2291.907
1222.696, 2298.637
1224.624, 2305.038
1226.553, 2311.427
1228.481, 2315.157
1230.410, 2312.788
1232.338, 2312.831
1234.267, 2321.259
1236.195, 2335.048
1238.124, 2343.846
1240.052, 2343.848
1241.980, 2345.944
1243.909, 2352.560
1245.837, 2360.675
1247.766, 2368.105
1249.694, 2374.830
1251.623, 2381.102
1253.551, 2385.896
1255.480, 2391.726
1257.408, 2400.499
1259.337, 2410.298
1261.265, 2417.486
1263.194, 2421.409
1265.122, 2426.996
1267.051, 2436.342
1268.979, 2446.365
1270.907, 2456.013
1272.836, 2465.111
1274.764, 2472.319
1276.693, 2476.815
1278.621, 2481.140
1280.550, 2485.606
1282.478, 2490.283
1284.407, 2494.968
1286.335, 2499.333
1288.264, 2505.209
1290.192, 2511.938
1292.121, 2520.699
1294.049, 2533.343
1295.978, 2547.780
1297.906, 2560.593
1299.834, 2572.053
1301.763, 2580.415
1303.691, 2582.469
1305.620, 2584.588
1307.548, 2592.082
1309.477, 2602.523
1311.405, 2608.229
1313.334, 2606.293
1315.262, 2607.515
1317.191, 2617.627
1319.119, 2629.681
1321.048, 2638.877
1322.976, 2645.044
1324.905, 2651.150
1326.833, 2656.191
1328.761, 2662.184
1330.690, 2669.654
1332.618, 2678.091
1334.547, 2687.511
1336.475, 2698.685
1338.404, 2707.025
1340.332, 2708.940
1342.261, 2712.381
1344.189, 2721.747
1346.118, 2733.861
1348.046, 2742.784
1349.975, 2747.925
1351.903, 2754.867
1353.832, 2766.390
1355.760, 2777.569
1357.688, 2785.898
1359.617, 2792.045
1361.545, 2796.959
1363.474, 2799.560
1365.402, 2804.778
1367.331, 2815.071
1369.259, 2826.732
1371.188, 2839.368
1373.116, 2852.182
1375.045, 2860.079
1376.973, 2858.267
1378.902, 2858.618
1380.830, 2863.174
1382.759, 2869.314
1384.687, 2875.624
1386.615, 2882.074
1388.544, 2887.792
1390.472, 2893.069
1392.401, 2897.229
1394.329, 2896.997
1396.258, 2897.861
1398.186, 2907.148
1400.115, 2922.786
1402.043, 2931.889
1403.972, 2930.314
1405.900, 2929.959
1407.829, 2935.477
1409.757, 2943.717
1411.686, 2952.532
1413.614, 2961.954
1415.542, 2970.744
1417.471, 2979.340
1419.399, 2986.438
1421.328, 2989.434
1423.256, 2992.068
1425.185, 2998.157
1427.113, 3007.938
1429.042, 3016.589
1430.970, 3023.830
1432.899, 3030.059
1434.827, 3035.040
1436.756, 3039.781
1438.684, 3045.716
1440.613, 3053.383
1442.541, 3060.335
1444.469, 3066.478
1446.398, 3072.441
1448.326, 3077.439
1450.255, 3082.489
1452.183, 3088.088
1454.112, 3093.974
1456.040, 3101.696
1457.969, 3112.440
1459.897, 3122.078
1461.826, 3129.468
1463.754, 3135.325
1465.683, 3139.495
1467.611, 3142.718
1469.540, 3148.394
1471.468, 3157.091
1473.396, 3167.900
1475.325, 3183.455
1477.253, 3198.132
1479.182, 3206.413
1481.110, 3209.545
1483.039, 3215.667
1484.967, 3227.238
1486.896, 3236.067
1488.824, 3236.108
1490.753, 3236.784
1492.681, 3244.478
1494.610, 3258.009
1496.538, 3270.764
1498.467, 3282.882
1500.395, 3293.699
1502.323, 3303.090
1504.252, 3311.135
1506.180, 3317.133
1508.109, 3321.977
1510.037, 3328.040
1511.966, 3335.157
1513.894, 3344.348
1515.823, 3358.692
1517.751, 3371.802
1519.680, 3380.199
1521.608, 3386.057
1523.537, 3392.440
1525.465, 3398.671
1527.394, 3408.601
1529.322, 3429.084
1531.250, 3444.195
1533.179, 3443.739
1535.107, 3439.134
1537.036, 3444.539
1538.964, 3459.151
1540.893, 3471.309
1542.821, 3480.516
1544.750, 3487.641
1546.678, 3490.139
1548.607, 3493.002
1550.535, 3501.419
1552.464, 3513.196
1554.392, 3521.710
1556.321, 3526.257
1558.249, 3529.563
1560.177, 3532.013
1562.106, 3534.107
1564.034, 3535.772
1565.963, 3537.849
1567.891, 3541.744
1569.820, 3547.624
1571.748, 3553.758
1573.677, 3559.293
1575.605, 3565.468
1577.534, 3573.619
1579.462, 3581.349
1581.391, 3585.732
1583.319, 3587.014
1585.248, 3589.546
1587.176, 3594.637
1589.104, 3598.686
1591.033, 3600.064
1592.961, 3601.210
1594.890, 3604.546
1596.818, 3608.635
1598.747, 3608.228
1600.675, 3601.393
1602.604, 3597.812
1604.532, 3602.351
1606.461, 3606.098
1608.389, 3604.935
1610.318, 3602.948
1612.246, 3605.173
1614.175, 3611.894
1616.103, 3618.983
1618.031, 3626.808
1619.960, 3632.732
1621.888, 3634.031
1623.817, 3634.229
1625.745, 3633.892
1627.674, 3634.077
1629.602, 3639.114
1631.531, 3654.018
1633.459, 3662.159
1635.388, 3660.134
1637.316, 3657.448
1639.245, 3656.456
1641.173, 3656.853
1643.102, 3658.187
1645.030, 3660.495
1646.958, 3664.270
1648.887, 3669.782
1650.815, 3676.225
1652.744, 3684.130
1654.672, 3692.063
1656.601, 3699.643
1658.529, 3706.574
1660.458, 3712.180
1662.386, 3716.083
1664.315, 3720.346
1666.243, 3723.896
1668.172, 3729.446
1670.100, 3738.788
1672.029, 3749.280
1673.957, 3759.069
1675.885, 3768.419
1677.814, 3778.476
1679.742, 3790.770
1681.671, 3799.078
1683.599, 3796.173
1685.528, 3798.350
1687.456, 3816.963
1689.385, 3837.102
1691.313, 3841.132
1693.242, 3832.182
1695.170, 3832.982
1697.099, 3849.731
1699.027, 3862.641
1700.956, 3869.811
1702.884, 3875.051
1704.813, 3879.337
1706.741, 3883.212
1708.669, 3886.989
1710.598, 3890.825
1712.526, 3895.969
1714.455, 3902.936
1716.383, 3910.226
1718.312, 3917.009
1720.240, 3924.584
1722.169, 3934.778
1724.097, 3944.895
1726.026, 3949.606
1727.954, 3948.564
1729.883, 3953.574
1731.811, 3973.745
1733.740, 3984.550
1735.668, 3976.146
1737.596, 3968.866
1739.525, 3975.340
1741.453, 3987.970
1743.382, 3994.948
1745.310, 3996.361
1747.239, 4002.496
1749.167, 4016.064
1751.096, 4029.320
1753.024, 4039.991
1754.953, 4050.939
1756.881, 4066.057
1758.810, 4079.878
1760.738, 4083.080
1762.667, 4075.774
1764.595, 4074.574
1766.523, 4083.506
1768.452, 4093.117
1770.380, 4105.616
1772.309, 4116.390
1774.237, 4121.925
1776.166, 4125.800
1778.094, 4131.922
1780.023, 4140.077
1781.951, 4149.237
1783.880, 4159.769
1785.808, 4170.102
1787.737, 4180.852
1789.665, 4190.214
1791.594, 4197.716
1793.522, 4203.401
1795.450, 4205.988
1797.379, 4206.486
1799.307, 4210.833
1801.236, 4221.035
1803.164, 4226.900
1805.093, 4222.871
1807.021, 4223.383
1808.950, 4234.919
1810.878, 4249.986
1812.807, 4265.617
1814.735, 4280.527
1816.664, 4289.966
1818.592, 4293.221
1820.521, 4301.516
1822.449, 4317.688
1824.377, 4331.483
1826.306, 4336.762
1828.234, 4342.821
1830.163, 4357.703
1832.091, 4374.048
1834.020, 4381.769
1835.948, 4382.319
1837.877, 4382.816
1839.805, 4383.718
1841.734, 4385.847
1843.662, 4389.872
1845.591, 4394.236
1847.519, 4395.573
1849.448, 4399.151
1851.376, 4412.450
1853.304, 4430.407
1855.233, 4441.134
1857.161, 4444.623
1859.090, 4450.644
1861.018, 4462.758
1862.947, 4471.876
1864.875, 4468.511
1866.804, 4470.226
1868.732, 4490.119
1870.661, 4517.155
1872.589, 4538.563
1874.518, 4553.850
1876.446, 4562.791
1878.375, 4562.177
1880.303, 4563.703
1882.231, 4568.031
1884.160, 4574.754
1886.088, 4587.979
1888.017, 4600.694
1889.945, 4608.429
1891.874, 4613.355
1893.802, 4618.723
1895.731, 4624.870
1897.659, 4630.186
1899.588, 4631.666
1901.516, 4636.911
1903.445, 4647.510
1905.373, 4658.340
1907.302, 4669.052
1909.230, 4677.761
1911.158, 4681.327
1913.087, 4682.778
1915.015, 4690.918
1916.944, 4706.305
1918.872, 4712.426
1920.801, 4703.559
1922.729, 4703.761
1924.658, 4724.037
1926.586, 4742.167
1928.515, 4743.937
1930.443, 4743.916
1932.372, 4756.819
1934.300, 4775.365
1936.229, 4785.397
1938.157, 4787.252
1940.085, 4783.921
1942.014, 4772.075
1943.942, 4770.030
1945.871, 4787.008
1947.799, 4805.543
1949.728, 4822.104
1951.656, 4834.193
1953.585, 4836.061
1955.513, 4833.545
1957.442, 4839.981
1959.370, 4855.788
1961.299, 4866.160
1963.227, 4865.791
1965.156, 4870.268
1967.084, 4881.947
1969.012, 4894.751
1970.941, 4906.864
1972.869, 4918.900
1974.798, 4932.858
1976.726, 4945.658
1978.655, 4951.608
1980.583, 4951.557
1982.512, 4955.309
1984.440, 4964.435
1986.369, 4971.031
1988.297, 4973.592
1990.226, 4976.879
1992.154, 4979.815
1994.083, 4987.030
1996.011, 5003.564
1997.939, 5022.646
1999.868, 5038.647
2001.796, 5051.380
2003.725, 5059.614
2005.653, 5063.592
2007.582, 5071.500
2009.510, 5086.622
2011.439, 5098.353
2013.367, 5099.134
2015.296, 5104.260
2017.224, 5122.247
2019.153, 5140.985
2021.081, 5151.292
2023.010, 5156.807
2024.938, 5163.125
2026.866, 5170.411
2028.795, 5178.578
2030.723, 5189.205
2032.652, 5197.004
2034.580, 5200.144
2036.509, 5206.071
2038.437, 5217.306
2040.366, 5229.087
2042.294, 5237.557
2044.223, 5246.155
2046.151, 5258.150
2048.080, 5271.218
2050.008, 5281.954
2051.937, 5290.954
2053.865, 5301.443
2055.793, 5314.803
2057.722, 5321.902
2059.650, 5315.543
2061.579, 5316.792
2063.507, 5337.475
2065.436, 5355.208
2067.364, 5357.537
2069.293, 5355.836
2071.221, 5359.704
2073.150, 5365.853
2075.078, 5368.474
2077.007, 5368.101
2078.935, 5368.303
2080.864, 5369.167
2082.792, 5373.391
2084.720, 5382.686
2086.649, 5391.794
2088.577, 5398.471
2090.506, 5407.919
2092.434, 5426.714
2094.363, 5444.126
2096.291, 5450.163
2098.220, 5451.299
2100.148, 5454.169
2102.077, 5458.628
2104.005, 5466.722
2105.934, 5478.585
2107.862, 5486.593
2109.791, 5490.959
2111.719, 5491.750
2113.647, 5486.954
2115.576, 5484.286
2117.504, 5487.516
2119.433, 5492.438
2121.361, 5497.503
2123.290, 5503.713
2125.218, 5512.597
2127.147, 5522.362
2129.075, 5528.285
2131.004, 5531.500
2132.932, 5539.659
2134.861, 5552.819
2136.789, 5562.494
2138.718, 5566.339
2140.646, 5570.899
2142.574, 5577.431
2144.503, 5585.050
2146.431, 5595.197
2148.360, 5604.944
2150.288, 5609.768
2152.217, 5616.391
2154.145, 5637.358
2156.074, 5662.227
2158.002, 5666.416
2159.931, 5653.252
2161.859, 5649.057
2163.788, 5654.165
2165.716, 5660.291
2167.645, 5667.200
2169.573, 5673.209
2171.501, 5677.243
2173.430, 5682.974
2175.358, 5692.891
2177.287, 5703.950
2179.215, 5716.943
2181.144, 5728.069
2183.072, 5729.999
2185.001, 5729.852
2186.929, 5739.930
2188.858, 5757.578
2190.786, 5773.752
2192.715, 5788.401
2194.643, 5797.698
2196.572, 5801.283
2198.500, 5804.116
2200.428, 5806.420
2202.357, 5810.807
2204.285, 5819.412
2206.214, 5827.499
2208.142, 5830.269
2210.071, 5835.049
2211.999, 5850.727
2213.928, 5866.044
2215.856, 5866.270
2217.785, 5860.607
2219.713, 5866.440
2221.642, 5882.100
2223.570, 5898.902
2225.499, 5916.824
2227.427, 5924.505
2229.355, 5918.576
2231.284, 5923.192
2233.212, 5944.572
2235.141, 5963.304
2237.069, 5974.348
2238.998, 5981.805
2240.926, 5986.321
2242.855, 5989.701
2244.783, 5995.351
2246.712, 5999.132
2248.640, 5992.255
2250.569, 5985.372
2252.497, 5998.152
2254.426, 6023.111
2256.354, 6035.435
2258.282, 6036.645
2260.211, 6037.918
2262.139, 6039.321
2264.068, 6045.353
2265.996, 6056.849
2267.925, 6069.660
2269.853, 6086.435
2271.782, 6098.256
2273.710, 6097.442
2275.639, 6100.522
2277.567, 6118.582
2279.496, 6135.655
2281.424, 6141.161
2283.353, 6143.258
2285.281, 6150.155
2287.209, 6157.065
2289.138, 6154.585
2291.066, 6148.055
2292.995, 6150.257
2294.923, 6160.761
2296.852, 6174.662
2298.780, 6193.275
2300.709, 6206.142
2302.637, 6207.582
2304.566, 6216.120
2306.494, 6236.435
2308.423, 6251.222
2310.351, 6253.879
2312.280, 6259.077
2314.208, 6276.077
2316.136, 6288.164
2318.065, 6279.131
2319.993, 6272.680
2321.922, 6289.397
2323.850, 6311.897
2325.779, 6324.663
2327.707, 6330.610
2329.636, 6330.300
2331.564, 6327.702
2333.493, 6336.419
2335.421, 6354.171
2337.350, 6366.581
2339.278, 6373.435
2341.207, 6375.360
2343.135, 6372.399
2345.063, 6368.720
2346.992, 6362.760
2348.920, 6365.246
2350.849, 6384.414
2352.777, 6401.938
2354.706, 6416.183
2356.634, 6425.433
2358.563, 6422.564
2360.491, 6421.569
2362.420, 6430.392
2364.348, 6439.962
2366.277, 6442.018
2368.205, 6444.565
2370.134, 6458.700
2372.062, 6476.326
2373.990, 6484.897
2375.919, 6488.159
2377.847, 6495.934
2379.776, 6506.470
2381.704, 6505.748
2383.633, 6495.422
2385.561, 6507.874
2387.490, 6543.801
2389.418, 6565.485
2391.347, 6567.483
2393.275, 6570.807
2395.204, 6575.769
2397.132, 6586.543
2399.061, 6611.721
2400.989, 6628.510
2402.917, 6625.843
2404.846, 6626.084
2406.774, 6636.688
2408.703, 6649.104
2410.631, 6661.850
2412.560, 6673.325
2414.488, 6682.614
2416.417, 6690.514
2418.345, 6696.639
2420.274, 6702.422
2422.202, 6707.705
2424.131, 6714.491
2426.059, 6728.188
2427.988, 6744.961
2429.916, 6754.223
2431.844, 6759.200
2433.773, 6773.131
2435.701, 6793.681
2437.630, 6803.745
2439.558, 6802.693
2441.487, 6800.252
2443.415, 6794.274
2445.344, 6797.141
2447.272, 6810.780
2449.201, 6826.124
2451.129, 6843.845
2453.058, 6856.996
2454.986, 6863.989
2456.915, 6867.161
2458.843, 6860.104
2460.771, 6862.506
2462.700, 6890.590
2464.628, 6912.456
2466.557, 6913.120
2468.485, 6911.620
2470.414, 6911.483
2472.342, 6917.676
2474.271, 6941.461
2476.199, 6962.091
2478.128, 6959.646
2480.056, 6951.769
2481.985, 6953.609
2483.913, 6960.997
2485.842, 6969.399
2487.770, 6979.354
2489.698, 6993.769
2491.627, 7009.557
2493.555, 7020.254
2495.484, 7026.888
2497.412, 7030.159
2499.341, 7031.800
2501.269, 7038.044
2503.198, 7048.698
2505.126, 7063.337
2507.055, 7082.181
2508.983, 7092.046
2510.912, 7092.167
2512.840, 7100.430
2514.769, 7118.617
2516.697, 7128.801
2518.625, 7127.527
2520.554, 7127.786
2522.482, 7130.802
2524.411, 7136.743
2526.339, 7146.946
2528.268, 7157.998
2530.196, 7171.745
2532.125, 7178.917
2534.053, 7172.548
2535.982, 7171.349
2537.910, 7186.594
2539.839, 7198.569
2541.767, 7195.727
2543.696, 7196.919
2545.624, 7214.278
2547.552, 7228.643
2549.481, 7228.959
2551.409, 7231.371
2553.338, 7249.651
2555.266, 7266.902
2557.195, 7270.814
2559.123, 7272.759
2561.052, 7276.999
2562.980, 7287.188
2564.909, 7315.198
2566.837, 7340.412
2568.766, 7335.619
2570.694, 7324.923
2572.623, 7333.386
2574.551, 7350.471
2576.479, 7366.226
2578.408, 7379.667
2580.336, 7389.621
2582.265, 7396.445
2584.193, 7395.237
2586.122, 7393.824
2588.050, 7412.444
2589.979, 7440.384
2591.907, 7452.319
2593.836, 7453.302
2595.764, 7460.832
2597.693, 7472.401
2599.621, 7478.111
2601.550, 7479.037
2603.478, 7477.681
2605.406, 7475.784
2607.335, 7481.591
2609.263, 7494.341
2611.192, 7500.396
2613.120, 7500.076
2615.049, 7510.435
2616.977, 7531.199
2618.906, 7544.504
2620.834, 7550.422
2622.763, 7562.935
2624.691, 7582.799
2626.620, 7592.439
2628.548, 7588.823
2630.477, 7593.788
2632.405, 7609.751
2634.333, 7621.761
2636.262, 7629.657
2638.190, 7630.022
2640.119, 7620.931
2642.047, 7621.315
2643.976, 7635.995
2645.904, 7648.565
2647.833, 7659.131
2649.761, 7666.655
2651.690, 7671.093
2653.618, 7676.708
2655.547, 7684.065
2657.475, 7694.266
2659.404, 7708.828
2661.332, 7720.139
2663.260, 7725.672
2665.189, 7729.249
2667.117, 7728.783
2669.046, 7734.115
2670.974, 7748.858
2672.903, 7758.241
2674.831, 7758.249
2676.760, 7758.993
2678.688, 7763.626
2680.617, 7765.979
2682.545, 7764.874
2684.474, 7766.406
2686.402, 7772.253
2688.331, 7778.020
2690.259, 7780.799
2692.188, 7789.680
2694.116, 7813.554
2696.044, 7827.439
2697.973, 7823.696
2699.901, 7830.188
2701.830, 7854.438
2703.758, 7872.448
2705.687, 7876.432
2707.615, 7879.860
2709.544, 7882.123
2711.472, 7888.400
2713.401, 7900.523
2715.329, 7910.919
2717.258, 7917.909
2719.186, 7927.386
2721.115, 7946.571
2723.043, 7954.493
2724.971, 7939.811
2726.900, 7936.977
2728.828, 7950.368
2730.757, 7966.099
2732.685, 7982.021
2734.614, 7998.034
2736.542, 8014.951
2738.471, 8026.392
2740.399, 8028.402
2742.328, 8036.105
2744.256, 8053.030
2746.185, 8061.956
2748.113, 8059.319
2750.042, 8060.383
2751.970, 8069.691
2753.898, 8075.829
2755.827, 8076.862
2757.755, 8082.331
2759.684, 8093.403
2761.612, 8102.215
2763.541, 8107.667
2765.469, 8113.799
2767.398, 8119.869
2769.326, 8129.560
2771.255, 8142.581
2773.183, 8159.752
2775.112, 8180.831
2777.040, 8192.799
2778.969, 8194.384
2780.897, 8192.506
2782.825, 8186.830
2784.754, 8189.795
2786.682, 8200.994
2788.611, 8209.735
2790.539, 8215.834
2792.468, 8219.232
2794.396, 8220.557
2796.325, 8226.741
2798.253, 8236.958
2800.182, 8244.063
2802.110, 8247.854
2804.039, 8243.884
2805.967, 8236.730
2807.896, 8246.752
2809.824, 8266.982
2811.752, 8272.097
2813.681, 8268.857
2815.609, 8273.873
2817.538, 8285.630
2819.466, 8303.019
2821.395, 8321.920
2823.323, 8335.999
2825.252, 8345.066
2827.180, 8345.510
2829.109, 8344.070
2831.037, 8355.133
2832.966, 8364.182
2834.894, 8347.199
2836.823, 8328.689
2838.751, 8337.168
2840.679, 8353.193
2842.608, 8362.219
2844.536, 8369.260
2846.465, 8377.313
2848.393, 8385.380
2850.322, 8395.545
2852.250, 8401.691
2854.179, 8399.291
2856.107, 8394.758
2858.036, 8382.495
2859.964, 8384.004
2861.893, 8422.317
2863.821, 8451.779
2865.750, 8455.485
2867.678, 8452.045
2869.606, 8437.994
2871.535, 8437.708
2873.463, 8470.037
2875.392, 8489.494
2877.320, 8485.135
2879.249, 8485.733
2881.177, 8495.479
2883.106, 8500.568
2885.034, 8497.089
2886.963, 8504.182
2888.891, 8525.236
2890.820, 8539.024
2892.748, 8544.838
2894.677, 8549.994
2896.605, 8555.104
2898.533, 8564.049
2900.462, 8576.315
2902.390, 8584.635
2904.319, 8589.427
2906.247, 8585.533
2908.176, 8580.978
2910.104, 8601.039
2912.033, 8629.854
2913.961, 8634.893
2915.890, 8629.548
2917.818, 8634.342
2919.747, 8641.591
2921.675, 8643.085
2923.604, 8643.194
2925.532, 8644.366
2927.460, 8648.031
2929.389, 8656.670
2931.317, 8666.544
2933.246, 8679.373
2935.174, 8687.159
2937.103, 8679.842
2939.031, 8677.577
2940.960, 8689.073
2942.888, 8699.413
2944.817, 8706.124
2946.745, 8709.221
2948.674, 8706.214
2950.602, 8706.564
2952.531, 8709.508
2954.459, 8727.323
2956.387, 8761.332
2958.316, 8778.896
2960.244, 8775.794
2962.173, 8775.963
2964.101, 8778.826
2966.030, 8787.308
2967.958, 8797.662
2969.887, 8790.315
2971.815, 8776.855
2973.744, 8783.276
2975.672, 8802.217
2977.601, 8827.342
2979.529, 8846.982
2981.458, 8837.054
2983.386, 8827.839
2985.314, 8854.541
2987.243, 8882.102
2989.171, 8887.470
2991.100, 8887.701
2993.028, 8892.326
2994.957, 8891.463
2996.885, 8870.220
2998.814, 8866.966
3000.742, 8897.464
3002.671, 8909.954
3004.599, 8891.098
3006.528, 8883.107
3008.456, 8895.041
3010.385, 8900.760
3012.313, 8900.148
3014.241, 8914.771
3016.170, 8940.559
3018.098, 8950.278
3020.027, 8946.189
3021.955, 8933.499
3023.884, 8920.076
3025.812, 8925.358
3027.741, 8939.295
3029.669, 8953.717
3031.598, 8964.999
3033.526, 8967.087
3035.455, 8966.642
3037.383, 8964.779
3039.312, 8964.826
3041.240, 8972.701
3043.168, 8975.106
3045.097, 8965.739
3047.025, 8963.317
3048.954, 8973.796
3050.882, 8981.240
3052.811, 8980.544
3054.739, 8984.670
3056.668, 8992.974
3058.596, 9015.160
3060.525, 9045.806
3062.453, 9050.509
3064.382, 9038.380
3066.310, 9038.513
3068.239, 9044.100
3070.167, 9043.854
3072.095, 9040.450
3074.024, 9031.631
3075.952, 9026.455
3077.881, 9034.603
3079.809, 9043.899
3081.738, 9049.635
3083.666, 9055.666
3085.595, 9068.563
3087.523, 9074.818
3089.452, 9071.937
3091.380, 9072.732
3093.309, 9078.127
3095.237, 9091.502
3097.166, 9111.606
3099.094, 9118.356
3101.022, 9114.245
3102.951, 9111.470
3104.879, 9112.467
3106.808, 9127.581
3108.736, 9145.881
3110.665, 9152.675
3112.593, 9155.655
3114.522, 9162.106
3116.450, 9164.946
3118.379, 9149.326
3120.307, 9149.855
3122.236, 9182.390
3124.164, 9206.563
3126.093, 9208.890
3128.021, 9210.455
3129.949, 9211.271
3131.878, 9212.800
3133.806, 9215.445
3135.735, 9227.807
3137.663, 9244.855
3139.592, 9247.943
3141.520, 9244.025
3143.449, 9243.021
3145.377, 9244.686
3147.306, 9249.669
3149.234, 9255.900
3151.163, 9261.733
3153.091, 9268.479
3155.020, 9276.935
3156.948, 9285.389
3158.876, 9295.814
3160.805, 9297.796
3162.733, 9290.384
3164.662, 9296.345
3166.590, 9315.782
3168.519, 9331.834
3170.447, 9343.783
3172.376, 9343.968
3174.304, 9343.455
3176.233, 9361.626
3178.161, 9382.729
3180.090, 9390.894
3182.018, 9397.098
3183.947, 9407.313
3185.875, 9413.550
3187.803, 9409.757
3189.732, 9406.314
3191.660, 9403.025
3193.589, 9415.517
3195.517, 9445.220
3197.446, 9448.457
3199.374, 9431.557
3201.303, 9426.982
3203.231, 9428.079
3205.160, 9424.979
3207.088, 9420.357
3209.017, 9412.610
3210.945, 9413.869
3212.874, 9436.264
3214.802, 9455.838
3216.730, 9456.990
3218.659, 9465.347
3220.587, 9483.003
3222.516, 9490.967
3224.444, 9487.061
3226.373, 9482.693
3228.301, 9479.167
3230.230, 9482.178
3232.158, 9486.621
3234.087, 9479.848
3236.015, 9475.486
3237.944, 9488.366
3239.872, 9502.404
3241.801, 9513.667
3243.729, 9513.961
3245.657, 9487.687
3247.586, 9481.027
3249.514, 9496.894
3251.443, 9508.475
3253.371, 9514.839
3255.300, 9518.124
3257.228, 9517.734
3259.157, 9505.045
3261.085, 9495.021
3263.014, 9508.546
3264.942, 9522.973
3266.871, 9525.135
3268.799, 9522.432
3270.728, 9512.715
3272.656, 9511.084
3274.584, 9522.193
3276.513, 9522.104
3278.441, 9512.814
3280.370, 9514.134
3282.298, 9521.533
3284.227, 9523.331
3286.155, 9522.771
3288.084, 9521.622
3290.012, 9522.345
3291.941, 9526.511
3293.869, 9532.252
3295.798, 9540.272
3297.726, 9541.144
3299.655, 9529.844
3301.583, 9533.210
3303.511, 9549.054
3305.440, 9556.872
3307.368, 9559.898
3309.297, 9563.761
3311.225, 9568.695
3313.154, 9578.688
3315.082, 9584.553
3317.011, 9580.932
3318.939, 9574.204
3320.868, 9560.743
3322.796, 9571.378
3324.725, 9607.293
3326.653, 9620.123
3328.582, 9615.209
3330.510, 9620.681
3332.438, 9630.920
3334.367, 9644.190
3336.295, 9651.107
3338.224, 9637.016
3340.152, 9628.879
3342.081, 9633.079
3344.009, 9647.162
3345.938, 9674.390
3347.866, 9685.148
3349.795, 9682.613
3351.723, 9688.294
3353.652, 9695.423
3355.580, 9684.189
3357.509, 9675.890
3359.437, 9691.420
3361.365, 9707.418
3363.294, 9707.854
3365.222, 9716.812
3367.151, 9736.926
3369.079, 9748.029
3371.008, 9749.576
3372.936, 9754.878
3374.865, 9760.791
3376.793, 9760.216
3378.722, 9757.220
3380.650, 9751.600
3382.579, 9752.202
3384.507, 9763.759
3386.436, 9776.198
3388.364, 9790.724
3390.292, 9787.672
3392.221, 9772.207
3394.149, 9786.524
3396.078, 9813.210
3398.006, 9817.545
3399.935, 9816.744
3401.863, 9822.220
3403.792, 9831.746
3405.720, 9849.801
3407.649, 9857.821
3409.577, 9853.801
3411.506, 9854.791
3413.434, 9861.180
3415.363, 9870.346
3417.291, 9881.013
3419.219, 9890.614
3421.148, 9900.200
3423.076, 9911.163
3425.005, 9919.533
3426.933, 9924.531
3428.862, 9926.787
3430.790, 9927.357
3432.719, 9925.419
3434.647, 9921.859
3436.576, 9914.177
3438.504, 9909.962
3440.433, 9921.438
3442.361, 9932.821
3444.290, 9935.188
3446.218, 9937.812
3448.146, 9939.795
3450.075, 9954.455
3452.003, 9975.763
3453.932, 9966.254
3455.860, 9947.480
3457.789, 9963.010
3459.717, 9982.502
3461.646, 9991.436
3463.574, 9991.377
3465.503, 9980.932
3467.431, 9977.029
3469.360, 9980.739
3471.288, 9987.496
3473.217, 9994.016
3475.145, 9993.898
3477.073, 9989.831
3479.002, 9979.760
3480.930, 9977.846
3482.859, 9991.193
3484.787, 10002.07
3486.716, 10007.43
3488.644, 10013.80
3490.573, 10019.27
3492.501, 10017.99
3494.430, 10014.95
3496.358, 10017.20
3498.287, 10018.12
3500.215, 10014.74
3502.144, 10017.03
3504.072, 10028.14
3506.000, 10037.68
3507.929, 10043.58
3509.857, 10030.25
3511.786, 10021.55
3513.714, 10057.44
3515.643, 10085.64
3517.571, 10071.43
3519.500, 10071.89
3521.428, 10093.04
3523.357, 10112.09
3525.285, 10125.21
3527.214, 10114.42
3529.142, 10101.20
3531.071, 10108.47
3532.999, 10120.37
3534.927, 10134.88
3536.856, 10139.35
3538.784, 10133.12
3540.713, 10132.76
3542.641, 10137.11
3544.570, 10140.06
3546.498, 10143.30
3548.427, 10146.46
3550.355, 10153.65
3552.284, 10168.83
3554.212, 10171.80
3556.141, 10160.05
3558.069, 10149.24
3559.998, 10143.53
3561.926, 10154.82
3563.854, 10170.01
3565.783, 10180.90
3567.711, 10183.63
3569.640, 10171.33
3571.568, 10182.60
3573.497, 10215.19
3575.425, 10223.35
3577.354, 10218.02
3579.282, 10207.66
3581.211, 10210.65
3583.139, 10245.51
3585.068, 10266.16
3586.996, 10258.26
3588.925, 10248.47
3590.853, 10241.68
3592.781, 10262.16
3594.710, 10286.83
3596.638, 10288.32
3598.567, 10289.39
3600.495, 10300.53
3602.424, 10307.62
3604.352, 10310.46
3606.281, 10306.77
3608.209, 10301.71
3610.138, 10305.96
3612.066, 10311.14
3613.995, 10311.71
3615.923, 10315.00
3617.852, 10323.78
3619.780, 10330.87
3621.708, 10336.18
3623.637, 10338.10
3625.565, 10339.46
3627.494, 10342.90
3629.422, 10345.40
3631.351, 10341.33
3633.279, 10349.53
3635.208, 10369.10
3637.136, 10385.04
3639.065, 10397.90
3640.993, 10412.51
3642.922, 10416.78
3644.850, 10388.06
3646.779, 10386.23
3648.707, 10416.19
3650.635, 10432.02
3652.564, 10435.96
3654.492, 10433.00
3656.421, 10430.34
3658.349, 10431.66
3660.278, 10440.20
3662.206, 10457.46
3664.135, 10470.84
3666.063, 10479.74
3667.992, 10483.00
3669.920, 10483.46
3671.849, 10479.63
3673.777, 10481.54
3675.706, 10493.03
3677.634, 10507.95
3679.563, 10523.47
3681.491, 10513.59
3683.419, 10504.57
3685.348, 10535.98
3687.276, 10563.25
3689.205, 10564.38
3691.133, 10568.31
3693.062, 10575.90
3694.990, 10578.64
3696.919, 10578.18
3698.847, 10576.91
3700.776, 10574.77
3702.704, 10569.52
3704.633, 10567.84
3706.561, 10570.78
3708.490, 10591.05
3710.418, 10617.40
3712.346, 10633.63
3714.275, 10642.57
3716.203, 10643.18
3718.132, 10642.89
3720.060, 10642.10
3721.989, 10625.83
3723.917, 10610.12
3725.846, 10626.60
3727.774, 10652.15
3729.703, 10685.03
3731.631, 10692.31
3733.560, 10673.73
3735.488, 10676.50
3737.417, 10691.05
3739.345, 10707.30
3741.273, 10714.56
3743.202, 10704.19
3745.130, 10693.76
3747.059, 10686.64
3748.987, 10691.62
3750.916, 10700.19
3752.844, 10692.45
3754.773, 10691.32
3756.701, 10715.89
3758.630, 10718.99
3760.558, 10703.61
3762.487, 10723.14
3764.415, 10749.90
3766.344, 10743.63
3768.272, 10735.19
3770.200, 10741.16
3772.129, 10740.28
3774.057, 10736.16
3775.986, 10745.70
3777.914, 10757.79
3779.843, 10759.35
3781.771, 10757.97
3783.700, 10753.60
3785.628, 10742.62
3787.557, 10732.83
3789.485, 10762.88
3791.414, 10790.90
3793.342, 10780.53
3795.271, 10771.39
3797.199, 10773.49
3799.127, 10778.53
3801.056, 10785.47
3802.984, 10797.33
3804.913, 10798.39
3806.841, 10771.92
3808.770, 10775.55
3810.698, 10817.35
3812.627, 10815.11
3814.555, 10797.51
3816.484, 10804.45
3818.412, 10819.10
3820.341, 10837.72
3822.269, 10843.88
3824.198, 10838.27
3826.126, 10823.95
3828.054, 10807.84
3829.983, 10794.38
3831.911, 10788.37
3833.840, 10791.79
3835.768, 10794.43
3837.697, 10799.34
3839.625, 10820.52
3841.554, 10838.37
3843.482, 10839.25
3845.411, 10837.30
3847.339, 10834.85
3849.268, 10839.01
3851.196, 10843.43
3853.125, 10836.80
3855.053, 10835.27
3856.981, 10843.03
3858.910, 10859.53
3860.838, 10879.55
3862.767, 10887.96
3864.695, 10889.72
3866.624, 10884.42
3868.552, 10883.21
3870.481, 10887.44
3872.409, 10900.30
3874.338, 10912.71
3876.266, 10906.02
3878.195, 10903.96
3880.123, 10920.57
3882.052, 10929.21
3883.980, 10931.83
3885.908, 10939.12
3887.837, 10943.22
3889.765, 10937.35
3891.694, 10930.92
3893.622, 10925.74
3895.551, 10944.47
3897.479, 10968.57
3899.408, 10966.87
3901.336, 10970.33
3903.265, 10990.01
3905.193, 11002.82
3907.122, 11007.92
3909.050, 11004.46
3910.979, 11000.65
3912.907, 11000.21
3914.835, 11008.08
3916.764, 11023.52
3918.692, 11032.82
3920.621, 11041.63
3922.549, 11061.69
3924.478, 11069.59
3926.406, 11061.82
3928.335, 11064.91
3930.263, 11073.63
3932.192, 11074.78
3934.120, 11072.26
3936.049, 11061.36
3937.977, 11069.75
3939.906, 11090.79
3941.834, 11095.58
3943.762, 11097.71
3945.691, 11109.42
3947.619, 11113.28
3949.548, 11109.08
3951.476, 11113.60
3953.405, 11121.93
3955.333, 11128.58
3957.262, 11136.53
3959.190, 11146.31
3961.119, 11162.99
3963.047, 11181.21
3964.976, 11192.03
3966.904, 11200.05
3968.833, 11207.70
3970.761, 11195.00
3972.689, 11173.09
3974.618, 11183.00
3976.546, 11196.00
3978.475, 11195.01
3980.403, 11205.01
3982.332, 11222.06
3984.260, 11201.44
3986.189, 11185.59
3988.117, 11219.70
3990.046, 11234.81
3991.974, 11225.53
3993.903, 11214.70
3995.831, 11207.31
3997.760, 11207.45
3999.688, 11216.64
4001.616, 11237.19
4003.545, 11241.47
4005.473, 11240.26
4007.402, 11252.34
4009.330, 11256.69
4011.259, 11246.13
4013.187, 11248.07
4015.116, 11259.85
4017.044, 11277.91
4018.973, 11291.70
4020.901, 11296.88
4022.830, 11301.92
4024.758, 11304.73
4026.687, 11294.75
4028.615, 11287.47
4030.543, 11298.63
4032.472, 11282.20
4034.400, 11252.09
4036.329, 11260.76
4038.257, 11272.33
4040.186, 11262.82
4042.114, 11268.14
4044.043, 11285.10
4045.971, 11292.76
4047.900, 11299.25
4049.828, 11312.79
4051.757, 11305.70
4053.685, 11282.69
4055.614, 11287.71
4057.542, 11302.15
4059.470, 11316.69
4061.399, 11327.43
4063.327, 11334.24
4065.256, 11338.39
4067.184, 11341.60
4069.113, 11342.26
4071.041, 11353.23
4072.970, 11369.78
4074.898, 11355.82
4076.827, 11342.31
4078.755, 11354.89
4080.684, 11365.94
4082.612, 11371.45
4084.541, 11363.54
4086.469, 11351.60
4088.397, 11338.97
4090.326, 11340.87
4092.254, 11357.51
4094.183, 11383.41
4096.111, 11397.03
4098.040, 11363.64
4099.968, 11360.90
4101.896, 11386.79
4103.825, 11385.77
4105.754, 11377.47
4107.682, 11372.34
4109.610, 11385.16
4111.539, 11410.65
4113.468, 11422.66
4115.396, 11423.85
4117.324, 11415.42
4119.253, 11398.79
4121.182, 11382.35
4123.110, 11415.12
4125.038, 11442.92
4126.967, 11429.47
4128.896, 11420.99
4130.824, 11423.96
4132.752, 11459.03
4134.681, 11489.84
4136.609, 11488.80
4138.538, 11508.43
4140.466, 11532.56
4142.395, 11511.31
4144.323, 11489.24
4146.251, 11482.49
4148.180, 11503.68
4150.108, 11535.47
4152.037, 11548.81
4153.965, 11546.81
4155.894, 11531.31
4157.822, 11546.88
4159.751, 11573.17
4161.679, 11576.05
4163.607, 11578.64
4165.536, 11585.48
4167.465, 11599.04
4169.393, 11603.51
4171.321, 11573.67
4173.250, 11559.63
4175.179, 11569.84
4177.107, 11590.88
4179.035, 11616.15
4180.964, 11643.17
4182.893, 11659.36
4184.821, 11663.99
4186.749, 11661.72
4188.678, 11655.34
4190.606, 11642.60
4192.535, 11637.49
4194.463, 11639.59
4196.392, 11653.25
4198.320, 11656.88
4200.249, 11639.65
4202.177, 11630.15
4204.105, 11631.11
4206.034, 11653.94
4207.962, 11659.18
4209.891, 11639.67
4211.819, 11639.94
4213.748, 11649.99
4215.676, 11655.04
4217.604, 11675.23
4219.533, 11704.45
4221.462, 11707.51
4223.390, 11691.09
4225.318, 11658.30
4227.247, 11630.48
4229.176, 11617.39
4231.104, 11647.15
4233.032, 11674.32
4234.961, 11681.29
4236.890, 11695.23
4238.818, 11709.01
4240.746, 11704.54
4242.675, 11689.28
##END=



