##NAMES=Paracoquimbite
##RRUFFID=R140266
##IDEAL CHEMISTRY=Fe^3+^_4_(SO_4_)_6_(H_2_O)_12_·6H_2_O
##LOCALITY=Liaoning province, China
##OWNER=RRUFF
##SOURCE=Ken Roberts
##DESCRIPTION=Purple pseudo cubic crystals, water soluble
##STATUS=The identification of this mineral has been confirmed by single-crystal X-ray diffraction
##URL=https://www.rruff.net/odr/rruff_sample/R140266
##DIFFRACTION SAMPLE DESCRIPTION=Single crystal, powder profile is calculated
##CELL PARAMETERS=a: 10.939 b: 10.939 c: 51.381 alpha: 90 beta: 90 gamma: 120 volume: 5324.4 crystal system: hexagonal
##FILETYPE=Raman Processed
##RAMAN WAVELENGTH=780

7.826855e+001, 6.591316e+002
8.019702e+001, 5.470504e+002
8.212549e+001, 5.050195e+002
8.405396e+001, 5.510740e+002
8.598242e+001, 6.548172e+002
8.791089e+001, 7.761435e+002
8.983936e+001, 9.135764e+002
9.176782e+001, 1.066536e+003
9.369629e+001, 1.205376e+003
9.562476e+001, 1.252469e+003
9.755322e+001, 1.283545e+003
9.948169e+001, 1.294691e+003
1.014102e+002, 1.272589e+003
1.033386e+002, 1.222944e+003
1.052671e+002, 1.176451e+003
1.071956e+002, 1.135995e+003
1.091240e+002, 1.095406e+003
1.110525e+002, 1.049442e+003
1.129810e+002, 1.002099e+003
1.149094e+002, 9.550331e+002
1.168379e+002, 9.070610e+002
1.187664e+002, 8.745247e+002
1.206948e+002, 8.617935e+002
1.226233e+002, 8.607889e+002
1.245518e+002, 8.707029e+002
1.264802e+002, 8.910157e+002
1.284087e+002, 9.192886e+002
1.303372e+002, 9.551760e+002
1.322656e+002, 1.002775e+003
1.341941e+002, 1.059799e+003
1.361226e+002, 1.132250e+003
1.380510e+002, 1.229438e+003
1.399795e+002, 1.337908e+003
1.419080e+002, 1.453070e+003
1.438364e+002, 1.573771e+003
1.457649e+002, 1.661156e+003
1.476934e+002, 1.694071e+003
1.496218e+002, 1.718582e+003
1.515503e+002, 1.724185e+003
1.534788e+002, 1.738099e+003
1.554072e+002, 1.781059e+003
1.573357e+002, 1.850762e+003
1.592642e+002, 1.931200e+003
1.611926e+002, 2.038695e+003
1.631211e+002, 2.132880e+003
1.650496e+002, 2.220836e+003
1.669780e+002, 2.284556e+003
1.689065e+002, 2.311292e+003
1.708350e+002, 2.306627e+003
1.727634e+002, 2.286187e+003
1.746919e+002, 2.234722e+003
1.766204e+002, 2.194520e+003
1.785488e+002, 2.164560e+003
1.804773e+002, 2.147522e+003
1.824058e+002, 2.141266e+003
1.843342e+002, 2.149678e+003
1.862627e+002, 2.180027e+003
1.881912e+002, 2.232067e+003
1.901196e+002, 2.314744e+003
1.920481e+002, 2.432483e+003
1.939766e+002, 2.571144e+003
1.959050e+002, 2.729595e+003
1.978335e+002, 2.904540e+003
1.997620e+002, 3.087595e+003
2.016904e+002, 3.278859e+003
2.036189e+002, 3.526872e+003
2.055474e+002, 3.859047e+003
2.074758e+002, 4.162626e+003
2.094043e+002, 4.458320e+003
2.113328e+002, 4.652588e+003
2.132612e+002, 4.667428e+003
2.151897e+002, 4.534748e+003
2.171182e+002, 4.357770e+003
2.190466e+002, 4.128337e+003
2.209751e+002, 3.913769e+003
2.229036e+002, 3.729595e+003
2.248320e+002, 3.551251e+003
2.267605e+002, 3.365981e+003
2.286890e+002, 3.180702e+003
2.306174e+002, 2.998199e+003
2.325459e+002, 2.820021e+003
2.344744e+002, 2.673807e+003
2.364028e+002, 2.558102e+003
2.383313e+002, 2.483394e+003
2.402598e+002, 2.458017e+003
2.421882e+002, 2.470506e+003
2.441167e+002, 2.519632e+003
2.460452e+002, 2.602989e+003
2.479736e+002, 2.711421e+003
2.499021e+002, 2.844047e+003
2.518306e+002, 2.997653e+003
2.537590e+002, 3.175655e+003
2.556875e+002, 3.369922e+003
2.576160e+002, 3.574551e+003
2.595444e+002, 3.794118e+003
2.614729e+002, 4.029312e+003
2.634014e+002, 4.283763e+003
2.653298e+002, 4.573298e+003
2.672583e+002, 4.898721e+003
2.691868e+002, 5.263121e+003
2.711152e+002, 5.690325e+003
2.730437e+002, 6.129714e+003
2.749722e+002, 6.585215e+003
2.769006e+002, 7.024006e+003
2.788291e+002, 7.404833e+003
2.807576e+002, 7.727693e+003
2.826860e+002, 7.958865e+003
2.846145e+002, 8.118049e+003
2.865430e+002, 8.125805e+003
2.884714e+002, 7.960860e+003
2.903999e+002, 7.656671e+003
2.923284e+002, 7.191758e+003
2.942568e+002, 6.612481e+003
2.961853e+002, 5.995023e+003
2.981138e+002, 5.333575e+003
3.000422e+002, 4.717250e+003
3.019707e+002, 4.151756e+003
3.038992e+002, 3.642246e+003
3.058276e+002, 3.192317e+003
3.077561e+002, 2.797395e+003
3.096846e+002, 2.464091e+003
3.116130e+002, 2.181272e+003
3.135415e+002, 1.933467e+003
3.154700e+002, 1.722823e+003
3.173984e+002, 1.538839e+003
3.193269e+002, 1.383264e+003
3.212554e+002, 1.247403e+003
3.231838e+002, 1.133121e+003
3.251123e+002, 1.035197e+003
3.270408e+002, 9.505487e+002
3.289692e+002, 8.778160e+002
3.308977e+002, 8.138624e+002
3.328262e+002, 7.594201e+002
3.347546e+002, 7.125652e+002
3.366831e+002, 6.748051e+002
3.386116e+002, 6.416325e+002
3.405400e+002, 6.127299e+002
3.424685e+002, 5.873315e+002
3.443970e+002, 5.648787e+002
3.463254e+002, 5.451112e+002
3.482539e+002, 5.273743e+002
3.501824e+002, 5.118942e+002
3.521108e+002, 4.980296e+002
3.540393e+002, 4.866371e+002
3.559678e+002, 4.750753e+002
3.578962e+002, 4.618414e+002
3.598247e+002, 4.489593e+002
3.617532e+002, 4.378759e+002
3.636816e+002, 4.280914e+002
3.656101e+002, 4.183570e+002
3.675386e+002, 4.085360e+002
3.694670e+002, 3.998317e+002
3.713955e+002, 3.920997e+002
3.733240e+002, 3.858605e+002
3.752524e+002, 3.817050e+002
3.771809e+002, 3.785582e+002
3.791094e+002, 3.756654e+002
3.810378e+002, 3.733604e+002
3.829663e+002, 3.721166e+002
3.848948e+002, 3.719634e+002
3.868232e+002, 3.730043e+002
3.887517e+002, 3.753172e+002
3.906802e+002, 3.782552e+002
3.926086e+002, 3.818963e+002
3.945371e+002, 3.857950e+002
3.964656e+002, 3.895142e+002
3.983940e+002, 3.935900e+002
4.003225e+002, 3.982433e+002
4.022510e+002, 4.036942e+002
4.041794e+002, 4.109160e+002
4.061079e+002, 4.198476e+002
4.080364e+002, 4.299681e+002
4.099648e+002, 4.412513e+002
4.118933e+002, 4.536542e+002
4.138218e+002, 4.680856e+002
4.157502e+002, 4.825538e+002
4.176787e+002, 4.961030e+002
4.196072e+002, 5.088596e+002
4.215356e+002, 5.212239e+002
4.234641e+002, 5.330684e+002
4.253926e+002, 5.434151e+002
4.273210e+002, 5.519991e+002
4.292495e+002, 5.602778e+002
4.311780e+002, 5.689983e+002
4.331064e+002, 5.768044e+002
4.350349e+002, 5.827308e+002
4.369634e+002, 5.881281e+002
4.388918e+002, 5.941295e+002
4.408203e+002, 6.004747e+002
4.427488e+002, 6.068724e+002
4.446772e+002, 6.132451e+002
4.466057e+002, 6.183527e+002
4.485342e+002, 6.217490e+002
4.504626e+002, 6.247024e+002
4.523911e+002, 6.245027e+002
4.543196e+002, 6.277656e+002
4.562480e+002, 6.348915e+002
4.581765e+002, 6.484534e+002
4.601050e+002, 6.706959e+002
4.620334e+002, 7.017455e+002
4.639619e+002, 7.429058e+002
4.658904e+002, 7.943412e+002
4.678188e+002, 8.504240e+002
4.697473e+002, 9.126453e+002
4.716758e+002, 9.755948e+002
4.736042e+002, 1.035207e+003
4.755327e+002, 1.099918e+003
4.774612e+002, 1.170531e+003
4.793896e+002, 1.250160e+003
4.813181e+002, 1.337737e+003
4.832466e+002, 1.437466e+003
4.851750e+002, 1.559508e+003
4.871035e+002, 1.704511e+003
4.890320e+002, 1.865215e+003
4.909604e+002, 2.053211e+003
4.928889e+002, 2.238085e+003
4.948174e+002, 2.440065e+003
4.967458e+002, 2.610279e+003
4.986743e+002, 2.755151e+003
5.006028e+002, 2.836388e+003
5.025313e+002, 2.823002e+003
5.044597e+002, 2.732243e+003
5.063882e+002, 2.579231e+003
5.083167e+002, 2.364596e+003
5.102451e+002, 2.147714e+003
5.121736e+002, 1.920857e+003
5.141021e+002, 1.711160e+003
5.160305e+002, 1.518239e+003
5.179590e+002, 1.343771e+003
5.198875e+002, 1.188038e+003
5.218159e+002, 1.051807e+003
5.237444e+002, 9.372545e+002
5.256729e+002, 8.400638e+002
5.276013e+002, 7.573069e+002
5.295298e+002, 6.885690e+002
5.314583e+002, 6.327040e+002
5.333867e+002, 5.910704e+002
5.353152e+002, 5.558827e+002
5.372437e+002, 5.277388e+002
5.391721e+002, 5.036254e+002
5.411006e+002, 4.831040e+002
5.430291e+002, 4.662392e+002
5.449575e+002, 4.545713e+002
5.468860e+002, 4.449778e+002
5.488145e+002, 4.353516e+002
5.507429e+002, 4.268306e+002
5.526714e+002, 4.211074e+002
5.545999e+002, 4.180322e+002
5.565283e+002, 4.167811e+002
5.584568e+002, 4.172715e+002
5.603853e+002, 4.197504e+002
5.623137e+002, 4.240777e+002
5.642422e+002, 4.312494e+002
5.661707e+002, 4.420939e+002
5.680991e+002, 4.548873e+002
5.700276e+002, 4.691374e+002
5.719561e+002, 4.847744e+002
5.738845e+002, 5.015767e+002
5.758130e+002, 5.198699e+002
5.777415e+002, 5.397248e+002
5.796699e+002, 5.616273e+002
5.815984e+002, 5.870170e+002
5.835269e+002, 6.157857e+002
5.854553e+002, 6.465311e+002
5.873838e+002, 6.787639e+002
5.893123e+002, 7.149129e+002
5.912407e+002, 7.592944e+002
5.931692e+002, 8.010172e+002
5.950977e+002, 8.400897e+002
5.970261e+002, 8.724669e+002
5.989546e+002, 8.990257e+002
6.008831e+002, 9.151875e+002
6.028115e+002, 9.156826e+002
6.047400e+002, 9.017850e+002
6.066685e+002, 8.753038e+002
6.085969e+002, 8.377779e+002
6.105254e+002, 7.960056e+002
6.124539e+002, 7.496488e+002
6.143823e+002, 7.056192e+002
6.163108e+002, 6.638998e+002
6.182393e+002, 6.262732e+002
6.201677e+002, 5.933153e+002
6.220962e+002, 5.637866e+002
6.240247e+002, 5.377101e+002
6.259531e+002, 5.145814e+002
6.278816e+002, 4.947640e+002
6.298101e+002, 4.771778e+002
6.317385e+002, 4.607372e+002
6.336670e+002, 4.455146e+002
6.355955e+002, 4.318141e+002
6.375239e+002, 4.195928e+002
6.394524e+002, 4.081432e+002
6.413809e+002, 3.974407e+002
6.433093e+002, 3.876385e+002
6.452378e+002, 3.783261e+002
6.471663e+002, 3.706188e+002
6.490947e+002, 3.649103e+002
6.510232e+002, 3.602865e+002
6.529517e+002, 3.562184e+002
6.548801e+002, 3.535029e+002
6.568086e+002, 3.522166e+002
6.587371e+002, 3.529450e+002
6.606655e+002, 3.563959e+002
6.625940e+002, 3.619337e+002
6.645225e+002, 3.689572e+002
6.664509e+002, 3.771745e+002
6.683794e+002, 3.856254e+002
6.703079e+002, 3.947856e+002
6.722363e+002, 3.994817e+002
6.741648e+002, 3.995606e+002
6.760933e+002, 3.961593e+002
6.780217e+002, 3.891089e+002
6.799502e+002, 3.790668e+002
6.818787e+002, 3.649497e+002
6.838071e+002, 3.504352e+002
6.857356e+002, 3.367236e+002
6.876641e+002, 3.235654e+002
6.895925e+002, 3.101829e+002
6.915210e+002, 2.978990e+002
6.934495e+002, 2.883197e+002
6.953779e+002, 2.804105e+002
6.973064e+002, 2.723892e+002
6.992349e+002, 2.645289e+002
7.011633e+002, 2.580610e+002
7.030918e+002, 2.529777e+002
7.050203e+002, 2.478741e+002
7.069487e+002, 2.426938e+002
7.088772e+002, 2.388008e+002
7.108057e+002, 2.366134e+002
7.127341e+002, 2.341087e+002
7.146626e+002, 2.304425e+002
7.165911e+002, 2.275134e+002
7.185195e+002, 2.265543e+002
7.204480e+002, 2.255337e+002
7.223765e+002, 2.231624e+002
7.243049e+002, 2.211350e+002
7.262334e+002, 2.208875e+002
7.281619e+002, 2.211855e+002
7.300903e+002, 2.206364e+002
7.320188e+002, 2.198122e+002
7.339473e+002, 2.196588e+002
7.358757e+002, 2.200738e+002
7.378042e+002, 2.207661e+002
7.397327e+002, 2.217071e+002
7.416611e+002, 2.228397e+002
7.435896e+002, 2.241533e+002
7.455181e+002, 2.250620e+002
7.474465e+002, 2.254954e+002
7.493750e+002, 2.255617e+002
7.513035e+002, 2.251738e+002
7.532319e+002, 2.246237e+002
7.551604e+002, 2.235316e+002
7.570889e+002, 2.229541e+002
7.590173e+002, 2.238687e+002
7.609458e+002, 2.243553e+002
7.628743e+002, 2.232172e+002
7.648027e+002, 2.217568e+002
7.667312e+002, 2.206911e+002
7.686597e+002, 2.199367e+002
7.705881e+002, 2.197305e+002
7.725166e+002, 2.195396e+002
7.744451e+002, 2.184601e+002
7.763735e+002, 2.169306e+002
7.783020e+002, 2.158474e+002
7.802305e+002, 2.151972e+002
7.821589e+002, 2.150253e+002
7.840874e+002, 2.153619e+002
7.860159e+002, 2.149863e+002
7.879443e+002, 2.134402e+002
7.898728e+002, 2.128895e+002
7.918013e+002, 2.139907e+002
7.937297e+002, 2.148717e+002
7.956582e+002, 2.154990e+002
7.975867e+002, 2.159910e+002
7.995151e+002, 2.159946e+002
8.014436e+002, 2.166243e+002
8.033721e+002, 2.187493e+002
8.053005e+002, 2.204828e+002
8.072290e+002, 2.206550e+002
8.091575e+002, 2.207515e+002
8.110859e+002, 2.216080e+002
8.130144e+002, 2.227381e+002
8.149429e+002, 2.242222e+002
8.168713e+002, 2.253809e+002
8.187998e+002, 2.249513e+002
8.207283e+002, 2.242760e+002
8.226567e+002, 2.256116e+002
8.245852e+002, 2.280184e+002
8.265137e+002, 2.293316e+002
8.284421e+002, 2.298692e+002
8.303706e+002, 2.309081e+002
8.322991e+002, 2.323898e+002
8.342275e+002, 2.337328e+002
8.361560e+002, 2.349362e+002
8.380845e+002, 2.361242e+002
8.400129e+002, 2.372852e+002
8.419414e+002, 2.390201e+002
8.438699e+002, 2.415038e+002
8.457983e+002, 2.430597e+002
8.477268e+002, 2.431885e+002
8.496553e+002, 2.441892e+002
8.515837e+002, 2.468002e+002
8.535122e+002, 2.491166e+002
8.554407e+002, 2.505726e+002
8.573691e+002, 2.518726e+002
8.592976e+002, 2.534017e+002
8.612261e+002, 2.544969e+002
8.631545e+002, 2.548306e+002
8.650830e+002, 2.548578e+002
8.670115e+002, 2.544607e+002
8.689399e+002, 2.542112e+002
8.708684e+002, 2.550161e+002
8.727969e+002, 2.553837e+002
8.747253e+002, 2.542182e+002
8.766538e+002, 2.520854e+002
8.785823e+002, 2.488357e+002
8.805107e+002, 2.455606e+002
8.824392e+002, 2.440367e+002
8.843677e+002, 2.429706e+002
8.862961e+002, 2.401681e+002
8.882246e+002, 2.366155e+002
8.901531e+002, 2.340882e+002
8.920815e+002, 2.322340e+002
8.940100e+002, 2.306238e+002
8.959385e+002, 2.289607e+002
8.978669e+002, 2.259255e+002
8.997954e+002, 2.220580e+002
9.017239e+002, 2.200607e+002
9.036523e+002, 2.197793e+002
9.055808e+002, 2.189681e+002
9.075093e+002, 2.175624e+002
9.094377e+002, 2.174713e+002
9.113662e+002, 2.188919e+002
9.132947e+002, 2.204713e+002
9.152231e+002, 2.221768e+002
9.171516e+002, 2.240139e+002
9.190801e+002, 2.261442e+002
9.210085e+002, 2.279556e+002
9.229370e+002, 2.289370e+002
9.248655e+002, 2.305959e+002
9.267939e+002, 2.329514e+002
9.287224e+002, 2.359771e+002
9.306509e+002, 2.400709e+002
9.325793e+002, 2.439443e+002
9.345078e+002, 2.468848e+002
9.364363e+002, 2.508486e+002
9.383647e+002, 2.565636e+002
9.402932e+002, 2.625351e+002
9.422217e+002, 2.685404e+002
9.441501e+002, 2.743920e+002
9.460786e+002, 2.797119e+002
9.480071e+002, 2.855891e+002
9.499355e+002, 2.927460e+002
9.518640e+002, 2.998057e+002
9.537925e+002, 3.058495e+002
9.557209e+002, 3.123331e+002
9.576494e+002, 3.196139e+002
9.595779e+002, 3.280991e+002
9.615063e+002, 3.379030e+002
9.634348e+002, 3.491393e+002
9.653633e+002, 3.609302e+002
9.672917e+002, 3.755420e+002
9.692202e+002, 3.938442e+002
9.711487e+002, 4.158488e+002
9.730771e+002, 4.388366e+002
9.750056e+002, 4.689562e+002
9.769341e+002, 5.082418e+002
9.788625e+002, 5.589977e+002
9.807910e+002, 6.227868e+002
9.827195e+002, 6.990178e+002
9.846479e+002, 7.854967e+002
9.865764e+002, 8.861042e+002
9.885049e+002, 9.906254e+002
9.904333e+002, 1.126631e+003
9.923618e+002, 1.306487e+003
9.942903e+002, 1.548051e+003
9.962188e+002, 1.886408e+003
9.981472e+002, 2.278614e+003
1.000076e+003, 2.697647e+003
1.002004e+003, 3.122778e+003
1.003933e+003, 3.511449e+003
1.005861e+003, 3.909177e+003
1.007790e+003, 4.345170e+003
1.009718e+003, 4.847572e+003
1.011646e+003, 5.436518e+003
1.013575e+003, 6.127100e+003
1.015503e+003, 6.951376e+003
1.017432e+003, 7.878532e+003
1.019360e+003, 8.976630e+003
1.021289e+003, 1.005449e+004
1.023217e+003, 1.107629e+004
1.025146e+003, 1.171934e+004
1.027074e+003, 1.148336e+004
1.029003e+003, 1.065483e+004
1.030931e+003, 9.392506e+003
1.032860e+003, 7.975903e+003
1.034788e+003, 6.713186e+003
1.036717e+003, 5.582845e+003
1.038645e+003, 4.553222e+003
1.040573e+003, 3.642509e+003
1.042502e+003, 2.870348e+003
1.044430e+003, 2.236342e+003
1.046359e+003, 1.760016e+003
1.048287e+003, 1.401330e+003
1.050216e+003, 1.131327e+003
1.052144e+003, 9.294943e+002
1.054073e+003, 7.834570e+002
1.056001e+003, 6.783622e+002
1.057930e+003, 6.053283e+002
1.059858e+003, 5.542084e+002
1.061787e+003, 5.173689e+002
1.063715e+003, 4.913207e+002
1.065644e+003, 4.736776e+002
1.067572e+003, 4.628080e+002
1.069500e+003, 4.576503e+002
1.071429e+003, 4.575977e+002
1.073357e+003, 4.622975e+002
1.075286e+003, 4.715113e+002
1.077214e+003, 4.862828e+002
1.079143e+003, 5.040429e+002
1.081071e+003, 5.228093e+002
1.083000e+003, 5.431221e+002
1.084928e+003, 5.685001e+002
1.086857e+003, 5.918876e+002
1.088785e+003, 6.079137e+002
1.090714e+003, 6.193585e+002
1.092642e+003, 6.286771e+002
1.094571e+003, 6.335638e+002
1.096499e+003, 6.293947e+002
1.098427e+003, 6.243278e+002
1.100356e+003, 6.225801e+002
1.102284e+003, 6.225638e+002
1.104213e+003, 6.249022e+002
1.106141e+003, 6.265389e+002
1.108070e+003, 6.285802e+002
1.109998e+003, 6.256234e+002
1.111927e+003, 6.164123e+002
1.113855e+003, 5.999943e+002
1.115784e+003, 5.737967e+002
1.117712e+003, 5.439423e+002
1.119641e+003, 5.086818e+002
1.121569e+003, 4.766075e+002
1.123498e+003, 4.498664e+002
1.125426e+003, 4.270564e+002
1.127354e+003, 4.072762e+002
1.129283e+003, 3.925894e+002
1.131211e+003, 3.835720e+002
1.133140e+003, 3.794393e+002
1.135068e+003, 3.811727e+002
1.136997e+003, 3.844572e+002
1.138925e+003, 3.878897e+002
1.140854e+003, 3.956443e+002
1.142782e+003, 4.088784e+002
1.144711e+003, 4.238224e+002
1.146639e+003, 4.402276e+002
1.148568e+003, 4.579260e+002
1.150496e+003, 4.770124e+002
1.152425e+003, 4.967118e+002
1.154353e+003, 5.169926e+002
1.156281e+003, 5.381219e+002
1.158210e+003, 5.600739e+002
1.160138e+003, 5.797023e+002
1.162067e+003, 5.969042e+002
1.163995e+003, 6.121833e+002
1.165924e+003, 6.254174e+002
1.167852e+003, 6.359764e+002
1.169781e+003, 6.436930e+002
1.171709e+003, 6.478354e+002
1.173638e+003, 6.486726e+002
1.175566e+003, 6.462460e+002
1.177495e+003, 6.416166e+002
1.179423e+003, 6.350099e+002
1.181352e+003, 6.294967e+002
1.183280e+003, 6.281350e+002
1.185208e+003, 6.327418e+002
1.187137e+003, 6.450844e+002
1.189065e+003, 6.650805e+002
1.190994e+003, 6.963782e+002
1.192922e+003, 7.305408e+002
1.194851e+003, 7.682619e+002
1.196779e+003, 7.963891e+002
1.198708e+003, 8.120186e+002
1.200636e+003, 8.063137e+002
1.202565e+003, 7.702129e+002
1.204493e+003, 7.216650e+002
1.206422e+003, 6.637012e+002
1.208350e+003, 6.048073e+002
1.210279e+003, 5.462225e+002
1.212207e+003, 4.917228e+002
1.214135e+003, 4.415135e+002
1.216064e+003, 3.992096e+002
1.217992e+003, 3.659798e+002
1.219921e+003, 3.369520e+002
1.221849e+003, 3.115876e+002
1.223778e+003, 2.902750e+002
1.225706e+003, 2.730647e+002
1.227635e+003, 2.591660e+002
1.229563e+003, 2.482813e+002
1.231492e+003, 2.376866e+002
1.233420e+003, 2.274848e+002
1.235349e+003, 2.186671e+002
1.237277e+003, 2.109906e+002
1.239206e+003, 2.037381e+002
1.241134e+003, 1.971353e+002
1.243063e+003, 1.917677e+002
1.244991e+003, 1.871953e+002
1.246919e+003, 1.829340e+002
1.248848e+003, 1.789683e+002
1.250776e+003, 1.753161e+002
1.252705e+003, 1.719099e+002
1.254633e+003, 1.685804e+002
1.256562e+003, 1.656681e+002
1.258490e+003, 1.631916e+002
1.260419e+003, 1.614551e+002
1.262347e+003, 1.610549e+002
1.264276e+003, 1.605162e+002
1.266204e+003, 1.594094e+002
1.268133e+003, 1.584039e+002
1.270061e+003, 1.575298e+002
1.271990e+003, 1.569060e+002
1.273918e+003, 1.566059e+002
1.275846e+003, 1.560183e+002
1.277775e+003, 1.551213e+002
1.279703e+003, 1.545033e+002
1.281632e+003, 1.540934e+002
1.283560e+003, 1.532721e+002
1.285489e+003, 1.522152e+002
1.287417e+003, 1.513308e+002
1.289346e+003, 1.507292e+002
1.291274e+003, 1.507733e+002
1.293203e+003, 1.510141e+002
1.295131e+003, 1.512103e+002
1.297060e+003, 1.510341e+002
1.298988e+003, 1.498599e+002
1.300917e+003, 1.488808e+002
1.302845e+003, 1.486281e+002
1.304773e+003, 1.489957e+002
1.306702e+003, 1.503395e+002
1.308630e+003, 1.511982e+002
1.310559e+003, 1.511629e+002
1.312487e+003, 1.507992e+002
1.314416e+003, 1.499240e+002
1.316344e+003, 1.504402e+002
1.318273e+003, 1.525689e+002
1.320201e+003, 1.534295e+002
1.322130e+003, 1.531786e+002
1.324058e+003, 1.528913e+002
1.325987e+003, 1.526797e+002
1.327915e+003, 1.532269e+002
1.329844e+003, 1.537687e+002
1.331772e+003, 1.526330e+002
1.333700e+003, 1.513520e+002
1.335629e+003, 1.517793e+002
1.337557e+003, 1.521989e+002
1.339486e+003, 1.516785e+002
1.341414e+003, 1.506431e+002
1.343343e+003, 1.489566e+002
1.345271e+003, 1.475301e+002
1.347200e+003, 1.465434e+002
1.349128e+003, 1.461172e+002
1.351057e+003, 1.463109e+002
1.352985e+003, 1.456725e+002
1.354914e+003, 1.441865e+002
1.356842e+003, 1.427854e+002
1.358771e+003, 1.416372e+002
1.360699e+003, 1.413974e+002
1.362627e+003, 1.415585e+002
1.364556e+003, 1.412587e+002
1.366484e+003, 1.406361e+002
1.368413e+003, 1.397201e+002
1.370341e+003, 1.387413e+002
1.372270e+003, 1.378805e+002
1.374198e+003, 1.369864e+002
1.376127e+003, 1.356637e+002
1.378055e+003, 1.349492e+002
1.379984e+003, 1.352640e+002
1.381912e+003, 1.355685e+002
1.383841e+003, 1.358591e+002
1.385769e+003, 1.353735e+002
1.387698e+003, 1.341996e+002
1.389626e+003, 1.337990e+002
1.391554e+003, 1.339248e+002
1.393483e+003, 1.337278e+002
1.395411e+003, 1.334257e+002
1.397340e+003, 1.333873e+002
1.399268e+003, 1.333600e+002
1.401197e+003, 1.330670e+002
1.403125e+003, 1.328169e+002
1.405054e+003, 1.329065e+002
1.406982e+003, 1.327657e+002
1.408911e+003, 1.319682e+002
1.410839e+003, 1.316901e+002
1.412768e+003, 1.323309e+002
1.414696e+003, 1.324482e+002
1.416625e+003, 1.320491e+002
1.418553e+003, 1.315800e+002
1.420481e+003, 1.311495e+002
1.422410e+003, 1.312244e+002
1.424338e+003, 1.315222e+002
1.426267e+003, 1.318527e+002
1.428195e+003, 1.318701e+002
1.430124e+003, 1.311287e+002
1.432052e+003, 1.304114e+002
1.433981e+003, 1.299197e+002
1.435909e+003, 1.299498e+002
1.437838e+003, 1.306414e+002
1.439766e+003, 1.314435e+002
1.441695e+003, 1.322924e+002
1.443623e+003, 1.328930e+002
1.445552e+003, 1.331588e+002
1.447480e+003, 1.322473e+002
1.449408e+003, 1.310690e+002
1.451337e+003, 1.315767e+002
1.453265e+003, 1.325805e+002
1.455194e+003, 1.333028e+002
1.457122e+003, 1.333860e+002
1.459051e+003, 1.321826e+002
1.460979e+003, 1.314191e+002
1.462908e+003, 1.315171e+002
1.464836e+003, 1.317415e+002
1.466765e+003, 1.320122e+002
1.468693e+003, 1.324048e+002
1.470622e+003, 1.327770e+002
1.472550e+003, 1.322194e+002
1.474479e+003, 1.314473e+002
1.476407e+003, 1.317811e+002
1.478335e+003, 1.324186e+002
1.480264e+003, 1.326295e+002
1.482192e+003, 1.328706e+002
1.484121e+003, 1.335834e+002
1.486049e+003, 1.338573e+002
1.487978e+003, 1.334028e+002
1.489906e+003, 1.332072e+002
1.491835e+003, 1.333124e+002
1.493763e+003, 1.334251e+002
1.495692e+003, 1.335769e+002
1.497620e+003, 1.339402e+002
1.499549e+003, 1.343674e+002
1.501477e+003, 1.346872e+002
1.503406e+003, 1.349859e+002
1.505334e+003, 1.353022e+002
1.507262e+003, 1.356626e+002
1.509191e+003, 1.362916e+002
1.511119e+003, 1.364429e+002
1.513048e+003, 1.360175e+002
1.514976e+003, 1.355578e+002
1.516905e+003, 1.351521e+002
1.518833e+003, 1.354860e+002
1.520762e+003, 1.360251e+002
1.522690e+003, 1.356020e+002
1.524619e+003, 1.353786e+002
1.526547e+003, 1.361266e+002
1.528476e+003, 1.373592e+002
1.530404e+003, 1.394207e+002
1.532333e+003, 1.394515e+002
1.534261e+003, 1.366490e+002
1.536189e+003, 1.361444e+002
1.538118e+003, 1.374790e+002
1.540046e+003, 1.376295e+002
1.541975e+003, 1.375464e+002
1.543903e+003, 1.389911e+002
1.545832e+003, 1.406755e+002
1.547760e+003, 1.419813e+002
1.549689e+003, 1.426327e+002
1.551617e+003, 1.424068e+002
1.553546e+003, 1.422581e+002
1.555474e+003, 1.423314e+002
1.557403e+003, 1.431770e+002
1.559331e+003, 1.446465e+002
1.561260e+003, 1.466633e+002
1.563188e+003, 1.483782e+002
1.565116e+003, 1.483232e+002
1.567045e+003, 1.480385e+002
1.568973e+003, 1.480513e+002
1.570902e+003, 1.489278e+002
1.572830e+003, 1.508965e+002
1.574759e+003, 1.526384e+002
1.576687e+003, 1.540413e+002
1.578616e+003, 1.550422e+002
1.580544e+003, 1.559340e+002
1.582473e+003, 1.572999e+002
1.584401e+003, 1.588611e+002
1.586330e+003, 1.606170e+002
1.588258e+003, 1.620601e+002
1.590187e+003, 1.626295e+002
1.592115e+003, 1.638471e+002
1.594043e+003, 1.658497e+002
1.595972e+003, 1.669664e+002
1.597900e+003, 1.674937e+002
1.599829e+003, 1.683668e+002
1.601757e+003, 1.696959e+002
1.603686e+003, 1.720316e+002
1.605614e+003, 1.740896e+002
1.607543e+003, 1.753829e+002
1.609471e+003, 1.758391e+002
1.611400e+003, 1.751442e+002
1.613328e+003, 1.750053e+002
1.615257e+003, 1.754007e+002
1.617185e+003, 1.764874e+002
1.619114e+003, 1.776064e+002
1.621042e+003, 1.778854e+002
1.622970e+003, 1.777102e+002
1.624899e+003, 1.769720e+002
1.626827e+003, 1.767868e+002
1.628756e+003, 1.775766e+002
1.630684e+003, 1.778178e+002
1.632613e+003, 1.775641e+002
1.634541e+003, 1.773124e+002
1.636470e+003, 1.771661e+002
1.638398e+003, 1.775447e+002
1.640327e+003, 1.776182e+002
1.642255e+003, 1.768131e+002
1.644184e+003, 1.763012e+002
1.646112e+003, 1.763584e+002
1.648041e+003, 1.763498e+002
1.649969e+003, 1.761127e+002
1.651897e+003, 1.748875e+002
1.653826e+003, 1.733454e+002
1.655754e+003, 1.720455e+002
1.657683e+003, 1.714841e+002
1.659611e+003, 1.721042e+002
1.661540e+003, 1.725251e+002
1.663468e+003, 1.725450e+002
1.665397e+003, 1.725722e+002
1.667325e+003, 1.726539e+002
1.669254e+003, 1.730363e+002
1.671182e+003, 1.731922e+002
1.673111e+003, 1.722795e+002
1.675039e+003, 1.713953e+002
1.676968e+003, 1.707610e+002
1.678896e+003, 1.708585e+002
1.680824e+003, 1.716466e+002
1.682753e+003, 1.725001e+002
1.684681e+003, 1.729207e+002
1.686610e+003, 1.715598e+002
1.688538e+003, 1.701889e+002
1.690467e+003, 1.704180e+002
1.692395e+003, 1.704810e+002
1.694324e+003, 1.699753e+002
1.696252e+003, 1.694746e+002
1.698181e+003, 1.689378e+002
1.700109e+003, 1.677769e+002
1.702038e+003, 1.666688e+002
1.703966e+003, 1.667793e+002
1.705895e+003, 1.665514e+002
1.707823e+003, 1.646308e+002
1.709751e+003, 1.639986e+002
1.711680e+003, 1.650101e+002
1.713608e+003, 1.640494e+002
1.715537e+003, 1.621557e+002
1.717465e+003, 1.616070e+002
1.719394e+003, 1.615625e+002
1.721322e+003, 1.616102e+002
1.723251e+003, 1.617106e+002
1.725179e+003, 1.619158e+002
1.727108e+003, 1.614919e+002
1.729036e+003, 1.606855e+002
1.730965e+003, 1.609371e+002
1.732893e+003, 1.610272e+002
1.734822e+003, 1.591606e+002
1.736750e+003, 1.583196e+002
1.738678e+003, 1.596705e+002
1.740607e+003, 1.602529e+002
1.742535e+003, 1.598421e+002
1.744464e+003, 1.587253e+002
1.746392e+003, 1.576531e+002
1.748321e+003, 1.577617e+002
1.750249e+003, 1.582580e+002
1.752178e+003, 1.588852e+002
1.754106e+003, 1.594899e+002
1.756035e+003, 1.600576e+002
1.757963e+003, 1.610004e+002
1.759892e+003, 1.617122e+002
1.761820e+003, 1.607035e+002
1.763749e+003, 1.597990e+002
1.765677e+003, 1.601033e+002
1.767605e+003, 1.601989e+002
1.769534e+003, 1.599651e+002
1.771462e+003, 1.601457e+002
1.773391e+003, 1.606069e+002
1.775319e+003, 1.612486e+002
1.777248e+003, 1.616717e+002
1.779176e+003, 1.615644e+002
1.781105e+003, 1.612566e+002
1.783033e+003, 1.607949e+002
1.784962e+003, 1.606551e+002
1.786890e+003, 1.608018e+002
1.788819e+003, 1.612465e+002
1.790747e+003, 1.616429e+002
1.792676e+003, 1.619338e+002
1.794604e+003, 1.615606e+002
1.796532e+003, 1.603823e+002
1.798461e+003, 1.607717e+002
1.800389e+003, 1.618935e+002
1.802318e+003, 1.621561e+002
1.804246e+003, 1.620949e+002
1.806175e+003, 1.619517e+002
1.808103e+003, 1.616897e+002
1.810032e+003, 1.613105e+002
1.811960e+003, 1.611567e+002
1.813889e+003, 1.612496e+002
1.815817e+003, 1.616136e+002
1.817746e+003, 1.623161e+002
1.819674e+003, 1.636876e+002
1.821603e+003, 1.639808e+002
1.823531e+003, 1.630321e+002
1.825459e+003, 1.611328e+002
1.827388e+003, 1.594941e+002
1.829316e+003, 1.605334e+002
1.831245e+003, 1.613530e+002
1.833173e+003, 1.610032e+002
1.835102e+003, 1.603851e+002
1.837030e+003, 1.599294e+002
1.838959e+003, 1.620222e+002
1.840887e+003, 1.641786e+002
1.842816e+003, 1.629947e+002
1.844744e+003, 1.623171e+002
1.846673e+003, 1.629619e+002
1.848601e+003, 1.640618e+002
1.850530e+003, 1.651050e+002
1.852458e+003, 1.647458e+002
1.854386e+003, 1.640085e+002
1.856315e+003, 1.635952e+002
1.858243e+003, 1.630634e+002
1.860172e+003, 1.624463e+002
1.862100e+003, 1.639290e+002
1.864029e+003, 1.658505e+002
1.865957e+003, 1.651596e+002
1.867886e+003, 1.640236e+002
1.869814e+003, 1.632421e+002
1.871743e+003, 1.629718e+002
1.873671e+003, 1.631938e+002
1.875600e+003, 1.640637e+002
1.877528e+003, 1.648849e+002
1.879457e+003, 1.650359e+002
1.881385e+003, 1.647484e+002
1.883313e+003, 1.640015e+002
1.885242e+003, 1.635417e+002
1.887170e+003, 1.634616e+002
1.889099e+003, 1.640461e+002
1.891027e+003, 1.648064e+002
1.892956e+003, 1.656086e+002
1.894884e+003, 1.661270e+002
1.896813e+003, 1.663327e+002
1.898741e+003, 1.659487e+002
1.900670e+003, 1.654504e+002
1.902598e+003, 1.653088e+002
1.904527e+003, 1.652780e+002
1.906455e+003, 1.652595e+002
1.908384e+003, 1.657245e+002
1.910312e+003, 1.663944e+002
1.912240e+003, 1.656112e+002
1.914169e+003, 1.665874e+002
1.916097e+003, 1.713798e+002
1.918026e+003, 1.760013e+002
1.919954e+003, 1.792742e+002
1.921883e+003, 1.753538e+002
1.923811e+003, 1.700049e+002
1.925740e+003, 1.687831e+002
1.927668e+003, 1.683130e+002
1.929597e+003, 1.679159e+002
1.931525e+003, 1.680710e+002
1.933454e+003, 1.683364e+002
1.935382e+003, 1.672847e+002
1.937311e+003, 1.675003e+002
1.939239e+003, 1.701067e+002
1.941167e+003, 1.711039e+002
1.943096e+003, 1.705712e+002
1.945024e+003, 1.697383e+002
1.946953e+003, 1.690189e+002
1.948881e+003, 1.685234e+002
1.950810e+003, 1.690655e+002
1.952738e+003, 1.703978e+002
1.954667e+003, 1.699862e+002
1.956595e+003, 1.693396e+002
1.958524e+003, 1.705501e+002
1.960452e+003, 1.708000e+002
1.962381e+003, 1.696059e+002
1.964309e+003, 1.695395e+002
1.966238e+003, 1.700951e+002
1.968166e+003, 1.705352e+002
1.970094e+003, 1.707741e+002
1.972023e+003, 1.706488e+002
1.973951e+003, 1.711522e+002
1.975880e+003, 1.719409e+002
1.977808e+003, 1.721228e+002
1.979737e+003, 1.721252e+002
1.981665e+003, 1.722444e+002
1.983594e+003, 1.717734e+002
1.985522e+003, 1.710065e+002
1.987451e+003, 1.714264e+002
1.989379e+003, 1.724274e+002
1.991308e+003, 1.739975e+002
1.993236e+003, 1.744182e+002
1.995165e+003, 1.737502e+002
1.997093e+003, 1.735564e+002
1.999021e+003, 1.740725e+002
2.000950e+003, 1.757362e+002
2.002878e+003, 1.768115e+002
2.004807e+003, 1.770040e+002
2.006735e+003, 1.770360e+002
2.008664e+003, 1.771663e+002
2.010592e+003, 1.776904e+002
2.012521e+003, 1.783363e+002
2.014449e+003, 1.790490e+002
2.016378e+003, 1.797233e+002
2.018306e+003, 1.805244e+002
2.020235e+003, 1.818302e+002
2.022163e+003, 1.830567e+002
2.024092e+003, 1.840774e+002
2.026020e+003, 1.848665e+002
2.027948e+003, 1.851159e+002
2.029877e+003, 1.837939e+002
2.031805e+003, 1.829666e+002
2.033734e+003, 1.830967e+002
2.035662e+003, 1.839768e+002
2.037591e+003, 1.847720e+002
2.039519e+003, 1.836933e+002
2.041448e+003, 1.834082e+002
2.043376e+003, 1.846141e+002
2.045305e+003, 1.854682e+002
2.047233e+003, 1.858118e+002
2.049162e+003, 1.854624e+002
2.051090e+003, 1.848342e+002
2.053019e+003, 1.840518e+002
2.054947e+003, 1.826129e+002
2.056875e+003, 1.815968e+002
2.058804e+003, 1.831571e+002
2.060732e+003, 1.843837e+002
2.062661e+003, 1.842737e+002
2.064589e+003, 1.841299e+002
2.066518e+003, 1.842093e+002
2.068446e+003, 1.853236e+002
2.070375e+003, 1.854514e+002
2.072303e+003, 1.837322e+002
2.074232e+003, 1.835787e+002
2.076160e+003, 1.840811e+002
2.078089e+003, 1.839773e+002
2.080017e+003, 1.842826e+002
2.081946e+003, 1.853391e+002
2.083874e+003, 1.835690e+002
2.085802e+003, 1.816902e+002
2.087731e+003, 1.832851e+002
2.089659e+003, 1.844156e+002
2.091588e+003, 1.841962e+002
2.093516e+003, 1.832801e+002
2.095445e+003, 1.825780e+002
2.097373e+003, 1.830619e+002
2.099302e+003, 1.838935e+002
2.101230e+003, 1.847741e+002
2.103159e+003, 1.844966e+002
2.105087e+003, 1.838321e+002
2.107016e+003, 1.832339e+002
2.108944e+003, 1.831374e+002
2.110873e+003, 1.834724e+002
2.112801e+003, 1.833887e+002
2.114729e+003, 1.840349e+002
2.116658e+003, 1.865736e+002
2.118586e+003, 1.866704e+002
2.120515e+003, 1.850591e+002
2.122443e+003, 1.844108e+002
2.124372e+003, 1.844950e+002
2.126300e+003, 1.853507e+002
2.128229e+003, 1.852126e+002
2.130157e+003, 1.845570e+002
2.132086e+003, 1.841388e+002
2.134014e+003, 1.843354e+002
2.135943e+003, 1.852628e+002
2.137871e+003, 1.854622e+002
2.139800e+003, 1.852351e+002
2.141728e+003, 1.846003e+002
2.143656e+003, 1.848841e+002
2.145585e+003, 1.861151e+002
2.147513e+003, 1.859824e+002
2.149442e+003, 1.854308e+002
2.151370e+003, 1.849676e+002
2.153299e+003, 1.850086e+002
2.155227e+003, 1.855529e+002
2.157156e+003, 1.872240e+002
2.159084e+003, 1.879690e+002
2.161013e+003, 1.865757e+002
2.162941e+003, 1.862852e+002
2.164870e+003, 1.866968e+002
2.166798e+003, 1.867053e+002
2.168727e+003, 1.872233e+002
2.170655e+003, 1.884831e+002
2.172583e+003, 1.890498e+002
2.174512e+003, 1.889394e+002
2.176440e+003, 1.880140e+002
2.178369e+003, 1.870999e+002
2.180297e+003, 1.866554e+002
2.182226e+003, 1.891044e+002
2.184154e+003, 1.903353e+002
2.186083e+003, 1.881488e+002
2.188011e+003, 1.878800e+002
2.189940e+003, 1.889480e+002
2.191868e+003, 1.893747e+002
2.193797e+003, 1.902426e+002
2.195725e+003, 1.916912e+002
2.197654e+003, 1.915678e+002
2.199582e+003, 1.909029e+002
2.201510e+003, 1.907552e+002
2.203439e+003, 1.902273e+002
2.205367e+003, 1.896707e+002
2.207296e+003, 1.908593e+002
2.209224e+003, 1.922042e+002
2.211153e+003, 1.929804e+002
2.213081e+003, 1.933733e+002
2.215010e+003, 1.935764e+002
2.216938e+003, 1.939115e+002
2.218867e+003, 1.939563e+002
2.220795e+003, 1.937090e+002
2.222724e+003, 1.943731e+002
2.224652e+003, 1.948244e+002
2.226581e+003, 1.940732e+002
2.228509e+003, 1.936453e+002
2.230438e+003, 1.933172e+002
2.232366e+003, 1.921132e+002
2.234294e+003, 1.914328e+002
2.236223e+003, 1.917182e+002
2.238151e+003, 1.923445e+002
2.240080e+003, 1.929243e+002
2.242008e+003, 1.931843e+002
2.243937e+003, 1.930433e+002
2.245865e+003, 1.926859e+002
2.247794e+003, 1.926453e+002
2.249722e+003, 1.926940e+002
2.251651e+003, 1.927621e+002
2.253579e+003, 1.918485e+002
2.255508e+003, 1.913598e+002
2.257436e+003, 1.929546e+002
2.259365e+003, 1.940101e+002
2.261293e+003, 1.942266e+002
2.263221e+003, 1.933449e+002
2.265150e+003, 1.934464e+002
2.267078e+003, 1.950948e+002
2.269007e+003, 1.943185e+002
2.270935e+003, 1.928770e+002
2.272864e+003, 1.926520e+002
2.274792e+003, 1.932766e+002
2.276721e+003, 1.940680e+002
2.278649e+003, 1.927011e+002
2.280578e+003, 1.919749e+002
2.282506e+003, 1.927308e+002
2.284435e+003, 1.941016e+002
2.286363e+003, 1.948603e+002
2.288292e+003, 1.931777e+002
2.290220e+003, 1.926541e+002
2.292148e+003, 1.930727e+002
2.294077e+003, 1.932043e+002
2.296005e+003, 1.935953e+002
2.297934e+003, 1.943796e+002
2.299862e+003, 1.939760e+002
2.301791e+003, 1.936835e+002
2.303719e+003, 1.948267e+002
2.305648e+003, 1.950833e+002
2.307576e+003, 1.947401e+002
2.309505e+003, 1.943120e+002
2.311433e+003, 1.945013e+002
2.313362e+003, 1.953419e+002
2.315290e+003, 1.963443e+002
2.317219e+003, 1.960728e+002
2.319147e+003, 1.935014e+002
2.321075e+003, 1.936938e+002
2.323004e+003, 1.948968e+002
2.324932e+003, 1.949583e+002
2.326861e+003, 1.940406e+002
2.328789e+003, 1.927630e+002
2.330718e+003, 1.936020e+002
2.332646e+003, 1.932755e+002
2.334575e+003, 1.910450e+002
2.336503e+003, 1.909267e+002
2.338432e+003, 1.919533e+002
2.340360e+003, 1.934650e+002
2.342289e+003, 1.947922e+002
2.344217e+003, 1.953994e+002
2.346146e+003, 1.936430e+002
2.348074e+003, 1.933572e+002
2.350002e+003, 1.945067e+002
2.351931e+003, 1.943461e+002
2.353859e+003, 1.945482e+002
2.355788e+003, 1.956691e+002
2.357716e+003, 1.950802e+002
2.359645e+003, 1.942886e+002
2.361573e+003, 1.947433e+002
2.363502e+003, 1.954393e+002
2.365430e+003, 1.955498e+002
2.367359e+003, 1.930087e+002
2.369287e+003, 1.921557e+002
2.371216e+003, 1.930840e+002
2.373144e+003, 1.937026e+002
2.375073e+003, 1.937408e+002
2.377001e+003, 1.930257e+002
2.378929e+003, 1.938440e+002
2.380858e+003, 1.944447e+002
2.382786e+003, 1.932268e+002
2.384715e+003, 1.932182e+002
2.386643e+003, 1.940379e+002
2.388572e+003, 1.951777e+002
2.390500e+003, 1.956590e+002
2.392429e+003, 1.955337e+002
2.394357e+003, 1.953134e+002
2.396286e+003, 1.945849e+002
2.398214e+003, 1.933835e+002
2.400143e+003, 1.935459e+002
2.402071e+003, 1.940401e+002
2.404000e+003, 1.943733e+002
2.405928e+003, 1.943623e+002
2.407856e+003, 1.937600e+002
2.409785e+003, 1.921687e+002
2.411713e+003, 1.921150e+002
2.413642e+003, 1.925977e+002
2.415570e+003, 1.911173e+002
2.417499e+003, 1.907448e+002
2.419427e+003, 1.913104e+002
2.421356e+003, 1.907654e+002
2.423284e+003, 1.905128e+002
2.425213e+003, 1.907903e+002
2.427141e+003, 1.905936e+002
2.429070e+003, 1.907275e+002
2.430998e+003, 1.915726e+002
2.432927e+003, 1.910643e+002
2.434855e+003, 1.900544e+002
2.436783e+003, 1.889545e+002
2.438712e+003, 1.892931e+002
2.440640e+003, 1.901407e+002
2.442569e+003, 1.905385e+002
2.444497e+003, 1.891902e+002
2.446426e+003, 1.874269e+002
2.448354e+003, 1.886204e+002
2.450283e+003, 1.894914e+002
2.452211e+003, 1.895177e+002
2.454140e+003, 1.889809e+002
2.456068e+003, 1.880046e+002
2.457997e+003, 1.867327e+002
2.459925e+003, 1.868253e+002
2.461854e+003, 1.871569e+002
2.463782e+003, 1.872044e+002
2.465710e+003, 1.865372e+002
2.467639e+003, 1.868919e+002
2.469567e+003, 1.895745e+002
2.471496e+003, 1.879566e+002
2.473424e+003, 1.852176e+002
2.475353e+003, 1.847839e+002
2.477281e+003, 1.849604e+002
2.479210e+003, 1.848642e+002
2.481138e+003, 1.829771e+002
2.483067e+003, 1.829861e+002
2.484995e+003, 1.841854e+002
2.486924e+003, 1.838273e+002
2.488852e+003, 1.834490e+002
2.490781e+003, 1.831590e+002
2.492709e+003, 1.822631e+002
2.494637e+003, 1.814981e+002
2.496566e+003, 1.811036e+002
2.498494e+003, 1.814764e+002
2.500423e+003, 1.815128e+002
2.502351e+003, 1.809481e+002
2.504280e+003, 1.805421e+002
2.506208e+003, 1.803631e+002
2.508137e+003, 1.804185e+002
2.510065e+003, 1.806123e+002
2.511994e+003, 1.811383e+002
2.513922e+003, 1.825512e+002
2.515851e+003, 1.808890e+002
2.517779e+003, 1.787718e+002
2.519708e+003, 1.784967e+002
2.521636e+003, 1.790389e+002
2.523564e+003, 1.793538e+002
2.525493e+003, 1.782269e+002
2.527421e+003, 1.779798e+002
2.529350e+003, 1.778919e+002
2.531278e+003, 1.768197e+002
2.533207e+003, 1.764138e+002
2.535135e+003, 1.763199e+002
2.537064e+003, 1.757807e+002
2.538992e+003, 1.751133e+002
2.540921e+003, 1.745616e+002
2.542849e+003, 1.743084e+002
2.544778e+003, 1.754715e+002
2.546706e+003, 1.769317e+002
2.548635e+003, 1.747493e+002
2.550563e+003, 1.744612e+002
2.552491e+003, 1.758543e+002
2.554420e+003, 1.758456e+002
2.556348e+003, 1.756170e+002
2.558277e+003, 1.752857e+002
2.560205e+003, 1.744396e+002
2.562134e+003, 1.736256e+002
2.564062e+003, 1.726845e+002
2.565991e+003, 1.699232e+002
2.567919e+003, 1.693577e+002
2.569848e+003, 1.709244e+002
2.571776e+003, 1.710116e+002
2.573705e+003, 1.705848e+002
2.575633e+003, 1.701254e+002
2.577562e+003, 1.707256e+002
2.579490e+003, 1.706318e+002
2.581418e+003, 1.696242e+002
2.583347e+003, 1.689006e+002
2.585275e+003, 1.686465e+002
2.587204e+003, 1.688584e+002
2.589132e+003, 1.694094e+002
2.591061e+003, 1.695340e+002
2.592989e+003, 1.690161e+002
2.594918e+003, 1.675069e+002
2.596846e+003, 1.667761e+002
2.598775e+003, 1.671504e+002
2.600703e+003, 1.670052e+002
2.602632e+003, 1.671724e+002
2.604560e+003, 1.676944e+002
2.606489e+003, 1.665852e+002
2.608417e+003, 1.665817e+002
2.610345e+003, 1.678410e+002
2.612274e+003, 1.655654e+002
2.614202e+003, 1.648071e+002
2.616131e+003, 1.662548e+002
2.618059e+003, 1.658014e+002
2.619988e+003, 1.647602e+002
2.621916e+003, 1.639093e+002
2.623845e+003, 1.652714e+002
2.625773e+003, 1.655442e+002
2.627702e+003, 1.644182e+002
2.629630e+003, 1.637219e+002
2.631559e+003, 1.633267e+002
2.633487e+003, 1.628596e+002
2.635416e+003, 1.605157e+002
2.637344e+003, 1.614175e+002
2.639272e+003, 1.641989e+002
2.641201e+003, 1.624298e+002
2.643129e+003, 1.619726e+002
2.645058e+003, 1.627258e+002
2.646986e+003, 1.622243e+002
2.648915e+003, 1.615046e+002
2.650843e+003, 1.607150e+002
2.652772e+003, 1.593827e+002
2.654700e+003, 1.600378e+002
2.656629e+003, 1.615014e+002
2.658557e+003, 1.617176e+002
2.660486e+003, 1.611155e+002
2.662414e+003, 1.603698e+002
2.664343e+003, 1.603293e+002
2.666271e+003, 1.585293e+002
2.668199e+003, 1.572148e+002
2.670128e+003, 1.587175e+002
2.672056e+003, 1.599341e+002
2.673985e+003, 1.598977e+002
2.675913e+003, 1.581654e+002
2.677842e+003, 1.591520e+002
2.679770e+003, 1.599595e+002
2.681699e+003, 1.588681e+002
2.683627e+003, 1.576634e+002
2.685556e+003, 1.575084e+002
2.687484e+003, 1.585206e+002
2.689413e+003, 1.578938e+002
2.691341e+003, 1.569766e+002
2.693270e+003, 1.563818e+002
2.695198e+003, 1.564189e+002
2.697126e+003, 1.565648e+002
2.699055e+003, 1.565231e+002
2.700983e+003, 1.557121e+002
2.702912e+003, 1.551245e+002
2.704840e+003, 1.547541e+002
2.706769e+003, 1.539097e+002
2.708697e+003, 1.539867e+002
2.710626e+003, 1.542077e+002
2.712554e+003, 1.528168e+002
2.714483e+003, 1.520334e+002
2.716411e+003, 1.518271e+002
2.718340e+003, 1.520245e+002
2.720268e+003, 1.522437e+002
2.722197e+003, 1.523371e+002
2.724125e+003, 1.521462e+002
2.726053e+003, 1.520291e+002
2.727982e+003, 1.521413e+002
2.729910e+003, 1.525415e+002
2.731839e+003, 1.527899e+002
2.733767e+003, 1.524412e+002
2.735696e+003, 1.515908e+002
2.737624e+003, 1.516954e+002
2.739553e+003, 1.520069e+002
2.741481e+003, 1.522578e+002
2.743410e+003, 1.523204e+002
2.745338e+003, 1.514527e+002
2.747267e+003, 1.504701e+002
2.749195e+003, 1.509628e+002
2.751124e+003, 1.501276e+002
2.753052e+003, 1.492548e+002
2.754980e+003, 1.497181e+002
2.756909e+003, 1.502986e+002
2.758837e+003, 1.501841e+002
2.760766e+003, 1.491830e+002
2.762694e+003, 1.498737e+002
2.764623e+003, 1.497995e+002
2.766551e+003, 1.487004e+002
2.768480e+003, 1.492531e+002
2.770408e+003, 1.490829e+002
2.772337e+003, 1.484074e+002
2.774265e+003, 1.491984e+002
2.776194e+003, 1.483062e+002
2.778122e+003, 1.471105e+002
2.780051e+003, 1.482001e+002
2.781979e+003, 1.477057e+002
2.783907e+003, 1.469246e+002
2.785836e+003, 1.469755e+002
2.787764e+003, 1.467537e+002
2.789693e+003, 1.465147e+002
2.791621e+003, 1.464101e+002
2.793550e+003, 1.472792e+002
2.795478e+003, 1.456308e+002
2.797407e+003, 1.433101e+002
2.799335e+003, 1.468019e+002
2.801264e+003, 1.482918e+002
2.803192e+003, 1.478722e+002
2.805121e+003, 1.466736e+002
2.807049e+003, 1.471345e+002
2.808978e+003, 1.467673e+002
2.810906e+003, 1.445651e+002
2.812834e+003, 1.444900e+002
2.814763e+003, 1.447633e+002
2.816691e+003, 1.446931e+002
2.818620e+003, 1.440847e+002
2.820548e+003, 1.438333e+002
2.822477e+003, 1.437985e+002
2.824405e+003, 1.434805e+002
2.826334e+003, 1.433408e+002
2.828262e+003, 1.432381e+002
2.830191e+003, 1.430603e+002
2.832119e+003, 1.430562e+002
2.834048e+003, 1.426224e+002
2.835976e+003, 1.418309e+002
2.837905e+003, 1.419907e+002
2.839833e+003, 1.423842e+002
2.841761e+003, 1.423878e+002
2.843690e+003, 1.410616e+002
2.845618e+003, 1.402544e+002
2.847547e+003, 1.404643e+002
2.849475e+003, 1.421359e+002
2.851404e+003, 1.410718e+002
2.853332e+003, 1.407966e+002
2.855261e+003, 1.419297e+002
2.857189e+003, 1.410931e+002
2.859118e+003, 1.404323e+002
2.861046e+003, 1.401341e+002
2.862975e+003, 1.399274e+002
2.864903e+003, 1.406712e+002
2.866832e+003, 1.404610e+002
2.868760e+003, 1.385576e+002
2.870688e+003, 1.384540e+002
2.872617e+003, 1.384763e+002
2.874545e+003, 1.383732e+002
2.876474e+003, 1.393192e+002
2.878402e+003, 1.393613e+002
2.880331e+003, 1.390862e+002
2.882259e+003, 1.393572e+002
2.884188e+003, 1.391067e+002
2.886116e+003, 1.380058e+002
2.888045e+003, 1.364270e+002
2.889973e+003, 1.365115e+002
2.891902e+003, 1.362491e+002
2.893830e+003, 1.360260e+002
2.895759e+003, 1.373549e+002
2.897687e+003, 1.378636e+002
2.899615e+003, 1.377776e+002
2.901544e+003, 1.373574e+002
2.903472e+003, 1.376170e+002
2.905401e+003, 1.372254e+002
2.907329e+003, 1.362623e+002
2.909258e+003, 1.355140e+002
2.911186e+003, 1.351152e+002
2.913115e+003, 1.352358e+002
2.915043e+003, 1.359575e+002
2.916972e+003, 1.352288e+002
2.918900e+003, 1.349547e+002
2.920829e+003, 1.353214e+002
2.922757e+003, 1.350103e+002
2.924686e+003, 1.352364e+002
2.926614e+003, 1.350498e+002
2.928542e+003, 1.336961e+002
2.930471e+003, 1.335065e+002
2.932399e+003, 1.341697e+002
2.934328e+003, 1.350665e+002
2.936256e+003, 1.348251e+002
2.938185e+003, 1.347218e+002
2.940113e+003, 1.344846e+002
2.942042e+003, 1.337459e+002
2.943970e+003, 1.337540e+002
2.945899e+003, 1.341348e+002
2.947827e+003, 1.344725e+002
2.949756e+003, 1.342243e+002
2.951684e+003, 1.330118e+002
2.953613e+003, 1.322303e+002
2.955541e+003, 1.332410e+002
2.957469e+003, 1.336126e+002
2.959398e+003, 1.338725e+002
2.961326e+003, 1.339675e+002
2.963255e+003, 1.332366e+002
2.965183e+003, 1.325702e+002
2.967112e+003, 1.325559e+002
2.969040e+003, 1.335168e+002
2.970969e+003, 1.320671e+002
2.972897e+003, 1.311075e+002
2.974826e+003, 1.311235e+002
2.976754e+003, 1.316083e+002
2.978683e+003, 1.305215e+002
2.980611e+003, 1.298745e+002
2.982540e+003, 1.307055e+002
2.984468e+003, 1.314195e+002
2.986396e+003, 1.319200e+002
2.988325e+003, 1.316340e+002
2.990253e+003, 1.298709e+002
2.992182e+003, 1.296601e+002
2.994110e+003, 1.296021e+002
2.996039e+003, 1.291085e+002
2.997967e+003, 1.281390e+002
2.999896e+003, 1.289106e+002
3.001824e+003, 1.298936e+002
3.003753e+003, 1.295457e+002
3.005681e+003, 1.285185e+002
3.007610e+003, 1.278191e+002
3.009538e+003, 1.276931e+002
3.011467e+003, 1.283655e+002
3.013395e+003, 1.276405e+002
3.015323e+003, 1.269599e+002
3.017252e+003, 1.268982e+002
3.019180e+003, 1.256302e+002
3.021109e+003, 1.242612e+002
3.023037e+003, 1.234058e+002
3.024966e+003, 1.234773e+002
3.026894e+003, 1.241461e+002
3.028823e+003, 1.241839e+002
3.030751e+003, 1.237072e+002
3.032680e+003, 1.237618e+002
3.034608e+003, 1.219855e+002
3.036537e+003, 1.207931e+002
3.038465e+003, 1.211685e+002
3.040394e+003, 1.207461e+002
3.042322e+003, 1.207485e+002
3.044250e+003, 1.197804e+002
3.046179e+003, 1.168921e+002
3.048107e+003, 1.170140e+002
3.050036e+003, 1.175213e+002
3.051964e+003, 1.173842e+002
3.053893e+003, 1.161629e+002
3.055821e+003, 1.162644e+002
3.057750e+003, 1.155187e+002
3.059678e+003, 1.137606e+002
3.061607e+003, 1.132611e+002
3.063535e+003, 1.127486e+002
3.065464e+003, 1.123608e+002
3.067392e+003, 1.122557e+002
3.069321e+003, 1.118416e+002
3.071249e+003, 1.125574e+002
3.073177e+003, 1.131261e+002
3.075106e+003, 1.117783e+002
3.077034e+003, 1.114947e+002
3.078963e+003, 1.100026e+002
3.080891e+003, 1.080710e+002
3.082820e+003, 1.079309e+002
3.084748e+003, 1.075979e+002
3.086677e+003, 1.076072e+002
3.088605e+003, 1.076971e+002
3.090534e+003, 1.063303e+002
3.092462e+003, 1.061167e+002
3.094391e+003, 1.061813e+002
3.096319e+003, 1.057815e+002
3.098248e+003, 1.042617e+002
3.100176e+003, 1.043387e+002
3.102104e+003, 1.043846e+002
3.104033e+003, 1.032735e+002
3.105961e+003, 1.029177e+002
3.107890e+003, 1.024573e+002
3.109818e+003, 1.022556e+002
3.111747e+003, 1.027270e+002
3.113675e+003, 1.020750e+002
3.115604e+003, 1.011511e+002
3.117532e+003, 1.000690e+002
3.119461e+003, 9.858896e+001
3.121389e+003, 9.767620e+001
3.123318e+003, 9.681136e+001
3.125246e+003, 9.643509e+001
3.127175e+003, 9.796976e+001
3.129103e+003, 9.726745e+001
3.131031e+003, 9.525140e+001
3.132960e+003, 9.350391e+001
3.134888e+003, 9.445287e+001
3.136817e+003, 9.374238e+001
3.138745e+003, 9.364365e+001
3.140674e+003, 9.432773e+001
3.142602e+003, 9.316050e+001
3.144531e+003, 9.300515e+001
3.146459e+003, 9.267683e+001
3.148388e+003, 9.145622e+001
3.150316e+003, 8.925620e+001
3.152245e+003, 8.780558e+001
3.154173e+003, 8.811311e+001
3.156102e+003, 8.964443e+001
3.158030e+003, 8.914930e+001
3.159958e+003, 8.906973e+001
3.161887e+003, 8.844924e+001
3.163815e+003, 8.708772e+001
3.165744e+003, 8.658425e+001
3.167672e+003, 8.564329e+001
3.169601e+003, 8.548438e+001
3.171529e+003, 8.602205e+001
3.173458e+003, 8.378824e+001
3.175386e+003, 8.183170e+001
3.177315e+003, 8.114582e+001
3.179243e+003, 8.157632e+001
3.181172e+003, 8.095098e+001
3.183100e+003, 8.083786e+001
3.185029e+003, 7.971902e+001
3.186957e+003, 7.748865e+001
3.188885e+003, 7.760060e+001
3.190814e+003, 7.717670e+001
3.192742e+003, 7.593382e+001
3.194671e+003, 7.424590e+001
3.196599e+003, 7.309354e+001
3.198528e+003, 7.236424e+001
3.200456e+003, 7.209988e+001
3.202385e+003, 7.181408e+001
3.204313e+003, 7.007146e+001
3.206242e+003, 6.854011e+001
3.208170e+003, 6.770518e+001
3.210099e+003, 6.754757e+001
3.212027e+003, 6.785392e+001
3.213956e+003, 6.696346e+001
3.215884e+003, 6.642986e+001
3.217813e+003, 6.624860e+001
3.219741e+003, 6.521293e+001
3.221669e+003, 6.419655e+001
3.223598e+003, 6.332777e+001
3.225526e+003, 6.266158e+001
3.227455e+003, 6.230381e+001
3.229383e+003, 6.108250e+001
3.231312e+003, 6.078302e+001
3.233240e+003, 6.079155e+001
3.235169e+003, 5.991952e+001
3.237097e+003, 5.791827e+001
3.239026e+003, 5.743694e+001
3.240954e+003, 5.770455e+001
3.242883e+003, 5.761801e+001
3.244811e+003, 5.753313e+001
3.246740e+003, 5.686999e+001
3.248668e+003, 5.643573e+001
3.250596e+003, 5.661193e+001
3.252525e+003, 5.663088e+001
3.254453e+003, 5.608226e+001
3.256382e+003, 5.493430e+001
3.258310e+003, 5.375515e+001
3.260239e+003, 5.389353e+001
3.262167e+003, 5.356699e+001
3.264096e+003, 5.308919e+001
3.266024e+003, 5.284517e+001
3.267953e+003, 5.313736e+001
3.269881e+003, 5.275683e+001
3.271810e+003, 5.156150e+001
3.273738e+003, 5.038269e+001
3.275667e+003, 5.003796e+001
3.277595e+003, 5.014990e+001
3.279523e+003, 5.042813e+001
3.281452e+003, 4.999304e+001
3.283380e+003, 4.870673e+001
3.285309e+003, 4.847894e+001
3.287237e+003, 4.825825e+001
3.289166e+003, 4.786796e+001
3.291094e+003, 4.748608e+001
3.293023e+003, 4.749574e+001
3.294951e+003, 4.712209e+001
3.296880e+003, 4.629704e+001
3.298808e+003, 4.545298e+001
3.300737e+003, 4.511274e+001
3.302665e+003, 4.602264e+001
3.304594e+003, 4.612560e+001
3.306522e+003, 4.524798e+001
3.308450e+003, 4.394226e+001
3.310379e+003, 4.374876e+001
3.312307e+003, 4.253931e+001
3.314236e+003, 4.191318e+001
3.316164e+003, 4.211547e+001
3.318093e+003, 4.235535e+001
3.320021e+003, 4.151958e+001
3.321950e+003, 4.108735e+001
3.323878e+003, 4.111418e+001
3.325807e+003, 4.118196e+001
3.327735e+003, 4.055004e+001
3.329664e+003, 4.083353e+001
3.331592e+003, 3.984733e+001
3.333521e+003, 3.773568e+001
3.335449e+003, 3.742922e+001
3.337377e+003, 3.698914e+001
3.339306e+003, 3.646221e+001
3.341234e+003, 3.572182e+001
3.343163e+003, 3.474522e+001
3.345091e+003, 3.488635e+001
3.347020e+003, 3.480751e+001
3.348948e+003, 3.476356e+001
3.350877e+003, 3.474691e+001
3.352805e+003, 3.425140e+001
3.354734e+003, 3.389936e+001
3.356662e+003, 3.390205e+001
3.358591e+003, 3.368437e+001
3.360519e+003, 3.288681e+001
3.362448e+003, 3.260186e+001
3.364376e+003, 3.224237e+001
3.366304e+003, 3.226384e+001
3.368233e+003, 3.247230e+001
3.370161e+003, 3.212035e+001
3.372090e+003, 3.094604e+001
3.374018e+003, 3.085205e+001
3.375947e+003, 3.100149e+001
3.377875e+003, 3.044852e+001
3.379804e+003, 2.958326e+001
3.381732e+003, 2.858181e+001
3.383661e+003, 2.868708e+001
3.385589e+003, 2.899915e+001
3.387518e+003, 2.782223e+001
3.389446e+003, 2.751363e+001
3.391375e+003, 2.687792e+001
3.393303e+003, 2.691058e+001
3.395231e+003, 2.757025e+001
3.397160e+003, 2.726545e+001
3.399088e+003, 2.682346e+001
3.401017e+003, 2.631537e+001
3.402945e+003, 2.576356e+001
3.404874e+003, 2.535431e+001
3.406802e+003, 2.592169e+001
3.408731e+003, 2.491153e+001
3.410659e+003, 2.483126e+001
3.412588e+003, 2.499697e+001
3.414516e+003, 2.377618e+001
3.416445e+003, 2.320500e+001
3.418373e+003, 2.395748e+001
3.420302e+003, 2.372517e+001
3.422230e+003, 2.272295e+001
3.424158e+003, 2.317822e+001
3.426087e+003, 2.306573e+001
3.428015e+003, 2.266710e+001
3.429944e+003, 2.242070e+001
3.431872e+003, 2.245461e+001
3.433801e+003, 2.252868e+001
3.435729e+003, 2.226997e+001
3.437658e+003, 2.146181e+001
3.439586e+003, 2.059805e+001
3.441515e+003, 2.006509e+001
3.443443e+003, 1.985062e+001
3.445372e+003, 1.932518e+001
3.447300e+003, 1.907906e+001
3.449229e+003, 1.929672e+001
3.451157e+003, 1.966311e+001
3.453085e+003, 1.899345e+001
3.455014e+003, 1.854850e+001
3.456942e+003, 1.836710e+001
##END=



