##NAMES=Parahopeite
##RRUFFID=R050463
##IDEAL CHEMISTRY=Zn_3_(PO_4_)_2_·4H_2_O
##LOCALITY=Broken Hill mine, Kabwe, Zambia
##OWNER=RRUFF
##SOURCE=University of Arizona Mineral Museum
##DESCRIPTION=Colorless elongated subparallel aggregate of crystals
##STATUS=The identification of this mineral has been confirmed by X-ray diffraction and chemical analysis
##URL=https://www.rruff.net/odr/rruff_sample/R050463
##MEASURED CHEMISTRY=Zn_3.00_(P_1.00_O_4_)_2_·4H_2_O
##DIFFRACTION SAMPLE DESCRIPTION=Powder
##CELL PARAMETERS=a: 5.7689 b: 7.5452 c: 5.2784 alpha: 93.446 beta: 91.191 gamma: 91.387 volume: 229.22 crystal system: triclinic
##FILETYPE=Raman Processed
##RAMAN WAVELENGTH=780

145.2454, 145.9736
147.1738, 156.8185
149.1023, 167.8611
151.0308, 179.1889
152.9592, 192.6353
154.8877, 208.4954
156.8162, 226.7596
158.7446, 249.1011
160.6731, 272.6434
162.6016, 298.4645
164.5300, 324.1962
166.4585, 335.2574
168.3870, 325.6485
170.3154, 307.7824
172.2439, 276.7862
174.1724, 244.6897
176.1008, 220.6884
178.0293, 203.1440
179.9578, 189.3263
181.8862, 180.9559
183.8147, 171.9907
185.7432, 161.2939
187.6716, 150.4153
189.6001, 139.5289
191.5286, 129.3277
193.4570, 120.9786
195.3855, 114.7426
197.3140, 109.5596
199.2424, 104.8170
201.1709, 101.6146
203.0994, 101.2738
205.0278, 102.0430
206.9563, 101.9260
208.8848, 100.7951
210.8132, 101.3540
212.7417, 104.5574
214.6702, 107.9070
216.5986, 110.8765
218.5271, 114.1330
220.4556, 118.1253
222.3840, 122.7192
224.3125, 127.5257
226.2410, 132.6879
228.1694, 137.7568
230.0979, 142.4720
232.0264, 147.4415
233.9548, 153.1045
235.8833, 159.0965
237.8118, 164.7977
239.7402, 170.1274
241.6687, 177.0684
243.5972, 186.1504
245.5256, 195.1297
247.4541, 203.3750
249.3826, 211.3814
251.3110, 220.1625
253.2395, 228.9172
255.1680, 235.3452
257.0964, 239.5448
259.0249, 240.5714
260.9534, 237.8872
262.8818, 232.8471
264.8103, 225.0671
266.7388, 216.0973
268.6672, 206.6869
270.5957, 197.0857
272.5242, 189.3565
274.4526, 183.5415
276.3811, 178.9509
278.3096, 176.2754
280.2380, 173.6190
282.1665, 170.2279
284.0950, 166.3102
286.0234, 161.7516
287.9519, 156.7405
289.8804, 153.0667
291.8088, 150.9684
293.7373, 149.6432
295.6658, 148.8676
297.5942, 148.8391
299.5227, 149.5934
301.4512, 151.1683
303.3796, 153.8017
305.3081, 157.4216
307.2366, 161.5286
309.1650, 165.9443
311.0935, 171.1517
313.0220, 177.9574
314.9504, 184.7717
316.8789, 190.1305
318.8074, 194.9443
320.7358, 201.3772
322.6643, 209.3458
324.5928, 215.6676
326.5212, 220.6371
328.4497, 222.3488
330.3782, 219.6823
332.3066, 214.6877
334.2351, 208.1554
336.1636, 200.3275
338.0920, 191.2875
340.0205, 180.9614
341.9490, 171.7683
343.8774, 163.8339
345.8059, 157.3957
347.7344, 152.7601
349.6628, 149.2914
351.5913, 146.7460
353.5198, 145.0890
355.4482, 144.3532
357.3767, 144.5636
359.3052, 145.0456
361.2336, 146.6624
363.1621, 147.1787
365.0906, 146.3731
367.0190, 144.5187
368.9475, 141.8167
370.8760, 138.0013
372.8044, 132.4525
374.7329, 125.1931
376.6614, 118.2643
378.5898, 111.1861
380.5183, 105.5403
382.4468, 101.6920
384.3752, 98.74444
386.3037, 96.80350
388.2322, 95.20204
390.1606, 93.22962
392.0891, 91.10987
394.0176, 89.67860
395.9460, 89.01490
397.8745, 88.95931
399.8030, 90.06094
401.7314, 90.44164
403.6599, 88.55286
405.5884, 87.00496
407.5168, 87.83208
409.4453, 89.73219
411.3738, 90.39552
413.3022, 89.80149
415.2307, 89.86195
417.1592, 90.69750
419.0876, 91.72080
421.0161, 93.06120
422.9446, 94.09938
424.8730, 94.72754
426.8015, 94.81537
428.7300, 94.04338
430.6584, 92.69743
432.5869, 91.54234
434.5154, 90.53699
436.4438, 89.57260
438.3723, 88.59557
440.3008, 87.88566
442.2292, 87.45152
444.1577, 87.41084
446.0862, 87.85901
448.0146, 88.69455
449.9431, 90.13067
451.8716, 91.90417
453.8000, 92.73801
455.7285, 92.62885
457.6570, 93.09439
459.5854, 94.56735
461.5139, 96.08111
463.4424, 97.25246
465.3708, 98.52612
467.2993, 100.3139
469.2278, 102.2937
471.1563, 103.8707
473.0847, 105.2063
475.0132, 106.8997
476.9417, 108.9892
478.8701, 110.8819
480.7986, 112.1513
482.7271, 113.9339
484.6555, 116.7340
486.5840, 119.6747
488.5125, 121.7576
490.4409, 124.3072
492.3694, 129.3308
494.2979, 135.6789
496.2263, 141.0418
498.1548, 145.3497
500.0833, 149.2234
502.0117, 153.2534
503.9402, 155.6449
505.8687, 156.7091
507.7971, 155.6345
509.7256, 151.7061
511.6541, 145.8924
513.5825, 137.9921
515.5110, 129.1471
517.4395, 121.0327
519.3679, 113.6853
521.2964, 107.4308
523.2249, 102.2009
525.1533, 98.43824
527.0818, 96.88660
529.0103, 95.33930
530.9387, 92.59026
532.8672, 90.72096
534.7957, 91.25974
536.7241, 93.01240
538.6526, 95.11438
540.5811, 97.51440
542.5095, 99.90074
544.4380, 102.1945
546.3665, 104.8698
548.2949, 107.8516
550.2234, 111.4835
552.1519, 115.7214
554.0803, 120.7794
556.0088, 127.4064
557.9373, 133.9895
559.8657, 140.1094
561.7942, 145.2726
563.7227, 149.2366
565.6511, 151.6310
567.5796, 151.0477
569.5081, 147.2777
571.4365, 142.5378
573.3650, 136.7574
575.2935, 130.4711
577.2219, 123.7177
579.1504, 116.5747
581.0789, 108.3263
583.0073, 100.6978
584.9358, 94.21073
586.8643, 89.01190
588.7927, 85.88251
590.7212, 83.96135
592.6497, 80.97878
594.5781, 77.27744
596.5066, 74.84448
598.4351, 73.73963
600.3635, 73.42786
602.2920, 74.20949
604.2205, 74.54436
606.1489, 73.77742
608.0774, 72.86989
610.0059, 71.59840
611.9343, 70.82561
613.8628, 71.56039
615.7913, 72.81911
617.7197, 73.34624
619.6482, 73.42847
621.5767, 73.57494
623.5051, 73.77445
625.4336, 74.11992
627.3621, 74.60915
629.2905, 75.35042
631.2190, 76.33723
633.1475, 77.65147
635.0759, 79.57527
637.0044, 81.37186
638.9329, 82.83266
640.8613, 84.07634
642.7898, 85.31296
644.7183, 86.24982
646.6467, 86.57691
648.5752, 86.22313
650.5037, 85.01972
652.4321, 83.08247
654.3606, 81.23004
656.2891, 79.45950
658.2175, 77.74107
660.1460, 76.15627
662.0745, 74.50762
664.0029, 72.57356
665.9314, 70.93853
667.8599, 69.63721
669.7883, 68.77103
671.7168, 68.60250
673.6453, 68.75528
675.5737, 69.09657
677.5022, 69.36737
679.4307, 69.13819
681.3591, 68.55616
683.2876, 68.12514
685.2161, 67.89241
687.1445, 67.83110
689.0730, 67.94853
691.0015, 67.98721
692.9299, 67.93919
694.8584, 67.90466
696.7869, 67.97688
698.7153, 67.80494
700.6438, 66.89327
702.5723, 66.40176
704.5007, 67.69695
706.4292, 68.68777
708.3577, 67.59446
710.2861, 65.96328
712.2146, 65.49873
714.1431, 65.76913
716.0715, 66.31922
718.0000, 66.92787
719.9285, 65.90202
721.8569, 63.37939
723.7854, 61.94207
725.7139, 61.69133
727.6423, 61.73833
729.5708, 62.03182
731.4993, 62.37132
733.4277, 62.88188
735.3562, 63.05183
737.2847, 62.43660
739.2131, 61.85201
741.1416, 61.60444
743.0701, 61.34263
744.9985, 60.69814
746.9270, 60.21797
748.8555, 60.56590
750.7839, 61.25654
752.7124, 61.54569
754.6409, 61.58314
756.5693, 61.82136
758.4978, 62.20314
760.4263, 62.51698
762.3547, 62.76352
764.2832, 62.73687
766.2117, 62.31955
768.1401, 62.51945
770.0686, 63.92750
771.9971, 64.56939
773.9255, 63.74001
775.8540, 62.87016
777.7825, 61.84365
779.7109, 61.30122
781.6394, 61.77218
783.5679, 62.25834
785.4963, 62.46056
787.4248, 62.29469
789.3533, 61.19793
791.2817, 60.25683
793.2102, 60.90043
795.1387, 61.95388
797.0671, 61.91430
798.9956, 61.25803
800.9241, 60.97872
802.8525, 60.95826
804.7810, 60.65636
806.7095, 60.08724
808.6379, 59.89410
810.5664, 60.18644
812.4949, 60.15124
814.4233, 59.42413
816.3518, 59.61837
818.2803, 61.13226
820.2087, 62.28890
822.1372, 62.95194
824.0657, 63.17588
825.9941, 62.61023
827.9226, 62.40597
829.8511, 63.33175
831.7795, 64.05669
833.7080, 63.86735
835.6365, 63.34779
837.5649, 62.45995
839.4934, 61.92242
841.4219, 62.31615
843.3503, 63.06990
845.2788, 63.85557
847.2073, 64.53602
849.1357, 64.81611
851.0642, 65.03603
852.9927, 65.76684
854.9211, 66.68507
856.8496, 67.11488
858.7781, 67.43553
860.7065, 68.70753
862.6350, 70.59743
864.5635, 71.84181
866.4919, 72.51511
868.4204, 72.79748
870.3489, 72.72710
872.2773, 72.99124
874.2058, 73.66325
876.1343, 74.39738
878.0627, 75.13187
879.9912, 76.03952
881.9197, 77.24238
883.8481, 78.24786
885.7766, 78.86996
887.7051, 79.53737
889.6335, 80.35872
891.5620, 81.13906
893.4905, 81.86894
895.4189, 82.62016
897.3474, 83.46855
899.2759, 84.14545
901.2043, 84.58372
903.1328, 84.77338
905.0613, 84.49443
906.9897, 84.39751
908.9182, 84.88828
910.8467, 85.46488
912.7751, 85.56960
914.7036, 86.05628
916.6321, 87.54935
918.5605, 89.65650
920.4890, 92.13957
922.4175, 95.07181
924.3459, 98.08662
926.2744, 102.1000
928.2029, 108.7647
930.1313, 116.3471
932.0598, 122.0468
933.9883, 127.2307
935.9167, 134.1888
937.8452, 142.6391
939.7737, 151.4966
941.7021, 161.5193
943.6306, 174.8904
945.5591, 191.4903
947.4875, 211.9577
949.4160, 235.3830
951.3445, 256.9581
953.2729, 276.2737
955.2014, 289.7299
957.1299, 297.4224
959.0583, 294.2319
960.9868, 279.7332
962.9153, 256.3318
964.8438, 223.3244
966.7722, 194.6477
968.7007, 170.0865
970.6292, 151.6831
972.5576, 139.6819
974.4861, 131.4859
976.4146, 127.2086
978.3430, 125.6848
980.2715, 126.8371
982.2000, 128.6629
984.1284, 130.8997
986.0569, 136.7213
987.9854, 146.4704
989.9138, 159.2195
991.8423, 174.9892
993.7708, 193.1200
995.6992, 213.9496
997.6277, 233.7788
999.5562, 252.8510
1001.485, 265.1834
1003.413, 270.4076
1005.342, 265.9820
1007.270, 250.5990
1009.198, 228.5997
1011.127, 198.4851
1013.055, 171.6200
1014.984, 149.4565
1016.912, 131.3813
1018.841, 117.2790
1020.769, 107.9520
1022.698, 104.1640
1024.626, 102.9047
1026.555, 104.9468
1028.483, 106.7294
1030.412, 107.8987
1032.340, 108.4483
1034.269, 109.2937
1036.197, 107.4054
1038.125, 100.9156
1040.054, 95.13200
1041.982, 90.35957
1043.911, 86.40957
1045.839, 83.55608
1047.768, 81.02788
1049.696, 78.32285
1051.625, 76.87353
1053.553, 77.72604
1055.482, 77.60405
1057.410, 76.57954
1059.339, 74.05855
1061.267, 69.30219
1063.196, 64.98279
1065.124, 61.09605
1067.052, 57.94778
1068.981, 55.76607
1070.909, 53.92282
1072.838, 52.32982
1074.766, 50.80834
1076.695, 49.39138
1078.623, 48.37897
1080.552, 47.88556
1082.480, 47.24510
1084.409, 46.30206
1086.337, 45.62022
1088.266, 45.22441
1090.194, 45.42998
1092.123, 46.33500
1094.051, 46.44479
1095.979, 45.68736
1097.908, 45.68824
1099.836, 46.44505
1101.765, 46.63026
1103.693, 46.23855
1105.622, 45.33199
1107.550, 44.04433
1109.479, 43.68565
1111.407, 44.10795
1113.336, 44.47857
1115.264, 44.80556
1117.193, 44.83928
1119.121, 44.60629
1121.050, 44.18324
1122.978, 43.74763
1124.906, 44.00581
1126.835, 44.55046
1128.763, 44.56325
1130.692, 44.27680
1132.620, 43.69759
1134.549, 43.23277
1136.477, 43.91780
1138.406, 44.86451
1140.334, 44.85266
1142.263, 44.45144
1144.191, 44.04953
1146.120, 43.73932
1148.048, 43.76949
1149.977, 43.87542
1151.905, 43.87408
1153.833, 43.82517
1155.762, 43.68430
1157.690, 43.66434
1159.619, 44.13906
1161.547, 44.29336
1163.476, 43.30788
1165.404, 42.54507
1167.333, 42.84777
1169.261, 43.12457
1171.190, 43.04050
1173.118, 42.67596
1175.047, 41.77746
1176.975, 41.23240
1178.904, 41.33990
1180.832, 41.61019
1182.760, 42.13720
1184.689, 42.40861
1186.617, 42.25088
1188.546, 41.83379
1190.474, 41.14525
1192.403, 41.11855
1194.331, 41.83159
1196.260, 41.62096
1198.188, 40.47966
1200.117, 40.14194
1202.045, 40.56654
1203.974, 41.18689
1205.902, 41.77682
1207.831, 41.73234
1209.759, 41.45502
1211.688, 41.57264
1213.616, 41.61179
1215.544, 40.94288
1217.473, 40.22001
1219.401, 39.91902
1221.330, 39.88181
1223.258, 40.50073
1225.187, 41.04139
1227.115, 40.47893
1229.044, 40.01157
1230.972, 40.77837
1232.901, 41.27162
1234.829, 40.54538
1236.758, 40.01451
1238.686, 40.10138
1240.615, 40.37867
1242.543, 40.87352
1244.471, 40.68147
1246.400, 39.58630
1248.328, 39.35769
1250.257, 40.12031
1252.185, 40.46344
1254.114, 40.35454
1256.042, 40.26772
1257.971, 40.28098
1259.899, 40.61607
1261.828, 41.13243
1263.756, 41.13430
1265.685, 40.74486
1267.613, 40.81362
1269.542, 41.03909
1271.470, 40.61832
1273.398, 40.14491
1275.327, 40.25246
1277.255, 40.62098
1279.184, 41.10548
1281.112, 41.20262
1283.041, 40.61411
1284.969, 40.27814
1286.898, 40.52266
1288.826, 40.65025
1290.755, 40.50864
1292.683, 40.49384
1294.612, 40.69028
1296.540, 40.55413
1298.469, 40.06282
1300.397, 40.07365
1302.325, 40.52757
1304.254, 40.93333
1306.182, 41.14521
1308.111, 40.78968
1310.039, 40.30885
1311.968, 40.31947
1313.896, 40.43805
1315.825, 40.17746
1317.753, 40.01022
1319.682, 40.48970
1321.610, 40.73098
1323.539, 40.26291
1325.467, 40.01294
1327.396, 40.27645
1329.324, 40.13259
1331.252, 39.45584
1333.181, 39.51880
1335.109, 40.25666
1337.038, 40.07067
1338.966, 39.28446
1340.895, 39.79311
1342.823, 40.82317
1344.752, 40.44659
1346.680, 39.61486
1348.609, 39.83982
1350.537, 40.19467
1352.466, 39.63888
1354.394, 38.98545
1356.323, 38.51298
1358.251, 38.52457
1360.179, 39.81899
1362.108, 40.27575
1364.036, 39.02077
1365.965, 38.71257
1367.893, 39.76146
1369.822, 40.05468
1371.750, 39.55932
1373.679, 39.40189
1375.607, 39.58810
1377.536, 40.24085
1379.464, 40.88865
1381.393, 40.43997
1383.321, 39.72445
1385.250, 39.68778
1387.178, 39.67137
1389.106, 39.14924
1391.035, 39.05435
1392.963, 39.99831
1394.892, 40.21938
1396.820, 39.09257
1398.749, 38.70009
1400.677, 39.10918
1402.606, 39.46864
1404.534, 39.70637
1406.463, 39.74420
1408.391, 39.73195
1410.320, 39.67099
1412.248, 39.54335
1414.177, 39.35101
1416.105, 39.39366
1418.033, 39.84132
1419.962, 40.03642
1421.890, 39.82717
1423.819, 39.93786
1425.747, 40.48958
1427.676, 40.58227
1429.604, 40.06342
1431.533, 39.55184
1433.461, 39.31379
1435.390, 39.72543
1437.318, 40.22419
1439.247, 40.16916
1441.175, 40.01395
1443.104, 39.93726
1445.032, 39.95782
1446.960, 40.27386
1448.889, 40.25476
1450.817, 39.77641
1452.746, 39.45316
1454.674, 39.28782
1456.603, 39.41033
1458.531, 39.71929
1460.460, 39.61209
1462.388, 39.26773
1464.317, 39.24234
1466.245, 39.35999
1468.174, 39.19640
1470.102, 38.99742
1472.031, 38.88233
1473.959, 38.96839
1475.887, 39.32266
1477.816, 39.68983
1479.744, 40.09150
1481.673, 39.97832
1483.601, 39.45131
1485.530, 39.21803
1487.458, 39.25594
1489.387, 39.03640
1491.315, 38.78626
1493.244, 39.12593
1495.172, 39.59306
1497.101, 39.91475
1499.029, 39.87733
1500.958, 39.44462
1502.886, 39.18717
1504.814, 39.16943
1506.743, 39.48754
1508.671, 39.71363
1510.600, 39.44334
1512.528, 39.30591
1514.457, 39.49090
1516.385, 39.54309
1518.314, 39.34316
1520.242, 39.33947
1522.171, 39.70483
1524.099, 39.73598
1526.028, 39.41751
1527.956, 39.37347
1529.885, 39.46645
1531.813, 39.54829
1533.741, 39.62579
1535.670, 39.75768
1537.598, 39.58504
1539.527, 38.65427
1541.455, 38.35481
1543.384, 38.97916
1545.312, 39.43026
1547.241, 39.75492
1549.169, 39.50537
1551.098, 38.94289
1553.026, 38.63364
1554.955, 38.41998
1556.883, 38.38232
1558.812, 38.42535
1560.740, 38.35246
1562.668, 38.21751
1564.597, 38.12461
1566.525, 38.26822
1568.454, 38.50034
1570.382, 38.61421
1572.311, 38.68124
1574.239, 38.64626
1576.168, 38.54795
1578.096, 38.24800
1580.025, 38.03940
1581.953, 38.14538
1583.882, 37.93393
1585.810, 37.57415
1587.739, 37.38348
1589.667, 37.12403
1591.595, 37.33582
1593.524, 37.66894
1595.452, 37.52262
1597.381, 37.25170
1599.309, 36.79607
1601.238, 36.37880
1603.166, 36.31695
1605.095, 36.85172
1607.023, 37.50251
1608.952, 37.27478
1610.880, 36.77571
1612.809, 36.52419
1614.737, 36.46999
1616.666, 36.65416
1618.594, 36.76990
1620.522, 36.76187
1622.451, 36.39487
1624.379, 35.76031
1626.308, 35.91362
1628.236, 36.37188
1630.165, 36.12243
1632.093, 35.56417
1634.022, 35.07042
1635.950, 34.81512
1637.879, 34.70295
1639.807, 34.71037
1641.736, 34.91340
1643.664, 35.54213
1645.593, 36.13424
1647.521, 35.89251
1649.449, 35.54473
1651.378, 35.56884
1653.306, 35.55589
1655.235, 35.18058
1657.163, 35.16295
1659.092, 35.49170
1661.020, 35.20238
1662.949, 34.79808
1664.877, 34.39919
1666.806, 34.16301
1668.734, 34.64902
1670.663, 34.99455
1672.591, 34.90328
1674.520, 34.51192
1676.448, 34.28197
1678.376, 34.52853
1680.305, 34.65694
1682.233, 34.32966
1684.162, 34.02742
1686.090, 33.91243
1688.019, 33.77706
1689.947, 33.70900
1691.876, 33.58332
1693.804, 33.46269
1695.733, 33.50455
1697.661, 33.34190
1699.590, 32.84781
1701.518, 32.66209
1703.447, 32.86908
1705.375, 32.68953
1707.303, 32.40516
1709.232, 32.73400
1711.160, 33.07600
1713.089, 32.53454
1715.017, 31.87891
1716.946, 31.97841
1718.874, 32.50870
1720.803, 33.06783
1722.731, 32.77543
1724.660, 32.17941
1726.588, 32.07121
1728.517, 32.16177
1730.445, 31.89081
1732.374, 31.66867
1734.302, 31.77577
1736.230, 31.69929
1738.159, 31.59845
1740.087, 30.86749
1742.016, 30.17102
1743.944, 30.81794
1745.873, 31.04858
1747.801, 30.47330
1749.730, 30.40731
1751.658, 30.64120
1753.587, 30.81487
1755.515, 30.85352
1757.444, 30.24113
1759.372, 29.96243
1761.301, 30.39083
1763.229, 30.58650
1765.157, 30.48769
1767.086, 30.30701
1769.014, 30.18584
1770.943, 30.17946
1772.871, 30.10262
1774.800, 29.92340
1776.728, 29.73501
1778.657, 29.77285
1780.585, 29.88954
1782.514, 29.69701
1784.442, 29.03611
1786.371, 28.64930
1788.299, 29.05278
1790.228, 29.31864
1792.156, 29.44144
1794.084, 29.21953
1796.013, 28.80166
1797.941, 28.82236
1799.870, 28.96048
1801.798, 29.04317
1803.727, 29.24432
1805.655, 29.40448
1807.584, 29.09532
1809.512, 28.89236
1811.441, 28.91625
1813.369, 28.73622
1815.298, 28.49380
1817.226, 28.21968
1819.155, 27.82028
1821.083, 27.93473
1823.011, 28.26982
1824.940, 28.03123
1826.868, 27.69120
1828.797, 27.78873
1830.725, 28.01871
1832.654, 28.05397
1834.582, 27.80286
1836.511, 27.61686
1838.439, 27.74024
1840.368, 27.74396
1842.296, 27.60241
1844.225, 27.18637
1846.153, 26.86859
1848.082, 26.74005
1850.010, 26.42209
1851.938, 26.42654
1853.867, 26.47713
1855.795, 26.42813
1857.724, 26.37783
1859.652, 26.41113
1861.581, 26.55460
1863.509, 26.60793
1865.438, 26.21695
1867.366, 26.28191
1869.295, 26.70286
1871.223, 26.24872
1873.152, 25.77468
1875.080, 26.25765
1877.009, 26.33358
1878.937, 25.74934
1880.865, 25.94830
1882.794, 26.09424
1884.722, 25.55860
1886.651, 25.33941
1888.579, 25.69511
1890.508, 25.64990
1892.436, 25.39307
1894.365, 25.18025
1896.293, 24.89727
1898.222, 24.84258
1900.150, 24.68170
1902.079, 24.49202
1904.007, 24.49233
1905.936, 24.69454
1907.864, 24.57978
1909.792, 24.21870
1911.721, 24.58516
1913.649, 25.11263
1915.578, 25.27493
1917.506, 24.68608
1919.435, 23.99023
1921.363, 23.86109
1923.292, 23.96684
1925.220, 24.28743
1927.149, 24.56245
1929.077, 24.65679
1931.006, 24.64072
1932.934, 24.60651
1934.863, 23.96576
1936.791, 23.42409
1938.719, 23.57824
1940.648, 23.80094
1942.576, 23.95775
1944.505, 23.83996
1946.433, 23.64128
1948.362, 23.84269
1950.290, 24.05656
1952.219, 23.87767
1954.147, 23.79344
1956.076, 23.76359
1958.004, 23.36611
1959.933, 23.19252
1961.861, 23.02327
1963.790, 22.87766
1965.718, 22.99179
1967.646, 22.93512
1969.575, 22.65862
1971.503, 22.50091
1973.432, 22.77858
1975.360, 22.90085
1977.289, 22.70127
1979.217, 22.39881
1981.146, 22.26658
1983.074, 22.17370
1985.003, 22.11047
1986.931, 22.49252
1988.860, 22.68771
1990.788, 22.25674
1992.717, 21.85421
1994.645, 21.94842
1996.573, 22.09056
1998.502, 21.88434
2000.430, 21.42057
2002.359, 21.75500
2004.287, 22.40294
2006.216, 22.61099
2008.144, 22.20137
2010.073, 21.55658
2012.001, 21.24777
2013.930, 21.12674
2015.858, 21.00421
2017.787, 21.03592
2019.715, 21.04467
2021.644, 21.04393
2023.572, 21.00189
2025.500, 20.79214
2027.429, 20.95156
2029.357, 21.31965
2031.286, 21.22001
2033.214, 20.84447
2035.143, 20.57868
2037.071, 20.05412
2039.000, 19.81996
2040.928, 20.24302
2042.857, 20.26285
2044.785, 20.00060
2046.714, 19.92257
2048.642, 20.49842
2050.571, 20.59271
2052.499, 20.41395
2054.427, 20.38577
2056.356, 19.94073
2058.284, 19.56744
2060.213, 19.51001
2062.141, 19.72368
2064.070, 20.07449
2065.998, 20.00763
2067.927, 19.52877
2069.855, 19.39888
2071.784, 19.43076
2073.712, 19.43653
2075.641, 19.20166
2077.569, 18.68055
2079.498, 18.68380
2081.426, 18.75731
2083.354, 18.51103
2085.283, 18.53973
2087.211, 19.23394
2089.140, 19.60381
2091.068, 19.29988
2092.997, 18.79498
2094.925, 18.72682
2096.854, 18.76690
2098.782, 18.68932
2100.711, 18.15416
2102.639, 17.86639
2104.568, 18.12589
2106.496, 17.89614
2108.425, 17.74567
2110.353, 18.18798
2112.281, 18.01180
2114.210, 17.26309
2116.138, 17.27154
2118.067, 18.03347
2119.995, 18.32975
2121.924, 18.19864
2123.852, 17.82875
2125.781, 17.43579
2127.709, 17.50724
2129.638, 17.46038
2131.566, 17.58430
2133.495, 17.68084
2135.423, 17.67423
2137.352, 17.53823
2139.280, 17.37515
2141.208, 17.39115
2143.137, 17.30440
2145.065, 17.18880
2146.994, 17.34864
2148.922, 17.60328
2150.851, 17.21840
2152.779, 16.66899
2154.708, 16.63800
2156.636, 17.07082
2158.565, 16.96076
2160.493, 16.39972
2162.422, 16.14823
2164.350, 16.28167
2166.279, 16.49449
2168.207, 16.47009
2170.135, 16.96356
2172.064, 16.74360
2173.992, 16.15318
2175.921, 16.30938
2177.849, 16.12420
2179.778, 15.94567
2181.706, 16.17832
2183.635, 16.38145
2185.563, 16.31120
2187.492, 15.82403
2189.420, 15.52719
2191.349, 15.83445
2193.277, 16.05803
2195.206, 16.15263
2197.134, 15.95944
2199.063, 15.79239
2200.991, 15.92632
2202.919, 15.97925
2204.848, 15.96201
2206.776, 15.90741
2208.705, 15.62783
2210.633, 15.47058
2212.562, 15.53699
2214.490, 15.12908
2216.419, 14.79941
2218.347, 15.42297
2220.276, 16.02577
2222.204, 15.70946
2224.133, 15.20992
2226.061, 14.93126
2227.990, 14.88530
2229.918, 14.91699
2231.846, 15.18414
2233.775, 15.54266
2235.703, 15.67887
2237.632, 15.39174
2239.560, 15.15716
2241.489, 15.11782
2243.417, 14.77056
2245.346, 14.64415
2247.274, 14.53455
2249.203, 14.44411
2251.131, 14.54148
2253.060, 15.12205
2254.988, 14.86593
2256.917, 14.11485
2258.845, 14.30617
2260.773, 14.21486
2262.702, 13.83001
2264.630, 13.99313
2266.559, 14.23854
2268.487, 14.15806
2270.416, 14.07789
2272.344, 14.34365
2274.273, 14.31206
2276.201, 13.73059
2278.130, 13.45685
2280.058, 13.70891
2281.987, 13.49439
2283.915, 13.19752
2285.844, 13.72657
2287.772, 14.09273
2289.700, 13.89199
2291.629, 13.53822
2293.557, 13.48644
2295.486, 13.56000
2297.414, 13.90729
2299.343, 14.04771
2301.271, 13.45846
2303.200, 13.00039
2305.128, 13.22306
2307.057, 13.33401
2308.985, 13.16694
2310.914, 13.06640
2312.842, 12.99596
2314.771, 13.06322
2316.699, 13.05605
2318.627, 12.91406
2320.556, 12.84200
2322.484, 12.44237
2324.413, 12.33355
2326.341, 12.93325
2328.270, 13.09613
2330.198, 12.67750
2332.127, 13.01467
2334.055, 13.35943
2335.984, 13.20993
2337.912, 12.81009
2339.841, 12.23960
2341.769, 12.08305
2343.698, 12.30773
2345.626, 12.28206
2347.554, 12.17899
2349.483, 12.32571
2351.411, 12.51111
2353.340, 12.13367
2355.268, 11.62685
2357.197, 11.69976
2359.125, 12.05526
2361.054, 11.98870
2362.982, 11.85144
2364.911, 12.03404
2366.839, 11.99573
2368.768, 12.11478
2370.696, 12.00363
2372.625, 11.49930
2374.553, 11.49761
2376.481, 11.42599
2378.410, 11.16974
2380.338, 11.38664
2382.267, 12.05025
2384.195, 11.77061
2386.124, 11.21042
2388.052, 11.15293
2389.981, 10.99046
2391.909, 11.13062
2393.838, 11.73924
2395.766, 11.33551
2397.695, 10.75708
2399.623, 10.37505
2401.552, 10.82322
2403.480, 11.31554
2405.408, 10.79070
2407.337, 10.49897
2409.265, 10.44331
2411.194, 10.53646
2413.122, 10.60286
2415.051, 10.48975
2416.979, 10.70672
2418.908, 10.69353
2420.836, 10.29386
2422.765, 10.86872
2424.693, 11.10703
2426.622, 10.71037
2428.550, 10.58013
2430.479, 10.50621
2432.407, 10.60409
2434.335, 10.59710
2436.264, 10.51853
2438.192, 10.28928
2440.121, 10.19795
2442.049, 10.27890
2443.978, 10.02190
2445.906, 10.03557
2447.835, 10.31322
2449.763, 9.995120
2451.692, 9.746724
2453.620, 9.569249
2455.549, 9.549355
2457.477, 9.794819
2459.406, 9.886014
2461.334, 9.816507
2463.262, 9.817357
2465.191, 9.479731
2467.119, 9.764136
2469.048, 10.16688
2470.976, 9.181258
2472.905, 9.157466
2474.833, 9.796966
2476.762, 9.795603
2478.690, 9.668866
2480.619, 9.302870
2482.547, 8.984441
2484.476, 8.999099
2486.404, 9.482162
2488.333, 9.475385
2490.261, 9.264585
2492.189, 9.316984
2494.118, 9.323956
2496.046, 9.286957
2497.975, 9.184389
2499.903, 9.386297
2501.832, 9.305148
2503.760, 8.953408
2505.689, 9.067065
2507.617, 9.030156
2509.546, 8.763686
2511.474, 9.143466
2513.403, 9.528524
2515.331, 8.764677
2517.260, 8.497335
2519.188, 8.843571
2521.116, 8.741939
2523.045, 8.500863
2524.973, 8.101707
2526.902, 8.292316
2528.830, 8.649876
2530.759, 8.578169
2532.687, 8.766546
2534.616, 8.691172
2536.544, 8.181959
2538.473, 8.184744
2540.401, 8.455156
2542.330, 8.532808
2544.258, 8.205967
2546.187, 8.159346
2548.115, 8.470042
2550.043, 8.702433
2551.972, 8.629045
2553.900, 8.341433
2555.829, 8.314009
2557.757, 8.158730
2559.686, 7.254146
2561.614, 7.878150
2563.543, 8.617861
2565.471, 8.326328
2567.400, 8.273138
2569.328, 7.983796
2571.257, 7.818911
2573.185, 7.794037
2575.114, 7.581015
2577.042, 7.140888
2578.970, 7.181760
2580.899, 7.380087
2582.827, 7.396784
2584.756, 7.424100
2586.684, 7.536398
2588.613, 7.524221
2590.541, 7.429857
2592.470, 7.407003
2594.398, 6.974898
2596.327, 6.904393
2598.255, 7.130762
2600.184, 7.207185
2602.112, 7.263846
2604.041, 7.152222
2605.969, 6.636018
2607.897, 6.666228
2609.826, 6.962941
2611.754, 7.039750
2613.683, 7.244573
2615.611, 7.402049
2617.540, 6.873202
2619.468, 6.493872
2621.397, 6.560690
2623.325, 6.709950
2625.254, 6.306864
2627.182, 5.960622
2629.111, 6.566892
2631.039, 7.002949
2632.968, 7.246539
2634.896, 7.178422
2636.824, 6.803566
2638.753, 6.517555
2640.681, 6.333123
2642.610, 6.866580
2644.538, 7.393429
2646.467, 6.355004
2648.395, 6.289338
2650.324, 6.569736
2652.252, 6.229517
2654.181, 6.306560
2656.109, 6.707339
2658.038, 7.114471
2659.966, 6.243786
2661.895, 5.652363
2663.823, 6.553584
2665.751, 6.502359
2667.680, 6.136955
2669.608, 5.898685
2671.537, 5.937091
2673.465, 5.926726
2675.394, 5.355108
2677.322, 5.572337
2679.251, 6.095931
2681.179, 6.394042
2683.108, 6.323259
2685.036, 6.315568
2686.965, 6.360184
2688.893, 5.997130
2690.822, 5.935020
2692.750, 6.117045
2694.678, 5.932925
2696.607, 5.773088
2698.535, 5.722084
2700.464, 5.789554
2702.392, 6.033646
2704.321, 6.357248
2706.249, 6.095642
2708.178, 5.345082
2710.106, 4.778766
2712.035, 5.354985
2713.963, 5.801475
2715.892, 5.915400
2717.820, 5.477283
2719.749, 5.802612
2721.677, 6.054715
2723.605, 5.505635
2725.534, 5.704558
2727.462, 5.893888
2729.391, 5.721238
2731.319, 5.105897
2733.248, 5.066986
2735.176, 5.612694
2737.105, 5.094440
2739.033, 5.033846
2740.962, 5.513387
2742.890, 5.658374
2744.819, 5.554615
2746.747, 5.304575
2748.676, 5.543752
2750.604, 5.376748
2752.532, 5.025388
2754.461, 5.001757
2756.389, 5.055596
2758.318, 5.202138
2760.246, 5.236217
2762.175, 5.466335
2764.103, 5.546964
2766.032, 5.366226
2767.960, 5.226534
2769.889, 5.293769
2771.817, 5.365182
2773.746, 5.265141
2775.674, 4.961863
2777.603, 4.646691
2779.531, 4.823845
2781.459, 4.655293
2783.388, 4.685936
2785.316, 5.223935
2787.245, 4.777417
2789.173, 4.584109
2791.102, 5.012974
2793.030, 4.715097
2794.959, 4.732131
2796.887, 5.044317
2798.816, 4.476145
2800.744, 4.623873
2802.673, 5.202177
2804.601, 4.684414
2806.530, 4.704790
2808.458, 4.932854
2810.386, 4.800061
2812.315, 4.582563
2814.243, 4.507453
2816.172, 4.665139
2818.100, 4.525020
2820.029, 4.485919
2821.957, 4.595309
2823.886, 4.795680
2825.814, 5.065289
2827.743, 5.293546
2829.671, 5.270959
2831.600, 5.434224
2833.528, 5.510571
2835.457, 5.287037
2837.385, 5.374220
2839.313, 5.444385
2841.242, 5.390961
2843.170, 5.120614
2845.099, 5.008152
2847.027, 5.023191
2848.956, 4.783166
2850.884, 4.815905
2852.813, 4.856169
2854.741, 4.726894
2856.670, 4.318014
2858.598, 3.966354
2860.527, 3.957538
2862.455, 5.034820
2864.384, 5.261114
2866.312, 4.673353
2868.240, 4.511075
2870.169, 4.134996
2872.097, 3.987257
2874.026, 4.579829
2875.954, 4.907708
2877.883, 4.925309
2879.811, 4.772705
2881.740, 4.733691
2883.668, 4.656555
2885.597, 4.609960
2887.525, 4.890807
2889.454, 4.604744
2891.382, 4.478049
2893.311, 5.021921
2895.239, 4.515039
2897.167, 4.325123
2899.096, 4.767303
2901.024, 5.407283
2902.953, 5.349396
2904.881, 5.095822
2906.810, 4.956511
2908.738, 5.065945
2910.667, 5.040372
2912.595, 4.798692
2914.524, 4.671523
2916.452, 4.524608
2918.381, 4.575386
2920.309, 4.907689
2922.238, 4.604349
2924.166, 4.457071
2926.094, 4.755031
2928.023, 5.281893
2929.951, 4.973405
2931.880, 4.331687
2933.808, 4.664655
2935.737, 4.860300
2937.665, 4.911889
2939.594, 4.864532
2941.522, 4.648520
2943.451, 4.880340
2945.379, 5.235699
2947.308, 5.091884
2949.236, 5.038008
2951.165, 5.240064
2953.093, 5.472003
2955.021, 5.446135
2956.950, 5.406619
2958.878, 5.278586
2960.807, 4.653029
2962.735, 4.970346
2964.664, 5.320527
2966.592, 5.205323
2968.521, 5.293097
2970.449, 5.510476
2972.378, 5.634215
2974.306, 6.055107
2976.235, 5.482504
2978.163, 5.240554
2980.092, 5.960198
2982.020, 6.354822
2983.948, 6.328575
2985.877, 6.132162
2987.805, 5.926507
2989.734, 5.279283
2991.662, 5.152583
2993.591, 5.624541
2995.519, 5.313106
2997.448, 5.630696
2999.376, 6.153812
3001.305, 6.149324
3003.233, 6.222176
3005.162, 6.121126
3007.090, 5.863505
3009.019, 5.698382
3010.947, 5.814389
3012.875, 6.051658
3014.804, 5.992146
3016.732, 5.621816
3018.661, 5.844395
3020.589, 6.097878
3022.518, 5.838656
3024.446, 5.835936
3026.375, 5.840446
3028.303, 5.831983
3030.232, 6.063494
3032.160, 6.211061
3034.089, 6.000353
3036.017, 5.326253
3037.946, 5.092530
3039.874, 6.154604
3041.802, 7.326327
3043.731, 6.320203
3045.659, 5.726860
3047.588, 5.229815
3049.516, 5.022106
3051.445, 5.606818
3053.373, 5.464410
3055.302, 5.164435
3057.230, 5.484340
3059.159, 6.595792
3061.087, 5.987367
3063.016, 4.644836
3064.944, 4.694911
3066.873, 4.832952
3068.801, 5.471075
3070.729, 6.176532
3072.658, 5.744684
3074.586, 6.169623
3076.515, 6.461442
3078.443, 5.978871
3080.372, 5.832755
3082.300, 5.039117
3084.229, 4.813944
3086.157, 6.142673
3088.086, 6.019804
3090.014, 6.211366
3091.943, 6.688504
3093.871, 6.941824
3095.800, 6.619342
3097.728, 6.551511
3099.656, 6.599075
3101.585, 6.123794
3103.513, 6.649798
3105.442, 7.374054
3107.370, 7.830730
3109.299, 7.602664
3111.227, 7.630731
3113.156, 7.732596
3115.084, 7.960394
3117.013, 8.306706
3118.941, 8.412356
3120.870, 8.596257
3122.798, 9.357961
3124.727, 9.801107
3126.655, 9.038464
3128.583, 8.282670
3130.512, 8.749487
3132.440, 9.712848
3134.369, 9.969383
3136.297, 9.467336
3138.226, 9.215643
3140.154, 9.433119
3142.083, 9.369483
3144.011, 8.805602
3145.940, 8.785238
3147.868, 9.406835
3149.797, 9.485054
3151.725, 8.821609
3153.654, 8.395979
3155.582, 8.336101
3157.510, 8.239115
3159.439, 7.876382
3161.367, 7.391843
3163.296, 7.908947
3165.224, 7.664801
3167.153, 6.741530
3169.081, 7.913110
3171.010, 7.501686
3172.938, 7.112421
3174.867, 7.885908
3176.795, 7.563851
3178.724, 7.245481
3180.652, 7.065520
3182.581, 6.716513
3184.509, 6.663991
3186.438, 7.351839
3188.366, 7.472983
3190.294, 6.103074
3192.223, 7.174735
3194.151, 7.243281
3196.080, 6.568838
3198.008, 6.203153
3199.937, 5.909342
3201.865, 6.589400
3203.794, 6.870431
3205.722, 6.044192
3207.651, 6.144677
3209.579, 5.759372
3211.508, 5.493174
3213.436, 5.476060
3215.365, 6.126278
3217.293, 6.149358
3219.221, 6.023522
3221.150, 5.956566
3223.078, 5.729005
3225.007, 6.111541
3226.935, 5.970773
3228.864, 5.330980
3230.792, 5.820539
3232.721, 5.574601
3234.649, 5.654691
3236.578, 6.116820
3238.506, 6.202106
3240.435, 6.195734
3242.363, 5.950627
3244.292, 5.602814
3246.220, 5.811686
3248.148, 5.494099
3250.077, 5.962878
3252.005, 6.372113
3253.934, 5.487022
3255.862, 6.142385
3257.791, 6.230763
3259.719, 5.675051
3261.648, 5.050179
3263.576, 5.416599
3265.505, 6.177837
3267.433, 6.327864
3269.362, 5.691878
3271.290, 5.940674
3273.219, 5.435714
3275.147, 5.389899
3277.075, 5.941058
3279.004, 6.096787
3280.932, 6.196697
3282.861, 5.971566
3284.789, 5.499043
3286.718, 5.176130
3288.646, 5.522035
3290.575, 5.710259
3292.503, 5.592825
3294.432, 5.162906
3296.360, 6.272551
3298.289, 6.031957
3300.217, 5.540976
3302.146, 5.750747
3304.074, 5.125379
3306.002, 5.224022
3307.931, 5.065850
3309.859, 4.395367
3311.788, 4.158679
3313.716, 4.047464
3315.645, 3.502064
3317.573, 3.293912
3319.502, 4.294200
3321.430, 4.146656
3323.359, 4.035821
3325.287, 3.592218
3327.216, 2.726301
3329.144, 2.116679
3331.073, 3.033970
3333.001, 3.780982
3334.929, 3.876292
3336.858, 3.605296
3338.786, 3.498094
3340.715, 3.437508
3342.643, 3.374763
3344.572, 3.123715
3346.500, 3.257601
3348.429, 3.096807
3350.357, 3.127802
3352.286, 3.111749
3354.214, 2.039042
3356.143, 2.752134
3358.071, 3.651526
3360.000, 3.728596
3361.928, 2.785943
3363.856, 2.679845
3365.785, 2.338294
3367.713, 2.487973
3369.642, 2.984720
3371.570, 2.928433
3373.499, 2.530344
3375.427, 2.482578
3377.356, 2.088181
3379.284, 1.141828
3381.213, 2.035359
3383.141, 1.795519
3385.070, 1.775811
3386.998, 2.201503
3388.927, 2.369312
3390.855, 1.553003
3392.783, 1.320024
3394.712, 1.885537
3396.640, 2.671381
3398.569, 2.001514
3400.497, 1.261925
3402.426, 1.497730
3404.354, 2.068132
3406.283, 2.015126
3408.211, 2.217074
3410.140, 2.216405
3412.068, 1.654080
3413.997, 1.048055
3415.925, 1.489058
3417.854, 2.102074
3419.782, 2.375296
3421.710, 1.876649
3423.639, 0.9914904
3425.567, 1.266883
3427.496, 0.4816252
3429.424, 0.8214466
3431.353, 1.470740
3433.281, 1.171101
3435.210, 1.429698
3437.138, 1.816634
3439.067, 2.242563
3440.995, 2.346715
3442.924, 1.778321
3444.852, 1.574148
3446.781, 1.360887
3448.709, 1.960377
3450.637, 2.584604
3452.566, 0.8814732
3454.494, 2.036758
3456.423, 2.392121
3458.351, 1.823788
3460.280, 1.099003
3462.208, 1.036858
3464.137, 1.329759
3466.065, 1.360189
3467.994, 1.094988
3469.922, 0.9961530
3471.851, 1.946573
3473.779, 1.211276
3475.708, 0.7494593
3477.636, 0.7846197
3479.564, 0.9641180
3481.493, 1.072185
3483.421, 0.4340755
3485.350, 0.7102114
3487.278, 1.021784
3489.207, 0.6395940
3491.135, 0.5026089
3493.064, 0.7450203
3494.992, 0.4729882
3496.921, 0.8126472
3498.849, 1.841362
3500.778, 0.2685012
3502.706, 0.6764549
3504.635, 0.6217612
3506.563, 0.9657297
3508.491, 1.945955
3510.420, 0.5466763
3512.348, 0.6787063
3514.277, 0.9787426
3516.205, 1.134182
3518.134, 1.178096
3520.062, 1.091890
3521.991, 0.4138273
3523.919, 0.1477153
3525.848, 0.3353909
3527.776, 0.8116004
3529.705, 1.386778
3531.633, 1.116833
3533.562, 0.3377237
3535.490, 0.4209909
3537.418, 1.332983
3539.347, 1.869121
3541.275, 0.1307452
3543.204, 0.2510996
3545.132, 0.9538925
3547.061, 1.139008
3548.989, 0.5928319
3550.918, -0.1001205
3552.846, 0.1688280
3554.775, 0.5901610
3556.703, 0.4105826
3558.632, -0.1719012
3560.560, 0.6043689
3562.489, 0.9455434
3564.417, 0.5934937
3566.345, 0.4885274
3568.274, 0.7543728
3570.202, 0.5106138
3572.131, 0.2835512
3574.059, 0.6186162
3575.988, 0.8805372
3577.916, 0.6973591
3579.845, 0.2212945
3581.773, 0.4319079
3583.702, 0.5095655
3585.630, 0.3464861
3587.559, 0.4333345
3589.487, 0.7697311
3591.416, 0.6503139
3593.344, 0.2328231
3595.272, 1.038990
3597.201, 1.665828
3599.129, 1.036557
3601.058, -0.4442721
3602.986, 0.8458214
3604.915, 0.2290578
3606.843, 2.8304821E-02
3608.772, 0.1423337
3610.700, 0.1172356
3612.629, 0.2839935
3614.557, 0.7750043
3616.486, 0.9282377
3618.414, 0.8033547
3620.343, 0.8160740
3622.271, 1.069698
3624.199, 0.5494959
3626.128, 0.8460014
3628.056, 0.8424290
3629.985, 0.9459423
3631.913, 1.038077
3633.842, 0.5187351
3635.770, 0.3563817
3637.699, 3.8615178E-02
3639.627, -5.2874781E-02
3641.556, 0.2923471
3643.484, 0.8402015
3645.413, 1.033439
3647.341, 0.5143055
3649.270, 1.039214
3651.198, 1.256048
3653.126, 1.278536
3655.055, 1.237623
3656.983, 0.2606055
3658.912, -1.3816410E-02
3660.840, 0.6392721
3662.769, 0.5533686
3664.697, 0.1171304
3666.626, 0.2669868
3668.554, 0.9011481
3670.483, -0.2635443
3672.411, 0.1277467
3674.340, 0.3158236
3676.268, 0.3795542
3678.197, 1.023857
3680.125, 1.523336
3682.053, 0.1208933
3683.982, 1.048532
3685.910, 0.1834455
3687.839, -1.231024
3689.767, -0.5228822
3691.696, 1.329413
3693.624, 0.4759939
3695.553, 0.8853933
3697.481, 1.153101
3699.410, 1.151650
3701.338, 1.045433
3703.267, 4.6123289E-02
3705.195, 1.5302970E-02
3707.124, 0.1530186
3709.052, 0.2305861
3710.980, 0.7133225
3712.909, 1.110590
3714.837, 0.3689972
3716.766, 1.343872
3718.694, 1.218837
3720.623, 0.6466855
3722.551, 0.2707140
3724.480, 0.1074583
3726.408, -0.1524369
3728.337, -0.8708838
3730.265, 0.8035601
3732.194, 4.8340201E-02
3734.122, 7.6301828E-02
3736.051, 0.8131027
3737.979, 0.6015720
3739.907, 0.4100094
3741.836, 1.046169
3743.764, 0.3533961
3745.693, 0.3919116
3747.621, 0.3932331
3749.550, -9.3780659E-02
3751.478, 7.8900177E-03
3753.407, 1.232075
3755.335, -0.2534980
3757.264, 0.5694364
3759.192, 1.345383
3761.121, 0.8648478
3763.049, 4.8419079E-03
3764.978, -0.1557061
3766.906, 0.6596401
3768.834, 0.2930720
3770.763, -8.1292599E-02
3772.691, 0.6507989
3774.620, 0.9320954
3776.548, -0.5880129
3778.477, -0.3301664
3780.405, 1.016282
3782.334, -0.1561256
3784.262, 0.3460205
3786.191, 0.7565348
3788.119, -6.0347621E-03
3790.048, -8.8144094E-03
3791.976, 9.1924943E-02
3793.905, 0.9701440
3795.833, 0.9952576
3797.761, 0.8254547
3799.690, 0.6591362
3801.618, 0.4590858
3803.547, 0.3248339
3805.475, -4.1768622E-02
3807.404, 0.2364062
3809.332, 0.2860174
3811.261, -8.2964107E-02
3813.189, -7.5822853E-02
3815.118, 0.3107349
3817.046, 0.2344681
3818.975, -0.2964357
3820.903, 0.6175418
3822.832, -0.1805725
3824.760, -0.7622918
3826.688, -0.6274188
3828.617, 2.4136391E-02
3830.545, 0.8316568
3832.474, 0.2437362
3834.402, 0.1017035
3836.331, 0.1809836
3838.259, 0.8118852
3840.188, 0.9178399
3842.116, 0.4181891
3844.045, 0.1580645
3845.973, 0.5280740
3847.902, -0.6719238
3849.830, 0.5822669
3851.759, 0.6752673
3853.687, 0.6271428
3855.615, -0.1014960
3857.544, -0.9298436
3859.472, 0.1841129
3861.401, 0.1171210
3863.329, 0.5307915
3865.258, 0.4786130
3867.186, 0.3416678
3869.115, 0.6737034
3871.043, 1.127044
3872.972, 0.8783842
3874.900, -0.2036817
3876.829, -0.5861714
3878.757, 0.8847003
3880.686, 0.3657735
3882.614, 0.5677367
3884.542, 0.3780844
3886.471, -0.3114882
3888.399, -0.2643711
3890.328, -0.2868102
3892.256, 0.7263398
3894.185, 0.2972877
3896.113, -0.2200365
3898.042, -0.5404425
3899.970, 0.4824056
3901.899, 1.230933
3903.827, 0.1995641
3905.756, 0.3614496
3907.684, -0.4588908
3909.613, 0.3206924
3911.541, 0.4603640
3913.469, 0.9793031
3915.398, 0.7754241
3917.326, 7.4892968E-02
3919.255, 0.1568230
3921.183, 0.6506175
3923.112, 4.4733081E-02
3925.040, -0.3636366
3926.969, -0.1545309
3928.897, -0.1511132
3930.826, -0.2333274
3932.754, 3.2452241E-02
3934.683, 0.5557476
3936.611, 0.6935616
3938.540, -0.5495126
3940.468, 1.419342
3942.396, 1.550590
3944.325, 6.0942370E-02
3946.253, -0.2303079
3948.182, 0.1446723
3950.110, 0.5310136
3952.039, 0.9309024
3953.967, 0.8070019
3955.896, 0.1220485
3957.824, 1.108865
3959.753, 0.3597785
3961.681, 0.4071268
3963.610, 0.6011637
3965.538, 0.6370387
3967.467, 0.4613057
3969.395, -0.1117372
3971.323, -0.3825578
3973.252, 0.3184700
3975.180, 0.8438269
3977.109, -0.2289529
3979.037, -0.6300283
3980.966, -0.1965844
3982.894, -0.1284442
3984.823, 0.7656773
3986.751, 0.3556800
3988.680, -0.2636992
3990.608, -0.3959919
3992.537, 7.3689073E-02
3994.465, 0.2271807
3996.394, -0.1268477
3998.322, 0.8177086
4000.250, -1.4957810E-02
4002.179, 3.1565148E-02
4004.107, -0.1365051
4006.036, 0.2047213
4007.964, 0.3546735
4009.893, -8.2676381E-02
4011.821, 0.1241349
4013.750, 0.1895645
4015.678, 0.2420003
4017.607, -0.3645152
4019.535, -0.2780573
4021.464, 1.002864
4023.392, 8.7473290E-03
4025.321, -0.7018250
4027.249, 0.3320115
4029.177, 0.5925813
4031.106, -0.6203030
4033.034, -0.5168977
4034.963, 0.3822648
4036.891, -0.1972817
4038.820, 2.6487879E-02
4040.748, 0.2968529
4042.677, -0.3398415
4044.605, -8.2692638E-02
4046.534, 0.3247958
4048.462, -0.3207991
4050.391, 0.8128374
4052.319, 0.1580116
4054.248, -0.5168350
4056.176, -0.3836544
4058.104, -0.3562231
4060.033, -0.1999984
4061.961, 5.7397742E-02
4063.890, 0.1880710
4065.818, 0.3762644
4067.747, 0.5527180
4069.675, 0.1475746
4071.604, -0.2823512
4073.532, 0.7601660
4075.461, -0.4485210
4077.389, 0.9135596
4079.318, 0.5876839
4081.246, 6.3337378E-02
4083.175, -0.3575426
4085.103, -0.6258986
4087.031, -0.4102800
4088.960, 0.2725144
4090.888, 0.7847615
4092.817, 5.3320710E-02
4094.745, -0.4070036
4096.674, 0.3227099
4098.603, 0.4493489
4100.531, -0.2265545
4102.459, -0.2730846
4104.388, -0.6120978
4106.316, -0.7563838
4108.245, -5.7753421E-02
4110.173, 0.2997122
4112.102, -0.6941742
4114.030, -1.455299
4115.958, -0.2217952
4117.887, 0.8473095
4119.815, 0.3038194
4121.744, 0.4259104
4123.672, 0.6865584
4125.601, 0.3325706
4127.529, -4.1601300E-02
4129.458, 0.1101913
4131.386, 0.2886146
4133.315, 0.1125816
4135.243, -9.2526183E-02
4137.172, -0.3915820
4139.100, -0.3384530
4141.029, 0.1033467
4142.957, -1.106087
4144.886, -0.1451719
4146.814, 0.4501422
4148.743, -0.5429245
4150.671, -0.8583453
4152.600, -0.1896025
4154.528, -0.3576795
4156.457, -0.6708640
4158.385, 0.1448392
4160.313, 0.4162715
4162.242, -0.4884033
4164.170, -0.4804249
4166.099, -0.3203910
4168.027, 0.1927642
4169.956, -0.5100214
4171.884, -0.1149777
4173.813, 0.8249854
4175.741, 0.4980213
4177.669, 0.1100649
4179.598, 0.1915934
4181.526, 0.4661825
4183.455, 0.4842723
4185.383, 0.1607373
4187.312, 0.1153828
4189.240, -0.2861103
4191.169, -0.9026777
4193.097, 0.6715881
4195.026, -0.7291744
4196.954, -3.5683189E-02
4198.883, 1.002858
4200.811, 0.2697750
4202.740, -0.3020585
4204.668, -0.1567980
4206.597, 3.9982241E-02
4208.525, 4.6546139E-02
4210.454, -9.7661100E-02
4212.382, 0.1302869
4214.311, 0.7657172
4216.239, 0.8299203
4218.167, 0.5025066
4220.096, -1.201129
4222.024, -0.4409541
4223.953, 0.2240064
4225.881, 2.3629749E-02
4227.810, -0.3606271
4229.738, -0.6968494
4231.667, -0.6217393
4233.595, -0.4733625
4235.523, -0.3458832
4237.452, -0.2104643
4239.380, -0.1508113
4241.309, 7.7264853E-02
4243.237, 0.4768726
4245.166, -6.1178479E-02
4247.094, -0.6496546
4249.023, 0.5947901
4250.951, -1.258896
4252.880, -7.1029529E-02
4254.808, 6.6455521E-02
4256.737, -4.0805820E-02
4258.665, 0.6970619
4260.594, 0.1720191
4262.522, 0.1772616
4264.451, 0.7563819
4266.379, -0.1003786
4268.308, -9.7291254E-02
4270.236, 0.1187959
4272.165, -0.4375035
4274.093, -0.7421445
4276.021, 0.1388259
4277.950, -4.6203360E-03
4279.878, -0.7861940
4281.807, -0.4967964
4283.735, -0.2444806
4285.664, 0.2956242
4287.592, -0.6047504
4289.521, 0.5433036
4291.449, -0.2472115
4293.377, -0.1116833
4295.306, 0.6086471
4297.234, 0.8931653
4299.163, -0.3070835
4301.091, 1.022488
4303.020, 0.6059927
4304.948, -9.1279760E-02
4306.877, -1.3673700E-02
4308.805, 0.1874475
4310.734, -0.6018127
4312.662, -0.5656125
4314.591, -0.2217795
4316.519, 0.1822857
4318.448, 0.4610783
4320.376, -9.2341207E-02
4322.305, -0.7827160
4324.233, -0.6723760
4326.162, -0.4022919
4328.090, -0.5848469
4330.019, -0.3858584
4331.947, 0.3316900
4333.875, 0.6962221
4335.804, 0.2421565
4337.732, -0.8702433
4339.661, 0.7622319
4341.589, -3.4089550E-02
4343.518, 0.4092329
4345.446, -0.2158078
4347.375, 0.9021422
4349.303, -4.2759061E-02
4351.231, 4.5875110E-02
4353.160, -4.7514912E-02
4355.088, -1.114196
4357.017, -0.1481152
4358.945, 0.6518973
4360.874, -7.3119633E-02
4362.802, -0.8166677
4364.731, -0.9695928
4366.659, -0.8372450
4368.588, -0.1212940
4370.516, -0.2589919
4372.445, -0.1866309
4374.373, -0.1193623
4376.302, 0.2004580
4378.230, 1.048061
4380.159, 1.4449800E-02
4382.087, -0.9413924
##END=



